Data from MonoPyChalIsomerACN10uM350nmA_Absorbance_14-35-37-215.txt Node
Date: Fri Jul 05 14:35:37 BST 2024
User: LASERRRRR
Spectrometer: FLMT03099
Trigger mode: 0
Integration Time (sec): 1.000000E-1
Scans to average: 1
Electric dark correction enabled: true
Nonlinearity correction enabled: false
Boxcar width: 0
XAxis mode: Wavelengths
Number of Pixels in Spectrum: 3648
>>>>>Begin Spectral Data<<<<<
179.3399	-0
179.5586	-0
179.7771	-0
179.9957	0.7214
180.2143	0.4393
180.4329	1.8779
180.6514	-0
180.8699	-0
181.0885	0.3084
181.307	-0.0081
181.5255	-0.1362
181.744	0.4087
181.9625	-0
182.181	-0
182.3994	1.0136
182.6179	-0
182.8363	0.1034
183.0547	0.0787
183.2732	0.0199
183.4916	-0.0737
183.71	-0.0451
183.9284	0.1536
184.1467	-0.0519
184.3651	0.1721
184.5835	-0.0597
184.8018	-0.1325
185.0201	0.2232
185.2385	0.1151
185.4568	0.0386
185.6751	-0.0234
185.8934	0.2406
186.1117	-0.033
186.3299	0.1203
186.5482	0.1791
186.7664	-0.1995
186.9847	-0.0522
187.2029	0.07
187.4211	0.1315
187.6393	0.2488
187.8575	0.0559
188.0757	0.1883
188.2939	0.2217
188.512	-0.0093
188.7302	0.0825
188.9483	-0.1411
189.1665	0.0513
189.3846	-0.0721
189.6027	0.1598
189.8208	0.178
190.0389	-0.0848
190.257	0.2546
190.475	0.0784
190.6931	0.3617
190.9111	0.3483
191.1292	0.2481
191.3472	0.4016
191.5652	0.3619
191.7832	0.1609
192.0012	0.5787
192.2192	0.3177
192.4371	0.284
192.6551	0.3525
192.873	0.4774
193.091	0.3757
193.3089	0.5975
193.5268	0.5592
193.7447	0.4724
193.9626	0.3773
194.1805	0.6786
194.3984	0.6444
194.6162	0.4583
194.8341	0.5761
195.0519	0.5181
195.2697	0.5302
195.4875	0.5654
195.7054	0.5945
195.9231	0.5508
196.1409	0.4729
196.3587	0.6251
196.5765	0.6387
196.7942	0.6895
197.012	0.5056
197.2297	0.5642
197.4474	0.6995
197.6651	0.5045
197.8828	0.5239
198.1005	0.63
198.3182	0.6692
198.5358	0.7008
198.7535	0.5689
198.9711	0.5919
199.1888	0.5406
199.4064	0.6719
199.624	0.6409
199.8416	0.439
200.0592	0.7126
200.2767	0.7468
200.4943	0.6878
200.7119	0.7619
200.9294	0.681
201.1469	0.5995
201.3645	0.542
201.582	0.6154
201.7995	0.5833
202.017	0.6949
202.2344	0.5277
202.4519	0.6454
202.6694	0.6061
202.8868	0.6706
203.1042	0.6716
203.3217	0.6853
203.5391	0.5485
203.7565	0.6279
203.9739	0.5515
204.1913	0.6136
204.4086	0.599
204.626	0.6613
204.8433	0.6184
205.0607	0.5273
205.278	0.7282
205.4953	0.6542
205.7126	0.674
205.9299	0.7642
206.1472	0.6676
206.3644	0.5197
206.5817	0.6757
206.7989	0.6774
207.0162	0.6372
207.2334	0.6553
207.4506	0.5856
207.6678	0.6964
207.885	0.6197
208.1022	0.7181
208.3194	0.6034
208.5365	0.5916
208.7537	0.641
208.9708	0.5533
209.1879	0.6038
209.405	0.7003
209.6222	0.7626
209.8392	0.6123
210.0563	0.6009
210.2734	0.6638
210.4905	0.6123
210.7075	0.6261
210.9245	0.5934
211.1416	0.6529
211.3586	0.6499
211.5756	0.5615
211.7926	0.6044
212.0096	0.585
212.2265	0.5719
212.4435	0.6014
212.6604	0.596
212.8774	0.5937
213.0943	0.5649
213.3112	0.5526
213.5281	0.5151
213.745	0.4881
213.9619	0.5252
214.1788	0.4594
214.3956	0.4393
214.6125	0.445
214.8293	0.4326
215.0461	0.4851
215.2629	0.4514
215.4798	0.4918
215.6965	0.4492
215.9133	0.4503
216.1301	0.4069
216.3469	0.443
216.5636	0.4005
216.7803	0.3809
216.9971	0.3875
217.2138	0.3967
217.4305	0.3636
217.6472	0.3526
217.8639	0.3716
218.0805	0.3299
218.2972	0.3053
218.5138	0.3092
218.7305	0.2967
218.9471	0.3164
219.1637	0.2672
219.3803	0.2902
219.5969	0.2659
219.8135	0.2628
220.0301	0.2628
220.2466	0.2718
220.4632	0.2755
220.6797	0.2316
220.8962	0.2403
221.1127	0.262
221.3292	0.2585
221.5457	0.2468
221.7622	0.2465
221.9787	0.2393
222.1951	0.2296
222.4116	0.2647
222.628	0.2514
222.8444	0.2625
223.0608	0.2268
223.2772	0.2674
223.4936	0.2351
223.71	0.2287
223.9264	0.2715
224.1427	0.243
224.3591	0.2483
224.5754	0.2635
224.7917	0.2656
225.008	0.2454
225.2243	0.2566
225.4406	0.2829
225.6569	0.2545
225.8732	0.2555
226.0894	0.2613
226.3057	0.2628
226.5219	0.2953
226.7381	0.2655
226.9543	0.2704
227.1705	0.2855
227.3867	0.2816
227.6029	0.3033
227.8191	0.311
228.0352	0.3055
228.2513	0.3264
228.4675	0.3049
228.6836	0.3111
228.8997	0.2899
229.1158	0.3095
229.3319	0.3066
229.548	0.3018
229.764	0.3289
229.9801	0.3188
230.1961	0.3285
230.4121	0.3222
230.6282	0.3195
230.8442	0.3262
231.0602	0.336
231.2761	0.3399
231.4921	0.3554
231.7081	0.3399
231.924	0.3446
232.14	0.3621
232.3559	0.3476
232.5718	0.3712
232.7877	0.3419
233.0036	0.3327
233.2195	0.3496
233.4353	0.3519
233.6512	0.3496
233.867	0.3569
234.0829	0.3838
234.2987	0.3625
234.5145	0.3628
234.7303	0.3669
234.9461	0.3794
235.1619	0.3704
235.3776	0.3861
235.5934	0.379
235.8091	0.3684
236.0249	0.3701
236.2406	0.3751
236.4563	0.3766
236.672	0.3987
236.8877	0.3853
237.1034	0.4112
237.319	0.3815
237.5347	0.4032
237.7503	0.3799
237.966	0.4182
238.1816	0.3951
238.3972	0.4018
238.6128	0.3832
238.8284	0.3978
239.0439	0.3998
239.2595	0.396
239.475	0.4041
239.6906	0.4131
239.9061	0.4095
240.1216	0.3884
240.3371	0.4048
240.5526	0.3845
240.7681	0.3964
240.9836	0.3903
241.199	0.3894
241.4145	0.3824
241.6299	0.3734
241.8453	0.3763
242.0607	0.3856
242.2761	0.3547
242.4915	0.3741
242.7069	0.3664
242.9223	0.3389
243.1376	0.3439
243.353	0.3618
243.5683	0.3394
243.7836	0.3262
243.9989	0.3415
244.2142	0.3072
244.4295	0.3065
244.6448	0.3117
244.86	0.3074
245.0753	0.2913
245.2905	0.2778
245.5057	0.2712
245.721	0.2817
245.9362	0.2504
246.1514	0.2776
246.3665	0.256
246.5817	0.2477
246.7969	0.2519
247.012	0.2409
247.2271	0.2383
247.4423	0.2414
247.6574	0.243
247.8725	0.2383
248.0876	0.2148
248.3026	0.225
248.5177	0.2094
248.7328	0.2052
248.9478	0.2131
249.1628	0.2239
249.3779	0.2119
249.5929	0.2006
249.8079	0.2108
250.0228	0.2005
250.2378	0.1864
250.4528	0.195
250.6677	0.1926
250.8827	0.2057
251.0976	0.1977
251.3125	0.1898
251.5274	0.1915
251.7423	0.1862
251.9572	0.1774
252.172	0.1929
252.3869	0.1905
252.6017	0.1773
252.8166	0.1783
253.0314	0.1638
253.2462	0.173
253.461	0.1788
253.6758	0.1731
253.8906	0.1737
254.1053	0.179
254.3201	0.1604
254.5348	0.1749
254.7496	0.1829
254.9643	0.1698
255.179	0.1751
255.3937	0.1675
255.6083	0.1756
255.823	0.1737
256.0377	0.174
256.2523	0.1803
256.467	0.1607
256.6816	0.173
256.8962	0.1633
257.1108	0.1649
257.3254	0.1719
257.54	0.1567
257.7545	0.1651
257.9691	0.1717
258.1836	0.1706
258.3981	0.1679
258.6127	0.1646
258.8272	0.1807
259.0417	0.1645
259.2561	0.1617
259.4706	0.1677
259.6851	0.1587
259.8995	0.1712
260.114	0.1542
260.3284	0.1665
260.5428	0.1686
260.7572	0.1683
260.9716	0.1719
261.186	0.1703
261.4003	0.1631
261.6147	0.1766
261.829	0.1552
262.0433	0.1586
262.2577	0.1654
262.472	0.1617
262.6863	0.1531
262.9005	0.1681
263.1148	0.1667
263.3291	0.1561
263.5433	0.168
263.7576	0.1703
263.9718	0.1613
264.186	0.1732
264.4002	0.1643
264.6144	0.1638
264.8286	0.1651
265.0427	0.1631
265.2569	0.1633
265.471	0.1603
265.6851	0.1568
265.8993	0.1526
266.1134	0.1594
266.3275	0.1574
266.5415	0.1579
266.7556	0.172
266.9697	0.1589
267.1837	0.1703
267.3978	0.1693
267.6118	0.1675
267.8258	0.1662
268.0398	0.1539
268.2538	0.1501
268.4677	0.1519
268.6817	0.1662
268.8957	0.1642
269.1096	0.1676
269.3235	0.1645
269.5374	0.1548
269.7514	0.1504
269.9652	0.1617
270.1791	0.1563
270.393	0.1341
270.6068	0.1478
270.8207	0.152
271.0345	0.1531
271.2483	0.1529
271.4622	0.1372
271.676	0.1504
271.8897	0.151
272.1035	0.1504
272.3173	0.1449
272.531	0.1489
272.7448	0.1458
272.9585	0.1381
273.1722	0.1573
273.3859	0.1448
273.5996	0.1373
273.8133	0.1537
274.0269	0.1509
274.2406	0.1402
274.4542	0.16
274.6679	0.1253
274.8815	0.1439
275.0951	0.146
275.3087	0.1558
275.5223	0.1618
275.7358	0.1497
275.9494	0.1484
276.1629	0.1379
276.3765	0.1466
276.59	0.1389
276.8035	0.147
277.017	0.1489
277.2305	0.1381
277.444	0.1584
277.6574	0.1372
277.8709	0.1515
278.0843	0.1386
278.2978	0.1316
278.5112	0.1452
278.7246	0.1424
278.938	0.1451
279.1513	0.1532
279.3647	0.1511
279.5781	0.1431
279.7914	0.1521
280.0047	0.1588
280.2181	0.1513
280.4314	0.1578
280.6447	0.1617
280.8579	0.155
281.0712	0.1578
281.2845	0.1563
281.4977	0.1525
281.711	0.1448
281.9242	0.1553
282.1374	0.1504
282.3506	0.1487
282.5638	0.1602
282.7769	0.153
282.9901	0.1406
283.2033	0.1572
283.4164	0.1592
283.6295	0.1502
283.8426	0.1457
284.0557	0.1457
284.2688	0.1687
284.4819	0.1588
284.695	0.1497
284.908	0.1548
285.1211	0.1548
285.3341	0.1642
285.5471	0.1624
285.7601	0.1508
285.9731	0.1495
286.1861	0.155
286.3991	0.1637
286.612	0.1656
286.825	0.1536
287.0379	0.1605
287.2508	0.1562
287.4637	0.1703
287.6766	0.1483
287.8895	0.1648
288.1024	0.1737
288.3152	0.174
288.5281	0.151
288.7409	0.1626
288.9538	0.1627
289.1666	0.1529
289.3794	0.1493
289.5922	0.1536
289.8049	0.1522
290.0177	0.1582
290.2304	0.1637
290.4432	0.1709
290.6559	0.1685
290.8686	0.1678
291.0813	0.1615
291.294	0.1748
291.5067	0.1754
291.7194	0.16
291.932	0.1705
292.1447	0.1675
292.3573	0.1541
292.5699	0.1615
292.7825	0.1737
292.9951	0.1607
293.2077	0.1701
293.4203	0.1621
293.6328	0.154
293.8454	0.1727
294.0579	0.1566
294.2704	0.1605
294.4829	0.1581
294.6954	0.1748
294.9079	0.1643
295.1204	0.1626
295.3328	0.1613
295.5453	0.1634
295.7577	0.1615
295.9701	0.1518
296.1825	0.1613
296.3949	0.1602
296.6073	0.1707
296.8197	0.155
297.0321	0.1801
297.2444	0.1598
297.4567	0.1712
297.6691	0.1682
297.8814	0.1615
298.0937	0.1584
298.306	0.1515
298.5182	0.1578
298.7305	0.1674
298.9428	0.1587
299.155	0.1769
299.3672	0.1575
299.5794	0.1645
299.7916	0.1631
300.0038	0.1635
300.216	0.1711
300.4282	0.1777
300.6403	0.1602
300.8525	0.1813
301.0646	0.1597
301.2767	0.1613
301.4888	0.1694
301.7009	0.1651
301.913	0.1506
302.125	0.1769
302.3371	0.1593
302.5491	0.1736
302.7612	0.1577
302.9732	0.1586
303.1852	0.1542
303.3972	0.1682
303.6092	0.1683
303.8211	0.1536
304.0331	0.1539
304.245	0.1498
304.457	0.1616
304.6689	0.1621
304.8808	0.168
305.0927	0.1539
305.3046	0.1491
305.5164	0.1482
305.7283	0.1414
305.9401	0.1575
306.152	0.151
306.3638	0.1634
306.5756	0.1438
306.7874	0.1458
306.9992	0.1489
307.2109	0.1471
307.4227	0.119
307.6344	0.1507
307.8462	0.1297
308.0579	0.1273
308.2696	0.1294
308.4813	0.1301
308.693	0.1342
308.9046	0.1334
309.1163	0.128
309.328	0.1191
309.5396	0.1222
309.7512	0.1192
309.9628	0.1185
310.1744	0.128
310.386	0.1155
310.5976	0.1214
310.8091	0.1188
311.0207	0.1161
311.2322	0.1199
311.4437	0.1059
311.6552	0.1088
311.8667	0.1193
312.0782	0.1021
312.2897	0.1109
312.5012	0.114
312.7126	0.1029
312.924	0.1102
313.1355	0.1153
313.3469	0.1118
313.5583	0.1092
313.7696	0.105
313.981	0.1092
314.1924	0.0987
314.4037	0.1039
314.6151	0.1148
314.8264	0.0932
315.0377	0.0954
315.249	0.1043
315.4603	0.1056
315.6716	0.1111
315.8828	0.0948
316.0941	0.0928
316.3053	0.0969
316.5165	0.0939
316.7277	0.0988
316.9389	0.1156
317.1501	0.0945
317.3613	0.0966
317.5724	0.0868
317.7836	0.0987
317.9947	0.1029
318.2058	0.0974
318.417	0.0838
318.6281	0.0961
318.8391	0.0979
319.0502	0.0938
319.2613	0.1058
319.4723	0.0997
319.6834	0.1126
319.8944	0.0895
320.1054	0.1012
320.3164	0.096
320.5274	0.0913
320.7383	0.095
320.9493	0.1018
321.1602	0.1046
321.3712	0.0836
321.5821	0.0993
321.793	0.0971
322.0039	0.089
322.2148	0.0971
322.4257	0.0981
322.6365	0.1094
322.8474	0.1137
323.0582	0.1016
323.269	0.1046
323.4798	0.1134
323.6906	0.0945
323.9014	0.0991
324.1122	0.107
324.3229	0.1029
324.5337	0.0938
324.7444	0.0911
324.9551	0.1163
325.1658	0.1114
325.3765	0.1065
325.5872	0.1005
325.7979	0.1018
326.0085	0.104
326.2192	0.1105
326.4298	0.1134
326.6404	0.097
326.851	0.0895
327.0616	0.1043
327.2722	0.0989
327.4828	0.1088
327.6933	0.1099
327.9039	0.121
328.1144	0.1176
328.3249	0.1084
328.5354	0.1041
328.7459	0.1006
328.9564	0.0869
329.1669	0.1042
329.3773	0.1043
329.5878	0.1038
329.7982	0.1037
330.0086	0.1073
330.219	0.1089
330.4294	0.1052
330.6398	0.0976
330.8502	0.0921
331.0605	0.1195
331.2708	0.1037
331.4812	0.1082
331.6915	0.1063
331.9018	0.1057
332.1121	0.098
332.3224	0.1029
332.5326	0.1003
332.7429	0.1051
332.9531	0.1161
333.1633	0.1016
333.3735	0.1117
333.5837	0.1029
333.7939	0.1149
334.0041	0.1125
334.2143	0.1252
334.4244	0.1033
334.6346	0.0937
334.8447	0.1274
335.0548	0.1028
335.2649	0.1002
335.475	0.1254
335.685	0.0943
335.8951	0.1208
336.1051	0.1079
336.3152	0.1187
336.5252	0.1077
336.7352	0.1112
336.9452	0.1109
337.1552	0.1079
337.3652	0.1154
337.5751	0.1177
337.7851	0.1136
337.995	0.0989
338.2049	0.1159
338.4148	0.1119
338.6247	0.1205
338.8346	0.1105
339.0445	0.1152
339.2543	0.1155
339.4642	0.1087
339.674	0.1081
339.8838	0.1152
340.0936	0.1136
340.3034	0.1263
340.5132	0.1353
340.7229	0.1138
340.9327	0.1167
341.1424	0.1176
341.3522	0.1252
341.5619	0.1164
341.7716	0.1282
341.9813	0.1179
342.1909	0.131
342.4006	0.1279
342.6102	0.1309
342.8199	0.12
343.0295	0.1223
343.2391	0.1209
343.4487	0.1287
343.6583	0.1144
343.8679	0.1207
344.0774	0.1269
344.287	0.1214
344.4965	0.1256
344.706	0.1301
344.9155	0.1204
345.125	0.1169
345.3345	0.1191
345.544	0.12
345.7534	0.132
345.9629	0.1144
346.1723	0.1184
346.3817	0.1325
346.5911	0.1331
346.8005	0.1265
347.0099	0.1358
347.2193	0.1308
347.4286	0.1381
347.638	0.1415
347.8473	0.1335
348.0566	0.1371
348.2659	0.1376
348.4752	0.1457
348.6845	0.1358
348.8937	0.1357
349.103	0.1355
349.3122	0.1347
349.5214	0.1328
349.7306	0.1247
349.9398	0.1284
350.149	0.1421
350.3582	0.1372
350.5674	0.1484
350.7765	0.133
350.9856	0.1441
351.1948	0.1434
351.4039	0.1312
351.613	0.1336
351.822	0.1432
352.0311	0.1533
352.2402	0.151
352.4492	0.1615
352.6582	0.1478
352.8672	0.1359
353.0762	0.144
353.2852	0.1454
353.4942	0.1385
353.7032	0.1637
353.9121	0.1504
354.1211	0.1535
354.33	0.1441
354.5389	0.1526
354.7478	0.1577
354.9567	0.1479
355.1655	0.1402
355.3744	0.1541
355.5833	0.1607
355.7921	0.1738
356.0009	0.1613
356.2097	0.1614
356.4185	0.1594
356.6273	0.1688
356.8361	0.1635
357.0448	0.1558
357.2536	0.1514
357.4623	0.1488
357.671	0.1631
357.8797	0.1603
358.0884	0.1724
358.2971	0.1649
358.5057	0.1727
358.7144	0.1771
358.923	0.1726
359.1316	0.1686
359.3402	0.1713
359.5488	0.164
359.7574	0.1569
359.966	0.1821
360.1746	0.1836
360.3831	0.187
360.5916	0.1664
360.8002	0.1563
361.0087	0.1993
361.2172	0.1921
361.4256	0.1767
361.6341	0.1917
361.8426	0.1889
362.051	0.1955
362.2594	0.1841
362.4678	0.1792
362.6762	0.1943
362.8846	0.1832
363.093	0.1814
363.3014	0.2013
363.5097	0.1773
363.718	0.1888
363.9264	0.1886
364.1347	0.1875
364.343	0.1803
364.5513	0.2
364.7595	0.2116
364.9678	0.2033
365.176	0.2045
365.3842	0.1898
365.5925	0.2054
365.8007	0.1929
366.0089	0.1941
366.217	0.1872
366.4252	0.1984
366.6333	0.2061
366.8415	0.2
367.0496	0.1942
367.2577	0.2161
367.4658	0.2018
367.6739	0.2212
367.882	0.2096
368.09	0.1979
368.2981	0.2131
368.5061	0.2065
368.7141	0.202
368.9221	0.2181
369.1301	0.2154
369.3381	0.201
369.5461	0.2076
369.754	0.2222
369.962	0.2214
370.1699	0.2343
370.3778	0.2237
370.5857	0.2068
370.7936	0.2022
371.0015	0.2301
371.2093	0.2271
371.4172	0.2198
371.625	0.2205
371.8328	0.214
372.0406	0.2169
372.2484	0.2114
372.4562	0.2201
372.664	0.2305
372.8717	0.2316
373.0795	0.2168
373.2872	0.2244
373.4949	0.2246
373.7026	0.2205
373.9103	0.2452
374.118	0.2274
374.3256	0.213
374.5333	0.2257
374.7409	0.2104
374.9485	0.2369
375.1561	0.2186
375.3637	0.2511
375.5713	0.2303
375.7789	0.2481
375.9864	0.2321
376.194	0.2084
376.4015	0.2592
376.609	0.2423
376.8165	0.2477
377.024	0.2274
377.2315	0.2313
377.4389	0.2475
377.6464	0.2541
377.8538	0.2348
378.0612	0.2251
378.2686	0.2438
378.476	0.2562
378.6834	0.249
378.8908	0.2472
379.0981	0.2525
379.3055	0.2506
379.5128	0.2436
379.7201	0.2504
379.9274	0.2544
380.1347	0.266
380.342	0.2676
380.5492	0.2332
380.7565	0.2447
380.9637	0.2583
381.1709	0.2446
381.3781	0.2618
381.5853	0.2636
381.7925	0.2516
381.9997	0.2586
382.2068	0.263
382.4139	0.2503
382.6211	0.2421
382.8282	0.2544
383.0353	0.2513
383.2424	0.2458
383.4494	0.2601
383.6565	0.267
383.8635	0.2607
384.0706	0.2545
384.2776	0.2521
384.4846	0.2445
384.6916	0.245
384.8986	0.2653
385.1055	0.2767
385.3125	0.2816
385.5194	0.2406
385.7263	0.2648
385.9333	0.2611
386.1402	0.2586
386.347	0.2585
386.5539	0.2471
386.7608	0.2577
386.9676	0.2486
387.1744	0.2664
387.3813	0.2608
387.5881	0.2761
387.7948	0.2481
388.0016	0.2388
388.2084	0.2576
388.4151	0.2412
388.6219	0.2728
388.8286	0.2671
389.0353	0.2725
389.242	0.2481
389.4487	0.2469
389.6553	0.232
389.862	0.2234
390.0686	0.2499
390.2753	0.2667
390.4819	0.2327
390.6885	0.2309
390.8951	0.2483
391.1016	0.239
391.3082	0.2439
391.5147	0.2208
391.7213	0.2349
391.9278	0.2255
392.1343	0.2225
392.3408	0.2373
392.5473	0.2476
392.7537	0.2344
392.9602	0.2343
393.1666	0.2371
393.373	0.23
393.5794	0.2547
393.7858	0.2335
393.9922	0.2128
394.1986	0.2348
394.4049	0.2233
394.6113	0.204
394.8176	0.2125
395.0239	0.2215
395.2302	0.2228
395.4365	0.2133
395.6428	0.2212
395.8491	0.2113
396.0553	0.2267
396.2615	0.1997
396.4678	0.2007
396.674	0.2011
396.8802	0.2072
397.0863	0.2324
397.2925	0.2066
397.4987	0.2071
397.7048	0.2208
397.9109	0.2126
398.117	0.1988
398.3231	0.2113
398.5292	0.2148
398.7353	0.2238
398.9413	0.2022
399.1474	0.2015
399.3534	0.2144
399.5594	0.2117
399.7654	0.2231
399.9714	0.2235
400.1774	0.2004
400.3833	0.1924
400.5893	0.2119
400.7952	0.2005
401.0011	0.2091
401.207	0.2294
401.4129	0.2129
401.6188	0.2094
401.8247	0.2164
402.0305	0.2137
402.2364	0.1905
402.4422	0.235
402.648	0.2131
402.8538	0.2286
403.0596	0.2059
403.2654	0.2208
403.4711	0.1948
403.6768	0.2183
403.8826	0.2254
404.0883	0.2106
404.294	0.2292
404.4997	0.2085
404.7054	0.2048
404.911	0.2226
405.1167	0.2305
405.3223	0.2215
405.5279	0.226
405.7335	0.2076
405.9391	0.2156
406.1447	0.1888
406.3502	0.213
406.5558	0.2094
406.7613	0.204
406.9668	0.2061
407.1724	0.2068
407.3778	0.198
407.5833	0.2235
407.7888	0.196
407.9942	0.2145
408.1997	0.2312
408.4051	0.2059
408.6105	0.2322
408.8159	0.2001
409.0213	0.2063
409.2267	0.2251
409.432	0.2076
409.6374	0.2201
409.8427	0.2014
410.048	0.198
410.2533	0.2136
410.4586	0.2119
410.6639	0.1972
410.8691	0.2013
411.0744	0.2025
411.2796	0.1824
411.4848	0.2118
411.69	0.213
411.8952	0.2363
412.1004	0.2046
412.3056	0.2162
412.5107	0.2075
412.7158	0.2227
412.921	0.1999
413.1261	0.2063
413.3312	0.2055
413.5362	0.2092
413.7413	0.2103
413.9464	0.186
414.1514	0.211
414.3564	0.2179
414.5614	0.1799
414.7664	0.21
414.9714	0.2104
415.1764	0.2008
415.3813	0.2279
415.5863	0.2066
415.7912	0.1953
415.9961	0.2033
416.201	0.1893
416.4059	0.2032
416.6108	0.1924
416.8156	0.2132
417.0205	0.1928
417.2253	0.1875
417.4301	0.2072
417.6349	0.2027
417.8397	0.2047
418.0445	0.2036
418.2492	0.1985
418.454	0.1954
418.6587	0.2083
418.8634	0.1937
419.0681	0.201
419.2728	0.1956
419.4775	0.2058
419.6822	0.1838
419.8868	0.1612
420.0915	0.2005
420.2961	0.1874
420.5007	0.1736
420.7053	0.1843
420.9099	0.193
421.1144	0.1867
421.319	0.1706
421.5235	0.1886
421.728	0.1822
421.9325	0.1938
422.137	0.2043
422.3415	0.1822
422.546	0.2069
422.7504	0.1758
422.9549	0.2034
423.1593	0.1807
423.3637	0.208
423.5681	0.1809
423.7725	0.1754
423.9769	0.1626
424.1812	0.1776
424.3856	0.1684
424.5899	0.1808
424.7942	0.1897
424.9985	0.1625
425.2028	0.1704
425.4071	0.1861
425.6113	0.1567
425.8156	0.1858
426.0198	0.1735
426.224	0.1504
426.4282	0.1634
426.6324	0.156
426.8366	0.1609
427.0407	0.1472
427.2449	0.1518
427.449	0.1651
427.6531	0.1573
427.8572	0.1703
428.0613	0.1472
428.2654	0.1766
428.4694	0.1577
428.6735	0.1546
428.8775	0.1651
429.0815	0.1586
429.2855	0.1483
429.4895	0.1586
429.6935	0.1645
429.8975	0.1571
430.1014	0.1401
430.3053	0.1381
430.5093	0.148
430.7132	0.133
430.9171	0.1373
431.1209	0.1256
431.3248	0.1363
431.5286	0.1625
431.7325	0.1511
431.9363	0.1353
432.1401	0.1387
432.3439	0.1268
432.5477	0.1111
432.7514	0.1331
432.9552	0.1286
433.1589	0.1071
433.3627	0.1105
433.5664	0.1094
433.7701	0.1249
433.9737	0.128
434.1774	0.0942
434.3811	0.1076
434.5847	0.1391
434.7883	0.1193
434.9919	0.1143
435.1955	0.1241
435.3991	0.1069
435.6027	0.1102
435.8062	0.1111
436.0098	0.0965
436.2133	0.099
436.4168	0.0957
436.6203	0.0838
436.8238	0.1136
437.0272	0.0951
437.2307	0.0855
437.4341	0.1121
437.6375	0.1094
437.841	0.0941
438.0443	0.0952
438.2477	0.0877
438.4511	0.078
438.6545	0.0834
438.8578	0.0922
439.0611	0.0848
439.2644	0.0814
439.4677	0.0784
439.671	0.0758
439.8743	0.088
440.0775	0.0941
440.2808	0.0871
440.484	0.0635
440.6872	0.0733
440.8904	0.0801
441.0936	0.0868
441.2967	0.0701
441.4999	0.0853
441.703	0.0692
441.9062	0.0665
442.1093	0.0628
442.3124	0.0815
442.5155	0.039
442.7185	0.0537
442.9216	0.0303
443.1246	0.0738
443.3276	0.0521
443.5307	0.062
443.7337	0.0629
443.9366	0.0596
444.1396	0.0588
444.3426	0.0471
444.5455	0.0453
444.7484	0.0517
444.9513	0.0537
445.1542	0.0574
445.3571	0.037
445.56	0.0574
445.7628	0.0342
445.9657	0.0451
446.1685	0.0545
446.3713	0.0439
446.5741	0.0431
446.7769	0.0322
446.9797	0.0469
447.1824	0.0572
447.3852	0.0357
447.5879	0.0515
447.7906	0.033
447.9933	0.0461
448.196	0.0298
448.3986	0.045
448.6013	0.0281
448.8039	0.0221
449.0066	0.0277
449.2092	0.0269
449.4118	0.0316
449.6143	0.0326
449.8169	0.0447
450.0195	0.0222
450.222	0.0066
450.4245	0.0188
450.627	0.051
450.8295	0.0296
451.032	0.0322
451.2345	0.036
451.4369	0.0391
451.6394	0.0172
451.8418	0.0054
452.0442	0.0192
452.2466	0.0352
452.449	0.0076
452.6513	0.0106
452.8537	0.0214
453.056	0.0034
453.2583	0.0222
453.4607	0.0213
453.663	0.0207
453.8652	0.0272
454.0675	0.0043
454.2697	0.0329
454.472	-0.0061
454.6742	0.0281
454.8764	0.0236
455.0786	0.0291
455.2808	0.009
455.4829	0.0162
455.6851	0.0263
455.8872	0.0362
456.0893	0.016
456.2915	0.0086
456.4935	0.0143
456.6956	0.0182
456.8977	0.0074
457.0997	0.0207
457.3018	0.0001
457.5038	0.0146
457.7058	0.0087
457.9078	-0.0093
458.1098	0.0163
458.3117	0.0111
458.5137	0.0184
458.7156	0.0227
458.9175	-0.0041
459.1194	0.0075
459.3213	0.0057
459.5232	0.0114
459.725	-0.0002
459.9269	-0.0023
460.1287	0.0032
460.3305	0.0065
460.5323	0.0046
460.7341	0.0076
460.9359	0.0095
461.1376	0.0143
461.3394	-0.0046
461.5411	0.0121
461.7428	0.009
461.9445	0.0138
462.1462	0.0271
462.3479	0.0023
462.5495	-0.0011
462.7512	0.0087
462.9528	0.0124
463.1544	0.0034
463.356	0.0008
463.5576	0.0149
463.7592	0.0095
463.9607	0.0076
464.1623	0.0184
464.3638	0.0202
464.5653	-0.0065
464.7668	0.0068
464.9683	0.0125
465.1697	0.0152
465.3712	-0.0012
465.5726	0.0049
465.7741	-0.0026
465.9755	-0.009
466.1769	0.006
466.3782	-0.0027
466.5796	-0.0042
466.7809	0.0138
466.9823	-0.0065
467.1836	0.0111
467.3849	-0.0038
467.5862	0.0128
467.7875	-0.0008
467.9887	0.0128
468.19	-0.0042
468.3912	-0.0053
468.5924	-0.0072
468.7936	-0.0104
468.9948	-0.0012
469.196	0.0082
469.3972	0.0054
469.5983	-0.0097
469.7994	-0.002
470.0006	-0.0035
470.2017	-0.0168
470.4027	-0.0032
470.6038	0.006
470.8049	-0.0111
471.0059	-0.0005
471.2069	-0.0165
471.408	0.0065
471.6089	0.0041
471.8099	0.0045
472.0109	-0.0015
472.2119	-0.0089
472.4128	-0.0104
472.6137	0.0067
472.8146	-0.0118
473.0155	0.0032
473.2164	0.0078
473.4173	0.0077
473.6181	0.0033
473.819	0.0001
474.0198	-0.006
474.2206	-0.005
474.4214	-0.0036
474.6222	0.0007
474.8229	-0.0138
475.0237	-0.0041
475.2244	-0.015
475.4251	0.0027
475.6258	0.0016
475.8265	-0.0047
476.0272	0.0038
476.2278	-0.0002
476.4285	0.0047
476.6291	-0.0018
476.8297	-0.0014
477.0303	-0.0026
477.2309	0.0005
477.4315	-0.0185
477.632	-0.0025
477.8326	-0.0064
478.0331	0.0022
478.2336	-0.0009
478.4341	-0.0053
478.6346	-0.0114
478.8351	-0.002
479.0355	0.0107
479.236	-0.0066
479.4364	-0.0012
479.6368	-0.001
479.8372	-0.0115
480.0376	-0.0011
480.2379	-0.0158
480.4383	-0.0033
480.6386	0.008
480.8389	-0.0045
481.0392	-0.0064
481.2395	-0.013
481.4398	0.0165
481.6401	-0.0036
481.8403	-0.0099
482.0405	-0.0063
482.2408	-0.0049
482.441	0.0117
482.6411	-0.0153
482.8413	-0.007
483.0415	-0.0127
483.2416	-0.0086
483.4417	-0.0028
483.6419	-0.0081
483.8419	-0.0033
484.042	0.0124
484.2421	0.0047
484.4422	-0.0058
484.6422	0.0052
484.8422	-0.0085
485.0422	-0.018
485.2422	0.0028
485.4422	-0.0191
485.6422	-0.0042
485.8421	-0.0093
486.042	0.0009
486.242	-0.005
486.4419	-0.0058
486.6417	-0.0053
486.8416	-0.0015
487.0415	-0.013
487.2413	-0.0055
487.4411	-0.001
487.641	-0.0021
487.8408	0.0011
488.0405	-0.0099
488.2403	-0.0109
488.4401	0.0079
488.6398	0.0035
488.8395	-0.0147
489.0392	-0.0011
489.2389	-0.0144
489.4386	0.0033
489.6383	-0
489.8379	0.0065
490.0376	-0.0062
490.2372	-0.0108
490.4368	0.0022
490.6364	-0.0102
490.836	-0.0088
491.0355	0.002
491.2351	-0.01
491.4346	0.0031
491.6341	-0.0105
491.8336	-0
492.0331	-0.0091
492.2326	-0.011
492.432	-0.0076
492.6315	0.0001
492.8309	-0.0139
493.0303	-0.0099
493.2297	-0.0083
493.4291	-0.003
493.6284	0.0019
493.8278	0.0067
494.0271	0.0019
494.2264	0.002
494.4257	-0.0068
494.625	0.0006
494.8243	-0.0098
495.0236	-0.0151
495.2228	-0.0093
495.422	-0.0013
495.6213	-0.0131
495.8205	0.0081
496.0196	-0.0016
496.2188	0.0106
496.418	-0.0111
496.6171	-0.0147
496.8162	-0.0146
497.0153	0.0044
497.2144	-0.0229
497.4135	-0.0048
497.6126	-0.0058
497.8116	-0.013
498.0107	-0.0023
498.2097	-0.0073
498.4087	-0.0039
498.6077	0.0005
498.8067	-0.0141
499.0056	0.0018
499.2046	-0.0004
499.4035	-0.0192
499.6024	-0.0052
499.8013	-0.0075
500.0002	-0.0149
500.199	-0.008
500.3979	-0.006
500.5967	-0.0149
500.7956	0.0007
500.9944	-0.0071
501.1932	-0.0123
501.3919	-0.0076
501.5907	-0.0101
501.7895	-0.0131
501.9882	-0.0155
502.1869	-0.0069
502.3856	-0.0073
502.5843	-0.0125
502.783	-0.0061
502.9816	-0.0012
503.1803	-0.0211
503.3789	-0.0178
503.5775	-0.0013
503.7761	-0.0026
503.9747	-0.0002
504.1732	-0.0134
504.3718	0.0012
504.5703	0.0007
504.7689	-0.0071
504.9674	-0.0085
505.1658	-0.0202
505.3643	-0.0063
505.5628	-0.0086
505.7612	-0.0074
505.9597	0.0071
506.1581	-0.0081
506.3565	0.0071
506.5549	-0.0034
506.7532	-0.0093
506.9516	-0.0043
507.1499	-0.0052
507.3482	-0.0139
507.5465	-0.0086
507.7448	-0.0003
507.9431	0.0035
508.1414	-0.0038
508.3396	-0.0061
508.5379	-0.0007
508.7361	-0.0105
508.9343	-0.0008
509.1325	0.0053
509.3306	-0.0069
509.5288	-0.0083
509.7269	-0.0158
509.9251	-0.0031
510.1232	-0.0045
510.3213	-0.0043
510.5193	-0.0006
510.7174	-0.0107
510.9154	-0.0078
511.1135	-0.0077
511.3115	-0.0132
511.5095	-0.0009
511.7075	0.0055
511.9055	-0.0046
512.1034	-0.013
512.3014	-0.0014
512.4993	0.0059
512.6972	-0.0153
512.8951	-0.0197
513.093	-0.0017
513.2908	-0.0063
513.4887	-0.0117
513.6865	-0.0089
513.8844	-0.0119
514.0822	-0.0013
514.2799	-0.0061
514.4777	-0.0106
514.6755	0.0017
514.8732	-0.0207
515.0709	-0.0064
515.2687	-0.0056
515.4664	0.0057
515.664	-0.0019
515.8617	-0.0012
516.0594	-0.0123
516.257	-0.0017
516.4546	-0.0097
516.6522	-0.0044
516.8498	-0.0046
517.0474	0.0054
517.2449	-0.0006
517.4425	-0.0135
517.64	0.005
517.8375	0.0037
518.035	0.0045
518.2325	-0.0028
518.43	-0.0073
518.6274	-0.0009
518.8249	-0.0135
519.0223	-0.0074
519.2197	-0.0024
519.4171	-0.0103
519.6145	-0.0113
519.8118	0.0014
520.0092	-0.0015
520.2065	-0.0058
520.4038	-0.0109
520.6011	-0.0063
520.7984	-0.016
520.9956	-0.0007
521.1929	-0.0114
521.3901	-0.003
521.5874	-0.0091
521.7846	-0.0014
521.9818	-0.0098
522.1789	0.0008
522.3761	0.0022
522.5732	-0.0095
522.7704	-0.0072
522.9675	-0.0023
523.1646	-0.0167
523.3617	-0.0051
523.5587	-0.0108
523.7558	-0.0096
523.9528	-0.0119
524.1498	-0.0036
524.3468	-0.0078
524.5438	-0.0143
524.7408	-0.0012
524.9378	-0.0006
525.1347	0.0004
525.3316	-0.0032
525.5285	-0.0107
525.7254	-0.0082
525.9223	-0.0022
526.1192	-0.0055
526.316	-0.0083
526.5129	0.0014
526.7097	-0.002
526.9065	-0.0005
527.1033	-0.0079
527.3	-0.0098
527.4968	-0.0102
527.6935	-0.007
527.8903	-0.009
528.087	0.0005
528.2837	-0.011
528.4804	-0.002
528.677	-0.0027
528.8737	0.0078
529.0703	0.0062
529.2669	-0.0029
529.4635	-0.0079
529.6601	0.001
529.8567	0.002
530.0532	-0.0016
530.2498	-0.0001
530.4463	0.0081
530.6428	-0.004
530.8393	0.0046
531.0358	0.0014
531.2322	0.002
531.4287	-0.0111
531.6251	-0.0119
531.8215	0.0094
532.0179	0.0001
532.2143	0.0034
532.4107	-0
532.607	-0.0025
532.8034	0.0045
532.9997	-0.0073
533.196	-0.0035
533.3923	-0.0077
533.5886	-0.0006
533.7848	0.0028
533.9811	0.005
534.1773	0.0011
534.3735	0.0066
534.5697	-0.0055
534.7659	0.0026
534.9621	0.0007
535.1582	-0.0098
535.3544	-0.0152
535.5505	-0.01
535.7466	-0.0119
535.9427	-0.0085
536.1387	-0.0198
536.3348	-0.0061
536.5308	0.0007
536.7269	-0.0136
536.9229	-0.0045
537.1189	-0.0052
537.3148	-0.0068
537.5108	-0.0028
537.7068	-0.0019
537.9027	0.0019
538.0986	-0.0007
538.2945	-0.0087
538.4904	-0.005
538.6863	-0.0126
538.8821	-0.0025
539.078	0.001
539.2738	-0.0037
539.4696	-0.0026
539.6654	0.0063
539.8611	0.0106
540.0569	-0.006
540.2526	0.0004
540.4484	-0.0058
540.6441	0.0071
540.8398	-0.0004
541.0355	0.0009
541.2311	-0.0045
541.4268	-0.0084
541.6224	0.002
541.818	0.0075
542.0136	-0.0089
542.2092	-0.0063
542.4048	0.0025
542.6003	0.0024
542.7959	-0.0024
542.9914	-0.0027
543.1869	0.0022
543.3824	-0.0037
543.5779	-0.0017
543.7734	-0.0132
543.9688	-0.0116
544.1642	0.0043
544.3596	-0.0016
544.555	-0.0049
544.7504	0.0021
544.9458	-0.0032
545.1411	0.0028
545.3365	-0.0045
545.5318	-0.0017
545.7271	0.0002
545.9224	0.0101
546.1177	0.0013
546.3129	0.0004
546.5081	-0.0057
546.7034	-0.0084
546.8986	-0.0035
547.0938	-0.0064
547.289	0.0012
547.4841	0.0072
547.6793	0.0067
547.8744	-0.0063
548.0695	-0.0073
548.2646	-0.0076
548.4597	0.0054
548.6548	0.0004
548.8498	-0.0026
549.0448	0.0042
549.2399	0.003
549.4349	0.0032
549.6298	0.0012
549.8248	0.0094
550.0198	0.0016
550.2147	-0.0011
550.4096	-0.0042
550.6045	-0.0004
550.7994	-0.0038
550.9943	-0.0066
551.1892	-0.0002
551.384	0.0019
551.5788	-0.0146
551.7737	-0.0038
551.9685	0.0007
552.1632	0.0038
552.358	-0.0026
552.5528	-0.0098
552.7475	-0.0073
552.9422	-0.0031
553.1369	-0.0041
553.3316	0.0031
553.5263	-0.004
553.7209	0.0027
553.9156	-0.0055
554.1102	-0.0007
554.3048	-0.0069
554.4994	0.0043
554.694	-0.0092
554.8885	0.0033
555.0831	-0.003
555.2776	-0.0021
555.4721	-0.0039
555.6666	-0.0016
555.8611	0.0021
556.0555	-0.0057
556.25	-0.001
556.4444	-0.0117
556.6388	0.0013
556.8332	-0.0026
557.0276	0.0045
557.222	-0.0076
557.4163	0.0036
557.6107	-0.0066
557.805	0.0061
557.9993	-0.0076
558.1936	-0.005
558.3879	-0.0029
558.5821	-0.002
558.7764	-0.0009
558.9706	-0.0037
559.1648	-0.0024
559.359	-0.0035
559.5532	-0.0068
559.7473	-0.0046
559.9415	0.0004
560.1356	0.0007
560.3297	-0.0039
560.5238	-0.0093
560.7179	-0.0047
560.9119	-0.0036
561.106	0.0022
561.3	-0.0086
561.494	-0.0097
561.688	-0.0012
561.882	-0.0098
562.076	-0.0035
562.2699	0.0035
562.4639	-0.002
562.6578	-0.0042
562.8517	0.0004
563.0456	0.0031
563.2395	0.008
563.4333	0.0037
563.6272	0.0107
563.821	-0.0066
564.0148	-0.0005
564.2086	-0.0113
564.4024	-0.0034
564.5961	-0.0045
564.7899	0.0009
564.9836	0.0029
565.1773	0.0063
565.371	0.0094
565.5647	0.0063
565.7584	-0.0018
565.952	0.0017
566.1456	-0.0001
566.3393	-0.0016
566.5329	-0.0032
566.7264	-0.0001
566.92	-0.0054
567.1136	0.0115
567.3071	-0.0049
567.5006	0.0025
567.6941	0.002
567.8876	-0.0062
568.0811	0.0002
568.2745	0.0006
568.468	0.0042
568.6614	0.0007
568.8548	-0
569.0482	-0.0057
569.2416	0.008
569.4349	0.0003
569.6283	0.0131
569.8216	-0.0009
570.0149	-0.0015
570.2082	0.0086
570.4015	0.0064
570.5947	0.0045
570.788	0.0069
570.9812	0.0055
571.1744	-0.0059
571.3676	-0.0098
571.5608	-0.0013
571.754	0.0027
571.9471	0.0031
572.1402	0.0051
572.3333	0.0013
572.5264	0.0004
572.7195	0.0019
572.9126	-0.0017
573.1057	-0.0028
573.2987	-0.0061
573.4917	-0.0007
573.6847	-0.0032
573.8777	0.0003
574.0707	0.0084
574.2636	-0.0005
574.4566	0.0008
574.6495	0.0072
574.8424	-0.0003
575.0353	0.0025
575.2281	0.0112
575.421	0.0035
575.6138	0.006
575.8067	0.0025
575.9995	0.0011
576.1923	0.0023
576.385	0.006
576.5778	0.005
576.7706	0.0017
576.9633	0.0077
577.156	0.0042
577.3487	0.0017
577.5414	0.0028
577.734	-0.0006
577.9267	0.0009
578.1193	-0.0083
578.3119	-0.0035
578.5045	-0.0022
578.6971	0.0012
578.8897	0.01
579.0822	0.0058
579.2747	0.0031
579.4673	-0.002
579.6598	-0.0084
579.8522	-0.0011
580.0447	-0.0065
580.2372	-0.0037
580.4296	0.0048
580.622	-0.0029
580.8144	0.0008
581.0068	-0.0002
581.1992	-0.0055
581.3915	-0.003
581.5839	-0.0088
581.7762	-0.0085
581.9685	-0.0016
582.1608	0.0047
582.353	-0.0036
582.5453	-0.0046
582.7375	-0.0043
582.9298	0.0053
583.122	0.0001
583.3142	-0.0045
583.5063	0.0033
583.6985	-0.0035
583.8906	0.0048
584.0827	-0.002
584.2749	0.0058
584.4669	0.0065
584.659	0.0007
584.8511	-0.0033
585.0431	-0.0024
585.2352	0.0076
585.4272	0.0048
585.6192	0.0013
585.8111	-0.0049
586.0031	-0.0039
586.195	0.0044
586.387	0.0062
586.5789	0.0067
586.7708	0.0048
586.9627	-0.0046
587.1545	-0.0041
587.3464	0.0089
587.5382	0.0065
587.73	0.0036
587.9218	0.0055
588.1136	-0.0038
588.3053	0.0036
588.4971	-0.0023
588.6888	-0.0093
588.8805	-0
589.0722	0.0087
589.2639	0.0035
589.4556	-0.0001
589.6472	-0.001
589.8389	-0.0105
590.0305	-0.0044
590.2221	0.0052
590.4137	-0.0101
590.6052	0.0053
590.7968	0.0048
590.9883	-0.0052
591.1798	0.0021
591.3713	0.0013
591.5628	-0
591.7543	0.0049
591.9458	0.0051
592.1372	0.0044
592.3286	0.0067
592.52	0.0053
592.7114	-0.0065
592.9028	-0.0021
593.0941	0.0015
593.2855	0.001
593.4768	-0.0118
593.6681	-0.0083
593.8594	-0.0026
594.0506	0.0058
594.2419	0.0088
594.4331	0.0018
594.6244	0.0001
594.8156	-0.0084
595.0067	0.0024
595.1979	0.0056
595.3891	-0.0034
595.5802	0.0001
595.7713	-0.0041
595.9624	-0.0074
596.1535	0.0067
596.3446	0.0001
596.5357	0.0008
596.7267	0.0053
596.9177	0.0006
597.1087	-0.0068
597.2997	0.0013
597.4907	0.0012
597.6817	-0.0004
597.8726	0.0029
598.0635	0.0023
598.2544	-0
598.4453	0.0018
598.6362	-0.0048
598.827	-0.0093
599.0179	0.0015
599.2087	0.0015
599.3995	0.0012
599.5903	0.0005
599.7811	0.0034
599.9718	-0
600.1626	-0.0017
600.3533	-0.0134
600.544	-0.003
600.7347	-0.0022
600.9254	0.0023
601.116	-0.0092
601.3067	0.0001
601.4973	-0.0047
601.6879	-0.0035
601.8785	-0.0045
602.0691	0.0029
602.2596	0.0088
602.4502	0.0046
602.6407	0.0053
602.8312	0.0042
603.0217	-0.0052
603.2122	0.0017
603.4027	-0.0003
603.5931	-0.0017
603.7835	-0.0044
603.9739	-0.0039
604.1643	-0.0037
604.3547	-0.0089
604.5451	0.0023
604.7354	-0.0022
604.9257	0.0044
605.116	-0.0024
605.3063	0.01
605.4966	0.0065
605.6869	0.0018
605.8771	0.0108
606.0673	0.0043
606.2575	0.0063
606.4477	0.011
606.6379	0.0037
606.8281	0.003
607.0182	-0.0024
607.2083	0.0139
607.3985	-0.0038
607.5885	0.0016
607.7786	0.004
607.9687	-0.0035
608.1587	-0.0001
608.3488	0.0036
608.5388	0.0009
608.7288	-0.002
608.9187	-0.0029
609.1087	-0.0056
609.2986	-0.0028
609.4886	-0.0012
609.6785	-0.0019
609.8684	0.0045
610.0582	0.0054
610.2481	-0.0006
610.4379	0.0059
610.6278	0.0003
610.8176	-0.0006
611.0074	0.0007
611.1971	0.0006
611.3869	-0.0038
611.5766	-0.0108
611.7664	0.012
611.9561	0.0093
612.1458	0.0043
612.3354	-0.006
612.5251	-0.004
612.7147	0.0011
612.9044	0.0144
613.094	-0.0006
613.2836	0.0029
613.4731	0.0023
613.6627	-0.0048
613.8522	0.0031
614.0417	0.0105
614.2313	-0.0017
614.4207	-0.0009
614.6102	-0.0012
614.7997	-0.0042
614.9891	0.0008
615.1785	-0.005
615.3679	-0.0033
615.5573	0.0064
615.7467	0.0029
615.9361	0.0007
616.1254	0.0019
616.3147	0.001
616.504	0.0029
616.6933	0.0033
616.8826	0.0063
617.0718	0.0005
617.2611	0.0044
617.4503	-0.0013
617.6395	-0.0008
617.8287	-0.0028
618.0179	0.0019
618.207	0.0149
618.3961	-0.0001
618.5853	-0.0125
618.7744	0.0044
618.9634	-0.0023
619.1525	0.0068
619.3416	-0.0015
619.5306	0.0021
619.7196	0.0018
619.9086	-0.0047
620.0976	0.0084
620.2866	0.0033
620.4755	0.0037
620.6645	0.0045
620.8534	0.0102
621.0423	0.0013
621.2312	0.0091
621.42	-0.0036
621.6089	0.0034
621.7977	0.0046
621.9865	-0.0086
622.1753	0.0076
622.3641	0.0022
622.5529	0.0117
622.7416	0.004
622.9303	0.0016
623.1191	0.0035
623.3078	-0.0083
623.4964	-0.0009
623.6851	0.0007
623.8737	0.0017
624.0624	0.0108
624.251	0.0011
624.4396	-0.003
624.6282	-0.0039
624.8167	0.0096
625.0053	0.004
625.1938	0.0087
625.3823	0.0004
625.5708	0.002
625.7593	0.0004
625.9477	-0.0074
626.1362	-0.0074
626.3246	-0.0027
626.513	0.0013
626.7014	0.0134
626.8898	0.0012
627.0781	0.0008
627.2665	-0.001
627.4548	0.0073
627.6431	-0.0006
627.8314	0.0088
628.0197	0.0042
628.2079	-0.0048
628.3962	-0.0007
628.5844	0.0044
628.7726	0.0073
628.9608	0.0021
629.1489	0.0027
629.3371	0.006
629.5252	0.0043
629.7134	0.0128
629.9015	0.001
630.0895	0.0164
630.2776	0.0038
630.4657	0.0038
630.6537	0.0025
630.8417	0.0017
631.0297	-0.0041
631.2177	0.0008
631.4057	-0.007
631.5936	-0.0019
631.7815	0.0025
631.9695	-0.0014
632.1574	0.0105
632.3452	0.0104
632.5331	0.003
632.7209	0.001
632.9088	0.0034
633.0966	0.0061
633.2844	-0.0004
633.4722	0.0041
633.6599	0.0121
633.8477	0.0012
634.0354	0.0019
634.2231	0.0018
634.4108	-0.0045
634.5985	0.008
634.7861	-0
634.9738	0.0056
635.1614	0.0088
635.349	0.0086
635.5366	0.0039
635.7242	0.0131
635.9117	0.0034
636.0993	0.0048
636.2868	0.0054
636.4743	-0.0022
636.6618	0.0069
636.8492	-0.0018
637.0367	0.0051
637.2241	-0.0007
637.4115	-0.0076
637.5989	-0.0089
637.7863	-0.0022
637.9737	0.0032
638.161	0.0066
638.3484	-0.0005
638.5357	0.0066
638.723	-0.0043
638.9103	0
639.0975	0.0104
639.2848	0.0065
639.472	-0.0016
639.6592	0.0046
639.8464	0.0108
640.0336	0.0071
640.2208	-0.003
640.4079	-0.0009
640.595	-0.0004
640.7821	0.0064
640.9692	0.0011
641.1563	0.006
641.3434	0.0086
641.5304	0.0076
641.7174	0.0024
641.9044	-0.0019
642.0914	-0.0028
642.2784	0.0032
642.4653	0.0098
642.6523	0.0007
642.8392	0.0075
643.0261	0.003
643.213	0.0104
643.3999	0.0029
643.5867	-0
643.7735	0.0013
643.9604	-0.0104
644.1472	0.0056
644.3339	0.0074
644.5207	0.0003
644.7075	0.0023
644.8942	0.0049
645.0809	0.011
645.2676	0.008
645.4543	0.0059
645.6409	0.0125
645.8276	0.0013
646.0142	0.0141
646.2008	-0.0024
646.3874	0.0015
646.574	0.0046
646.7605	-0.0012
646.9471	-0.0106
647.1336	0.0002
647.3201	0.0062
647.5066	-0.0086
647.6931	0.003
647.8795	0.0025
648.0659	0.0033
648.2524	0.0081
648.4388	-0.0036
648.6252	-0.002
648.8115	0.0113
648.9979	-0.0022
649.1842	0.005
649.3705	0.0014
649.5568	0.0087
649.7431	0.0091
649.9294	0.004
650.1156	0.0039
650.3018	-0.0041
650.488	0.0046
650.6742	0.0053
650.8604	0.0077
651.0466	-0.0074
651.2327	0.0042
651.4188	-0.0003
651.6049	-0.0034
651.791	-0.0037
651.9771	0.0054
652.1632	-0.0016
652.3492	0.0001
652.5352	0.0007
652.7212	-0.0045
652.9072	0.0043
653.0932	-0.0022
653.2791	-0.0024
653.465	-0.0001
653.651	-0.0024
653.8369	0.0058
654.0227	-0.0046
654.2086	0.0076
654.3944	0.0058
654.5803	0.0069
654.7661	0.002
654.9519	0.0057
655.1377	-0.0045
655.3234	-0.0035
655.5092	-0.0051
655.6949	-0.0032
655.8806	-0.0079
656.0663	-0.0016
656.2519	0.0021
656.4376	-0.0033
656.6232	0.0062
656.8088	0.0009
656.9945	0.0003
657.18	0.0036
657.3656	-0.0005
657.5511	-0.0009
657.7367	-0.0018
657.9222	0.0029
658.1077	0.0032
658.2932	0.0033
658.4786	-0.0078
658.6641	-0.0066
658.8495	0.0041
659.0349	-0.0077
659.2203	0.002
659.4057	-0.0004
659.591	0.0065
659.7764	-0.0058
659.9617	0.0058
660.147	0.0019
660.3323	0.0022
660.5176	0.0125
660.7028	0.0071
660.888	0.003
661.0733	0.005
661.2585	0.0016
661.4436	0.0025
661.6288	0.0038
661.8139	0.0001
661.9991	0.0077
662.1842	0.0014
662.3693	-0.0031
662.5544	-0.0089
662.7394	0.005
662.9245	-0.0033
663.1095	-0.0003
663.2945	0.0013
663.4795	-0.0076
663.6644	0.0055
663.8494	0.0003
664.0343	0.0093
664.2193	-0.0079
664.4042	0.0081
664.589	-0.0121
664.7739	-0.0024
664.9587	-0.0031
665.1436	-0.003
665.3284	-0.0005
665.5132	-0.0011
665.698	0.0014
665.8827	0.0076
666.0675	-0.0055
666.2522	-0.0066
666.4369	0.0044
666.6216	0.0029
666.8063	-0.0008
666.9909	-0.0007
667.1756	-0.0032
667.3602	-0.0006
667.5448	-0.0012
667.7294	0.0078
667.9139	0.0061
668.0985	0.0152
668.283	-0.0008
668.4675	0.0009
668.652	0.0061
668.8365	0.0011
669.0209	0.0086
669.2054	0.0217
669.3898	-0.0057
669.5742	0.0068
669.7586	-0.0006
669.943	0.0139
670.1273	0.0028
670.3117	0.0054
670.496	0.0017
670.6803	0.0142
670.8646	0.0013
671.0488	0.0013
671.2331	0.007
671.4173	0.0005
671.6015	0.0016
671.7857	0.0025
671.9699	0.0025
672.1541	0.0003
672.3382	-0.0024
672.5223	0.006
672.7064	0.0073
672.8905	0.0101
673.0746	-0.0016
673.2587	0.0025
673.4427	0.0014
673.6267	0.0108
673.8107	0.0123
673.9947	0.0027
674.1787	0.0023
674.3626	-0.0068
674.5465	0.0068
674.7304	-0.0005
674.9143	0.0052
675.0982	0.0155
675.2821	0.0016
675.4659	0.0062
675.6497	0.005
675.8335	0.004
676.0173	0.0033
676.2011	0.007
676.3849	-0.0023
676.5686	-0.0056
676.7523	-0.0052
676.936	0.0006
677.1197	-0.0029
677.3034	-0.0059
677.487	0.0094
677.6706	0.0071
677.8542	0.0033
678.0378	-0.0022
678.2214	0.0021
678.405	0.0056
678.5885	-0.0101
678.772	0.0029
678.9555	-0.0026
679.139	0.0014
679.3225	-0.0001
679.5059	0.0011
679.6894	-0.002
679.8728	-0.0029
680.0562	-0.0091
680.2395	-0.0049
680.4229	0.0039
680.6062	0.0013
680.7896	0.0094
680.9729	-0.0023
681.1562	0.0003
681.3394	0.0034
681.5227	0.0005
681.7059	0.0016
681.8891	0.0073
682.0723	0.0125
682.2555	0.0076
682.4387	-0.0008
682.6218	0.0021
682.805	0.0109
682.9881	0.0158
683.1712	-0.0014
683.3542	0.0024
683.5373	0.0082
683.7203	-0.0061
683.9034	0.002
684.0864	-0.0088
684.2694	0.0004
684.4523	-0.0072
684.6353	-0.0056
684.8182	0.0021
685.0011	-0.0029
685.184	0.0028
685.3669	-0.0069
685.5498	0.0024
685.7326	0.0034
685.9154	0.0014
686.0982	0.0066
686.281	-0.0027
686.4638	-0.0008
686.6465	-0.006
686.8293	-0.002
687.012	0.006
687.1947	-0.0072
687.3774	0.0003
687.56	-0.007
687.7427	-0.0001
687.9253	-0.0094
688.1079	0.0018
688.2905	0.0055
688.4731	0.0035
688.6556	-0.0025
688.8382	0.0009
689.0207	0.0007
689.2032	-0.0041
689.3857	-0.0009
689.5681	0.0029
689.7506	-0.0045
689.933	-0.0059
690.1154	0.0024
690.2978	0.0041
690.4802	0.0069
690.6626	-0.0098
690.8449	0.0004
691.0272	0.0025
691.2095	-0.0028
691.3918	-0.0011
691.5741	-0.0023
691.7563	0.0077
691.9386	0.0034
692.1208	0.0007
692.303	0.0002
692.4852	0.0018
692.6673	0.0068
692.8495	0.0033
693.0316	0.001
693.2137	-0.0003
693.3958	0.0064
693.5778	-0.0034
693.7599	-0.0002
693.9419	0.0062
694.1239	0.0053
694.3059	0.0039
694.4879	0.0056
694.6699	0.0128
694.8518	0.0009
695.0337	0.0017
695.2157	0.0082
695.3975	-0.0009
695.5794	0.0073
695.7613	0.0049
695.9431	-0.0047
696.1249	0.0009
696.3067	0.0124
696.4885	0.0118
696.6703	-0.003
696.852	0.0079
697.0337	0.0094
697.2154	0.0028
697.3971	0.0018
697.5788	0.0071
697.7605	0.0009
697.9421	0.0075
698.1237	-0.003
698.3053	0.002
698.4869	-0.0003
698.6685	-0.004
698.85	-0.0015
699.0315	0.0126
699.213	0.0078
699.3945	0.009
699.576	0.0096
699.7575	0.0021
699.9389	0.0127
700.1203	0.0015
700.3017	-0.0062
700.4831	-0.0081
700.6645	-0.0032
700.8458	-0.0007
701.0271	-0.0053
701.2084	0.0062
701.3897	-0.0026
701.571	0.0036
701.7523	-0.0096
701.9335	0.0036
702.1147	-0.0026
702.2959	0.0019
702.4771	0.0037
702.6583	0.0009
702.8394	-0.0068
703.0205	0.0096
703.2016	-0.0051
703.3827	0.0064
703.5638	0.0046
703.7449	0.0095
703.9259	0.01
704.1069	0.0014
704.2879	0.0018
704.4689	0.0091
704.6499	0.0005
704.8308	0.0006
705.0117	0.0039
705.1927	0.0059
705.3735	0.0053
705.5544	-0.0011
705.7353	0.0025
705.9161	-0.0008
706.0969	0.0008
706.2777	-0.0012
706.4585	-0.0028
706.6393	0.0052
706.82	-0.006
707.0007	0.0043
707.1815	-0.0003
707.3621	0.0152
707.5428	0.0054
707.7235	0.0097
707.9041	0.0017
708.0847	-0.0031
708.2653	-0.0034
708.4459	-0.0113
708.6265	0.0011
708.807	-0.0032
708.9875	-0.0045
709.168	-0.0042
709.3485	0.0002
709.529	-0.0069
709.7095	-0.0064
709.8899	-0.0002
710.0703	-0.007
710.2507	-0.0032
710.4311	-0.0064
710.6115	-0.0093
710.7918	-0.0079
710.9721	0.0006
711.1524	-0.0042
711.3327	0.0044
711.513	0.0013
711.6932	0.0047
711.8735	0.0103
712.0537	0.0058
712.2339	0.0013
712.4141	-0.0057
712.5942	-0.0005
712.7744	0.0054
712.9545	-0.0049
713.1346	-0.0113
713.3147	0.002
713.4947	-0.0048
713.6748	-0.0017
713.8548	0.0006
714.0348	-0.0025
714.2148	0.0006
714.3948	0.0102
714.5748	-0.0018
714.7547	-0.0047
714.9346	0.0109
715.1145	0.0028
715.2944	-0.0055
715.4743	0.0013
715.6541	-0.0034
715.834	0.0007
716.0138	-0.0017
716.1936	-0.0119
716.3733	-0.0067
716.5531	0.002
716.7328	-0.0018
716.9126	-0.0065
717.0923	0.0045
717.2719	0.0067
717.4516	0.0116
717.6312	0.0121
717.8109	0.0012
717.9905	0.0045
718.1701	0.0077
718.3496	-0.0073
718.5292	0.0014
718.7087	0.0006
718.8882	0.0014
719.0677	0.0069
719.2472	0.0011
719.4267	-0.0039
719.6061	-0.0009
719.7856	0.0021
719.965	0.009
720.1443	0.0056
720.3237	0.0088
720.5031	0.0028
720.6824	0.0125
720.8617	-0.0021
721.041	0.0066
721.2203	0.008
721.3995	0.0104
721.5788	0.0015
721.758	0.0044
721.9372	-0.0038
722.1164	-0.0012
722.2956	0.0018
722.4747	0.0069
722.6538	0.0069
722.8329	0.0176
723.012	0.0051
723.1911	0.0007
723.3702	-0.0023
723.5492	-0.0014
723.7282	0.0032
723.9072	-0.0049
724.0862	-0.0078
724.2652	-0.0119
724.4441	0.0029
724.623	-0.0054
724.8019	-0.0117
724.9808	0.0008
725.1597	-0.0033
725.3385	0.0033
725.5174	0.0057
725.6962	-0.0019
725.875	0.0013
726.0538	-0.0005
726.2325	0.003
726.4112	0.001
726.59	-0.0046
726.7687	0.0033
726.9474	0.0031
727.126	0.0064
727.3047	-0.0072
727.4833	-0.0007
727.6619	-0.0004
727.8405	-0.0095
728.0191	-0.0092
728.1976	0.0037
728.3762	-0.0014
728.5547	-0.0033
728.7332	-0.0089
728.9116	-0.001
729.0901	0.0001
729.2686	-0.0156
729.447	-0.0037
729.6254	0.0024
729.8038	-0.0005
729.9821	-0.0101
730.1605	-0.009
730.3388	0.0021
730.5171	-0.0031
730.6954	-0.0112
730.8737	0.0009
731.0519	0.0108
731.2302	-0.0042
731.4084	0.0119
731.5866	0.0055
731.7648	-0.0045
731.9429	0.0013
732.1211	-0.0128
732.2992	-0.0031
732.4773	-0.0109
732.6554	-0.0038
732.8335	0.0008
733.0115	0.0024
733.1896	0.0089
733.3676	-0.005
733.5456	0.0103
733.7235	0.0092
733.9015	0.0038
734.0794	0.0047
734.2574	-0.0046
734.4353	-0.003
734.6131	0.0082
734.791	0.0055
734.9689	0.0127
735.1467	0.0038
735.3245	-0.0069
735.5023	-0.0035
735.68	0.0022
735.8578	0.0044
736.0355	-0.0159
736.2132	-0.0047
736.3909	-0.0006
736.5686	-0.0129
736.7463	0.0073
736.9239	-0.0018
737.1015	-0.004
737.2791	0.0049
737.4567	0.0051
737.6343	-0.0046
737.8118	-0.0007
737.9894	-0.0009
738.1669	-0.008
738.3444	0.0008
738.5218	0.0044
738.6993	-0.003
738.8767	0.0013
739.0541	0.0106
739.2315	-0.005
739.4089	-0.0048
739.5863	0.0072
739.7636	-0.0007
739.9409	0.0018
740.1182	0.0162
740.2955	0.0013
740.4728	0.0044
740.65	0.01
740.8272	-0.0028
741.0044	-0.0036
741.1816	0.0027
741.3588	0.0035
741.5359	0.0076
741.7131	-0.0105
741.8902	0.0021
742.0673	0.0061
742.2444	-0.0057
742.4214	-0.0054
742.5985	-0.0021
742.7755	-0.0048
742.9525	-0.0148
743.1295	-0.0023
743.3064	-0.0023
743.4834	0.0072
743.6603	-0.0036
743.8372	0.0071
744.0141	0.0058
744.191	0.0093
744.3678	0.0032
744.5446	0.0055
744.7215	-0.0017
744.8982	-0.0008
745.075	-0.0115
745.2518	0.0081
745.4285	-0.0032
745.6052	-0.004
745.7819	-0.0049
745.9586	-0.0128
746.1353	0.0063
746.3119	-0.0158
746.4885	-0.0205
746.6651	-0.0206
746.8417	-0.0146
747.0183	-0.0097
747.1948	-0.0112
747.3714	0.0018
747.5479	-0.0059
747.7244	-0.0133
747.9008	-0.0037
748.0773	-0.0032
748.2537	-0.0118
748.4301	-0.0205
748.6065	-0.002
748.7829	-0.0005
748.9593	-0.0128
749.1356	-0.0122
749.3119	0.0037
749.4882	-0.0206
749.6645	0.0012
749.8408	-0.0051
750.017	-0.0076
750.1933	-0.0028
750.3695	0.0028
750.5457	0.008
750.7218	-0.0065
750.898	0.0083
751.0741	-0.0055
751.2502	-0.0043
751.4263	-0.0067
751.6024	0.0006
751.7784	-0.0028
751.9545	-0.008
752.1305	0.0004
752.3065	-0.0046
752.4825	0.007
752.6584	0.0011
752.8344	-0.0017
753.0103	-0.0134
753.1862	-0.0043
753.3621	-0.0118
753.5379	-0.0107
753.7138	0.0036
753.8896	0.0021
754.0654	0.0062
754.2412	0.0029
754.417	0.0093
754.5927	-0.0107
754.7685	0.0001
754.9442	0.0043
755.1199	0.0094
755.2956	-0.0074
755.4712	0.0099
755.6469	0.0073
755.8225	-0.0028
755.9981	-0.0074
756.1736	0.0078
756.3492	0.0078
756.5248	0.0011
756.7003	0.0043
756.8758	0.014
757.0513	-0.0111
757.2267	0.0025
757.4022	0.0066
757.5776	-0.0053
757.753	0.0041
757.9284	0.0065
758.1038	0.0033
758.2791	-0.0037
758.4545	-0.0064
758.6298	-0.0095
758.8051	-0.0059
758.9803	-0.0094
759.1556	-0.0071
759.3308	-0.0041
759.506	0.0095
759.6812	0.0116
759.8564	0.0004
760.0316	0.0035
760.2067	0.0138
760.3819	0.0053
760.557	0.0136
760.732	0.0086
760.9071	-0.0066
761.0821	-0
761.2572	0.0113
761.4322	-0.0032
761.6072	-0.0067
761.7821	-0.0039
761.9571	-0.0011
762.132	-0.005
762.3069	-0.0102
762.4818	-0.0049
762.6567	-0.0009
762.8316	-0.0022
763.0064	-0.0026
763.1812	-0.015
763.356	-0.0155
763.5308	-0.0041
763.7055	0.0046
763.8803	-0.0176
764.055	-0.0101
764.2297	-0.0035
764.4044	-0.0172
764.579	-0.0058
764.7537	-0.0185
764.9283	-0.0043
765.1029	-0.0093
765.2775	-0.0083
765.4521	0.0001
765.6266	-0.0126
765.8011	-0.0103
765.9756	-0.0008
766.1501	-0.0036
766.3246	-0.0066
766.4991	0.0012
766.6735	0.0072
766.8479	-0.0082
767.0223	0.0081
767.1967	-0.0062
767.371	-0.0011
767.5454	-0.0132
767.7197	0.0035
767.894	-0.0159
768.0683	-0.0117
768.2425	-0.0064
768.4168	0.0003
768.591	-0.0035
768.7652	-0.0043
768.9394	-0.0095
769.1135	-0.0037
769.2877	0.0181
769.4618	-0.0124
769.6359	0.0041
769.81	-0.0032
769.984	-0.0041
770.1581	-0.0026
770.3321	-0.004
770.5061	-0.0073
770.6801	-0.0045
770.8541	-0.0008
771.028	0.0087
771.202	-0.0184
771.3759	0.0046
771.5498	-0.01
771.7236	-0.0028
771.8975	-0.0096
772.0713	0.007
772.2451	0.0014
772.4189	0.0181
772.5927	0.012
772.7665	0.0024
772.9402	-0.0119
773.1139	0.001
773.2876	-0.0149
773.4613	-0.0069
773.635	0.0046
773.8086	-0.0168
773.9822	-0.002
774.1558	-0.005
774.3294	-0.011
774.503	-0.0051
774.6765	-0.0017
774.8501	-0.0005
775.0236	0.0139
775.1971	0.0009
775.3705	-0.0042
775.544	0.0036
775.7174	-0.002
775.8908	-0.0146
776.0642	-0.0054
776.2376	0.0019
776.4109	-0.0078
776.5843	-0.0093
776.7576	0.0072
776.9309	0.008
777.1041	0.0019
777.2774	0.0076
777.4506	-0.0024
777.6238	-0.0122
777.797	-0.0106
777.9702	-0.0051
778.1434	-0.0104
778.3165	-0.0103
778.4896	-0.0075
778.6627	-0.007
778.8358	-0.0006
779.0089	-0.0077
779.1819	-0.0083
779.3549	-0.0021
779.5279	0.0006
779.7009	-0.011
779.8739	-0.0077
780.0468	-0.0022
780.2197	-0.0079
780.3926	-0.0104
780.5655	-0.0104
780.7384	-0.004
780.9112	-0.0065
781.0841	-0.0105
781.2569	0.0029
781.4297	0.0035
781.6024	-0.0022
781.7752	0.0071
781.9479	-0.0079
782.1206	-0.0207
782.2933	-0.0137
782.466	-0.0047
782.6386	-0.0005
782.8113	-0.0062
782.9839	0.002
783.1565	0.0087
783.329	0.0212
783.5016	0.005
783.6741	0.0145
783.8466	-0.0039
784.0191	0.0085
784.1916	-0.0066
784.3641	0.0047
784.5365	0.0151
784.7089	0.0062
784.8813	0.0113
785.0537	-0.0068
785.2261	-0.0018
785.3984	-0.0111
785.5707	0.0071
785.743	-0.0166
785.9153	-0.0195
786.0876	-0.0069
786.2598	-0.0131
786.432	-0.0133
786.6042	-0.0054
786.7764	-0.0063
786.9486	-0.0016
787.1207	-0.0168
787.2928	-0.0088
787.4649	0.0014
787.637	0.0046
787.8091	-0.0131
787.9811	-0.0105
788.1532	0.0109
788.3252	-0
788.4972	-0.0047
788.6691	-0.0076
788.8411	-0.0058
789.013	-0.0096
789.1849	0.0019
789.3568	-0.0104
789.5287	-0.0039
789.7005	0.0132
789.8723	0.0055
790.0442	-0.0034
790.2159	0.003
790.3877	0.0036
790.5595	-0.0197
790.7312	0.003
790.9029	-0.0066
791.0746	-0.0164
791.2463	-0.013
791.4179	0.0001
791.5896	-0.0146
791.7612	0.0104
791.9328	0.0121
792.1044	-0.0045
792.2759	-0.0081
792.4474	-0.0089
792.619	0.0022
792.7905	0.004
792.9619	0.0014
793.1334	0.0029
793.3048	0.0084
793.4762	0.0067
793.6476	-0.0102
793.819	0.0056
793.9904	0.0152
794.1617	-0.0107
794.333	-0.0107
794.5043	-0.013
794.6756	0.008
794.8469	-0.0038
795.0181	0.0057
795.1893	-0.0208
795.3605	0.0091
795.5317	0.0083
795.7029	-0.0075
795.874	-0.0043
796.0452	-0.0054
796.2163	-0.004
796.3873	0.0213
796.5584	0.0155
796.7294	-0.0076
796.9005	0.0161
797.0715	0.015
797.2425	-0.0054
797.4134	-0.011
797.5844	0.0076
797.7553	-0.0154
797.9262	-0.0006
798.0971	-0.0081
798.2679	-0.0142
798.4388	-0.0193
798.6096	-0.0087
798.7804	0.0005
798.9512	0.0077
799.122	-0.0029
799.2927	-0.0046
799.4635	0.016
799.6342	-0.0248
799.8049	-0.0146
799.9755	-0.0046
800.1462	0.0091
800.3168	0.0011
800.4874	-0.0069
800.658	0.0226
800.8286	0.0011
800.9991	0.0185
801.1696	-0.002
801.3402	0.0099
801.5106	-0.0053
801.6811	-0.0075
801.8516	0.014
802.022	-0.0081
802.1924	0.0026
802.3628	0.0073
802.5332	-0.0021
802.7035	0.0274
802.8739	-0.007
803.0442	-0.0134
803.2145	0.0161
803.3847	-0.0171
803.555	0.009
803.7252	-0.0154
803.8954	-0.0092
804.0656	-0.0175
804.2358	-0.0016
804.4059	0.008
804.5761	-0.0115
804.7462	-0.013
804.9163	0.0121
805.0864	-0.0166
805.2564	-0.0005
805.4264	-0.0022
805.5965	-0.0016
805.7665	0.0017
805.9364	0.0106
806.1064	0.0289
806.2763	-0.0077
806.4462	0.0215
806.6161	0.0028
806.786	0.0162
806.9559	-0.0121
807.1257	-0.0044
807.2955	-0.0083
807.4653	-0.0183
807.6351	-0.0186
807.8048	-0.013
807.9746	0.0066
808.1443	-0.0078
808.314	-0.0179
808.4837	-0.0012
808.6533	0.0192
808.8229	0.0157
808.9926	0.0059
809.1622	0.006
809.3317	-0.004
809.5013	0.0152
809.6708	0.0243
809.8403	-0.0134
810.0098	-0.0056
810.1793	0.0007
810.3488	-0.0048
810.5182	-0.0208
810.6876	0.0143
810.857	0.0102
811.0264	0.0125
811.1958	0.0109
811.3651	0.0018
811.5344	0.005
811.7037	-0.0185
811.873	-0.0118
812.0422	0.0166
812.2115	-0.0057
812.3807	-0.0258
812.5499	0.0117
812.7191	-0.0062
812.8882	-0.0249
813.0574	-0.0053
813.2265	-0.0071
813.3956	0.0021
813.5646	-0.016
813.7337	-0.007
813.9027	0.0065
814.0718	0.026
814.2407	0.0013
814.4097	-0.0092
814.5787	-0.0147
814.7476	-0.0164
814.9165	-0.0132
815.0854	0.0032
815.2543	-0.0167
815.4232	-0.0049
815.592	0.0108
815.7608	-0.016
815.9296	0.0032
816.0984	-0.0136
816.2671	-0.0137
816.4359	-0.0207
816.6046	-0.0121
816.7733	-0.0079
816.942	-0.0236
817.1106	-0.0084
817.2793	0.0012
817.4479	-0.0085
817.6165	-0.0245
817.785	-0.0122
817.9536	-0.0233
818.1221	0.0028
818.2906	0.0067
818.4591	-0.011
818.6276	-0.0124
818.7961	-0.0105
818.9645	0.006
819.1329	0.0019
819.3013	-0.0014
819.4697	0.0269
819.638	0.0023
819.8064	0.0124
819.9747	-0.0042
820.143	-0.0082
820.3113	-0.0186
820.4795	-0.0073
820.6477	0.0215
820.816	-0.0032
820.9842	0.0101
821.1523	0.0039
821.3205	0.0042
821.4886	0.0105
821.6567	0.001
821.8248	-0.0045
821.9929	-0.0014
822.1609	-0.0094
822.329	0.0212
822.497	0.0197
822.665	-0.004
822.833	-0.002
823.0009	-0.0141
823.1688	0.0207
823.3367	0.0199
823.5046	0.0007
823.6725	0.0272
823.8404	-0.0155
824.0082	0.0086
824.176	-0.0083
824.3438	-0.0095
824.5116	0.0029
824.6793	0.0275
824.847	-0.0066
825.0147	0.0012
825.1824	0.0214
825.3501	0.0111
825.5177	-0.0263
825.6854	-0.0048
825.853	-0.0083
826.0206	-0.0179
826.1881	0.0153
826.3557	-0.0227
826.5232	-0.0167
826.6907	-0.0514
826.8582	-0.0117
827.0257	-0.0217
827.1931	-0.0134
827.3605	-0.0019
827.528	-0.0052
827.6953	-0.0567
827.8627	-0.0311
828.03	0.016
828.1974	-0.026
828.3647	-0.0423
828.532	-0.0278
828.6992	-0.0296
828.8665	-0.0105
829.0337	-0.0208
829.2009	-0.0001
829.3681	0.0071
829.5352	0.03
829.7024	-0.017
829.8695	-0.0587
830.0366	0.0013
830.2037	0.003
830.3707	0.0099
830.5378	0.0146
830.7048	0.0093
830.8718	0.0005
831.0388	-0.0437
831.2057	-0.0163
831.3727	0.0094
831.5396	-0.0271
831.7065	-0.0545
831.8734	-0.0144
832.0402	-0.0227
832.2071	-0.0057
832.3739	0.0041
832.5407	-0.0312
832.7075	-0.0485
832.8742	-0.0331
833.041	-0.0632
833.2077	0.0011
833.3744	-0.0152
833.541	-0.0258
833.7077	-0.0007
833.8743	-0.0305
834.0409	0.0011
834.2075	-0.0366
834.3741	-0.0258
834.5407	-0.0242
834.7072	-0.0108
834.8737	-0.0196
835.0402	-0.0205
835.2067	-0.0057
835.3731	0.0106
835.5395	0.0162
835.706	0.0184
835.8723	-0.0419
836.0387	-0.0068
836.2051	0.0006
836.3714	0.0096
836.5377	0.016
836.704	-0.0396
836.8703	-0.0138
837.0365	-0.0229
837.2027	-0.0237
837.3689	-0.0375
837.5351	-0.0001
837.7013	-0.0233
837.8674	-0.0314
838.0335	-0.0554
838.1997	-0.0169
838.3657	-0.0381
838.5318	-0.0023
838.6978	0.0617
838.8639	0.0535
839.0299	-0.0036
839.1958	-0.0245
839.3618	0.0042
839.5277	0.0007
839.6937	-0.0358
839.8596	-0.0324
840.0254	-0.0108
840.1913	0.0175
840.3571	-0.0165
840.523	-0.0022
840.6888	-0.0176
840.8545	0.0076
841.0203	0.0548
841.186	0.012
841.3517	0.0276
841.5174	-0.0001
841.6831	-0.0048
841.8488	-0.0099
842.0144	-0.002
842.18	0.0106
842.3456	0.0103
842.5112	0.0153
842.6767	-0.005
842.8422	-0.039
843.0077	-0.0271
843.1732	-0.0699
843.3387	-0.0361
843.5042	-0.0508
843.6696	-0.0097
843.835	0.0042
844.0004	0.0579
844.1657	0.0256
844.3311	-0.0254
844.4964	-0.0888
844.6617	-0.0166
844.827	-0.006
844.9923	-0.0137
845.1575	0.001
845.3227	0.0103
845.4879	-0.0399
845.6531	-0.0648
845.8183	-0.1144
845.9834	-0.0361
846.1485	-0.0183
846.3136	-0.0285
846.4787	-0.106
846.6438	0.0294
846.8088	-0.0505
846.9738	-0.0661
847.1388	-0.0127
847.3038	-0.0048
847.4687	-0.115
847.6337	0.0103
847.7986	-0.0222
847.9635	0.0334
848.1284	0.0504
848.2932	0.0123
848.458	0.0483
848.6228	0.0575
848.7876	0.1297
848.9524	-0.0985
849.1172	-0.0514
849.2819	0.0154
849.4466	-0.1348
849.6113	-0.0397
849.7759	-0.0367
849.9406	-0.0003
850.1052	0.0062
850.2698	-0.0418
850.4344	-0.0062
850.599	-0.0236
850.7635	0.0855
850.928	-0.0227
851.0925	-0.03
851.257	0.0196
851.4215	0.0214
851.5859	-0.0672
851.7503	-0.0079
851.9147	0.0539
852.0791	-0.1567
852.2434	-0.0537
852.4078	0.0235
852.5721	0.0145
852.7364	-0.0044
852.9007	-0.2558
853.0649	-0.0486
853.2291	-0.0103
853.3934	0.0185
853.5575	-0.0153
853.7217	-0.0375
853.8859	-0.179
854.05	-0.1097
854.2141	-0.0081
854.3782	-0.0332
854.5423	-0.1219
854.7063	0.0407
854.8703	-0.0167
855.0343	0.022
855.1983	-0.1099
855.3623	0.1169
855.5262	-0.0398
855.6901	-0.0721
855.854	-0.0636
856.0179	-0.0113
856.1818	-0.0341
856.3456	-0.1625
856.5094	-0.1184
856.6732	-0.113
856.837	-0.0288
857.0008	0.0631
857.1645	-0.083
857.3282	-0.1925
857.4919	0.1687
857.6556	-0.1118
857.8192	-0.0472
857.9828	-0.0436
858.1465	0.1748
858.31	-0.1884
858.4736	-0.0716
858.6372	-0.1987
858.8007	-0.1557
858.9642	-0.0759
859.1277	0.023
859.2911	-0.1172
859.4546	0.0706
859.618	-0.36
859.7814	0.0062
859.9448	-0.03
860.1081	-0.0314
860.2715	0.1408
860.4348	0.0368
860.5981	-0.0008
860.7614	0.228
860.9246	0.0144
861.0879	-0.2526
861.2511	-0.0607
861.4143	-0.3316
861.5774	0.1594
861.7406	-0.3046
861.9037	-0.06
862.0668	-0.2002
862.2299	-0.2554
862.393	-0.6577
862.556	-0.0567
862.7191	-0.2892
862.8821	-0.195
863.0451	0.478
863.208	0.034
863.371	0.1048
863.5339	-0.3644
863.6968	0.2794
863.8597	-0.206
864.0225	-0.2014
864.1854	-0.2221
864.3482	-0.1605
864.511	-0.0007
864.6737	-0.0203
864.8365	-0.118
864.9992	-0.1858
865.1619	-0.3256
865.3246	-0.1573
865.4873	-0.1387
865.65	-0.3974
865.8126	-0.06
865.9752	-0.0421
866.1378	0.1721
866.3004	0.2806
866.4629	0.1357
866.6254	-0.203
866.7879	0.1452
866.9504	-0.412
867.1129	-0
867.2753	0.1277
867.4377	0.0739
867.6001	-0.2502
867.7625	-0.0282
867.9249	-0.058
868.0872	-0.2602
868.2495	0.0999
868.4118	-0.1559
868.5741	-0.5517
868.7363	-0.2283
868.8986	-0.0698
869.0608	-0.3861
869.223	0.2745
869.3851	0.1479
869.5473	-0
869.7094	0.3087
869.8715	-0.1005
870.0336	-0
870.1957	-0
870.3577	-0.6214
870.5197	-0.0873
870.6817	-0.4328
870.8437	-0.2287
871.0057	-0.5895
871.1676	-0.0071
871.3295	-0.5754
871.4914	-0.3827
871.6533	-0.2944
871.8151	-0.5184
871.977	-0
872.1388	-0
872.3006	-0
872.4623	-0
872.6241	0.5526
872.7858	0.3218
872.9475	0.117
873.1092	-0.133
873.2709	1.7597
873.4325	-0.1969
873.5941	-0
873.7557	-0
873.9173	-0
874.0789	-0.4044
874.2404	-0.7714
874.4019	0.0633
874.5634	-0.1683
874.7249	0.0172
874.8863	0.3297
875.0478	-0
875.2092	-0
875.3706	-0
875.5319	-0.962
875.6933	-0
875.8546	0.1576
876.0159	-0
876.1772	-0
876.3385	-0.1032
876.4997	0.0051
876.6609	-0.6415
876.8221	-0
876.9833	-0
877.1445	-0
877.3056	0.0492
877.4667	-0.301
877.6278	-0
877.7889	-0.586
877.9499	-0
878.111	-0
878.272	-0
878.433	-0
878.5939	-0
878.7549	-0.2634
878.9158	-0.2568
879.0767	-0
879.2376	-0
879.3984	0.1126
879.5593	-0
879.7201	-0.1521
879.8809	-0.6396
880.0417	-0.2053
880.2024	0.9093
880.3632	-0
880.5239	-0.065
880.6846	0.1131
880.8452	-2.6609
881.0059	-1.2742
881.1665	-0
881.3271	-0.2839
881.4877	-0.1178
881.6483	-0.4641
881.8088	-0.6105
881.9693	-0
882.1298	-0
882.2903	-0
