Data from MonoPyChalIsomerACN10uM350nmA_Absorbance_14-35-37-115.txt Node
Date: Fri Jul 05 14:35:37 BST 2024
User: LASERRRRR
Spectrometer: FLMT03099
Trigger mode: 0
Integration Time (sec): 1.000000E-1
Scans to average: 1
Electric dark correction enabled: true
Nonlinearity correction enabled: false
Boxcar width: 0
XAxis mode: Wavelengths
Number of Pixels in Spectrum: 3648
>>>>>Begin Spectral Data<<<<<
179.3399	-0.2345
179.5586	-0.2345
179.7771	-0.2345
179.9957	-0
180.2143	-0.4398
180.4329	0.065
180.6514	-0
180.8699	-0.3233
181.0885	-0.0856
181.307	0.3676
181.5255	-0.6021
181.744	-0
181.9625	0.6335
182.181	-0.9795
182.3994	0.2289
182.6179	-0
182.8363	0.1431
183.0547	-0.2483
183.2732	0.0863
183.4916	0.2162
183.71	0.3083
183.9284	0.271
184.1467	-0.1158
184.3651	-0.0763
184.5835	0.0161
184.8018	-0.051
185.0201	-0.0654
185.2385	-0.0367
185.4568	0.2773
185.6751	0.3894
185.8934	0.1842
186.1117	0.0982
186.3299	0.2791
186.5482	0.2828
186.7664	0.0586
186.9847	-0.131
187.2029	0.1575
187.4211	-0.0016
187.6393	0.1108
187.8575	0.1953
188.0757	0.1248
188.2939	0.0206
188.512	0.2918
188.7302	0.1246
188.9483	0.174
189.1665	0.1586
189.3846	-0.1796
189.6027	0.3877
189.8208	0.2978
190.0389	0.0921
190.257	0.1328
190.475	0.1495
190.6931	0.2909
190.9111	0.3398
191.1292	0.163
191.3472	0.4049
191.5652	0.2482
191.7832	0.2391
192.0012	0.3679
192.2192	0.4075
192.4371	0.463
192.6551	0.4052
192.873	0.3921
193.091	0.5193
193.3089	0.6483
193.5268	0.6285
193.7447	0.552
193.9626	0.3871
194.1805	0.5956
194.3984	0.5185
194.6162	0.4919
194.8341	0.5745
195.0519	0.606
195.2697	0.7078
195.4875	0.5772
195.7054	0.6058
195.9231	0.5424
196.1409	0.7248
196.3587	0.7363
196.5765	0.622
196.7942	0.6328
197.012	0.5256
197.2297	0.7118
197.4474	0.5585
197.6651	0.5795
197.8828	0.5772
198.1005	0.4773
198.3182	0.5638
198.5358	0.7385
198.7535	0.7431
198.9711	0.5179
199.1888	0.7488
199.4064	0.6881
199.624	0.6806
199.8416	0.5369
200.0592	0.6722
200.2767	0.8064
200.4943	0.7159
200.7119	0.668
200.9294	0.712
201.1469	0.5794
201.3645	0.5705
201.582	0.6068
201.7995	0.7309
202.017	0.697
202.2344	0.5938
202.4519	0.7424
202.6694	0.6323
202.8868	0.5896
203.1042	0.7575
203.3217	0.7011
203.5391	0.6315
203.7565	0.5638
203.9739	0.6595
204.1913	0.611
204.4086	0.6553
204.626	0.7199
204.8433	0.7158
205.0607	0.7153
205.278	0.6209
205.4953	0.6471
205.7126	0.546
205.9299	0.6966
206.1472	0.619
206.3644	0.632
206.5817	0.6403
206.7989	0.6902
207.0162	0.6283
207.2334	0.6245
207.4506	0.648
207.6678	0.6101
207.885	0.6823
208.1022	0.7115
208.3194	0.7082
208.5365	0.7157
208.7537	0.642
208.9708	0.6106
209.1879	0.6911
209.405	0.7372
209.6222	0.641
209.8392	0.646
210.0563	0.6062
210.2734	0.6776
210.4905	0.7558
210.7075	0.6574
210.9245	0.6062
211.1416	0.6321
211.3586	0.6181
211.5756	0.5901
211.7926	0.6313
212.0096	0.6168
212.2265	0.5726
212.4435	0.548
212.6604	0.6162
212.8774	0.6154
213.0943	0.5905
213.3112	0.5877
213.5281	0.5148
213.745	0.4862
213.9619	0.5201
214.1788	0.4718
214.3956	0.4628
214.6125	0.4759
214.8293	0.4151
215.0461	0.4539
215.2629	0.4429
215.4798	0.4984
215.6965	0.4383
215.9133	0.4452
216.1301	0.4067
216.3469	0.426
216.5636	0.4244
216.7803	0.3657
216.9971	0.4477
217.2138	0.3953
217.4305	0.3715
217.6472	0.3425
217.8639	0.3719
218.0805	0.3433
218.2972	0.3395
218.5138	0.3395
218.7305	0.3129
218.9471	0.3145
219.1637	0.2807
219.3803	0.264
219.5969	0.3034
219.8135	0.2707
220.0301	0.2728
220.2466	0.2878
220.4632	0.2606
220.6797	0.2555
220.8962	0.2514
221.1127	0.2654
221.3292	0.2421
221.5457	0.2529
221.7622	0.2229
221.9787	0.267
222.1951	0.2446
222.4116	0.244
222.628	0.2389
222.8444	0.2548
223.0608	0.28
223.2772	0.2493
223.4936	0.2611
223.71	0.2503
223.9264	0.2745
224.1427	0.2321
224.3591	0.2407
224.5754	0.2418
224.7917	0.2343
225.008	0.2767
225.2243	0.2535
225.4406	0.2914
225.6569	0.2597
225.8732	0.2797
226.0894	0.2601
226.3057	0.2601
226.5219	0.2689
226.7381	0.253
226.9543	0.2913
227.1705	0.2859
227.3867	0.2899
227.6029	0.2965
227.8191	0.2894
228.0352	0.2813
228.2513	0.3283
228.4675	0.2994
228.6836	0.2956
228.8997	0.297
229.1158	0.3038
229.3319	0.3054
229.548	0.3175
229.764	0.3082
229.9801	0.3179
230.1961	0.3162
230.4121	0.327
230.6282	0.3412
230.8442	0.3264
231.0602	0.3542
231.2761	0.3625
231.4921	0.3425
231.7081	0.3541
231.924	0.35
232.14	0.356
232.3559	0.3315
232.5718	0.3462
232.7877	0.3743
233.0036	0.3431
233.2195	0.3611
233.4353	0.3642
233.6512	0.3535
233.867	0.3452
234.0829	0.3658
234.2987	0.3831
234.5145	0.3622
234.7303	0.3539
234.9461	0.3874
235.1619	0.38
235.3776	0.3805
235.5934	0.3798
235.8091	0.344
236.0249	0.374
236.2406	0.3976
236.4563	0.3692
236.672	0.3824
236.8877	0.3886
237.1034	0.4071
237.319	0.3786
237.5347	0.4233
237.7503	0.4084
237.966	0.4004
238.1816	0.4179
238.3972	0.4202
238.6128	0.3925
238.8284	0.421
239.0439	0.4173
239.2595	0.4005
239.475	0.4183
239.6906	0.4208
239.9061	0.4018
240.1216	0.4147
240.3371	0.4008
240.5526	0.3941
240.7681	0.4071
240.9836	0.3904
241.199	0.3938
241.4145	0.3733
241.6299	0.3789
241.8453	0.3947
242.0607	0.3947
242.2761	0.3643
242.4915	0.3592
242.7069	0.363
242.9223	0.3666
243.1376	0.3467
243.353	0.3389
243.5683	0.3523
243.7836	0.3303
243.9989	0.3348
244.2142	0.3196
244.4295	0.3206
244.6448	0.3061
244.86	0.3081
245.0753	0.2925
245.2905	0.2931
245.5057	0.2711
245.721	0.2709
245.9362	0.282
246.1514	0.2811
246.3665	0.2587
246.5817	0.2662
246.7969	0.2362
247.012	0.2537
247.2271	0.2508
247.4423	0.2509
247.6574	0.2449
247.8725	0.2304
248.0876	0.2378
248.3026	0.23
248.5177	0.2255
248.7328	0.2033
248.9478	0.2021
249.1628	0.2319
249.3779	0.2227
249.5929	0.1999
249.8079	0.2238
250.0228	0.2023
250.2378	0.2069
250.4528	0.2085
250.6677	0.1837
250.8827	0.1997
251.0976	0.2063
251.3125	0.1898
251.5274	0.1848
251.7423	0.189
251.9572	0.1844
252.172	0.1744
252.3869	0.1722
252.6017	0.1666
252.8166	0.1676
253.0314	0.1722
253.2462	0.1696
253.461	0.1865
253.6758	0.1639
253.8906	0.1695
254.1053	0.176
254.3201	0.1688
254.5348	0.1805
254.7496	0.1757
254.9643	0.1556
255.179	0.1757
255.3937	0.1631
255.6083	0.1783
255.823	0.1733
256.0377	0.168
256.2523	0.1638
256.467	0.1568
256.6816	0.1748
256.8962	0.1745
257.1108	0.1681
257.3254	0.1763
257.54	0.1593
257.7545	0.17
257.9691	0.1798
258.1836	0.1638
258.3981	0.1747
258.6127	0.1864
258.8272	0.1734
259.0417	0.1723
259.2561	0.1564
259.4706	0.1793
259.6851	0.1784
259.8995	0.1761
260.114	0.1637
260.3284	0.1707
260.5428	0.1609
260.7572	0.1736
260.9716	0.17
261.186	0.1598
261.4003	0.1578
261.6147	0.1733
261.829	0.1655
262.0433	0.1614
262.2577	0.1603
262.472	0.1652
262.6863	0.1684
262.9005	0.1667
263.1148	0.1657
263.3291	0.1499
263.5433	0.1572
263.7576	0.165
263.9718	0.1608
264.186	0.1442
264.4002	0.1614
264.6144	0.175
264.8286	0.1684
265.0427	0.1609
265.2569	0.1568
265.471	0.1528
265.6851	0.1517
265.8993	0.1594
266.1134	0.1459
266.3275	0.1576
266.5415	0.1535
266.7556	0.1635
266.9697	0.1703
267.1837	0.1671
267.3978	0.1708
267.6118	0.1701
267.8258	0.1805
268.0398	0.1529
268.2538	0.1644
268.4677	0.1625
268.6817	0.1543
268.8957	0.1549
269.1096	0.1714
269.3235	0.1661
269.5374	0.158
269.7514	0.1495
269.9652	0.147
270.1791	0.1495
270.393	0.1512
270.6068	0.1598
270.8207	0.1485
271.0345	0.1504
271.2483	0.1514
271.4622	0.1449
271.676	0.1621
271.8897	0.1424
272.1035	0.154
272.3173	0.1456
272.531	0.1467
272.7448	0.1406
272.9585	0.1427
273.1722	0.1614
273.3859	0.1471
273.5996	0.1353
273.8133	0.1495
274.0269	0.1501
274.2406	0.1287
274.4542	0.1404
274.6679	0.1348
274.8815	0.1397
275.0951	0.1499
275.3087	0.1503
275.5223	0.1515
275.7358	0.143
275.9494	0.1458
276.1629	0.1471
276.3765	0.1362
276.59	0.1591
276.8035	0.1527
277.017	0.1502
277.2305	0.1343
277.444	0.1534
277.6574	0.1535
277.8709	0.1468
278.0843	0.1411
278.2978	0.1389
278.5112	0.1305
278.7246	0.1513
278.938	0.1547
279.1513	0.1361
279.3647	0.1588
279.5781	0.1419
279.7914	0.1518
280.0047	0.1638
280.2181	0.1616
280.4314	0.1439
280.6447	0.158
280.8579	0.163
281.0712	0.1575
281.2845	0.1448
281.4977	0.1457
281.711	0.145
281.9242	0.1515
282.1374	0.1514
282.3506	0.1475
282.5638	0.1604
282.7769	0.1488
282.9901	0.1512
283.2033	0.1636
283.4164	0.1733
283.6295	0.1525
283.8426	0.1555
284.0557	0.1574
284.2688	0.1663
284.4819	0.1584
284.695	0.1547
284.908	0.1592
285.1211	0.1575
285.3341	0.1608
285.5471	0.1652
285.7601	0.1577
285.9731	0.1559
286.1861	0.1519
286.3991	0.1732
286.612	0.1656
286.825	0.1585
287.0379	0.1747
287.2508	0.1636
287.4637	0.1654
287.6766	0.1566
287.8895	0.1739
288.1024	0.1889
288.3152	0.1669
288.5281	0.1482
288.7409	0.165
288.9538	0.1617
289.1666	0.167
289.3794	0.1738
289.5922	0.1578
289.8049	0.1625
290.0177	0.1617
290.2304	0.1512
290.4432	0.1685
290.6559	0.1682
290.8686	0.1689
291.0813	0.1761
291.294	0.1681
291.5067	0.1745
291.7194	0.1688
291.932	0.1731
292.1447	0.1691
292.3573	0.1728
292.5699	0.1651
292.7825	0.1639
292.9951	0.1655
293.2077	0.1661
293.4203	0.1628
293.6328	0.1499
293.8454	0.1715
294.0579	0.1596
294.2704	0.1631
294.4829	0.1487
294.6954	0.1704
294.9079	0.1585
295.1204	0.167
295.3328	0.1626
295.5453	0.17
295.7577	0.1686
295.9701	0.1663
296.1825	0.1752
296.3949	0.1578
296.6073	0.1637
296.8197	0.1534
297.0321	0.1747
297.2444	0.156
297.4567	0.1702
297.6691	0.1663
297.8814	0.1564
298.0937	0.1601
298.306	0.1585
298.5182	0.163
298.7305	0.1692
298.9428	0.1544
299.155	0.1725
299.3672	0.1577
299.5794	0.1526
299.7916	0.1707
300.0038	0.1662
300.216	0.1599
300.4282	0.1762
300.6403	0.1584
300.8525	0.1629
301.0646	0.1613
301.2767	0.1671
301.4888	0.1501
301.7009	0.1653
301.913	0.1573
302.125	0.1761
302.3371	0.1574
302.5491	0.1635
302.7612	0.1652
302.9732	0.1663
303.1852	0.1669
303.3972	0.1694
303.6092	0.1447
303.8211	0.1586
304.0331	0.1563
304.245	0.1514
304.457	0.1544
304.6689	0.1451
304.8808	0.1646
305.0927	0.1463
305.3046	0.1595
305.5164	0.1637
305.7283	0.1477
305.9401	0.1551
306.152	0.1511
306.3638	0.1543
306.5756	0.1441
306.7874	0.1435
306.9992	0.1528
307.2109	0.1447
307.4227	0.124
307.6344	0.14
307.8462	0.1426
308.0579	0.1408
308.2696	0.1348
308.4813	0.1278
308.693	0.136
308.9046	0.1327
309.1163	0.1264
309.328	0.1366
309.5396	0.1216
309.7512	0.1254
309.9628	0.1233
310.1744	0.1205
310.386	0.1247
310.5976	0.1295
310.8091	0.1206
311.0207	0.1234
311.2322	0.1259
311.4437	0.1092
311.6552	0.1181
311.8667	0.1244
312.0782	0.1012
312.2897	0.1135
312.5012	0.1148
312.7126	0.1016
312.924	0.1075
313.1355	0.1121
313.3469	0.1016
313.5583	0.1143
313.7696	0.1122
313.981	0.1115
314.1924	0.1059
314.4037	0.1055
314.6151	0.1121
314.8264	0.0977
315.0377	0.0982
315.249	0.1062
315.4603	0.1107
315.6716	0.1112
315.8828	0.0955
316.0941	0.0999
316.3053	0.1023
316.5165	0.093
316.7277	0.086
316.9389	0.1035
317.1501	0.0934
317.3613	0.1096
317.5724	0.0886
317.7836	0.0964
317.9947	0.0943
318.2058	0.0942
318.417	0.0852
318.6281	0.0852
318.8391	0.0952
319.0502	0.09
319.2613	0.097
319.4723	0.0962
319.6834	0.1048
319.8944	0.0931
320.1054	0.1046
320.3164	0.0995
320.5274	0.0967
320.7383	0.1049
320.9493	0.1021
321.1602	0.1014
321.3712	0.098
321.5821	0.1012
321.793	0.0947
322.0039	0.1013
322.2148	0.0989
322.4257	0.1021
322.6365	0.1121
322.8474	0.1134
323.0582	0.0976
323.269	0.0957
323.4798	0.1179
323.6906	0.1042
323.9014	0.1102
324.1122	0.105
324.3229	0.084
324.5337	0.1103
324.7444	0.096
324.9551	0.1126
325.1658	0.0978
325.3765	0.1079
325.5872	0.1083
325.7979	0.1082
326.0085	0.1082
326.2192	0.1089
326.4298	0.1073
326.6404	0.1049
326.851	0.1055
327.0616	0.0979
327.2722	0.1081
327.4828	0.1135
327.6933	0.1045
327.9039	0.1095
328.1144	0.1094
328.3249	0.1076
328.5354	0.113
328.7459	0.1089
328.9564	0.0996
329.1669	0.1002
329.3773	0.1074
329.5878	0.1133
329.7982	0.1022
330.0086	0.1095
330.219	0.1095
330.4294	0.0984
330.6398	0.1106
330.8502	0.1038
331.0605	0.1121
331.2708	0.1092
331.4812	0.1089
331.6915	0.1128
331.9018	0.1101
332.1121	0.1078
332.3224	0.0998
332.5326	0.1152
332.7429	0.1036
332.9531	0.1141
333.1633	0.1008
333.3735	0.1113
333.5837	0.1148
333.7939	0.1036
334.0041	0.1233
334.2143	0.1181
334.4244	0.0937
334.6346	0.0897
334.8447	0.1184
335.0548	0.1076
335.2649	0.1067
335.475	0.1165
335.685	0.1066
335.8951	0.1104
336.1051	0.1164
336.3152	0.1275
336.5252	0.1264
336.7352	0.1126
336.9452	0.1144
337.1552	0.1218
337.3652	0.1004
337.5751	0.1146
337.7851	0.1274
337.995	0.0933
338.2049	0.1195
338.4148	0.112
338.6247	0.1159
338.8346	0.1211
339.0445	0.1109
339.2543	0.1083
339.4642	0.1073
339.674	0.1172
339.8838	0.1183
340.0936	0.1213
340.3034	0.1123
340.5132	0.1118
340.7229	0.1105
340.9327	0.1137
341.1424	0.1128
341.3522	0.12
341.5619	0.1267
341.7716	0.1283
341.9813	0.1327
342.1909	0.1164
342.4006	0.1289
342.6102	0.1301
342.8199	0.1285
343.0295	0.1421
343.2391	0.1216
343.4487	0.1322
343.6583	0.1299
343.8679	0.1176
344.0774	0.1346
344.287	0.1204
344.4965	0.1216
344.706	0.1334
344.9155	0.1246
345.125	0.1297
345.3345	0.1326
345.544	0.1249
345.7534	0.1322
345.9629	0.1196
346.1723	0.1348
346.3817	0.1073
346.5911	0.1348
346.8005	0.1357
347.0099	0.1253
347.2193	0.1348
347.4286	0.1315
347.638	0.1481
347.8473	0.1329
348.0566	0.1411
348.2659	0.1455
348.4752	0.1336
348.6845	0.1199
348.8937	0.1382
349.103	0.1424
349.3122	0.1278
349.5214	0.1348
349.7306	0.1321
349.9398	0.1243
350.149	0.1407
350.3582	0.1296
350.5674	0.153
350.7765	0.1403
350.9856	0.1422
351.1948	0.1511
351.4039	0.1478
351.613	0.1434
351.822	0.1506
352.0311	0.161
352.2402	0.1411
352.4492	0.1539
352.6582	0.1443
352.8672	0.1511
353.0762	0.1604
353.2852	0.148
353.4942	0.1392
353.7032	0.1534
353.9121	0.1595
354.1211	0.1579
354.33	0.1587
354.5389	0.1567
354.7478	0.1591
354.9567	0.1499
355.1655	0.1441
355.3744	0.1454
355.5833	0.1583
355.7921	0.164
356.0009	0.1524
356.2097	0.1759
356.4185	0.171
356.6273	0.1696
356.8361	0.1634
357.0448	0.1417
357.2536	0.1557
357.4623	0.1484
357.671	0.1826
357.8797	0.1592
358.0884	0.1637
358.2971	0.1578
358.5057	0.1718
358.7144	0.1783
358.923	0.1675
359.1316	0.1604
359.3402	0.1662
359.5488	0.1795
359.7574	0.1787
359.966	0.1785
360.1746	0.1822
360.3831	0.1739
360.5916	0.1674
360.8002	0.1795
361.0087	0.1866
361.2172	0.1727
361.4256	0.189
361.6341	0.1875
361.8426	0.1889
362.051	0.1879
362.2594	0.1808
362.4678	0.1825
362.6762	0.209
362.8846	0.1931
363.093	0.1776
363.3014	0.1837
363.5097	0.1679
363.718	0.1812
363.9264	0.1882
364.1347	0.1963
364.343	0.2066
364.5513	0.2012
364.7595	0.1957
364.9678	0.2084
365.176	0.2026
365.3842	0.1882
365.5925	0.1946
365.8007	0.2015
366.0089	0.2055
366.217	0.2037
366.4252	0.212
366.6333	0.2187
366.8415	0.1856
367.0496	0.1935
367.2577	0.2206
367.4658	0.2176
367.6739	0.2138
367.882	0.2109
368.09	0.2141
368.2981	0.2196
368.5061	0.207
368.7141	0.2218
368.9221	0.2214
369.1301	0.2011
369.3381	0.2128
369.5461	0.2172
369.754	0.2316
369.962	0.2219
370.1699	0.2236
370.3778	0.2105
370.5857	0.1977
370.7936	0.2208
371.0015	0.2296
371.2093	0.2351
371.4172	0.2277
371.625	0.2023
371.8328	0.2171
372.0406	0.2158
372.2484	0.2246
372.4562	0.2314
372.664	0.2246
372.8717	0.249
373.0795	0.2184
373.2872	0.226
373.4949	0.2239
373.7026	0.2401
373.9103	0.2284
374.118	0.2273
374.3256	0.2288
374.5333	0.2222
374.7409	0.2234
374.9485	0.2349
375.1561	0.2317
375.3637	0.2391
375.5713	0.247
375.7789	0.2183
375.9864	0.24
376.194	0.2296
376.4015	0.2486
376.609	0.2372
376.8165	0.2385
377.024	0.2345
377.2315	0.2374
377.4389	0.2372
377.6464	0.2277
377.8538	0.2345
378.0612	0.2353
378.2686	0.2574
378.476	0.2492
378.6834	0.2458
378.8908	0.2459
379.0981	0.2537
379.3055	0.2457
379.5128	0.2433
379.7201	0.2473
379.9274	0.2332
380.1347	0.251
380.342	0.2623
380.5492	0.2521
380.7565	0.2399
380.9637	0.2334
381.1709	0.2452
381.3781	0.2486
381.5853	0.2693
381.7925	0.2605
381.9997	0.2548
382.2068	0.2646
382.4139	0.254
382.6211	0.2448
382.8282	0.2487
383.0353	0.2396
383.2424	0.242
383.4494	0.2555
383.6565	0.2482
383.8635	0.2545
384.0706	0.2467
384.2776	0.2566
384.4846	0.2467
384.6916	0.2601
384.8986	0.2529
385.1055	0.2705
385.3125	0.2614
385.5194	0.2494
385.7263	0.2582
385.9333	0.262
386.1402	0.2319
386.347	0.2642
386.5539	0.2567
386.7608	0.2784
386.9676	0.2385
387.1744	0.264
387.3813	0.2377
387.5881	0.2491
387.7948	0.2526
388.0016	0.2636
388.2084	0.255
388.4151	0.2489
388.6219	0.2611
388.8286	0.2619
389.0353	0.245
389.242	0.262
389.4487	0.24
389.6553	0.2512
389.862	0.2211
390.0686	0.2569
390.2753	0.2603
390.4819	0.2344
390.6885	0.2285
390.8951	0.2597
391.1016	0.2316
391.3082	0.2377
391.5147	0.2554
391.7213	0.2447
391.9278	0.2403
392.1343	0.2364
392.3408	0.2362
392.5473	0.2386
392.7537	0.2294
392.9602	0.2346
393.1666	0.2233
393.373	0.2354
393.5794	0.2379
393.7858	0.2225
393.9922	0.2134
394.1986	0.206
394.4049	0.22
394.6113	0.2066
394.8176	0.2182
395.0239	0.2293
395.2302	0.2156
395.4365	0.2398
395.6428	0.2194
395.8491	0.2128
396.0553	0.2358
396.2615	0.2175
396.4678	0.2178
396.674	0.209
396.8802	0.2187
397.0863	0.222
397.2925	0.217
397.4987	0.2153
397.7048	0.2026
397.9109	0.2263
398.117	0.2075
398.3231	0.2168
398.5292	0.2136
398.7353	0.2227
398.9413	0.2052
399.1474	0.2151
399.3534	0.2114
399.5594	0.2036
399.7654	0.2289
399.9714	0.2252
400.1774	0.2195
400.3833	0.1934
400.5893	0.2136
400.7952	0.2233
401.0011	0.2166
401.207	0.2177
401.4129	0.2145
401.6188	0.2371
401.8247	0.1977
402.0305	0.2116
402.2364	0.2104
402.4422	0.2144
402.648	0.2177
402.8538	0.2269
403.0596	0.2039
403.2654	0.2122
403.4711	0.2252
403.6768	0.2216
403.8826	0.234
404.0883	0.2396
404.294	0.2248
404.4997	0.2163
404.7054	0.2169
404.911	0.2149
405.1167	0.1935
405.3223	0.2235
405.5279	0.2248
405.7335	0.2191
405.9391	0.221
406.1447	0.2075
406.3502	0.2396
406.5558	0.2089
406.7613	0.2058
406.9668	0.2081
407.1724	0.2145
407.3778	0.2035
407.5833	0.2076
407.7888	0.2013
407.9942	0.2292
408.1997	0.1859
408.4051	0.2063
408.6105	0.2143
408.8159	0.2105
409.0213	0.1962
409.2267	0.2151
409.432	0.2192
409.6374	0.2244
409.8427	0.2103
410.048	0.2058
410.2533	0.2148
410.4586	0.2186
410.6639	0.1904
410.8691	0.1914
411.0744	0.1884
411.2796	0.1999
411.4848	0.2142
411.69	0.2094
411.8952	0.2294
412.1004	0.1987
412.3056	0.2157
412.5107	0.1957
412.7158	0.2291
412.921	0.2092
413.1261	0.1961
413.3312	0.1938
413.5362	0.1918
413.7413	0.2038
413.9464	0.2247
414.1514	0.2148
414.3564	0.2222
414.5614	0.1896
414.7664	0.2096
414.9714	0.1946
415.1764	0.2166
415.3813	0.2209
415.5863	0.2098
415.7912	0.2199
415.9961	0.201
416.201	0.2016
416.4059	0.2178
416.6108	0.2061
416.8156	0.2142
417.0205	0.2113
417.2253	0.1899
417.4301	0.2066
417.6349	0.1879
417.8397	0.2082
418.0445	0.2305
418.2492	0.2043
418.454	0.2243
418.6587	0.1946
418.8634	0.2054
419.0681	0.1897
419.2728	0.2128
419.4775	0.1981
419.6822	0.1804
419.8868	0.1822
420.0915	0.1995
420.2961	0.1885
420.5007	0.2063
420.7053	0.1901
420.9099	0.1819
421.1144	0.1947
421.319	0.1893
421.5235	0.1866
421.728	0.1885
421.9325	0.1842
422.137	0.2073
422.3415	0.178
422.546	0.1791
422.7504	0.1725
422.9549	0.1924
423.1593	0.188
423.3637	0.1878
423.5681	0.1734
423.7725	0.1731
423.9769	0.1926
424.1812	0.1608
424.3856	0.1834
424.5899	0.1726
424.7942	0.1758
424.9985	0.1697
425.2028	0.1754
425.4071	0.1955
425.6113	0.1628
425.8156	0.1887
426.0198	0.1907
426.224	0.1625
426.4282	0.1869
426.6324	0.1711
426.8366	0.1685
427.0407	0.1736
427.2449	0.1694
427.449	0.1721
427.6531	0.1764
427.8572	0.1409
428.0613	0.1556
428.2654	0.1927
428.4694	0.1505
428.6735	0.1618
428.8775	0.1611
429.0815	0.1719
429.2855	0.1517
429.4895	0.1535
429.6935	0.1628
429.8975	0.1501
430.1014	0.1517
430.3053	0.141
430.5093	0.1333
430.7132	0.1557
430.9171	0.1458
431.1209	0.1495
431.3248	0.1386
431.5286	0.1399
431.7325	0.1335
431.9363	0.1224
432.1401	0.146
432.3439	0.1361
432.5477	0.115
432.7514	0.1112
432.9552	0.1425
433.1589	0.1094
433.3627	0.1204
433.5664	0.1198
433.7701	0.1041
433.9737	0.1199
434.1774	0.1151
434.3811	0.1202
434.5847	0.1201
434.7883	0.1203
434.9919	0.096
435.1955	0.1174
435.3991	0.1034
435.6027	0.118
435.8062	0.1019
436.0098	0.0931
436.2133	0.0997
436.4168	0.0956
436.6203	0.0853
436.8238	0.0927
437.0272	0.1003
437.2307	0.092
437.4341	0.1174
437.6375	0.1062
437.841	0.0831
438.0443	0.1012
438.2477	0.0966
438.4511	0.0836
438.6545	0.0909
438.8578	0.0817
439.0611	0.0825
439.2644	0.0968
439.4677	0.0766
439.671	0.0703
439.8743	0.0911
440.0775	0.091
440.2808	0.08
440.484	0.0728
440.6872	0.0498
440.8904	0.0626
441.0936	0.0864
441.2967	0.0683
441.4999	0.0662
441.703	0.068
441.9062	0.0653
442.1093	0.0707
442.3124	0.0701
442.5155	0.0458
442.7185	0.0531
442.9216	0.0416
443.1246	0.0614
443.3276	0.0583
443.5307	0.0477
443.7337	0.0536
443.9366	0.0619
444.1396	0.0549
444.3426	0.0596
444.5455	0.0564
444.7484	0.0637
444.9513	0.0489
445.1542	0.058
445.3571	0.0663
445.56	0.0588
445.7628	0.0434
445.9657	0.043
446.1685	0.0604
446.3713	0.0499
446.5741	0.0391
446.7769	0.0304
446.9797	0.0519
447.1824	0.0464
447.3852	0.0356
447.5879	0.0525
447.7906	0.0382
447.9933	0.0321
448.196	0.0322
448.3986	0.0241
448.6013	0.0337
448.8039	0.023
449.0066	0.0307
449.2092	0.0361
449.4118	0.0458
449.6143	0.0425
449.8169	0.0363
450.0195	0.0156
450.222	0.0177
450.4245	0.0258
450.627	0.0249
450.8295	0.0292
451.032	0.022
451.2345	0.0215
451.4369	0.0202
451.6394	0.0388
451.8418	0.0042
452.0442	0.0178
452.2466	0.0401
452.449	0.0169
452.6513	0.0255
452.8537	0.0212
453.056	0.0164
453.2583	0.0223
453.4607	0.0193
453.663	0.0066
453.8652	0.0295
454.0675	0.0025
454.2697	0.0262
454.472	0.0101
454.6742	0.0311
454.8764	0.0077
455.0786	0.0193
455.2808	0.0226
455.4829	0.0112
455.6851	0.0231
455.8872	0.0212
456.0893	0.0144
456.2915	0.0196
456.4935	0.0306
456.6956	0.0124
456.8977	0.0128
457.0997	-0.0052
457.3018	0.0066
457.5038	0.0119
457.7058	0.0113
457.9078	0.0033
458.1098	0.0179
458.3117	0.0067
458.5137	0.0185
458.7156	0.0128
458.9175	-0.0015
459.1194	0.0102
459.3213	0.0017
459.5232	-0.0027
459.725	-0.0064
459.9269	0.0204
460.1287	-0.0012
460.3305	0.0219
460.5323	0.0207
460.7341	0.0091
460.9359	0.0124
461.1376	0.0029
461.3394	-0.0001
461.5411	0.0074
461.7428	-0.0029
461.9445	0.0135
462.1462	0.015
462.3479	-0.0149
462.5495	0.0043
462.7512	0.0081
462.9528	0.0008
463.1544	0.0013
463.356	-0.0028
463.5576	0.0114
463.7592	-0.0013
463.9607	0.0148
464.1623	0.0123
464.3638	0.0238
464.5653	-0.0015
464.7668	-0.0069
464.9683	0.0099
465.1697	0.0188
465.3712	0.0019
465.5726	-0.0033
465.7741	-0.0024
465.9755	-0.0068
466.1769	-0.0077
466.3782	0.0009
466.5796	-0.0123
466.7809	0.0204
466.9823	-0.0006
467.1836	-0.0009
467.3849	-0.0027
467.5862	0.0023
467.7875	0.0063
467.9887	0.0152
468.19	0.0075
468.3912	-0.0133
468.5924	0.0027
468.7936	0.0049
468.9948	0.0045
469.196	0.0007
469.3972	-0.0101
469.5983	0.002
469.7994	-0.0117
470.0006	-0.0026
470.2017	-0.0099
470.4027	0.0162
470.6038	0.0085
470.8049	-0.0092
471.0059	-0.009
471.2069	-0.02
471.408	0.0259
471.6089	0.0127
471.8099	-0.0074
472.0109	0.0116
472.2119	-0.0132
472.4128	-0.0076
472.6137	-0.001
472.8146	-0.006
473.0155	-0.0113
473.2164	-0.0026
473.4173	0.011
473.6181	0.013
473.819	0.0119
474.0198	-0.0081
474.2206	-0.0039
474.4214	-0.0019
474.6222	0.0043
474.8229	-0.0118
475.0237	-0.0079
475.2244	-0.0166
475.4251	-0.0038
475.6258	0.0014
475.8265	-0.0021
476.0272	0.0055
476.2278	-0.0046
476.4285	0.0028
476.6291	-0.0087
476.8297	-0.0061
477.0303	0.0013
477.2309	0.0052
477.4315	-0.0179
477.632	-0.0035
477.8326	-0.012
478.0331	-0.0012
478.2336	-0.0025
478.4341	0.006
478.6346	-0.0037
478.8351	-0.0036
479.0355	-0.0025
479.236	-0.0046
479.4364	0.0011
479.6368	0.0076
479.8372	-0.0096
480.0376	-0.0024
480.2379	-0.0164
480.4383	-0.0074
480.6386	0.0014
480.8389	-0.002
481.0392	-0.0087
481.2395	0.0001
481.4398	0.004
481.6401	0.0091
481.8403	-0.0009
482.0405	-0.0094
482.2408	-0.0062
482.441	0.0038
482.6411	0.0021
482.8413	-0.0044
483.0415	-0.002
483.2416	-0.0096
483.4417	0.0015
483.6419	-0.0083
483.8419	0.0017
484.042	0.013
484.2421	0.0009
484.4422	0.01
484.6422	-0.0017
484.8422	0.0008
485.0422	-0.0099
485.2422	0.0053
485.4422	-0.0077
485.6422	-0.0074
485.8421	-0.0092
486.042	0.0016
486.242	-0.0058
486.4419	-0.0065
486.6417	-0.008
486.8416	-0.0009
487.0415	-0.0038
487.2413	-0.0107
487.4411	-0.0063
487.641	-0.0097
487.8408	0.0066
488.0405	-0.0124
488.2403	-0.0092
488.4401	0.0047
488.6398	-0.004
488.8395	-0.0048
489.0392	0.0001
489.2389	-0.0022
489.4386	-0.0135
489.6383	0.0054
489.8379	0.0075
490.0376	0.0037
490.2372	-0.0056
490.4368	-0.0098
490.6364	-0.0163
490.836	-0.0021
491.0355	0.0011
491.2351	0.0029
491.4346	-0.0025
491.6341	-0.0002
491.8336	-0.0029
492.0331	-0.011
492.2326	-0.0126
492.432	-0.0037
492.6315	-0.0075
492.8309	-0.0105
493.0303	-0.0026
493.2297	0.0002
493.4291	-0.0017
493.6284	-0.0028
493.8278	0.0001
494.0271	-0.0115
494.2264	0.0053
494.4257	-0.0125
494.625	0.0045
494.8243	-0.0164
495.0236	-0.0028
495.2228	-0.0118
495.422	-0.0041
495.6213	-0.0044
495.8205	0.0003
496.0196	-0.0073
496.2188	-0.0038
496.418	-0.0156
496.6171	-0.0054
496.8162	-0.0047
497.0153	0.006
497.2144	-0.0028
497.4135	0.003
497.6126	-0.0133
497.8116	0.0032
498.0107	0.0045
498.2097	-0.0122
498.4087	-0.015
498.6077	0.0047
498.8067	-0.0071
499.0056	0.0043
499.2046	-0.0033
499.4035	-0.0217
499.6024	0.0002
499.8013	-0.0017
500.0002	-0.0087
500.199	-0.0122
500.3979	-0.0069
500.5967	-0.0226
500.7956	0.0005
500.9944	-0.0027
501.1932	0.0049
501.3919	-0.0152
501.5907	-0.0076
501.7895	0.0016
501.9882	-0.011
502.1869	-0.0096
502.3856	-0.0037
502.5843	-0.0086
502.783	-0.0102
502.9816	-0.0065
503.1803	-0.0033
503.3789	-0.0105
503.5775	-0.015
503.7761	-0.0082
503.9747	-0.0007
504.1732	-0.0151
504.3718	-0
504.5703	-0.0035
504.7689	-0.0033
504.9674	-0.0038
505.1658	-0.0087
505.3643	-0.0044
505.5628	0.0014
505.7612	-0.009
505.9597	0.0059
506.1581	-0.0029
506.3565	0.0077
506.5549	-0.0048
506.7532	-0.0103
506.9516	0.0045
507.1499	0.0027
507.3482	-0.0017
507.5465	-0.0105
507.7448	-0.0053
507.9431	-0.0033
508.1414	0.0023
508.3396	0.0026
508.5379	-0.0109
508.7361	-0.0031
508.9343	-0.0081
509.1325	-0.0039
509.3306	-0.0098
509.5288	-0.0045
509.7269	-0.0061
509.9251	-0.0022
510.1232	-0.008
510.3213	-0.0032
510.5193	0.0087
510.7174	-0.0205
510.9154	-0.0099
511.1135	-0.0173
511.3115	0.0022
511.5095	-0.0045
511.7075	-0.0053
511.9055	-0.003
512.1034	-0.0097
512.3014	-0.0099
512.4993	0.001
512.6972	-0.0106
512.8951	-0.0146
513.093	0.003
513.2908	0.0061
513.4887	-0.0059
513.6865	-0.0031
513.8844	-0.002
514.0822	-0.0044
514.2799	-0.0091
514.4777	-0.006
514.6755	-0
514.8732	-0.012
515.0709	-0.0031
515.2687	-0.0022
515.4664	-0.0063
515.664	-0.0038
515.8617	-0.0064
516.0594	-0.0208
516.257	-0.0039
516.4546	-0.0129
516.6522	0.0049
516.8498	-0.0013
517.0474	-0.0013
517.2449	0.0034
517.4425	-0.0093
517.64	-0.0024
517.8375	0.0063
518.035	-0.0028
518.2325	-0.0055
518.43	-0.0167
518.6274	-0.0095
518.8249	-0.0239
519.0223	-0.0019
519.2197	-0.0044
519.4171	-0.0064
519.6145	-0.0045
519.8118	-0.0082
520.0092	0.0046
520.2065	-0.0088
520.4038	-0.0137
520.6011	0
520.7984	-0.0152
520.9956	-0.0032
521.1929	-0.0017
521.3901	0.0019
521.5874	0.0004
521.7846	-0.0033
521.9818	-0.0158
522.1789	0.0001
522.3761	-0.0012
522.5732	-0.0084
522.7704	-0.0042
522.9675	-0.0013
523.1646	-0.0159
523.3617	-0.0072
523.5587	-0.0033
523.7558	-0.0035
523.9528	-0.0054
524.1498	-0.0065
524.3468	-0.0031
524.5438	-0.0021
524.7408	-0.0052
524.9378	0.0033
525.1347	-0.0039
525.3316	-0.0141
525.5285	-0.0034
525.7254	-0
525.9223	-0.0128
526.1192	-0.0008
526.316	-0.0066
526.5129	0.0065
526.7097	-0.0086
526.9065	-0.0032
527.1033	-0.0029
527.3	-0.0023
527.4968	0.0025
527.6935	-0.0028
527.8903	-0.0056
528.087	0.0013
528.2837	-0.0115
528.4804	0.0022
528.677	-0.0071
528.8737	0.0055
529.0703	0.005
529.2669	-0.0023
529.4635	-0.0042
529.6601	-0.0018
529.8567	-0.0006
530.0532	-0.0144
530.2498	0.0021
530.4463	0.0048
530.6428	-0.0055
530.8393	-0.0037
531.0358	-0.0118
531.2322	0.0031
531.4287	-0.0022
531.6251	-0.0144
531.8215	0.0007
532.0179	-0.0038
532.2143	0.0106
532.4107	-0.0052
532.607	-0.0175
532.8034	-0.0029
532.9997	-0.0015
533.196	0.0064
533.3923	-0.0007
533.5886	-0.0049
533.7848	0.0011
533.9811	0.0039
534.1773	-0.0003
534.3735	-0.0019
534.5697	-0.0116
534.7659	0.0031
534.9621	0.0012
535.1582	-0.0024
535.3544	-0.0035
535.5505	-0.0067
535.7466	-0.0094
535.9427	0.0004
536.1387	-0.0137
536.3348	-0.0018
536.5308	0.0032
536.7269	-0.0027
536.9229	-0.0022
537.1189	-0.012
537.3148	-0.0053
537.5108	-0.0005
537.7068	0.0009
537.9027	0.0009
538.0986	-0.0026
538.2945	-0.015
538.4904	0.0001
538.6863	-0.0115
538.8821	-0.0044
539.078	-0.0027
539.2738	0.0051
539.4696	-0.0051
539.6654	0.0058
539.8611	0.0107
540.0569	-0.0071
540.2526	-0.0004
540.4484	0.0053
540.6441	0.007
540.8398	-0.0035
541.0355	-0.0019
541.2311	-0.0012
541.4268	-0.0085
541.6224	0.0106
541.818	0.0032
542.0136	0.0042
542.2092	-0.0072
542.4048	0.0007
542.6003	-0.0041
542.7959	-0.0045
542.9914	0
543.1869	0.0082
543.3824	-0.0083
543.5779	-0.0015
543.7734	-0.0081
543.9688	-0.0137
544.1642	0.0062
544.3596	0.0031
544.555	-0.0095
544.7504	-0.0053
544.9458	-0.0144
545.1411	0.0048
545.3365	-0.0018
545.5318	-0.0022
545.7271	-0.0045
545.9224	-0.0065
546.1177	-0.0005
546.3129	0.0134
546.5081	-0.0091
546.7034	-0.009
546.8986	-0.0117
547.0938	-0.0054
547.289	-0.0073
547.4841	0.0056
547.6793	0.0045
547.8744	-0.0073
548.0695	-0.0071
548.2646	-0.0043
548.4597	-0.003
548.6548	-0.0013
548.8498	-0.0039
549.0448	0.0074
549.2399	-0.0063
549.4349	0.0094
549.6298	0.0078
549.8248	0.0042
550.0198	-0.0007
550.2147	-0.0019
550.4096	-0.0025
550.6045	-0.0067
550.7994	0.0071
550.9943	-0.0019
551.1892	-0.0051
551.384	0.0075
551.5788	-0.0029
551.7737	0.0108
551.9685	0.0002
552.1632	0.0086
552.358	-0.0048
552.5528	-0.0048
552.7475	0.0024
552.9422	0.0004
553.1369	0.0021
553.3316	0.0064
553.5263	-0.0021
553.7209	0.0069
553.9156	-0.0052
554.1102	0.0001
554.3048	-0.0045
554.4994	0.0057
554.694	-0.0007
554.8885	0.0063
555.0831	0.0001
555.2776	-0.0044
555.4721	0.0004
555.6666	-0.0017
555.8611	0.008
556.0555	-0.0081
556.25	0.0008
556.4444	-0.0087
556.6388	0.0008
556.8332	0.0034
557.0276	-0.0054
557.222	0.0009
557.4163	-0.0034
557.6107	-0.0045
557.805	0.0094
557.9993	-0.0019
558.1936	-0.0017
558.3879	0.0094
558.5821	-0.0021
558.7764	-0.0041
558.9706	-0.0019
559.1648	0.0019
559.359	-0.0083
559.5532	-0.0001
559.7473	0.0078
559.9415	0.0014
560.1356	0.0008
560.3297	-0.0132
560.5238	-0.0095
560.7179	-0.0022
560.9119	-0.0047
561.106	-0.0059
561.3	-0.0034
561.494	0.0022
561.688	-0.007
561.882	-0.0122
562.076	-0.0089
562.2699	0.0051
562.4639	-0.0045
562.6578	-0.0034
562.8517	0.0036
563.0456	0.0006
563.2395	0.0058
563.4333	0.0002
563.6272	0.0036
563.821	-0.0023
564.0148	0.0063
564.2086	-0.005
564.4024	-0.0015
564.5961	-0.01
564.7899	0.0092
564.9836	-0.0032
565.1773	0.0072
565.371	0.0095
565.5647	0.0074
565.7584	0.0046
565.952	-0.0022
566.1456	0.0003
566.3393	0.0018
566.5329	-0.0018
566.7264	0.0008
566.92	-0.0002
567.1136	-0
567.3071	0.002
567.5006	0.0071
567.6941	0.0088
567.8876	-0.0015
568.0811	-0.0042
568.2745	0.0002
568.468	0.0112
568.6614	0.0105
568.8548	0.0006
569.0482	-0.0034
569.2416	-0.0003
569.4349	-0.0005
569.6283	0.0052
569.8216	-0.0073
570.0149	0.009
570.2082	0.0122
570.4015	0.0108
570.5947	0.0035
570.788	0.0126
570.9812	0.0034
571.1744	-0.0035
571.3676	-0.0019
571.5608	-0.002
571.754	-0.0007
571.9471	0.0069
572.1402	-0.0058
572.3333	0.0007
572.5264	-0.0073
572.7195	0.0017
572.9126	0.0035
573.1057	0.0024
573.2987	0.0016
573.4917	0.0059
573.6847	-0.0091
573.8777	0.0046
574.0707	0.0035
574.2636	0.0008
574.4566	-0.0035
574.6495	0.0039
574.8424	-0.0006
575.0353	-0.003
575.2281	0.0125
575.421	0.0041
575.6138	0.0047
575.8067	-0.0023
575.9995	0.0056
576.1923	0.0051
576.385	0.0072
576.5778	0.0055
576.7706	0.0001
576.9633	0.0001
577.156	0.003
577.3487	0.0028
577.5414	0.0024
577.734	0.0012
577.9267	0.002
578.1193	-0.007
578.3119	-0.0072
578.5045	0.0024
578.6971	-0.0008
578.8897	0.0089
579.0822	-0.0031
579.2747	0.0078
579.4673	-0.0072
579.6598	0.0035
579.8522	-0.0009
580.0447	-0.0035
580.2372	0.0013
580.4296	0.0064
580.622	-0.0065
580.8144	0.0022
581.0068	-0.0014
581.1992	-0.014
581.3915	-0.0049
581.5839	-0.0076
581.7762	-0.0083
581.9685	-0.0023
582.1608	0.0036
582.353	-0.0057
582.5453	-0.0001
582.7375	0.0067
582.9298	-0
583.122	0.0053
583.3142	0.0028
583.5063	0.0025
583.6985	-0.0003
583.8906	0.0057
584.0827	-0.0025
584.2749	0.0073
584.4669	0.0028
584.659	0.0011
584.8511	-0.0017
585.0431	-0.0005
585.2352	0.0072
585.4272	0.0074
585.6192	0.0062
585.8111	-0.0041
586.0031	0.0006
586.195	-0.0026
586.387	0.0042
586.5789	-0
586.7708	0.0011
586.9627	0.0038
587.1545	-0.0069
587.3464	0.0014
587.5382	0.0059
587.73	0.0073
587.9218	0.014
588.1136	0.0034
588.3053	0.0061
588.4971	-0.0026
588.6888	-0.0089
588.8805	0.0041
589.0722	-0.0035
589.2639	-0.0036
589.4556	-0.002
589.6472	0.0006
589.8389	-0.0064
590.0305	-0.0055
590.2221	0.003
590.4137	-0.0047
590.6052	0.0036
590.7968	0.002
590.9883	-0.0013
591.1798	0.0023
591.3713	-0.0024
591.5628	0.0052
591.7543	0.0027
591.9458	0.0031
592.1372	0.005
592.3286	0.0048
592.52	0.0047
592.7114	-0.0032
592.9028	-0.0004
593.0941	0
593.2855	0.0098
593.4768	-0.0069
593.6681	-0.0056
593.8594	0.0002
594.0506	0.0009
594.2419	0.0116
594.4331	0.0032
594.6244	0.0026
594.8156	-0.0095
595.0067	0.0033
595.1979	0.0031
595.3891	0.0009
595.5802	-0.004
595.7713	-0.0067
595.9624	0.0009
596.1535	0.0013
596.3446	0.0062
596.5357	0.0008
596.7267	0.0098
596.9177	-0.0017
597.1087	-0.01
597.2997	-0.0033
597.4907	0.0001
597.6817	-0.0047
597.8726	0.0018
598.0635	0.003
598.2544	-0.0002
598.4453	0.0053
598.6362	0.0001
598.827	-0.0018
599.0179	0.0036
599.2087	-0.0022
599.3995	0.0006
599.5903	0.0065
599.7811	0.0006
599.9718	-0.0026
600.1626	-0.0027
600.3533	0.0009
600.544	0.0043
600.7347	-0.0044
600.9254	0.0025
601.116	-0.0074
601.3067	-0.0008
601.4973	0.0036
601.6879	0.008
601.8785	-0.0086
602.0691	0.0077
602.2596	0.0034
602.4502	0.0014
602.6407	0.0033
602.8312	0.0025
603.0217	-0.0032
603.2122	0.0047
603.4027	0.0042
603.5931	-0.0019
603.7835	0.001
603.9739	-0.0003
604.1643	-0.0001
604.3547	-0.0058
604.5451	0.0069
604.7354	-0.0001
604.9257	-0.002
605.116	-0.0028
605.3063	0.0043
605.4966	0.0035
605.6869	0.0062
605.8771	0.0074
606.0673	0.0112
606.2575	0.0148
606.4477	0.0072
606.6379	0.0059
606.8281	0.0021
607.0182	-0.002
607.2083	0.0036
607.3985	-0.0036
607.5885	-0.0007
607.7786	0.0055
607.9687	-0.0053
608.1587	0.0072
608.3488	0.0057
608.5388	0.0014
608.7288	-0.0003
608.9187	-0.0021
609.1087	-0.0033
609.2986	-0.0091
609.4886	-0.0013
609.6785	0.0012
609.8684	0.0101
610.0582	0.006
610.2481	0.0075
610.4379	0.0001
610.6278	-0.0036
610.8176	0.0051
611.0074	-0.0076
611.1971	-0.005
611.3869	0.0009
611.5766	-0.0026
611.7664	0.0063
611.9561	0.0028
612.1458	0.0063
612.3354	-0.0053
612.5251	0.0001
612.7147	0.0024
612.9044	0.0085
613.094	-0.0038
613.2836	0.0082
613.4731	0.0055
613.6627	-0.0026
613.8522	0.0124
614.0417	0.0081
614.2313	0.0007
614.4207	-0.0063
614.6102	-0.0013
614.7997	0.0026
614.9891	-0.0066
615.1785	-0.0009
615.3679	-0.0021
615.5573	0.0088
615.7467	-0.0009
615.9361	-0.0028
616.1254	0.0003
616.3147	0.0059
616.504	0.0043
616.6933	0.0033
616.8826	0.0072
617.0718	0.0053
617.2611	0.0036
617.4503	-0.0036
617.6395	-0.0041
617.8287	-0.0013
618.0179	0.0015
618.207	0.0081
618.3961	0.0006
618.5853	0.0009
618.7744	0.0023
618.9634	0.0021
619.1525	0.0009
619.3416	-0.0016
619.5306	0.0046
619.7196	0.0067
619.9086	-0.0002
620.0976	0.0081
620.2866	0.0017
620.4755	0.0067
620.6645	0.0062
620.8534	0.0095
621.0423	0.0044
621.2312	0.0055
621.42	-0.0001
621.6089	0.0026
621.7977	0.0025
621.9865	-0.0022
622.1753	0.0016
622.3641	-0.0006
622.5529	0.0131
622.7416	0.014
622.9303	-0.0017
623.1191	0.0157
623.3078	-0.0018
623.4964	0.0028
623.6851	-0.0037
623.8737	-0.0032
624.0624	0.0074
624.251	0.0023
624.4396	-0.0009
624.6282	-0.0035
624.8167	-0.0084
625.0053	0.0088
625.1938	0.0058
625.3823	-0.0057
625.5708	-0.0017
625.7593	-0.0014
625.9477	-0.0004
626.1362	-0.001
626.3246	0.0011
626.513	0.0029
626.7014	0.0059
626.8898	-0.005
627.0781	0.0022
627.2665	0.0034
627.4548	0.0061
627.6431	0.0053
627.8314	0.0018
628.0197	0.0078
628.2079	-0.0044
628.3962	-0.0017
628.5844	-0.0001
628.7726	-0.0033
628.9608	0.013
629.1489	0.002
629.3371	0.0074
629.5252	0.0063
629.7134	0.0031
629.9015	0.0013
630.0895	-0.0016
630.2776	0.0083
630.4657	0.0015
630.6537	0.0045
630.8417	0.0033
631.0297	-0.0029
631.2177	-0.0014
631.4057	-0.0062
631.5936	-0.003
631.7815	0.0048
631.9695	0.0033
632.1574	0.0052
632.3452	0.0093
632.5331	-0.0001
632.7209	0.0005
632.9088	0.0032
633.0966	0.0094
633.2844	-0.0005
633.4722	0.005
633.6599	0.0078
633.8477	0.0015
634.0354	0.0052
634.2231	0.0054
634.4108	0.0049
634.5985	0.0064
634.7861	0.0054
634.9738	0.0026
635.1614	0.0081
635.349	0.0079
635.5366	0.0019
635.7242	0.0084
635.9117	0.0093
636.0993	-0.0024
636.2868	0.0114
636.4743	0.0058
636.6618	0.0133
636.8492	0.0013
637.0367	0.0063
637.2241	0.0084
637.4115	-0.0005
637.5989	0.0037
637.7863	0.0017
637.9737	-0.0024
638.161	-0.0023
638.3484	0.0001
638.5357	0.0073
638.723	0.0003
638.9103	0.0003
639.0975	-0.0005
639.2848	0.0041
639.472	-0.0021
639.6592	0.005
639.8464	0.0068
640.0336	0.0035
640.2208	-0.0006
640.4079	-0.0001
640.595	-0.0021
640.7821	-0.0005
640.9692	0.0055
641.1563	-0.0006
641.3434	0.0048
641.5304	0.0001
641.7174	0.0051
641.9044	-0.0046
642.0914	0.0083
642.2784	0.0031
642.4653	0.007
642.6523	0.0004
642.8392	0.0003
643.0261	0.0062
643.213	0.0044
643.3999	-0.007
643.5867	0.0034
643.7735	0.0055
643.9604	0.0027
644.1472	0.0025
644.3339	0.0033
644.5207	0.0085
644.7075	-0.0013
644.8942	-0.0006
645.0809	0.0176
645.2676	0.0053
645.4543	0.008
645.6409	0.0075
645.8276	0.0028
646.0142	0.0089
646.2008	0.0031
646.3874	-0.0031
646.574	0.0021
646.7605	-0.0085
646.9471	-0.0063
647.1336	0.0019
647.3201	0.0015
647.5066	-0.0013
647.6931	0.0048
647.8795	0.0051
648.0659	0.0024
648.2524	0.0082
648.4388	0.0031
648.6252	0.0069
648.8115	0.0034
648.9979	0.0019
649.1842	0.0031
649.3705	0.0063
649.5568	0.0129
649.7431	0.0028
649.9294	-0.0005
650.1156	0.0068
650.3018	-0.0051
650.488	0.0028
650.6742	-0.0024
650.8604	0.0028
651.0466	-0.0057
651.2327	0.003
651.4188	0.0008
651.6049	-0.006
651.791	-0.0021
651.9771	0.0058
652.1632	0.0068
652.3492	0.0089
652.5352	-0.001
652.7212	0.0038
652.9072	0.0075
653.0932	0.0034
653.2791	-0.0003
653.465	0.007
653.651	0.0022
653.8369	0.0049
654.0227	0.0068
654.2086	0.005
654.3944	-0.0014
654.5803	0.0056
654.7661	0.0018
654.9519	0.0081
655.1377	-0.0021
655.3234	-0.0009
655.5092	-0.0065
655.6949	-0.0019
655.8806	-0.0043
656.0663	-0.0012
656.2519	-0.0047
656.4376	-0.0018
656.6232	0.0104
656.8088	0.004
656.9945	0.0045
657.18	0.0046
657.3656	0.0065
657.5511	-0.0057
657.7367	-0.001
657.9222	0.0089
658.1077	-0.0014
658.2932	0.0017
658.4786	-0.0101
658.6641	-0.0042
658.8495	-0.0044
659.0349	-0.0018
659.2203	-0.0006
659.4057	0.0066
659.591	-0.0006
659.7764	-0.0009
659.9617	-0.002
660.147	-0.0015
660.3323	0.0009
660.5176	0.0089
660.7028	0.0052
660.888	-0.0001
661.0733	0.0035
661.2585	0.0007
661.4436	0.001
661.6288	-0.0005
661.8139	0.0013
661.9991	0.0068
662.1842	0.0031
662.3693	0.0019
662.5544	-0.0024
662.7394	-0.0019
662.9245	-0.0014
663.1095	-0.0011
663.2945	-0
663.4795	-0.0034
663.6644	0.0041
663.8494	0.0015
664.0343	0.0039
664.2193	-0.0101
664.4042	0.0041
664.589	-0.0005
664.7739	-0.0034
664.9587	-0.0022
665.1436	-0.0059
665.3284	0.0066
665.5132	0.0014
665.698	-0.0034
665.8827	0.006
666.0675	-0.0046
666.2522	-0.0088
666.4369	0.0026
666.6216	0.0038
666.8063	0.0018
666.9909	0.0017
667.1756	-0.0044
667.3602	0.0039
667.5448	-0.0015
667.7294	0.0103
667.9139	0.0064
668.0985	0.0105
668.283	0.0075
668.4675	-0.0019
668.652	0.0028
668.8365	-0.0003
669.0209	0.0149
669.2054	0.0108
669.3898	0.0041
669.5742	0.0064
669.7586	0.0084
669.943	0.009
670.1273	0.0056
670.3117	0.0061
670.496	0.006
670.6803	0.0191
670.8646	0.0049
671.0488	0.0039
671.2331	0.0028
671.4173	0.0022
671.6015	0.0004
671.7857	0.0018
671.9699	0.007
672.1541	0.006
672.3382	0.0055
672.5223	0.0086
672.7064	0.0042
672.8905	0.0107
673.0746	-0.0041
673.2587	0.0018
673.4427	0.0078
673.6267	0.0071
673.8107	0.0082
673.9947	0.006
674.1787	0.002
674.3626	-0.002
674.5465	0.0128
674.7304	0.0028
674.9143	0.001
675.0982	0.0131
675.2821	-0.0015
675.4659	0.0124
675.6497	0.0012
675.8335	0.0041
676.0173	0.0025
676.2011	-0.0001
676.3849	0.0047
676.5686	-0.0023
676.7523	-0.0014
676.936	-0.0036
677.1197	-0.0037
677.3034	-0.0062
677.487	0.0054
677.6706	0.0038
677.8542	0.0102
678.0378	0.0023
678.2214	-0.0045
678.405	0.0029
678.5885	-0.0075
678.772	0.0017
678.9555	-0.004
679.139	-0.0048
679.3225	0.0035
679.5059	-0.0003
679.6894	0.0012
679.8728	0.0015
680.0562	-0.0037
680.2395	-0.0042
680.4229	0.0022
680.6062	0.0112
680.7896	0.0047
680.9729	-0.0041
681.1562	0.0029
681.3394	0.0119
681.5227	-0.0027
681.7059	0.0078
681.8891	0.0013
682.0723	0.0042
682.2555	0.0034
682.4387	0.0044
682.6218	-0.0025
682.805	0.0057
682.9881	0.0021
683.1712	0.0034
683.3542	0.0026
683.5373	0.0104
683.7203	-0.0052
683.9034	0.0004
684.0864	-0.0078
684.2694	-0.0005
684.4523	0.0068
684.6353	-0.0029
684.8182	0.0046
685.0011	-0.0112
685.184	0.0008
685.3669	-0.0046
685.5498	0.0037
685.7326	0.002
685.9154	-0.0077
686.0982	0.0044
686.281	0.006
686.4638	0.0058
686.6465	-0.0021
686.8293	-0.0015
687.012	-0.0017
687.1947	-0.0081
687.3774	-0.0036
687.56	0.0017
687.7427	0.001
687.9253	-0.0065
688.1079	0.0029
688.2905	-0.0011
688.4731	0.0042
688.6556	0.0028
688.8382	-0.0002
689.0207	0.0057
689.2032	-0.0056
689.3857	0.0005
689.5681	0.0053
689.7506	-0.002
689.933	-0.0037
690.1154	-0.0061
690.2978	0.0017
690.4802	0.0038
690.6626	-0.0137
690.8449	0.0016
691.0272	0.0099
691.2095	-0.0025
691.3918	0.0003
691.5741	-0.0041
691.7563	0.0037
691.9386	0.0006
692.1208	0.0043
692.303	0.0079
692.4852	0.002
692.6673	-0.0004
692.8495	0.0047
693.0316	0.0064
693.2137	0.0079
693.3958	0.0047
693.5778	0.001
693.7599	-0.0007
693.9419	0.0023
694.1239	-0.0036
694.3059	-0.0045
694.4879	0.007
694.6699	0.0062
694.8518	0.0075
695.0337	0.0063
695.2157	0.0047
695.3975	0.0019
695.5794	0.0076
695.7613	0.0131
695.9431	-0.0014
696.1249	0.0059
696.3067	0.0087
696.4885	0.0137
696.6703	-0.0047
696.852	0.0082
697.0337	0.0123
697.2154	0.0049
697.3971	-0.0011
697.5788	0.0004
697.7605	0.0044
697.9421	0.0049
698.1237	-0.0021
698.3053	0.0001
698.4869	0.0041
698.6685	0.0022
698.85	0.007
699.0315	0.0099
699.213	0.0042
699.3945	-0.0005
699.576	0.0031
699.7575	0.005
699.9389	0.0063
700.1203	-0.0006
700.3017	-0.0034
700.4831	-0.001
700.6645	0.001
700.8458	0.0043
701.0271	0.0019
701.2084	0.0053
701.3897	0.0086
701.571	0.0041
701.7523	-0.0065
701.9335	0.0027
702.1147	0.0009
702.2959	0.0029
702.4771	0.0033
702.6583	0.0049
702.8394	-0.0033
703.0205	0.0043
703.2016	0.0027
703.3827	0.0027
703.5638	0.0044
703.7449	0.0061
703.9259	0.009
704.1069	0.0058
704.2879	0.0028
704.4689	0.0045
704.6499	0.0024
704.8308	0.0016
705.0117	0.0005
705.1927	0.001
705.3735	-0.0007
705.5544	-0.0055
705.7353	-0.0011
705.9161	-0.0066
706.0969	-0.0014
706.2777	0.0058
706.4585	0.0054
706.6393	0.002
706.82	-0.007
707.0007	0.0035
707.1815	0.0029
707.3621	0.0039
707.5428	-0.0024
707.7235	0.0045
707.9041	0.0061
708.0847	-0.0091
708.2653	-0.0066
708.4459	-0.0165
708.6265	-0.0005
708.807	-0.0027
708.9875	-0.0068
709.168	-0.0013
709.3485	-0.0124
709.529	-0.0083
709.7095	-0.01
709.8899	0.0022
710.0703	-0.0071
710.2507	-0.0024
710.4311	0.0002
710.6115	-0.0183
710.7918	-0.0028
710.9721	0.0028
711.1524	-0.0039
711.3327	0.0044
711.513	0.005
711.6932	0.0052
711.8735	0.0164
712.0537	0.0126
712.2339	0.0057
712.4141	-0.0018
712.5942	0.001
712.7744	0.0076
712.9545	-0.0033
713.1346	-0.0005
713.3147	-0.0033
713.4947	-0.0047
713.6748	0.0012
713.8548	0.0017
714.0348	0.0006
714.2148	-0.0034
714.3948	0.0042
714.5748	-0.0003
714.7547	-0.001
714.9346	0.0096
715.1145	-0.0046
715.2944	-0.0016
715.4743	-0.005
715.6541	-0.0003
715.834	0.002
716.0138	-0.0026
716.1936	-0.0146
716.3733	0.0011
716.5531	0.0128
716.7328	-0.0024
716.9126	0.0038
717.0923	0.0095
717.2719	0.0103
717.4516	0.0188
717.6312	0.0042
717.8109	0.0025
717.9905	0.0124
718.1701	0.0037
718.3496	0.0029
718.5292	0.0066
718.7087	0.0041
718.8882	0.0086
719.0677	0.0073
719.2472	-0.0001
719.4267	0.0047
719.6061	0.0038
719.7856	0.0048
719.965	0.0031
720.1443	0.0007
720.3237	0.0159
720.5031	0.0081
720.6824	0.0079
720.8617	-0.0074
721.041	0.0007
721.2203	0.0079
721.3995	0.0052
721.5788	0.0069
721.758	0.0054
721.9372	-0.0017
722.1164	-0.0016
722.2956	-0.0007
722.4747	-0.0064
722.6538	0.0011
722.8329	0.0134
723.012	0.0016
723.1911	0.0031
723.3702	0.0027
723.5492	0.0179
723.7282	-0.0097
723.9072	-0.002
724.0862	-0.0001
724.2652	-0.0001
724.4441	-0.0053
724.623	-0.0017
724.8019	-0.0035
724.9808	0.0058
725.1597	-0.0157
725.3385	0.0115
725.5174	0.0018
725.6962	-0.0015
725.875	-0.0004
726.0538	0.003
726.2325	-0.0001
726.4112	0.0066
726.59	0.0024
726.7687	0.0001
726.9474	0.0042
727.126	0.0019
727.3047	-0.0021
727.4833	0.0027
727.6619	0.0027
727.8405	-0.0071
728.0191	-0.0056
728.1976	0.0071
728.3762	-0.003
728.5547	-0.0111
728.7332	-0.0059
728.9116	0.0056
729.0901	0.0027
729.2686	-0.0087
729.447	-0.0045
729.6254	-0.0009
729.8038	-0
729.9821	-0.0049
730.1605	0.0066
730.3388	-0.0016
730.5171	0.0039
730.6954	-0.0091
730.8737	0.003
731.0519	0.0015
731.2302	0.011
731.4084	0.0135
731.5866	0.0064
731.7648	0.0023
731.9429	-0.0033
732.1211	-0.0125
732.2992	-0.0028
732.4773	-0.0087
732.6554	-0.0059
732.8335	0.0057
733.0115	0.0051
733.1896	0.0059
733.3676	-0.0052
733.5456	0.0058
733.7235	0.0102
733.9015	0
734.0794	0.0038
734.2574	0.0021
734.4353	-0.0007
734.6131	0.0034
734.791	0.0038
734.9689	0.0081
735.1467	0.0001
735.3245	-0.0081
735.5023	-0.0062
735.68	0.0054
735.8578	-0.0007
736.0355	-0.0231
736.2132	-0.0058
736.3909	0.0002
736.5686	-0.0048
736.7463	0.0016
736.9239	-0.0032
737.1015	-0.0033
737.2791	-0.0019
737.4567	-0.0052
737.6343	-0.0072
737.8118	0.0058
737.9894	0.0008
738.1669	-0.0116
738.3444	0.0038
738.5218	0.0052
738.6993	0.0029
738.8767	0.0013
739.0541	0.0126
739.2315	-0.0131
739.4089	0.0051
739.5863	0.0083
739.7636	-0.0025
739.9409	-0.0007
740.1182	0.0077
740.2955	-0.0005
740.4728	-0.0008
740.65	0.0024
740.8272	-0.0039
741.0044	-0.0013
741.1816	-0.0037
741.3588	-0.0005
741.5359	0.0009
741.7131	-0.0074
741.8902	0.0064
742.0673	-0.0022
742.2444	0.0036
742.4214	-0.011
742.5985	-0.0041
742.7755	-0.0019
742.9525	-0.0147
743.1295	0.0064
743.3064	-0.0002
743.4834	0.0026
743.6603	-0.0026
743.8372	0.0012
744.0141	0.0016
744.191	0.0083
744.3678	0.0012
744.5446	-0.0003
744.7215	0.0067
744.8982	-0.0017
745.075	-0.0132
745.2518	0.0001
745.4285	-0.0028
745.6052	-0.0065
745.7819	-0.0102
745.9586	-0.0129
746.1353	-0.0086
746.3119	-0.0081
746.4885	-0.0159
746.6651	-0.0089
746.8417	-0.0106
747.0183	-0.0083
747.1948	-0.0083
747.3714	-0.0083
747.5479	-0.0063
747.7244	-0.0107
747.9008	0.0031
748.0773	-0.0068
748.2537	-0.0012
748.4301	-0.0104
748.6065	-0.004
748.7829	0.0036
748.9593	-0.0115
749.1356	-0.0072
749.3119	0.0079
749.4882	-0.0141
749.6645	0.0076
749.8408	-0.0036
750.017	-0.0058
750.1933	0.0001
750.3695	-0.007
750.5457	0.0097
750.7218	-0.0003
750.898	0.0041
751.0741	-0.0046
751.2502	-0.0028
751.4263	-0.0046
751.6024	0.0009
751.7784	0.0008
751.9545	-0.0066
752.1305	-0.0042
752.3065	-0.0049
752.4825	0.0021
752.6584	-0.0092
752.8344	-0.0007
753.0103	-0.0105
753.1862	-0.0091
753.3621	-0.0085
753.5379	-0.0055
753.7138	-0.0067
753.8896	-0.0066
754.0654	-0.0014
754.2412	0.0027
754.417	0.0063
754.5927	-0.0095
754.7685	0.003
754.9442	0.0044
755.1199	0.005
755.2956	0.0046
755.4712	0.0059
755.6469	0.0067
755.8225	-0.0037
755.9981	-0.0009
756.1736	0.0159
756.3492	0.0124
756.5248	0.0079
756.7003	0.0068
756.8758	0.0124
757.0513	-0.0024
757.2267	0.0006
757.4022	0.0079
757.5776	-0.0026
757.753	0.0084
757.9284	-0.0025
758.1038	0.0061
758.2791	-0.0073
758.4545	-0.0182
758.6298	-0.0037
758.8051	0.0039
758.9803	-0.0042
759.1556	-0.0056
759.3308	-0.0061
759.506	0.0055
759.6812	0.0076
759.8564	0.0056
760.0316	-0.0032
760.2067	0.0099
760.3819	0.0069
760.557	0.0187
760.732	0.0009
760.9071	-0.0067
761.0821	0.0012
761.2572	0.0113
761.4322	0.0023
761.6072	-0.0036
761.7821	-0.0072
761.9571	0.0043
762.132	-0.003
762.3069	-0.0208
762.4818	-0.0061
762.6567	-0.008
762.8316	-0.0012
763.0064	-0.0049
763.1812	-0.0072
763.356	-0.0103
763.5308	0.0004
763.7055	-0.0028
763.8803	-0.0128
764.055	-0.0046
764.2297	-0.0014
764.4044	-0.0015
764.579	-0.0071
764.7537	-0.0128
764.9283	-0
765.1029	-0.0122
765.2775	-0.0109
765.4521	-0.0073
765.6266	-0.0073
765.8011	-0.0083
765.9756	-0.001
766.1501	0.0044
766.3246	-0.0115
766.4991	-0.0094
766.6735	-0.0047
766.8479	-0.0144
767.0223	0.0102
767.1967	-0.0013
767.371	0.0046
767.5454	0.0005
767.7197	0.0048
767.894	-0.0086
768.0683	-0.0177
768.2425	-0.0083
768.4168	0.0003
768.591	-0.0003
768.7652	-0.0052
768.9394	-0.0013
769.1135	-0.0039
769.2877	0.0074
769.4618	0.0031
769.6359	-0.0088
769.81	-0.0041
769.984	-0.0038
770.1581	-0.0001
770.3321	0.007
770.5061	0.0052
770.6801	-0.0086
770.8541	0.0009
771.028	0.003
771.202	-0.0133
771.3759	0.0132
771.5498	-0.0051
771.7236	-0.0032
771.8975	0.0015
772.0713	0.0138
772.2451	0.0064
772.4189	-0.0017
772.5927	0.0105
772.7665	0.0015
772.9402	-0.0014
773.1139	0.0042
773.2876	-0.0038
773.4613	-0.0035
773.635	-0.0047
773.8086	-0.0148
773.9822	0.0053
774.1558	0.0089
774.3294	-0.0157
774.503	-0.0052
774.6765	-0.0003
774.8501	-0.0001
775.0236	-0.0064
775.1971	-0.003
775.3705	-0.011
775.544	0.0049
775.7174	-0.0061
775.8908	0.0004
776.0642	-0.005
776.2376	0.0007
776.4109	-0.011
776.5843	-0.0089
776.7576	-0.0048
776.9309	0.0011
777.1041	-0.0116
777.2774	0.0068
777.4506	0.0002
777.6238	-0.0078
777.797	0.0016
777.9702	0.0004
778.1434	0.0056
778.3165	-0.0166
778.4896	-0.0036
778.6627	-0.0036
778.8358	0.0058
779.0089	-0.0021
779.1819	-0.0017
779.3549	0.0104
779.5279	0.0098
779.7009	-0.0061
779.8739	0.0075
780.0468	-0.0112
780.2197	-0.0038
780.3926	-0.0114
780.5655	-0.0113
780.7384	-0.0011
780.9112	-0.0019
781.0841	-0.0095
781.2569	-0.0017
781.4297	0.0045
781.6024	-0.0044
781.7752	0.0053
781.9479	-0.0023
782.1206	-0.0018
782.2933	-0.0031
782.466	0.0076
782.6386	-0.0029
782.8113	-0.0046
782.9839	0.0093
783.1565	0.0154
783.329	0.0079
783.5016	0.0106
783.6741	0.0084
783.8466	0.0059
784.0191	0.0127
784.1916	-0.0013
784.3641	0.0015
784.5365	0.0097
784.7089	-0.0023
784.8813	-0.0119
785.0537	-0.0103
785.2261	-0.0054
785.3984	-0.027
785.5707	-0.0033
785.743	0.0011
785.9153	-0.0034
786.0876	0.0073
786.2598	-0.0137
786.432	-0.012
786.6042	0.0181
786.7764	-0.0033
786.9486	-0.0112
787.1207	-0.0095
787.2928	0.0002
787.4649	-0.0106
787.637	0.0009
787.8091	-0.0036
787.9811	-0.0063
788.1532	0.0129
788.3252	0.0198
788.4972	-0.0018
788.6691	0.0004
788.8411	0.003
789.013	-0.0235
789.1849	0.0076
789.3568	-0.0085
789.5287	0.0005
789.7005	0.0025
789.8723	-0.013
790.0442	0.0131
790.2159	0.0065
790.3877	0.0068
790.5595	-0.0117
790.7312	0.0158
790.9029	0.0051
791.0746	-0.0027
791.2463	-0.0126
791.4179	-0.0057
791.5896	-0.0137
791.7612	0.0015
791.9328	-0.0012
792.1044	-0.0097
792.2759	-0.0231
792.4474	-0.0006
792.619	0.0037
792.7905	0.0043
792.9619	0.0026
793.1334	0.0078
793.3048	0.0179
793.4762	0.0152
793.6476	-0.0027
793.819	0.0052
793.9904	0.0051
794.1617	-0.0044
794.333	-0.0041
794.5043	-0.013
794.6756	-0.0017
794.8469	0.0055
795.0181	0.0151
795.1893	0.0056
795.3605	0.0048
795.5317	-0.0004
795.7029	-0.0133
795.874	0.0076
796.0452	0.0023
796.2163	-0.0101
796.3873	0.0172
796.5584	0.0128
796.7294	-0.0008
796.9005	0.0228
797.0715	0.0052
797.2425	-0.0031
797.4134	-0.0035
797.5844	0.0063
797.7553	-0.0118
797.9262	0.0043
798.0971	-0.0188
798.2679	-0.013
798.4388	-0.0196
798.6096	-0.005
798.7804	-0.0003
798.9512	0.0025
799.122	-0.0065
799.2927	0.0047
799.4635	0.0069
799.6342	-0.0135
799.8049	-0.0165
799.9755	0.0003
800.1462	-0.0011
800.3168	0.0077
800.4874	-0.0039
800.658	0.0179
800.8286	0.0158
800.9991	0.0217
801.1696	0.0001
801.3402	0.0169
801.5106	-0.0027
801.6811	0.0045
801.8516	-0.0049
802.022	0.0138
802.1924	0.0022
802.3628	0.0112
802.5332	0.0083
802.7035	0.0143
802.8739	-0.0047
803.0442	0.0047
803.2145	0.0223
803.3847	-0.0199
803.555	-0.002
803.7252	-0.011
803.8954	-0.0205
804.0656	-0.0063
804.2358	-0.007
804.4059	0.006
804.5761	0.002
804.7462	-0.0114
804.9163	0.0174
805.0864	-0.0223
805.2564	-0.0105
805.4264	0.0092
805.5965	-0.0105
805.7665	0.0138
805.9364	0.0107
806.1064	0.0206
806.2763	0.0156
806.4462	0.0058
806.6161	-0.0068
806.786	0.0094
806.9559	0.0019
807.1257	-0.0091
807.2955	0.0037
807.4653	-0.006
807.6351	-0.0134
807.8048	0.0106
807.9746	0.0008
808.1443	-0.0008
808.314	0.0057
808.4837	-0.0217
808.6533	0.0008
808.8229	0.0181
808.9926	-0.0033
809.1622	0.0098
809.3317	-0.0152
809.5013	0.0001
809.6708	0.0117
809.8403	0.0232
810.0098	0.0096
810.1793	0.0137
810.3488	0.0049
810.5182	-0.0223
810.6876	0.0114
810.857	-0.0275
811.0264	0.0053
811.1958	0.0022
811.3651	-0.0038
811.5344	-0.0268
811.7037	-0.0095
811.873	-0.0119
812.0422	0.0028
812.2115	-0.0097
812.3807	-0.0248
812.5499	0.02
812.7191	-0.0141
812.8882	-0.0072
813.0574	0.0091
813.2265	0.0015
813.3956	0.0061
813.5646	0.0156
813.7337	-0.0296
813.9027	0.0075
814.0718	0.0215
814.2407	0.0039
814.4097	-0.013
814.5787	-0.0262
814.7476	-0.0116
814.9165	0.0134
815.0854	-0.0226
815.2543	-0.0036
815.4232	-0.0164
815.592	0.0151
815.7608	-0.0028
815.9296	-0.0066
816.0984	-0.008
816.2671	-0.0101
816.4359	0.0044
816.6046	-0.0002
816.7733	-0.0169
816.942	-0.036
817.1106	0.0164
817.2793	0.0122
817.4479	0.0126
817.6165	0.0113
817.785	0.0088
817.9536	-0.0175
818.1221	-0.0094
818.2906	-0.0103
818.4591	-0.0099
818.6276	-0.0065
818.7961	-0.0067
818.9645	0.0055
819.1329	0.011
819.3013	0.015
819.4697	0.0184
819.638	-0.008
819.8064	-0.0039
819.9747	-0.0012
820.143	-0.0034
820.3113	-0.0294
820.4795	-0.003
820.6477	0.0152
820.816	0.0097
820.9842	0.0067
821.1523	0.0108
821.3205	-0.0027
821.4886	-0.0027
821.6567	0.0177
821.8248	0.0054
821.9929	0.0203
822.1609	0.0159
822.329	0.002
822.497	0.0062
822.665	-0.0045
822.833	-0.0206
823.0009	0.0006
823.1688	-0.0069
823.3367	0.0234
823.5046	-0.0006
823.6725	0.0366
823.8404	0.0014
824.0082	0.0247
824.176	-0.0068
824.3438	0.0148
824.5116	-0.0337
824.6793	0.0102
824.847	-0.0243
825.0147	-0.0099
825.1824	0.0157
825.3501	0.0196
825.5177	-0.0146
825.6854	-0.0273
825.853	-0.0146
826.0206	-0.0203
826.1881	-0.0028
826.3557	-0.0219
826.5232	0.0388
826.6907	-0.0221
826.8582	-0.014
827.0257	-0.0288
827.1931	-0.0166
827.3605	-0.0038
827.528	0.0026
827.6953	-0.0252
827.8627	-0.0278
828.03	0.0145
828.1974	-0.0164
828.3647	-0.0214
828.532	-0.0181
828.6992	-0.0316
828.8665	0.0089
829.0337	-0.0147
829.2009	0.0129
829.3681	-0.0138
829.5352	0.0278
829.7024	-0.0029
829.8695	-0.0454
830.0366	0.0478
830.2037	-0.0143
830.3707	0.0357
830.5378	-0.0302
830.7048	-0.0152
830.8718	0.0025
831.0388	-0.0243
831.2057	-0.0231
831.3727	0.0332
831.5396	-0.0315
831.7065	0.0191
831.8734	0.0008
832.0402	-0.0044
832.2071	-0.0103
832.3739	-0.0139
832.5407	-0.0068
832.7075	-0.0162
832.8742	-0.0412
833.041	-0.0082
833.2077	-0.02
833.3744	-0.0114
833.541	0.0107
833.7077	-0.0053
833.8743	-0.0349
834.0409	-0.0094
834.2075	0.0178
834.3741	0.0084
834.5407	-0.0035
834.7072	0.0132
834.8737	-0.0223
835.0402	-0.0232
835.2067	0.036
835.3731	0.0206
835.5395	0.0087
835.706	0.0075
835.8723	0.0363
836.0387	0.0155
836.2051	-0.0003
836.3714	-0.0178
836.5377	-0.0251
836.704	-0.0067
836.8703	-0.0103
837.0365	-0.021
837.2027	-0.0239
837.3689	-0.0102
837.5351	-0.0063
837.7013	-0.0307
837.8674	-0.0546
838.0335	-0.0293
838.1997	-0.0069
838.3657	-0.0588
838.5318	-0.0217
838.6978	0.0218
838.8639	-0.0157
839.0299	0.0127
839.1958	0.0115
839.3618	0.0224
839.5277	0.01
839.6937	0.0004
839.8596	-0.0302
840.0254	0.0139
840.1913	0.0286
840.3571	0.0057
840.523	-0.0209
840.6888	-0.0188
840.8545	0.0063
841.0203	-0.0074
841.186	0.0056
841.3517	-0.0049
841.5174	-0.0082
841.6831	0.0483
841.8488	0.0151
842.0144	0.0153
842.18	0.0223
842.3456	0.0071
842.5112	0.031
842.6767	-0.0131
842.8422	0.027
843.0077	-0.0445
843.1732	-0.052
843.3387	-0.0416
843.5042	-0.0634
843.6696	-0.0018
843.835	0.0227
844.0004	0.0542
844.1657	0.0263
844.3311	-0.0209
844.4964	-0.0881
844.6617	-0.0148
844.827	0.0076
844.9923	-0.0163
845.1575	-0.0248
845.3227	0.0231
845.4879	0.0201
845.6531	-0.0606
845.8183	-0.0409
845.9834	-0.0043
846.1485	-0.0016
846.3136	-0.0707
846.4787	-0.1278
846.6438	0.0512
846.8088	-0.0368
846.9738	-0.1225
847.1388	0.0239
847.3038	-0.0573
847.4687	-0.1388
847.6337	-0.0071
847.7986	0.0281
847.9635	-0.0648
848.1284	0.0916
848.2932	0.1132
848.458	-0.0159
848.6228	0.0747
848.7876	0.1142
848.9524	0.0078
849.1172	-0.0976
849.2819	-0.0469
849.4466	-0.0669
849.6113	-0.0818
849.7759	-0.0518
849.9406	-0.011
850.1052	0.0869
850.2698	-0.0543
850.4344	0.0444
850.599	-0.0209
850.7635	0.0246
850.928	-0.0594
851.0925	0.0186
851.257	0.0099
851.4215	-0.0313
851.5859	-0.0428
851.7503	0.0148
851.9147	0.0025
852.0791	-0.0288
852.2434	-0.0625
852.4078	0.0808
852.5721	0.0432
852.7364	-0.0286
852.9007	-0.1158
853.0649	-0.0257
853.2291	-0.0806
853.3934	-0.1105
853.5575	0.0355
853.7217	-0.1189
853.8859	0.0103
854.05	-0.0464
854.2141	-0.0684
854.3782	-0.1322
854.5423	-0.0815
854.7063	0.127
854.8703	-0.0176
855.0343	0.0343
855.1983	-0.1024
855.3623	0.0966
855.5262	0.1512
855.6901	-0.0249
855.854	-0.0192
856.0179	0.1233
856.1818	0.0476
856.3456	-0.0673
856.5094	-0.1122
856.6732	-0.0637
856.837	0.0092
857.0008	0.0246
857.1645	-0.1379
857.3282	0.0083
857.4919	0.1269
857.6556	-0.041
857.8192	0.0732
857.9828	-0.0208
858.1465	-0.0247
858.31	-0.1357
858.4736	-0.0302
858.6372	-0.2709
858.8007	-0.2129
858.9642	-0.0616
859.1277	0.1169
859.2911	-0.0701
859.4546	0.019
859.618	-0.4716
859.7814	-0.0866
859.9448	0.0066
860.1081	0.0474
860.2715	0.1467
860.4348	-0.2276
860.5981	0.0217
860.7614	0.1538
860.9246	-0.1058
861.0879	-0.1893
861.2511	0.027
861.4143	-0.0545
861.5774	0.2232
861.7406	-0.1563
861.9037	-0.0289
862.0668	-0.1529
862.2299	-0.2363
862.393	-0.3648
862.556	-0.0123
862.7191	-0.1346
862.8821	-0.0047
863.0451	-0.0777
863.208	0.0063
863.371	0.1571
863.5339	-0.2487
863.6968	0.0125
863.8597	0.446
864.0225	-0.0883
864.1854	-0.1412
864.3482	-0.259
864.511	0.079
864.6737	0.1424
864.8365	0.3905
864.9992	-0.2376
865.1619	-0.6326
865.3246	-0.0964
865.4873	0.2763
865.65	-0.28
865.8126	0.0727
865.9752	0.0736
866.1378	-0.259
866.3004	-0
866.4629	0.1907
866.6254	-0.1522
866.7879	0.3395
866.9504	-0.2376
867.1129	-0
867.2753	0.0975
867.4377	0.3749
867.6001	-0.3193
867.7625	-0.1687
867.9249	-0.6522
868.0872	-0.2712
868.2495	0.041
868.4118	-0.2718
868.5741	-0.5346
868.7363	-0.3321
868.8986	-0.4623
869.0608	-0.1174
869.223	0.1297
869.3851	-0
869.5473	-0.0471
869.7094	0.6201
869.8715	-0
870.0336	0.3274
870.1957	-0.6618
870.3577	0.7404
870.5197	0.5978
870.6817	-0.2836
870.8437	-0.1288
871.0057	-0.4472
871.1676	-0.24
871.3295	-0.305
871.4914	-0
871.6533	-0.2832
871.8151	-0.5447
871.977	-0
872.1388	-0
872.3006	0.4715
872.4623	-0
872.6241	0.4871
872.7858	-0
872.9475	-0.0777
873.1092	-0.1935
873.2709	1.4586
873.4325	0.032
873.5941	-0.1471
873.7557	-0.6637
873.9173	-0
874.0789	-0.8013
874.2404	0.4293
874.4019	0.6686
874.5634	-0.2837
874.7249	0.6067
874.8863	-0.168
875.0478	-0.168
875.2092	-0
875.3706	0.3298
875.5319	-0.9915
875.6933	0.0504
875.8546	0.0354
876.0159	-0
876.1772	-0
876.3385	-0
876.4997	-0
876.6609	-0.3826
876.8221	-0
876.9833	0.4632
877.1445	-0
877.3056	0.1266
877.4667	-0.1913
877.6278	0.8833
877.7889	-0.647
877.9499	-0
878.111	-0.1714
878.272	-0
878.433	-0
878.5939	-0
878.7549	-0.0615
878.9158	-0.6226
879.0767	-0
879.2376	1.2279
879.3984	-0.2015
879.5593	-0
879.7201	-0.1549
879.8809	0.5812
880.0417	-0.2285
880.2024	-0.1586
880.3632	-0.5488
880.5239	0.0866
880.6846	-0
880.8452	-2.6149
881.0059	-0
881.1665	0.2252
881.3271	0.2872
881.4877	-0.5069
881.6483	-0
881.8088	-0.3526
881.9693	-0
882.1298	-0
882.2903	-0
