Data from MonoPyChalIsomerACN10uM350nmA_Absorbance_14-35-40-015.txt Node
Date: Fri Jul 05 14:35:40 BST 2024
User: LASERRRRR
Spectrometer: FLMT03099
Trigger mode: 0
Integration Time (sec): 1.000000E-1
Scans to average: 1
Electric dark correction enabled: true
Nonlinearity correction enabled: false
Boxcar width: 0
XAxis mode: Wavelengths
Number of Pixels in Spectrum: 3648
>>>>>Begin Spectral Data<<<<<
179.3399	-0
179.5586	-0
179.7771	-0
179.9957	0.1755
180.2143	-0
180.4329	0.0769
180.6514	0.1554
180.8699	-0
181.0885	0.1542
181.307	0.0221
181.5255	-0
181.744	-0.7442
181.9625	-0
182.181	-0
182.3994	-0
182.6179	-0
182.8363	-0.2962
183.0547	-0.4164
183.2732	0.0606
183.4916	0.105
183.71	0.2601
183.9284	0.1551
184.1467	-0.105
184.3651	0.3569
184.5835	-0.0173
184.8018	0.4333
185.0201	0.2252
185.2385	0.0377
185.4568	-0.0888
185.6751	0.0626
185.8934	0.1599
186.1117	0.0647
186.3299	-0.0884
186.5482	0.1674
186.7664	-0.1866
186.9847	0.1717
187.2029	0.0522
187.4211	0.0542
187.6393	0.2418
187.8575	-0.0999
188.0757	0.1894
188.2939	0.1198
188.512	0.0895
188.7302	-0.0168
188.9483	0.1516
189.1665	0.1033
189.3846	0.2529
189.6027	0.0037
189.8208	0.179
190.0389	0.2647
190.257	0.1822
190.475	0.0309
190.6931	0.136
190.9111	0.4599
191.1292	0.1817
191.3472	0.2706
191.5652	0.2501
191.7832	0.1856
192.0012	0.4302
192.2192	0.36
192.4371	0.4608
192.6551	0.5091
192.873	0.3799
193.091	0.4388
193.3089	0.6538
193.5268	0.5205
193.7447	0.6492
193.9626	0.4587
194.1805	0.4931
194.3984	0.6516
194.6162	0.528
194.8341	0.8303
195.0519	0.4511
195.2697	0.7676
195.4875	0.6176
195.7054	0.6632
195.9231	0.7945
196.1409	0.4244
196.3587	0.6816
196.5765	0.6557
196.7942	0.4153
197.012	0.4891
197.2297	0.9279
197.4474	0.7861
197.6651	0.6139
197.8828	0.5675
198.1005	0.5249
198.3182	0.5687
198.5358	0.8968
198.7535	0.75
198.9711	0.5471
199.1888	0.5293
199.4064	0.847
199.624	0.5979
199.8416	0.5358
200.0592	0.5962
200.2767	0.6229
200.4943	0.5498
200.7119	0.7555
200.9294	0.6348
201.1469	0.5715
201.3645	0.5761
201.582	0.551
201.7995	0.6072
202.017	0.6509
202.2344	0.6853
202.4519	0.8085
202.6694	0.7114
202.8868	0.6588
203.1042	0.6202
203.3217	0.7416
203.5391	0.6425
203.7565	0.5915
203.9739	0.6585
204.1913	0.6553
204.4086	0.5955
204.626	0.6618
204.8433	0.7053
205.0607	0.6401
205.278	0.7058
205.4953	0.6792
205.7126	0.6316
205.9299	0.857
206.1472	0.7615
206.3644	0.635
206.5817	0.6643
206.7989	0.7093
207.0162	0.5837
207.2334	0.7368
207.4506	0.705
207.6678	0.6001
207.885	0.6101
208.1022	0.705
208.3194	0.5884
208.5365	0.5664
208.7537	0.5892
208.9708	0.6114
209.1879	0.6295
209.405	0.684
209.6222	0.6535
209.8392	0.6692
210.0563	0.643
210.2734	0.6753
210.4905	0.6956
210.7075	0.6164
210.9245	0.5901
211.1416	0.6654
211.3586	0.5995
211.5756	0.592
211.7926	0.6572
212.0096	0.6126
212.2265	0.5025
212.4435	0.5353
212.6604	0.6157
212.8774	0.5929
213.0943	0.5692
213.3112	0.5423
213.5281	0.532
213.745	0.4784
213.9619	0.4872
214.1788	0.4549
214.3956	0.4858
214.6125	0.4982
214.8293	0.4399
215.0461	0.4774
215.2629	0.4118
215.4798	0.4656
215.6965	0.4174
215.9133	0.4428
216.1301	0.4108
216.3469	0.4689
216.5636	0.4125
216.7803	0.3978
216.9971	0.4047
217.2138	0.3799
217.4305	0.3537
217.6472	0.37
217.8639	0.3521
218.0805	0.3335
218.2972	0.3125
218.5138	0.2891
218.7305	0.3079
218.9471	0.3215
219.1637	0.3072
219.3803	0.2577
219.5969	0.3061
219.8135	0.2436
220.0301	0.2658
220.2466	0.2838
220.4632	0.2543
220.6797	0.244
220.8962	0.236
221.1127	0.2531
221.3292	0.2558
221.5457	0.2372
221.7622	0.2206
221.9787	0.2553
222.1951	0.2309
222.4116	0.2635
222.628	0.2577
222.8444	0.2649
223.0608	0.2413
223.2772	0.2618
223.4936	0.2781
223.71	0.2465
223.9264	0.2611
224.1427	0.2517
224.3591	0.2391
224.5754	0.2651
224.7917	0.2554
225.008	0.2667
225.2243	0.2708
225.4406	0.2785
225.6569	0.2696
225.8732	0.2732
226.0894	0.278
226.3057	0.2666
226.5219	0.2759
226.7381	0.2597
226.9543	0.2946
227.1705	0.291
227.3867	0.269
227.6029	0.2993
227.8191	0.3015
228.0352	0.2853
228.2513	0.2985
228.4675	0.3044
228.6836	0.3126
228.8997	0.3078
229.1158	0.2918
229.3319	0.3089
229.548	0.332
229.764	0.3316
229.9801	0.3214
230.1961	0.3199
230.4121	0.3564
230.6282	0.3385
230.8442	0.3211
231.0602	0.3427
231.2761	0.3391
231.4921	0.3586
231.7081	0.3526
231.924	0.3438
232.14	0.3603
232.3559	0.3446
232.5718	0.3527
232.7877	0.3669
233.0036	0.358
233.2195	0.3624
233.4353	0.3649
233.6512	0.3701
233.867	0.3594
234.0829	0.3583
234.2987	0.3641
234.5145	0.3754
234.7303	0.3844
234.9461	0.404
235.1619	0.3697
235.3776	0.3913
235.5934	0.3684
235.8091	0.3719
236.0249	0.3688
236.2406	0.3699
236.4563	0.3825
236.672	0.3849
236.8877	0.3904
237.1034	0.3918
237.319	0.3899
237.5347	0.41
237.7503	0.3882
237.966	0.3902
238.1816	0.4077
238.3972	0.4022
238.6128	0.387
238.8284	0.4047
239.0439	0.4009
239.2595	0.4064
239.475	0.3991
239.6906	0.4006
239.9061	0.4009
240.1216	0.4135
240.3371	0.3999
240.5526	0.3992
240.7681	0.4203
240.9836	0.3792
241.199	0.3875
241.4145	0.3773
241.6299	0.3905
241.8453	0.385
242.0607	0.3906
242.2761	0.3608
242.4915	0.3607
242.7069	0.3496
242.9223	0.3584
243.1376	0.3579
243.353	0.352
243.5683	0.3533
243.7836	0.33
243.9989	0.3402
244.2142	0.3226
244.4295	0.3125
244.6448	0.316
244.86	0.2972
245.0753	0.2882
245.2905	0.2917
245.5057	0.2734
245.721	0.2801
245.9362	0.2613
246.1514	0.265
246.3665	0.2538
246.5817	0.26
246.7969	0.2513
247.012	0.2462
247.2271	0.2427
247.4423	0.2463
247.6574	0.229
247.8725	0.2313
248.0876	0.217
248.3026	0.2358
248.5177	0.2282
248.7328	0.2081
248.9478	0.2062
249.1628	0.2202
249.3779	0.2162
249.5929	0.1983
249.8079	0.2129
250.0228	0.2003
250.2378	0.2066
250.4528	0.1903
250.6677	0.1982
250.8827	0.1995
251.0976	0.1867
251.3125	0.2007
251.5274	0.1769
251.7423	0.1841
251.9572	0.1818
252.172	0.1838
252.3869	0.1823
252.6017	0.1666
252.8166	0.1728
253.0314	0.1713
253.2462	0.1665
253.461	0.1783
253.6758	0.1775
253.8906	0.1802
254.1053	0.1715
254.3201	0.1672
254.5348	0.1776
254.7496	0.1872
254.9643	0.1818
255.179	0.1698
255.3937	0.1627
255.6083	0.1762
255.823	0.1704
256.0377	0.1602
256.2523	0.1595
256.467	0.1586
256.6816	0.1648
256.8962	0.171
257.1108	0.1561
257.3254	0.1737
257.54	0.165
257.7545	0.1684
257.9691	0.1844
258.1836	0.1663
258.3981	0.1811
258.6127	0.1674
258.8272	0.1666
259.0417	0.1551
259.2561	0.1584
259.4706	0.1585
259.6851	0.155
259.8995	0.1583
260.114	0.1608
260.3284	0.152
260.5428	0.1577
260.7572	0.1699
260.9716	0.1682
261.186	0.1653
261.4003	0.1624
261.6147	0.168
261.829	0.1584
262.0433	0.1596
262.2577	0.1577
262.472	0.1692
262.6863	0.1562
262.9005	0.1695
263.1148	0.1585
263.3291	0.1451
263.5433	0.1677
263.7576	0.1703
263.9718	0.1665
264.186	0.1642
264.4002	0.1652
264.6144	0.1623
264.8286	0.1668
265.0427	0.1688
265.2569	0.1487
265.471	0.1555
265.6851	0.1564
265.8993	0.1638
266.1134	0.1632
266.3275	0.1592
266.5415	0.1542
266.7556	0.1766
266.9697	0.159
267.1837	0.16
267.3978	0.1597
267.6118	0.1805
267.8258	0.1729
268.0398	0.1425
268.2538	0.1705
268.4677	0.1745
268.6817	0.1537
268.8957	0.1514
269.1096	0.1651
269.3235	0.1576
269.5374	0.1507
269.7514	0.153
269.9652	0.154
270.1791	0.1531
270.393	0.1489
270.6068	0.1548
270.8207	0.1452
271.0345	0.149
271.2483	0.1525
271.4622	0.1476
271.676	0.1685
271.8897	0.1368
272.1035	0.1372
272.3173	0.1565
272.531	0.1502
272.7448	0.149
272.9585	0.1288
273.1722	0.1427
273.3859	0.1484
273.5996	0.1301
273.8133	0.1433
274.0269	0.1602
274.2406	0.1322
274.4542	0.147
274.6679	0.1352
274.8815	0.1444
275.0951	0.1516
275.3087	0.153
275.5223	0.1406
275.7358	0.1425
275.9494	0.1481
276.1629	0.1383
276.3765	0.1538
276.59	0.1439
276.8035	0.1529
277.017	0.1401
277.2305	0.1374
277.444	0.1506
277.6574	0.1408
277.8709	0.1445
278.0843	0.1339
278.2978	0.1425
278.5112	0.1399
278.7246	0.1501
278.938	0.1457
279.1513	0.1513
279.3647	0.1578
279.5781	0.1428
279.7914	0.1385
280.0047	0.1512
280.2181	0.1493
280.4314	0.1416
280.6447	0.1459
280.8579	0.1521
281.0712	0.1509
281.2845	0.1556
281.4977	0.1473
281.711	0.1402
281.9242	0.1525
282.1374	0.1531
282.3506	0.1552
282.5638	0.1457
282.7769	0.1639
282.9901	0.1589
283.2033	0.1614
283.4164	0.1667
283.6295	0.1502
283.8426	0.1526
284.0557	0.1471
284.2688	0.1637
284.4819	0.1504
284.695	0.1632
284.908	0.1798
285.1211	0.1562
285.3341	0.1548
285.5471	0.168
285.7601	0.1602
285.9731	0.1638
286.1861	0.1537
286.3991	0.1625
286.612	0.1633
286.825	0.1465
287.0379	0.1556
287.2508	0.1518
287.4637	0.1579
287.6766	0.1561
287.8895	0.1655
288.1024	0.1806
288.3152	0.171
288.5281	0.159
288.7409	0.1646
288.9538	0.1649
289.1666	0.15
289.3794	0.1708
289.5922	0.1567
289.8049	0.1606
290.0177	0.1649
290.2304	0.1675
290.4432	0.1537
290.6559	0.1642
290.8686	0.1717
291.0813	0.1609
291.294	0.163
291.5067	0.1763
291.7194	0.1647
291.932	0.1708
292.1447	0.1654
292.3573	0.1647
292.5699	0.1548
292.7825	0.1606
292.9951	0.1667
293.2077	0.1682
293.4203	0.1688
293.6328	0.162
293.8454	0.1696
294.0579	0.1629
294.2704	0.1566
294.4829	0.1513
294.6954	0.1639
294.9079	0.1688
295.1204	0.1559
295.3328	0.1624
295.5453	0.1606
295.7577	0.1601
295.9701	0.1557
296.1825	0.1578
296.3949	0.1556
296.6073	0.1535
296.8197	0.1394
297.0321	0.1772
297.2444	0.1492
297.4567	0.1657
297.6691	0.1513
297.8814	0.1454
298.0937	0.16
298.306	0.1737
298.5182	0.1598
298.7305	0.1597
298.9428	0.151
299.155	0.1632
299.3672	0.1538
299.5794	0.1473
299.7916	0.1535
300.0038	0.1554
300.216	0.1597
300.4282	0.173
300.6403	0.1482
300.8525	0.1495
301.0646	0.1523
301.2767	0.1601
301.4888	0.1561
301.7009	0.1648
301.913	0.1563
302.125	0.1601
302.3371	0.1584
302.5491	0.1697
302.7612	0.1748
302.9732	0.1639
303.1852	0.1596
303.3972	0.1584
303.6092	0.1543
303.8211	0.1477
304.0331	0.1483
304.245	0.1482
304.457	0.1474
304.6689	0.156
304.8808	0.1517
305.0927	0.1465
305.3046	0.1449
305.5164	0.158
305.7283	0.1425
305.9401	0.155
306.152	0.1565
306.3638	0.1551
306.5756	0.1373
306.7874	0.1394
306.9992	0.1535
307.2109	0.1423
307.4227	0.1235
307.6344	0.134
307.8462	0.1432
308.0579	0.1411
308.2696	0.127
308.4813	0.1194
308.693	0.1354
308.9046	0.1368
309.1163	0.1358
309.328	0.1242
309.5396	0.1253
309.7512	0.1134
309.9628	0.1133
310.1744	0.1171
310.386	0.1229
310.5976	0.1316
310.8091	0.131
311.0207	0.1198
311.2322	0.124
311.4437	0.111
311.6552	0.1155
311.8667	0.1099
312.0782	0.097
312.2897	0.1072
312.5012	0.1162
312.7126	0.0995
312.924	0.1072
313.1355	0.1156
313.3469	0.1118
313.5583	0.1149
313.7696	0.1114
313.981	0.1067
314.1924	0.106
314.4037	0.0981
314.6151	0.1115
314.8264	0.0897
315.0377	0.0999
315.249	0.0974
315.4603	0.1044
315.6716	0.0999
315.8828	0.0945
316.0941	0.1024
316.3053	0.0941
316.5165	0.093
316.7277	0.0943
316.9389	0.1021
317.1501	0.1024
317.3613	0.1053
317.5724	0.0937
317.7836	0.0999
317.9947	0.0988
318.2058	0.0978
318.417	0.0826
318.6281	0.0881
318.8391	0.0979
319.0502	0.0892
319.2613	0.0979
319.4723	0.0991
319.6834	0.1105
319.8944	0.0845
320.1054	0.09
320.3164	0.1015
320.5274	0.0897
320.7383	0.09
320.9493	0.0941
321.1602	0.111
321.3712	0.0937
321.5821	0.1056
321.793	0.1074
322.0039	0.0986
322.2148	0.0919
322.4257	0.1025
322.6365	0.1063
322.8474	0.1026
323.0582	0.0983
323.269	0.0953
323.4798	0.1195
323.6906	0.0985
323.9014	0.1029
324.1122	0.1098
324.3229	0.1016
324.5337	0.1034
324.7444	0.0927
324.9551	0.1049
325.1658	0.1013
325.3765	0.1029
325.5872	0.1002
325.7979	0.092
326.0085	0.0996
326.2192	0.1071
326.4298	0.1007
326.6404	0.0915
326.851	0.0978
327.0616	0.1083
327.2722	0.1023
327.4828	0.1118
327.6933	0.0967
327.9039	0.1121
328.1144	0.1076
328.3249	0.111
328.5354	0.095
328.7459	0.0943
328.9564	0.1009
329.1669	0.1127
329.3773	0.1043
329.5878	0.1086
329.7982	0.1067
330.0086	0.0978
330.219	0.1178
330.4294	0.0986
330.6398	0.1168
330.8502	0.1033
331.0605	0.1098
331.2708	0.1036
331.4812	0.114
331.6915	0.1087
331.9018	0.1029
332.1121	0.1002
332.3224	0.1175
332.5326	0.1099
332.7429	0.1014
332.9531	0.1126
333.1633	0.1131
333.3735	0.1135
333.5837	0.1137
333.7939	0.0909
334.0041	0.117
334.2143	0.1153
334.4244	0.1137
334.6346	0.0983
334.8447	0.1157
335.0548	0.1058
335.2649	0.1015
335.475	0.1193
335.685	0.1067
335.8951	0.1247
336.1051	0.1063
336.3152	0.1262
336.5252	0.0983
336.7352	0.1157
336.9452	0.1275
337.1552	0.1067
337.3652	0.1054
337.5751	0.1125
337.7851	0.1144
337.995	0.1029
338.2049	0.1146
338.4148	0.1157
338.6247	0.1139
338.8346	0.1072
339.0445	0.0962
339.2543	0.1076
339.4642	0.1143
339.674	0.0978
339.8838	0.1195
340.0936	0.1226
340.3034	0.1239
340.5132	0.1315
340.7229	0.1088
340.9327	0.1105
341.1424	0.1171
341.3522	0.1253
341.5619	0.1225
341.7716	0.112
341.9813	0.12
342.1909	0.1154
342.4006	0.1259
342.6102	0.1393
342.8199	0.1243
343.0295	0.1183
343.2391	0.1154
343.4487	0.138
343.6583	0.1168
343.8679	0.1224
344.0774	0.1212
344.287	0.128
344.4965	0.1395
344.706	0.1184
344.9155	0.1316
345.125	0.1248
345.3345	0.1229
345.544	0.1319
345.7534	0.1217
345.9629	0.1124
346.1723	0.1233
346.3817	0.1174
346.5911	0.1393
346.8005	0.1344
347.0099	0.1338
347.2193	0.1361
347.4286	0.1299
347.638	0.1401
347.8473	0.1429
348.0566	0.1449
348.2659	0.1446
348.4752	0.1269
348.6845	0.1379
348.8937	0.116
349.103	0.15
349.3122	0.1312
349.5214	0.1371
349.7306	0.1353
349.9398	0.1364
350.149	0.1445
350.3582	0.1226
350.5674	0.1537
350.7765	0.1267
350.9856	0.1338
351.1948	0.1519
351.4039	0.1199
351.613	0.147
351.822	0.1536
352.0311	0.1529
352.2402	0.1304
352.4492	0.1531
352.6582	0.1387
352.8672	0.1331
353.0762	0.1519
353.2852	0.1387
353.4942	0.1446
353.7032	0.1473
353.9121	0.1528
354.1211	0.1519
354.33	0.1547
354.5389	0.1577
354.7478	0.1599
354.9567	0.1463
355.1655	0.1453
355.3744	0.1533
355.5833	0.1614
355.7921	0.1713
356.0009	0.1581
356.2097	0.1682
356.4185	0.1684
356.6273	0.1617
356.8361	0.1556
357.0448	0.1558
357.2536	0.1385
357.4623	0.1583
357.671	0.1633
357.8797	0.1656
358.0884	0.163
358.2971	0.1636
358.5057	0.173
358.7144	0.1665
358.923	0.1788
359.1316	0.1744
359.3402	0.168
359.5488	0.1667
359.7574	0.1633
359.966	0.1778
360.1746	0.1877
360.3831	0.17
360.5916	0.1638
360.8002	0.1731
361.0087	0.1787
361.2172	0.1763
361.4256	0.187
361.6341	0.1823
361.8426	0.1888
362.051	0.1771
362.2594	0.1901
362.4678	0.1821
362.6762	0.1923
362.8846	0.1896
363.093	0.1868
363.3014	0.1675
363.5097	0.1789
363.718	0.1831
363.9264	0.1762
364.1347	0.1823
364.343	0.1888
364.5513	0.1991
364.7595	0.2034
364.9678	0.1838
365.176	0.1938
365.3842	0.197
365.5925	0.1847
365.8007	0.1965
366.0089	0.1894
366.217	0.1901
366.4252	0.2231
366.6333	0.2125
366.8415	0.2049
367.0496	0.2069
367.2577	0.2088
367.4658	0.2078
367.6739	0.2019
367.882	0.214
368.09	0.2028
368.2981	0.218
368.5061	0.2048
368.7141	0.2047
368.9221	0.2203
369.1301	0.2031
369.3381	0.1843
369.5461	0.2195
369.754	0.2183
369.962	0.2106
370.1699	0.2223
370.3778	0.2038
370.5857	0.2054
370.7936	0.216
371.0015	0.2136
371.2093	0.2257
371.4172	0.223
371.625	0.2052
371.8328	0.2064
372.0406	0.2182
372.2484	0.1917
372.4562	0.2173
372.664	0.2162
372.8717	0.2351
373.0795	0.1972
373.2872	0.2199
373.4949	0.2245
373.7026	0.2123
373.9103	0.2357
374.118	0.2344
374.3256	0.2243
374.5333	0.2077
374.7409	0.235
374.9485	0.2441
375.1561	0.2232
375.3637	0.2265
375.5713	0.2284
375.7789	0.2379
375.9864	0.2289
376.194	0.2184
376.4015	0.2298
376.609	0.2487
376.8165	0.2338
377.024	0.2349
377.2315	0.2257
377.4389	0.2332
377.6464	0.254
377.8538	0.231
378.0612	0.2239
378.2686	0.2465
378.476	0.2503
378.6834	0.2354
378.8908	0.2411
379.0981	0.2376
379.3055	0.2521
379.5128	0.2383
379.7201	0.2357
379.9274	0.2339
380.1347	0.2425
380.342	0.2681
380.5492	0.2254
380.7565	0.2544
380.9637	0.2424
381.1709	0.2487
381.3781	0.2308
381.5853	0.2595
381.7925	0.2597
381.9997	0.2395
382.2068	0.2413
382.4139	0.2532
382.6211	0.2497
382.8282	0.238
383.0353	0.2486
383.2424	0.2377
383.4494	0.2403
383.6565	0.2327
383.8635	0.2546
384.0706	0.2678
384.2776	0.2631
384.4846	0.2251
384.6916	0.2378
384.8986	0.2487
385.1055	0.2606
385.3125	0.2475
385.5194	0.2334
385.7263	0.2629
385.9333	0.2634
386.1402	0.2458
386.347	0.2391
386.5539	0.2517
386.7608	0.2379
386.9676	0.237
387.1744	0.2547
387.3813	0.2378
387.5881	0.2613
387.7948	0.2358
388.0016	0.2527
388.2084	0.249
388.4151	0.23
388.6219	0.2552
388.8286	0.2446
389.0353	0.2684
389.242	0.2554
389.4487	0.2269
389.6553	0.2342
389.862	0.2283
390.0686	0.2325
390.2753	0.2502
390.4819	0.2387
390.6885	0.2289
390.8951	0.244
391.1016	0.2558
391.3082	0.2267
391.5147	0.2394
391.7213	0.24
391.9278	0.2411
392.1343	0.2396
392.3408	0.2406
392.5473	0.2345
392.7537	0.2209
392.9602	0.2248
393.1666	0.2321
393.373	0.2393
393.5794	0.2323
393.7858	0.227
393.9922	0.1999
394.1986	0.2241
394.4049	0.2427
394.6113	0.2072
394.8176	0.216
395.0239	0.2216
395.2302	0.2125
395.4365	0.2086
395.6428	0.2091
395.8491	0.2132
396.0553	0.2236
396.2615	0.2216
396.4678	0.2078
396.674	0.2009
396.8802	0.1874
397.0863	0.2152
397.2925	0.2219
397.4987	0.2124
397.7048	0.2088
397.9109	0.2201
398.117	0.2035
398.3231	0.1998
398.5292	0.2346
398.7353	0.2171
398.9413	0.2156
399.1474	0.2015
399.3534	0.2037
399.5594	0.1953
399.7654	0.2092
399.9714	0.2109
400.1774	0.21
400.3833	0.1975
400.5893	0.2189
400.7952	0.2258
401.0011	0.2202
401.207	0.2232
401.4129	0.2068
401.6188	0.2234
401.8247	0.2127
402.0305	0.201
402.2364	0.2109
402.4422	0.2096
402.648	0.2168
402.8538	0.2272
403.0596	0.2031
403.2654	0.2112
403.4711	0.1978
403.6768	0.2164
403.8826	0.202
404.0883	0.2177
404.294	0.2204
404.4997	0.2016
404.7054	0.2229
404.911	0.1852
405.1167	0.2095
405.3223	0.2218
405.5279	0.2295
405.7335	0.2206
405.9391	0.2053
406.1447	0.2
406.3502	0.219
406.5558	0.1923
406.7613	0.2231
406.9668	0.2013
407.1724	0.1937
407.3778	0.1973
407.5833	0.2056
407.7888	0.2053
407.9942	0.2198
408.1997	0.2021
408.4051	0.1923
408.6105	0.2013
408.8159	0.1924
409.0213	0.1994
409.2267	0.2114
409.432	0.2077
409.6374	0.2105
409.8427	0.2035
410.048	0.2052
410.2533	0.2137
410.4586	0.2046
410.6639	0.1776
410.8691	0.2055
411.0744	0.1807
411.2796	0.1922
411.4848	0.1984
411.69	0.1957
411.8952	0.2094
412.1004	0.1816
412.3056	0.2149
412.5107	0.2154
412.7158	0.1987
412.921	0.2094
413.1261	0.1951
413.3312	0.1955
413.5362	0.2054
413.7413	0.2008
413.9464	0.1972
414.1514	0.1904
414.3564	0.2097
414.5614	0.1909
414.7664	0.2033
414.9714	0.1872
415.1764	0.1967
415.3813	0.2163
415.5863	0.2132
415.7912	0.1956
415.9961	0.1932
416.201	0.1955
416.4059	0.1938
416.6108	0.1971
416.8156	0.1987
417.0205	0.1983
417.2253	0.1754
417.4301	0.2111
417.6349	0.2015
417.8397	0.1791
418.0445	0.2039
418.2492	0.1976
418.454	0.1975
418.6587	0.2004
418.8634	0.1857
419.0681	0.1676
419.2728	0.1797
419.4775	0.185
419.6822	0.188
419.8868	0.1763
420.0915	0.1777
420.2961	0.1779
420.5007	0.1721
420.7053	0.1925
420.9099	0.17
421.1144	0.2045
421.319	0.1873
421.5235	0.1947
421.728	0.192
421.9325	0.1928
422.137	0.1799
422.3415	0.1696
422.546	0.1862
422.7504	0.1881
422.9549	0.191
423.1593	0.1928
423.3637	0.1888
423.5681	0.1667
423.7725	0.1617
423.9769	0.1736
424.1812	0.1666
424.3856	0.1698
424.5899	0.1817
424.7942	0.1559
424.9985	0.1605
425.2028	0.1662
425.4071	0.1908
425.6113	0.1575
425.8156	0.1692
426.0198	0.1731
426.224	0.1453
426.4282	0.1599
426.6324	0.1538
426.8366	0.1638
427.0407	0.1595
427.2449	0.1639
427.449	0.1654
427.6531	0.143
427.8572	0.1605
428.0613	0.161
428.2654	0.157
428.4694	0.1511
428.6735	0.1416
428.8775	0.1608
429.0815	0.166
429.2855	0.1425
429.4895	0.1558
429.6935	0.1692
429.8975	0.148
430.1014	0.1372
430.3053	0.1282
430.5093	0.1441
430.7132	0.1212
430.9171	0.1524
431.1209	0.1382
431.3248	0.1367
431.5286	0.1309
431.7325	0.1366
431.9363	0.1242
432.1401	0.1455
432.3439	0.1204
432.5477	0.1242
432.7514	0.1136
432.9552	0.1135
433.1589	0.1252
433.3627	0.1052
433.5664	0.1117
433.7701	0.1229
433.9737	0.0991
434.1774	0.1134
434.3811	0.1197
434.5847	0.116
434.7883	0.1069
434.9919	0.1027
435.1955	0.0967
435.3991	0.1062
435.6027	0.1175
435.8062	0.0972
436.0098	0.1106
436.2133	0.0954
436.4168	0.089
436.6203	0.1029
436.8238	0.0963
437.0272	0.097
437.2307	0.0896
437.4341	0.0964
437.6375	0.111
437.841	0.0922
438.0443	0.0981
438.2477	0.0927
438.4511	0.0813
438.6545	0.0813
438.8578	0.0958
439.0611	0.0734
439.2644	0.089
439.4677	0.0909
439.671	0.0809
439.8743	0.09
440.0775	0.0877
440.2808	0.0752
440.484	0.0722
440.6872	0.0532
440.8904	0.0689
441.0936	0.0836
441.2967	0.0714
441.4999	0.0853
441.703	0.0542
441.9062	0.0647
442.1093	0.0741
442.3124	0.0738
442.5155	0.0472
442.7185	0.0478
442.9216	0.0374
443.1246	0.0579
443.3276	0.0503
443.5307	0.0527
443.7337	0.0692
443.9366	0.0489
444.1396	0.0592
444.3426	0.0404
444.5455	0.0593
444.7484	0.0502
444.9513	0.0453
445.1542	0.0511
445.3571	0.0418
445.56	0.042
445.7628	0.0365
445.9657	0.0521
446.1685	0.0488
446.3713	0.0429
446.5741	0.035
446.7769	0.0175
446.9797	0.0397
447.1824	0.0426
447.3852	0.0447
447.5879	0.0451
447.7906	0.045
447.9933	0.0427
448.196	0.0252
448.3986	0.0333
448.6013	0.0331
448.8039	0.0303
449.0066	0.0218
449.2092	0.0341
449.4118	0.0306
449.6143	0.0337
449.8169	0.0242
450.0195	0.0202
450.222	0.0114
450.4245	0.0243
450.627	0.0309
450.8295	0.0302
451.032	0.028
451.2345	0.0329
451.4369	0.0313
451.6394	0.0335
451.8418	0.0111
452.0442	0.0149
452.2466	0.0263
452.449	0.0101
452.6513	0.0226
452.8537	0.0162
453.056	0.0125
453.2583	0.0184
453.4607	0.013
453.663	0.011
453.8652	0.0252
454.0675	0.0004
454.2697	0.014
454.472	0.0029
454.6742	0.024
454.8764	0.0061
455.0786	0.0247
455.2808	0.0073
455.4829	0.0081
455.6851	0.0272
455.8872	0.0232
456.0893	0.0171
456.2915	-0.0061
456.4935	0.0284
456.6956	-0.0012
456.8977	0.0092
457.0997	0.0121
457.3018	-0.0015
457.5038	0.0057
457.7058	0.0107
457.9078	0.0035
458.1098	0.0163
458.3117	0.0055
458.5137	0.0123
458.7156	0.0224
458.9175	-0.0019
459.1194	0.0005
459.3213	0.0096
459.5232	0.0124
459.725	0.0029
459.9269	-0.0099
460.1287	0.0037
460.3305	-0.0034
460.5323	0.0146
460.7341	0.0079
460.9359	-0.002
461.1376	0.0127
461.3394	-0.0008
461.5411	0.0133
461.7428	-0.0068
461.9445	0.0083
462.1462	0.0243
462.3479	-0.0026
462.5495	0.017
462.7512	-0.0062
462.9528	-0.0031
463.1544	-0.0096
463.356	0.0193
463.5576	0.0074
463.7592	0.0007
463.9607	0.0187
464.1623	0.0114
464.3638	0.0258
464.5653	-0.0108
464.7668	0
464.9683	0.0199
465.1697	0.0037
465.3712	-0.0138
465.5726	-0.0119
465.7741	0.0044
465.9755	-0.0064
466.1769	-0.007
466.3782	-0.0011
466.5796	-0.008
466.7809	0.0221
466.9823	0.0007
467.1836	-0.0013
467.3849	0.0013
467.5862	0.0006
467.7875	-0.0056
467.9887	0.0163
468.19	0
468.3912	-0.0014
468.5924	-0.0057
468.7936	-0.0078
468.9948	0.002
469.196	0.0105
469.3972	-0.0126
469.5983	0.0032
469.7994	-0.0055
470.0006	-0.0021
470.2017	-0.0057
470.4027	-0.0045
470.6038	0.0025
470.8049	-0.0095
471.0059	-0.0061
471.2069	-0.0132
471.408	0.0072
471.6089	0.0064
471.8099	0.004
472.0109	0.0042
472.2119	-0.0154
472.4128	-0.008
472.6137	0.0078
472.8146	-0.0104
473.0155	-0.0058
473.2164	-0.0081
473.4173	-0.0003
473.6181	-0.0045
473.819	-0.0027
474.0198	-0.0001
474.2206	-0.0003
474.4214	-0.0111
474.6222	-0.0087
474.8229	-0.0039
475.0237	-0.0228
475.2244	-0.0068
475.4251	0.0034
475.6258	-0.0074
475.8265	-0.0044
476.0272	0.0053
476.2278	-0.0128
476.4285	-0.0021
476.6291	-0.005
476.8297	-0.007
477.0303	-0.0137
477.2309	0.004
477.4315	-0.0126
477.632	-0.0053
477.8326	0.0029
478.0331	-0.0099
478.2336	0.0087
478.4341	0.0076
478.6346	0.0019
478.8351	0.0024
479.0355	-0.0072
479.236	-0.0169
479.4364	-0.0006
479.6368	0.0031
479.8372	-0.0087
480.0376	-0.0058
480.2379	-0.0163
480.4383	-0.0068
480.6386	0.0041
480.8389	0.0065
481.0392	-0.0022
481.2395	-0.0102
481.4398	0.0051
481.6401	0.001
481.8403	0.0013
482.0405	-0.0063
482.2408	-0.001
482.441	0.0068
482.6411	0.0007
482.8413	-0.0103
483.0415	-0.0063
483.2416	-0.0125
483.4417	0.0022
483.6419	-0.0057
483.8419	0.0016
484.042	0.0076
484.2421	0.0048
484.4422	-0.0024
484.6422	-0.0094
484.8422	0.0007
485.0422	-0.0046
485.2422	-0.0003
485.4422	-0.0084
485.6422	-0.0107
485.8421	-0.003
486.042	0.0039
486.242	-0.0005
486.4419	-0.0124
486.6417	-0.0157
486.8416	0.0029
487.0415	-0.0089
487.2413	-0.0044
487.4411	-0.0026
487.641	-0.0067
487.8408	0.0037
488.0405	-0.0099
488.2403	-0.0147
488.4401	0
488.6398	0.0045
488.8395	-0.0019
489.0392	0.0026
489.2389	-0.0176
489.4386	-0.0027
489.6383	-0.0055
489.8379	0.0033
490.0376	-0.007
490.2372	-0.0121
490.4368	-0.0107
490.6364	-0.0025
490.836	-0.0211
491.0355	-0.0068
491.2351	-0.0092
491.4346	-0.0041
491.6341	-0.014
491.8336	0.0022
492.0331	-0.0238
492.2326	-0.0203
492.432	-0.0115
492.6315	0.0012
492.8309	-0.0186
493.0303	-0.0069
493.2297	-0.0078
493.4291	-0.0092
493.6284	-0.0071
493.8278	-0.0129
494.0271	0.0022
494.2264	-0.0003
494.4257	-0.0173
494.625	-0.0148
494.8243	-0.0137
495.0236	-0.0079
495.2228	-0.0125
495.422	0.0002
495.6213	-0.0028
495.8205	-0.0079
496.0196	-0.0031
496.2188	-0.0028
496.418	-0.0049
496.6171	-0.0067
496.8162	-0.0093
497.0153	-0.0033
497.2144	-0.0025
497.4135	0.0034
497.6126	-0.0164
497.8116	-0.0028
498.0107	-0.0039
498.2097	-0.0152
498.4087	-0.0009
498.6077	-0.0012
498.8067	-0.0083
499.0056	-0.0007
499.2046	-0.0121
499.4035	-0.0159
499.6024	-0.0023
499.8013	0.0021
500.0002	-0.0094
500.199	-0.0177
500.3979	-0.0036
500.5967	-0.0241
500.7956	0.0055
500.9944	-0.0039
501.1932	-0.0166
501.3919	-0.0109
501.5907	-0.0121
501.7895	-0.0111
501.9882	-0.0132
502.1869	-0.0048
502.3856	-0.0071
502.5843	-0.0119
502.783	-0.0143
502.9816	-0.0082
503.1803	-0.0173
503.3789	-0.0095
503.5775	-0.0044
503.7761	-0.014
503.9747	-0.01
504.1732	-0.0134
504.3718	-0.0014
504.5703	-0.0128
504.7689	-0.0072
504.9674	-0.0066
505.1658	-0.0132
505.3643	-0.0141
505.5628	-0.0049
505.7612	0
505.9597	0.0039
506.1581	-0.0144
506.3565	0.0082
506.5549	-0.013
506.7532	-0.0197
506.9516	-0.0061
507.1499	-0.0007
507.3482	-0.0164
507.5465	-0.0049
507.7448	0.0005
507.9431	-0.0125
508.1414	0.0023
508.3396	-0.0036
508.5379	0.0043
508.7361	-0.014
508.9343	-0.0019
509.1325	-0.0135
509.3306	-0.0056
509.5288	-0.0089
509.7269	-0.0056
509.9251	-0.006
510.1232	-0.0132
510.3213	-0.0112
510.5193	0.0067
510.7174	-0.0102
510.9154	-0.0133
511.1135	-0.0108
511.3115	-0.0056
511.5095	-0.0031
511.7075	-0.0068
511.9055	-0.0119
512.1034	-0.0163
512.3014	-0.0052
512.4993	-0.0046
512.6972	-0.0118
512.8951	-0.0249
513.093	-0.002
513.2908	-0.0032
513.4887	-0.0088
513.6865	-0.0067
513.8844	-0.0105
514.0822	-0.0063
514.2799	-0.0077
514.4777	-0.0094
514.6755	-0.0203
514.8732	-0.008
515.0709	0.0033
515.2687	0.0039
515.4664	-0.0031
515.664	-0.015
515.8617	-0.0091
516.0594	-0.0122
516.257	-0.0074
516.4546	-0.0181
516.6522	-0.0086
516.8498	-0.0073
517.0474	0.0006
517.2449	-0.0022
517.4425	-0.0121
517.64	-0.0119
517.8375	0.0128
518.035	-0.0115
518.2325	-0.0052
518.43	-0.0115
518.6274	-0.0066
518.8249	-0.0182
519.0223	-0.0044
519.2197	-0.0103
519.4171	-0.0135
519.6145	-0.0168
519.8118	-0.0073
520.0092	-0.0046
520.2065	-0.007
520.4038	-0.021
520.6011	-0.0026
520.7984	-0.0072
520.9956	-0.0047
521.1929	-0.0101
521.3901	-0.005
521.5874	-0.0074
521.7846	-0.0104
521.9818	-0.0081
522.1789	-0.008
522.3761	-0.0025
522.5732	-0.0068
522.7704	-0.0144
522.9675	-0.0047
523.1646	-0.0159
523.3617	0.0006
523.5587	-0.0076
523.7558	-0.01
523.9528	-0.0083
524.1498	-0.0035
524.3468	-0.0068
524.5438	-0.0122
524.7408	-0.0087
524.9378	-0.0002
525.1347	-0.0018
525.3316	-0.0055
525.5285	-0.0087
525.7254	-0.0014
525.9223	-0.0048
526.1192	-0.0143
526.316	-0.0136
526.5129	0.0026
526.7097	-0.004
526.9065	-0.0078
527.1033	-0.0134
527.3	0.0017
527.4968	-0.0032
527.6935	-0.0037
527.8903	-0.0064
528.087	-0.0104
528.2837	-0.0203
528.4804	-0.007
528.677	-0.0221
528.8737	0.0095
529.0703	-0.0063
529.2669	0.0112
529.4635	-0.0051
529.6601	0.0013
529.8567	-0.0006
530.0532	-0.0087
530.2498	-0.0096
530.4463	-0.0025
530.6428	-0.0137
530.8393	0.0042
531.0358	-0.0022
531.2322	-0.0054
531.4287	-0.0024
531.6251	-0.0031
531.8215	0.0029
532.0179	0.0026
532.2143	-0.0087
532.4107	-0.0005
532.607	-0.014
532.8034	0.0028
532.9997	-0.0034
533.196	-0.0056
533.3923	-0.0089
533.5886	-0.0017
533.7848	0.0019
533.9811	-0.001
534.1773	0.004
534.3735	0.0013
534.5697	-0.0125
534.7659	-0.011
534.9621	0.0049
535.1582	-0.0071
535.3544	-0.0051
535.5505	-0.0108
535.7466	-0.0005
535.9427	-0.004
536.1387	-0.0009
536.3348	-0.0079
536.5308	0.0051
536.7269	-0.0141
536.9229	-0.0077
537.1189	-0.0058
537.3148	-0.0048
537.5108	-0.0142
537.7068	-0.0123
537.9027	-0.0038
538.0986	-0.0012
538.2945	-0.0067
538.4904	-0.0087
538.6863	-0.0115
538.8821	-0.0093
539.078	-0.0073
539.2738	-0.004
539.4696	0.0022
539.6654	-0.0015
539.8611	0.0025
540.0569	-0.0005
540.2526	-0.0053
540.4484	0.0015
540.6441	0.0011
540.8398	0.0041
541.0355	0.0016
541.2311	-0.0036
541.4268	-0.0069
541.6224	0.0025
541.818	-0.0026
542.0136	-0.0178
542.2092	-0.0029
542.4048	0.003
542.6003	-0.0056
542.7959	-0.0064
542.9914	-0.0025
543.1869	-0.0021
543.3824	-0.0047
543.5779	-0.0074
543.7734	-0.0024
543.9688	-0.0172
544.1642	-0.0036
544.3596	-0.0034
544.555	-0.0018
544.7504	-0.002
544.9458	-0.0038
545.1411	-0.0026
545.3365	-0.0008
545.5318	-0.0093
545.7271	-0.0012
545.9224	0.0009
546.1177	-0.0012
546.3129	-0.0028
546.5081	0.002
546.7034	-0.0087
546.8986	-0.0097
547.0938	-0.0121
547.289	-0.0105
547.4841	-0.0058
547.6793	0.0014
547.8744	-0.0062
548.0695	-0.0024
548.2646	-0.0043
548.4597	0.0014
548.6548	-0.0034
548.8498	0.0019
549.0448	0.0099
549.2399	-0.0042
549.4349	0.0019
549.6298	-0.0004
549.8248	-0.002
550.0198	-0.0043
550.2147	-0.0082
550.4096	-0.0101
550.6045	-0.0009
550.7994	0.0073
550.9943	-0.0011
551.1892	-0.0081
551.384	-0.0073
551.5788	-0.0046
551.7737	-0.005
551.9685	0.0016
552.1632	-0.0058
552.358	-0.0091
552.5528	-0.0036
552.7475	0.0005
552.9422	-0.0036
553.1369	0.0027
553.3316	-0.0042
553.5263	-0.0127
553.7209	0.0054
553.9156	-0.0038
554.1102	-0.0041
554.3048	-0.0062
554.4994	0.0113
554.694	-0.0015
554.8885	0.0029
555.0831	-0.009
555.2776	-0.0051
555.4721	-0.0008
555.6666	0.0005
555.8611	0.0096
556.0555	-0.0058
556.25	0.0047
556.4444	-0.0165
556.6388	0.0011
556.8332	0.0038
557.0276	0.007
557.222	-0.0044
557.4163	-0.0088
557.6107	-0.0032
557.805	-0.0046
557.9993	-0.0131
558.1936	0.0011
558.3879	0.0049
558.5821	0.0035
558.7764	-0.0042
558.9706	0.0007
559.1648	-0.0012
559.359	-0.0096
559.5532	-0.0053
559.7473	-0.008
559.9415	-0.0015
560.1356	-0.0028
560.3297	-0.0132
560.5238	-0.007
560.7179	-0.0034
560.9119	-0.0006
561.106	-0.0104
561.3	-0.0152
561.494	-0.006
561.688	0.0007
561.882	-0.0089
562.076	-0.0067
562.2699	-0.0015
562.4639	-0.0016
562.6578	0.0032
562.8517	0.009
563.0456	-0.0001
563.2395	-0.0025
563.4333	-0.0012
563.6272	0.0063
563.821	-0.0089
564.0148	-0.0025
564.2086	-0.0102
564.4024	0.0014
564.5961	-0.0044
564.7899	0.0055
564.9836	-0.0016
565.1773	0.004
565.371	0.0116
565.5647	0.0054
565.7584	-0.0021
565.952	0.0017
566.1456	0.0007
566.3393	0.0023
566.5329	-0.0038
566.7264	-0.006
566.92	-0.0093
567.1136	0.0059
567.3071	-0.005
567.5006	0.0005
567.6941	0.006
567.8876	0.0016
568.0811	-0.0149
568.2745	0.0011
568.468	0.0055
568.6614	-0.0092
568.8548	0.0013
569.0482	-0.003
569.2416	-0.0003
569.4349	0.0006
569.6283	0.0046
569.8216	-0.0016
570.0149	0.0023
570.2082	0.0033
570.4015	0.0048
570.5947	0.0003
570.788	0.003
570.9812	0.0035
571.1744	-0.0057
571.3676	-0.006
571.5608	-0.0066
571.754	0.0008
571.9471	0.0004
572.1402	-0.0022
572.3333	-0.0041
572.5264	-0.0079
572.7195	-0.002
572.9126	0.0003
573.1057	0.0006
573.2987	-0.0026
573.4917	0.003
573.6847	-0.0095
573.8777	0.0036
574.0707	-0.0013
574.2636	-0.0067
574.4566	-0.0034
574.6495	0.0022
574.8424	0.0019
575.0353	0.0014
575.2281	0.0004
575.421	0.001
575.6138	0.0027
575.8067	-0.0008
575.9995	0.0017
576.1923	0.0011
576.385	-0.0001
576.5778	0.0025
576.7706	-0
576.9633	0.005
577.156	0.005
577.3487	0.0006
577.5414	0.0071
577.734	-0.007
577.9267	0.0012
578.1193	-0.0087
578.3119	-0.0039
578.5045	0.0019
578.6971	0.0051
578.8897	0.0023
579.0822	-0.0047
579.2747	-0.0079
579.4673	-0.0047
579.6598	0.0002
579.8522	0.0007
580.0447	-0.0039
580.2372	-0.0046
580.4296	0.0004
580.622	-0.0053
580.8144	0.0018
581.0068	-0.003
581.1992	-0.0095
581.3915	-0.0054
581.5839	-0.0107
581.7762	-0.0078
581.9685	-0.0062
582.1608	0.0055
582.353	-0.0017
582.5453	-0.0026
582.7375	-0.0001
582.9298	0.0023
583.122	0.0015
583.3142	-0.0026
583.5063	0.0032
583.6985	-0.0023
583.8906	-0.0059
584.0827	-0.0048
584.2749	0.0077
584.4669	0.0023
584.659	0.0002
584.8511	0.0003
585.0431	-0.0026
585.2352	0.0013
585.4272	-0.0034
585.6192	0.0017
585.8111	0.0008
586.0031	-0.0014
586.195	-0.0011
586.387	0.0066
586.5789	-0.0041
586.7708	-0.0015
586.9627	-0.0037
587.1545	-0.0053
587.3464	0.0036
587.5382	0.0065
587.73	0.0006
587.9218	0.0059
588.1136	-0.0024
588.3053	0.0067
588.4971	-0.0037
588.6888	0.0003
588.8805	-0.0001
589.0722	0.0002
589.2639	-0.0007
589.4556	-0.0032
589.6472	-0.0007
589.8389	-0.0047
590.0305	-0.0133
590.2221	0.0022
590.4137	-0.0091
590.6052	0.0044
590.7968	-0.0031
590.9883	-0.0011
591.1798	-0.0046
591.3713	-0.0076
591.5628	0.0046
591.7543	0.0019
591.9458	0.0005
592.1372	0.0037
592.3286	0.0016
592.52	0.0034
592.7114	-0.0072
592.9028	-0.0018
593.0941	-0.0055
593.2855	0
593.4768	-0.0049
593.6681	-0.003
593.8594	0.0007
594.0506	-0.0003
594.2419	0.0034
594.4331	0.0005
594.6244	0.0015
594.8156	-0.0084
595.0067	-0.0015
595.1979	-0.0008
595.3891	0.0015
595.5802	-0.0031
595.7713	-0.0086
595.9624	-0.0089
596.1535	0.0009
596.3446	-0.0026
596.5357	-0.0027
596.7267	0.0033
596.9177	-0.0031
597.1087	-0.0035
597.2997	0.0005
597.4907	0.0027
597.6817	-0.0008
597.8726	0.0003
598.0635	-0.0054
598.2544	-0.0028
598.4453	-0.0087
598.6362	-0.0003
598.827	-0.0074
599.0179	0.0045
599.2087	0.0012
599.3995	-0.0016
599.5903	-0.003
599.7811	0.0021
599.9718	-0.0056
600.1626	-0.0046
600.3533	-0.0092
600.544	-0.006
600.7347	-0.0072
600.9254	0.0014
601.116	-0.0106
601.3067	0.0014
601.4973	-0.0035
601.6879	0.0014
601.8785	0.0025
602.0691	0.0051
602.2596	0.0043
602.4502	-0.0022
602.6407	0.003
602.8312	-0.0007
603.0217	-0.0106
603.2122	-0.0046
603.4027	-0.0053
603.5931	0.0001
603.7835	-0.0058
603.9739	-0.01
604.1643	0.0008
604.3547	-0.009
604.5451	-0.0015
604.7354	-0.005
604.9257	0.0002
605.116	-0.0032
605.3063	0.0008
605.4966	0.0043
605.6869	-0.0045
605.8771	0.0007
606.0673	0.0048
606.2575	0.0061
606.4477	0.0082
606.6379	0.0022
606.8281	-0.0058
607.0182	-0.0007
607.2083	0.0108
607.3985	-0.0007
607.5885	0.0011
607.7786	-0.0037
607.9687	-0.0057
608.1587	0.0072
608.3488	0.0087
608.5388	0.0033
608.7288	-0.0072
608.9187	-0.0032
609.1087	-0.0076
609.2986	-0.0075
609.4886	-0.0007
609.6785	0.0015
609.8684	0.006
610.0582	0.0036
610.2481	0.0043
610.4379	0.0062
610.6278	-0.006
610.8176	0.0006
611.0074	-0.0017
611.1971	-0.0062
611.3869	-0.0022
611.5766	-0.0101
611.7664	0.0044
611.9561	0.0062
612.1458	-0.0008
612.3354	-0.0083
612.5251	0.0017
612.7147	0.0043
612.9044	-0.001
613.094	-0.0121
613.2836	-0.0048
613.4731	-0.0003
613.6627	-0.0017
613.8522	-0.0033
614.0417	0.0053
614.2313	-0.0061
614.4207	-0.0053
614.6102	0.0004
614.7997	-0.0031
614.9891	-0.0088
615.1785	-0.0032
615.3679	-0.007
615.5573	0.0072
615.7467	0.0005
615.9361	-0.0058
616.1254	-0.0032
616.3147	-0.0024
616.504	0.0019
616.6933	0.0064
616.8826	0.0017
617.0718	0.0079
617.2611	0.0019
617.4503	-0.0058
617.6395	-0.0024
617.8287	-0.0017
618.0179	-0.0026
618.207	0.0096
618.3961	0.0014
618.5853	-0.0027
618.7744	0.0051
618.9634	0.0013
619.1525	-0.0008
619.3416	-0.0039
619.5306	0.0013
619.7196	0.0004
619.9086	-0.004
620.0976	0.0006
620.2866	-0.0031
620.4755	0.003
620.6645	-0
620.8534	-0.002
621.0423	0.0054
621.2312	0.0026
621.42	-0.0013
621.6089	0.0008
621.7977	0.0028
621.9865	-0.0054
622.1753	0.0107
622.3641	0.0005
622.5529	0.0124
622.7416	0.0067
622.9303	-0.0012
623.1191	0.0052
623.3078	-0.0015
623.4964	0.0015
623.6851	0.0019
623.8737	-0.0046
624.0624	-0.0018
624.251	-0.0035
624.4396	-0.0038
624.6282	-0.003
624.8167	-0.003
625.0053	-0.0004
625.1938	0.0046
625.3823	0.0013
625.5708	0.0011
625.7593	-0.004
625.9477	-0.0052
626.1362	-0.0071
626.3246	0.0001
626.513	-0.0003
626.7014	0.0072
626.8898	-0.0011
627.0781	-0.0007
627.2665	-0.0004
627.4548	0.0084
627.6431	0.0018
627.8314	0.0079
628.0197	-0.0039
628.2079	-0.0032
628.3962	-0.0004
628.5844	-0.0014
628.7726	0.0087
628.9608	0.004
629.1489	-0.0054
629.3371	0.0033
629.5252	-0.0034
629.7134	0.0068
629.9015	0.0047
630.0895	-0.0001
630.2776	-0.0007
630.4657	-0.0028
630.6537	-0.004
630.8417	0.0014
631.0297	-0.0063
631.2177	0.006
631.4057	-0.0093
631.5936	0.0008
631.7815	-0.0018
631.9695	-0.0009
632.1574	0.0005
632.3452	0.0043
632.5331	-0.0009
632.7209	-0.0029
632.9088	0.0043
633.0966	-0.0019
633.2844	0.0082
633.4722	-0.005
633.6599	0.0044
633.8477	-0.0002
634.0354	-0.0041
634.2231	-0.0057
634.4108	0.0031
634.5985	0.0087
634.7861	0.0051
634.9738	0.0036
635.1614	0.0048
635.349	0.0025
635.5366	-0.0017
635.7242	0.0047
635.9117	0.0055
636.0993	-0.0031
636.2868	0.0021
636.4743	-0.0004
636.6618	0.004
636.8492	0.002
637.0367	-0.0014
637.2241	-0.0049
637.4115	0.0049
637.5989	-0.0057
637.7863	-0.0016
637.9737	-0.0004
638.161	0.0066
638.3484	-0.0059
638.5357	0.007
638.723	-0.0089
638.9103	0.0026
639.0975	-0.0023
639.2848	-0.0018
639.472	-0.0029
639.6592	0.0032
639.8464	0.0106
640.0336	0.0061
640.2208	-0.0033
640.4079	-0.0054
640.595	0.0013
640.7821	0.0009
640.9692	0.0043
641.1563	0.0019
641.3434	0.0053
641.5304	-0.0035
641.7174	-0.0089
641.9044	0.0047
642.0914	-0.0015
642.2784	0.0004
642.4653	0.002
642.6523	-0.0027
642.8392	-0.0067
643.0261	0.0022
643.213	0.0021
643.3999	-0.0107
643.5867	-0.0081
643.7735	-0.004
643.9604	-0.0061
644.1472	0.0002
644.3339	0.0062
644.5207	-0.0021
644.7075	-0.0001
644.8942	0.0061
645.0809	0.0093
645.2676	0.0068
645.4543	-0.0001
645.6409	0.0021
645.8276	-0.003
646.0142	-0.0034
646.2008	-0.0011
646.3874	-0.004
646.574	-0.0009
646.7605	-0.0057
646.9471	-0.0094
647.1336	-0.0006
647.3201	0.0016
647.5066	-0.0024
647.6931	0.0076
647.8795	-0.0039
648.0659	0.0039
648.2524	0.0042
648.4388	-0.0096
648.6252	0.003
648.8115	0.0011
648.9979	-0.0041
649.1842	0.0064
649.3705	0.0017
649.5568	0.0036
649.7431	0.0054
649.9294	-0.0031
650.1156	0.0031
650.3018	-0.0028
650.488	-0.0064
650.6742	0.0077
650.8604	-0.0033
651.0466	0.0014
651.2327	-0.0014
651.4188	-0.0027
651.6049	-0.0019
651.791	-0.0014
651.9771	-0.0039
652.1632	-0.0036
652.3492	0.0065
652.5352	-0.0037
652.7212	0.0026
652.9072	0.0074
653.0932	-0.0038
653.2791	-0.0017
653.465	0.0016
653.651	-0.0042
653.8369	-0.0035
654.0227	-0.0039
654.2086	0.003
654.3944	-0.0002
654.5803	-0.0002
654.7661	-0.0055
654.9519	0
655.1377	-0.0022
655.3234	0.0006
655.5092	-0.0037
655.6949	-0.0051
655.8806	-0.0072
656.0663	-0.0038
656.2519	-0.0037
656.4376	-0.0011
656.6232	0.0039
656.8088	-0.002
656.9945	-0.0015
657.18	0.0006
657.3656	0.0036
657.5511	-0.0026
657.7367	-0.008
657.9222	0.0079
658.1077	0.0035
658.2932	-0.0019
658.4786	-0.0091
658.6641	0.0009
658.8495	-0.0057
659.0349	-0.009
659.2203	0.0057
659.4057	-0.0015
659.591	0.0049
659.7764	0.0009
659.9617	0.0072
660.147	-0.0026
660.3323	-0.002
660.5176	0.0096
660.7028	0.0025
660.888	0.0036
661.0733	0.0052
661.2585	-0.0064
661.4436	-0.0015
661.6288	-0.0124
661.8139	0.0021
661.9991	0.0012
662.1842	-0.0053
662.3693	0.0016
662.5544	-0.0098
662.7394	-0.0018
662.9245	-0.0007
663.1095	0.001
663.2945	-0.0021
663.4795	-0.0054
663.6644	0.006
663.8494	-0.0061
664.0343	-0.0001
664.2193	-0.0056
664.4042	0.0017
664.589	-0.0053
664.7739	0.0015
664.9587	-0.0085
665.1436	-0.0015
665.3284	0.0059
665.5132	-0.0021
665.698	0.003
665.8827	-0.0025
666.0675	0.0006
666.2522	-0.0053
666.4369	0.0007
666.6216	0.0069
666.8063	0.0023
666.9909	-0.0017
667.1756	-0.0044
667.3602	-0.0038
667.5448	-0.0007
667.7294	0.0058
667.9139	0.006
668.0985	0.0115
668.283	0.0038
668.4675	-0.004
668.652	0.0054
668.8365	-0.001
669.0209	-0.0018
669.2054	0.0126
669.3898	0.0009
669.5742	0.0043
669.7586	0.0079
669.943	0.0071
670.1273	0.0016
670.3117	-0.0021
670.496	0.0028
670.6803	0.0046
670.8646	-0.0012
671.0488	-0.0027
671.2331	0.0047
671.4173	0.0014
671.6015	-0.0079
671.7857	0.001
671.9699	-0.0008
672.1541	0.0014
672.3382	-0.0007
672.5223	0.0033
672.7064	0.0006
672.8905	0.0118
673.0746	-0.0041
673.2587	-0.0037
673.4427	0.0011
673.6267	0.0069
673.8107	0.0099
673.9947	0.0039
674.1787	0.0073
674.3626	-0.0014
674.5465	-0.0005
674.7304	0.0023
674.9143	0.0069
675.0982	0.0083
675.2821	-0.0084
675.4659	0.006
675.6497	-0.0036
675.8335	-0.0043
676.0173	0.0022
676.2011	-0.0024
676.3849	-0.0036
676.5686	-0.0093
676.7523	-0.0004
676.936	-0.0054
677.1197	-0.0059
677.3034	-0.0045
677.487	-0.002
677.6706	0.0007
677.8542	0.0008
678.0378	0.0042
678.2214	-0.0047
678.405	0.0021
678.5885	-0.01
678.772	0.0004
678.9555	-0.0054
679.139	-0.0009
679.3225	0.0001
679.5059	-0.0013
679.6894	-0.0046
679.8728	-0.0058
680.0562	-0.0048
680.2395	-0.0096
680.4229	-0.0006
680.6062	0.005
680.7896	0.0037
680.9729	-0.0069
681.1562	0.0061
681.3394	-0.0036
681.5227	-0.0105
681.7059	0.0033
681.8891	0.0045
682.0723	0.0035
682.2555	-0.0022
682.4387	-0.0029
682.6218	0.0025
682.805	0.0046
682.9881	0.0076
683.1712	-0.0035
683.3542	-0.0004
683.5373	0.0043
683.7203	-0.0093
683.9034	0.0021
684.0864	-0.0051
684.2694	-0.0008
684.4523	-0.0023
684.6353	-0.0096
684.8182	0.0004
685.0011	-0.0094
685.184	0.0005
685.3669	-0.0072
685.5498	0.0072
685.7326	-0.0058
685.9154	-0.0055
686.0982	0.0065
686.281	0.0038
686.4638	0.0087
686.6465	-0.0086
686.8293	-0.0027
687.012	0.0055
687.1947	-0.0081
687.3774	-0.0064
687.56	-0.0041
687.7427	0.0021
687.9253	-0.0022
688.1079	-0.0048
688.2905	0.0018
688.4731	-0.004
688.6556	-0.0043
688.8382	0.0018
689.0207	0.0035
689.2032	-0.0108
689.3857	-0.0103
689.5681	0.0007
689.7506	-0.0055
689.933	-0.0062
690.1154	-0.0015
690.2978	0.0046
690.4802	-0.0022
690.6626	-0.0086
690.8449	-0.0059
691.0272	0.0053
691.2095	-0.0097
691.3918	-0.0099
691.5741	0.0003
691.7563	-0.0049
691.9386	0.0003
692.1208	0.0037
692.303	0.0055
692.4852	0.0004
692.6673	0.0046
692.8495	0.002
693.0316	-0.0008
693.2137	0.008
693.3958	-0.0007
693.5778	-0.0004
693.7599	-0.0068
693.9419	0.0001
694.1239	-0.003
694.3059	0.0031
694.4879	0.0062
694.6699	0.0025
694.8518	-0.0003
695.0337	0.0007
695.2157	0.0066
695.3975	-0.0014
695.5794	0.0058
695.7613	0.0018
695.9431	0.0044
696.1249	0.001
696.3067	0.0018
696.4885	0.0112
696.6703	-0.0001
696.852	0.0012
697.0337	0.0078
697.2154	0.0124
697.3971	0
697.5788	0.0016
697.7605	-0.0004
697.9421	0.0022
698.1237	0.0023
698.3053	0.0079
698.4869	-0.0007
698.6685	0.0005
698.85	0.0054
699.0315	0.0162
699.213	0.0055
699.3945	0.0029
699.576	0.0103
699.7575	0.009
699.9389	0.0144
700.1203	-0.0016
700.3017	-0.0094
700.4831	-0.0115
700.6645	-0.0026
700.8458	-0.0004
701.0271	-0.0005
701.2084	0.0036
701.3897	-0.0077
701.571	0.0022
701.7523	-0.0114
701.9335	-0.0037
702.1147	-0.0023
702.2959	0.0015
702.4771	0.0031
702.6583	-0.0041
702.8394	-0.0091
703.0205	0.001
703.2016	-0.0049
703.3827	0.0013
703.5638	0.0059
703.7449	0.0064
703.9259	0.0113
704.1069	-0.0038
704.2879	0.0026
704.4689	0.0099
704.6499	0.0009
704.8308	0.0012
705.0117	0.0035
705.1927	0.0028
705.3735	-0.0016
705.5544	-0.0077
705.7353	-0.0047
705.9161	-0.0085
706.0969	-0.0105
706.2777	-0.0014
706.4585	-0.0082
706.6393	0.0039
706.82	-0.0072
707.0007	0.0044
707.1815	0.0007
707.3621	0.0106
707.5428	-0.0027
707.7235	0.0043
707.9041	-0.0046
708.0847	-0.0084
708.2653	-0.0085
708.4459	-0.0129
708.6265	-0.0013
708.807	-0.0056
708.9875	0.0047
709.168	-0.0055
709.3485	-0.003
709.529	-0.0064
709.7095	-0.0097
709.8899	-0.0034
710.0703	-0.0182
710.2507	0.0012
710.4311	-0.0054
710.6115	-0.0113
710.7918	-0.0115
710.9721	-0.0129
711.1524	-0.0106
711.3327	0.0028
711.513	0.0071
711.6932	0.0061
711.8735	0.0115
712.0537	0.0081
712.2339	0.0046
712.4141	-0.0103
712.5942	-0.0061
712.7744	-0.0028
712.9545	-0.0049
713.1346	-0.0064
713.3147	-0.0008
713.4947	-0.0045
713.6748	-0.0066
713.8548	-0.0056
714.0348	-0.0051
714.2148	-0.0021
714.3948	-0.0002
714.5748	-0.0051
714.7547	-0.0017
714.9346	0.0026
715.1145	-0.0075
715.2944	-0.0095
715.4743	-0.0029
715.6541	-0.0025
715.834	0.0023
716.0138	-0.0063
716.1936	-0.0163
716.3733	-0.0063
716.5531	-0.001
716.7328	0.0001
716.9126	0.001
717.0923	0.0055
717.2719	0.008
717.4516	0.0094
717.6312	0.0035
717.8109	-0.0063
717.9905	0.004
718.1701	-0.0005
718.3496	-0.0099
718.5292	0.0022
718.7087	0.0109
718.8882	0.0021
719.0677	0.0049
719.2472	-0.0025
719.4267	0.0044
719.6061	-0.0045
719.7856	0.0104
719.965	0.0039
720.1443	-0.0042
720.3237	0.014
720.5031	0.0081
720.6824	0.0094
720.8617	-0.0026
721.041	0.004
721.2203	0.0049
721.3995	0.0056
721.5788	-0.0026
721.758	-0.0008
721.9372	-0.008
722.1164	-0.0049
722.2956	0.0028
722.4747	0.0048
722.6538	-0.0055
722.8329	0.006
723.012	0.0017
723.1911	-0.0029
723.3702	-0.002
723.5492	-0.0007
723.7282	-0.0104
723.9072	-0.0053
724.0862	-0.0035
724.2652	-0.0069
724.4441	-0.0081
724.623	-0.0039
724.8019	-0.0025
724.9808	-0.001
725.1597	-0.0095
725.3385	0.002
725.5174	0.0003
725.6962	-0.0026
725.875	-0.0009
726.0538	0.0041
726.2325	-0.0027
726.4112	0.0047
726.59	-0.0023
726.7687	-0.0062
726.9474	0.0064
727.126	-0.0003
727.3047	-0.0009
727.4833	0.0016
727.6619	-0.003
727.8405	-0.007
728.0191	0.0015
728.1976	0.0014
728.3762	-0.0019
728.5547	-0.0002
728.7332	-0.0056
728.9116	-0.0008
729.0901	0.0026
729.2686	-0.0139
729.447	-0.01
729.6254	-0.0068
729.8038	-0.011
729.9821	-0.013
730.1605	0.0062
730.3388	0.0011
730.5171	0.0015
730.6954	-0.0085
730.8737	0.0069
731.0519	0.0074
731.2302	-0.0035
731.4084	0.0007
731.5866	0.0035
731.7648	-0.0016
731.9429	-0.0022
732.1211	-0.0088
732.2992	-0.0036
732.4773	-0.0121
732.6554	-0.0105
732.8335	-0.0054
733.0115	-0.0068
733.1896	0.0025
733.3676	-0.0087
733.5456	0.008
733.7235	-0.0013
733.9015	0.003
734.0794	-0.008
734.2574	-0.0042
734.4353	-0.0118
734.6131	0.0057
734.791	-0.0069
734.9689	-0.0045
735.1467	-0.0006
735.3245	-0.0139
735.5023	-0.0103
735.68	0.0025
735.8578	0.0061
736.0355	-0.0181
736.2132	-0.0116
736.3909	-0.0033
736.5686	-0.0088
736.7463	0.0066
736.9239	-0.0047
737.1015	-0.0046
737.2791	0.0018
737.4567	-0.0045
737.6343	-0.0106
737.8118	0.0041
737.9894	0.0051
738.1669	-0.002
738.3444	-0.0059
738.5218	0.001
738.6993	-0.0003
738.8767	-0.0093
739.0541	0.0048
739.2315	-0.0172
739.4089	-0.01
739.5863	-0.0001
739.7636	-0.0081
739.9409	0.0076
740.1182	0.0034
740.2955	0.0028
740.4728	-0.0076
740.65	-0.0006
740.8272	-0.0017
741.0044	-0.0029
741.1816	0.006
741.3588	-0.0033
741.5359	0.0043
741.7131	-0.0132
741.8902	-0.0029
742.0673	-0.0086
742.2444	-0.0104
742.4214	-0.0137
742.5985	-0.0004
742.7755	-0.0088
742.9525	-0.0141
743.1295	-0.0082
743.3064	0.0018
743.4834	0.0017
743.6603	-0.0084
743.8372	0.0003
744.0141	-0.005
744.191	-0.0001
744.3678	0.0048
744.5446	0.0024
744.7215	0.0004
744.8982	-0.0064
745.075	-0.0087
745.2518	-0.0025
745.4285	-0.0066
745.6052	-0.0122
745.7819	-0.0085
745.9586	-0.0125
746.1353	-0.0146
746.3119	-0.008
746.4885	-0.0116
746.6651	-0.0186
746.8417	-0.0167
747.0183	-0.0098
747.1948	-0.0178
747.3714	-0.0075
747.5479	0.0006
747.7244	-0.0088
747.9008	-0.0061
748.0773	-0.0069
748.2537	-0.0108
748.4301	-0.0187
748.6065	-0.0089
748.7829	-0.0057
748.9593	-0.0125
749.1356	-0.0098
749.3119	0.0042
749.4882	-0.0119
749.6645	-0.0002
749.8408	-0.0117
750.017	-0.0059
750.1933	-0.0044
750.3695	-0.001
750.5457	-0.0001
750.7218	-0.0058
750.898	0.0002
751.0741	-0.0096
751.2502	-0.0063
751.4263	-0.0024
751.6024	0.0028
751.7784	-0.0174
751.9545	-0.0159
752.1305	-0.0048
752.3065	-0.0101
752.4825	-0.0015
752.6584	-0.0179
752.8344	-0.0079
753.0103	-0.0101
753.1862	-0.0093
753.3621	-0.0058
753.5379	-0.0131
753.7138	-0.0046
753.8896	-0.005
754.0654	0.0001
754.2412	0.002
754.417	-0.0009
754.5927	-0.0049
754.7685	0.0002
754.9442	0.0002
755.1199	0.0161
755.2956	-0.0091
755.4712	0.0108
755.6469	0
755.8225	-0.0009
755.9981	0.0017
756.1736	0.0098
756.3492	0.0013
756.5248	0.0033
756.7003	-0.0035
756.8758	0.0168
757.0513	0
757.2267	0.0007
757.4022	-0.0036
757.5776	-0.0047
757.753	0.0027
757.9284	-0.0068
758.1038	0.0087
758.2791	0.003
758.4545	-0.014
758.6298	-0.0054
758.8051	-0.0024
758.9803	-0.008
759.1556	-0.0067
759.3308	-0.0062
759.506	-0.0029
759.6812	-0.0028
759.8564	0.0101
760.0316	0.002
760.2067	0.0127
760.3819	0.0108
760.557	0.0134
760.732	0.0107
760.9071	-0.0055
761.0821	0.0027
761.2572	0.0116
761.4322	-0.0087
761.6072	-0.0027
761.7821	-0.0023
761.9571	0.0053
762.132	-0.0065
762.3069	-0.0126
762.4818	-0.008
762.6567	0.0014
762.8316	-0.0025
763.0064	-0.0011
763.1812	-0.0039
763.356	-0.0139
763.5308	-0.004
763.7055	-0.0024
763.8803	-0.0077
764.055	0.0004
764.2297	-0.0025
764.4044	-0.0122
764.579	-0.0107
764.7537	-0.0127
764.9283	-0.0051
765.1029	-0.0065
765.2775	-0.0071
765.4521	-0.0131
765.6266	-0.005
765.8011	-0.0056
765.9756	-0.0008
766.1501	-0.0031
766.3246	-0.003
766.4991	-0.0054
766.6735	-0.0046
766.8479	-0.0142
767.0223	0.0103
767.1967	-0.018
767.371	0.005
767.5454	-0.008
767.7197	-0.0047
767.894	-0.0101
768.0683	-0.0095
768.2425	-0.0059
768.4168	-0.0012
768.591	-0.0063
768.7652	-0.0069
768.9394	-0.011
769.1135	0.0003
769.2877	-0.0033
769.4618	-0.0126
769.6359	-0.0074
769.81	0.004
769.984	-0.0055
770.1581	-0.005
770.3321	0.0038
770.5061	-0.0011
770.6801	-0.0075
770.8541	-0.0151
771.028	-0.003
771.202	-0.0145
771.3759	-0.0004
771.5498	-0.0038
771.7236	0.0009
771.8975	-0.0058
772.0713	-0.0032
772.2451	-0.0021
772.4189	-0.0021
772.5927	0.0092
772.7665	0.0073
772.9402	-0.0038
773.1139	-0.0037
773.2876	-0.0039
773.4613	0.0114
773.635	-0.0038
773.8086	-0.0178
773.9822	-0.0049
774.1558	-0.0025
774.3294	-0.0133
774.503	0.0003
774.6765	0.0029
774.8501	0.0061
775.0236	0.0087
775.1971	-0.0009
775.3705	0.0015
775.544	0.0067
775.7174	-0.0089
775.8908	-0.0009
776.0642	-0.0049
776.2376	0.0007
776.4109	-0.0123
776.5843	-0.0081
776.7576	0.0068
776.9309	-0.0045
777.1041	0.0028
777.2774	0.0139
777.4506	-0.0065
777.6238	-0.0075
777.797	0.0036
777.9702	-0.0113
778.1434	-0.0073
778.3165	-0.0191
778.4896	-0.0109
778.6627	0.011
778.8358	-0.0019
779.0089	-0.002
779.1819	-0.0037
779.3549	-0.0037
779.5279	0.0019
779.7009	0.0005
779.8739	-0.0004
780.0468	0.0067
780.2197	0.0029
780.3926	-0.0103
780.5655	-0.0006
780.7384	-0.0174
780.9112	-0.004
781.0841	-0.0026
781.2569	0.0009
781.4297	-0.0087
781.6024	0.0084
781.7752	0.0087
781.9479	0.0001
782.1206	-0.0104
782.2933	-0.0152
782.466	-0.0017
782.6386	0.0026
782.8113	-0.0079
782.9839	-0.0011
783.1565	0.0049
783.329	-0.0033
783.5016	0.0109
783.6741	0.0018
783.8466	-0.0004
784.0191	-0.0032
784.1916	-0.0069
784.3641	-0.0003
784.5365	0.0107
784.7089	-0.0037
784.8813	-0.0055
785.0537	-0.0016
785.2261	-0.0125
785.3984	-0.0128
785.5707	-0.0045
785.743	0.0017
785.9153	-0.0059
786.0876	-0.0001
786.2598	-0.0172
786.432	-0.016
786.6042	-0.0146
786.7764	-0.0071
786.9486	-0.001
787.1207	-0.0182
787.2928	-0.0039
787.4649	0.0071
787.637	0
787.8091	-0.0006
787.9811	-0.0162
788.1532	-0.0106
788.3252	0.0095
788.4972	-0.0105
788.6691	-0.0028
788.8411	-0.0081
789.013	-0.0062
789.1849	0.0067
789.3568	-0.0073
789.5287	-0.0028
789.7005	-0.0037
789.8723	-0.0001
790.0442	0.0068
790.2159	-0.0013
790.3877	-0.0054
790.5595	-0.0177
790.7312	-0.0061
790.9029	0.0013
791.0746	-0.0056
791.2463	-0.0022
791.4179	-0.0018
791.5896	-0.0127
791.7612	0.0165
791.9328	-0.0005
792.1044	-0.0134
792.2759	-0.0139
792.4474	-0.0143
792.619	0.0038
792.7905	-0.0083
792.9619	-0.0028
793.1334	0.0112
793.3048	0.0092
793.4762	-0.0059
793.6476	0.0019
793.819	-0.0134
793.9904	0.0121
794.1617	-0.0271
794.333	-0.0148
794.5043	-0.0122
794.6756	-0.0053
794.8469	-0.0108
795.0181	0.0099
795.1893	-0.0116
795.3605	0.0077
795.5317	-0.0042
795.7029	-0.0068
795.874	-0.0074
796.0452	-0.0065
796.2163	0.0019
796.3873	0.003
796.5584	0.0021
796.7294	-0.0081
796.9005	0.0053
797.0715	0.0069
797.2425	-0.0089
797.4134	-0.0181
797.5844	0.0089
797.7553	-0.0073
797.9262	0.0017
798.0971	-0.0112
798.2679	-0.0105
798.4388	-0.0215
798.6096	-0.0105
798.7804	0.003
798.9512	-0.0209
799.122	-0.014
799.2927	-0.0079
799.4635	0.0241
799.6342	-0.0136
799.8049	-0.0077
799.9755	-0.0023
800.1462	-0.0137
800.3168	0.0029
800.4874	-0.005
800.658	0.0224
800.8286	-0.0015
800.9991	-0.004
801.1696	0.0141
801.3402	0.0041
801.5106	-0.0104
801.6811	-0.0039
801.8516	0.0184
802.022	0.001
802.1924	-0.0057
802.3628	0.0086
802.5332	0.0045
802.7035	0.0184
802.8739	-0.0079
803.0442	-0.0019
803.2145	0.0168
803.3847	-0.0179
803.555	-0.0044
803.7252	-0.0102
803.8954	-0.0094
804.0656	-0.023
804.2358	0.0064
804.4059	-0.0014
804.5761	0.0162
804.7462	-0.0163
804.9163	-0.0208
805.0864	-0.0115
805.2564	-0.0031
805.4264	-0.0113
805.5965	-0.0082
805.7665	0.0162
805.9364	0.0011
806.1064	0.0179
806.2763	0.0035
806.4462	0.0135
806.6161	0.0152
806.786	-0.0052
806.9559	-0.0123
807.1257	-0.0094
807.2955	0.0108
807.4653	-0.0117
807.6351	-0.0098
807.8048	-0.0183
807.9746	-0.0058
808.1443	-0.0029
808.314	-0.0021
808.4837	-0.0033
808.6533	-0.0094
808.8229	0.0128
808.9926	-0.0143
809.1622	0.0065
809.3317	-0.0263
809.5013	-0.0027
809.6708	0.0109
809.8403	0.0218
810.0098	-0.0063
810.1793	0.0064
810.3488	-0.0148
810.5182	-0.0111
810.6876	-0.0027
810.857	-0.0226
811.0264	0.01
811.1958	-0.0156
811.3651	0.0021
811.5344	0.0021
811.7037	-0.0119
811.873	-0.0216
812.0422	-0.0052
812.2115	0.0044
812.3807	0.0058
812.5499	0.009
812.7191	0.0098
812.8882	-0.0084
813.0574	-0.0173
813.2265	-0.0078
813.3956	-0.0287
813.5646	-0.0133
813.7337	-0.0123
813.9027	0.0104
814.0718	0.0139
814.2407	0.0057
814.4097	-0.0156
814.5787	-0.0232
814.7476	-0.0111
814.9165	0.0028
815.0854	-0.0053
815.2543	-0.0048
815.4232	-0.0081
815.592	0.0234
815.7608	0.0033
815.9296	-0.0078
816.0984	-0.0032
816.2671	0.0066
816.4359	-0.0221
816.6046	0.015
816.7733	0.0019
816.942	-0.0297
817.1106	-0.0003
817.2793	-0.0062
817.4479	-0.0129
817.6165	-0.0106
817.785	0.0067
817.9536	-0.027
818.1221	-0.0164
818.2906	-0.0101
818.4591	-0.0097
818.6276	-0.0375
818.7961	-0.0069
818.9645	0.0176
819.1329	0.0142
819.3013	0.0251
819.4697	0.0087
819.638	0.0136
819.8064	0.0017
819.9747	0.0007
820.143	-0.0046
820.3113	-0.0097
820.4795	0.0067
820.6477	0.0219
820.816	0.0096
820.9842	-0.0124
821.1523	-0.0021
821.3205	0.0032
821.4886	0.0095
821.6567	0.0033
821.8248	0.0014
821.9929	-0.0115
822.1609	-0.0082
822.329	0.0194
822.497	0.0187
822.665	0.0116
822.833	-0.0222
823.0009	0.0046
823.1688	0.0015
823.3367	0.0236
823.5046	-0.003
823.6725	0.0265
823.8404	-0.0019
824.0082	-0.0112
824.176	0.004
824.3438	-0.0094
824.5116	-0.0224
824.6793	0.0224
824.847	-0.0166
825.0147	-0.0146
825.1824	0.0168
825.3501	0.017
825.5177	-0.0374
825.6854	0.0048
825.853	-0.0219
826.0206	-0.0074
826.1881	0.0109
826.3557	-0.0362
826.5232	-0.0157
826.6907	-0.0189
826.8582	-0.022
827.0257	-0.0294
827.1931	-0.0275
827.3605	0.0014
827.528	-0.02
827.6953	-0.0297
827.8627	-0.0115
828.03	0.0221
828.1974	-0.0125
828.3647	-0.0318
828.532	-0.0286
828.6992	-0.0309
828.8665	-0.0268
829.0337	-0.001
829.2009	0.0343
829.3681	-0.0218
829.5352	0.0266
829.7024	-0.0048
829.8695	-0.0213
830.0366	0.0351
830.2037	-0.009
830.3707	0.0323
830.5378	0.0006
830.7048	-0.0086
830.8718	0.0105
831.0388	-0.0309
831.2057	0.0049
831.3727	0.0214
831.5396	-0.0312
831.7065	-0.0379
831.8734	0.0011
832.0402	-0.014
832.2071	-0.0028
832.3739	0.0305
832.5407	0.0103
832.7075	-0.0353
832.8742	-0.0453
833.041	-0.0424
833.2077	0.0062
833.3744	0.006
833.541	-0.0083
833.7077	-0.0153
833.8743	-0.0435
834.0409	-0.0391
834.2075	-0.0358
834.3741	-0.0416
834.5407	-0.0056
834.7072	0.0064
834.8737	-0.0219
835.0402	-0.0184
835.2067	0.0432
835.3731	0.0114
835.5395	0.0452
835.706	0.0118
835.8723	-0.0007
836.0387	0.0166
836.2051	-0.0256
836.3714	0.009
836.5377	-0.0027
836.704	-0.0229
836.8703	0.0354
837.0365	0.0052
837.2027	-0.0376
837.3689	0.0157
837.5351	-0.011
837.7013	-0.0117
837.8674	-0.0424
838.0335	-0.0453
838.1997	0.0042
838.3657	0.0162
838.5318	-0.0389
838.6978	-0.021
838.8639	0.0129
839.0299	-0.0034
839.1958	0.0209
839.3618	0.0202
839.5277	-0.0025
839.6937	0.0118
839.8596	-0.0062
840.0254	0.0144
840.1913	0.0092
840.3571	0.0089
840.523	0.0021
840.6888	-0.0461
840.8545	-0.0473
841.0203	-0.0229
841.186	0.0149
841.3517	0.0365
841.5174	-0.0254
841.6831	0.0001
841.8488	-0.0141
842.0144	0.0001
842.18	0.0172
842.3456	-0.0147
842.5112	-0.0255
842.6767	-0.0526
842.8422	-0.0136
843.0077	0.0179
843.1732	0.0216
843.3387	-0.0502
843.5042	-0.0389
843.6696	-0.0335
843.835	-0.0584
844.0004	0.0649
844.1657	0.0123
844.3311	0.0159
844.4964	-0.0799
844.6617	0.0023
844.827	-0.0482
844.9923	0.0024
845.1575	0.0426
845.3227	0.0142
845.4879	0.0256
845.6531	-0.0444
845.8183	-0.0771
845.9834	0.0489
846.1485	-0.0424
846.3136	-0.0491
846.4787	-0.0688
846.6438	0.0221
846.8088	-0.0092
846.9738	-0.0479
847.1388	-0.0285
847.3038	0.0032
847.4687	-0.1129
847.6337	0.0408
847.7986	0.0275
847.9635	-0.0242
848.1284	0.0462
848.2932	-0.0195
848.458	0.0449
848.6228	0.0925
848.7876	-0.0041
848.9524	-0.0827
849.1172	-0.0752
849.2819	0.0473
849.4466	-0.074
849.6113	-0.1236
849.7759	-0.0578
849.9406	-0.02
850.1052	0.0785
850.2698	-0.0761
850.4344	0.0121
850.599	-0.0634
850.7635	0.0492
850.928	0.0605
851.0925	0.0198
851.257	0.0733
851.4215	0.0564
851.5859	-0.0797
851.7503	-0.0478
851.9147	0.0525
852.0791	-0.0069
852.2434	-0.0713
852.4078	0.0662
852.5721	0.0719
852.7364	-0.0079
852.9007	-0.2274
853.0649	0.0021
853.2291	0.0259
853.3934	-0.052
853.5575	-0.0098
853.7217	-0.1219
853.8859	-0.1943
854.05	-0.2146
854.2141	-0.1034
854.3782	-0.1767
854.5423	-0.0535
854.7063	0.0966
854.8703	-0.0494
855.0343	-0.0502
855.1983	-0.1804
855.3623	0.1327
855.5262	-0.0416
855.6901	-0.0235
855.854	0.0599
856.0179	0.1105
856.1818	0.0211
856.3456	-0.0386
856.5094	-0.1201
856.6732	-0.0378
856.837	-0.0764
857.0008	0.0574
857.1645	-0.0117
857.3282	-0.0414
857.4919	0.3206
857.6556	0.0256
857.8192	-0.0805
857.9828	-0.0378
858.1465	0.0328
858.31	0.0502
858.4736	-0.128
858.6372	-0.3114
858.8007	-0.2552
858.9642	-0.0512
859.1277	-0.1793
859.2911	0.0004
859.4546	-0.0274
859.618	-0.3304
859.7814	-0.013
859.9448	0.131
860.1081	-0.1068
860.2715	0.1009
860.4348	-0.0173
860.5981	-0.0926
860.7614	0.0533
860.9246	0.0859
861.0879	-0.2873
861.2511	0.0422
861.4143	-0.0583
861.5774	0.1407
861.7406	-0.2138
861.9037	-0.0761
862.0668	-0.2394
862.2299	-0.2422
862.393	-0.6086
862.556	0.2154
862.7191	-0.3845
862.8821	-0.0354
863.0451	-0.0561
863.208	-0.024
863.371	0.0233
863.5339	-0.3482
863.6968	-0.0045
863.8597	0.4995
864.0225	-0.1183
864.1854	-0.0661
864.3482	0.08
864.511	0.0717
864.6737	-0.0124
864.8365	0.2584
864.9992	-0.1817
865.1619	-0.5652
865.3246	0.0468
865.4873	0.1252
865.65	-0.3769
865.8126	-0.1039
865.9752	0.1325
866.1378	-0.1146
866.3004	-0.1506
866.4629	0.2895
866.6254	-0.3504
866.7879	0.2554
866.9504	-0
867.1129	-0
867.2753	0.0605
867.4377	-0.0082
867.6001	-0.3447
867.7625	0.0447
867.9249	-0.8739
868.0872	0.0867
868.2495	-0.0172
868.4118	-0.2231
868.5741	-0.484
868.7363	-0.1381
868.8986	-0.385
869.0608	-0.1261
869.223	0.0208
869.3851	-0
869.5473	-0
869.7094	0.3433
869.8715	-0.0933
870.0336	-1.1803
870.1957	-0.7095
870.3577	-0
870.5197	0.2079
870.6817	-0.4154
870.8437	-0.1949
871.0057	-0.4078
871.1676	-0.5848
871.3295	-0.5925
871.4914	-0
871.6533	0.4385
871.8151	-0.5981
871.977	0.7863
872.1388	-0
872.3006	-0
872.4623	-0
872.6241	0.4764
872.7858	0.2046
872.9475	0.0011
873.1092	-0.206
873.2709	0.104
873.4325	-0.1359
873.5941	-0.3684
873.7557	-0
873.9173	-0
874.0789	-0.4157
874.2404	-0
874.4019	0.1328
874.5634	0.4169
874.7249	-0.2663
874.8863	-0.3713
875.0478	1.1039
875.2092	-0
875.3706	1.3263
875.5319	-0.8319
875.6933	0.5865
875.8546	0.3243
876.0159	-0
876.1772	0.4218
876.3385	-0
876.4997	0.208
876.6609	0.0018
876.8221	0.1362
876.9833	0.4108
877.1445	-0
877.3056	0.0856
877.4667	-0.3345
877.6278	-0
877.7889	-0.6298
877.9499	-0
878.111	-0
878.272	-0
878.433	-0
878.5939	0.059
878.7549	-0.0224
878.9158	-0.4035
879.0767	0.5245
879.2376	-0
879.3984	-0.3379
879.5593	-0
879.7201	0.0258
879.8809	-0.8063
880.0417	-0.4111
880.2024	2.6253
880.3632	-1.1127
880.5239	0.3763
880.6846	0.2308
880.8452	-2.642
881.0059	-1.3784
881.1665	0.3524
881.3271	-0.1666
881.4877	-0
881.6483	-0.6446
881.8088	-0.391
881.9693	-0
882.1298	-0
882.2903	-0
