Data from MonoPyChalIsomerACN10uM350nmA_Absorbance_14-35-39-715.txt Node
Date: Fri Jul 05 14:35:39 BST 2024
User: LASERRRRR
Spectrometer: FLMT03099
Trigger mode: 0
Integration Time (sec): 1.000000E-1
Scans to average: 1
Electric dark correction enabled: true
Nonlinearity correction enabled: false
Boxcar width: 0
XAxis mode: Wavelengths
Number of Pixels in Spectrum: 3648
>>>>>Begin Spectral Data<<<<<
179.3399	-0.281
179.5586	-0.281
179.7771	-0.281
179.9957	0.0885
180.2143	-0.048
180.4329	0.463
180.6514	-0
180.8699	0.1853
181.0885	0.1665
181.307	0.5717
181.5255	-0
181.744	-0.7011
181.9625	0.0314
182.181	-0
182.3994	-0
182.6179	-0
182.8363	0.8925
183.0547	-0
183.2732	0.0962
183.4916	0.0592
183.71	0.0933
183.9284	0.0385
184.1467	-0.0027
184.3651	-0.1108
184.5835	-0.1558
184.8018	0.177
185.0201	0.0771
185.2385	-0.0459
185.4568	0.243
185.6751	0.3619
185.8934	0.1786
186.1117	0.0753
186.3299	0.2089
186.5482	0.0497
186.7664	0.064
186.9847	-0.0655
187.2029	-0.033
187.4211	0.0593
187.6393	1.0301
187.8575	0.2445
188.0757	0.4805
188.2939	0.2622
188.512	0.1695
188.7302	0.0663
188.9483	0.2813
189.1665	0.3421
189.3846	0.0762
189.6027	0.4709
189.8208	0.1894
190.0389	0.2834
190.257	0.3409
190.475	0.1449
190.6931	0.2156
190.9111	0.3727
191.1292	0.3818
191.3472	0.4874
191.5652	0.3691
191.7832	0.3979
192.0012	0.4627
192.2192	0.5115
192.4371	0.5197
192.6551	0.4268
192.873	0.6333
193.091	0.2722
193.3089	0.3456
193.5268	0.5012
193.7447	0.7244
193.9626	0.4475
194.1805	0.6902
194.3984	0.9454
194.6162	0.5811
194.8341	0.7
195.0519	0.6435
195.2697	1.1223
195.4875	0.8092
195.7054	0.5278
195.9231	0.4466
196.1409	0.6912
196.3587	0.6503
196.5765	0.5787
196.7942	0.6328
197.012	0.6488
197.2297	0.6593
197.4474	1.1249
197.6651	0.4978
197.8828	0.6809
198.1005	0.7279
198.3182	0.5827
198.5358	0.9836
198.7535	0.5482
198.9711	0.6357
199.1888	0.7224
199.4064	0.7062
199.624	0.5563
199.8416	0.6328
200.0592	0.5778
200.2767	0.8824
200.4943	0.7159
200.7119	0.7219
200.9294	0.5909
201.1469	0.6266
201.3645	0.5836
201.582	0.5365
201.7995	0.5533
202.017	0.5936
202.2344	0.6006
202.4519	0.7715
202.6694	0.6451
202.8868	0.6698
203.1042	0.6978
203.3217	0.6527
203.5391	0.8068
203.7565	0.6446
203.9739	0.6148
204.1913	0.6071
204.4086	0.6442
204.626	0.7609
204.8433	0.6333
205.0607	0.5447
205.278	0.6441
205.4953	0.5522
205.7126	0.6115
205.9299	0.7633
206.1472	0.6931
206.3644	0.632
206.5817	0.6385
206.7989	0.7082
207.0162	0.6105
207.2334	0.7536
207.4506	0.648
207.6678	0.6329
207.885	0.6433
208.1022	0.7096
208.3194	0.7342
208.5365	0.5824
208.7537	0.7176
208.9708	0.5768
209.1879	0.6554
209.405	0.6565
209.6222	0.7269
209.8392	0.6554
210.0563	0.6252
210.2734	0.6648
210.4905	0.6039
210.7075	0.642
210.9245	0.6001
211.1416	0.6349
211.3586	0.5754
211.5756	0.6047
211.7926	0.591
212.0096	0.6022
212.2265	0.5252
212.4435	0.5208
212.6604	0.6638
212.8774	0.5463
213.0943	0.5863
213.3112	0.5601
213.5281	0.5315
213.745	0.5004
213.9619	0.5026
214.1788	0.4484
214.3956	0.4862
214.6125	0.4932
214.8293	0.4715
215.0461	0.4816
215.2629	0.4236
215.4798	0.5022
215.6965	0.462
215.9133	0.4686
216.1301	0.4018
216.3469	0.4044
216.5636	0.4428
216.7803	0.3926
216.9971	0.3891
217.2138	0.3802
217.4305	0.3555
217.6472	0.3329
217.8639	0.3799
218.0805	0.3469
218.2972	0.3025
218.5138	0.326
218.7305	0.3209
218.9471	0.2921
219.1637	0.2716
219.3803	0.2989
219.5969	0.2767
219.8135	0.2703
220.0301	0.2685
220.2466	0.2594
220.4632	0.2452
220.6797	0.2345
220.8962	0.2262
221.1127	0.2612
221.3292	0.2566
221.5457	0.2307
221.7622	0.2173
221.9787	0.264
222.1951	0.2409
222.4116	0.274
222.628	0.2525
222.8444	0.2457
223.0608	0.2636
223.2772	0.2493
223.4936	0.2486
223.71	0.2362
223.9264	0.2606
224.1427	0.251
224.3591	0.2443
224.5754	0.2625
224.7917	0.2705
225.008	0.277
225.2243	0.27
225.4406	0.2831
225.6569	0.266
225.8732	0.2634
226.0894	0.2482
226.3057	0.2397
226.5219	0.2684
226.7381	0.266
226.9543	0.2794
227.1705	0.2972
227.3867	0.2683
227.6029	0.2911
227.8191	0.3033
228.0352	0.2816
228.2513	0.3171
228.4675	0.3182
228.6836	0.3074
228.8997	0.3006
229.1158	0.3206
229.3319	0.3195
229.548	0.3191
229.764	0.3178
229.9801	0.3329
230.1961	0.3405
230.4121	0.3317
230.6282	0.3346
230.8442	0.316
231.0602	0.3442
231.2761	0.3524
231.4921	0.3284
231.7081	0.3583
231.924	0.3559
232.14	0.364
232.3559	0.3285
232.5718	0.3553
232.7877	0.3553
233.0036	0.353
233.2195	0.3541
233.4353	0.3446
233.6512	0.3473
233.867	0.3608
234.0829	0.3711
234.2987	0.3605
234.5145	0.3741
234.7303	0.3541
234.9461	0.3798
235.1619	0.373
235.3776	0.3816
235.5934	0.3787
235.8091	0.372
236.0249	0.4015
236.2406	0.3728
236.4563	0.3641
236.672	0.4109
236.8877	0.4021
237.1034	0.3977
237.319	0.3921
237.5347	0.3999
237.7503	0.4034
237.966	0.4044
238.1816	0.4283
238.3972	0.3989
238.6128	0.3866
238.8284	0.4093
239.0439	0.4125
239.2595	0.4003
239.475	0.399
239.6906	0.4138
239.9061	0.4064
240.1216	0.4087
240.3371	0.4091
240.5526	0.4072
240.7681	0.395
240.9836	0.3837
241.199	0.405
241.4145	0.39
241.6299	0.3714
241.8453	0.3762
242.0607	0.3733
242.2761	0.3553
242.4915	0.3806
242.7069	0.3645
242.9223	0.349
243.1376	0.3454
243.353	0.3428
243.5683	0.3441
243.7836	0.3224
243.9989	0.3412
244.2142	0.3036
244.4295	0.3076
244.6448	0.3183
244.86	0.2861
245.0753	0.2912
245.2905	0.2821
245.5057	0.2978
245.721	0.2718
245.9362	0.2764
246.1514	0.2692
246.3665	0.2639
246.5817	0.2486
246.7969	0.2542
247.012	0.2501
247.2271	0.2362
247.4423	0.2561
247.6574	0.2612
247.8725	0.2364
248.0876	0.2233
248.3026	0.2219
248.5177	0.2243
248.7328	0.2263
248.9478	0.211
249.1628	0.2208
249.3779	0.2103
249.5929	0.1957
249.8079	0.2187
250.0228	0.2063
250.2378	0.1919
250.4528	0.2161
250.6677	0.1782
250.8827	0.1854
251.0976	0.1967
251.3125	0.1811
251.5274	0.1751
251.7423	0.1894
251.9572	0.1946
252.172	0.1703
252.3869	0.1996
252.6017	0.1699
252.8166	0.1706
253.0314	0.1544
253.2462	0.1654
253.461	0.1906
253.6758	0.1688
253.8906	0.1833
254.1053	0.1692
254.3201	0.1719
254.5348	0.1801
254.7496	0.1885
254.9643	0.1692
255.179	0.1842
255.3937	0.1565
255.6083	0.1838
255.823	0.1762
256.0377	0.1618
256.2523	0.1581
256.467	0.1522
256.6816	0.1732
256.8962	0.1592
257.1108	0.1584
257.3254	0.1666
257.54	0.1584
257.7545	0.1743
257.9691	0.1685
258.1836	0.1724
258.3981	0.1857
258.6127	0.1807
258.8272	0.158
259.0417	0.1834
259.2561	0.1631
259.4706	0.1634
259.6851	0.1567
259.8995	0.1569
260.114	0.1684
260.3284	0.1655
260.5428	0.1572
260.7572	0.1732
260.9716	0.1576
261.186	0.163
261.4003	0.1681
261.6147	0.1647
261.829	0.155
262.0433	0.1497
262.2577	0.1681
262.472	0.1686
262.6863	0.1589
262.9005	0.1638
263.1148	0.1633
263.3291	0.1497
263.5433	0.1788
263.7576	0.1513
263.9718	0.1666
264.186	0.1623
264.4002	0.1582
264.6144	0.1543
264.8286	0.1609
265.0427	0.1611
265.2569	0.1687
265.471	0.1586
265.6851	0.1494
265.8993	0.1717
266.1134	0.1486
266.3275	0.1614
266.5415	0.1658
266.7556	0.1648
266.9697	0.1609
267.1837	0.1696
267.3978	0.1629
267.6118	0.1792
267.8258	0.1633
268.0398	0.1531
268.2538	0.1719
268.4677	0.1694
268.6817	0.1543
268.8957	0.1669
269.1096	0.16
269.3235	0.1728
269.5374	0.1541
269.7514	0.1555
269.9652	0.155
270.1791	0.1429
270.393	0.1342
270.6068	0.1567
270.8207	0.1398
271.0345	0.1409
271.2483	0.1524
271.4622	0.1511
271.676	0.1547
271.8897	0.1494
272.1035	0.1477
272.3173	0.1346
272.531	0.1443
272.7448	0.1395
272.9585	0.1406
273.1722	0.1455
273.3859	0.1513
273.5996	0.1238
273.8133	0.1457
274.0269	0.1312
274.2406	0.1453
274.4542	0.1456
274.6679	0.1372
274.8815	0.1519
275.0951	0.1485
275.3087	0.1546
275.5223	0.1447
275.7358	0.1477
275.9494	0.1448
276.1629	0.1349
276.3765	0.1454
276.59	0.1335
276.8035	0.1505
277.017	0.1557
277.2305	0.15
277.444	0.15
277.6574	0.1436
277.8709	0.1493
278.0843	0.1389
278.2978	0.145
278.5112	0.1402
278.7246	0.1546
278.938	0.1592
279.1513	0.1544
279.3647	0.158
279.5781	0.1421
279.7914	0.141
280.0047	0.1611
280.2181	0.1566
280.4314	0.1558
280.6447	0.1604
280.8579	0.1511
281.0712	0.1492
281.2845	0.1598
281.4977	0.1559
281.711	0.1321
281.9242	0.1543
282.1374	0.166
282.3506	0.1528
282.5638	0.1669
282.7769	0.1511
282.9901	0.1535
283.2033	0.1527
283.4164	0.1715
283.6295	0.1542
283.8426	0.1421
284.0557	0.148
284.2688	0.1606
284.4819	0.1614
284.695	0.1636
284.908	0.1648
285.1211	0.1523
285.3341	0.1502
285.5471	0.1658
285.7601	0.1569
285.9731	0.1404
286.1861	0.157
286.3991	0.1535
286.612	0.1641
286.825	0.1603
287.0379	0.1615
287.2508	0.1502
287.4637	0.1608
287.6766	0.1362
287.8895	0.1591
288.1024	0.1808
288.3152	0.1703
288.5281	0.1533
288.7409	0.1644
288.9538	0.1607
289.1666	0.1543
289.3794	0.1647
289.5922	0.1493
289.8049	0.1664
290.0177	0.1636
290.2304	0.1628
290.4432	0.1712
290.6559	0.1664
290.8686	0.1652
291.0813	0.1602
291.294	0.159
291.5067	0.1727
291.7194	0.161
291.932	0.1756
292.1447	0.1638
292.3573	0.156
292.5699	0.1608
292.7825	0.1669
292.9951	0.163
293.2077	0.16
293.4203	0.1593
293.6328	0.1458
293.8454	0.1713
294.0579	0.1639
294.2704	0.1641
294.4829	0.165
294.6954	0.1614
294.9079	0.1691
295.1204	0.1682
295.3328	0.1626
295.5453	0.1606
295.7577	0.1746
295.9701	0.1466
296.1825	0.1636
296.3949	0.166
296.6073	0.1626
296.8197	0.1593
297.0321	0.1827
297.2444	0.1489
297.4567	0.1668
297.6691	0.1564
297.8814	0.1535
298.0937	0.1656
298.306	0.172
298.5182	0.1647
298.7305	0.1675
298.9428	0.1528
299.155	0.1793
299.3672	0.1561
299.5794	0.149
299.7916	0.1593
300.0038	0.1653
300.216	0.1735
300.4282	0.1695
300.6403	0.1562
300.8525	0.1677
301.0646	0.1448
301.2767	0.1681
301.4888	0.161
301.7009	0.1642
301.913	0.1545
302.125	0.1636
302.3371	0.1584
302.5491	0.1589
302.7612	0.1748
302.9732	0.1631
303.1852	0.1647
303.3972	0.1644
303.6092	0.1568
303.8211	0.1475
304.0331	0.1587
304.245	0.1465
304.457	0.1522
304.6689	0.1488
304.8808	0.1615
305.0927	0.1547
305.3046	0.1515
305.5164	0.1583
305.7283	0.1496
305.9401	0.1488
306.152	0.1344
306.3638	0.1462
306.5756	0.151
306.7874	0.1532
306.9992	0.1429
307.2109	0.1493
307.4227	0.1241
307.6344	0.1432
307.8462	0.1302
308.0579	0.1354
308.2696	0.1278
308.4813	0.1271
308.693	0.124
308.9046	0.1328
309.1163	0.1275
309.328	0.1202
309.5396	0.1185
309.7512	0.1267
309.9628	0.1182
310.1744	0.1245
310.386	0.1211
310.5976	0.1304
310.8091	0.1123
311.0207	0.1173
311.2322	0.1273
311.4437	0.1104
311.6552	0.1065
311.8667	0.1166
312.0782	0.0975
312.2897	0.1094
312.5012	0.1183
312.7126	0.1026
312.924	0.099
313.1355	0.1139
313.3469	0.11
313.5583	0.1086
313.7696	0.1111
313.981	0.1128
314.1924	0.1054
314.4037	0.0997
314.6151	0.116
314.8264	0.0962
315.0377	0.1011
315.249	0.1058
315.4603	0.1083
315.6716	0.0978
315.8828	0.0939
316.0941	0.1039
316.3053	0.0992
316.5165	0.0987
316.7277	0.0926
316.9389	0.1113
317.1501	0.0953
317.3613	0.1074
317.5724	0.0873
317.7836	0.0994
317.9947	0.0889
318.2058	0.0953
318.417	0.0909
318.6281	0.0873
318.8391	0.0975
319.0502	0.1009
319.2613	0.0995
319.4723	0.1125
319.6834	0.1037
319.8944	0.0993
320.1054	0.0986
320.3164	0.1094
320.5274	0.0975
320.7383	0.095
320.9493	0.0962
321.1602	0.1099
321.3712	0.0839
321.5821	0.0979
321.793	0.0969
322.0039	0.1016
322.2148	0.0994
322.4257	0.1071
322.6365	0.1144
322.8474	0.1036
323.0582	0.1135
323.269	0.1121
323.4798	0.1239
323.6906	0.1028
323.9014	0.1005
324.1122	0.1055
324.3229	0.1028
324.5337	0.0958
324.7444	0.0935
324.9551	0.1042
325.1658	0.1104
325.3765	0.1024
325.5872	0.1081
325.7979	0.0988
326.0085	0.1038
326.2192	0.0973
326.4298	0.106
326.6404	0.0929
326.851	0.0981
327.0616	0.0994
327.2722	0.1065
327.4828	0.1216
327.6933	0.0971
327.9039	0.1105
328.1144	0.1152
328.3249	0.1054
328.5354	0.1008
328.7459	0.1119
328.9564	0.0952
329.1669	0.1072
329.3773	0.1007
329.5878	0.105
329.7982	0.1007
330.0086	0.1
330.219	0.1148
330.4294	0.1026
330.6398	0.1146
330.8502	0.1001
331.0605	0.1064
331.2708	0.1048
331.4812	0.1271
331.6915	0.106
331.9018	0.1149
332.1121	0.1116
332.3224	0.1032
332.5326	0.1165
332.7429	0.1101
332.9531	0.122
333.1633	0.1151
333.3735	0.1036
333.5837	0.1021
333.7939	0.1124
334.0041	0.1192
334.2143	0.1179
334.4244	0.114
334.6346	0.0974
334.8447	0.1183
335.0548	0.1132
335.2649	0.1026
335.475	0.1117
335.685	0.1133
335.8951	0.1114
336.1051	0.1254
336.3152	0.1243
336.5252	0.1135
336.7352	0.1155
336.9452	0.1219
337.1552	0.1097
337.3652	0.1024
337.5751	0.1108
337.7851	0.1162
337.995	0.1106
338.2049	0.1172
338.4148	0.1212
338.6247	0.1044
338.8346	0.1129
339.0445	0.1131
339.2543	0.1119
339.4642	0.1243
339.674	0.103
339.8838	0.11
340.0936	0.1178
340.3034	0.1254
340.5132	0.1171
340.7229	0.1254
340.9327	0.1209
341.1424	0.1141
341.3522	0.1338
341.5619	0.1233
341.7716	0.1183
341.9813	0.1276
342.1909	0.1116
342.4006	0.1362
342.6102	0.1302
342.8199	0.1245
343.0295	0.1245
343.2391	0.1279
343.4487	0.131
343.6583	0.1245
343.8679	0.128
344.0774	0.1347
344.287	0.145
344.4965	0.126
344.706	0.1305
344.9155	0.1318
345.125	0.134
345.3345	0.1231
345.544	0.1262
345.7534	0.1267
345.9629	0.1227
346.1723	0.1247
346.3817	0.119
346.5911	0.1366
346.8005	0.1401
347.0099	0.1285
347.2193	0.1464
347.4286	0.1254
347.638	0.1412
347.8473	0.1356
348.0566	0.1368
348.2659	0.1324
348.4752	0.129
348.6845	0.1259
348.8937	0.1467
349.103	0.1465
349.3122	0.1415
349.5214	0.132
349.7306	0.1477
349.9398	0.1389
350.149	0.1404
350.3582	0.1346
350.5674	0.1426
350.7765	0.1388
350.9856	0.1407
351.1948	0.1466
351.4039	0.127
351.613	0.1371
351.822	0.148
352.0311	0.1531
352.2402	0.1507
352.4492	0.1602
352.6582	0.1469
352.8672	0.1382
353.0762	0.1403
353.2852	0.1268
353.4942	0.1363
353.7032	0.133
353.9121	0.1469
354.1211	0.1493
354.33	0.153
354.5389	0.1578
354.7478	0.1486
354.9567	0.1499
355.1655	0.1449
355.3744	0.1517
355.5833	0.1507
355.7921	0.1645
356.0009	0.1601
356.2097	0.1656
356.4185	0.1654
356.6273	0.1584
356.8361	0.1722
357.0448	0.1571
357.2536	0.1623
357.4623	0.1536
357.671	0.1738
357.8797	0.1826
358.0884	0.1693
358.2971	0.1733
358.5057	0.1792
358.7144	0.1762
358.923	0.1737
359.1316	0.167
359.3402	0.1683
359.5488	0.1669
359.7574	0.167
359.966	0.1654
360.1746	0.1779
360.3831	0.1777
360.5916	0.1756
360.8002	0.167
361.0087	0.1808
361.2172	0.1753
361.4256	0.1746
361.6341	0.1868
361.8426	0.184
362.051	0.1681
362.2594	0.1879
362.4678	0.1851
362.6762	0.2021
362.8846	0.1915
363.093	0.1799
363.3014	0.1736
363.5097	0.1764
363.718	0.1895
363.9264	0.1831
364.1347	0.1727
364.343	0.1868
364.5513	0.183
364.7595	0.1989
364.9678	0.2119
365.176	0.1976
365.3842	0.1925
365.5925	0.2023
365.8007	0.2078
366.0089	0.1967
366.217	0.1922
366.4252	0.2021
366.6333	0.2128
366.8415	0.2078
367.0496	0.1788
367.2577	0.2056
367.4658	0.2064
367.6739	0.2115
367.882	0.2205
368.09	0.1986
368.2981	0.2123
368.5061	0.2059
368.7141	0.2283
368.9221	0.2278
369.1301	0.2118
369.3381	0.1994
369.5461	0.2079
369.754	0.214
369.962	0.215
370.1699	0.2174
370.3778	0.2137
370.5857	0.2114
370.7936	0.228
371.0015	0.217
371.2093	0.2117
371.4172	0.2252
371.625	0.1971
371.8328	0.2198
372.0406	0.2144
372.2484	0.23
372.4562	0.2289
372.664	0.2155
372.8717	0.2294
373.0795	0.1992
373.2872	0.2262
373.4949	0.2209
373.7026	0.2356
373.9103	0.2453
374.118	0.2336
374.3256	0.2252
374.5333	0.2294
374.7409	0.2121
374.9485	0.2506
375.1561	0.2373
375.3637	0.2256
375.5713	0.2338
375.7789	0.2192
375.9864	0.2369
376.194	0.2208
376.4015	0.24
376.609	0.2348
376.8165	0.2368
377.024	0.2275
377.2315	0.2299
377.4389	0.2389
377.6464	0.2358
377.8538	0.2345
378.0612	0.226
378.2686	0.2384
378.476	0.2594
378.6834	0.2394
378.8908	0.2657
379.0981	0.2447
379.3055	0.2376
379.5128	0.2386
379.7201	0.2449
379.9274	0.2317
380.1347	0.2393
380.342	0.2573
380.5492	0.233
380.7565	0.2359
380.9637	0.2538
381.1709	0.2454
381.3781	0.2603
381.5853	0.2403
381.7925	0.2701
381.9997	0.2349
382.2068	0.2625
382.4139	0.2482
382.6211	0.226
382.8282	0.2357
383.0353	0.2584
383.2424	0.2637
383.4494	0.2575
383.6565	0.2328
383.8635	0.2292
384.0706	0.2733
384.2776	0.2583
384.4846	0.2518
384.6916	0.2555
384.8986	0.249
385.1055	0.2661
385.3125	0.2612
385.5194	0.2335
385.7263	0.2493
385.9333	0.2539
386.1402	0.2512
386.347	0.2537
386.5539	0.2396
386.7608	0.2647
386.9676	0.2332
387.1744	0.2621
387.3813	0.2612
387.5881	0.2501
387.7948	0.2644
388.0016	0.2665
388.2084	0.2509
388.4151	0.2477
388.6219	0.2792
388.8286	0.2488
389.0353	0.2599
389.242	0.247
389.4487	0.2447
389.6553	0.2269
389.862	0.2154
390.0686	0.264
390.2753	0.2498
390.4819	0.2499
390.6885	0.2478
390.8951	0.2237
391.1016	0.2321
391.3082	0.2402
391.5147	0.2508
391.7213	0.2408
391.9278	0.2209
392.1343	0.2353
392.3408	0.2405
392.5473	0.2382
392.7537	0.2232
392.9602	0.2276
393.1666	0.2233
393.373	0.2252
393.5794	0.2386
393.7858	0.2288
393.9922	0.2214
394.1986	0.2248
394.4049	0.233
394.6113	0.2187
394.8176	0.2258
395.0239	0.2027
395.2302	0.2077
395.4365	0.2143
395.6428	0.222
395.8491	0.2278
396.0553	0.2248
396.2615	0.2104
396.4678	0.214
396.674	0.1941
396.8802	0.212
397.0863	0.2205
397.2925	0.2061
397.4987	0.2071
397.7048	0.2106
397.9109	0.2164
398.117	0.2041
398.3231	0.1908
398.5292	0.2108
398.7353	0.2311
398.9413	0.1909
399.1474	0.2072
399.3534	0.2097
399.5594	0.2068
399.7654	0.2337
399.9714	0.23
400.1774	0.1949
400.3833	0.1921
400.5893	0.2164
400.7952	0.2176
401.0011	0.1995
401.207	0.2193
401.4129	0.2289
401.6188	0.2144
401.8247	0.2201
402.0305	0.185
402.2364	0.2097
402.4422	0.2235
402.648	0.2057
402.8538	0.2352
403.0596	0.1981
403.2654	0.2304
403.4711	0.2184
403.6768	0.2146
403.8826	0.2244
404.0883	0.2146
404.294	0.1951
404.4997	0.203
404.7054	0.2071
404.911	0.1972
405.1167	0.2215
405.3223	0.2253
405.5279	0.2196
405.7335	0.2288
405.9391	0.2151
406.1447	0.1936
406.3502	0.22
406.5558	0.1917
406.7613	0.221
406.9668	0.2148
407.1724	0.2099
407.3778	0.2001
407.5833	0.2079
407.7888	0.1878
407.9942	0.2151
408.1997	0.2086
408.4051	0.2188
408.6105	0.2031
408.8159	0.1966
409.0213	0.2072
409.2267	0.2099
409.432	0.21
409.6374	0.2267
409.8427	0.1879
410.048	0.1931
410.2533	0.2044
410.4586	0.1936
410.6639	0.184
410.8691	0.2054
411.0744	0.2
411.2796	0.2065
411.4848	0.1976
411.69	0.2106
411.8952	0.2236
412.1004	0.2198
412.3056	0.2078
412.5107	0.2079
412.7158	0.204
412.921	0.1973
413.1261	0.2143
413.3312	0.1835
413.5362	0.1984
413.7413	0.1999
413.9464	0.1952
414.1514	0.2031
414.3564	0.2056
414.5614	0.1766
414.7664	0.1909
414.9714	0.2142
415.1764	0.2103
415.3813	0.2091
415.5863	0.1974
415.7912	0.2106
415.9961	0.213
416.201	0.2135
416.4059	0.2206
416.6108	0.1862
416.8156	0.2086
417.0205	0.2201
417.2253	0.1877
417.4301	0.1968
417.6349	0.1869
417.8397	0.1947
418.0445	0.206
418.2492	0.2005
418.454	0.2026
418.6587	0.1829
418.8634	0.1949
419.0681	0.183
419.2728	0.2155
419.4775	0.1806
419.6822	0.183
419.8868	0.1681
420.0915	0.1938
420.2961	0.1748
420.5007	0.1777
420.7053	0.1935
420.9099	0.1905
421.1144	0.1883
421.319	0.1784
421.5235	0.2124
421.728	0.1948
421.9325	0.1933
422.137	0.181
422.3415	0.1809
422.546	0.178
422.7504	0.1924
422.9549	0.1932
423.1593	0.1904
423.3637	0.1898
423.5681	0.1706
423.7725	0.1872
423.9769	0.1759
424.1812	0.174
424.3856	0.1743
424.5899	0.1675
424.7942	0.174
424.9985	0.1826
425.2028	0.169
425.4071	0.1951
425.6113	0.1762
425.8156	0.1805
426.0198	0.1819
426.224	0.151
426.4282	0.1573
426.6324	0.1471
426.8366	0.1638
427.0407	0.161
427.2449	0.1663
427.449	0.158
427.6531	0.1302
427.8572	0.1599
428.0613	0.1396
428.2654	0.1554
428.4694	0.1503
428.6735	0.1564
428.8775	0.1642
429.0815	0.1646
429.2855	0.1345
429.4895	0.1626
429.6935	0.1494
429.8975	0.1592
430.1014	0.1441
430.3053	0.1349
430.5093	0.1385
430.7132	0.1389
430.9171	0.1403
431.1209	0.1465
431.3248	0.1327
431.5286	0.1407
431.7325	0.1545
431.9363	0.1305
432.1401	0.139
432.3439	0.1261
432.5477	0.1129
432.7514	0.1221
432.9552	0.1193
433.1589	0.124
433.3627	0.1143
433.5664	0.1229
433.7701	0.1146
433.9737	0.1281
434.1774	0.1109
434.3811	0.1116
434.5847	0.1144
434.7883	0.108
434.9919	0.1096
435.1955	0.1068
435.3991	0.1002
435.6027	0.1088
435.8062	0.1106
436.0098	0.1173
436.2133	0.1068
436.4168	0.0988
436.6203	0.0914
436.8238	0.1034
437.0272	0.093
437.2307	0.0951
437.4341	0.0995
437.6375	0.0985
437.841	0.089
438.0443	0.1143
438.2477	0.0817
438.4511	0.0827
438.6545	0.0851
438.8578	0.0795
439.0611	0.0866
439.2644	0.0799
439.4677	0.0725
439.671	0.0816
439.8743	0.0841
440.0775	0.075
440.2808	0.0757
440.484	0.066
440.6872	0.069
440.8904	0.0622
441.0936	0.0986
441.2967	0.0802
441.4999	0.0683
441.703	0.0711
441.9062	0.0644
442.1093	0.0601
442.3124	0.0723
442.5155	0.0567
442.7185	0.0602
442.9216	0.0358
443.1246	0.0641
443.3276	0.0475
443.5307	0.0548
443.7337	0.0672
443.9366	0.0542
444.1396	0.0494
444.3426	0.0523
444.5455	0.0615
444.7484	0.0504
444.9513	0.0365
445.1542	0.0596
445.3571	0.0443
445.56	0.0739
445.7628	0.0427
445.9657	0.0497
446.1685	0.0381
446.3713	0.0443
446.5741	0.047
446.7769	0.0285
446.9797	0.0454
447.1824	0.0422
447.3852	0.0312
447.5879	0.0597
447.7906	0.0506
447.9933	0.0313
448.196	0.0323
448.3986	0.0381
448.6013	0.024
448.8039	0.0262
449.0066	0.0211
449.2092	0.0389
449.4118	0.042
449.6143	0.0391
449.8169	0.0366
450.0195	0.0289
450.222	0.0118
450.4245	0.0279
450.627	0.0368
450.8295	0.0294
451.032	0.016
451.2345	0.0197
451.4369	0.038
451.6394	0.0235
451.8418	0.0131
452.0442	0.0069
452.2466	0.0323
452.449	0.0126
452.6513	0.0274
452.8537	0.0142
453.056	0.007
453.2583	0.0197
453.4607	0.0192
453.663	0.0199
453.8652	0.039
454.0675	0.0143
454.2697	0.0341
454.472	0.009
454.6742	0.0197
454.8764	0.0132
455.0786	0.0328
455.2808	0.0111
455.4829	0.0251
455.6851	0.0194
455.8872	0.0168
456.0893	0.0179
456.2915	0.0085
456.4935	0.0054
456.6956	0.0062
456.8977	-0.0001
457.0997	-0.0058
457.3018	0.0069
457.5038	0.026
457.7058	0.0025
457.9078	0.0153
458.1098	0.0125
458.3117	0.0152
458.5137	0.0095
458.7156	0.0103
458.9175	0.0043
459.1194	0.0186
459.3213	0.0001
459.5232	-0.0037
459.725	0.0048
459.9269	0.0009
460.1287	0.0076
460.3305	0.0035
460.5323	0.0119
460.7341	-0.0005
460.9359	0.0101
461.1376	0.012
461.3394	0.0011
461.5411	0.0048
461.7428	0.0131
461.9445	0.0123
462.1462	0.0244
462.3479	0.0028
462.5495	0.0078
462.7512	0.0058
462.9528	-0.0008
463.1544	-0.0064
463.356	0.006
463.5576	0.0131
463.7592	-0.0051
463.9607	0.0145
464.1623	0.0175
464.3638	0.0248
464.5653	-0.0089
464.7668	-0.0022
464.9683	0.0106
465.1697	0.0248
465.3712	-0.0151
465.5726	-0.0151
465.7741	0.0037
465.9755	-0.0082
466.1769	0.0004
466.3782	0.0124
466.5796	-0.0099
466.7809	0.0055
466.9823	-0.0179
467.1836	0.0012
467.3849	-0.0017
467.5862	0.0021
467.7875	0.006
467.9887	0.018
468.19	-0.0063
468.3912	0.0045
468.5924	-0.0033
468.7936	0.0021
468.9948	-0.0012
469.196	0.0158
469.3972	-0.0164
469.5983	0.0073
469.7994	-0.0198
470.0006	0.0041
470.2017	-0.0177
470.4027	-0.0044
470.6038	-0.0054
470.8049	-0.0054
471.0059	-0.0187
471.2069	-0.0249
471.408	0.0061
471.6089	0.007
471.8099	0.0099
472.0109	-0.005
472.2119	-0.0039
472.4128	-0.0166
472.6137	0.009
472.8146	-0.0129
473.0155	-0.0089
473.2164	0.0035
473.4173	0.0019
473.6181	0.0085
473.819	-0.0025
474.0198	-0.0096
474.2206	-0.0045
474.4214	0.0019
474.6222	0.0005
474.8229	-0.0085
475.0237	-0.0111
475.2244	-0.0198
475.4251	-0.0098
475.6258	-0.0069
475.8265	-0.002
476.0272	0.0135
476.2278	0.0071
476.4285	-0.0003
476.6291	-0.0089
476.8297	0.0036
477.0303	-0.0133
477.2309	-0.0003
477.4315	-0.0199
477.632	-0.0105
477.8326	-0.0185
478.0331	0.0095
478.2336	0.0086
478.4341	0.0017
478.6346	-0.0023
478.8351	-0.0089
479.0355	0.0102
479.236	-0.0155
479.4364	0.0011
479.6368	0.004
479.8372	-0.0248
480.0376	-0.0001
480.2379	-0.0229
480.4383	-0.0147
480.6386	0.0117
480.8389	0.0118
481.0392	-0.0033
481.2395	-0.0067
481.4398	0.0042
481.6401	0.0041
481.8403	0.0013
482.0405	-0.0057
482.2408	-0.0035
482.441	0.0069
482.6411	-0.0034
482.8413	-0.0022
483.0415	-0.0052
483.2416	-0.0078
483.4417	-0.0085
483.6419	-0.0099
483.8419	-0.0039
484.042	0.0009
484.2421	0.0007
484.4422	0.0013
484.6422	0.0041
484.8422	0.0007
485.0422	-0.0037
485.2422	-0.0013
485.4422	-0.0072
485.6422	-0.0022
485.8421	0.0026
486.042	-0.0051
486.242	-0.0127
486.4419	-0.0122
486.6417	-0
486.8416	0.0001
487.0415	-0.0097
487.2413	-0.0082
487.4411	-0.0056
487.641	-0.0142
487.8408	0.0033
488.0405	-0.0127
488.2403	-0.0073
488.4401	-0.0037
488.6398	0.0049
488.8395	-0.0133
489.0392	0.0007
489.2389	-0.0145
489.4386	-0.0137
489.6383	-0.0026
489.8379	-0.0023
490.0376	-0.0097
490.2372	-0.0071
490.4368	-0.012
490.6364	-0.0108
490.836	-0.0039
491.0355	-0.009
491.2351	-0.001
491.4346	-0.0105
491.6341	-0.0036
491.8336	0.0086
492.0331	-0.0143
492.2326	-0.0104
492.432	-0.0088
492.6315	-0.0079
492.8309	-0.0042
493.0303	-0.0098
493.2297	0.0029
493.4291	-0.001
493.6284	0.0074
493.8278	0.0003
494.0271	0.0116
494.2264	0.0062
494.4257	-0.01
494.625	0.0001
494.8243	-0.0153
495.0236	-0.0143
495.2228	-0.0039
495.422	0.004
495.6213	-0.0063
495.8205	-0.0035
496.0196	-0.002
496.2188	-0.0029
496.418	-0.0138
496.6171	-0.0071
496.8162	-0.0181
497.0153	0.0023
497.2144	-0.0137
497.4135	-0.0013
497.6126	-0.0111
497.8116	-0.0091
498.0107	-0.0065
498.2097	-0.0113
498.4087	-0.0114
498.6077	0.0027
498.8067	-0.0099
499.0056	0.0127
499.2046	0.0013
499.4035	-0.0216
499.6024	-0.0114
499.8013	0.0018
500.0002	-0.0103
500.199	-0.005
500.3979	-0.0057
500.5967	-0.0178
500.7956	-0.0097
500.9944	-0.0119
501.1932	-0.0152
501.3919	-0.0084
501.5907	-0.0168
501.7895	-0.0001
501.9882	-0.0163
502.1869	-0.0093
502.3856	-0.0157
502.5843	-0.0073
502.783	-0.0092
502.9816	-0.0058
503.1803	-0.017
503.3789	-0.009
503.5775	0.0021
503.7761	-0.0073
503.9747	-0.0047
504.1732	-0.0078
504.3718	-0.006
504.5703	-0.0104
504.7689	-0.0124
504.9674	-0.0054
505.1658	-0.008
505.3643	-0.0085
505.5628	-0.0048
505.7612	0.0048
505.9597	0.0046
506.1581	-0.0074
506.3565	0.002
506.5549	-0.0063
506.7532	-0.0144
506.9516	0.0037
507.1499	-0.0041
507.3482	-0.0159
507.5465	-0.0111
507.7448	-0.0142
507.9431	-0.0068
508.1414	0.0006
508.3396	-0.0043
508.5379	-0.0048
508.7361	-0.0089
508.9343	-0.0048
509.1325	0.0001
509.3306	-0.013
509.5288	-0.0058
509.7269	-0.0076
509.9251	-0.0028
510.1232	-0.0144
510.3213	0.0061
510.5193	0.0032
510.7174	-0.0201
510.9154	-0.0065
511.1135	-0.0115
511.3115	-0.0101
511.5095	-0.0104
511.7075	-0.0025
511.9055	-0.0051
512.1034	-0.0095
512.3014	0.0018
512.4993	-0.0009
512.6972	-0.0136
512.8951	-0.0103
513.093	-0.003
513.2908	0.0079
513.4887	-0.0082
513.6865	-0.006
513.8844	-0.0021
514.0822	0.0004
514.2799	-0.01
514.4777	-0.019
514.6755	-0.0075
514.8732	-0.0143
515.0709	-0.0073
515.2687	-0.0007
515.4664	-0.0035
515.664	-0.0025
515.8617	-0.0041
516.0594	-0.0099
516.257	-0.0027
516.4546	-0.0129
516.6522	0.0082
516.8498	-0.0051
517.0474	0.003
517.2449	-0.0019
517.4425	-0.0189
517.64	-0.0103
517.8375	0.0038
518.035	-0.0125
518.2325	-0.0041
518.43	-0.0043
518.6274	-0.0005
518.8249	-0.0167
519.0223	-0.0021
519.2197	-0.0125
519.4171	-0.0158
519.6145	-0.007
519.8118	-0.0051
520.0092	-0.0018
520.2065	0.0009
520.4038	-0.0111
520.6011	0.0013
520.7984	-0.0127
520.9956	-0.003
521.1929	-0.0121
521.3901	0.0004
521.5874	-0.0077
521.7846	-0.0045
521.9818	-0.0087
522.1789	-0.0099
522.3761	-0
522.5732	-0.015
522.7704	-0.012
522.9675	-0.0065
523.1646	-0.0104
523.3617	0.0006
523.5587	-0.0069
523.7558	-0.0109
523.9528	-0.0006
524.1498	0.0009
524.3468	-0.0059
524.5438	-0.0075
524.7408	-0.0016
524.9378	-0.0046
525.1347	-0.0002
525.3316	-0.006
525.5285	-0.0151
525.7254	-0.0143
525.9223	-0.0037
526.1192	-0.0021
526.316	-0.0101
526.5129	-0.0074
526.7097	-0.0024
526.9065	-0.0024
527.1033	-0.0125
527.3	-0.0004
527.4968	0.0007
527.6935	-0.0039
527.8903	-0.0143
528.087	-0.0118
528.2837	-0.0066
528.4804	-0.0038
528.677	-0.0117
528.8737	0.0022
529.0703	0.0007
529.2669	-0.0086
529.4635	-0.0097
529.6601	-0.0032
529.8567	0.0009
530.0532	-0.006
530.2498	0.0007
530.4463	0.0018
530.6428	-0.0051
530.8393	0.0043
531.0358	-0.008
531.2322	-0.0089
531.4287	-0.0091
531.6251	-0.0094
531.8215	0.0057
532.0179	-0.0007
532.2143	0.0042
532.4107	-0.0026
532.607	-0.0097
532.8034	0.0032
532.9997	-0.008
533.196	0.0015
533.3923	-0.0117
533.5886	-0.0022
533.7848	0.0018
533.9811	-0.0068
534.1773	0.0076
534.3735	0.0036
534.5697	-0.0048
534.7659	-0.0042
534.9621	-0.0018
535.1582	-0.0138
535.3544	-0.0021
535.5505	-0.0057
535.7466	-0.0016
535.9427	-0.0041
536.1387	-0.0156
536.3348	-0.0097
536.5308	-0.0074
536.7269	-0
536.9229	0.002
537.1189	-0.0006
537.3148	-0.0069
537.5108	-0.0094
537.7068	-0.0026
537.9027	-0.0073
538.0986	0.0056
538.2945	-0.0162
538.4904	-0.0042
538.6863	-0.0092
538.8821	-0.0024
539.078	-0.0064
539.2738	-0.0025
539.4696	-0.0065
539.6654	0.001
539.8611	0.006
540.0569	-0.0003
540.2526	-0.0075
540.4484	-0.0011
540.6441	0.0052
540.8398	0.0008
541.0355	-0.0008
541.2311	-0.0031
541.4268	-0.0111
541.6224	0.0001
541.818	-0.0016
542.0136	-0.0033
542.2092	0.0044
542.4048	0.0019
542.6003	0.0004
542.7959	-0.0044
542.9914	-0.0029
543.1869	-0.0004
543.3824	0.0013
543.5779	-0.0024
543.7734	-0.0023
543.9688	-0.0036
544.1642	-0.002
544.3596	0.0004
544.555	-0.0049
544.7504	-0.0034
544.9458	-0.0066
545.1411	-0.0039
545.3365	-0.0063
545.5318	-0.0106
545.7271	-0.0065
545.9224	0.003
546.1177	0.0003
546.3129	0.0024
546.5081	-0.0049
546.7034	0.0019
546.8986	-0.011
547.0938	-0.005
547.289	-0.0038
547.4841	-0.0068
547.6793	0.0051
547.8744	-0.0076
548.0695	-0.0002
548.2646	-0.0053
548.4597	-0.0005
548.6548	-0.0041
548.8498	0.0006
549.0448	0.0036
549.2399	-0.0036
549.4349	0.0048
549.6298	-0.0062
549.8248	0.0014
550.0198	-0.0018
550.2147	0.0004
550.4096	-0.0041
550.6045	0.0056
550.7994	-0.0098
550.9943	0.0054
551.1892	-0.0039
551.384	0.0048
551.5788	-0.0126
551.7737	0.0052
551.9685	-0.0029
552.1632	0.0026
552.358	-0.0026
552.5528	-0.0035
552.7475	0.004
552.9422	0.0047
553.1369	-0.0015
553.3316	0.0057
553.5263	-0.0095
553.7209	0.0068
553.9156	-0.0058
554.1102	-0.0054
554.3048	-0.0108
554.4994	0.0028
554.694	-0.0046
554.8885	0.0064
555.0831	0.0011
555.2776	0.001
555.4721	0.0005
555.6666	-0.0134
555.8611	0.0059
556.0555	-0.0024
556.25	-0.0062
556.4444	-0.0073
556.6388	0.0036
556.8332	-0.0036
557.0276	-0.0047
557.222	-0.006
557.4163	-0.002
557.6107	-0.0041
557.805	0.0086
557.9993	-0.0058
558.1936	0.002
558.3879	-0.0017
558.5821	-0.0023
558.7764	0.0021
558.9706	0.0005
559.1648	0.005
559.359	-0.0045
559.5532	-0.006
559.7473	-0.0042
559.9415	-0.0018
560.1356	-0.0056
560.3297	-0.0145
560.5238	-0.0099
560.7179	-0.009
560.9119	-0.0059
561.106	-0.0028
561.3	-0.0049
561.494	-0.009
561.688	-0.0168
561.882	-0.0098
562.076	-0.0076
562.2699	-0.0013
562.4639	-0.0033
562.6578	-0.0085
562.8517	0.0032
563.0456	0.0017
563.2395	0.0043
563.4333	0.0022
563.6272	0.0062
563.821	-0.0028
564.0148	-0.0072
564.2086	-0.0097
564.4024	0.0015
564.5961	0.0011
564.7899	-0.0011
564.9836	0.0042
565.1773	0.0028
565.371	0.0017
565.5647	-0.0006
565.7584	-0.0067
565.952	0.0109
566.1456	-0.0061
566.3393	-0.0043
566.5329	-0.0094
566.7264	-0.005
566.92	-0.0108
567.1136	0
567.3071	-0.0045
567.5006	0.0025
567.6941	0.0036
567.8876	0.0005
568.0811	-0.0069
568.2745	0.002
568.468	0.0048
568.6614	-0.0009
568.8548	-0.0014
569.0482	-0.0086
569.2416	0.0037
569.4349	0.0037
569.6283	0.0032
569.8216	0.0003
570.0149	-0.0049
570.2082	0.0037
570.4015	0.0109
570.5947	0.0102
570.788	0.0047
570.9812	-0.0051
571.1744	0.003
571.3676	-0.0087
571.5608	-0.0024
571.754	-0.0024
571.9471	-0.0018
572.1402	-0.0003
572.3333	-0.0034
572.5264	-0.0047
572.7195	-0.0058
572.9126	-0.0026
573.1057	0.0044
573.2987	-0.0009
573.4917	-0.0012
573.6847	-0.0067
573.8777	0.007
574.0707	0.002
574.2636	-0.0006
574.4566	-0.0036
574.6495	0.0051
574.8424	-0.0023
575.0353	0.0072
575.2281	0.004
575.421	0.0061
575.6138	0.0005
575.8067	-0.0037
575.9995	0.0023
576.1923	0.0026
576.385	0.0025
576.5778	0.0006
576.7706	0.0033
576.9633	0.0062
577.156	0.0017
577.3487	-0.0031
577.5414	0.0026
577.734	-0.0029
577.9267	0.0075
578.1193	-0.0067
578.3119	-0.0075
578.5045	-0.0042
578.6971	0.0063
578.8897	0.0024
579.0822	0.002
579.2747	-0.0025
579.4673	-0.0011
579.6598	-0.0044
579.8522	-0.0021
580.0447	-0.003
580.2372	0.0004
580.4296	0.0118
580.622	-0.0013
580.8144	0.0044
581.0068	-0.0005
581.1992	-0.0121
581.3915	-0.0059
581.5839	-0.0027
581.7762	-0.0057
581.9685	-0.0012
582.1608	0.0008
582.353	-0.0065
582.5453	0.0007
582.7375	-0.0053
582.9298	0.0055
583.122	0.0013
583.3142	0.0051
583.5063	0.0023
583.6985	-0.0024
583.8906	-0.0048
584.0827	-0.0097
584.2749	0.0013
584.4669	0.0023
584.659	-0.0055
584.8511	-0.0039
585.0431	-0.0034
585.2352	-0.0034
585.4272	-0.0036
585.6192	0.0028
585.8111	0.0031
586.0031	-0.0002
586.195	-0.0036
586.387	0.0065
586.5789	-0.0048
586.7708	0.0023
586.9627	-0.0001
587.1545	-0.0007
587.3464	0.0057
587.5382	0.0009
587.73	0.0018
587.9218	0.0081
588.1136	-0.0054
588.3053	0.0055
588.4971	-0.0037
588.6888	-0.0085
588.8805	-0.0012
589.0722	0
589.2639	0.0007
589.4556	-0.0083
589.6472	-0.0069
589.8389	-0.0025
590.0305	-0.0072
590.2221	0.0003
590.4137	-0.0021
590.6052	0.0055
590.7968	0.0051
590.9883	0.0029
591.1798	-0.0024
591.3713	0.002
591.5628	0.0026
591.7543	0.0099
591.9458	-0.0001
592.1372	0.0062
592.3286	0.0045
592.52	0.0033
592.7114	-0.004
592.9028	-0
593.0941	-0.0027
593.2855	-0.0033
593.4768	0.0006
593.6681	-0.0089
593.8594	-0.0033
594.0506	-0.0022
594.2419	0.0044
594.4331	0.0049
594.6244	0.0026
594.8156	-0.0099
595.0067	-0.0044
595.1979	0.0042
595.3891	-0.0016
595.5802	-0.0026
595.7713	-0.0052
595.9624	-0.0008
596.1535	0.0041
596.3446	-0.008
596.5357	-0.0048
596.7267	-0.0017
596.9177	0.0033
597.1087	-0.0065
597.2997	-0.0027
597.4907	0.001
597.6817	-0.0067
597.8726	-0.0034
598.0635	0.0022
598.2544	-0.0001
598.4453	0.0015
598.6362	-0.008
598.827	-0.0043
599.0179	0.0045
599.2087	0.0018
599.3995	-0.0015
599.5903	0.0023
599.7811	-0.0021
599.9718	-0.001
600.1626	-0.008
600.3533	-0.0046
600.544	-0.0057
600.7347	-0.0058
600.9254	-0.005
601.116	-0.0082
601.3067	-0.0051
601.4973	-0.0019
601.6879	0.0007
601.8785	-0.002
602.0691	-0.0001
602.2596	0.0017
602.4502	0.0033
602.6407	0.009
602.8312	0.0004
603.0217	-0.0057
603.2122	0.0003
603.4027	-0.004
603.5931	-0.0031
603.7835	0.0014
603.9739	0.0058
604.1643	-0.0043
604.3547	-0.0113
604.5451	0.005
604.7354	0.0003
604.9257	0.0027
605.116	0.0023
605.3063	0.0083
605.4966	0.0007
605.6869	0.0042
605.8771	0.0084
606.0673	0.0081
606.2575	-0.0021
606.4477	0.0064
606.6379	0.0027
606.8281	-0.0033
607.0182	-0.0045
607.2083	0.0068
607.3985	-0.0027
607.5885	0.0011
607.7786	-0.0027
607.9687	-0.0032
608.1587	0.0062
608.3488	0.0038
608.5388	0.0055
608.7288	-0.0014
608.9187	0.0002
609.1087	0.0011
609.2986	0.0024
609.4886	0.0004
609.6785	-0.0062
609.8684	0.0003
610.0582	0.0027
610.2481	0.0025
610.4379	-0.0005
610.6278	-0.0035
610.8176	-0.0039
611.0074	-0.0049
611.1971	-0.0047
611.3869	-0.0031
611.5766	-0.0092
611.7664	0.0093
611.9561	0.0084
612.1458	0.0022
612.3354	-0.0074
612.5251	-0.0018
612.7147	0.0004
612.9044	0.0089
613.094	-0.0114
613.2836	0.0003
613.4731	0.0004
613.6627	-0.004
613.8522	0.0036
614.0417	0.0041
614.2313	-0.007
614.4207	-0.0107
614.6102	0.0024
614.7997	-0.001
614.9891	-0.006
615.1785	-0.0023
615.3679	-0.0032
615.5573	0.0027
615.7467	-0.0033
615.9361	-0.0034
616.1254	0.0015
616.3147	-0.0006
616.504	0.0002
616.6933	-0.0023
616.8826	0.002
617.0718	0.0036
617.2611	0.0061
617.4503	-0.0008
617.6395	-0.0002
617.8287	-0.0004
618.0179	0.004
618.207	0.0028
618.3961	-0.0086
618.5853	-0.0025
618.7744	-0.0015
618.9634	0.001
619.1525	-0.0014
619.3416	0.0094
619.5306	0.0044
619.7196	-0.0043
619.9086	-0.0041
620.0976	0.0025
620.2866	0.0065
620.4755	0.0007
620.6645	-0.0002
620.8534	0.0063
621.0423	0.0077
621.2312	-0.002
621.42	0.0008
621.6089	0.0003
621.7977	0.0044
621.9865	-0.0033
622.1753	0.0024
622.3641	-0.0033
622.5529	0.0085
622.7416	0.0036
622.9303	-0.0024
623.1191	0.0117
623.3078	-0.0049
623.4964	-0.0026
623.6851	-0.0041
623.8737	-0.0072
624.0624	0.0013
624.251	-0.0023
624.4396	0.0017
624.6282	-0.0027
624.8167	0.0048
625.0053	-0.004
625.1938	0.0071
625.3823	-0.0028
625.5708	-0.0004
625.7593	-0.0089
625.9477	-0.0039
626.1362	-0.0067
626.3246	-0.0059
626.513	0.0048
626.7014	0.0035
626.8898	0.0016
627.0781	0.0034
627.2665	-0.0069
627.4548	0.0067
627.6431	0.0036
627.8314	-0.0036
628.0197	0.0096
628.2079	-0.006
628.3962	-0.007
628.5844	0.0038
628.7726	0.0007
628.9608	0.0051
629.1489	0.0017
629.3371	0.0054
629.5252	-0.0002
629.7134	0.011
629.9015	0.0018
630.0895	0.0059
630.2776	-0.0033
630.4657	0
630.6537	0.0049
630.8417	-0.0028
631.0297	-0.0083
631.2177	0.0017
631.4057	-0.0106
631.5936	-0.0016
631.7815	0.0075
631.9695	-0.0004
632.1574	0.0045
632.3452	0.0083
632.5331	0.0015
632.7209	-0
632.9088	0.0043
633.0966	0.016
633.2844	-0.0037
633.4722	0.0041
633.6599	0.0015
633.8477	-0.0008
634.0354	-0.0038
634.2231	-0.0049
634.4108	0.0029
634.5985	0.0077
634.7861	-0.0013
634.9738	0.0008
635.1614	0.0033
635.349	0.0068
635.5366	0.002
635.7242	0.0052
635.9117	0.0061
636.0993	0.0072
636.2868	-0.0007
636.4743	-0.0034
636.6618	0.0097
636.8492	0.0001
637.0367	0.0014
637.2241	0.0034
637.4115	0.0013
637.5989	0.0011
637.7863	0.0024
637.9737	-0.0037
638.161	-0.0029
638.3484	-0.0054
638.5357	0.0039
638.723	-0.0023
638.9103	-0.0011
639.0975	0.0006
639.2848	0
639.472	-0.0052
639.6592	0.0029
639.8464	0.0066
640.0336	0.0075
640.2208	-0.001
640.4079	0.0021
640.595	-0.0035
640.7821	0.0024
640.9692	-0.0073
641.1563	0.0011
641.3434	0.0029
641.5304	-0.0019
641.7174	0.0007
641.9044	-0.0015
642.0914	0.0025
642.2784	-0.0007
642.4653	0.0054
642.6523	0.0016
642.8392	0.0025
643.0261	-0.0069
643.213	0.0082
643.3999	-0.0015
643.5867	-0.0078
643.7735	0.0018
643.9604	0.001
644.1472	-0.0001
644.3339	0.0004
644.5207	0.0005
644.7075	0.0026
644.8942	0.0034
645.0809	0.0099
645.2676	0.0076
645.4543	0.0107
645.6409	0.0082
645.8276	0.0007
646.0142	0.0067
646.2008	-0.0011
646.3874	-0.0026
646.574	-0.003
646.7605	-0.0099
646.9471	-0.0112
647.1336	0.0002
647.3201	0.0032
647.5066	-0.005
647.6931	0.0048
647.8795	-0.0006
648.0659	0.0046
648.2524	0.0083
648.4388	-0.0049
648.6252	0.0048
648.8115	0.0036
648.9979	0.0031
649.1842	-0.0019
649.3705	-0.0008
649.5568	0.01
649.7431	0.0067
649.9294	-0.0039
650.1156	0.0045
650.3018	-0.0081
650.488	0.0072
650.6742	0.0086
650.8604	0.0012
651.0466	-0.001
651.2327	-0.0028
651.4188	-0.0013
651.6049	-0.0058
651.791	-0.0073
651.9771	0.0003
652.1632	0.0068
652.3492	0.0015
652.5352	-0.0006
652.7212	0.0018
652.9072	0.004
653.0932	0.0021
653.2791	-0.0048
653.465	0.0053
653.651	-0.0043
653.8369	-0.0063
654.0227	0.001
654.2086	0.007
654.3944	0.0026
654.5803	0.0028
654.7661	-0
654.9519	0.0085
655.1377	-0.0046
655.3234	0.0017
655.5092	-0.0049
655.6949	-0.0009
655.8806	-0.0015
656.0663	0.0022
656.2519	-0.0017
656.4376	0.0003
656.6232	0.0032
656.8088	-0.0035
656.9945	-0
657.18	0.0033
657.3656	0.0024
657.5511	-0.004
657.7367	-0.0064
657.9222	0.0074
658.1077	0.0006
658.2932	-0.0003
658.4786	-0.0134
658.6641	-0.0023
658.8495	-0.0004
659.0349	-0.002
659.2203	-0.0019
659.4057	-0.0053
659.591	0.0018
659.7764	0.0054
659.9617	-0.0024
660.147	-0.0008
660.3323	0.0023
660.5176	0.0047
660.7028	0.0022
660.888	0.0059
661.0733	0.0017
661.2585	-0.0071
661.4436	-0.0005
661.6288	-0.0052
661.8139	-0.0021
661.9991	0.0024
662.1842	-0.0003
662.3693	-0.0018
662.5544	-0.0015
662.7394	-0.0007
662.9245	-0.0037
663.1095	-0.0009
663.2945	-0.003
663.4795	0.0012
663.6644	0.002
663.8494	-0.0055
664.0343	-0.0031
664.2193	-0.0008
664.4042	-0.0031
664.589	-0.0082
664.7739	-0.0075
664.9587	-0.0029
665.1436	-0.0029
665.3284	0.0054
665.5132	-0.0022
665.698	-0.003
665.8827	0.006
666.0675	-0.0035
666.2522	-0.0073
666.4369	-0.0022
666.6216	0.0052
666.8063	-0.0006
666.9909	-0.0016
667.1756	-0.0025
667.3602	0.001
667.5448	-0.0071
667.7294	0.006
667.9139	-0.0004
668.0985	0.0138
668.283	0.0006
668.4675	0.0074
668.652	0.0042
668.8365	0.0001
669.0209	0.0068
669.2054	0.0082
669.3898	0.0017
669.5742	0.0054
669.7586	0.008
669.943	0.0039
670.1273	0.0072
670.3117	-0.0007
670.496	0.0021
670.6803	0.0097
670.8646	0.0036
671.0488	0.0003
671.2331	0.0009
671.4173	0.0041
671.6015	0.002
671.7857	0.0032
671.9699	0.0011
672.1541	0.0025
672.3382	-0.0009
672.5223	0.0004
672.7064	0.0085
672.8905	0.0046
673.0746	0.0011
673.2587	0.0036
673.4427	0.0022
673.6267	0.0049
673.8107	0.0021
673.9947	0.0025
674.1787	0.0109
674.3626	-0.0051
674.5465	0.0028
674.7304	0.0035
674.9143	0.0024
675.0982	0.0077
675.2821	-0.004
675.4659	0.0057
675.6497	0.0019
675.8335	-0.0023
676.0173	0.0052
676.2011	0.0026
676.3849	-0.0032
676.5686	-0.0072
676.7523	-0.0022
676.936	-0.0043
677.1197	-0.0059
677.3034	-0.0057
677.487	0.0107
677.6706	0.0005
677.8542	0.005
678.0378	-0.0028
678.2214	-0.0101
678.405	-0.0007
678.5885	-0.0146
678.772	0.0043
678.9555	-0.0007
679.139	0.0041
679.3225	0.0014
679.5059	0.004
679.6894	0.0025
679.8728	-0.0019
680.0562	-0.0066
680.2395	-0.0069
680.4229	-0.0004
680.6062	0.0051
680.7896	0.0038
680.9729	-0.0069
681.1562	0.0048
681.3394	0.0026
681.5227	-0.0035
681.7059	-0.0025
681.8891	0.0054
682.0723	0.0025
682.2555	0.0045
682.4387	0.0045
682.6218	-0.0051
682.805	0.0096
682.9881	0.007
683.1712	0.0001
683.3542	0.0056
683.5373	0.0019
683.7203	-0.0012
683.9034	-0.0007
684.0864	-0.009
684.2694	-0.0072
684.4523	0.0031
684.6353	-0.0044
684.8182	0.0037
685.0011	-0.0074
685.184	0.0054
685.3669	0.0017
685.5498	0.0045
685.7326	-0.0053
685.9154	-0.0047
686.0982	0.0041
686.281	0.0046
686.4638	0.0038
686.6465	0.0036
686.8293	-0.0093
687.012	-0.0021
687.1947	-0.0087
687.3774	0.001
687.56	-0.0029
687.7427	0.0081
687.9253	-0.0075
688.1079	-0.0045
688.2905	0.0064
688.4731	-0.0075
688.6556	-0.0005
688.8382	-0.0008
689.0207	-0.0008
689.2032	-0.0148
689.3857	-0.0046
689.5681	-0.0009
689.7506	-0.0048
689.933	0.0001
690.1154	0.0002
690.2978	-0.005
690.4802	0.0025
690.6626	-0.0095
690.8449	0.0003
691.0272	0.0098
691.2095	-0
691.3918	-0.0021
691.5741	-0.0021
691.7563	-0.0022
691.9386	0.0038
692.1208	-0.0014
692.303	0.0015
692.4852	0.0011
692.6673	0.006
692.8495	0.0014
693.0316	0.0043
693.2137	0.0001
693.3958	0.0037
693.5778	-0.0076
693.7599	0.0026
693.9419	0.0019
694.1239	-0.0005
694.3059	0.0032
694.4879	0.0041
694.6699	0.0082
694.8518	0.0033
695.0337	-0.0079
695.2157	0.0124
695.3975	0.0018
695.5794	0.001
695.7613	0.0065
695.9431	-0.0027
696.1249	0.01
696.3067	0.0089
696.4885	0.0022
696.6703	-0.0009
696.852	0.0047
697.0337	0.0103
697.2154	0.0052
697.3971	0.0035
697.5788	0.0016
697.7605	-0.0037
697.9421	0.0026
698.1237	0.0023
698.3053	-0.0018
698.4869	-0.0031
698.6685	0.0022
698.85	0.0022
699.0315	0.0118
699.213	0.0006
699.3945	0.007
699.576	0.0057
699.7575	0.0104
699.9389	0.005
700.1203	-0.0047
700.3017	-0.0017
700.4831	-0.0089
700.6645	-0.0025
700.8458	0.0022
701.0271	-0.0107
701.2084	0.003
701.3897	-0.0084
701.571	0.0013
701.7523	-0.007
701.9335	0.0022
702.1147	0.0004
702.2959	-0.0021
702.4771	0.0034
702.6583	0.0061
702.8394	-0.0038
703.0205	-0.0009
703.2016	-0.0018
703.3827	0.0019
703.5638	0.0103
703.7449	0.0025
703.9259	0.0115
704.1069	0.0031
704.2879	-0.0001
704.4689	0.0072
704.6499	0.0038
704.8308	-0.0029
705.0117	0.0063
705.1927	0.0029
705.3735	-0.0065
705.5544	-0.0064
705.7353	0.001
705.9161	-0.006
706.0969	-0.0033
706.2777	-0.0044
706.4585	-0.0077
706.6393	0.0007
706.82	-0.0022
707.0007	0.0026
707.1815	0.0058
707.3621	0.0057
707.5428	0.0026
707.7235	-0.0002
707.9041	0.0081
708.0847	-0.0072
708.2653	-0.0039
708.4459	-0.0082
708.6265	-0.0005
708.807	0.0024
708.9875	0.0015
709.168	-0.0016
709.3485	-0.0041
709.529	-0.0071
709.7095	-0.012
709.8899	-0.0015
710.0703	-0.0097
710.2507	-0.0046
710.4311	-0.0099
710.6115	-0.0131
710.7918	-0.0135
710.9721	-0.0004
711.1524	-0.009
711.3327	0.009
711.513	0.0042
711.6932	-0.0003
711.8735	0.0106
712.0537	0.0088
712.2339	0.0003
712.4141	-0.0022
712.5942	-0.0088
712.7744	-0.0054
712.9545	-0.0127
713.1346	-0.002
713.3147	-0.0022
713.4947	-0.005
713.6748	-0.0007
713.8548	-0.0036
714.0348	0.0009
714.2148	-0.0142
714.3948	0.0081
714.5748	-0.0046
714.7547	-0.0007
714.9346	0.0007
715.1145	-0.0066
715.2944	-0.0096
715.4743	0.0014
715.6541	-0.0072
715.834	0.0028
716.0138	0.0038
716.1936	-0.0105
716.3733	-0.0018
716.5531	0.0034
716.7328	-0.007
716.9126	-0.0074
717.0923	0.0047
717.2719	-0.0035
717.4516	0.0109
717.6312	0.0105
717.8109	-0.0028
717.9905	-0.0009
718.1701	-0.0021
718.3496	-0.0043
718.5292	0.0082
718.7087	0.0059
718.8882	0.0027
719.0677	0.008
719.2472	-0.0052
719.4267	0.0034
719.6061	0.003
719.7856	0.0033
719.965	0.0094
720.1443	0.0009
720.3237	0.0072
720.5031	0.0077
720.6824	0.0078
720.8617	-0.0025
721.041	0.0028
721.2203	0.0139
721.3995	0.0017
721.5788	0.0045
721.758	0.0101
721.9372	-0.0059
722.1164	0.0012
722.2956	0.0004
722.4747	0.001
722.6538	-0.0024
722.8329	0.0079
723.012	0.0017
723.1911	-0.0008
723.3702	-0.0027
723.5492	0.0062
723.7282	-0.0066
723.9072	0.0036
724.0862	-0.0108
724.2652	-0.0094
724.4441	-0.0047
724.623	0.0012
724.8019	-0.0063
724.9808	0.0004
725.1597	-0.0072
725.3385	0.0056
725.5174	-0.0026
725.6962	0.0045
725.875	0.0026
726.0538	0.0091
726.2325	-0.003
726.4112	0.0026
726.59	-0.002
726.7687	-0.0037
726.9474	0.0059
727.126	0.0062
727.3047	-0.0061
727.4833	0.004
727.6619	-0.0077
727.8405	-0.0025
728.0191	-0.0053
728.1976	-0.0022
728.3762	0.0081
728.5547	-0.0014
728.7332	-0.0144
728.9116	0.001
729.0901	-0
729.2686	-0.0083
729.447	-0.0103
729.6254	-0.0064
729.8038	-0.0051
729.9821	-0.0049
730.1605	0.0067
730.3388	0.0011
730.5171	-0
730.6954	-0.0091
730.8737	-0.0029
731.0519	0.0115
731.2302	0.001
731.4084	0.0062
731.5866	0.003
731.7648	-0.0119
731.9429	-0.0089
732.1211	-0.0101
732.2992	-0.0039
732.4773	-0.0119
732.6554	-0.0034
732.8335	0.0049
733.0115	0.0082
733.1896	0.0137
733.3676	-0.0081
733.5456	0.013
733.7235	0.0017
733.9015	0.0002
734.0794	-0.001
734.2574	0.0012
734.4353	0.0021
734.6131	0.0064
734.791	0.0049
734.9689	0.0015
735.1467	0.0025
735.3245	-0.0054
735.5023	-0.0059
735.68	-0.0039
735.8578	0.0008
736.0355	-0.0118
736.2132	-0.0046
736.3909	-0.0046
736.5686	-0.0068
736.7463	0.0118
736.9239	-0.001
737.1015	-0.0108
737.2791	0.0121
737.4567	-0.008
737.6343	0.0009
737.8118	0.0089
737.9894	-0.0003
738.1669	-0.0053
738.3444	-0.0022
738.5218	0
738.6993	0.0061
738.8767	-0.0026
739.0541	0.01
739.2315	-0.0031
739.4089	-0.0007
739.5863	0.0086
739.7636	-0.011
739.9409	-0.0031
740.1182	0.0007
740.2955	-0.0031
740.4728	-0.0015
740.65	-0.0037
740.8272	-0.003
741.0044	0.0063
741.1816	-0.0021
741.3588	0.0051
741.5359	0.0033
741.7131	-0.0066
741.8902	-0.0047
742.0673	-0.0036
742.2444	-0.0096
742.4214	-0.0051
742.5985	-0.0031
742.7755	-0.007
742.9525	-0.0117
743.1295	0.0046
743.3064	0.0023
743.4834	0.0056
743.6603	-0.0057
743.8372	-0.0068
744.0141	0.0019
744.191	0.006
744.3678	-0.0005
744.5446	-0.0013
744.7215	0
744.8982	-0.0033
745.075	-0.009
745.2518	-0.0006
745.4285	0.0043
745.6052	-0.0003
745.7819	-0.0067
745.9586	-0.0114
746.1353	-0.0149
746.3119	-0.0142
746.4885	-0.0074
746.6651	-0.0121
746.8417	-0.0127
747.0183	-0.0155
747.1948	-0.0094
747.3714	-0.017
747.5479	-0.0004
747.7244	-0.0199
747.9008	0.0025
748.0773	-0.0052
748.2537	-0.0076
748.4301	-0.0111
748.6065	-0.0044
748.7829	-0.0038
748.9593	-0.0114
749.1356	-0.0031
749.3119	0.0064
749.4882	-0.0144
749.6645	0.0045
749.8408	0.0041
750.017	-0.0073
750.1933	0.002
750.3695	-0.0093
750.5457	-0.004
750.7218	-0.0005
750.898	-0.005
751.0741	-0.0066
751.2502	-0.0011
751.4263	-0.0051
751.6024	-0.0043
751.7784	-0.0099
751.9545	-0.003
752.1305	-0.0039
752.3065	-0.0092
752.4825	0.0026
752.6584	-0.011
752.8344	-0.0103
753.0103	-0.0116
753.1862	-0.0087
753.3621	-0.0058
753.5379	-0.011
753.7138	0.0051
753.8896	-0.0037
754.0654	0.0037
754.2412	0.0014
754.417	-0.0053
754.5927	-0.0074
754.7685	0.0055
754.9442	-0.0053
755.1199	0.0064
755.2956	0.0035
755.4712	0.0161
755.6469	0.0005
755.8225	-0.0003
755.9981	0.0042
756.1736	0.0081
756.3492	-0.0052
756.5248	-0.0015
756.7003	-0.0004
756.8758	0.0136
757.0513	-0.0065
757.2267	-0.0059
757.4022	0.0067
757.5776	0.0052
757.753	0.003
757.9284	0.0057
758.1038	0.0101
758.2791	0.0005
758.4545	-0.0109
758.6298	0.0028
758.8051	0.003
758.9803	-0.0023
759.1556	-0.005
759.3308	-0.0129
759.506	0.0068
759.6812	-0.0022
759.8564	0.0104
760.0316	-0.0023
760.2067	0.0045
760.3819	0.0076
760.557	0.0113
760.732	-0.0018
760.9071	-0.0044
761.0821	0.001
761.2572	0.0192
761.4322	-0.0007
761.6072	0.0011
761.7821	-0.0052
761.9571	-0.0009
762.132	-0.0082
762.3069	-0.0094
762.4818	-0.0088
762.6567	-0.0112
762.8316	-0.0013
763.0064	-0.0075
763.1812	0.0002
763.356	-0.0113
763.5308	-0.0063
763.7055	0.0007
763.8803	-0.0088
764.055	-0.0039
764.2297	-0.0044
764.4044	-0.014
764.579	-0.0095
764.7537	-0.0121
764.9283	-0.0034
765.1029	-0.012
765.2775	-0.014
765.4521	-0.0122
765.6266	-0.0087
765.8011	-0.0162
765.9756	0.0004
766.1501	0.0031
766.3246	-0.0007
766.4991	-0.0076
766.6735	-0.0006
766.8479	-0.0128
767.0223	0.0039
767.1967	-0.0003
767.371	-0.0065
767.5454	-0.013
767.7197	-0.003
767.894	-0.0029
768.0683	-0.0156
768.2425	-0.0084
768.4168	-0.0019
768.591	-0.0059
768.7652	-0.0105
768.9394	-0.0007
769.1135	-0.0055
769.2877	0.0078
769.4618	-0.01
769.6359	-0.0011
769.81	-0.0034
769.984	-0.0067
770.1581	-0.01
770.3321	-0.0038
770.5061	-0.0069
770.6801	-0.002
770.8541	0.0075
771.028	-0.0077
771.202	-0.0068
771.3759	-0.002
771.5498	-0.0094
771.7236	0.0026
771.8975	0.0016
772.0713	0.0085
772.2451	0.0033
772.4189	0.0015
772.5927	0.0088
772.7665	0.0088
772.9402	0.0101
773.1139	-0.0044
773.2876	-0.0204
773.4613	-0.0056
773.635	0.0011
773.8086	-0.017
773.9822	-0.0077
774.1558	-0.005
774.3294	-0.0296
774.503	-0.0141
774.6765	0.0051
774.8501	-0.0083
775.0236	0.0035
775.1971	0.0108
775.3705	-0.0146
775.544	0.0033
775.7174	-0.0139
775.8908	-0.0022
776.0642	-0.0084
776.2376	-0.0029
776.4109	-0.0072
776.5843	-0.0003
776.7576	0.0006
776.9309	0.0074
777.1041	0.0055
777.2774	0.0045
777.4506	0.0047
777.6238	-0.005
777.797	-0.0046
777.9702	-0.0067
778.1434	0.0022
778.3165	-0.0212
778.4896	-0.0079
778.6627	0.003
778.8358	0.0038
779.0089	-0.012
779.1819	-0.0027
779.3549	-0.0043
779.5279	0.0028
779.7009	-0.0053
779.8739	0.0001
780.0468	-0.0147
780.2197	0.0057
780.3926	-0.0065
780.5655	-0.015
780.7384	-0.0212
780.9112	-0.0001
781.0841	-0.019
781.2569	0.0015
781.4297	-0.0053
781.6024	-0.0048
781.7752	0.0052
781.9479	-0.0038
782.1206	0.0015
782.2933	-0.0135
782.466	-0.0044
782.6386	-0.0061
782.8113	0.0021
782.9839	0.0037
783.1565	0.0052
783.329	-0.0079
783.5016	0.006
783.6741	0.0042
783.8466	-0.0086
784.0191	0.0142
784.1916	-0.003
784.3641	0.0087
784.5365	0.0089
784.7089	-0.0061
784.8813	-0.005
785.0537	0.0026
785.2261	-0.0116
785.3984	-0.0149
785.5707	-0.0041
785.743	-0.0039
785.9153	-0.0063
786.0876	-0.0071
786.2598	-0.002
786.432	-0.0135
786.6042	-0.0001
786.7764	-0.0134
786.9486	-0.013
787.1207	-0.0092
787.2928	-0.0002
787.4649	-0.0033
787.637	0.0051
787.8091	-0.0078
787.9811	-0.0076
788.1532	-0.0002
788.3252	0.0188
788.4972	-0.0083
788.6691	-0.0118
788.8411	0.0064
789.013	-0.0099
789.1849	0.0078
789.3568	-0.0071
789.5287	-0.0053
789.7005	-0.0071
789.8723	-0.0036
790.0442	0.0288
790.2159	-0.0101
790.3877	0.0021
790.5595	-0.0178
790.7312	0.0092
790.9029	-0.0084
791.0746	-0.0016
791.2463	0.0043
791.4179	0.009
791.5896	-0.0052
791.7612	0.0002
791.9328	0.0122
792.1044	-0.0099
792.2759	-0.0212
792.4474	-0.0106
792.619	-0.0023
792.7905	-0.0029
792.9619	0.003
793.1334	0.0071
793.3048	0.0117
793.4762	0.0113
793.6476	-0.0016
793.819	-0.0029
793.9904	0.0054
794.1617	-0.0153
794.333	-0.0137
794.5043	-0.0161
794.6756	-0.0075
794.8469	0.0137
795.0181	-0.0087
795.1893	-0.0045
795.3605	0.0091
795.5317	0.0081
795.7029	-0.0194
795.874	0.0015
796.0452	-0.0066
796.2163	-0.0106
796.3873	0.0067
796.5584	0.0124
796.7294	-0.0103
796.9005	0.0116
797.0715	-0.0053
797.2425	-0.0121
797.4134	0.0039
797.5844	0.0142
797.7553	-0.0192
797.9262	0.0028
798.0971	-0.0161
798.2679	-0.0119
798.4388	-0.0264
798.6096	-0.0007
798.7804	-0.007
798.9512	-0.0036
799.122	-0.0093
799.2927	0.0028
799.4635	0.0017
799.6342	-0.0093
799.8049	-0.0032
799.9755	-0.0091
800.1462	-0.0032
800.3168	0.0034
800.4874	-0.0068
800.658	0.0181
800.8286	0.0113
800.9991	0.0166
801.1696	0.0026
801.3402	0.0096
801.5106	-0.0131
801.6811	-0.0017
801.8516	0.0164
802.022	0.0222
802.1924	-0.0094
802.3628	0.0133
802.5332	0.0146
802.7035	0.0176
802.8739	-0.0039
803.0442	-0.012
803.2145	-0.0064
803.3847	-0.0138
803.555	0.017
803.7252	-0.0032
803.8954	-0.0278
804.0656	-0.0218
804.2358	0.0023
804.4059	-0.0012
804.5761	0.009
804.7462	0.0047
804.9163	-0.0059
805.0864	-0.013
805.2564	0.0145
805.4264	0.0017
805.5965	0.0062
805.7665	0.0101
805.9364	0.0071
806.1064	0.0228
806.2763	0.0022
806.4462	0.0142
806.6161	0.0005
806.786	0.0147
806.9559	-0.0135
807.1257	0.0083
807.2955	0.0015
807.4653	-0.0013
807.6351	-0.0027
807.8048	0.002
807.9746	0.0011
808.1443	-0.0042
808.314	0.0057
808.4837	-0.0087
808.6533	0.0037
808.8229	0.0258
808.9926	0.0119
809.1622	0.0128
809.3317	-0.0108
809.5013	-0.0019
809.6708	0.0092
809.8403	0.0157
810.0098	-0.0238
810.1793	0.0047
810.3488	0.0059
810.5182	-0.0105
810.6876	0.0083
810.857	-0.0057
811.0264	0.0078
811.1958	-0.0029
811.3651	-0.0009
811.5344	0.0057
811.7037	0.0067
811.873	0.0056
812.0422	-0.0035
812.2115	-0.0145
812.3807	-0.0147
812.5499	0.0097
812.7191	0.0099
812.8882	-0.0072
813.0574	0.0043
813.2265	-0.0026
813.3956	0.0012
813.5646	-0.0113
813.7337	-0.0136
813.9027	0.0018
814.0718	0.0143
814.2407	0.0191
814.4097	0.0038
814.5787	-0.022
814.7476	-0.0195
814.9165	0.0055
815.0854	-0.0282
815.2543	-0.0036
815.4232	-0.0112
815.592	-0.0047
815.7608	-0.0218
815.9296	0.0087
816.0984	0.0114
816.2671	-0.0184
816.4359	-0.0262
816.6046	0.0116
816.7733	-0.0313
816.942	-0.0119
817.1106	-0.012
817.2793	-0.0116
817.4479	0.0066
817.6165	0.0054
817.785	-0.007
817.9536	-0.014
818.1221	-0.0125
818.2906	0.0115
818.4591	-0.02
818.6276	-0.02
818.7961	-0.0038
818.9645	0.0052
819.1329	-0.0032
819.3013	0.0136
819.4697	0.0409
819.638	-0.006
819.8064	0.0119
819.9747	0.0012
820.143	0.0082
820.3113	-0.0067
820.4795	0.0209
820.6477	0.0242
820.816	0.0137
820.9842	0.0016
821.1523	-0.0108
821.3205	-0.003
821.4886	-0.0133
821.6567	0.0184
821.8248	0.0107
821.9929	0.0239
822.1609	-0.0073
822.329	0.0414
822.497	0.0101
822.665	-0.0188
822.833	-0.006
823.0009	0.0116
823.1688	-0.0102
823.3367	0.0234
823.5046	0.0142
823.6725	0.0267
823.8404	-0.0057
824.0082	0.0145
824.176	0.0106
824.3438	0.0038
824.5116	-0.0097
824.6793	0.0234
824.847	-0.0047
825.0147	-0.0006
825.1824	0.0278
825.3501	0.001
825.5177	-0.0348
825.6854	0.0063
825.853	0.0057
826.0206	-0.0021
826.1881	0.0019
826.3557	-0.0489
826.5232	0.0007
826.6907	-0.0455
826.8582	-0.0403
827.0257	-0.0231
827.1931	0.0061
827.3605	0.0172
827.528	-0.0255
827.6953	-0.0248
827.8627	0.0045
828.03	0.021
828.1974	-0.0068
828.3647	-0.0258
828.532	-0.0086
828.6992	-0.0214
828.8665	0.0055
829.0337	-0.0171
829.2009	0.0078
829.3681	-0.0331
829.5352	0.0519
829.7024	0.0101
829.8695	-0.0091
830.0366	-0.0017
830.2037	-0.0103
830.3707	0.0072
830.5378	-0.0013
830.7048	0.0036
830.8718	-0.0099
831.0388	-0.0199
831.2057	0.0289
831.3727	0.021
831.5396	-0.0148
831.7065	0.0067
831.8734	0.0063
832.0402	-0.0114
832.2071	-0.0042
832.3739	0.0168
832.5407	-0.0092
832.7075	-0.024
832.8742	-0.0479
833.041	-0.0154
833.2077	-0.0315
833.3744	0.0062
833.541	-0.0174
833.7077	0.0416
833.8743	-0.0075
834.0409	-0.007
834.2075	-0.0219
834.3741	0.0103
834.5407	-0.006
834.7072	-0.022
834.8737	-0.0108
835.0402	-0.003
835.2067	0.0168
835.3731	0.0206
835.5395	0.0193
835.706	-0.0061
835.8723	-0.0342
836.0387	0.0466
836.2051	-0.0059
836.3714	-0.0256
836.5377	0.031
836.704	-0.0158
836.8703	0.0043
837.0365	0.0152
837.2027	-0.0196
837.3689	0.0273
837.5351	-0.0048
837.7013	-0.0693
837.8674	-0.0267
838.0335	-0.0504
838.1997	-0.0132
838.3657	-0.0261
838.5318	-0.0069
838.6978	0.0364
838.8639	0.0449
839.0299	-0.003
839.1958	-0.0364
839.3618	0.026
839.5277	-0.0189
839.6937	0.0046
839.8596	-0.0293
840.0254	0.0366
840.1913	-0.0037
840.3571	-0.0039
840.523	0.0178
840.6888	-0.007
840.8545	-0.0391
841.0203	-0.0201
841.186	-0.0114
841.3517	0.0292
841.5174	-0.0039
841.6831	-0.0485
841.8488	0.005
842.0144	0.023
842.18	0.0241
842.3456	0.0418
842.5112	-0.0145
842.6767	-0.0234
842.8422	-0.0163
843.0077	0.0359
843.1732	-0.052
843.3387	-0.0518
843.5042	-0.0624
843.6696	0.028
843.835	0.0497
844.0004	-0.0204
844.1657	0.0086
844.3311	0.0085
844.4964	-0.0501
844.6617	0.0211
844.827	0.0433
844.9923	0.0181
845.1575	0.0127
845.3227	0.0243
845.4879	0.0419
845.6531	-0.0709
845.8183	-0.0854
845.9834	0.0237
846.1485	-0.039
846.3136	-0.0382
846.4787	-0.0279
846.6438	-0.0077
846.8088	0.0103
846.9738	-0.0435
847.1388	-0.0266
847.3038	-0.0466
847.4687	-0.1273
847.6337	-0.0402
847.7986	0.0239
847.9635	-0.0597
848.1284	-0.0207
848.2932	0.0279
848.458	0.0009
848.6228	0.0309
848.7876	0.1291
848.9524	-0.0602
849.1172	-0.1299
849.2819	0.0164
849.4466	-0.1127
849.6113	-0.0443
849.7759	-0.0089
849.9406	-0.0703
850.1052	0.0058
850.2698	-0.0176
850.4344	-0.0087
850.599	-0.0598
850.7635	0.0007
850.928	0.0181
851.0925	-0.0179
851.257	0.1138
851.4215	-0.0008
851.5859	-0.0603
851.7503	0.0743
851.9147	0.0441
852.0791	-0.0753
852.2434	-0.0424
852.4078	0.0126
852.5721	0.1044
852.7364	-0.0509
852.9007	-0.1966
853.0649	-0.0331
853.2291	0.0114
853.3934	-0.0147
853.5575	0.0355
853.7217	-0.0724
853.8859	-0.1065
854.05	-0.1697
854.2141	-0.0115
854.3782	-0.0595
854.5423	-0.0793
854.7063	0.0975
854.8703	0.0212
855.0343	0.0276
855.1983	-0.0853
855.3623	0.0966
855.5262	0.0211
855.6901	-0.0407
855.854	0.0244
856.0179	0.0078
856.1818	0.1257
856.3456	-0.0435
856.5094	-0.1688
856.6732	0.0022
856.837	-0.0196
857.0008	0.5008
857.1645	-0.0045
857.3282	-0.0867
857.4919	-0.0172
857.6556	0.1892
857.8192	-0.0794
857.9828	0.1491
858.1465	0.1502
858.31	-0.0608
858.4736	-0.1193
858.6372	-0.1218
858.8007	-0.2369
858.9642	0.0163
859.1277	0.0272
859.2911	-0.0417
859.4546	-0.1025
859.618	-0.213
859.7814	-0.0838
859.9448	-0.0065
860.1081	-0.0522
860.2715	0.1257
860.4348	0.3799
860.5981	-0.0207
860.7614	0.1538
860.9246	-0.1782
861.0879	-0.0727
861.2511	-0.0974
861.4143	-0.3233
861.5774	0.3004
861.7406	-0.1897
861.9037	-0.002
862.0668	-0.2454
862.2299	-0.0637
862.393	-0.6159
862.556	0.0501
862.7191	-0.1346
862.8821	0.0242
863.0451	0.0083
863.208	0.0461
863.371	0.0068
863.5339	-0.0585
863.6968	0.0495
863.8597	-0.2422
864.0225	-0.1299
864.1854	0.1185
864.3482	0.1842
864.511	-0.0108
864.6737	-0.0466
864.8365	0.5697
864.9992	-0.6145
865.1619	-0.4868
865.3246	-0.1078
865.4873	-0.0169
865.65	0.3828
865.8126	-0.0484
865.9752	0.3167
866.1378	-0.1199
866.3004	-0
866.4629	0.1968
866.6254	0.0207
866.7879	0.5879
866.9504	0.132
867.1129	-0
867.2753	0.2664
867.4377	0.1877
867.6001	-0.0932
867.7625	0.0888
867.9249	0.1587
868.0872	0.4067
868.2495	0.1623
868.4118	-0.1804
868.5741	-0
868.7363	-0.0623
868.8986	-0.2679
869.0608	0.0124
869.223	-0.0404
869.3851	-0.2106
869.5473	-0
869.7094	0.0286
869.8715	-0.3069
870.0336	-0
870.1957	-0.5451
870.3577	-0
870.5197	-0.1954
870.6817	-0.4573
870.8437	-0.1529
871.0057	-0
871.1676	-0.0598
871.3295	-0.2679
871.4914	-0.1811
871.6533	-0.2477
871.8151	-0.4112
871.977	-0
872.1388	-0
872.3006	-0
872.4623	0.1853
872.6241	0.04
872.7858	0.3411
872.9475	0.6968
873.1092	-0.2596
873.2709	-0
873.4325	0.0189
873.5941	-0.1471
873.7557	-0
873.9173	-0
874.0789	-0.492
874.2404	-0
874.4019	0.0298
874.5634	1.3118
874.7249	-0.0224
874.8863	-0.0055
875.0478	0.1835
875.2092	-0
875.3706	0.3298
875.5319	-0.2721
875.6933	-0.1088
875.8546	-0.3771
876.0159	0.5704
876.1772	-0
876.3385	-0
876.4997	1.288
876.6609	-0.3644
876.8221	-0.3857
876.9833	-0
877.1445	-0
877.3056	0.0959
877.4667	-0.541
877.6278	-0
877.7889	-0.8207
877.9499	-0
878.111	-0.5805
878.272	-0
878.433	-0
878.5939	-0
878.7549	-0.1794
878.9158	-0.8852
879.0767	0.7477
879.2376	0.2026
879.3984	-0
879.5593	-0
879.7201	0.243
879.8809	-0.633
880.0417	-0.4175
880.2024	-0
880.3632	-0.8592
880.5239	0.618
880.6846	-0
880.8452	-2.5682
881.0059	-0
881.1665	-0.2334
881.3271	-0.2041
881.4877	-0
881.6483	-0.7173
881.8088	-0.3243
881.9693	-0
882.1298	-0
882.2903	-0
