Data from MonoPyChalIsomerACN10uM350nmA_Absorbance_14-35-33-815.txt Node
Date: Fri Jul 05 14:35:33 BST 2024
User: LASERRRRR
Spectrometer: FLMT03099
Trigger mode: 0
Integration Time (sec): 1.000000E-1
Scans to average: 1
Electric dark correction enabled: true
Nonlinearity correction enabled: false
Boxcar width: 0
XAxis mode: Wavelengths
Number of Pixels in Spectrum: 3648
>>>>>Begin Spectral Data<<<<<
179.3399	-0.1161
179.5586	-0.1161
179.7771	-0.1161
179.9957	0.715
180.2143	-0
180.4329	-0.1585
180.6514	-0
180.8699	0.2106
181.0885	0.1577
181.307	0.2109
181.5255	-0
181.744	-0
181.9625	-0
182.181	-0
182.3994	0.2022
182.6179	-0
182.8363	-0
183.0547	-0.2695
183.2732	0.1693
183.4916	0.1643
183.71	0.1102
183.9284	0.1359
184.1467	-0.0703
184.3651	0.0719
184.5835	0.0473
184.8018	-0.115
185.0201	-0.0004
185.2385	-0.0576
185.4568	-0.0143
185.6751	0.1663
185.8934	-0.0324
186.1117	0.0772
186.3299	0.0708
186.5482	-0.1468
186.7664	0.0554
186.9847	-0.1462
187.2029	0.1455
187.4211	-0.1305
187.6393	0.1001
187.8575	0.0115
188.0757	0.1303
188.2939	-0.016
188.512	0.0977
188.7302	-0.0396
188.9483	-0.1121
189.1665	-0.052
189.3846	-0.0011
189.6027	0.0281
189.8208	0.0766
190.0389	0.1235
190.257	0.1426
190.475	0.1804
190.6931	0.2454
190.9111	0.5022
191.1292	0.1227
191.3472	0.3205
191.5652	0.1967
191.7832	0.1931
192.0012	0.3906
192.2192	0.3074
192.4371	0.3528
192.6551	0.3003
192.873	0.4084
193.091	0.4428
193.3089	0.6154
193.5268	0.4982
193.7447	0.4877
193.9626	0.5455
194.1805	0.5758
194.3984	0.6565
194.6162	0.4976
194.8341	0.6905
195.0519	0.49
195.2697	0.8957
195.4875	0.5241
195.7054	0.5667
195.9231	0.5029
196.1409	0.5715
196.3587	0.4796
196.5765	0.5906
196.7942	0.6012
197.012	0.4693
197.2297	0.5332
197.4474	0.5831
197.6651	0.5706
197.8828	0.6405
198.1005	0.4623
198.3182	0.5265
198.5358	0.7402
198.7535	0.5809
198.9711	0.4581
199.1888	0.5682
199.4064	0.7464
199.624	0.5291
199.8416	0.613
200.0592	0.6504
200.2767	0.5974
200.4943	0.608
200.7119	0.6293
200.9294	0.5771
201.1469	0.519
201.3645	0.5587
201.582	0.6593
201.7995	0.6487
202.017	0.5452
202.2344	0.4962
202.4519	0.5259
202.6694	0.5742
202.8868	0.6231
203.1042	0.6293
203.3217	0.6774
203.5391	0.6594
203.7565	0.6011
203.9739	0.6036
204.1913	0.6237
204.4086	0.6321
204.626	0.6386
204.8433	0.5944
205.0607	0.5676
205.278	0.6741
205.4953	0.6354
205.7126	0.6699
205.9299	0.6885
206.1472	0.6321
206.3644	0.5702
206.5817	0.6247
206.7989	0.6852
207.0162	0.6408
207.2334	0.6592
207.4506	0.5828
207.6678	0.6353
207.885	0.6352
208.1022	0.5722
208.3194	0.7293
208.5365	0.6397
208.7537	0.6632
208.9708	0.6028
209.1879	0.5982
209.405	0.7159
209.6222	0.6321
209.8392	0.5997
210.0563	0.6522
210.2734	0.6321
210.4905	0.5677
210.7075	0.6234
210.9245	0.619
211.1416	0.697
211.3586	0.6005
211.5756	0.5334
211.7926	0.5997
212.0096	0.5648
212.2265	0.5168
212.4435	0.6295
212.6604	0.5986
212.8774	0.6088
213.0943	0.5942
213.3112	0.5655
213.5281	0.4948
213.745	0.4982
213.9619	0.487
214.1788	0.4556
214.3956	0.4306
214.6125	0.4185
214.8293	0.425
215.0461	0.4733
215.2629	0.42
215.4798	0.4563
215.6965	0.4211
215.9133	0.4461
216.1301	0.4132
216.3469	0.4404
216.5636	0.3661
216.7803	0.3798
216.9971	0.4112
217.2138	0.3602
217.4305	0.3505
217.6472	0.3591
217.8639	0.3759
218.0805	0.342
218.2972	0.3229
218.5138	0.3105
218.7305	0.3157
218.9471	0.3205
219.1637	0.2767
219.3803	0.2932
219.5969	0.283
219.8135	0.2509
220.0301	0.2932
220.2466	0.3004
220.4632	0.2619
220.6797	0.2222
220.8962	0.2561
221.1127	0.2323
221.3292	0.244
221.5457	0.2384
221.7622	0.2495
221.9787	0.2443
222.1951	0.2315
222.4116	0.2484
222.628	0.2573
222.8444	0.2678
223.0608	0.2461
223.2772	0.2549
223.4936	0.2656
223.71	0.2086
223.9264	0.2554
224.1427	0.2343
224.3591	0.2481
224.5754	0.2612
224.7917	0.2692
225.008	0.2637
225.2243	0.2624
225.4406	0.2903
225.6569	0.2682
225.8732	0.2425
226.0894	0.2815
226.3057	0.2565
226.5219	0.2988
226.7381	0.2592
226.9543	0.2787
227.1705	0.2721
227.3867	0.2748
227.6029	0.2899
227.8191	0.2887
228.0352	0.2943
228.2513	0.3098
228.4675	0.2981
228.6836	0.3066
228.8997	0.2927
229.1158	0.302
229.3319	0.31
229.548	0.3102
229.764	0.3086
229.9801	0.3119
230.1961	0.3235
230.4121	0.3338
230.6282	0.3454
230.8442	0.3326
231.0602	0.3613
231.2761	0.3514
231.4921	0.3426
231.7081	0.3664
231.924	0.3426
232.14	0.3616
232.3559	0.3289
232.5718	0.3518
232.7877	0.3501
233.0036	0.323
233.2195	0.3615
233.4353	0.3549
233.6512	0.364
233.867	0.3435
234.0829	0.3629
234.2987	0.3604
234.5145	0.3862
234.7303	0.3658
234.9461	0.3848
235.1619	0.3694
235.3776	0.3708
235.5934	0.3654
235.8091	0.3716
236.0249	0.3704
236.2406	0.3958
236.4563	0.3779
236.672	0.3843
236.8877	0.3986
237.1034	0.3967
237.319	0.3901
237.5347	0.3942
237.7503	0.3871
237.966	0.4128
238.1816	0.4153
238.3972	0.3705
238.6128	0.3883
238.8284	0.4206
239.0439	0.415
239.2595	0.4124
239.475	0.4084
239.6906	0.4009
239.9061	0.3979
240.1216	0.3905
240.3371	0.4161
240.5526	0.3991
240.7681	0.4129
240.9836	0.3888
241.199	0.401
241.4145	0.3926
241.6299	0.3867
241.8453	0.3862
242.0607	0.3977
242.2761	0.351
242.4915	0.3462
242.7069	0.3673
242.9223	0.3464
243.1376	0.3357
243.353	0.3312
243.5683	0.3457
243.7836	0.3227
243.9989	0.3317
244.2142	0.2967
244.4295	0.3008
244.6448	0.3007
244.86	0.28
245.0753	0.2738
245.2905	0.2973
245.5057	0.2748
245.721	0.2599
245.9362	0.2627
246.1514	0.267
246.3665	0.2569
246.5817	0.2512
246.7969	0.243
247.012	0.234
247.2271	0.2149
247.4423	0.2466
247.6574	0.2254
247.8725	0.2063
248.0876	0.2149
248.3026	0.2308
248.5177	0.2269
248.7328	0.216
248.9478	0.2027
249.1628	0.2009
249.3779	0.2096
249.5929	0.2098
249.8079	0.2033
250.0228	0.2001
250.2378	0.1886
250.4528	0.1998
250.6677	0.1845
250.8827	0.1888
251.0976	0.1882
251.3125	0.1774
251.5274	0.1685
251.7423	0.1848
251.9572	0.1773
252.172	0.1756
252.3869	0.18
252.6017	0.1783
252.8166	0.1697
253.0314	0.1585
253.2462	0.1838
253.461	0.1838
253.6758	0.1675
253.8906	0.1694
254.1053	0.1646
254.3201	0.1618
254.5348	0.1721
254.7496	0.1688
254.9643	0.1705
255.179	0.1719
255.3937	0.1707
255.6083	0.1791
255.823	0.1705
256.0377	0.1716
256.2523	0.1614
256.467	0.1543
256.6816	0.1716
256.8962	0.1693
257.1108	0.1613
257.3254	0.168
257.54	0.1659
257.7545	0.1674
257.9691	0.1778
258.1836	0.1694
258.3981	0.1738
258.6127	0.1716
258.8272	0.1503
259.0417	0.1568
259.2561	0.1692
259.4706	0.1667
259.6851	0.1657
259.8995	0.1487
260.114	0.1551
260.3284	0.1756
260.5428	0.1522
260.7572	0.1651
260.9716	0.1736
261.186	0.1652
261.4003	0.1632
261.6147	0.166
261.829	0.1639
262.0433	0.1659
262.2577	0.1675
262.472	0.162
262.6863	0.1563
262.9005	0.1609
263.1148	0.165
263.3291	0.1505
263.5433	0.1506
263.7576	0.1656
263.9718	0.1528
264.186	0.1584
264.4002	0.1574
264.6144	0.1634
264.8286	0.1659
265.0427	0.1536
265.2569	0.1485
265.471	0.1475
265.6851	0.1568
265.8993	0.1524
266.1134	0.1551
266.3275	0.1606
266.5415	0.1574
266.7556	0.1589
266.9697	0.1632
267.1837	0.1594
267.3978	0.1562
267.6118	0.1757
267.8258	0.1722
268.0398	0.1555
268.2538	0.1743
268.4677	0.1568
268.6817	0.1552
268.8957	0.1597
269.1096	0.1589
269.3235	0.1601
269.5374	0.1407
269.7514	0.1436
269.9652	0.1421
270.1791	0.1385
270.393	0.1392
270.6068	0.1515
270.8207	0.1415
271.0345	0.1356
271.2483	0.156
271.4622	0.1368
271.676	0.1585
271.8897	0.1294
272.1035	0.1452
272.3173	0.1385
272.531	0.1323
272.7448	0.1379
272.9585	0.1361
273.1722	0.1461
273.3859	0.1358
273.5996	0.1388
273.8133	0.1331
274.0269	0.1358
274.2406	0.1406
274.4542	0.1425
274.6679	0.1285
274.8815	0.1309
275.0951	0.1428
275.3087	0.1589
275.5223	0.1417
275.7358	0.1452
275.9494	0.1452
276.1629	0.1252
276.3765	0.1412
276.59	0.1413
276.8035	0.1354
277.017	0.1486
277.2305	0.139
277.444	0.1516
277.6574	0.1336
277.8709	0.1425
278.0843	0.1345
278.2978	0.1423
278.5112	0.1366
278.7246	0.1406
278.938	0.1344
279.1513	0.1459
279.3647	0.1405
279.5781	0.1347
279.7914	0.1466
280.0047	0.1526
280.2181	0.155
280.4314	0.1491
280.6447	0.1438
280.8579	0.1471
281.0712	0.1546
281.2845	0.1544
281.4977	0.1353
281.711	0.1465
281.9242	0.1423
282.1374	0.1513
282.3506	0.1464
282.5638	0.1502
282.7769	0.1667
282.9901	0.1493
283.2033	0.1551
283.4164	0.1611
283.6295	0.15
283.8426	0.1412
284.0557	0.1628
284.2688	0.1528
284.4819	0.1539
284.695	0.1558
284.908	0.1595
285.1211	0.1596
285.3341	0.1561
285.5471	0.1544
285.7601	0.1568
285.9731	0.1391
286.1861	0.1445
286.3991	0.1596
286.612	0.1726
286.825	0.1523
287.0379	0.1622
287.2508	0.1554
287.4637	0.1555
287.6766	0.1477
287.8895	0.1575
288.1024	0.1759
288.3152	0.1572
288.5281	0.1477
288.7409	0.1746
288.9538	0.1701
289.1666	0.1576
289.3794	0.1651
289.5922	0.1507
289.8049	0.1629
290.0177	0.1631
290.2304	0.1573
290.4432	0.1735
290.6559	0.167
290.8686	0.172
291.0813	0.1615
291.294	0.1668
291.5067	0.1631
291.7194	0.1507
291.932	0.1746
292.1447	0.1667
292.3573	0.1611
292.5699	0.1724
292.7825	0.1673
292.9951	0.1653
293.2077	0.1788
293.4203	0.161
293.6328	0.1528
293.8454	0.1696
294.0579	0.1615
294.2704	0.1611
294.4829	0.1596
294.6954	0.1723
294.9079	0.1652
295.1204	0.1662
295.3328	0.1668
295.5453	0.1711
295.7577	0.1691
295.9701	0.1586
296.1825	0.1734
296.3949	0.1651
296.6073	0.1636
296.8197	0.1554
297.0321	0.1765
297.2444	0.1604
297.4567	0.1639
297.6691	0.1609
297.8814	0.1586
298.0937	0.1621
298.306	0.1692
298.5182	0.1645
298.7305	0.1671
298.9428	0.1579
299.155	0.166
299.3672	0.1624
299.5794	0.1601
299.7916	0.1551
300.0038	0.1698
300.216	0.1668
300.4282	0.1749
300.6403	0.1582
300.8525	0.1713
301.0646	0.1679
301.2767	0.1692
301.4888	0.1596
301.7009	0.1762
301.913	0.1649
302.125	0.1664
302.3371	0.1671
302.5491	0.1647
302.7612	0.1674
302.9732	0.1597
303.1852	0.1676
303.3972	0.1509
303.6092	0.1592
303.8211	0.1545
304.0331	0.15
304.245	0.1539
304.457	0.1474
304.6689	0.1582
304.8808	0.1609
305.0927	0.1485
305.3046	0.1582
305.5164	0.1693
305.7283	0.1446
305.9401	0.1419
306.152	0.1606
306.3638	0.1553
306.5756	0.1466
306.7874	0.1531
306.9992	0.1474
307.2109	0.1463
307.4227	0.1318
307.6344	0.1362
307.8462	0.1304
308.0579	0.1377
308.2696	0.1433
308.4813	0.1374
308.693	0.1293
308.9046	0.129
309.1163	0.1218
309.328	0.1219
309.5396	0.1214
309.7512	0.1258
309.9628	0.1227
310.1744	0.1158
310.386	0.1164
310.5976	0.1137
310.8091	0.1185
311.0207	0.1159
311.2322	0.1274
311.4437	0.1092
311.6552	0.1079
311.8667	0.1179
312.0782	0.0973
312.2897	0.0955
312.5012	0.1125
312.7126	0.1024
312.924	0.0973
313.1355	0.1066
313.3469	0.0976
313.5583	0.0967
313.7696	0.1043
313.981	0.1056
314.1924	0.0968
314.4037	0.096
314.6151	0.0996
314.8264	0.0872
315.0377	0.0913
315.249	0.1017
315.4603	0.1026
315.6716	0.1012
315.8828	0.0966
316.0941	0.0934
316.3053	0.0914
316.5165	0.0823
316.7277	0.0874
316.9389	0.1116
317.1501	0.093
317.3613	0.0922
317.5724	0.0816
317.7836	0.0889
317.9947	0.0946
318.2058	0.0866
318.417	0.0893
318.6281	0.0876
318.8391	0.0961
319.0502	0.0938
319.2613	0.0987
319.4723	0.0991
319.6834	0.0927
319.8944	0.0845
320.1054	0.088
320.3164	0.0913
320.5274	0.0805
320.7383	0.0881
320.9493	0.098
321.1602	0.0995
321.3712	0.0818
321.5821	0.0927
321.793	0.0943
322.0039	0.0888
322.2148	0.0978
322.4257	0.0878
322.6365	0.1078
322.8474	0.0967
323.0582	0.0904
323.269	0.0957
323.4798	0.0975
323.6906	0.0953
323.9014	0.0922
324.1122	0.0913
324.3229	0.0845
324.5337	0.0964
324.7444	0.094
324.9551	0.113
325.1658	0.098
325.3765	0.0987
325.5872	0.1002
325.7979	0.0911
326.0085	0.0932
326.2192	0.0907
326.4298	0.098
326.6404	0.0883
326.851	0.0902
327.0616	0.0971
327.2722	0.1031
327.4828	0.1083
327.6933	0.0939
327.9039	0.1024
328.1144	0.113
328.3249	0.1048
328.5354	0.0983
328.7459	0.1007
328.9564	0.0913
329.1669	0.1008
329.3773	0.0947
329.5878	0.0976
329.7982	0.0999
330.0086	0.0965
330.219	0.1004
330.4294	0.0978
330.6398	0.1043
330.8502	0.0963
331.0605	0.0967
331.2708	0.0909
331.4812	0.1053
331.6915	0.1063
331.9018	0.1022
332.1121	0.1024
332.3224	0.1141
332.5326	0.1022
332.7429	0.1012
332.9531	0.1153
333.1633	0.1109
333.3735	0.1097
333.5837	0.0913
333.7939	0.103
334.0041	0.112
334.2143	0.1155
334.4244	0.1051
334.6346	0.0839
334.8447	0.1077
335.0548	0.0891
335.2649	0.1012
335.475	0.1151
335.685	0.1025
335.8951	0.1213
336.1051	0.1079
336.3152	0.1118
336.5252	0.1056
336.7352	0.1075
336.9452	0.1037
337.1552	0.1171
337.3652	0.0967
337.5751	0.0941
337.7851	0.1027
337.995	0.094
338.2049	0.11
338.4148	0.1121
338.6247	0.1186
338.8346	0.1008
339.0445	0.1086
339.2543	0.0976
339.4642	0.1141
339.674	0.1057
339.8838	0.1089
340.0936	0.11
340.3034	0.1197
340.5132	0.1121
340.7229	0.1192
340.9327	0.1026
341.1424	0.1107
341.3522	0.13
341.5619	0.1187
341.7716	0.1179
341.9813	0.1206
342.1909	0.1107
342.4006	0.1193
342.6102	0.1186
342.8199	0.1115
343.0295	0.1203
343.2391	0.1158
343.4487	0.1237
343.6583	0.1118
343.8679	0.1213
344.0774	0.1259
344.287	0.1222
344.4965	0.1203
344.706	0.1181
344.9155	0.1202
345.125	0.1275
345.3345	0.1453
345.544	0.1173
345.7534	0.1203
345.9629	0.1118
346.1723	0.1206
346.3817	0.1079
346.5911	0.1245
346.8005	0.132
347.0099	0.1216
347.2193	0.1321
347.4286	0.1356
347.638	0.1336
347.8473	0.1312
348.0566	0.1269
348.2659	0.1298
348.4752	0.1248
348.6845	0.1331
348.8937	0.1355
349.103	0.1251
349.3122	0.1326
349.5214	0.139
349.7306	0.1251
349.9398	0.1252
350.149	0.1333
350.3582	0.1237
350.5674	0.1489
350.7765	0.1341
350.9856	0.1389
351.1948	0.1442
351.4039	0.1239
351.613	0.1325
351.822	0.1458
352.0311	0.1531
352.2402	0.1298
352.4492	0.15
352.6582	0.143
352.8672	0.1468
353.0762	0.1445
353.2852	0.1638
353.4942	0.1363
353.7032	0.1518
353.9121	0.1392
354.1211	0.1435
354.33	0.1456
354.5389	0.1455
354.7478	0.1576
354.9567	0.1526
355.1655	0.1484
355.3744	0.1483
355.5833	0.1477
355.7921	0.172
356.0009	0.1587
356.2097	0.165
356.4185	0.1568
356.6273	0.1536
356.8361	0.1657
357.0448	0.1416
357.2536	0.1612
357.4623	0.1512
357.671	0.1619
357.8797	0.1666
358.0884	0.1568
358.2971	0.1686
358.5057	0.1783
358.7144	0.1694
358.923	0.1692
359.1316	0.1615
359.3402	0.1608
359.5488	0.1685
359.7574	0.1506
359.966	0.1805
360.1746	0.1809
360.3831	0.1696
360.5916	0.1668
360.8002	0.1687
361.0087	0.196
361.2172	0.1747
361.4256	0.1772
361.6341	0.1908
361.8426	0.1898
362.051	0.1806
362.2594	0.1756
362.4678	0.1773
362.6762	0.1938
362.8846	0.1946
363.093	0.1911
363.3014	0.1766
363.5097	0.1646
363.718	0.191
363.9264	0.1843
364.1347	0.1771
364.343	0.1891
364.5513	0.2034
364.7595	0.2049
364.9678	0.1919
365.176	0.1938
365.3842	0.1932
365.5925	0.1884
365.8007	0.2077
366.0089	0.1955
366.217	0.1961
366.4252	0.2046
366.6333	0.2024
366.8415	0.198
367.0496	0.1853
367.2577	0.2261
367.4658	0.2158
367.6739	0.2147
367.882	0.2156
368.09	0.2051
368.2981	0.2187
368.5061	0.2059
368.7141	0.2155
368.9221	0.2333
369.1301	0.217
369.3381	0.2191
369.5461	0.2107
369.754	0.2258
369.962	0.2206
370.1699	0.2044
370.3778	0.2337
370.5857	0.198
370.7936	0.2127
371.0015	0.2331
371.2093	0.225
371.4172	0.2365
371.625	0.215
371.8328	0.2201
372.0406	0.2128
372.2484	0.2303
372.4562	0.2228
372.664	0.2097
372.8717	0.2329
373.0795	0.1955
373.2872	0.2209
373.4949	0.2194
373.7026	0.2251
373.9103	0.2391
374.118	0.2342
374.3256	0.2394
374.5333	0.2269
374.7409	0.233
374.9485	0.2531
375.1561	0.242
375.3637	0.2422
375.5713	0.248
375.7789	0.2327
375.9864	0.2337
376.194	0.2277
376.4015	0.2444
376.609	0.2532
376.8165	0.2446
377.024	0.2264
377.2315	0.2453
377.4389	0.2381
377.6464	0.2379
377.8538	0.2408
378.0612	0.2354
378.2686	0.2428
378.476	0.2599
378.6834	0.2541
378.8908	0.2505
379.0981	0.2491
379.3055	0.2589
379.5128	0.233
379.7201	0.2581
379.9274	0.2479
380.1347	0.2628
380.342	0.2601
380.5492	0.238
380.7565	0.2598
380.9637	0.2592
381.1709	0.2487
381.3781	0.2686
381.5853	0.2608
381.7925	0.2476
381.9997	0.2613
382.2068	0.2631
382.4139	0.2624
382.6211	0.2548
382.8282	0.2526
383.0353	0.252
383.2424	0.2607
383.4494	0.2744
383.6565	0.273
383.8635	0.269
384.0706	0.2746
384.2776	0.2737
384.4846	0.2509
384.6916	0.256
384.8986	0.2521
385.1055	0.2775
385.3125	0.2583
385.5194	0.2585
385.7263	0.2714
385.9333	0.254
386.1402	0.2462
386.347	0.2517
386.5539	0.2505
386.7608	0.2687
386.9676	0.237
387.1744	0.2654
387.3813	0.2537
387.5881	0.2516
387.7948	0.229
388.0016	0.2627
388.2084	0.2616
388.4151	0.2639
388.6219	0.2527
388.8286	0.2545
389.0353	0.2786
389.242	0.2598
389.4487	0.2296
389.6553	0.2427
389.862	0.2351
390.0686	0.25
390.2753	0.2665
390.4819	0.2589
390.6885	0.2513
390.8951	0.2444
391.1016	0.2451
391.3082	0.2427
391.5147	0.2596
391.7213	0.2379
391.9278	0.2318
392.1343	0.2565
392.3408	0.2221
392.5473	0.2447
392.7537	0.2369
392.9602	0.2297
393.1666	0.2405
393.373	0.2536
393.5794	0.2462
393.7858	0.2311
393.9922	0.2316
394.1986	0.2453
394.4049	0.2415
394.6113	0.2412
394.8176	0.2181
395.0239	0.2318
395.2302	0.2231
395.4365	0.2277
395.6428	0.216
395.8491	0.2108
396.0553	0.221
396.2615	0.2225
396.4678	0.2346
396.674	0.2201
396.8802	0.2258
397.0863	0.2499
397.2925	0.2221
397.4987	0.2348
397.7048	0.2238
397.9109	0.2309
398.117	0.1965
398.3231	0.2077
398.5292	0.2249
398.7353	0.229
398.9413	0.204
399.1474	0.2283
399.3534	0.2181
399.5594	0.2236
399.7654	0.222
399.9714	0.2287
400.1774	0.2158
400.3833	0.195
400.5893	0.21
400.7952	0.2133
401.0011	0.238
401.207	0.2451
401.4129	0.2275
401.6188	0.2326
401.8247	0.2269
402.0305	0.2012
402.2364	0.2037
402.4422	0.2296
402.648	0.2086
402.8538	0.2241
403.0596	0.2003
403.2654	0.2234
403.4711	0.2092
403.6768	0.2389
403.8826	0.2325
404.0883	0.2315
404.294	0.2208
404.4997	0.2325
404.7054	0.2249
404.911	0.2093
405.1167	0.2214
405.3223	0.2331
405.5279	0.2286
405.7335	0.2249
405.9391	0.2332
406.1447	0.2262
406.3502	0.2315
406.5558	0.2097
406.7613	0.216
406.9668	0.2312
407.1724	0.2156
407.3778	0.199
407.5833	0.2396
407.7888	0.2211
407.9942	0.2422
408.1997	0.2118
408.4051	0.2242
408.6105	0.2139
408.8159	0.1951
409.0213	0.2056
409.2267	0.221
409.432	0.1946
409.6374	0.2213
409.8427	0.2279
410.048	0.216
410.2533	0.2083
410.4586	0.2149
410.6639	0.1988
410.8691	0.2151
411.0744	0.229
411.2796	0.2063
411.4848	0.1964
411.69	0.212
411.8952	0.2186
412.1004	0.2069
412.3056	0.233
412.5107	0.2186
412.7158	0.228
412.921	0.2146
413.1261	0.2068
413.3312	0.188
413.5362	0.2059
413.7413	0.2191
413.9464	0.1991
414.1514	0.2128
414.3564	0.2104
414.5614	0.2034
414.7664	0.2384
414.9714	0.2061
415.1764	0.2226
415.3813	0.2173
415.5863	0.2241
415.7912	0.2145
415.9961	0.2261
416.201	0.2166
416.4059	0.203
416.6108	0.2075
416.8156	0.209
417.0205	0.2106
417.2253	0.2016
417.4301	0.219
417.6349	0.2098
417.8397	0.2019
418.0445	0.2083
418.2492	0.2251
418.454	0.2085
418.6587	0.1968
418.8634	0.1982
419.0681	0.1967
419.2728	0.1928
419.4775	0.1879
419.6822	0.1875
419.8868	0.1835
420.0915	0.2017
420.2961	0.1912
420.5007	0.1855
420.7053	0.1983
420.9099	0.2288
421.1144	0.1891
421.319	0.1813
421.5235	0.2123
421.728	0.1828
421.9325	0.1948
422.137	0.1973
422.3415	0.2013
422.546	0.1839
422.7504	0.1909
422.9549	0.1935
423.1593	0.1978
423.3637	0.1903
423.5681	0.1872
423.7725	0.1694
423.9769	0.1918
424.1812	0.1853
424.3856	0.179
424.5899	0.1829
424.7942	0.1761
424.9985	0.2035
425.2028	0.1751
425.4071	0.197
425.6113	0.1561
425.8156	0.1797
426.0198	0.1958
426.224	0.1776
426.4282	0.1686
426.6324	0.1641
426.8366	0.1774
427.0407	0.1599
427.2449	0.1792
427.449	0.175
427.6531	0.1727
427.8572	0.1673
428.0613	0.1655
428.2654	0.1641
428.4694	0.1519
428.6735	0.1558
428.8775	0.1815
429.0815	0.1662
429.2855	0.1459
429.4895	0.1508
429.6935	0.1608
429.8975	0.1697
430.1014	0.1458
430.3053	0.1462
430.5093	0.136
430.7132	0.1523
430.9171	0.1512
431.1209	0.1409
431.3248	0.1381
431.5286	0.164
431.7325	0.1522
431.9363	0.1305
432.1401	0.1374
432.3439	0.1353
432.5477	0.1312
432.7514	0.1259
432.9552	0.1393
433.1589	0.1198
433.3627	0.1146
433.5664	0.1154
433.7701	0.1311
433.9737	0.1271
434.1774	0.1106
434.3811	0.1211
434.5847	0.121
434.7883	0.1156
434.9919	0.1184
435.1955	0.1198
435.3991	0.1088
435.6027	0.1079
435.8062	0.1149
436.0098	0.0975
436.2133	0.1114
436.4168	0.0965
436.6203	0.1063
436.8238	0.1124
437.0272	0.1021
437.2307	0.0873
437.4341	0.1067
437.6375	0.1098
437.841	0.0834
438.0443	0.0896
438.2477	0.101
438.4511	0.0822
438.6545	0.0895
438.8578	0.0774
439.0611	0.0828
439.2644	0.0986
439.4677	0.0759
439.671	0.0745
439.8743	0.0955
440.0775	0.0723
440.2808	0.0782
440.484	0.0568
440.6872	0.0577
440.8904	0.0714
441.0936	0.0839
441.2967	0.0708
441.4999	0.072
441.703	0.0656
441.9062	0.0671
442.1093	0.0592
442.3124	0.0766
442.5155	0.0638
442.7185	0.063
442.9216	0.0404
443.1246	0.073
443.3276	0.0665
443.5307	0.061
443.7337	0.0593
443.9366	0.0645
444.1396	0.062
444.3426	0.0631
444.5455	0.0616
444.7484	0.0467
444.9513	0.0513
445.1542	0.0697
445.3571	0.0606
445.56	0.0533
445.7628	0.0398
445.9657	0.058
446.1685	0.0544
446.3713	0.0483
446.5741	0.0403
446.7769	0.033
446.9797	0.0405
447.1824	0.046
447.3852	0.0441
447.5879	0.0489
447.7906	0.0324
447.9933	0.0416
448.196	0.0264
448.3986	0.0361
448.6013	0.031
448.8039	0.0226
449.0066	0.03
449.2092	0.0378
449.4118	0.036
449.6143	0.0343
449.8169	0.0304
450.0195	0.0202
450.222	0.0167
450.4245	0.0332
450.627	0.0222
450.8295	0.0277
451.032	0.0301
451.2345	0.0144
451.4369	0.0374
451.6394	0.0215
451.8418	0.0145
452.0442	0.0082
452.2466	0.015
452.449	0.0206
452.6513	0.0168
452.8537	0.0044
453.056	0.0087
453.2583	0.0136
453.4607	0.0222
453.663	0.0145
453.8652	0.0193
454.0675	-0.0024
454.2697	0.0279
454.472	0.0157
454.6742	0.0148
454.8764	0.012
455.0786	0.0168
455.2808	-0
455.4829	0.027
455.6851	0.0249
455.8872	0.0137
456.0893	0.0214
456.2915	-0.0072
456.4935	0.0164
456.6956	0.0123
456.8977	0.0231
457.0997	-0.0021
457.3018	0.0019
457.5038	0.0032
457.7058	0.0089
457.9078	0.0018
458.1098	0.0109
458.3117	0.005
458.5137	0.0156
458.7156	0.0082
458.9175	-0.0074
459.1194	0.0026
459.3213	-0.0055
459.5232	-0.0103
459.725	0.0071
459.9269	-0.0002
460.1287	0.0123
460.3305	0.0062
460.5323	0.0083
460.7341	-0.0052
460.9359	0.0047
461.1376	0.0043
461.3394	0.0015
461.5411	0.0018
461.7428	0.0021
461.9445	0.025
462.1462	0.0124
462.3479	-0.002
462.5495	0.0059
462.7512	0.001
462.9528	-0.0047
463.1544	-0.014
463.356	0.0015
463.5576	0.0027
463.7592	-0.0139
463.9607	0.0005
464.1623	0.0133
464.3638	0.0194
464.5653	-0.0137
464.7668	-0.0047
464.9683	0.0072
465.1697	0.0154
465.3712	-0.0134
465.5726	-0.0106
465.7741	-0.0048
465.9755	-0.0067
466.1769	0.0003
466.3782	0.0103
466.5796	-0.0103
466.7809	0.01
466.9823	0.0045
467.1836	-0.004
467.3849	-0.0031
467.5862	0.0022
467.7875	-0.0039
467.9887	0.0102
468.19	-0.0089
468.3912	-0.0104
468.5924	-0.0086
468.7936	-0.0023
468.9948	-0.0087
469.196	0.0054
469.3972	-0.0141
469.5983	0.0064
469.7994	-0.0083
470.0006	-0.0149
470.2017	-0.0143
470.4027	-0.0135
470.6038	0.0059
470.8049	-0.0107
471.0059	-0.0104
471.2069	-0.0224
471.408	-0.0029
471.6089	0.0046
471.8099	-0.0117
472.0109	0.0028
472.2119	-0.004
472.4128	-0.009
472.6137	0.0066
472.8146	-0.016
473.0155	-0.0173
473.2164	0.0056
473.4173	0.0015
473.6181	-0.0015
473.819	-0.005
474.0198	-0.0152
474.2206	-0.0078
474.4214	-0.0223
474.6222	0.0057
474.8229	-0.0125
475.0237	-0.0141
475.2244	-0.0029
475.4251	0.0013
475.6258	-0.0106
475.8265	-0.0091
476.0272	-0.0107
476.2278	-0.0058
476.4285	-0.0032
476.6291	-0.0032
476.8297	-0.0103
477.0303	-0.0077
477.2309	0.0092
477.4315	-0.0179
477.632	-0.0056
477.8326	-0.0158
478.0331	-0
478.2336	-0.0007
478.4341	-0.0095
478.6346	-0.0088
478.8351	-0.0011
479.0355	-0.0039
479.236	-0.0111
479.4364	-0.0079
479.6368	-0.0066
479.8372	-0.0107
480.0376	-0.0026
480.2379	-0.0125
480.4383	-0.012
480.6386	-0.0057
480.8389	-0.0001
481.0392	-0.0198
481.2395	-0.015
481.4398	-0.0032
481.6401	0.0104
481.8403	0.0007
482.0405	-0.007
482.2408	-0.0038
482.441	0.0085
482.6411	-0.0096
482.8413	-0.0066
483.0415	0.0024
483.2416	-0.0208
483.4417	-0.0087
483.6419	-0.0119
483.8419	-0.0103
484.042	0.0109
484.2421	-0.0002
484.4422	-0.0031
484.6422	-0.0081
484.8422	-0.0005
485.0422	-0.0117
485.2422	0.0005
485.4422	-0.0076
485.6422	-0.0077
485.8421	-0.0027
486.042	-0.0095
486.242	-0.0123
486.4419	-0.0199
486.6417	-0.0183
486.8416	-0.0138
487.0415	-0.0043
487.2413	-0.0135
487.4411	-0.007
487.641	-0.012
487.8408	-0.0075
488.0405	-0.0061
488.2403	-0.0141
488.4401	0.0013
488.6398	-0.0006
488.8395	-0.0062
489.0392	-0.005
489.2389	-0.0034
489.4386	-0.0082
489.6383	-0.0047
489.8379	-0.0021
490.0376	-0.0044
490.2372	-0.0101
490.4368	-0.0073
490.6364	-0.01
490.836	-0.0094
491.0355	-0.0044
491.2351	-0.0042
491.4346	-0.0127
491.6341	-0.0191
491.8336	0.0071
492.0331	-0.0125
492.2326	-0.0213
492.432	-0.0065
492.6315	-0.0102
492.8309	-0.0093
493.0303	-0.0083
493.2297	-0.0032
493.4291	-0.0082
493.6284	-0.0045
493.8278	-0.0022
494.0271	-0.0018
494.2264	-0.0136
494.4257	-0.0233
494.625	-0.002
494.8243	-0.0156
495.0236	-0.002
495.2228	-0.0114
495.422	0.0038
495.6213	-0.0098
495.8205	-0.012
496.0196	0.0003
496.2188	-0.0037
496.418	-0.0164
496.6171	-0.0112
496.8162	-0.0134
497.0153	-0.007
497.2144	-0.0113
497.4135	-0.0056
497.6126	-0.0105
497.8116	-0.014
498.0107	0.0017
498.2097	-0.0147
498.4087	-0.0177
498.6077	-0.0036
498.8067	-0.0077
499.0056	-0.0022
499.2046	-0.0132
499.4035	-0.0267
499.6024	-0.0045
499.8013	0.0011
500.0002	-0.0153
500.199	-0.0079
500.3979	-0.0165
500.5967	-0.0166
500.7956	-0.0069
500.9944	-0.008
501.1932	-0.0065
501.3919	-0.0152
501.5907	-0.015
501.7895	0.0054
501.9882	-0.0178
502.1869	-0.0108
502.3856	-0.0163
502.5843	-0.0133
502.783	0.003
502.9816	-0.0039
503.1803	-0.0145
503.3789	-0.0244
503.5775	-0.0035
503.7761	-0.0172
503.9747	0.0047
504.1732	-0.0099
504.3718	-0.0013
504.5703	-0.0109
504.7689	-0.021
504.9674	-0.0036
505.1658	-0.0162
505.3643	-0.0113
505.5628	-0.0095
505.7612	-0.0146
505.9597	-0.0041
506.1581	-0.01
506.3565	0.0101
506.5549	-0.0092
506.7532	-0.0001
506.9516	-0.0007
507.1499	-0.0038
507.3482	-0.013
507.5465	-0.0171
507.7448	-0.0186
507.9431	-0.0082
508.1414	-0.0093
508.3396	-0.0101
508.5379	-0.0133
508.7361	-0.0096
508.9343	-0.0046
509.1325	0.0035
509.3306	-0.0058
509.5288	-0.0168
509.7269	-0.0085
509.9251	-0.0007
510.1232	-0.0111
510.3213	-0.0018
510.5193	0.0035
510.7174	-0.0185
510.9154	-0.0089
511.1135	-0.0053
511.3115	-0.0167
511.5095	0.0014
511.7075	-0.0144
511.9055	-0.0062
512.1034	-0.0162
512.3014	-0.004
512.4993	-0.0004
512.6972	-0.0171
512.8951	-0.029
513.093	-0.0082
513.2908	-0.0081
513.4887	-0.0058
513.6865	-0.0115
513.8844	-0.0107
514.0822	-0.0013
514.2799	-0.016
514.4777	-0.0107
514.6755	-0.0038
514.8732	-0.0285
515.0709	-0.0053
515.2687	-0.0129
515.4664	-0.0103
515.664	-0.0045
515.8617	-0.0057
516.0594	-0.0147
516.257	-0.0124
516.4546	-0.0135
516.6522	0.0001
516.8498	-0.0043
517.0474	-0.0114
517.2449	0.0034
517.4425	-0.0255
517.64	-0.002
517.8375	0.0033
518.035	-0.0041
518.2325	-0.0161
518.43	-0.011
518.6274	-0.0041
518.8249	-0.0203
519.0223	-0.0067
519.2197	-0.0099
519.4171	-0.007
519.6145	-0.0162
519.8118	0.0065
520.0092	-0.0108
520.2065	-0.0073
520.4038	-0.0108
520.6011	-0.0027
520.7984	-0.0226
520.9956	-0.0135
521.1929	-0.0132
521.3901	-0.0011
521.5874	-0.0064
521.7846	-0.0049
521.9818	-0.0133
522.1789	-0.0105
522.3761	-0.0007
522.5732	-0.0047
522.7704	-0.0127
522.9675	-0.0081
523.1646	-0.0155
523.3617	-0.0029
523.5587	-0.0022
523.7558	-0.0004
523.9528	-0.013
524.1498	-0.0001
524.3468	-0.0125
524.5438	-0.0124
524.7408	-0.0094
524.9378	-0.0052
525.1347	-0.0059
525.3316	-0.0034
525.5285	-0.0098
525.7254	-0.0062
525.9223	-0.0031
526.1192	0.0027
526.316	-0.0132
526.5129	0.0021
526.7097	0.0049
526.9065	0.0012
527.1033	-0.0124
527.3	-0.0096
527.4968	-0.0066
527.6935	-0.0026
527.8903	-0.0178
528.087	-0.0032
528.2837	-0.0014
528.4804	0.0016
528.677	-0.0089
528.8737	-0.0064
529.0703	-0.0031
529.2669	-0.0082
529.4635	-0.0097
529.6601	0.0029
529.8567	-0.002
530.0532	-0.0117
530.2498	0.0012
530.4463	-0.0068
530.6428	-0.0063
530.8393	0.0074
531.0358	-0.0005
531.2322	-0.0086
531.4287	-0.0043
531.6251	-0.0149
531.8215	0.0048
532.0179	0.0003
532.2143	-0.0002
532.4107	-0.0124
532.607	-0.0134
532.8034	-0.0012
532.9997	-0.0091
533.196	-0.0069
533.3923	-0.0045
533.5886	-0.0081
533.7848	-0.0036
533.9811	-0.0108
534.1773	0.0083
534.3735	0.002
534.5697	-0.0025
534.7659	-0.0037
534.9621	-0.0024
535.1582	-0.0092
535.3544	-0.0139
535.5505	-0.0072
535.7466	-0.0112
535.9427	-0.0052
536.1387	-0.0138
536.3348	-0.0063
536.5308	-0.0058
536.7269	-0.0219
536.9229	-0.0063
537.1189	-0.0014
537.3148	-0.0102
537.5108	-0.0054
537.7068	-0.0058
537.9027	-0.0043
538.0986	-0.0148
538.2945	-0.0075
538.4904	-0.0138
538.6863	-0.0047
538.8821	-0.0073
539.078	-0.0079
539.2738	-0.0047
539.4696	-0.0151
539.6654	-0.0002
539.8611	0.002
540.0569	-0.0121
540.2526	-0.0139
540.4484	-0.0083
540.6441	0.001
540.8398	-0.0097
541.0355	0.0032
541.2311	-0.0069
541.4268	-0.0146
541.6224	-0.0066
541.818	0.0001
542.0136	-0.0067
542.2092	-0.0012
542.4048	-0.0041
542.6003	-0.0038
542.7959	-0.0079
542.9914	-0.0002
543.1869	-0.0038
543.3824	-0.0059
543.5779	-0.0085
543.7734	-0.0131
543.9688	-0.0119
544.1642	0.005
544.3596	-0.0074
544.555	0.0023
544.7504	-0.0038
544.9458	-0.0074
545.1411	-0.0095
545.3365	-0.0026
545.5318	-0.0164
545.7271	0.0002
545.9224	-0.0013
546.1177	-0.0018
546.3129	0.0052
546.5081	-0.0137
546.7034	-0.0058
546.8986	-0.002
547.0938	-0.0053
547.289	-0.0118
547.4841	-0.005
547.6793	-0.0026
547.8744	-0.0081
548.0695	-0.01
548.2646	-0.0073
548.4597	-0.0038
548.6548	-0.0013
548.8498	-0.0043
549.0448	0.0066
549.2399	-0.0052
549.4349	0.0062
549.6298	0.0029
549.8248	0.0005
550.0198	0.005
550.2147	-0.005
550.4096	-0.0052
550.6045	-0.0131
550.7994	-0.0018
550.9943	-0.0007
551.1892	-0.0098
551.384	-0.003
551.5788	-0.0107
551.7737	-0.0028
551.9685	-0.0036
552.1632	-0.004
552.358	-0.0096
552.5528	-0.0041
552.7475	0.0015
552.9422	-0.0069
553.1369	-0.0028
553.3316	-0.0062
553.5263	-0.0167
553.7209	0.0054
553.9156	-0.0064
554.1102	-0.0072
554.3048	-0.0106
554.4994	0.0015
554.694	-0.0068
554.8885	-0.0026
555.0831	-0.0055
555.2776	-0.0082
555.4721	-0.0123
555.6666	-0.0046
555.8611	0.0074
556.0555	-0.0084
556.25	-0.0037
556.4444	-0.0172
556.6388	-0.0043
556.8332	-0.0027
557.0276	-0.0154
557.222	-0.0025
557.4163	-0.0137
557.6107	-0.013
557.805	-0.0045
557.9993	-0.007
558.1936	0.0001
558.3879	-0.004
558.5821	0.0057
558.7764	-0.0071
558.9706	-0.001
559.1648	0.0026
559.359	-0.0066
559.5532	-0.0163
559.7473	-0.003
559.9415	0.0041
560.1356	-0.0078
560.3297	-0.0142
560.5238	-0.0062
560.7179	-0.0052
560.9119	-0.0059
561.106	-0.0135
561.3	-0.0093
561.494	-0.0064
561.688	-0.0073
561.882	-0.0116
562.076	-0.019
562.2699	0.002
562.4639	-0.0005
562.6578	-0.0046
562.8517	-0.0013
563.0456	-0.0042
563.2395	-0.0068
563.4333	-0.0023
563.6272	0.005
563.821	-0.0061
564.0148	-0.0049
564.2086	-0.0121
564.4024	0.0003
564.5961	-0.011
564.7899	0.004
564.9836	-0.0079
565.1773	-0.011
565.371	0.0058
565.5647	0.0083
565.7584	-0.0052
565.952	-0.0021
566.1456	0.0034
566.3393	0.0028
566.5329	-0.0113
566.7264	-0.0135
566.92	-0.007
567.1136	0.0072
567.3071	-0.0021
567.5006	0.0044
567.6941	-0.001
567.8876	-0.0009
568.0811	-0.0063
568.2745	-0.0016
568.468	0.0056
568.6614	-0.0053
568.8548	-0.0048
569.0482	0.0017
569.2416	0.0025
569.4349	0.0009
569.6283	0.0015
569.8216	-0.0027
570.0149	-0.0021
570.2082	0.0052
570.4015	0.0099
570.5947	0.001
570.788	0.0052
570.9812	-0.0021
571.1744	-0.0017
571.3676	-0.0073
571.5608	-0.0018
571.754	-0.0002
571.9471	-0.0012
572.1402	0.0029
572.3333	-0.0007
572.5264	-0.0034
572.7195	-0.0089
572.9126	0.0073
573.1057	-0.0042
573.2987	0.0024
573.4917	0.0038
573.6847	-0.0087
573.8777	0.0072
574.0707	0.0045
574.2636	-0.0041
574.4566	-0.0027
574.6495	0.0027
574.8424	-0.0027
575.0353	-0.0055
575.2281	0.0032
575.421	-0.0021
575.6138	0.0028
575.8067	-0.0071
575.9995	0.0038
576.1923	0.0008
576.385	-0.001
576.5778	-0.0018
576.7706	0.0058
576.9633	0.0029
577.156	-0.0002
577.3487	-0.0039
577.5414	-0.0001
577.734	-0.0046
577.9267	0.0005
578.1193	-0.0117
578.3119	-0.0076
578.5045	-0.0019
578.6971	-0.0045
578.8897	0.0007
579.0822	-0.0018
579.2747	-0.0026
579.4673	-0.0005
579.6598	-0.0092
579.8522	0.001
580.0447	-0.0077
580.2372	-0.0023
580.4296	0.0038
580.622	0.0043
580.8144	0
581.0068	-0.0033
581.1992	-0.0132
581.3915	-0.0077
581.5839	-0.0007
581.7762	-0.0031
581.9685	0.0019
582.1608	0.0041
582.353	-0.0072
582.5453	-0.0032
582.7375	0.0016
582.9298	-0.0033
583.122	-0.0011
583.3142	-0.0048
583.5063	-0.0042
583.6985	-0.0005
583.8906	0.0016
584.0827	-0.0103
584.2749	-0.0025
584.4669	0.0008
584.659	-0.0029
584.8511	-0.0088
585.0431	-0
585.2352	-0.0011
585.4272	0.0062
585.6192	0.0019
585.8111	-0.001
586.0031	-0.0039
586.195	0.0014
586.387	-0.0055
586.5789	-0.0088
586.7708	-0.0009
586.9627	0.0016
587.1545	-0.0091
587.3464	0.0014
587.5382	0.0031
587.73	0.005
587.9218	0.0048
588.1136	0.0016
588.3053	-0.0019
588.4971	-0.0027
588.6888	-0.01
588.8805	0.0028
589.0722	-0.0014
589.2639	-0.0041
589.4556	-0.0057
589.6472	0.0028
589.8389	-0.0131
590.0305	-0.0096
590.2221	-0.0002
590.4137	-0.0052
590.6052	-0.0008
590.7968	0.0001
590.9883	0.0053
591.1798	-0.0057
591.3713	0.0015
591.5628	0.0101
591.7543	-0
591.9458	-0.0001
592.1372	-0.0014
592.3286	0.0064
592.52	0.0071
592.7114	-0.0081
592.9028	-0.0018
593.0941	0.0012
593.2855	-0.002
593.4768	-0.0094
593.6681	-0.0033
593.8594	-0.0059
594.0506	0.0014
594.2419	0.0111
594.4331	-0.0005
594.6244	0.0065
594.8156	-0.0066
595.0067	0.0021
595.1979	0.0005
595.3891	-0.0032
595.5802	-0.0076
595.7713	-0.0042
595.9624	-0.0067
596.1535	0.0024
596.3446	-0.0015
596.5357	0.0016
596.7267	0.008
596.9177	-0.0041
597.1087	-0.0058
597.2997	-0.0003
597.4907	0.0028
597.6817	-0.0022
597.8726	-0.0002
598.0635	-0.0059
598.2544	-0.0014
598.4453	-0.005
598.6362	-0.0057
598.827	-0.0019
599.0179	0.0081
599.2087	0.0028
599.3995	-0.0016
599.5903	0.0005
599.7811	0.0014
599.9718	-0.004
600.1626	-0.0064
600.3533	-0.0066
600.544	-0.0051
600.7347	0.0026
600.9254	0.0018
601.116	-0.0043
601.3067	-0.006
601.4973	-0.0059
601.6879	-0.0026
601.8785	-0.0062
602.0691	0.0043
602.2596	-0
602.4502	-0.0018
602.6407	0.0001
602.8312	0.0038
603.0217	-0.0076
603.2122	-0.0076
603.4027	0.0062
603.5931	-0.0061
603.7835	-0.0015
603.9739	-0.0015
604.1643	-0.0005
604.3547	-0.0073
604.5451	0.0019
604.7354	0.0023
604.9257	-0.0028
605.116	-0.006
605.3063	0.0015
605.4966	0.0016
605.6869	0.006
605.8771	0.0063
606.0673	0.0051
606.2575	0.0071
606.4477	0.0038
606.6379	0.0034
606.8281	-0.0055
607.0182	-0.0029
607.2083	0.0025
607.3985	-0.0071
607.5885	-0.0008
607.7786	0.0013
607.9687	-0.003
608.1587	0.0086
608.3488	-0.0035
608.5388	-0.0009
608.7288	-0.0045
608.9187	-0.0063
609.1087	-0.0048
609.2986	-0.0097
609.4886	-0.0055
609.6785	-0.0078
609.8684	0.0056
610.0582	0.0021
610.2481	0.0013
610.4379	0.0029
610.6278	-0.0068
610.8176	-0.0023
611.0074	-0.0045
611.1971	-0.0091
611.3869	0.0053
611.5766	-0.013
611.7664	0.0037
611.9561	-0.0024
612.1458	0.0023
612.3354	-0.0014
612.5251	0.0014
612.7147	0.0024
612.9044	0.0068
613.094	-0.0091
613.2836	0.0004
613.4731	-0.004
613.6627	-0.0062
613.8522	-0.0005
614.0417	0.0045
614.2313	-0.0025
614.4207	-0.0074
614.6102	0.0049
614.7997	-0.0042
614.9891	-0.0051
615.1785	0.0015
615.3679	-0.0054
615.5573	0.0038
615.7467	-0.0031
615.9361	-0.0046
616.1254	-0.002
616.3147	-0.0021
616.504	-0.0011
616.6933	-0.0009
616.8826	0.0042
617.0718	0.0045
617.2611	0.0055
617.4503	-0.0009
617.6395	-0.0014
617.8287	-0.0014
618.0179	-0.002
618.207	0.0033
618.3961	-0.0103
618.5853	-0.0042
618.7744	0.007
618.9634	0.0063
619.1525	0.0062
619.3416	0.0014
619.5306	0.0029
619.7196	0.0049
619.9086	-0.0033
620.0976	0.0009
620.2866	-0.0004
620.4755	0.0008
620.6645	0.003
620.8534	0.0026
621.0423	0.0012
621.2312	0.0071
621.42	-0.0023
621.6089	-0.0041
621.7977	0.0026
621.9865	-0.0049
622.1753	0.0057
622.3641	-0.0024
622.5529	0.007
622.7416	0.0094
622.9303	-0.0029
623.1191	0.003
623.3078	-0.0078
623.4964	0.0035
623.6851	0.0009
623.8737	-0.0017
624.0624	0.0012
624.251	-0.0024
624.4396	0.0034
624.6282	-0.0051
624.8167	-0.0069
625.0053	0.0014
625.1938	0.0017
625.3823	-0.0018
625.5708	-0.0021
625.7593	0.0029
625.9477	-0.0045
626.1362	-0.0032
626.3246	-0.0025
626.513	0.0022
626.7014	0.0024
626.8898	-0.0053
627.0781	0.0044
627.2665	-0.0045
627.4548	0.0032
627.6431	0.0009
627.8314	0.0046
628.0197	0.0015
628.2079	-0.0044
628.3962	-0.0023
628.5844	-0.0029
628.7726	0.0008
628.9608	0.008
629.1489	-0.0029
629.3371	0.0021
629.5252	-0.0044
629.7134	0.0085
629.9015	0.0036
630.0895	0.0029
630.2776	0.0038
630.4657	-0.0024
630.6537	0.0001
630.8417	0.0007
631.0297	-0.008
631.2177	-0.0019
631.4057	-0.0089
631.5936	-0.0053
631.7815	0.0019
631.9695	-0.001
632.1574	0.0084
632.3452	0.0063
632.5331	0.0025
632.7209	0.0058
632.9088	0.0034
633.0966	0.0082
633.2844	-0.011
633.4722	0.0017
633.6599	0.0054
633.8477	-0.0008
634.0354	-0.0027
634.2231	0.0031
634.4108	0.0053
634.5985	0.0063
634.7861	0.0006
634.9738	0.0091
635.1614	0.0075
635.349	0.0051
635.5366	-0.0031
635.7242	0.0032
635.9117	0.0032
636.0993	0.001
636.2868	0.0011
636.4743	-0.0048
636.6618	0.0045
636.8492	0.0015
637.0367	-0.0023
637.2241	-0.0029
637.4115	-0.004
637.5989	-0.0037
637.7863	-0.0092
637.9737	-0.0043
638.161	0.0011
638.3484	0.0003
638.5357	0.0078
638.723	-0.0097
638.9103	-0.0027
639.0975	0.0006
639.2848	-0.0006
639.472	-0.007
639.6592	0.0025
639.8464	0.0058
640.0336	-0.0002
640.2208	-0.0036
640.4079	-0.0061
640.595	-0.004
640.7821	-0.0006
640.9692	0.0017
641.1563	-0.0042
641.3434	0.0055
641.5304	-0.0039
641.7174	0.0053
641.9044	-0.0054
642.0914	-0.0038
642.2784	-0.0061
642.4653	0.0026
642.6523	0.0004
642.8392	-0.0056
643.0261	-0.0022
643.213	0.0034
643.3999	-0.0032
643.5867	-0.0067
643.7735	-0.0062
643.9604	-0.0104
644.1472	-0.0023
644.3339	-0.0045
644.5207	0.0011
644.7075	-0.0022
644.8942	-0.0012
645.0809	0.0038
645.2676	0.0027
645.4543	0.0022
645.6409	0.0056
645.8276	0.0027
646.0142	0.0073
646.2008	-0.0067
646.3874	-0.0041
646.574	-0.004
646.7605	-0.0051
646.9471	-0.0199
647.1336	-0.0026
647.3201	-0.0047
647.5066	-0.0105
647.6931	0.0002
647.8795	-0.0041
648.0659	0.0077
648.2524	0.0001
648.4388	-0.008
648.6252	0.0043
648.8115	-0.0041
648.9979	-0.0004
649.1842	0.0023
649.3705	-0.0013
649.5568	-0.0019
649.7431	0.003
649.9294	-0.0017
650.1156	0.0012
650.3018	-0.0073
650.488	0.0005
650.6742	0.0028
650.8604	-0.0031
651.0466	-0.0039
651.2327	-0.0018
651.4188	-0.0024
651.6049	-0.0057
651.791	-0.0061
651.9771	0.002
652.1632	0.0058
652.3492	-0.0028
652.5352	0.0005
652.7212	-0.0054
652.9072	0.0043
653.0932	-0.0044
653.2791	-0.0032
653.465	0.0092
653.651	-0.0031
653.8369	-0.0005
654.0227	0.0034
654.2086	0.0043
654.3944	0.0051
654.5803	0.0064
654.7661	-0.0079
654.9519	0.0013
655.1377	-0.0083
655.3234	-0.0037
655.5092	-0.0072
655.6949	-0.0101
655.8806	-0.0084
656.0663	-0.0021
656.2519	0.0004
656.4376	-0.0037
656.6232	0.0029
656.8088	-0.0043
656.9945	-0.0006
657.18	-0.0082
657.3656	-0.0026
657.5511	-0.0057
657.7367	-0.0106
657.9222	0.0038
658.1077	0.002
658.2932	0.0005
658.4786	-0.0181
658.6641	-0.0096
658.8495	-0.0031
659.0349	-0.009
659.2203	0.0044
659.4057	0.0046
659.591	0.0027
659.7764	-0.0067
659.9617	-0.0028
660.147	-0.0002
660.3323	0.0028
660.5176	0.0073
660.7028	-0.0007
660.888	0.0003
661.0733	-0.0003
661.2585	-0.0058
661.4436	-0.0044
661.6288	0.0009
661.8139	0.0047
661.9991	-0.0052
662.1842	-0.006
662.3693	0.0027
662.5544	-0.0056
662.7394	-0.0005
662.9245	-0.0089
663.1095	-0.006
663.2945	-0.0048
663.4795	-0.0019
663.6644	0.0033
663.8494	0.0039
664.0343	0.0066
664.2193	-0.0081
664.4042	0.0025
664.589	-0.0079
664.7739	-0.0067
664.9587	-0.0108
665.1436	-0.0054
665.3284	0.0043
665.5132	-0.0038
665.698	-0.0044
665.8827	0.0034
666.0675	-0.004
666.2522	-0.0051
666.4369	0.0022
666.6216	-0.0014
666.8063	0.0013
666.9909	0.0046
667.1756	-0.0034
667.3602	0.0006
667.5448	-0.0046
667.7294	0.0104
667.9139	0.0061
668.0985	0.0127
668.283	-0.0041
668.4675	-0.0031
668.652	-0.0019
668.8365	0.0029
669.0209	0.003
669.2054	0.0044
669.3898	0.0053
669.5742	0.0038
669.7586	0.0033
669.943	0.0029
670.1273	0.001
670.3117	-0.001
670.496	-0.0007
670.6803	0.011
670.8646	0.0034
671.0488	-0.0046
671.2331	0.0048
671.4173	0.0018
671.6015	-0.0069
671.7857	0.0017
671.9699	0.0039
672.1541	0.0034
672.3382	0.0027
672.5223	0.001
672.7064	0.0023
672.8905	0.0118
673.0746	-0.0008
673.2587	-0.0011
673.4427	0.0006
673.6267	0.0089
673.8107	0.0089
673.9947	0.0068
674.1787	0.0041
674.3626	-0.0029
674.5465	0.0108
674.7304	0.0009
674.9143	0.0087
675.0982	-0.0012
675.2821	-0.0027
675.4659	0.0074
675.6497	0.0061
675.8335	0.0015
676.0173	-0.0037
676.2011	0.0062
676.3849	-0.0003
676.5686	-0.0033
676.7523	0.0008
676.936	-0.0118
677.1197	-0.0064
677.3034	-0.0153
677.487	0.004
677.6706	0.0023
677.8542	0.0011
678.0378	-0.0025
678.2214	0.0038
678.405	0.0002
678.5885	-0.0041
678.772	-0.0066
678.9555	-0.0028
679.139	-0.0012
679.3225	-0.0057
679.5059	-0.007
679.6894	-0.0038
679.8728	-0.001
680.0562	-0.0097
680.2395	-0.0008
680.4229	-0.0084
680.6062	-0.0008
680.7896	0.001
680.9729	-0.0003
681.1562	0.0058
681.3394	0
681.5227	-0.0064
681.7059	0.0052
681.8891	-0.0005
682.0723	0.0135
682.2555	0.0043
682.4387	-0.0039
682.6218	-0.0006
682.805	0.0126
682.9881	0.0067
683.1712	0.0016
683.3542	0.0007
683.5373	0.0005
683.7203	-0.0088
683.9034	-0.0032
684.0864	-0.0048
684.2694	-0.0031
684.4523	0.0025
684.6353	-0.0115
684.8182	0.0073
685.0011	-0.0086
685.184	-0.0014
685.3669	-0.0024
685.5498	0.0011
685.7326	0.0002
685.9154	-0.0078
686.0982	-0.0006
686.281	-0.0054
686.4638	0.0027
686.6465	-0.0073
686.8293	-0.0037
687.012	0.0013
687.1947	-0.0069
687.3774	-0.0025
687.56	-0.0022
687.7427	0.0014
687.9253	-0.0083
688.1079	-0.0032
688.2905	0.0126
688.4731	-0.0082
688.6556	-0.0043
688.8382	-0.0052
689.0207	0.0016
689.2032	-0.0063
689.3857	-0.0129
689.5681	0.0022
689.7506	-0.0067
689.933	-0.0061
690.1154	0.0013
690.2978	-0.0018
690.4802	0.0018
690.6626	-0.0087
690.8449	-0.002
691.0272	0.0085
691.2095	-0.0044
691.3918	0.0012
691.5741	0.002
691.7563	0.0072
691.9386	0.0057
692.1208	-0.0048
692.303	0.0039
692.4852	-0.0032
692.6673	-0.0018
692.8495	-0.0029
693.0316	0.0085
693.2137	-0.0021
693.3958	0.0026
693.5778	-0.0015
693.7599	-0.0012
693.9419	0.0034
694.1239	0.0017
694.3059	-0.0038
694.4879	0.0049
694.6699	0.0006
694.8518	0.0033
695.0337	-0.0107
695.2157	0.0061
695.3975	-0.0003
695.5794	0.0021
695.7613	0.0055
695.9431	-0.0024
696.1249	0.0077
696.3067	0.0057
696.4885	0.0055
696.6703	-0.0049
696.852	0.0064
697.0337	0.0043
697.2154	0.005
697.3971	0.0036
697.5788	0.0023
697.7605	0.0017
697.9421	-0.0029
698.1237	-0.004
698.3053	0.0007
698.4869	0.003
698.6685	-0.0056
698.85	-0.0019
699.0315	0.0077
699.213	0.0026
699.3945	0.0029
699.576	0.0102
699.7575	0.005
699.9389	0.0079
700.1203	-0.0048
700.3017	-0.0068
700.4831	-0.0065
700.6645	0.0053
700.8458	-0.0014
701.0271	-0.005
701.2084	0.0016
701.3897	-0.0046
701.571	-0.0006
701.7523	-0.0088
701.9335	-0.0055
702.1147	-0.0018
702.2959	-0.0021
702.4771	0.0056
702.6583	0.0001
702.8394	-0.0135
703.0205	0.0017
703.2016	-0.0001
703.3827	0.0017
703.5638	0.0126
703.7449	0.0068
703.9259	0.012
704.1069	-0.0092
704.2879	-0.0026
704.4689	0.0024
704.6499	-0.0041
704.8308	-0.0024
705.0117	0.0009
705.1927	-0
705.3735	-0.0048
705.5544	-0.0021
705.7353	-0.0025
705.9161	-0.0011
706.0969	-0.0111
706.2777	-0.0014
706.4585	-0.0002
706.6393	-0.0052
706.82	-0.0013
707.0007	0.0014
707.1815	-0.0036
707.3621	0.0023
707.5428	-0.0015
707.7235	-0.0028
707.9041	0.0018
708.0847	-0.0124
708.2653	-0.0061
708.4459	-0.0137
708.6265	-0.0094
708.807	-0.0002
708.9875	-0.0112
709.168	-0.0093
709.3485	-0.001
709.529	-0.012
709.7095	-0.0181
709.8899	-0.0063
710.0703	-0.0156
710.2507	-0.0048
710.4311	-0.0038
710.6115	-0.0133
710.7918	-0.0119
710.9721	-0.0012
711.1524	-0.008
711.3327	-0.001
711.513	0.008
711.6932	0.0046
711.8735	0.014
712.0537	0.0124
712.2339	0.0057
712.4141	-0.004
712.5942	-0.0018
712.7744	0.0029
712.9545	-0.0043
713.1346	-0.0036
713.3147	0.0021
713.4947	-0.0075
713.6748	-0.0002
713.8548	-0.0004
714.0348	-0.0014
714.2148	-0.0006
714.3948	0.004
714.5748	-0.0096
714.7547	-0.0011
714.9346	0.0067
715.1145	-0.0025
715.2944	-0.0102
715.4743	-0.0014
715.6541	-0.0046
715.834	0.0071
716.0138	-0.0079
716.1936	-0.013
716.3733	-0.0059
716.5531	0.0028
716.7328	-0.0087
716.9126	0.0017
717.0923	0.0047
717.2719	-0.0001
717.4516	-0.0041
717.6312	0.0023
717.8109	-0.0069
717.9905	0.0035
718.1701	-0.0052
718.3496	-0.0106
718.5292	0.0024
718.7087	0.0077
718.8882	0.004
719.0677	0.0085
719.2472	0.0033
719.4267	-0.0028
719.6061	0.0053
719.7856	0.0059
719.965	0.0031
720.1443	0.0009
720.3237	0.0141
720.5031	-0.0002
720.6824	0.0047
720.8617	-0.0028
721.041	-0.0013
721.2203	0.0077
721.3995	0.0026
721.5788	0.0095
721.758	0.0021
721.9372	0.0006
722.1164	-0.0024
722.2956	0.002
722.4747	-0.0008
722.6538	-0.0007
722.8329	0.0025
723.012	0.0038
723.1911	0.0005
723.3702	0.0006
723.5492	0.0001
723.7282	-0.0062
723.9072	-0.0013
724.0862	-0.0023
724.2652	-0.0103
724.4441	-0.0037
724.623	-0.0055
724.8019	-0.0014
724.9808	-0.006
725.1597	-0.0133
725.3385	0.0011
725.5174	-0.0026
725.6962	0.0005
725.875	-0.0061
726.0538	0.0044
726.2325	-0.0065
726.4112	-0.0018
726.59	0.0029
726.7687	-0.0005
726.9474	0.01
727.126	0.002
727.3047	-0.0076
727.4833	0.0036
727.6619	-0.01
727.8405	-0.0069
728.0191	-0.0108
728.1976	0.0039
728.3762	0.0052
728.5547	0.0023
728.7332	-0.0079
728.9116	0.0016
729.0901	-0.0095
729.2686	-0.014
729.447	-0.0074
729.6254	-0.0095
729.8038	0.0004
729.9821	-0.0123
730.1605	0.0003
730.3388	-0.0035
730.5171	-0.0018
730.6954	-0.0097
730.8737	-0.0018
731.0519	-0.0024
731.2302	0.0061
731.4084	0.0099
731.5866	0.0013
731.7648	-0.0056
731.9429	-0.0011
732.1211	-0.0204
732.2992	-0.0007
732.4773	-0.0099
732.6554	-0.0062
732.8335	0.0015
733.0115	-0.0003
733.1896	0.0129
733.3676	-0.005
733.5456	-0.0049
733.7235	0.0031
733.9015	-0.0019
734.0794	-0.004
734.2574	-0.0052
734.4353	-0.0007
734.6131	0.0042
734.791	-0.0015
734.9689	0.0053
735.1467	0.0072
735.3245	-0.0075
735.5023	-0.0208
735.68	-0.0035
735.8578	0.0034
736.0355	-0.0184
736.2132	-0.0071
736.3909	-0.0091
736.5686	-0.0091
736.7463	-0.0004
736.9239	-0.0045
737.1015	-0.0038
737.2791	-0.0001
737.4567	-0.0012
737.6343	-0.0107
737.8118	-0.0023
737.9894	0.0063
738.1669	-0.0108
738.3444	-0.0104
738.5218	0.0101
738.6993	0.0089
738.8767	0.0029
739.0541	-0.001
739.2315	-0.007
739.4089	0.0015
739.5863	-0.0003
739.7636	-0.0023
739.9409	0.0037
740.1182	0.0011
740.2955	0.0063
740.4728	-0.0001
740.65	-0.0016
740.8272	-0.0005
741.0044	-0.0088
741.1816	0.0006
741.3588	-0.006
741.5359	-0.0036
741.7131	-0.0112
741.8902	-0.0012
742.0673	-0.0054
742.2444	-0.0064
742.4214	-0.0148
742.5985	-0.0109
742.7755	-0.0032
742.9525	-0.0187
743.1295	-0.0026
743.3064	-0.001
743.4834	0.0068
743.6603	0.0004
743.8372	-0.0026
744.0141	0.0023
744.191	0.0029
744.3678	0.0032
744.5446	0.0025
744.7215	-0.0068
744.8982	-0.014
745.075	-0.0143
745.2518	-0.0095
745.4285	-0.004
745.6052	-0.008
745.7819	-0.0125
745.9586	-0.0082
746.1353	-0.0124
746.3119	-0.0116
746.4885	-0.0161
746.6651	-0.0123
746.8417	-0.0077
747.0183	-0.0135
747.1948	-0.0049
747.3714	-0.0071
747.5479	-0.008
747.7244	-0.0066
747.9008	0.0068
748.0773	-0.0069
748.2537	-0.0085
748.4301	-0.0128
748.6065	-0.0092
748.7829	-0.007
748.9593	-0.015
749.1356	-0.0046
749.3119	-0.0029
749.4882	-0.0162
749.6645	0.0028
749.8408	-0.0121
750.017	-0.0033
750.1933	-0.0072
750.3695	-0.0197
750.5457	0.0042
750.7218	-0.0007
750.898	-0.0019
751.0741	-0.014
751.2502	-0.0081
751.4263	-0.0084
751.6024	-0.0038
751.7784	-0.0069
751.9545	-0.0038
752.1305	-0.0095
752.3065	-0.0076
752.4825	0.0028
752.6584	-0.0118
752.8344	-0.0144
753.0103	-0.0092
753.1862	-0.0078
753.3621	-0.004
753.5379	-0.0103
753.7138	0.002
753.8896	-0.0087
754.0654	0.0004
754.2412	0.0023
754.417	0.0066
754.5927	-0.0103
754.7685	-0.0055
754.9442	-0.001
755.1199	0.0073
755.2956	-0.0033
755.4712	0.0099
755.6469	0.0052
755.8225	-0.0014
755.9981	-0.0045
756.1736	0.0051
756.3492	0.0004
756.5248	0.0091
756.7003	0.0012
756.8758	0.0036
757.0513	-0.0102
757.2267	-0.0089
757.4022	0.0059
757.5776	-0.0048
757.753	0.0061
757.9284	-0.0004
758.1038	0.0031
758.2791	0.0015
758.4545	-0.0107
758.6298	-0.006
758.8051	-0.0043
758.9803	-0.0049
759.1556	-0.0065
759.3308	-0.0183
759.506	0.0076
759.6812	0.0036
759.8564	0.0029
760.0316	-0.002
760.2067	0.0045
760.3819	0.006
760.557	0.0133
760.732	0.0044
760.9071	-0.0107
761.0821	0.0108
761.2572	0.0117
761.4322	-0.0063
761.6072	-0.0013
761.7821	-0.0072
761.9571	-0.0021
762.132	-0.0075
762.3069	-0.0174
762.4818	-0.007
762.6567	-0.0111
762.8316	-0.0049
763.0064	-0.0052
763.1812	-0.0033
763.356	-0.0079
763.5308	-0.0122
763.7055	-0.005
763.8803	-0.0148
764.055	0.0015
764.2297	-0.0019
764.4044	-0.0134
764.579	-0.0094
764.7537	-0.0137
764.9283	-0.0076
765.1029	-0.0162
765.2775	-0.0066
765.4521	-0.0138
765.6266	-0.0156
765.8011	-0.0147
765.9756	-0.0033
766.1501	0.003
766.3246	-0.0022
766.4991	-0.0009
766.6735	-0.0024
766.8479	-0.0077
767.0223	0.0017
767.1967	-0.01
767.371	-0.0034
767.5454	-0.0103
767.7197	-0.008
767.894	-0.0096
768.0683	-0.0129
768.2425	0.0039
768.4168	0.0035
768.591	0.0082
768.7652	-0.0097
768.9394	-0.0099
769.1135	-0.0113
769.2877	0.0019
769.4618	-0.0053
769.6359	-0.0088
769.81	0.0085
769.984	-0.0016
770.1581	-0.0141
770.3321	0.0005
770.5061	-0.0076
770.6801	-0.0087
770.8541	-0.0094
771.028	0.0058
771.202	0.0017
771.3759	-0.0054
771.5498	-0.0148
771.7236	-0.005
771.8975	0.001
772.0713	-0.0146
772.2451	0.0036
772.4189	-0.0005
772.5927	-0.0027
772.7665	-0.0043
772.9402	-0.0045
773.1139	-0.0133
773.2876	-0.0136
773.4613	-0.003
773.635	-0.001
773.8086	-0.0139
773.9822	-0.0085
774.1558	-0.0039
774.3294	-0.0187
774.503	-0.005
774.6765	-0.0005
774.8501	-0.0052
775.0236	0.0035
775.1971	0.0059
775.3705	-0.0188
775.544	-0.0072
775.7174	-0.0069
775.8908	-0.0182
776.0642	-0.0054
776.2376	0.0016
776.4109	-0.006
776.5843	-0.0165
776.7576	-0.0034
776.9309	0.007
777.1041	0.0036
777.2774	0.0081
777.4506	-0.0095
777.6238	-0.0131
777.797	-0.0001
777.9702	-0.01
778.1434	-0.0054
778.3165	-0.0073
778.4896	-0.0161
778.6627	0.009
778.8358	0.0034
779.0089	-0.0146
779.1819	-0.0045
779.3549	0.0019
779.5279	0.0032
779.7009	-0.014
779.8739	-0.0074
780.0468	0.0071
780.2197	-0.0052
780.3926	-0.0137
780.5655	-0.0091
780.7384	-0.0022
780.9112	-0.0144
781.0841	-0.0107
781.2569	-0.01
781.4297	0.0078
781.6024	-0.0004
781.7752	-0.004
781.9479	-0.0144
782.1206	-0.0122
782.2933	-0.0138
782.466	-0.0081
782.6386	-0.0062
782.8113	-0.0056
782.9839	-0.0021
783.1565	0.0104
783.329	0.0094
783.5016	-0.0041
783.6741	0.008
783.8466	-0.0093
784.0191	0.0098
784.1916	-0.0043
784.3641	0.0033
784.5365	0.0008
784.7089	-0.0081
784.8813	-0.0119
785.0537	-0.0001
785.2261	-0.0157
785.3984	-0.0176
785.5707	-0.0022
785.743	-0.0092
785.9153	-0.0196
786.0876	-0.0046
786.2598	-0.0138
786.432	-0.0169
786.6042	-0.0172
786.7764	-0.0183
786.9486	-0.0052
787.1207	-0.0185
787.2928	-0.0025
787.4649	-0.009
787.637	-0.0018
787.8091	-0.0098
787.9811	-0.0165
788.1532	-0.0106
788.3252	0.0005
788.4972	0.0031
788.6691	-0.0011
788.8411	-0.0035
789.013	-0.0087
789.1849	-0
789.3568	-0.0103
789.5287	-0.0104
789.7005	0.0003
789.8723	0.0007
790.0442	0.0146
790.2159	0.0027
790.3877	-0.0054
790.5595	-0.0207
790.7312	0.0013
790.9029	0.002
791.0746	-0.0106
791.2463	-0.0048
791.4179	-0.002
791.5896	-0.0087
791.7612	-0.0139
791.9328	-0.0131
792.1044	-0.0151
792.2759	-0.0164
792.4474	-0.0071
792.619	-0.0049
792.7905	0.0088
792.9619	-0.0011
793.1334	0.0026
793.3048	0.014
793.4762	0.0103
793.6476	-0.0056
793.819	-0.0052
793.9904	0.0121
794.1617	-0.0278
794.333	0.0022
794.5043	-0.0095
794.6756	-0.0055
794.8469	-0.0144
795.0181	-0.0083
795.1893	-0.0158
795.3605	0.0055
795.5317	-0.019
795.7029	-0.0021
795.874	-0.0005
796.0452	0.0003
796.2163	-0.0018
796.3873	0.005
796.5584	0.009
796.7294	-0.0051
796.9005	0.0065
797.0715	-0.004
797.2425	-0.0214
797.4134	0.0003
797.5844	0.0007
797.7553	-0.0261
797.9262	0.002
798.0971	-0.0249
798.2679	-0.0052
798.4388	-0.0173
798.6096	-0.0048
798.7804	-0.0041
798.9512	-0.0114
799.122	-0.0155
799.2927	-0.0059
799.4635	0.0022
799.6342	-0.0239
799.8049	-0.01
799.9755	-0.003
800.1462	-0.0075
800.3168	-0.005
800.4874	-0.0148
800.658	0.0087
800.8286	-0.0072
800.9991	0.0095
801.1696	0.0023
801.3402	0.0188
801.5106	-0.0067
801.6811	-0.0032
801.8516	0.0063
802.022	-0.0109
802.1924	0.0147
802.3628	0.0053
802.5332	-0.0002
802.7035	0.0068
802.8739	-0.0201
803.0442	-0.0107
803.2145	0.0018
803.3847	-0.0383
803.555	-0.0009
803.7252	-0.0285
803.8954	-0.0208
804.0656	-0.0219
804.2358	-0.0086
804.4059	-0.0032
804.5761	-0.0115
804.7462	0.0088
804.9163	-0.0069
805.0864	-0.0211
805.2564	-0.0144
805.4264	-0.0029
805.5965	-0.0093
805.7665	-0.0022
805.9364	-0.0102
806.1064	0.0366
806.2763	0.0026
806.4462	0.0171
806.6161	0.0127
806.786	0.007
806.9559	0.0036
807.1257	-0.0083
807.2955	-0.0011
807.4653	-0.0064
807.6351	-0.0119
807.8048	-0.0042
807.9746	-0.0119
808.1443	-0
808.314	-0.001
808.4837	-0.0091
808.6533	-0.0019
808.8229	0.0182
808.9926	-0.0112
809.1622	0.0038
809.3317	-0.0238
809.5013	-0.005
809.6708	0.0054
809.8403	-0.0027
810.0098	-0.0038
810.1793	0.0089
810.3488	0.0033
810.5182	-0.0296
810.6876	-0.018
810.857	-0.0282
811.0264	0.0064
811.1958	0.0096
811.3651	-0.0093
811.5344	-0.0032
811.7037	-0.023
811.873	-0.0149
812.0422	-0.0101
812.2115	-0.0125
812.3807	-0.0121
812.5499	0.0049
812.7191	-0.0048
812.8882	-0.0026
813.0574	-0.0003
813.2265	-0.0116
813.3956	0.009
813.5646	-0.0286
813.7337	-0.0075
813.9027	0.0109
814.0718	-0.0059
814.2407	0.0062
814.4097	-0.0372
814.5787	-0.0197
814.7476	-0.0172
814.9165	-0.0177
815.0854	-0.0236
815.2543	-0.0441
815.4232	-0.0006
815.592	-0.0015
815.7608	-0.003
815.9296	-0.0262
816.0984	-0.0104
816.2671	0.0059
816.4359	-0.0096
816.6046	-0.0223
816.7733	-0.0209
816.942	-0.0476
817.1106	-0.0063
817.2793	0.0072
817.4479	-0.0121
817.6165	0.0093
817.785	0.0003
817.9536	-0.0052
818.1221	-0.0158
818.2906	0.0113
818.4591	-0.0376
818.6276	-0.0215
818.7961	0.0046
818.9645	0.004
819.1329	0.0114
819.3013	0.0301
819.4697	0.0129
819.638	-0.0105
819.8064	-0.0134
819.9747	0.0003
820.143	-0.0117
820.3113	-0.0143
820.4795	-0.0059
820.6477	0.0059
820.816	0.0218
820.9842	0.0198
821.1523	-0.0125
821.3205	-0.0195
821.4886	-0.0174
821.6567	-0.0158
821.8248	0.0101
821.9929	0.0122
822.1609	-0.013
822.329	0.0205
822.497	-0.0077
822.665	-0.0044
822.833	-0.0342
823.0009	-0.0026
823.1688	-0.0071
823.3367	0.0046
823.5046	0.0289
823.6725	0.0051
823.8404	-0.0219
824.0082	-0.0012
824.176	-0.0174
824.3438	0.0044
824.5116	-0.0284
824.6793	0.0218
824.847	-0.0253
825.0147	-0.0273
825.1824	0.0297
825.3501	-0.002
825.5177	-0.0242
825.6854	-0.0098
825.853	-0.0184
826.0206	-0.0576
826.1881	-0.0128
826.3557	-0.0306
826.5232	0.003
826.6907	-0.0321
826.8582	-0.031
827.0257	-0.0168
827.1931	-0.0276
827.3605	-0.0237
827.528	-0.0047
827.6953	-0.0242
827.8627	-0.0102
828.03	0.0088
828.1974	-0.0175
828.3647	-0.0338
828.532	-0.0179
828.6992	-0.0093
828.8665	-0.0201
829.0337	-0.0373
829.2009	0.0126
829.3681	-0.0248
829.5352	0.0196
829.7024	-0.0226
829.8695	-0.0335
830.0366	0.0289
830.2037	0.0061
830.3707	0.0074
830.5378	-0.0038
830.7048	-0.006
830.8718	-0.0108
831.0388	-0.0509
831.2057	0.0508
831.3727	-0.0057
831.5396	-0.0051
831.7065	-0.018
831.8734	0.0109
832.0402	-0.0226
832.2071	-0.0006
832.3739	-0.02
832.5407	-0.0107
832.7075	-0.019
832.8742	-0.028
833.041	-0.0284
833.2077	0.0067
833.3744	0.0053
833.541	-0.0125
833.7077	-0.0501
833.8743	-0.0633
834.0409	-0.0037
834.2075	-0.0348
834.3741	-0.04
834.5407	-0.0199
834.7072	-0.0113
834.8737	-0.0118
835.0402	-0.0107
835.2067	0.019
835.3731	-0.0263
835.5395	-0.0249
835.706	-0.0184
835.8723	-0.0015
836.0387	0.0006
836.2051	-0.0164
836.3714	0.0188
836.5377	0.0055
836.704	-0.0363
836.8703	-0.0334
837.0365	-0.0619
837.2027	-0.0061
837.3689	-0.0024
837.5351	-0.036
837.7013	-0.0467
837.8674	-0.0642
838.0335	-0.0385
838.1997	-0.0009
838.3657	-0.042
838.5318	-0.037
838.6978	0.0229
838.8639	0.0236
839.0299	-0.0203
839.1958	-0.0368
839.3618	0.0103
839.5277	-0.0069
839.6937	-0.0395
839.8596	-0.0264
840.0254	-0.0131
840.1913	0.0116
840.3571	-0.0449
840.523	-0.0336
840.6888	-0.0429
840.8545	-0.0352
841.0203	-0.0147
841.186	-0.0185
841.3517	0.0542
841.5174	0.0373
841.6831	0.0133
841.8488	-0.0142
842.0144	-0.0091
842.18	-0.0414
842.3456	-0.0175
842.5112	-0.0295
842.6767	-0.0536
842.8422	-0.0514
843.0077	-0.0542
843.1732	-0.0127
843.3387	-0.037
843.5042	-0.0261
843.6696	-0.0447
843.835	-0.067
844.0004	0.0127
844.1657	-0.0021
844.3311	-0.0571
844.4964	-0.0801
844.6617	-0.0394
844.827	-0.0775
844.9923	-0.0476
845.1575	0.0281
845.3227	0.0011
845.4879	-0.0199
845.6531	-0.0236
845.8183	-0.0816
845.9834	0.0177
846.1485	-0.014
846.3136	-0.0659
846.4787	-0.1179
846.6438	0.0491
846.8088	-0.0448
846.9738	-0.1143
847.1388	-0.0194
847.3038	-0.0607
847.4687	-0.1709
847.6337	-0.004
847.7986	-0.122
847.9635	0.0194
848.1284	-0.0096
848.2932	0.1201
848.458	0.019
848.6228	0.0721
848.7876	0.0489
848.9524	-0.0886
849.1172	-0.1039
849.2819	-0.0298
849.4466	-0.0821
849.6113	-0.0551
849.7759	-0.0273
849.9406	-0.0219
850.1052	0.005
850.2698	-0.0205
850.4344	-0.025
850.599	-0.0516
850.7635	-0.0001
850.928	-0.126
851.0925	0.0095
851.257	-0.0209
851.4215	-0.0321
851.5859	-0.0089
851.7503	-0.0167
851.9147	-0.0394
852.0791	-0.0301
852.2434	-0.0295
852.4078	0.0602
852.5721	0.0146
852.7364	0.0471
852.9007	-0.2097
853.0649	-0.0041
853.2291	-0.0541
853.3934	-0.1186
853.5575	-0.099
853.7217	-0.1325
853.8859	-0.2347
854.05	-0.1488
854.2141	-0.1539
854.3782	-0.0683
854.5423	-0.0849
854.7063	0.0783
854.8703	-0.1009
855.0343	-0.0506
855.1983	-0.2274
855.3623	0.1589
855.5262	-0.0802
855.6901	-0.076
855.854	0.0124
856.0179	-0.0342
856.1818	0.0724
856.3456	-0.1051
856.5094	-0.2014
856.6732	-0.0004
856.837	-0.1575
857.0008	0.0732
857.1645	-0.0752
857.3282	-0.1706
857.4919	-0.0919
857.6556	-0.0084
857.8192	-0.0132
857.9828	0.0638
858.1465	0.0406
858.31	-0.2481
858.4736	-0.125
858.6372	-0.312
858.8007	-0.2386
858.9642	-0.0269
859.1277	-0.231
859.2911	0.2012
859.4546	0.0202
859.618	-0.4548
859.7814	-0.0685
859.9448	-0.0495
860.1081	0.0325
860.2715	-0.0104
860.4348	-0.1668
860.5981	0.1179
860.7614	-0.0186
860.9246	-0.2968
861.0879	-0.2234
861.2511	0.0122
861.4143	-0.069
861.5774	0.0521
861.7406	-0.3078
861.9037	-0.042
862.0668	-0.1556
862.2299	-0.3582
862.393	-0.4879
862.556	0.0148
862.7191	-0.3233
862.8821	-0.2561
863.0451	-0.0113
863.208	0.1133
863.371	-0.2611
863.5339	-0.1527
863.6968	0.0746
863.8597	0.0868
864.0225	-0.1859
864.1854	-0.0596
864.3482	0.4361
864.511	0.1436
864.6737	0.2159
864.8365	0.0069
864.9992	-0.0717
865.1619	-0.6181
865.3246	-0.0012
865.4873	-0.101
865.65	0.2129
865.8126	-0.1839
865.9752	-0.0417
866.1378	-0.3874
866.3004	-0.0889
866.4629	0.1362
866.6254	0.3536
866.7879	-0.103
866.9504	-0.5664
867.1129	-0
867.2753	0.1997
867.4377	-0.1261
867.6001	-0.5356
867.7625	0.3425
867.9249	-1.0482
868.0872	0.0169
868.2495	0.1572
868.4118	-0.3907
868.5741	-0.6948
868.7363	-0.1609
868.8986	0.1711
869.0608	0.0797
869.223	0.0638
869.3851	-0
869.5473	-0
869.7094	0.1012
869.8715	-0.4366
870.0336	-0
870.1957	-0.4589
870.3577	-0
870.5197	-0.2784
870.6817	-0.2455
870.8437	-0.3041
871.0057	-0
871.1676	-0.2541
871.3295	-0.4751
871.4914	-0.1451
871.6533	-0.3728
871.8151	-0.2575
871.977	-0
872.1388	-0
872.3006	-0
872.4623	-0
872.6241	0.0936
872.7858	-0
872.9475	-0.5056
873.1092	-0.216
873.2709	0.4867
873.4325	-0.1802
873.5941	-0
873.7557	-0
873.9173	0.1343
874.0789	-0.4867
874.2404	-0
874.4019	0.8336
874.5634	-0.2675
874.7249	-0.0099
874.8863	-0.1082
875.0478	0.1268
875.2092	-0
875.3706	0.0858
875.5319	-1.0879
875.6933	0.1094
875.8546	-0.4438
876.0159	-0
876.1772	-0.0553
876.3385	-0
876.4997	0.3305
876.6609	-0.3698
876.8221	-0
876.9833	-0.0226
877.1445	-0
877.3056	-0.1146
877.4667	-0.4304
877.6278	-0
877.7889	-0.6636
877.9499	-0
878.111	-0
878.272	-0
878.433	-0
878.5939	-0
878.7549	-0.4067
878.9158	-0.4701
879.0767	-0
879.2376	-0.031
879.3984	-0.1551
879.5593	0.7917
879.7201	-0
879.8809	-1.0025
880.0417	0.0271
880.2024	0.0243
880.3632	-0
880.5239	0.2141
880.6846	-0.2087
880.8452	-2.7478
881.0059	-1.1106
881.1665	-0.0226
881.3271	0.4232
881.4877	-0.7109
881.6483	-0.6068
881.8088	-0.1405
881.9693	-0
882.1298	-0
882.2903	-0
