Data from MonoPyChalIsomerACN10uM350nmA_Absorbance_14-35-36-915.txt Node
Date: Fri Jul 05 14:35:36 BST 2024
User: LASERRRRR
Spectrometer: FLMT03099
Trigger mode: 0
Integration Time (sec): 1.000000E-1
Scans to average: 1
Electric dark correction enabled: true
Nonlinearity correction enabled: false
Boxcar width: 0
XAxis mode: Wavelengths
Number of Pixels in Spectrum: 3648
>>>>>Begin Spectral Data<<<<<
179.3399	-0.3475
179.5586	-0.3475
179.7771	-0.3475
179.9957	-0
180.2143	-0
180.4329	-0.526
180.6514	-0
180.8699	-0
181.0885	-0
181.307	0.3237
181.5255	-0
181.744	-0.5545
181.9625	-0
182.181	-0
182.3994	-0
182.6179	-0
182.8363	0.399
183.0547	-0.2794
183.2732	-0.0505
183.4916	0.0305
183.71	0.1295
183.9284	0.1464
184.1467	-0.177
184.3651	-0.1139
184.5835	0.0169
184.8018	-0.0075
185.0201	-0.0064
185.2385	-0.0067
185.4568	-0.0668
185.6751	-0.061
185.8934	0.2331
186.1117	0.0178
186.3299	0.1147
186.5482	0.0075
186.7664	-0.1027
186.9847	-0.1236
187.2029	0.097
187.4211	-0.0628
187.6393	0.1626
187.8575	-0.0521
188.0757	0.1701
188.2939	0.0295
188.512	0.1835
188.7302	-0.0566
188.9483	0.0739
189.1665	0.1683
189.3846	-0.1244
189.6027	0.1589
189.8208	0.3277
190.0389	-0.0039
190.257	0.2278
190.475	0.119
190.6931	0.3048
190.9111	0.4402
191.1292	0.2101
191.3472	0.5831
191.5652	0.1622
191.7832	0.471
192.0012	0.3349
192.2192	0.3784
192.4371	0.5029
192.6551	0.2416
192.873	0.5086
193.091	0.375
193.3089	1.0648
193.5268	0.4766
193.7447	0.4681
193.9626	0.4902
194.1805	0.5586
194.3984	0.5945
194.6162	0.5048
194.8341	0.6549
195.0519	0.6801
195.2697	0.5847
195.4875	0.4536
195.7054	0.532
195.9231	0.5881
196.1409	0.6179
196.3587	0.6331
196.5765	0.5592
196.7942	0.6083
197.012	0.5261
197.2297	0.5746
197.4474	0.5861
197.6651	0.4521
197.8828	0.4822
198.1005	0.674
198.3182	0.5963
198.5358	0.6749
198.7535	0.5351
198.9711	0.4776
199.1888	0.4989
199.4064	0.6385
199.624	0.587
199.8416	0.467
200.0592	0.5315
200.2767	0.5707
200.4943	0.6968
200.7119	0.6994
200.9294	0.6041
201.1469	0.5226
201.3645	0.6409
201.582	0.6149
201.7995	0.6942
202.017	0.5915
202.2344	0.601
202.4519	0.7524
202.6694	0.5158
202.8868	0.6363
203.1042	0.6383
203.3217	0.7132
203.5391	0.5462
203.7565	0.5304
203.9739	0.6131
204.1913	0.6094
204.4086	0.7512
204.626	0.7059
204.8433	0.6376
205.0607	0.5831
205.278	0.6111
205.4953	0.6329
205.7126	0.661
205.9299	0.6534
206.1472	0.7393
206.3644	0.6593
206.5817	0.6034
206.7989	0.6461
207.0162	0.6524
207.2334	0.6079
207.4506	0.6399
207.6678	0.6573
207.885	0.5949
208.1022	0.595
208.3194	0.6018
208.5365	0.6476
208.7537	0.6331
208.9708	0.528
209.1879	0.6397
209.405	0.6286
209.6222	0.6562
209.8392	0.5897
210.0563	0.5719
210.2734	0.6451
210.4905	0.6001
210.7075	0.5976
210.9245	0.5746
211.1416	0.6197
211.3586	0.6117
211.5756	0.62
211.7926	0.6018
212.0096	0.5988
212.2265	0.5564
212.4435	0.6036
212.6604	0.5525
212.8774	0.5557
213.0943	0.6394
213.3112	0.5633
213.5281	0.4776
213.745	0.5522
213.9619	0.4549
214.1788	0.4735
214.3956	0.4725
214.6125	0.4616
214.8293	0.4186
215.0461	0.4481
215.2629	0.437
215.4798	0.4506
215.6965	0.4357
215.9133	0.4515
216.1301	0.3923
216.3469	0.413
216.5636	0.4239
216.7803	0.3951
216.9971	0.3789
217.2138	0.4136
217.4305	0.3722
217.6472	0.349
217.8639	0.3833
218.0805	0.3373
218.2972	0.2982
218.5138	0.3162
218.7305	0.3305
218.9471	0.2942
219.1637	0.311
219.3803	0.2739
219.5969	0.2959
219.8135	0.2381
220.0301	0.2667
220.2466	0.2668
220.4632	0.2394
220.6797	0.2716
220.8962	0.2227
221.1127	0.256
221.3292	0.2518
221.5457	0.2495
221.7622	0.2236
221.9787	0.2581
222.1951	0.2369
222.4116	0.2278
222.628	0.2422
222.8444	0.2228
223.0608	0.24
223.2772	0.2421
223.4936	0.2566
223.71	0.2348
223.9264	0.2748
224.1427	0.2546
224.3591	0.2596
224.5754	0.2528
224.7917	0.2611
225.008	0.2485
225.2243	0.2413
225.4406	0.287
225.6569	0.2635
225.8732	0.2685
226.0894	0.2455
226.3057	0.2753
226.5219	0.2825
226.7381	0.2694
226.9543	0.2893
227.1705	0.2837
227.3867	0.2865
227.6029	0.2892
227.8191	0.2977
228.0352	0.2998
228.2513	0.2949
228.4675	0.316
228.6836	0.2894
228.8997	0.2836
229.1158	0.3112
229.3319	0.3147
229.548	0.3192
229.764	0.3176
229.9801	0.3218
230.1961	0.3126
230.4121	0.3187
230.6282	0.3381
230.8442	0.3169
231.0602	0.3651
231.2761	0.3527
231.4921	0.329
231.7081	0.3461
231.924	0.3344
232.14	0.3629
232.3559	0.3484
232.5718	0.3457
232.7877	0.3453
233.0036	0.3506
233.2195	0.3684
233.4353	0.3521
233.6512	0.3714
233.867	0.3671
234.0829	0.362
234.2987	0.3664
234.5145	0.3591
234.7303	0.3615
234.9461	0.396
235.1619	0.3925
235.3776	0.3819
235.5934	0.3804
235.8091	0.3829
236.0249	0.3606
236.2406	0.3792
236.4563	0.3766
236.672	0.3853
236.8877	0.3855
237.1034	0.3966
237.319	0.393
237.5347	0.3973
237.7503	0.3833
237.966	0.3942
238.1816	0.4155
238.3972	0.3833
238.6128	0.3844
238.8284	0.4096
239.0439	0.4068
239.2595	0.3839
239.475	0.4025
239.6906	0.4167
239.9061	0.4102
240.1216	0.4002
240.3371	0.4094
240.5526	0.3991
240.7681	0.4186
240.9836	0.3816
241.199	0.4081
241.4145	0.3925
241.6299	0.3717
241.8453	0.3772
242.0607	0.3888
242.2761	0.358
242.4915	0.3781
242.7069	0.365
242.9223	0.342
243.1376	0.3515
243.353	0.3503
243.5683	0.3413
243.7836	0.3247
243.9989	0.331
244.2142	0.3069
244.4295	0.3246
244.6448	0.3167
244.86	0.2939
245.0753	0.2806
245.2905	0.2872
245.5057	0.2719
245.721	0.2826
245.9362	0.2763
246.1514	0.2744
246.3665	0.2591
246.5817	0.2466
246.7969	0.2574
247.012	0.2386
247.2271	0.2398
247.4423	0.2478
247.6574	0.2341
247.8725	0.2408
248.0876	0.2303
248.3026	0.2322
248.5177	0.2202
248.7328	0.2097
248.9478	0.2121
249.1628	0.2199
249.3779	0.2146
249.5929	0.2088
249.8079	0.2106
250.0228	0.2003
250.2378	0.2007
250.4528	0.2074
250.6677	0.1783
250.8827	0.1873
251.0976	0.1939
251.3125	0.1929
251.5274	0.1768
251.7423	0.1948
251.9572	0.1854
252.172	0.1754
252.3869	0.184
252.6017	0.1799
252.8166	0.1594
253.0314	0.1721
253.2462	0.1735
253.461	0.1728
253.6758	0.1721
253.8906	0.1883
254.1053	0.1717
254.3201	0.1699
254.5348	0.1887
254.7496	0.1755
254.9643	0.1598
255.179	0.1778
255.3937	0.1689
255.6083	0.1721
255.823	0.1807
256.0377	0.1798
256.2523	0.1662
256.467	0.1578
256.6816	0.1759
256.8962	0.1635
257.1108	0.165
257.3254	0.1657
257.54	0.1587
257.7545	0.1605
257.9691	0.1639
258.1836	0.1616
258.3981	0.1756
258.6127	0.1745
258.8272	0.1569
259.0417	0.1679
259.2561	0.1575
259.4706	0.1632
259.6851	0.1707
259.8995	0.1678
260.114	0.1574
260.3284	0.1686
260.5428	0.1579
260.7572	0.1635
260.9716	0.174
261.186	0.171
261.4003	0.1603
261.6147	0.1644
261.829	0.1639
262.0433	0.1591
262.2577	0.1646
262.472	0.1675
262.6863	0.1559
262.9005	0.1529
263.1148	0.1566
263.3291	0.1523
263.5433	0.1563
263.7576	0.1564
263.9718	0.16
264.186	0.1669
264.4002	0.1624
264.6144	0.1575
264.8286	0.1718
265.0427	0.1559
265.2569	0.1639
265.471	0.1492
265.6851	0.1529
265.8993	0.1672
266.1134	0.1519
266.3275	0.1576
266.5415	0.1477
266.7556	0.1671
266.9697	0.1683
267.1837	0.1584
267.3978	0.1562
267.6118	0.157
267.8258	0.176
268.0398	0.1582
268.2538	0.1673
268.4677	0.1513
268.6817	0.1576
268.8957	0.1613
269.1096	0.1567
269.3235	0.1604
269.5374	0.1532
269.7514	0.1485
269.9652	0.1536
270.1791	0.1546
270.393	0.1525
270.6068	0.1486
270.8207	0.1555
271.0345	0.1427
271.2483	0.1516
271.4622	0.1436
271.676	0.1633
271.8897	0.1403
272.1035	0.143
272.3173	0.1421
272.531	0.1529
272.7448	0.1513
272.9585	0.1424
273.1722	0.1453
273.3859	0.1376
273.5996	0.1444
273.8133	0.1411
274.0269	0.1311
274.2406	0.1364
274.4542	0.1437
274.6679	0.126
274.8815	0.1365
275.0951	0.1432
275.3087	0.1564
275.5223	0.146
275.7358	0.1529
275.9494	0.1459
276.1629	0.1358
276.3765	0.1491
276.59	0.1524
276.8035	0.1449
277.017	0.1482
277.2305	0.1452
277.444	0.1539
277.6574	0.1484
277.8709	0.1442
278.0843	0.1401
278.2978	0.1443
278.5112	0.1341
278.7246	0.1518
278.938	0.1406
279.1513	0.1473
279.3647	0.1611
279.5781	0.1415
279.7914	0.1489
280.0047	0.1626
280.2181	0.1429
280.4314	0.1533
280.6447	0.1505
280.8579	0.1442
281.0712	0.1531
281.2845	0.1514
281.4977	0.1508
281.711	0.1407
281.9242	0.1473
282.1374	0.1726
282.3506	0.1341
282.5638	0.1567
282.7769	0.1546
282.9901	0.1532
283.2033	0.1546
283.4164	0.1632
283.6295	0.14
283.8426	0.1548
284.0557	0.163
284.2688	0.1653
284.4819	0.1661
284.695	0.1547
284.908	0.1562
285.1211	0.1555
285.3341	0.1577
285.5471	0.1694
285.7601	0.1584
285.9731	0.1516
286.1861	0.1501
286.3991	0.1626
286.612	0.165
286.825	0.153
287.0379	0.1714
287.2508	0.159
287.4637	0.1581
287.6766	0.1505
287.8895	0.1689
288.1024	0.1683
288.3152	0.1687
288.5281	0.1485
288.7409	0.1581
288.9538	0.1606
289.1666	0.1612
289.3794	0.1582
289.5922	0.1608
289.8049	0.1686
290.0177	0.1526
290.2304	0.1639
290.4432	0.1762
290.6559	0.1624
290.8686	0.1783
291.0813	0.1603
291.294	0.1673
291.5067	0.1688
291.7194	0.1607
291.932	0.1694
292.1447	0.1685
292.3573	0.1642
292.5699	0.1669
292.7825	0.162
292.9951	0.1568
293.2077	0.1711
293.4203	0.1626
293.6328	0.1499
293.8454	0.1728
294.0579	0.1619
294.2704	0.1582
294.4829	0.1629
294.6954	0.1667
294.9079	0.1592
295.1204	0.1664
295.3328	0.168
295.5453	0.17
295.7577	0.1666
295.9701	0.1478
296.1825	0.1731
296.3949	0.1673
296.6073	0.1609
296.8197	0.1615
297.0321	0.1739
297.2444	0.1627
297.4567	0.1684
297.6691	0.1702
297.8814	0.1524
298.0937	0.1627
298.306	0.1659
298.5182	0.1531
298.7305	0.1694
298.9428	0.1596
299.155	0.1555
299.3672	0.1555
299.5794	0.1585
299.7916	0.1556
300.0038	0.1755
300.216	0.1676
300.4282	0.1672
300.6403	0.1589
300.8525	0.1658
301.0646	0.1565
301.2767	0.1589
301.4888	0.1523
301.7009	0.1687
301.913	0.1517
302.125	0.1661
302.3371	0.1531
302.5491	0.1633
302.7612	0.1627
302.9732	0.165
303.1852	0.1642
303.3972	0.1571
303.6092	0.1471
303.8211	0.1535
304.0331	0.1509
304.245	0.1576
304.457	0.1501
304.6689	0.1438
304.8808	0.1729
305.0927	0.143
305.3046	0.1482
305.5164	0.1523
305.7283	0.142
305.9401	0.1527
306.152	0.1569
306.3638	0.145
306.5756	0.1411
306.7874	0.154
306.9992	0.1389
307.2109	0.1388
307.4227	0.1278
307.6344	0.1371
307.8462	0.1323
308.0579	0.1445
308.2696	0.1403
308.4813	0.1326
308.693	0.1377
308.9046	0.146
309.1163	0.127
309.328	0.1216
309.5396	0.1247
309.7512	0.1181
309.9628	0.1213
310.1744	0.1188
310.386	0.1185
310.5976	0.1251
310.8091	0.1238
311.0207	0.1181
311.2322	0.1203
311.4437	0.1079
311.6552	0.1068
311.8667	0.1188
312.0782	0.1044
312.2897	0.1053
312.5012	0.1144
312.7126	0.1067
312.924	0.1044
313.1355	0.1091
313.3469	0.1151
313.5583	0.1083
313.7696	0.1211
313.981	0.1117
314.1924	0.0956
314.4037	0.1006
314.6151	0.116
314.8264	0.0999
315.0377	0.0987
315.249	0.0951
315.4603	0.1129
315.6716	0.1049
315.8828	0.0993
316.0941	0.103
316.3053	0.09
316.5165	0.0893
316.7277	0.1001
316.9389	0.1036
317.1501	0.1043
317.3613	0.1059
317.5724	0.0892
317.7836	0.1061
317.9947	0.095
318.2058	0.0935
318.417	0.0927
318.6281	0.091
318.8391	0.0926
319.0502	0.0911
319.2613	0.1015
319.4723	0.1053
319.6834	0.1074
319.8944	0.0919
320.1054	0.1055
320.3164	0.1052
320.5274	0.0964
320.7383	0.0993
320.9493	0.0959
321.1602	0.0932
321.3712	0.0977
321.5821	0.1047
321.793	0.1014
322.0039	0.0921
322.2148	0.0806
322.4257	0.1038
322.6365	0.1119
322.8474	0.1108
323.0582	0.1018
323.269	0.1008
323.4798	0.1062
323.6906	0.0993
323.9014	0.1017
324.1122	0.0989
324.3229	0.1059
324.5337	0.1036
324.7444	0.0939
324.9551	0.1243
325.1658	0.1049
325.3765	0.1037
325.5872	0.0953
325.7979	0.1021
326.0085	0.097
326.2192	0.0975
326.4298	0.106
326.6404	0.0974
326.851	0.0923
327.0616	0.098
327.2722	0.1071
327.4828	0.0969
327.6933	0.1056
327.9039	0.109
328.1144	0.1112
328.3249	0.1111
328.5354	0.089
328.7459	0.1037
328.9564	0.087
329.1669	0.1009
329.3773	0.1045
329.5878	0.1117
329.7982	0.102
330.0086	0.1069
330.219	0.1054
330.4294	0.1021
330.6398	0.1028
330.8502	0.1024
331.0605	0.105
331.2708	0.1038
331.4812	0.1096
331.6915	0.1078
331.9018	0.103
332.1121	0.1017
332.3224	0.1017
332.5326	0.113
332.7429	0.1174
332.9531	0.1123
333.1633	0.1104
333.3735	0.1085
333.5837	0.1123
333.7939	0.1063
334.0041	0.1167
334.2143	0.1194
334.4244	0.1015
334.6346	0.1
334.8447	0.1142
335.0548	0.1065
335.2649	0.0932
335.475	0.1205
335.685	0.1108
335.8951	0.1282
336.1051	0.1212
336.3152	0.1055
336.5252	0.109
336.7352	0.1117
336.9452	0.1205
337.1552	0.1156
337.3652	0.1044
337.5751	0.1136
337.7851	0.1106
337.995	0.1083
338.2049	0.107
338.4148	0.1102
338.6247	0.1136
338.8346	0.1044
339.0445	0.1107
339.2543	0.1232
339.4642	0.1148
339.674	0.1045
339.8838	0.121
340.0936	0.1215
340.3034	0.1229
340.5132	0.1227
340.7229	0.1171
340.9327	0.114
341.1424	0.1094
341.3522	0.1314
341.5619	0.1188
341.7716	0.1143
341.9813	0.1134
342.1909	0.1241
342.4006	0.1216
342.6102	0.1267
342.8199	0.1239
343.0295	0.1192
343.2391	0.1325
343.4487	0.1276
343.6583	0.1243
343.8679	0.1336
344.0774	0.1394
344.287	0.1321
344.4965	0.1248
344.706	0.1244
344.9155	0.1076
345.125	0.1271
345.3345	0.1259
345.544	0.1281
345.7534	0.1187
345.9629	0.114
346.1723	0.1277
346.3817	0.1277
346.5911	0.1275
346.8005	0.1422
347.0099	0.131
347.2193	0.129
347.4286	0.1304
347.638	0.1377
347.8473	0.1271
348.0566	0.1387
348.2659	0.1366
348.4752	0.1295
348.6845	0.1327
348.8937	0.1398
349.103	0.1444
349.3122	0.1221
349.5214	0.121
349.7306	0.1414
349.9398	0.1314
350.149	0.1415
350.3582	0.1339
350.5674	0.1333
350.7765	0.1484
350.9856	0.1294
351.1948	0.1471
351.4039	0.1248
351.613	0.1288
351.822	0.1486
352.0311	0.1402
352.2402	0.1457
352.4492	0.1595
352.6582	0.1506
352.8672	0.1498
353.0762	0.1685
353.2852	0.1497
353.4942	0.1492
353.7032	0.145
353.9121	0.139
354.1211	0.1513
354.33	0.1521
354.5389	0.1507
354.7478	0.1654
354.9567	0.1594
355.1655	0.144
355.3744	0.1496
355.5833	0.1538
355.7921	0.1549
356.0009	0.1661
356.2097	0.179
356.4185	0.1795
356.6273	0.1634
356.8361	0.157
357.0448	0.1612
357.2536	0.1612
357.4623	0.156
357.671	0.1709
357.8797	0.1639
358.0884	0.1666
358.2971	0.152
358.5057	0.173
358.7144	0.1688
358.923	0.1692
359.1316	0.1689
359.3402	0.1718
359.5488	0.1587
359.7574	0.1624
359.966	0.1753
360.1746	0.1789
360.3831	0.1747
360.5916	0.1476
360.8002	0.1658
361.0087	0.1824
361.2172	0.1752
361.4256	0.1775
361.6341	0.1995
361.8426	0.1677
362.051	0.1743
362.2594	0.1767
362.4678	0.1823
362.6762	0.1955
362.8846	0.1888
363.093	0.1843
363.3014	0.1821
363.5097	0.1809
363.718	0.1932
363.9264	0.1755
364.1347	0.1735
364.343	0.2071
364.5513	0.2003
364.7595	0.2062
364.9678	0.1881
365.176	0.2054
365.3842	0.2012
365.5925	0.1917
365.8007	0.1943
366.0089	0.1978
366.217	0.1824
366.4252	0.2018
366.6333	0.1977
366.8415	0.1902
367.0496	0.2042
367.2577	0.211
367.4658	0.2114
367.6739	0.207
367.882	0.2213
368.09	0.1988
368.2981	0.2146
368.5061	0.2068
368.7141	0.221
368.9221	0.221
369.1301	0.2174
369.3381	0.2107
369.5461	0.205
369.754	0.2071
369.962	0.2246
370.1699	0.2163
370.3778	0.2128
370.5857	0.2019
370.7936	0.2204
371.0015	0.218
371.2093	0.2315
371.4172	0.215
371.625	0.1986
371.8328	0.2291
372.0406	0.2221
372.2484	0.2195
372.4562	0.2213
372.664	0.2134
372.8717	0.2346
373.0795	0.2057
373.2872	0.2116
373.4949	0.2145
373.7026	0.2197
373.9103	0.2371
374.118	0.2361
374.3256	0.2236
374.5333	0.214
374.7409	0.2303
374.9485	0.2254
375.1561	0.2278
375.3637	0.2269
375.5713	0.2364
375.7789	0.2259
375.9864	0.2301
376.194	0.2307
376.4015	0.2376
376.609	0.2454
376.8165	0.2314
377.024	0.2346
377.2315	0.2297
377.4389	0.2488
377.6464	0.2548
377.8538	0.2447
378.0612	0.2418
378.2686	0.2325
378.476	0.2535
378.6834	0.2458
378.8908	0.2376
379.0981	0.2446
379.3055	0.236
379.5128	0.238
379.7201	0.2473
379.9274	0.2399
380.1347	0.2412
380.342	0.2591
380.5492	0.238
380.7565	0.263
380.9637	0.2582
381.1709	0.2497
381.3781	0.252
381.5853	0.2487
381.7925	0.2527
381.9997	0.2537
382.2068	0.2701
382.4139	0.2469
382.6211	0.2351
382.8282	0.2521
383.0353	0.2474
383.2424	0.2434
383.4494	0.2578
383.6565	0.24
383.8635	0.2412
384.0706	0.2655
384.2776	0.2748
384.4846	0.242
384.6916	0.2382
384.8986	0.258
385.1055	0.2589
385.3125	0.2664
385.5194	0.2514
385.7263	0.2573
385.9333	0.2496
386.1402	0.2559
386.347	0.2505
386.5539	0.2337
386.7608	0.2699
386.9676	0.2457
387.1744	0.241
387.3813	0.2625
387.5881	0.2534
387.7948	0.2496
388.0016	0.2433
388.2084	0.2667
388.4151	0.251
388.6219	0.2522
388.8286	0.2592
389.0353	0.2705
389.242	0.2578
389.4487	0.2493
389.6553	0.2426
389.862	0.2285
390.0686	0.2253
390.2753	0.2508
390.4819	0.2463
390.6885	0.2426
390.8951	0.2407
391.1016	0.2392
391.3082	0.2383
391.5147	0.2497
391.7213	0.2504
391.9278	0.2244
392.1343	0.225
392.3408	0.2381
392.5473	0.2382
392.7537	0.2204
392.9602	0.228
393.1666	0.2354
393.373	0.237
393.5794	0.239
393.7858	0.23
393.9922	0.2315
394.1986	0.2312
394.4049	0.2254
394.6113	0.2099
394.8176	0.2223
395.0239	0.2231
395.2302	0.2059
395.4365	0.2244
395.6428	0.2203
395.8491	0.2105
396.0553	0.2133
396.2615	0.2155
396.4678	0.2176
396.674	0.2015
396.8802	0.2096
397.0863	0.2293
397.2925	0.2037
397.4987	0.222
397.7048	0.2293
397.9109	0.2248
398.117	0.2034
398.3231	0.2026
398.5292	0.2251
398.7353	0.2379
398.9413	0.2091
399.1474	0.2097
399.3534	0.2055
399.5594	0.1886
399.7654	0.2283
399.9714	0.2289
400.1774	0.2032
400.3833	0.2031
400.5893	0.2076
400.7952	0.2072
401.0011	0.2279
401.207	0.221
401.4129	0.2169
401.6188	0.2098
401.8247	0.2032
402.0305	0.1991
402.2364	0.1933
402.4422	0.233
402.648	0.2226
402.8538	0.2278
403.0596	0.2188
403.2654	0.2212
403.4711	0.2139
403.6768	0.2116
403.8826	0.2242
404.0883	0.2232
404.294	0.2258
404.4997	0.2064
404.7054	0.2212
404.911	0.1938
405.1167	0.2162
405.3223	0.229
405.5279	0.2343
405.7335	0.2186
405.9391	0.205
406.1447	0.1969
406.3502	0.2342
406.5558	0.1991
406.7613	0.2176
406.9668	0.2098
407.1724	0.2136
407.3778	0.2134
407.5833	0.2159
407.7888	0.182
407.9942	0.2237
408.1997	0.2152
408.4051	0.2061
408.6105	0.2075
408.8159	0.2007
409.0213	0.2105
409.2267	0.2253
409.432	0.2115
409.6374	0.2335
409.8427	0.2058
410.048	0.1996
410.2533	0.2187
410.4586	0.2154
410.6639	0.2076
410.8691	0.1849
411.0744	0.2003
411.2796	0.2106
411.4848	0.211
411.69	0.216
411.8952	0.2215
412.1004	0.2241
412.3056	0.2136
412.5107	0.2033
412.7158	0.2218
412.921	0.1994
413.1261	0.2072
413.3312	0.2038
413.5362	0.2046
413.7413	0.2053
413.9464	0.2138
414.1514	0.2029
414.3564	0.187
414.5614	0.1956
414.7664	0.2094
414.9714	0.2122
415.1764	0.2111
415.3813	0.2087
415.5863	0.235
415.7912	0.1862
415.9961	0.1993
416.201	0.1999
416.4059	0.1979
416.6108	0.1878
416.8156	0.204
417.0205	0.2032
417.2253	0.2072
417.4301	0.232
417.6349	0.2009
417.8397	0.1854
418.0445	0.2242
418.2492	0.1945
418.454	0.1737
418.6587	0.1995
418.8634	0.1952
419.0681	0.1928
419.2728	0.1899
419.4775	0.192
419.6822	0.185
419.8868	0.1784
420.0915	0.1883
420.2961	0.1867
420.5007	0.1808
420.7053	0.1953
420.9099	0.1964
421.1144	0.2051
421.319	0.191
421.5235	0.1921
421.728	0.1961
421.9325	0.19
422.137	0.1742
422.3415	0.1756
422.546	0.1828
422.7504	0.1851
422.9549	0.2036
423.1593	0.1991
423.3637	0.1922
423.5681	0.1606
423.7725	0.1564
423.9769	0.1908
424.1812	0.1691
424.3856	0.1815
424.5899	0.1766
424.7942	0.1655
424.9985	0.1891
425.2028	0.1726
425.4071	0.1909
425.6113	0.1642
425.8156	0.1798
426.0198	0.1727
426.224	0.1575
426.4282	0.1675
426.6324	0.1779
426.8366	0.1648
427.0407	0.1701
427.2449	0.1781
427.449	0.1541
427.6531	0.1433
427.8572	0.1573
428.0613	0.1604
428.2654	0.1704
428.4694	0.1514
428.6735	0.1478
428.8775	0.1774
429.0815	0.17
429.2855	0.1574
429.4895	0.1505
429.6935	0.1567
429.8975	0.1565
430.1014	0.1484
430.3053	0.1366
430.5093	0.1502
430.7132	0.1389
430.9171	0.1358
431.1209	0.1497
431.3248	0.1265
431.5286	0.1357
431.7325	0.1344
431.9363	0.1292
432.1401	0.1428
432.3439	0.1333
432.5477	0.1064
432.7514	0.1227
432.9552	0.1324
433.1589	0.1189
433.3627	0.1076
433.5664	0.1056
433.7701	0.1041
433.9737	0.0982
434.1774	0.114
434.3811	0.1231
434.5847	0.113
434.7883	0.1017
434.9919	0.1069
435.1955	0.1137
435.3991	0.1118
435.6027	0.1267
435.8062	0.1023
436.0098	0.0876
436.2133	0.1087
436.4168	0.0845
436.6203	0.0957
436.8238	0.1074
437.0272	0.0903
437.2307	0.0992
437.4341	0.1072
437.6375	0.1016
437.841	0.0849
438.0443	0.1037
438.2477	0.0876
438.4511	0.0799
438.6545	0.0788
438.8578	0.088
439.0611	0.0868
439.2644	0.0932
439.4677	0.08
439.671	0.0718
439.8743	0.0878
440.0775	0.0918
440.2808	0.0629
440.484	0.0905
440.6872	0.0682
440.8904	0.0646
441.0936	0.1027
441.2967	0.074
441.4999	0.0779
441.703	0.0722
441.9062	0.071
442.1093	0.0688
442.3124	0.0687
442.5155	0.0525
442.7185	0.0645
442.9216	0.0396
443.1246	0.0836
443.3276	0.057
443.5307	0.0598
443.7337	0.0581
443.9366	0.0581
444.1396	0.0621
444.3426	0.0529
444.5455	0.0674
444.7484	0.038
444.9513	0.0374
445.1542	0.0674
445.3571	0.0576
445.56	0.0486
445.7628	0.0298
445.9657	0.0451
446.1685	0.0482
446.3713	0.0402
446.5741	0.0454
446.7769	0.0309
446.9797	0.0426
447.1824	0.0471
447.3852	0.0477
447.5879	0.0391
447.7906	0.0429
447.9933	0.0395
448.196	0.0453
448.3986	0.0306
448.6013	0.0331
448.8039	0.0289
449.0066	0.0386
449.2092	0.0466
449.4118	0.0319
449.6143	0.0371
449.8169	0.0344
450.0195	0.0336
450.222	0.0107
450.4245	0.0215
450.627	0.0309
450.8295	0.0273
451.032	0.0133
451.2345	0.0205
451.4369	0.0218
451.6394	0.0255
451.8418	0.0109
452.0442	0.0235
452.2466	0.0365
452.449	0.0118
452.6513	0.0176
452.8537	0.0118
453.056	0.0037
453.2583	0.0086
453.4607	0.0142
453.663	0.0339
453.8652	0.0325
454.0675	0.0048
454.2697	0.029
454.472	0.003
454.6742	0.0181
454.8764	0.02
455.0786	0.0276
455.2808	0.0176
455.4829	0.0266
455.6851	0.0305
455.8872	0.0329
456.0893	0.0254
456.2915	0.011
456.4935	0.0347
456.6956	0.0175
456.8977	0.0212
457.0997	0.0047
457.3018	-0.0048
457.5038	0.0191
457.7058	0.0106
457.9078	0.0169
458.1098	0.008
458.3117	0.0132
458.5137	0.004
458.7156	0.0155
458.9175	-0.0018
459.1194	0.0236
459.3213	0.0024
459.5232	-0.0113
459.725	-0.0136
459.9269	-0.008
460.1287	-0.0119
460.3305	-0.0019
460.5323	0.0059
460.7341	0.0072
460.9359	0.0113
461.1376	0.0017
461.3394	0.0011
461.5411	-0.0012
461.7428	0.0028
461.9445	0.0111
462.1462	0.0451
462.3479	-0.0025
462.5495	0.0064
462.7512	0.0189
462.9528	0.0077
463.1544	-0.0097
463.356	0.0017
463.5576	0.0111
463.7592	-0.0006
463.9607	0.0142
464.1623	0.0147
464.3638	0.011
464.5653	0.0006
464.7668	0.0024
464.9683	0.0167
465.1697	0.0202
465.3712	-0.0109
465.5726	-0.0054
465.7741	0.0001
465.9755	-0.0037
466.1769	0.0056
466.3782	-0.0061
466.5796	-0.0067
466.7809	0.0068
466.9823	-0.009
467.1836	-0.0018
467.3849	-0.0085
467.5862	0.019
467.7875	-0.0012
467.9887	0.0194
468.19	-0.0023
468.3912	-0.0015
468.5924	-0.0055
468.7936	-0.007
468.9948	-0.0015
469.196	0.0019
469.3972	-0.0167
469.5983	-0.0004
469.7994	-0.0156
470.0006	-0.002
470.2017	-0.0157
470.4027	0.0061
470.6038	-0.0083
470.8049	-0.0192
471.0059	-0.0026
471.2069	-0.0345
471.408	0.0115
471.6089	0.0049
471.8099	-0.005
472.0109	0.0021
472.2119	-0.0183
472.4128	-0.0157
472.6137	-0.0028
472.8146	-0.0103
473.0155	-0.0031
473.2164	-0.0085
473.4173	0.0037
473.6181	0.0088
473.819	0.0009
474.0198	-0.0035
474.2206	-0.0157
474.4214	-0.0176
474.6222	-0.0036
474.8229	0.0018
475.0237	-0.0068
475.2244	-0.0166
475.4251	0.0037
475.6258	-0.008
475.8265	-0.0073
476.0272	0.0113
476.2278	-0.0073
476.4285	-0.0023
476.6291	-0.0045
476.8297	-0.0014
477.0303	-0.0037
477.2309	0.0005
477.4315	-0.0034
477.632	-0.0029
477.8326	-0.0037
478.0331	0.0019
478.2336	0.0022
478.4341	-0.0063
478.6346	-0.0142
478.8351	-0.0025
479.0355	0.0084
479.236	-0.0059
479.4364	0.0068
479.6368	0.0047
479.8372	-0.005
480.0376	-0.0168
480.2379	-0.0135
480.4383	-0.0106
480.6386	0.0064
480.8389	0.0001
481.0392	-0.0146
481.2395	-0.0207
481.4398	0.0029
481.6401	0.0039
481.8403	-0.007
482.0405	0.0019
482.2408	-0.0094
482.441	-0.0074
482.6411	-0.0127
482.8413	-0.0024
483.0415	-0.0063
483.2416	-0.0059
483.4417	-0.0105
483.6419	-0.0063
483.8419	-0.013
484.042	0.0118
484.2421	0.003
484.4422	0.0006
484.6422	-0.0037
484.8422	-0.0078
485.0422	-0.0077
485.2422	-0.0048
485.4422	-0.0063
485.6422	-0.0118
485.8421	-0.0096
486.042	-0.0049
486.242	-0.0088
486.4419	-0.0059
486.6417	-0.0048
486.8416	-0.0002
487.0415	-0.004
487.2413	-0.0147
487.4411	-0.0031
487.641	-0.0121
487.8408	0.0147
488.0405	-0.0103
488.2403	-0.0019
488.4401	0.0035
488.6398	-0.003
488.8395	-0.0009
489.0392	0.0017
489.2389	-0.0092
489.4386	-0.0018
489.6383	-0.0014
489.8379	0.0086
490.0376	-0.0079
490.2372	-0.0095
490.4368	-0.0036
490.6364	-0.0128
490.836	-0.0116
491.0355	-0.002
491.2351	-0.0072
491.4346	-0.007
491.6341	-0.0069
491.8336	0.0017
492.0331	-0.0172
492.2326	-0.0073
492.432	0.0116
492.6315	-0.0078
492.8309	-0.0121
493.0303	-0.011
493.2297	-0.0105
493.4291	0.0057
493.6284	0.0023
493.8278	-0.0059
494.0271	0.0014
494.2264	0.0119
494.4257	-0.0075
494.625	-0.0064
494.8243	-0.0191
495.0236	-0.015
495.2228	-0.0122
495.422	0.0009
495.6213	-0.0059
495.8205	-0.0008
496.0196	-0.0045
496.2188	-0.0031
496.418	-0.0035
496.6171	-0.008
496.8162	-0.007
497.0153	-0.0031
497.2144	-0.0123
497.4135	-0.001
497.6126	-0.0127
497.8116	-0.0143
498.0107	0.0026
498.2097	-0.02
498.4087	0.0008
498.6077	0.0017
498.8067	-0.008
499.0056	0.0022
499.2046	-0.0063
499.4035	-0.0242
499.6024	-0.0047
499.8013	-0.0012
500.0002	-0.009
500.199	-0.0047
500.3979	-0.0041
500.5967	-0.0195
500.7956	-0.0029
500.9944	-0.0142
501.1932	-0.0088
501.3919	-0.006
501.5907	-0.012
501.7895	-0.0111
501.9882	-0.0158
502.1869	0.0004
502.3856	-0.0043
502.5843	-0.0161
502.783	-0.0039
502.9816	-0.0072
503.1803	-0.0152
503.3789	-0.0098
503.5775	-0.0036
503.7761	-0.0134
503.9747	0.0005
504.1732	-0.0064
504.3718	-0.002
504.5703	-0.0053
504.7689	-0.0077
504.9674	0.0016
505.1658	-0.012
505.3643	-0.012
505.5628	-0.0041
505.7612	-0.013
505.9597	0.0021
506.1581	-0.0075
506.3565	0.0085
506.5549	-0.0081
506.7532	-0.0174
506.9516	-0.0105
507.1499	-0.0036
507.3482	-0.0132
507.5465	-0.0013
507.7448	-0.0021
507.9431	-0.0139
508.1414	-0.0015
508.3396	-0.0025
508.5379	-0.006
508.7361	-0.0139
508.9343	0.0008
509.1325	-0.0057
509.3306	-0.0103
509.5288	-0.0076
509.7269	-0
509.9251	-0.0066
510.1232	0.0021
510.3213	-0.0051
510.5193	0.0014
510.7174	-0.0078
510.9154	-0.0137
511.1135	-0.0066
511.3115	-0.0029
511.5095	-0.0077
511.7075	-0.0045
511.9055	0.0004
512.1034	-0.0103
512.3014	-0.0073
512.4993	0.0062
512.6972	-0.0113
512.8951	-0.0092
513.093	0.0043
513.2908	-0.004
513.4887	-0.0055
513.6865	-0.0031
513.8844	-0.013
514.0822	-0.0168
514.2799	-0.0119
514.4777	-0.0121
514.6755	0.0025
514.8732	-0.0099
515.0709	0.0013
515.2687	-0.0025
515.4664	-0.0029
515.664	0.0059
515.8617	-0.0183
516.0594	-0.0121
516.257	-0.0013
516.4546	-0.0164
516.6522	0.0035
516.8498	-0.0059
517.0474	0.0017
517.2449	-0.0049
517.4425	-0.0109
517.64	-0.0083
517.8375	-0.0038
518.035	-0.0063
518.2325	-0.0085
518.43	-0.0148
518.6274	-0.0064
518.8249	-0.0165
519.0223	-0.0023
519.2197	-0.0033
519.4171	-0.0136
519.6145	-0.0057
519.8118	-0.0054
520.0092	-0.0032
520.2065	-0.0015
520.4038	-0.0177
520.6011	-0.0039
520.7984	-0.0245
520.9956	-0.005
521.1929	-0.0075
521.3901	-0.0059
521.5874	-0.0175
521.7846	0.0015
521.9818	-0.0054
522.1789	-0.0157
522.3761	-0.0091
522.5732	-0.0034
522.7704	-0.0048
522.9675	-0.0082
523.1646	-0.0136
523.3617	-0.0106
523.5587	0.0032
523.7558	-0.0105
523.9528	-0.005
524.1498	-0.0041
524.3468	0.0024
524.5438	-0.0046
524.7408	-0.0028
524.9378	0.0057
525.1347	-0.0092
525.3316	0.0002
525.5285	-0.0107
525.7254	0.0014
525.9223	0.0003
526.1192	-0.0049
526.316	-0.0145
526.5129	-0.0001
526.7097	-0.0135
526.9065	-0.0062
527.1033	-0.0082
527.3	-0.0066
527.4968	-0.003
527.6935	-0.0006
527.8903	-0.0109
528.087	-0.0032
528.2837	-0.0085
528.4804	-0.0006
528.677	-0.0117
528.8737	0.0057
529.0703	0.0043
529.2669	-0.0101
529.4635	-0.0071
529.6601	-0.0002
529.8567	0.0024
530.0532	-0.0088
530.2498	0.0043
530.4463	-0.0039
530.6428	-0.0103
530.8393	0.0067
531.0358	0.0041
531.2322	-0.0108
531.4287	-0.0218
531.6251	-0.0132
531.8215	-0.005
532.0179	-0.0004
532.2143	-0.0018
532.4107	-0.0043
532.607	-0.0024
532.8034	0.0004
532.9997	-0.003
533.196	-0.0091
533.3923	-0.0178
533.5886	0.0008
533.7848	0.0043
533.9811	-0.001
534.1773	-0.0021
534.3735	0.0047
534.5697	0.003
534.7659	0.0007
534.9621	0.0062
535.1582	-0.0166
535.3544	-0.0099
535.5505	-0.0091
535.7466	0.0039
535.9427	-0.0068
536.1387	-0.0082
536.3348	-0.0143
536.5308	-0.0003
536.7269	-0.0195
536.9229	0.0131
537.1189	-0.0117
537.3148	-0.0004
537.5108	-0.0039
537.7068	-0.0004
537.9027	-0.0003
538.0986	-0.0053
538.2945	-0.0063
538.4904	0.0012
538.6863	-0.0033
538.8821	-0.0081
539.078	-0.0064
539.2738	0.0005
539.4696	-0.0079
539.6654	0.0084
539.8611	0.009
540.0569	-0.0046
540.2526	-0.0037
540.4484	0.0023
540.6441	0.0062
540.8398	-0.0045
541.0355	0.0006
541.2311	0.0019
541.4268	-0.005
541.6224	0.0072
541.818	0.0013
542.0136	-0.0093
542.2092	0.0015
542.4048	0.0009
542.6003	0.0023
542.7959	0.0006
542.9914	-0.0061
543.1869	-0.0015
543.3824	0.0004
543.5779	0.0004
543.7734	-0.0027
543.9688	-0.0061
544.1642	0.0036
544.3596	-0.0061
544.555	0.0065
544.7504	-0.0021
544.9458	-0.0048
545.1411	-0.0096
545.3365	-0.0056
545.5318	-0.0004
545.7271	-0.0003
545.9224	0.0042
546.1177	0.0028
546.3129	0.0013
546.5081	-0.0033
546.7034	0.0017
546.8986	-0.0073
547.0938	-0.0038
547.289	-0.0095
547.4841	-0.0023
547.6793	0.0054
547.8744	-0.0148
548.0695	-0.0027
548.2646	-0.0056
548.4597	0.0055
548.6548	-0.0041
548.8498	0.0019
549.0448	0.0042
549.2399	0.0043
549.4349	-0.0022
549.6298	-0.0003
549.8248	-0.0021
550.0198	-0.005
550.2147	-0.006
550.4096	-0.0109
550.6045	-0.0092
550.7994	0.0088
550.9943	0.0029
551.1892	0.0016
551.384	0.0043
551.5788	-0.0057
551.7737	-0.0025
551.9685	-0.0049
552.1632	0.0052
552.358	-0.0081
552.5528	0.0033
552.7475	-0.0051
552.9422	-0.0054
553.1369	-0.0055
553.3316	-0.0002
553.5263	-0.003
553.7209	0.0078
553.9156	-0.0046
554.1102	-0.0084
554.3048	-0.0005
554.4994	0.0089
554.694	-0.0041
554.8885	0.0015
555.0831	-0.0048
555.2776	-0.0069
555.4721	-0.0032
555.6666	0.0012
555.8611	0.0048
556.0555	-0.0051
556.25	-0.0092
556.4444	-0.0084
556.6388	0.0008
556.8332	-0.0085
557.0276	-0.007
557.222	-0.0061
557.4163	-0.0002
557.6107	-0.0119
557.805	0.0127
557.9993	-0.014
558.1936	0.0071
558.3879	-0.0036
558.5821	-0.0054
558.7764	-0.0017
558.9706	0.0041
559.1648	0.001
559.359	-0.0078
559.5532	-0.0041
559.7473	-0.0033
559.9415	-0.0026
560.1356	-0.0006
560.3297	-0.0109
560.5238	-0.0055
560.7179	-0.0033
560.9119	-0.0019
561.106	0.0003
561.3	-0.0138
561.494	-0.0016
561.688	-0.0092
561.882	-0.0088
562.076	-0.0056
562.2699	0.0034
562.4639	-0.0096
562.6578	-0.0031
562.8517	0.0039
563.0456	0.0036
563.2395	-0.001
563.4333	-0.0043
563.6272	0.0092
563.821	-0.0025
564.0148	0.0066
564.2086	-0.0045
564.4024	-0.0039
564.5961	0
564.7899	0.0061
564.9836	0.006
565.1773	-0.0028
565.371	0.0095
565.5647	0.0031
565.7584	0.0064
565.952	0.0064
566.1456	-0.0046
566.3393	0.0034
566.5329	-0.0043
566.7264	0.001
566.92	-0.0058
567.1136	0.0112
567.3071	-0.0052
567.5006	0.0109
567.6941	0.0075
567.8876	-0.008
568.0811	-0.0114
568.2745	-0.0038
568.468	0.0034
568.6614	0.0055
568.8548	0.0021
569.0482	-0.0013
569.2416	0.0004
569.4349	0.0044
569.6283	0.0031
569.8216	0.0047
570.0149	0.0003
570.2082	0.0054
570.4015	0.007
570.5947	0.003
570.788	0.0088
570.9812	-0.0006
571.1744	0.0014
571.3676	-0.0044
571.5608	-0.0104
571.754	0.0012
571.9471	-0.0027
572.1402	0.0013
572.3333	-0.0008
572.5264	0.0009
572.7195	-0.003
572.9126	-0.0005
573.1057	0.0003
573.2987	-0.001
573.4917	0.0019
573.6847	-0.0054
573.8777	0.0073
574.0707	0.0021
574.2636	0.0031
574.4566	0.0005
574.6495	0.0052
574.8424	-0.0042
575.0353	0.0063
575.2281	0.0081
575.421	0.0067
575.6138	0.007
575.8067	0.0034
575.9995	0.0035
576.1923	0.0055
576.385	-0.0015
576.5778	-0.0045
576.7706	0.0052
576.9633	0.0042
577.156	0.0018
577.3487	0.0007
577.5414	0.0015
577.734	-0.0038
577.9267	0.0081
578.1193	-0.0158
578.3119	-0.0035
578.5045	-0.0041
578.6971	0.0018
578.8897	0.0087
579.0822	0.0037
579.2747	0.0038
579.4673	0.0048
579.6598	0.0013
579.8522	-0.0024
580.0447	-0.0038
580.2372	-0.0046
580.4296	0.0038
580.622	0.0032
580.8144	-0.0041
581.0068	0.0034
581.1992	-0.0119
581.3915	-0.0004
581.5839	-0.0026
581.7762	-0.0079
581.9685	-0.0001
582.1608	0.0047
582.353	0.0042
582.5453	-0.0034
582.7375	0.0035
582.9298	0.0032
583.122	-0.0028
583.3142	0.0034
583.5063	0.0031
583.6985	0.0039
583.8906	0.0018
584.0827	0.0016
584.2749	0.0045
584.4669	-0.0017
584.659	-0.0002
584.8511	-0.0022
585.0431	-0.004
585.2352	0.0038
585.4272	-0.0041
585.6192	0.003
585.8111	0.003
586.0031	0.0015
586.195	-0.0023
586.387	0.0074
586.5789	0.0008
586.7708	0.0036
586.9627	0.0021
587.1545	0.0024
587.3464	0.0066
587.5382	0.0015
587.73	-0.0003
587.9218	0.0064
588.1136	-0.0059
588.3053	0.0081
588.4971	-0.0027
588.6888	-0.0124
588.8805	0.0015
589.0722	-0.0033
589.2639	0.0031
589.4556	0.0033
589.6472	0.0033
589.8389	-0.0056
590.0305	-0.0128
590.2221	0.0021
590.4137	-0.007
590.6052	0.0049
590.7968	0.0041
590.9883	0.0029
591.1798	0.0021
591.3713	-0.0058
591.5628	0.0054
591.7543	0.0018
591.9458	-0.0013
592.1372	0.0051
592.3286	0.0013
592.52	0.0044
592.7114	0.003
592.9028	-0.0038
593.0941	0.0012
593.2855	0.0065
593.4768	-0.003
593.6681	-0.003
593.8594	-0.0057
594.0506	0.004
594.2419	0.0098
594.4331	-0.0008
594.6244	0.0013
594.8156	-0.0066
595.0067	0.0059
595.1979	-0.0007
595.3891	0.006
595.5802	-0.0027
595.7713	-0.0078
595.9624	-0.0094
596.1535	0.0011
596.3446	-0.0006
596.5357	-0.0007
596.7267	0.0097
596.9177	-0.0004
597.1087	-0.0018
597.2997	-0.0058
597.4907	0.0067
597.6817	-0.0065
597.8726	-0.0056
598.0635	0.0005
598.2544	-0.0012
598.4453	-0.0002
598.6362	0.0003
598.827	-0.0089
599.0179	0.0053
599.2087	0.0007
599.3995	-0.0006
599.5903	0.0036
599.7811	0.0007
599.9718	0.0006
600.1626	0.0005
600.3533	-0.0076
600.544	0.0021
600.7347	-0.0046
600.9254	0.0064
601.116	-0.0072
601.3067	-0.003
601.4973	-0.0122
601.6879	0.0073
601.8785	0.002
602.0691	0.0021
602.2596	-0.0008
602.4502	0.002
602.6407	0.0084
602.8312	0.0024
603.0217	-0.0059
603.2122	-0.0046
603.4027	0.004
603.5931	-0.0033
603.7835	-0.0055
603.9739	0.0005
604.1643	-0.001
604.3547	0.0031
604.5451	0.0016
604.7354	-0.0085
604.9257	0.006
605.116	0.0018
605.3063	0.0035
605.4966	0.0048
605.6869	0.0035
605.8771	0.0101
606.0673	0.0106
606.2575	0.0104
606.4477	0.0111
606.6379	0.0071
606.8281	0.0049
607.0182	0.0003
607.2083	0.013
607.3985	-0.0019
607.5885	0.0034
607.7786	0.003
607.9687	-0.0045
608.1587	0.0061
608.3488	0.0024
608.5388	0.0084
608.7288	0.0007
608.9187	-0.0022
609.1087	-0.0037
609.2986	-0.005
609.4886	0.0008
609.6785	0.0017
609.8684	0.0065
610.0582	-0.0028
610.2481	0.0011
610.4379	-0.0016
610.6278	0.0017
610.8176	0.0046
611.0074	-0.0098
611.1971	-0.0009
611.3869	0.0026
611.5766	0.0002
611.7664	0.0042
611.9561	0.0042
612.1458	0.004
612.3354	-0.0037
612.5251	-0.0011
612.7147	0.0031
612.9044	0.0036
613.094	-0.0036
613.2836	0.0044
613.4731	0.0022
613.6627	0.0044
613.8522	-0.0014
614.0417	0.0057
614.2313	-0.003
614.4207	-0.0078
614.6102	0.0022
614.7997	-0.0019
614.9891	-0.0055
615.1785	0.0057
615.3679	-0.005
615.5573	0.0102
615.7467	-0.0086
615.9361	0.0018
616.1254	0.0023
616.3147	-0.0002
616.504	0.0045
616.6933	0.0088
616.8826	0.0018
617.0718	-0.0023
617.2611	0.0114
617.4503	-0.0036
617.6395	0.0001
617.8287	-0.0102
618.0179	-0.0034
618.207	0.0126
618.3961	-0.0028
618.5853	0.0004
618.7744	0.0044
618.9634	0.0016
619.1525	0.0017
619.3416	0.0075
619.5306	0.004
619.7196	0.0029
619.9086	-0.0025
620.0976	0.0028
620.2866	-0.0041
620.4755	0.0038
620.6645	0.0067
620.8534	0.0114
621.0423	-0.0001
621.2312	0.0086
621.42	0.0002
621.6089	0.0051
621.7977	0.0046
621.9865	-0.0037
622.1753	0.0027
622.3641	0.0052
622.5529	0.0129
622.7416	0.0155
622.9303	0.0024
623.1191	0.0048
623.3078	-0.0066
623.4964	-0.0008
623.6851	-0.0033
623.8737	-0.0045
624.0624	0.0104
624.251	-0.0071
624.4396	-0.0006
624.6282	0.0001
624.8167	-0.0016
625.0053	0.0036
625.1938	0.0031
625.3823	-0.0017
625.5708	0.0016
625.7593	-0.0049
625.9477	-0.0016
626.1362	0.0009
626.3246	-0.0024
626.513	0.0049
626.7014	0.0068
626.8898	0.0003
627.0781	0.0021
627.2665	-0.0057
627.4548	0.0056
627.6431	0.0008
627.8314	-0.0029
628.0197	0.0008
628.2079	0.0008
628.3962	-0.0024
628.5844	0.0088
628.7726	0.0047
628.9608	0.006
629.1489	-0.0007
629.3371	0.0011
629.5252	-0.0081
629.7134	0.0101
629.9015	0.0044
630.0895	0.0023
630.2776	0.0034
630.4657	-0.0009
630.6537	0.0031
630.8417	-0.001
631.0297	-0.0077
631.2177	0.0027
631.4057	-0.0028
631.5936	-0.0027
631.7815	0.0029
631.9695	0.0003
632.1574	0.006
632.3452	0.0186
632.5331	0.0055
632.7209	0.0008
632.9088	0.0098
633.0966	0.0164
633.2844	-0.0044
633.4722	0.0064
633.6599	0.0056
633.8477	0.0019
634.0354	0.0042
634.2231	0.0015
634.4108	0.0015
634.5985	0.0054
634.7861	0
634.9738	0.0036
635.1614	0.0112
635.349	0.0128
635.5366	0.0044
635.7242	0.0043
635.9117	0.0098
636.0993	0.0022
636.2868	0.0044
636.4743	0.0039
636.6618	0.0122
636.8492	0.001
637.0367	0.0004
637.2241	-0.0015
637.4115	-0.0024
637.5989	-0.0043
637.7863	0.0045
637.9737	-0.0061
638.161	0.003
638.3484	0.0004
638.5357	0.01
638.723	0.0013
638.9103	-0.0015
639.0975	0.0087
639.2848	0.0016
639.472	-0.0032
639.6592	0.004
639.8464	0.0071
640.0336	0.0043
640.2208	-0.0016
640.4079	0.0039
640.595	0.0031
640.7821	-0.0023
640.9692	-0.0056
641.1563	-0.0021
641.3434	0.0053
641.5304	0.0024
641.7174	-0.0002
641.9044	0.0063
642.0914	0.0042
642.2784	0.0018
642.4653	0.0069
642.6523	-0.0015
642.8392	0.0025
643.0261	0.0044
643.213	0.0024
643.3999	-0.0009
643.5867	-0.0029
643.7735	0.0051
643.9604	-0.0029
644.1472	0.0004
644.3339	-0.0021
644.5207	0.0116
644.7075	0.0072
644.8942	0.0097
645.0809	0.0127
645.2676	0.0134
645.4543	-0.0016
645.6409	0.0059
645.8276	0.008
646.0142	0.0052
646.2008	-0.0025
646.3874	0.0027
646.574	0.0012
646.7605	-0.0052
646.9471	-0.0105
647.1336	-0.0015
647.3201	-0.004
647.5066	0.0014
647.6931	0.0054
647.8795	0.0079
648.0659	0.0019
648.2524	0.0123
648.4388	-0.0057
648.6252	0.0037
648.8115	0.0053
648.9979	0.0051
649.1842	0.0036
649.3705	0.012
649.5568	0.0049
649.7431	0.0073
649.9294	-0.0013
650.1156	0.0041
650.3018	0.0037
650.488	0.0052
650.6742	0.0024
650.8604	0.0039
651.0466	-0.0012
651.2327	0.0004
651.4188	0.0018
651.6049	-0.0053
651.791	-0.0039
651.9771	0.0039
652.1632	0.0033
652.3492	0.0096
652.5352	0.0043
652.7212	-0.002
652.9072	0.0047
653.0932	-0.0017
653.2791	-0.0016
653.465	0.0043
653.651	-0.0055
653.8369	0.0032
654.0227	0.0086
654.2086	0.0052
654.3944	0.0068
654.5803	0.0024
654.7661	-0.0029
654.9519	0.0066
655.1377	-0.0048
655.3234	0.0032
655.5092	-0.0043
655.6949	-0.0036
655.8806	-0.0024
656.0663	-0.0011
656.2519	-0.0009
656.4376	-0.001
656.6232	0.0058
656.8088	0.004
656.9945	0.0074
657.18	0.0036
657.3656	-0.0017
657.5511	-0.0027
657.7367	-0.0014
657.9222	0.001
658.1077	0.0009
658.2932	0.001
658.4786	-0.0104
658.6641	-0.0013
658.8495	-0.0022
659.0349	-0.0055
659.2203	0.008
659.4057	-0.0034
659.591	0.0042
659.7764	-0.005
659.9617	0.0044
660.147	0.0029
660.3323	-0.0033
660.5176	0.0095
660.7028	0.0036
660.888	0.0062
661.0733	0.0014
661.2585	-0.0065
661.4436	0.0081
661.6288	-0.0001
661.8139	-0.0031
661.9991	0.0011
662.1842	-0.0024
662.3693	0.0021
662.5544	-0.0053
662.7394	0.0038
662.9245	-0.007
663.1095	-0.0083
663.2945	0.0038
663.4795	-0.0041
663.6644	0.0014
663.8494	0.0054
664.0343	-0.0004
664.2193	-0.0044
664.4042	0.0051
664.589	-0.0054
664.7739	-0.0005
664.9587	-0.0069
665.1436	0.0006
665.3284	-0.0007
665.5132	-0.0023
665.698	-0.0042
665.8827	0.0052
666.0675	-0.004
666.2522	-0.0079
666.4369	0.0062
666.6216	0.0072
666.8063	0.0057
666.9909	-0.0008
667.1756	-0.0097
667.3602	-0.0031
667.5448	-0.0007
667.7294	0.006
667.9139	0.0057
668.0985	0.0179
668.283	-0.0023
668.4675	-0.0011
668.652	0.0072
668.8365	0.0082
669.0209	0.0066
669.2054	0.0074
669.3898	0.004
669.5742	0.0022
669.7586	0.0094
669.943	0.0072
670.1273	0.0091
670.3117	0.0035
670.496	0.0128
670.6803	-0.0007
670.8646	-0.0048
671.0488	-0.0001
671.2331	0.0044
671.4173	0.0049
671.6015	-0.002
671.7857	0.002
671.9699	0.0027
672.1541	0.0114
672.3382	0.015
672.5223	0.0059
672.7064	0.0106
672.8905	0.008
673.0746	0.0079
673.2587	-0.0012
673.4427	0.0032
673.6267	0.0096
673.8107	0.0055
673.9947	0.0048
674.1787	0.0015
674.3626	-0.0059
674.5465	0.0086
674.7304	0.0077
674.9143	0.0046
675.0982	0.0116
675.2821	-0.0043
675.4659	0.008
675.6497	-0.0016
675.8335	-0.0021
676.0173	-0.0004
676.2011	0.0016
676.3849	-0.0033
676.5686	-0.0092
676.7523	-0.0015
676.936	-0.0017
677.1197	-0.0013
677.3034	-0.0001
677.487	-0.0002
677.6706	0.0089
677.8542	0.0002
678.0378	0.0011
678.2214	-0.0017
678.405	-0.0008
678.5885	-0.0071
678.772	0.0024
678.9555	-0.0039
679.139	-0.0009
679.3225	-0.0008
679.5059	-0.0028
679.6894	0.002
679.8728	0.0004
680.0562	-0.0042
680.2395	-0.0058
680.4229	-0.0018
680.6062	0.0026
680.7896	0.0021
680.9729	-0.0051
681.1562	0.0082
681.3394	0.0081
681.5227	0.005
681.7059	-0.005
681.8891	0.0031
682.0723	0.0117
682.2555	0.0085
682.4387	0.0027
682.6218	0.0022
682.805	0.0131
682.9881	0.0071
683.1712	0.0104
683.3542	-0.0043
683.5373	0.0036
683.7203	-0.0017
683.9034	-0.0021
684.0864	-0.0074
684.2694	-0.0049
684.4523	0.0031
684.6353	-0.0031
684.8182	-0.0061
685.0011	-0.0079
685.184	-0.0054
685.3669	-0.005
685.5498	-0.004
685.7326	0.0008
685.9154	-0.005
686.0982	0.0092
686.281	0.0084
686.4638	0.0016
686.6465	-0.0004
686.8293	-0.0112
687.012	0.002
687.1947	-0.0045
687.3774	-0.0041
687.56	-0.0077
687.7427	0.007
687.9253	-0.0098
688.1079	-0.0057
688.2905	0.0118
688.4731	-0.0011
688.6556	-0.0004
688.8382	-0.0016
689.0207	-0.0024
689.2032	-0.0098
689.3857	-0.008
689.5681	0.0018
689.7506	-0.0067
689.933	-0.0029
690.1154	0.0043
690.2978	-0.004
690.4802	0.0047
690.6626	-0.0067
690.8449	-0.0064
691.0272	0.0093
691.2095	-0.0083
691.3918	0.0001
691.5741	0.0033
691.7563	-0.0044
691.9386	-0.0021
692.1208	0.0056
692.303	0.0038
692.4852	0.0001
692.6673	-0.0009
692.8495	0.0011
693.0316	0.0032
693.2137	0.0022
693.3958	0.0042
693.5778	0.0001
693.7599	-0.0005
693.9419	-0.0018
694.1239	-0.0016
694.3059	-0.0074
694.4879	-0.0012
694.6699	0.0036
694.8518	0.0031
695.0337	-0.001
695.2157	0.013
695.3975	0.0017
695.5794	0.0139
695.7613	0.0048
695.9431	-0
696.1249	0.0102
696.3067	0.0173
696.4885	0.014
696.6703	-0.0078
696.852	0.0054
697.0337	0.0044
697.2154	0.0045
697.3971	0.0038
697.5788	0.006
697.7605	-0
697.9421	0.009
698.1237	0
698.3053	0.0048
698.4869	0.0021
698.6685	-0.0041
698.85	0.0022
699.0315	0.0165
699.213	0.0008
699.3945	-0.0033
699.576	0.0167
699.7575	-0.0007
699.9389	0.0069
700.1203	0.0006
700.3017	-0.0077
700.4831	-0.0042
700.6645	-0.0075
700.8458	-0
701.0271	-0.0033
701.2084	0.0026
701.3897	-0.0009
701.571	0.0003
701.7523	-0.0064
701.9335	0.0014
702.1147	0.0012
702.2959	-0.0067
702.4771	0.0046
702.6583	0.004
702.8394	0.0001
703.0205	-0.0012
703.2016	-0.0078
703.3827	-0.0055
703.5638	0.0074
703.7449	-0.0023
703.9259	0.0072
704.1069	-0.0008
704.2879	0.0058
704.4689	0.0057
704.6499	0.0039
704.8308	0.0063
705.0117	-0.0002
705.1927	0.0043
705.3735	-0.0047
705.5544	-0.0036
705.7353	-0.0001
705.9161	-0.0068
706.0969	0.0053
706.2777	-0.0057
706.4585	-0.0065
706.6393	0.0001
706.82	-0.0015
707.0007	0.0002
707.1815	0.0092
707.3621	0.0081
707.5428	-0.0021
707.7235	0.0072
707.9041	-0.0003
708.0847	-0.0136
708.2653	-0.0091
708.4459	-0.0057
708.6265	0.0055
708.807	-0.0022
708.9875	-0.0102
709.168	-0.0065
709.3485	-0.0047
709.529	-0.002
709.7095	-0.0071
709.8899	0.0014
710.0703	-0.0174
710.2507	-0.0005
710.4311	-0.0037
710.6115	-0.0133
710.7918	-0.013
710.9721	-0.0073
711.1524	-0.0065
711.3327	0.0022
711.513	0.0009
711.6932	0.0112
711.8735	0.0041
712.0537	0.0125
712.2339	0.0078
712.4141	0.0046
712.5942	-0.0036
712.7744	-0.0057
712.9545	-0.0108
713.1346	-0.0019
713.3147	-0.0048
713.4947	0.0032
713.6748	-0.002
713.8548	0.0013
714.0348	0.002
714.2148	-0.0053
714.3948	0.0055
714.5748	-0.0023
714.7547	-0.0001
714.9346	0.0032
715.1145	-0.008
715.2944	-0.0032
715.4743	0.0006
715.6541	0.0021
715.834	0.0037
716.0138	-0.0002
716.1936	-0.0026
716.3733	0.0007
716.5531	0.0102
716.7328	-0.0027
716.9126	-0.006
717.0923	0.0071
717.2719	0.0148
717.4516	0.0085
717.6312	0.0029
717.8109	0.0003
717.9905	0.0112
718.1701	0.0031
718.3496	-0.0022
718.5292	-0.0023
718.7087	0.001
718.8882	0.0008
719.0677	0.0087
719.2472	0.0058
719.4267	0.0042
719.6061	0.0025
719.7856	0.0065
719.965	-0.0007
720.1443	0.0047
720.3237	0.0178
720.5031	-0.0018
720.6824	0.0066
720.8617	-0.0016
721.041	0.0021
721.2203	0.0085
721.3995	0.0064
721.5788	0.0054
721.758	0.0065
721.9372	-0.0046
722.1164	0.007
722.2956	-0.0006
722.4747	0.0057
722.6538	-0.0007
722.8329	0.0077
723.012	0.0012
723.1911	-0.0069
723.3702	-0.0004
723.5492	-0.0015
723.7282	0.0027
723.9072	-0.0051
724.0862	-0.0007
724.2652	-0.0049
724.4441	0.0024
724.623	0.002
724.8019	-0.0019
724.9808	0.0002
725.1597	-0.0117
725.3385	0.0041
725.5174	-0.0022
725.6962	0.0066
725.875	-0.001
726.0538	0.0017
726.2325	-0.0097
726.4112	0.0009
726.59	-0.0021
726.7687	-0.0033
726.9474	0.0088
727.126	0.0035
727.3047	-0.0098
727.4833	0.0031
727.6619	-0.0023
727.8405	-0.0081
728.0191	-0.0076
728.1976	-0.0011
728.3762	0.0006
728.5547	-0.0029
728.7332	-0.0221
728.9116	-0.0077
729.0901	0.0033
729.2686	-0.0052
729.447	0.0038
729.6254	0.0071
729.8038	0.0036
729.9821	-0.0077
730.1605	0.0028
730.3388	-0.0032
730.5171	0.0011
730.6954	-0.0078
730.8737	-0.0065
731.0519	0.003
731.2302	-0.0041
731.4084	0.0077
731.5866	0.0068
731.7648	0.0007
731.9429	-0.0042
732.1211	-0.0119
732.2992	-0.0006
732.4773	-0.0108
732.6554	-0.0085
732.8335	0.0036
733.0115	0.0031
733.1896	0.01
733.3676	-0.0084
733.5456	0.008
733.7235	0.0125
733.9015	0.0033
734.0794	-0.0046
734.2574	-0.0041
734.4353	-0.0031
734.6131	0.0063
734.791	-0.0016
734.9689	-0.0051
735.1467	0.0054
735.3245	-0.0091
735.5023	-0.0064
735.68	0.0021
735.8578	0.0028
736.0355	-0.0147
736.2132	-0.0113
736.3909	-0.003
736.5686	-0.0075
736.7463	0.0007
736.9239	-0.003
737.1015	-0.0047
737.2791	0.0123
737.4567	0.0052
737.6343	-0.0058
737.8118	0.0021
737.9894	0.0066
738.1669	-0.0074
738.3444	-0.0008
738.5218	0.003
738.6993	-0.0057
738.8767	0.0007
739.0541	0.0111
739.2315	-0.0079
739.4089	0.0036
739.5863	0.0046
739.7636	-0.0087
739.9409	-0.0008
740.1182	0.0015
740.2955	0.001
740.4728	0.0018
740.65	-0.0003
740.8272	0.0018
741.0044	-0.0013
741.1816	0.0007
741.3588	-0.0015
741.5359	0.0026
741.7131	-0.0122
741.8902	-0.0029
742.0673	0.0001
742.2444	-0.0033
742.4214	-0.0057
742.5985	-0.0064
742.7755	-0.0007
742.9525	-0.0067
743.1295	-0.0019
743.3064	0.003
743.4834	0.0045
743.6603	-0.0097
743.8372	-0.0044
744.0141	0.0083
744.191	0.0039
744.3678	-0.0064
744.5446	-0.0047
744.7215	0.0111
744.8982	-0.0038
745.075	-0.0106
745.2518	-0.0005
745.4285	-0.008
745.6052	-0.0083
745.7819	-0.0099
745.9586	-0.0107
746.1353	-0.0058
746.3119	-0.0129
746.4885	-0.0171
746.6651	-0.012
746.8417	-0.0055
747.0183	-0.0082
747.1948	-0.01
747.3714	-0.0088
747.5479	0.0006
747.7244	-0.0167
747.9008	0.0029
748.0773	-0.0091
748.2537	-0.0019
748.4301	-0.0159
748.6065	0
748.7829	-0.0042
748.9593	-0.0119
749.1356	-0.0102
749.3119	0.0132
749.4882	-0.0181
749.6645	-0.0018
749.8408	-0.0088
750.017	-0.0049
750.1933	-0.0016
750.3695	-0.0059
750.5457	0.0064
750.7218	0.0035
750.898	0.0022
751.0741	-0.0005
751.2502	-0.0022
751.4263	0.0002
751.6024	-0.0008
751.7784	-0.0098
751.9545	-0.0049
752.1305	0.0012
752.3065	-0.0063
752.4825	0.0033
752.6584	-0.0068
752.8344	-0.0134
753.0103	-0.0091
753.1862	-0.0074
753.3621	-0.0061
753.5379	-0.007
753.7138	-0.0005
753.8896	0.0004
754.0654	-0.0007
754.2412	-0.0003
754.417	-0.0027
754.5927	-0.0034
754.7685	-0.0031
754.9442	-0.0003
755.1199	0.0141
755.2956	-0.0034
755.4712	0.0023
755.6469	0.0041
755.8225	0.0005
755.9981	0.0034
756.1736	0.0036
756.3492	0.0078
756.5248	0.0004
756.7003	0.0008
756.8758	0.0123
757.0513	0.0001
757.2267	-0.0043
757.4022	0.0026
757.5776	-0.0062
757.753	0.0052
757.9284	-0.0034
758.1038	0.01
758.2791	0.0016
758.4545	-0.0099
758.6298	0.0008
758.8051	-0.0004
758.9803	-0.0051
759.1556	-0.0059
759.3308	-0.0116
759.506	-0.0014
759.6812	-0.0011
759.8564	0.0055
760.0316	-0.0042
760.2067	-0.0011
760.3819	0.0051
760.557	0.0199
760.732	0.0013
760.9071	-0.0105
761.0821	0.0019
761.2572	0.0097
761.4322	-0.0034
761.6072	0.0068
761.7821	-0.0039
761.9571	-0.0037
762.132	-0.0098
762.3069	-0.0011
762.4818	-0.0031
762.6567	-0.0106
762.8316	-0.0012
763.0064	-0.007
763.1812	0.0075
763.356	-0.0124
763.5308	-0.003
763.7055	-0.001
763.8803	-0.0084
764.055	-0.0005
764.2297	-0.0091
764.4044	-0.0076
764.579	-0.0099
764.7537	-0.0175
764.9283	0.0057
765.1029	-0.0148
765.2775	-0.0127
765.4521	-0.0167
765.6266	-0.0161
765.8011	-0.0105
765.9756	-0.0098
766.1501	-0.01
766.3246	-0.0067
766.4991	-0.0115
766.6735	-0.0102
766.8479	-0.0059
767.0223	0.0059
767.1967	-0.0013
767.371	-0.0021
767.5454	-0.0068
767.7197	0.0029
767.894	-0.0163
768.0683	0.004
768.2425	-0.0004
768.4168	-0.0109
768.591	-0.0082
768.7652	-0.0056
768.9394	-0.0091
769.1135	-0.0042
769.2877	-0.0061
769.4618	-0.0037
769.6359	0.0054
769.81	0.0092
769.984	-0.0015
770.1581	-0.0075
770.3321	-0
770.5061	-0.0042
770.6801	0.0028
770.8541	0.009
771.028	0.0099
771.202	-0.0123
771.3759	-0.0022
771.5498	0.0028
771.7236	-0.0022
771.8975	0.0015
772.0713	-0.0002
772.2451	0.0116
772.4189	0.0078
772.5927	0.0121
772.7665	0.0118
772.9402	-0.0057
773.1139	0.0018
773.2876	-0.009
773.4613	0.0012
773.635	0.0022
773.8086	-0.016
773.9822	0.005
774.1558	0.0014
774.3294	-0.0123
774.503	-0.0006
774.6765	-0.0083
774.8501	0.0039
775.0236	0.0036
775.1971	0.0077
775.3705	-0.0097
775.544	0.0081
775.7174	-0.0056
775.8908	0.0023
776.0642	-0.0086
776.2376	0.0003
776.4109	-0.0096
776.5843	-0.0039
776.7576	0.0084
776.9309	0.0112
777.1041	0.009
777.2774	0.0036
777.4506	-0.0033
777.6238	-0.0023
777.797	-0.0029
777.9702	0.003
778.1434	-0.0084
778.3165	-0.011
778.4896	-0.0183
778.6627	-0.0046
778.8358	-0.0012
779.0089	-0.009
779.1819	-0.0071
779.3549	0.0119
779.5279	-0.0055
779.7009	-0.0168
779.8739	-0.0043
780.0468	0.0004
780.2197	0.0046
780.3926	0.0066
780.5655	0.0015
780.7384	-0.0124
780.9112	-0.0067
781.0841	-0.0115
781.2569	-0.0053
781.4297	0.0071
781.6024	0.0002
781.7752	0.0053
781.9479	0.007
782.1206	-0.0068
782.2933	-0.0166
782.466	-0.0028
782.6386	0.0023
782.8113	-0.009
782.9839	-0.0023
783.1565	0.0084
783.329	-0.0042
783.5016	0.0055
783.6741	0.0082
783.8466	-0.0112
784.0191	0.0185
784.1916	-0.0061
784.3641	-0.0042
784.5365	0.0173
784.7089	0.0047
784.8813	-0.0034
785.0537	0.0022
785.2261	-0.0084
785.3984	-0.0074
785.5707	-0.003
785.743	-0.0049
785.9153	-0.012
786.0876	0.0129
786.2598	-0.0142
786.432	-0.0151
786.6042	-0.0099
786.7764	-0.0043
786.9486	-0.004
787.1207	-0.0193
787.2928	-0.0002
787.4649	-0.0074
787.637	-0.0086
787.8091	-0.0027
787.9811	-0.0025
788.1532	0.0055
788.3252	0.0172
788.4972	-0.0046
788.6691	-0.0062
788.8411	-0.0024
789.013	-0.0076
789.1849	-0.0005
789.3568	-0.0113
789.5287	-0.0005
789.7005	-0.0026
789.8723	-0.008
790.0442	0.0039
790.2159	0.0041
790.3877	0.0048
790.5595	-0.02
790.7312	0.0039
790.9029	-0.001
791.0746	-0.0051
791.2463	0.0048
791.4179	0.003
791.5896	-0.007
791.7612	-0.0007
791.9328	0.0073
792.1044	-0.0153
792.2759	-0.0114
792.4474	-0.0094
792.619	0.0043
792.7905	-0.003
792.9619	0.0056
793.1334	0.0089
793.3048	0.0022
793.4762	-0.0013
793.6476	0.0064
793.819	-0.0035
793.9904	0.0024
794.1617	-0.0177
794.333	0.0049
794.5043	-0.0075
794.6756	0.0085
794.8469	0.0063
795.0181	0.008
795.1893	0.004
795.3605	0.0047
795.5317	-0.0194
795.7029	-0.0067
795.874	0.0058
796.0452	0.0012
796.2163	-0.0091
796.3873	0.0175
796.5584	0.006
796.7294	-0.0054
796.9005	0.0052
797.0715	0.0057
797.2425	-0.0175
797.4134	-0.0101
797.5844	-0.0004
797.7553	-0.0049
797.9262	-0.0032
798.0971	-0.0065
798.2679	-0.0167
798.4388	-0.0012
798.6096	0.0015
798.7804	-0.0016
798.9512	-0.0056
799.122	-0.0038
799.2927	-0.0114
799.4635	0.0142
799.6342	-0.0219
799.8049	-0.0286
799.9755	-0.0211
800.1462	-0.0143
800.3168	0.0143
800.4874	-0.0077
800.658	0.0344
800.8286	-0.0095
800.9991	0.0131
801.1696	0.015
801.3402	0.0075
801.5106	-0.0011
801.6811	0.0037
801.8516	0.0205
802.022	0.0055
802.1924	0.0071
802.3628	-0.0015
802.5332	-0.0055
802.7035	0.0225
802.8739	-0.0005
803.0442	-0.024
803.2145	-0.0011
803.3847	-0.0042
803.555	-0.0064
803.7252	-0.0135
803.8954	-0.0242
804.0656	-0.0207
804.2358	0.005
804.4059	0.0071
804.5761	-0.0161
804.7462	0.0041
804.9163	-0.0081
805.0864	-0.0199
805.2564	-0.005
805.4264	0.0046
805.5965	-0.0124
805.7665	0.0165
805.9364	0.0017
806.1064	0.0084
806.2763	0.0183
806.4462	0.0199
806.6161	-0.0037
806.786	0.0058
806.9559	0.0093
807.1257	-0.0012
807.2955	-0.0068
807.4653	-0.0186
807.6351	-0.0003
807.8048	-0.0012
807.9746	0.0126
808.1443	0.0148
808.314	-0.0191
808.4837	0.0042
808.6533	-0.0079
808.8229	0.0183
808.9926	0.0046
809.1622	0.0091
809.3317	-0.0079
809.5013	0.0029
809.6708	0.0041
809.8403	0.0175
810.0098	0.0045
810.1793	0.0156
810.3488	0.0052
810.5182	-0.0213
810.6876	-0.0041
810.857	-0.0184
811.0264	0.0016
811.1958	-0.0026
811.3651	0.0094
811.5344	0.0018
811.7037	-0.0125
811.873	-0.0189
812.0422	0.002
812.2115	-0.0009
812.3807	-0.0155
812.5499	0.0034
812.7191	-0.0099
812.8882	0.0369
813.0574	-0.0083
813.2265	-0.0164
813.3956	-0.0036
813.5646	-0.0078
813.7337	-0.0194
813.9027	-0.0006
814.0718	0.024
814.2407	0.0094
814.4097	-0.0097
814.5787	-0.028
814.7476	-0.0113
814.9165	0.0089
815.0854	0.0059
815.2543	-0.012
815.4232	0.0084
815.592	-0.0067
815.7608	-0.0132
815.9296	-0.0068
816.0984	-0.0088
816.2671	-0.0057
816.4359	-0.0102
816.6046	0.0087
816.7733	-0.0253
816.942	-0.0026
817.1106	-0.0084
817.2793	0.0024
817.4479	-0.0071
817.6165	-0.0041
817.785	0.0066
817.9536	-0.0302
818.1221	-0.0036
818.2906	0.0031
818.4591	-0.0177
818.6276	-0.0386
818.7961	-0.0179
818.9645	-0.0221
819.1329	-0.0177
819.3013	0.0057
819.4697	0.0191
819.638	0.0071
819.8064	0.0057
819.9747	-0.0238
820.143	-0.0118
820.3113	-0.0059
820.4795	-0.0125
820.6477	-0.0029
820.816	0.0162
820.9842	0.0112
821.1523	-0.0083
821.3205	0.0045
821.4886	0.0164
821.6567	0.0042
821.8248	0.0083
821.9929	0.0178
822.1609	0.0036
822.329	0.0204
822.497	0.0241
822.665	-0.0236
822.833	-0.0179
823.0009	0.0238
823.1688	0.0078
823.3367	0.019
823.5046	-0.0062
823.6725	0.026
823.8404	-0.0017
824.0082	0.0277
824.176	0.0094
824.3438	-0.0092
824.5116	-0.0246
824.6793	0.0136
824.847	-0.0231
825.0147	-0.0156
825.1824	0.0209
825.3501	0.0066
825.5177	-0.0111
825.6854	-0.017
825.853	0.0015
826.0206	-0.0333
826.1881	0.0112
826.3557	-0.0489
826.5232	0.0091
826.6907	-0.0318
826.8582	-0.0073
827.0257	-0.0129
827.1931	-0.0144
827.3605	0.0239
827.528	-0.0223
827.6953	-0.0209
827.8627	-0.0071
828.03	0.0321
828.1974	-0.0366
828.3647	-0.0683
828.532	-0.026
828.6992	-0.0357
828.8665	0.0013
829.0337	-0.0209
829.2009	0.0161
829.3681	-0.0002
829.5352	0.0234
829.7024	0.0025
829.8695	-0.0387
830.0366	0.0474
830.2037	-0.0007
830.3707	0.0073
830.5378	-0.0018
830.7048	0.0004
830.8718	-0.0321
831.0388	-0.0258
831.2057	-0.0154
831.3727	-0.018
831.5396	-0.024
831.7065	-0.0171
831.8734	0.0208
832.0402	-0.0323
832.2071	-0.0216
832.3739	-0.0097
832.5407	-0.0002
832.7075	-0.0304
832.8742	-0.0327
833.041	-0.0292
833.2077	-0.0032
833.3744	0.0531
833.541	-0.0038
833.7077	-0.0064
833.8743	-0.033
834.0409	-0.0045
834.2075	-0.0355
834.3741	0.0123
834.5407	-0.0027
834.7072	0.0094
834.8737	-0.0259
835.0402	0.0162
835.2067	-0.0008
835.3731	-0.0139
835.5395	0.0043
835.706	0.0299
835.8723	-0.0381
836.0387	0.0052
836.2051	-0.0232
836.3714	-0.0438
836.5377	0.0275
836.704	-0.0607
836.8703	0.0689
837.0365	-0.016
837.2027	0.0128
837.3689	-0.0146
837.5351	-0.041
837.7013	-0.0612
837.8674	-0.0606
838.0335	-0.0284
838.1997	-0.0091
838.3657	-0.0587
838.5318	-0.0188
838.6978	0.0219
838.8639	-0.0002
839.0299	-0.0452
839.1958	-0.0268
839.3618	-0.0268
839.5277	-0.03
839.6937	0.0022
839.8596	-0.0224
840.0254	-0.0052
840.1913	-0.0141
840.3571	0.0167
840.523	-0.0102
840.6888	0.0063
840.8545	-0.0154
841.0203	-0.0545
841.186	-0.0045
841.3517	0.0198
841.5174	0.0076
841.6831	-0.0441
841.8488	-0.0109
842.0144	0.0155
842.18	-0.0159
842.3456	-0.0123
842.5112	0.013
842.6767	-0.0148
842.8422	-0.014
843.0077	-0.0105
843.1732	-0.0197
843.3387	-0.0071
843.5042	-0.0762
843.6696	-0.0239
843.835	-0.0356
844.0004	-0.0061
844.1657	0.0351
844.3311	-0.0157
844.4964	-0.0911
844.6617	-0.0407
844.827	-0.0589
844.9923	0.0328
845.1575	0.0433
845.3227	0.0019
845.4879	-0.0591
845.6531	-0.1068
845.8183	-0.0697
845.9834	0.0213
846.1485	-0.0723
846.3136	-0.0518
846.4787	-0.0798
846.6438	0.033
846.8088	-0.0067
846.9738	-0.0536
847.1388	0.0095
847.3038	-0.0339
847.4687	-0.1831
847.6337	-0.0435
847.7986	0.0103
847.9635	-0.0556
848.1284	0.0953
848.2932	-0.0157
848.458	-0.0006
848.6228	0.0009
848.7876	0.0645
848.9524	-0.0493
849.1172	-0.031
849.2819	0.0151
849.4466	-0.065
849.6113	-0.04
849.7759	-0.0164
849.9406	-0.043
850.1052	0.0219
850.2698	-0.0455
850.4344	-0.0103
850.599	-0.0966
850.7635	0.0365
850.928	-0.0499
851.0925	-0.0249
851.257	-0.0041
851.4215	-0.0394
851.5859	-0.0094
851.7503	-0.0156
851.9147	0.0266
852.0791	-0.1349
852.2434	-0.0831
852.4078	0.1058
852.5721	0.033
852.7364	-0.0837
852.9007	-0.1008
853.0649	-0.0254
853.2291	-0.0131
853.3934	-0.0937
853.5575	0.0791
853.7217	-0.1122
853.8859	-0.1875
854.05	-0.11
854.2141	-0.0452
854.3782	-0.1622
854.5423	-0.0811
854.7063	0.055
854.8703	-0.0766
855.0343	-0.1349
855.1983	-0.2086
855.3623	0.035
855.5262	-0.0144
855.6901	-0.1193
855.854	-0.0248
856.0179	-0.0682
856.1818	0.075
856.3456	-0.0368
856.5094	-0.0754
856.6732	-0.0706
856.837	-0.0493
857.0008	0.0076
857.1645	0.0304
857.3282	-0.0676
857.4919	0.0459
857.6556	-0.1155
857.8192	-0.0678
857.9828	-0.0121
858.1465	-0.0561
858.31	0.1454
858.4736	-0.1295
858.6372	-0.1432
858.8007	-0.3283
858.9642	-0.0448
859.1277	-0.1188
859.2911	0.1994
859.4546	0.0225
859.618	-0.3527
859.7814	-0.0457
859.9448	-0.1312
860.1081	-0.1734
860.2715	0.0869
860.4348	-0.1492
860.5981	0.0809
860.7614	0.0698
860.9246	0.2797
861.0879	-0.2146
861.2511	-0.0896
861.4143	-0.4128
861.5774	0.0279
861.7406	-0.3087
861.9037	0.0316
862.0668	-0.1329
862.2299	-0.1099
862.393	-0.6785
862.556	-0.0066
862.7191	-0.4406
862.8821	0.102
863.0451	0.0206
863.208	-0.0739
863.371	-0.0316
863.5339	-0.1129
863.6968	0.0083
863.8597	-0.2846
864.0225	-0.0468
864.1854	-0.1894
864.3482	-0.302
864.511	0.0747
864.6737	-0.0905
864.8365	0.5743
864.9992	-0.3619
865.1619	-0.3937
865.3246	-0.3232
865.4873	-0.0861
865.65	-0.1888
865.8126	-0.1363
865.9752	0.0147
866.1378	-0.2513
866.3004	-0.1448
866.4629	0.3096
866.6254	-0.0892
866.7879	0.0808
866.9504	-0
867.1129	-0
867.2753	-0.0092
867.4377	0.2162
867.6001	-0.4142
867.7625	-0.191
867.9249	-0.2183
868.0872	-0.2465
868.2495	0.2617
868.4118	-0.2621
868.5741	-0.6966
868.7363	-0.3379
868.8986	-0.3691
869.0608	-0.501
869.223	0.051
869.3851	1.2189
869.5473	-0
869.7094	0.745
869.8715	-0.3991
870.0336	-0.7091
870.1957	-0.7046
870.3577	-0
870.5197	0.033
870.6817	-0.5406
870.8437	-0.0918
871.0057	-0
871.1676	1.3082
871.3295	-0.5004
871.4914	-0
871.6533	-0.3275
871.8151	-0.2612
871.977	-0
872.1388	-0
872.3006	-0
872.4623	1.5006
872.6241	0.6121
872.7858	0.1552
872.9475	-0.165
873.1092	-0
873.2709	-0.0696
873.4325	0.157
873.5941	-0.5023
873.7557	-0.1376
873.9173	-0
874.0789	0.8718
874.2404	-0.1659
874.4019	-0
874.5634	-0.3327
874.7249	-0.0707
874.8863	-0.0037
875.0478	0.3499
875.2092	-0
875.3706	0.0376
875.5319	-1.0069
875.6933	0.1155
875.8546	-0.0499
876.0159	-0
876.1772	-0
876.3385	-0
876.4997	-0.002
876.6609	-0.4771
876.8221	-0.2553
876.9833	1.0102
877.1445	-0
877.3056	0.0826
877.4667	-0.4328
877.6278	-0
877.7889	-0.6452
877.9499	-0
878.111	-0.4482
878.272	-0
878.433	-0
878.5939	-0
878.7549	0.368
878.9158	-0.9986
879.0767	0.8215
879.2376	0.3528
879.3984	-0.1442
879.5593	-0
879.7201	0.5371
879.8809	-0.8221
880.0417	-0
880.2024	0.2344
880.3632	-0
880.5239	0.0106
880.6846	-0
880.8452	-2.6618
881.0059	-1.4116
881.1665	-0
881.3271	-0
881.4877	-0.6786
881.6483	-0.6007
881.8088	-0.2246
881.9693	-0
882.1298	-0
882.2903	-0
