Data from MonoPyChalIsomerACN10uM350nmA_Absorbance_14-35-37-915.txt Node
Date: Fri Jul 05 14:35:37 BST 2024
User: LASERRRRR
Spectrometer: FLMT03099
Trigger mode: 0
Integration Time (sec): 1.000000E-1
Scans to average: 1
Electric dark correction enabled: true
Nonlinearity correction enabled: false
Boxcar width: 0
XAxis mode: Wavelengths
Number of Pixels in Spectrum: 3648
>>>>>Begin Spectral Data<<<<<
179.3399	-0.1471
179.5586	-0.1471
179.7771	-0.1471
179.9957	-0
180.2143	-0
180.4329	0.0838
180.6514	-0
180.8699	-0
181.0885	0.6144
181.307	0.2526
181.5255	-0.2591
181.744	-0.5501
181.9625	-0.2147
182.181	-0.2382
182.3994	0.8577
182.6179	-0
182.8363	-0.2208
183.0547	-0.2141
183.2732	0.1111
183.4916	0.1675
183.71	0.1609
183.9284	0.3499
184.1467	0.0362
184.3651	0.3289
184.5835	-0.0613
184.8018	0.0024
185.0201	0.2534
185.2385	0.1539
185.4568	0.2106
185.6751	0.652
185.8934	0.6415
186.1117	0.2278
186.3299	0.1584
186.5482	0.075
186.7664	-0.0028
186.9847	-0.0499
187.2029	0.0761
187.4211	0.3
187.6393	-0
187.8575	0.311
188.0757	0.4076
188.2939	0.0288
188.512	0.0198
188.7302	-0.0205
188.9483	-0.01
189.1665	0.1164
189.3846	0.14
189.6027	0.3787
189.8208	0.2069
190.0389	0.1333
190.257	0.0451
190.475	0.5678
190.6931	0.2599
190.9111	0.4076
191.1292	0.1959
191.3472	0.3801
191.5652	0.4146
191.7832	0.1709
192.0012	0.6549
192.2192	0.2754
192.4371	0.7649
192.6551	0.4981
192.873	0.4668
193.091	0.5937
193.3089	0.5539
193.5268	0.6422
193.7447	0.6346
193.9626	0.4321
194.1805	0.7187
194.3984	0.922
194.6162	0.552
194.8341	0.5149
195.0519	0.5353
195.2697	0.6245
195.4875	0.6242
195.7054	0.6797
195.9231	0.5421
196.1409	0.7016
196.3587	0.6833
196.5765	0.6957
196.7942	0.6114
197.012	0.4986
197.2297	0.659
197.4474	0.6582
197.6651	0.7067
197.8828	0.5254
198.1005	0.5844
198.3182	0.6056
198.5358	0.8333
198.7535	0.5592
198.9711	0.5383
199.1888	0.7563
199.4064	0.7485
199.624	0.6612
199.8416	0.6545
200.0592	0.652
200.2767	0.6786
200.4943	0.7327
200.7119	0.8981
200.9294	0.4726
201.1469	0.5792
201.3645	0.597
201.582	0.6143
201.7995	0.7561
202.017	0.7328
202.2344	0.6144
202.4519	0.7328
202.6694	0.6802
202.8868	0.5915
203.1042	0.6627
203.3217	0.6734
203.5391	0.6083
203.7565	0.5825
203.9739	0.6353
204.1913	0.6207
204.4086	0.6506
204.626	0.7148
204.8433	0.6617
205.0607	0.6407
205.278	0.7741
205.4953	0.6143
205.7126	0.6382
205.9299	0.7033
206.1472	0.6514
206.3644	0.6154
206.5817	0.6203
206.7989	0.769
207.0162	0.5994
207.2334	0.7699
207.4506	0.6264
207.6678	0.6429
207.885	0.6241
208.1022	0.7232
208.3194	0.6071
208.5365	0.6422
208.7537	0.7248
208.9708	0.6409
209.1879	0.6669
209.405	0.6462
209.6222	0.6557
209.8392	0.606
210.0563	0.585
210.2734	0.6372
210.4905	0.6913
210.7075	0.627
210.9245	0.5778
211.1416	0.6194
211.3586	0.702
211.5756	0.5633
211.7926	0.6325
212.0096	0.6009
212.2265	0.5681
212.4435	0.5649
212.6604	0.6242
212.8774	0.5483
213.0943	0.5958
213.3112	0.5483
213.5281	0.512
213.745	0.4877
213.9619	0.5325
214.1788	0.5468
214.3956	0.4627
214.6125	0.4636
214.8293	0.4871
215.0461	0.5019
215.2629	0.4348
215.4798	0.4443
215.6965	0.4227
215.9133	0.4451
216.1301	0.4192
216.3469	0.419
216.5636	0.4319
216.7803	0.4193
216.9971	0.3879
217.2138	0.3475
217.4305	0.3753
217.6472	0.3629
217.8639	0.3908
218.0805	0.3604
218.2972	0.3127
218.5138	0.2935
218.7305	0.3253
218.9471	0.3018
219.1637	0.3029
219.3803	0.2963
219.5969	0.279
219.8135	0.247
220.0301	0.2836
220.2466	0.2827
220.4632	0.258
220.6797	0.2324
220.8962	0.2401
221.1127	0.2559
221.3292	0.268
221.5457	0.2258
221.7622	0.2286
221.9787	0.2607
222.1951	0.2292
222.4116	0.2501
222.628	0.2401
222.8444	0.2611
223.0608	0.2384
223.2772	0.2616
223.4936	0.274
223.71	0.2901
223.9264	0.2588
224.1427	0.2552
224.3591	0.2381
224.5754	0.2753
224.7917	0.283
225.008	0.2728
225.2243	0.254
225.4406	0.2959
225.6569	0.2508
225.8732	0.257
226.0894	0.271
226.3057	0.2705
226.5219	0.2719
226.7381	0.2615
226.9543	0.2881
227.1705	0.2859
227.3867	0.2674
227.6029	0.3129
227.8191	0.28
228.0352	0.3108
228.2513	0.3168
228.4675	0.3103
228.6836	0.3062
228.8997	0.2835
229.1158	0.2868
229.3319	0.3143
229.548	0.3405
229.764	0.3237
229.9801	0.3363
230.1961	0.3139
230.4121	0.3423
230.6282	0.3529
230.8442	0.3261
231.0602	0.3417
231.2761	0.3462
231.4921	0.3333
231.7081	0.3444
231.924	0.3453
232.14	0.3593
232.3559	0.3264
232.5718	0.3564
232.7877	0.3607
233.0036	0.3678
233.2195	0.3511
233.4353	0.37
233.6512	0.3677
233.867	0.3654
234.0829	0.3733
234.2987	0.3742
234.5145	0.3611
234.7303	0.382
234.9461	0.3866
235.1619	0.3711
235.3776	0.3884
235.5934	0.3762
235.8091	0.3685
236.0249	0.3716
236.2406	0.3812
236.4563	0.3842
236.672	0.3915
236.8877	0.4184
237.1034	0.3976
237.319	0.3953
237.5347	0.4017
237.7503	0.3904
237.966	0.4052
238.1816	0.414
238.3972	0.4102
238.6128	0.3923
238.8284	0.4232
239.0439	0.4125
239.2595	0.4221
239.475	0.408
239.6906	0.4032
239.9061	0.401
240.1216	0.411
240.3371	0.3906
240.5526	0.4109
240.7681	0.4281
240.9836	0.3912
241.199	0.3943
241.4145	0.3798
241.6299	0.3782
241.8453	0.3732
242.0607	0.4026
242.2761	0.3725
242.4915	0.356
242.7069	0.3585
242.9223	0.3608
243.1376	0.3629
243.353	0.3434
243.5683	0.3411
243.7836	0.3238
243.9989	0.3308
244.2142	0.3104
244.4295	0.3279
244.6448	0.3139
244.86	0.2993
245.0753	0.2935
245.2905	0.2844
245.5057	0.2725
245.721	0.2641
245.9362	0.268
246.1514	0.2791
246.3665	0.2563
246.5817	0.2549
246.7969	0.2599
247.012	0.2464
247.2271	0.2397
247.4423	0.2499
247.6574	0.2376
247.8725	0.2385
248.0876	0.2334
248.3026	0.2189
248.5177	0.2252
248.7328	0.2203
248.9478	0.217
249.1628	0.2099
249.3779	0.2072
249.5929	0.2147
249.8079	0.2184
250.0228	0.1969
250.2378	0.1976
250.4528	0.1957
250.6677	0.1835
250.8827	0.1926
251.0976	0.1958
251.3125	0.1881
251.5274	0.1787
251.7423	0.182
251.9572	0.1874
252.172	0.1765
252.3869	0.1756
252.6017	0.1748
252.8166	0.1702
253.0314	0.1742
253.2462	0.1579
253.461	0.1912
253.6758	0.1758
253.8906	0.1899
254.1053	0.1663
254.3201	0.164
254.5348	0.1855
254.7496	0.1778
254.9643	0.1667
255.179	0.1708
255.3937	0.1776
255.6083	0.1683
255.823	0.1709
256.0377	0.1653
256.2523	0.1743
256.467	0.1603
256.6816	0.1755
256.8962	0.1721
257.1108	0.1409
257.3254	0.1807
257.54	0.1625
257.7545	0.1831
257.9691	0.1691
258.1836	0.1657
258.3981	0.1714
258.6127	0.1796
258.8272	0.1613
259.0417	0.1702
259.2561	0.1639
259.4706	0.1645
259.6851	0.1698
259.8995	0.1666
260.114	0.1665
260.3284	0.1644
260.5428	0.1618
260.7572	0.1633
260.9716	0.1662
261.186	0.1569
261.4003	0.1565
261.6147	0.1674
261.829	0.1618
262.0433	0.1615
262.2577	0.1607
262.472	0.1693
262.6863	0.1591
262.9005	0.1608
263.1148	0.174
263.3291	0.146
263.5433	0.1668
263.7576	0.165
263.9718	0.1703
264.186	0.158
264.4002	0.1518
264.6144	0.1716
264.8286	0.1731
265.0427	0.1637
265.2569	0.1653
265.471	0.1505
265.6851	0.1604
265.8993	0.15
266.1134	0.1593
266.3275	0.1546
266.5415	0.1604
266.7556	0.1713
266.9697	0.159
267.1837	0.1485
267.3978	0.1725
267.6118	0.1766
267.8258	0.1819
268.0398	0.1533
268.2538	0.1702
268.4677	0.1586
268.6817	0.1591
268.8957	0.1618
269.1096	0.1584
269.3235	0.1622
269.5374	0.1565
269.7514	0.1635
269.9652	0.15
270.1791	0.1491
270.393	0.1452
270.6068	0.1555
270.8207	0.1534
271.0345	0.1453
271.2483	0.1572
271.4622	0.1432
271.676	0.1507
271.8897	0.1452
272.1035	0.1462
272.3173	0.1458
272.531	0.1407
272.7448	0.1479
272.9585	0.144
273.1722	0.1418
273.3859	0.1562
273.5996	0.1342
273.8133	0.1531
274.0269	0.1347
274.2406	0.1429
274.4542	0.1489
274.6679	0.1303
274.8815	0.1338
275.0951	0.1541
275.3087	0.1545
275.5223	0.1524
275.7358	0.1475
275.9494	0.1499
276.1629	0.1413
276.3765	0.1516
276.59	0.1568
276.8035	0.1486
277.017	0.1528
277.2305	0.1471
277.444	0.1585
277.6574	0.1325
277.8709	0.1601
278.0843	0.1325
278.2978	0.139
278.5112	0.1379
278.7246	0.1493
278.938	0.1422
279.1513	0.1472
279.3647	0.1539
279.5781	0.1488
279.7914	0.164
280.0047	0.1613
280.2181	0.1561
280.4314	0.1558
280.6447	0.1556
280.8579	0.1525
281.0712	0.1623
281.2845	0.158
281.4977	0.1495
281.711	0.1492
281.9242	0.1602
282.1374	0.1552
282.3506	0.1467
282.5638	0.1576
282.7769	0.1606
282.9901	0.1557
283.2033	0.1624
283.4164	0.1647
283.6295	0.1552
283.8426	0.1584
284.0557	0.148
284.2688	0.1753
284.4819	0.1551
284.695	0.1588
284.908	0.1642
285.1211	0.1618
285.3341	0.1594
285.5471	0.1642
285.7601	0.1529
285.9731	0.1599
286.1861	0.1568
286.3991	0.1631
286.612	0.1638
286.825	0.1682
287.0379	0.1714
287.2508	0.1625
287.4637	0.173
287.6766	0.1524
287.8895	0.1649
288.1024	0.1795
288.3152	0.1564
288.5281	0.1598
288.7409	0.1646
288.9538	0.1636
289.1666	0.1658
289.3794	0.1651
289.5922	0.1499
289.8049	0.1609
290.0177	0.1656
290.2304	0.1608
290.4432	0.1626
290.6559	0.1662
290.8686	0.1637
291.0813	0.1706
291.294	0.1693
291.5067	0.1723
291.7194	0.1719
291.932	0.1763
292.1447	0.1756
292.3573	0.1687
292.5699	0.1588
292.7825	0.174
292.9951	0.1665
293.2077	0.1646
293.4203	0.164
293.6328	0.1632
293.8454	0.1724
294.0579	0.1624
294.2704	0.1697
294.4829	0.1576
294.6954	0.1668
294.9079	0.168
295.1204	0.1632
295.3328	0.1691
295.5453	0.1709
295.7577	0.172
295.9701	0.1503
296.1825	0.1647
296.3949	0.1619
296.6073	0.1551
296.8197	0.1547
297.0321	0.1713
297.2444	0.1576
297.4567	0.1641
297.6691	0.1649
297.8814	0.1595
298.0937	0.1598
298.306	0.169
298.5182	0.1564
298.7305	0.1602
298.9428	0.1608
299.155	0.1669
299.3672	0.1605
299.5794	0.1599
299.7916	0.157
300.0038	0.1597
300.216	0.1699
300.4282	0.1708
300.6403	0.166
300.8525	0.1659
301.0646	0.1571
301.2767	0.1619
301.4888	0.1622
301.7009	0.1642
301.913	0.17
302.125	0.1599
302.3371	0.1613
302.5491	0.1671
302.7612	0.1745
302.9732	0.1644
303.1852	0.1711
303.3972	0.1652
303.6092	0.1599
303.8211	0.1559
304.0331	0.1495
304.245	0.1578
304.457	0.1527
304.6689	0.1562
304.8808	0.1608
305.0927	0.1448
305.3046	0.1515
305.5164	0.1564
305.7283	0.1401
305.9401	0.1428
306.152	0.1422
306.3638	0.1637
306.5756	0.1417
306.7874	0.152
306.9992	0.1588
307.2109	0.1451
307.4227	0.124
307.6344	0.1423
307.8462	0.1391
308.0579	0.1355
308.2696	0.133
308.4813	0.1376
308.693	0.1366
308.9046	0.1457
309.1163	0.1237
309.328	0.125
309.5396	0.126
309.7512	0.1317
309.9628	0.1272
310.1744	0.1267
310.386	0.1291
310.5976	0.1189
310.8091	0.1185
311.0207	0.1244
311.2322	0.1237
311.4437	0.1079
311.6552	0.1113
311.8667	0.1256
312.0782	0.1047
312.2897	0.0993
312.5012	0.1068
312.7126	0.1042
312.924	0.1002
313.1355	0.1133
313.3469	0.1071
313.5583	0.1094
313.7696	0.1009
313.981	0.1158
314.1924	0.1072
314.4037	0.098
314.6151	0.1127
314.8264	0.1029
315.0377	0.1077
315.249	0.0981
315.4603	0.0995
315.6716	0.1022
315.8828	0.1098
316.0941	0.0969
316.3053	0.0938
316.5165	0.0983
316.7277	0.0959
316.9389	0.1049
317.1501	0.0989
317.3613	0.1003
317.5724	0.094
317.7836	0.112
317.9947	0.1032
318.2058	0.0936
318.417	0.0826
318.6281	0.0922
318.8391	0.0874
319.0502	0.0909
319.2613	0.0943
319.4723	0.1025
319.6834	0.1002
319.8944	0.091
320.1054	0.1039
320.3164	0.1042
320.5274	0.0922
320.7383	0.0977
320.9493	0.0914
321.1602	0.1132
321.3712	0.0977
321.5821	0.108
321.793	0.1106
322.0039	0.0891
322.2148	0.1025
322.4257	0.1041
322.6365	0.1087
322.8474	0.104
323.0582	0.1001
323.269	0.1025
323.4798	0.1086
323.6906	0.1087
323.9014	0.1027
324.1122	0.1079
324.3229	0.1046
324.5337	0.1084
324.7444	0.0951
324.9551	0.1151
325.1658	0.1029
325.3765	0.1134
325.5872	0.1023
325.7979	0.1033
326.0085	0.1196
326.2192	0.1106
326.4298	0.1099
326.6404	0.1008
326.851	0.1023
327.0616	0.0967
327.2722	0.1074
327.4828	0.1151
327.6933	0.109
327.9039	0.1178
328.1144	0.1151
328.3249	0.1101
328.5354	0.1045
328.7459	0.1203
328.9564	0.0995
329.1669	0.1056
329.3773	0.1025
329.5878	0.1087
329.7982	0.1095
330.0086	0.0983
330.219	0.1177
330.4294	0.0957
330.6398	0.1024
330.8502	0.0938
331.0605	0.1061
331.2708	0.1089
331.4812	0.1079
331.6915	0.0979
331.9018	0.1096
332.1121	0.1046
332.3224	0.1085
332.5326	0.1232
332.7429	0.1063
332.9531	0.1252
333.1633	0.1058
333.3735	0.1121
333.5837	0.1084
333.7939	0.1047
334.0041	0.1233
334.2143	0.1191
334.4244	0.1113
334.6346	0.0922
334.8447	0.1231
335.0548	0.1089
335.2649	0.107
335.475	0.1219
335.685	0.1214
335.8951	0.1264
336.1051	0.1266
336.3152	0.1121
336.5252	0.0993
336.7352	0.1123
336.9452	0.1148
337.1552	0.1161
337.3652	0.1045
337.5751	0.1196
337.7851	0.1223
337.995	0.1079
338.2049	0.1097
338.4148	0.114
338.6247	0.117
338.8346	0.1004
339.0445	0.1076
339.2543	0.1233
339.4642	0.1246
339.674	0.0995
339.8838	0.1049
340.0936	0.1197
340.3034	0.1284
340.5132	0.1269
340.7229	0.1341
340.9327	0.126
341.1424	0.1146
341.3522	0.1245
341.5619	0.1173
341.7716	0.1226
341.9813	0.1179
342.1909	0.129
342.4006	0.1246
342.6102	0.1269
342.8199	0.1254
343.0295	0.126
343.2391	0.1224
343.4487	0.1255
343.6583	0.1287
343.8679	0.1273
344.0774	0.1293
344.287	0.1325
344.4965	0.136
344.706	0.1302
344.9155	0.1187
345.125	0.1328
345.3345	0.135
345.544	0.1298
345.7534	0.1317
345.9629	0.1299
346.1723	0.1244
346.3817	0.1143
346.5911	0.1158
346.8005	0.1385
347.0099	0.124
347.2193	0.1495
347.4286	0.1317
347.638	0.1347
347.8473	0.1449
348.0566	0.1404
348.2659	0.139
348.4752	0.1342
348.6845	0.1328
348.8937	0.1362
349.103	0.1464
349.3122	0.1265
349.5214	0.1427
349.7306	0.1427
349.9398	0.1228
350.149	0.1382
350.3582	0.1387
350.5674	0.1554
350.7765	0.1327
350.9856	0.1431
351.1948	0.1409
351.4039	0.1407
351.613	0.1335
351.822	0.1413
352.0311	0.1401
352.2402	0.149
352.4492	0.1328
352.6582	0.1596
352.8672	0.1465
353.0762	0.1523
353.2852	0.1508
353.4942	0.149
353.7032	0.149
353.9121	0.1513
354.1211	0.1631
354.33	0.1619
354.5389	0.1584
354.7478	0.1542
354.9567	0.154
355.1655	0.1466
355.3744	0.1712
355.5833	0.1678
355.7921	0.1692
356.0009	0.1476
356.2097	0.1693
356.4185	0.1658
356.6273	0.1705
356.8361	0.1665
357.0448	0.1603
357.2536	0.156
357.4623	0.1559
357.671	0.1691
357.8797	0.1586
358.0884	0.1652
358.2971	0.1767
358.5057	0.1711
358.7144	0.174
358.923	0.1654
359.1316	0.1613
359.3402	0.1726
359.5488	0.1769
359.7574	0.1607
359.966	0.1808
360.1746	0.1932
360.3831	0.1903
360.5916	0.1749
360.8002	0.1728
361.0087	0.2005
361.2172	0.1773
361.4256	0.1727
361.6341	0.1859
361.8426	0.1854
362.051	0.1782
362.2594	0.1896
362.4678	0.1734
362.6762	0.2207
362.8846	0.1923
363.093	0.1979
363.3014	0.1914
363.5097	0.1634
363.718	0.1895
363.9264	0.1888
364.1347	0.1724
364.343	0.1987
364.5513	0.199
364.7595	0.2105
364.9678	0.1944
365.176	0.2043
365.3842	0.1935
365.5925	0.1864
365.8007	0.1909
366.0089	0.1907
366.217	0.2011
366.4252	0.2053
366.6333	0.2101
366.8415	0.1955
367.0496	0.1901
367.2577	0.2078
367.4658	0.2387
367.6739	0.204
367.882	0.2149
368.09	0.1998
368.2981	0.2083
368.5061	0.1957
368.7141	0.2252
368.9221	0.2141
369.1301	0.2063
369.3381	0.2019
369.5461	0.1978
369.754	0.2166
369.962	0.2203
370.1699	0.2129
370.3778	0.2164
370.5857	0.2035
370.7936	0.208
371.0015	0.2298
371.2093	0.2061
371.4172	0.2403
371.625	0.2104
371.8328	0.214
372.0406	0.2181
372.2484	0.2006
372.4562	0.2285
372.664	0.2278
372.8717	0.2421
373.0795	0.1941
373.2872	0.2132
373.4949	0.2014
373.7026	0.2415
373.9103	0.2431
374.118	0.2378
374.3256	0.2339
374.5333	0.2305
374.7409	0.2245
374.9485	0.2336
375.1561	0.2271
375.3637	0.2328
375.5713	0.2319
375.7789	0.2384
375.9864	0.2224
376.194	0.2359
376.4015	0.2465
376.609	0.2376
376.8165	0.2245
377.024	0.2258
377.2315	0.2347
377.4389	0.2557
377.6464	0.256
377.8538	0.227
378.0612	0.2402
378.2686	0.2363
378.476	0.2506
378.6834	0.25
378.8908	0.2396
379.0981	0.2483
379.3055	0.2421
379.5128	0.2513
379.7201	0.2597
379.9274	0.2446
380.1347	0.2359
380.342	0.2757
380.5492	0.2474
380.7565	0.2557
380.9637	0.2568
381.1709	0.2488
381.3781	0.2513
381.5853	0.2536
381.7925	0.2642
381.9997	0.2667
382.2068	0.2639
382.4139	0.2515
382.6211	0.251
382.8282	0.2561
383.0353	0.2703
383.2424	0.2445
383.4494	0.2701
383.6565	0.2569
383.8635	0.2561
384.0706	0.2446
384.2776	0.2576
384.4846	0.2353
384.6916	0.2668
384.8986	0.2624
385.1055	0.2514
385.3125	0.2597
385.5194	0.2582
385.7263	0.2686
385.9333	0.2703
386.1402	0.2613
386.347	0.2618
386.5539	0.2414
386.7608	0.2637
386.9676	0.2369
387.1744	0.2616
387.3813	0.2592
387.5881	0.2565
387.7948	0.2493
388.0016	0.2392
388.2084	0.2532
388.4151	0.2263
388.6219	0.2586
388.8286	0.2539
389.0353	0.2542
389.242	0.2436
389.4487	0.2483
389.6553	0.237
389.862	0.2118
390.0686	0.2422
390.2753	0.2622
390.4819	0.2542
390.6885	0.2406
390.8951	0.2436
391.1016	0.2366
391.3082	0.2341
391.5147	0.2303
391.7213	0.2353
391.9278	0.2171
392.1343	0.2168
392.3408	0.2474
392.5473	0.2435
392.7537	0.2132
392.9602	0.2371
393.1666	0.2295
393.373	0.2323
393.5794	0.2491
393.7858	0.2212
393.9922	0.22
394.1986	0.2239
394.4049	0.2191
394.6113	0.2306
394.8176	0.2145
395.0239	0.2198
395.2302	0.2293
395.4365	0.2269
395.6428	0.2141
395.8491	0.1959
396.0553	0.2178
396.2615	0.2108
396.4678	0.2137
396.674	0.2173
396.8802	0.2225
397.0863	0.2402
397.2925	0.2123
397.4987	0.2213
397.7048	0.2129
397.9109	0.2131
398.117	0.1956
398.3231	0.2196
398.5292	0.2307
398.7353	0.2261
398.9413	0.221
399.1474	0.2092
399.3534	0.205
399.5594	0.1954
399.7654	0.2243
399.9714	0.2337
400.1774	0.2067
400.3833	0.2026
400.5893	0.2329
400.7952	0.213
401.0011	0.2159
401.207	0.2169
401.4129	0.2306
401.6188	0.2251
401.8247	0.2068
402.0305	0.2132
402.2364	0.2002
402.4422	0.2239
402.648	0.228
402.8538	0.2155
403.0596	0.2039
403.2654	0.2182
403.4711	0.1986
403.6768	0.2022
403.8826	0.2191
404.0883	0.2176
404.294	0.2091
404.4997	0.2114
404.7054	0.204
404.911	0.2006
405.1167	0.2295
405.3223	0.2289
405.5279	0.225
405.7335	0.2301
405.9391	0.2342
406.1447	0.2159
406.3502	0.2183
406.5558	0.2063
406.7613	0.2235
406.9668	0.2151
407.1724	0.194
407.3778	0.2011
407.5833	0.2057
407.7888	0.2047
407.9942	0.2261
408.1997	0.1922
408.4051	0.2053
408.6105	0.214
408.8159	0.2025
409.0213	0.2034
409.2267	0.2096
409.432	0.1935
409.6374	0.2301
409.8427	0.2103
410.048	0.2221
410.2533	0.2092
410.4586	0.2158
410.6639	0.2019
410.8691	0.2056
411.0744	0.2196
411.2796	0.1959
411.4848	0.2129
411.69	0.2129
411.8952	0.2226
412.1004	0.1853
412.3056	0.2064
412.5107	0.1983
412.7158	0.2153
412.921	0.2237
413.1261	0.2059
413.3312	0.209
413.5362	0.1837
413.7413	0.196
413.9464	0.2068
414.1514	0.2112
414.3564	0.2068
414.5614	0.1975
414.7664	0.1999
414.9714	0.2175
415.1764	0.2051
415.3813	0.2275
415.5863	0.2001
415.7912	0.2075
415.9961	0.2316
416.201	0.1963
416.4059	0.2113
416.6108	0.2079
416.8156	0.2089
417.0205	0.2052
417.2253	0.1855
417.4301	0.2006
417.6349	0.1944
417.8397	0.189
418.0445	0.2202
418.2492	0.221
418.454	0.1937
418.6587	0.2116
418.8634	0.2026
419.0681	0.1922
419.2728	0.1781
419.4775	0.2001
419.6822	0.1816
419.8868	0.1783
420.0915	0.191
420.2961	0.1885
420.5007	0.1935
420.7053	0.1846
420.9099	0.185
421.1144	0.1888
421.319	0.1996
421.5235	0.191
421.728	0.1958
421.9325	0.1916
422.137	0.1952
422.3415	0.1821
422.546	0.1843
422.7504	0.1857
422.9549	0.1883
423.1593	0.1853
423.3637	0.1946
423.5681	0.1775
423.7725	0.1766
423.9769	0.1712
424.1812	0.1773
424.3856	0.1697
424.5899	0.1824
424.7942	0.1681
424.9985	0.1839
425.2028	0.1712
425.4071	0.2028
425.6113	0.1623
425.8156	0.1706
426.0198	0.1782
426.224	0.1528
426.4282	0.1699
426.6324	0.1624
426.8366	0.173
427.0407	0.1608
427.2449	0.1633
427.449	0.165
427.6531	0.1609
427.8572	0.1595
428.0613	0.1502
428.2654	0.1564
428.4694	0.1561
428.6735	0.1485
428.8775	0.1713
429.0815	0.1708
429.2855	0.15
429.4895	0.1587
429.6935	0.1565
429.8975	0.1444
430.1014	0.1546
430.3053	0.1305
430.5093	0.1492
430.7132	0.1378
430.9171	0.1452
431.1209	0.1353
431.3248	0.1329
431.5286	0.1517
431.7325	0.139
431.9363	0.1313
432.1401	0.1464
432.3439	0.1284
432.5477	0.1195
432.7514	0.1198
432.9552	0.1354
433.1589	0.124
433.3627	0.1179
433.5664	0.1266
433.7701	0.1291
433.9737	0.1122
434.1774	0.1142
434.3811	0.0929
434.5847	0.1241
434.7883	0.1088
434.9919	0.1106
435.1955	0.1117
435.3991	0.105
435.6027	0.117
435.8062	0.0947
436.0098	0.1029
436.2133	0.1118
436.4168	0.1093
436.6203	0.0954
436.8238	0.1107
437.0272	0.0994
437.2307	0.1136
437.4341	0.0972
437.6375	0.1142
437.841	0.0933
438.0443	0.0923
438.2477	0.097
438.4511	0.0928
438.6545	0.0832
438.8578	0.1058
439.0611	0.0942
439.2644	0.091
439.4677	0.0859
439.671	0.0785
439.8743	0.086
440.0775	0.0864
440.2808	0.0796
440.484	0.0695
440.6872	0.0604
440.8904	0.0712
441.0936	0.0897
441.2967	0.0668
441.4999	0.0777
441.703	0.0682
441.9062	0.0736
442.1093	0.0776
442.3124	0.0563
442.5155	0.0477
442.7185	0.0614
442.9216	0.0315
443.1246	0.063
443.3276	0.064
443.5307	0.0623
443.7337	0.0584
443.9366	0.0651
444.1396	0.0589
444.3426	0.0606
444.5455	0.0698
444.7484	0.042
444.9513	0.0592
445.1542	0.0658
445.3571	0.0639
445.56	0.0604
445.7628	0.0416
445.9657	0.0348
446.1685	0.0637
446.3713	0.0461
446.5741	0.0597
446.7769	0.0342
446.9797	0.047
447.1824	0.0475
447.3852	0.0437
447.5879	0.055
447.7906	0.0632
447.9933	0.0473
448.196	0.0232
448.3986	0.0451
448.6013	0.0353
448.8039	0.0215
449.0066	0.0196
449.2092	0.0377
449.4118	0.04
449.6143	0.0391
449.8169	0.0319
450.0195	0.0145
450.222	0.0021
450.4245	0.0251
450.627	0.0261
450.8295	0.0242
451.032	0.0287
451.2345	0.0291
451.4369	0.0481
451.6394	0.034
451.8418	0.0065
452.0442	0.0197
452.2466	0.0363
452.449	0.0079
452.6513	0.0231
452.8537	0.0205
453.056	0.0035
453.2583	0.0191
453.4607	0.0219
453.663	0.0091
453.8652	0.0134
454.0675	0.0206
454.2697	0.0335
454.472	0.0062
454.6742	0.0238
454.8764	0.0073
455.0786	0.032
455.2808	0.017
455.4829	0.0363
455.6851	0.016
455.8872	0.019
456.0893	0.0222
456.2915	0.0055
456.4935	0.0248
456.6956	0.0067
456.8977	0.0177
457.0997	0.0071
457.3018	0.0052
457.5038	0.0169
457.7058	0.0122
457.9078	0.0095
458.1098	0.0161
458.3117	0.0188
458.5137	0.0058
458.7156	0.0155
458.9175	-0.0057
459.1194	0.0223
459.3213	-0.0016
459.5232	0.0014
459.725	-0.0102
459.9269	-0.0121
460.1287	0.0053
460.3305	-0.0073
460.5323	0.0044
460.7341	0.0013
460.9359	0.008
461.1376	0.009
461.3394	-0.0012
461.5411	0.0165
461.7428	0.0022
461.9445	0.0214
462.1462	0.0212
462.3479	0.0017
462.5495	0.003
462.7512	0.0143
462.9528	0.015
463.1544	-0.0114
463.356	0.019
463.5576	0.0078
463.7592	-0.0096
463.9607	-0.0001
464.1623	0.0146
464.3638	0.0235
464.5653	0.001
464.7668	0.009
464.9683	0.01
465.1697	0.023
465.3712	-0.0024
465.5726	-0.0028
465.7741	0.0061
465.9755	-0.0041
466.1769	0.0072
466.3782	-0.0017
466.5796	-0.0112
466.7809	0.0201
466.9823	-0.0044
467.1836	0.0076
467.3849	-0.0055
467.5862	0.0097
467.7875	-0.0045
467.9887	0.0236
468.19	0.0025
468.3912	-0.0158
468.5924	-0.0054
468.7936	-0.0162
468.9948	0.001
469.196	0.0015
469.3972	-0.0072
469.5983	0.0125
469.7994	0.0042
470.0006	-0.0143
470.2017	-0.0065
470.4027	-0.0024
470.6038	0.0034
470.8049	-0.0168
471.0059	-0.0052
471.2069	-0.0184
471.408	0.0066
471.6089	0.0027
471.8099	-0.0034
472.0109	0.011
472.2119	-0.0114
472.4128	-0.0089
472.6137	0.001
472.8146	-0.0115
473.0155	-0.0102
473.2164	0.0072
473.4173	-0.0116
473.6181	0.0131
473.819	0.0053
474.0198	0.0034
474.2206	-0.01
474.4214	-0.0086
474.6222	-0.0075
474.8229	-0.0068
475.0237	-0.0129
475.2244	-0.0116
475.4251	-0.0037
475.6258	-0.006
475.8265	-0.0133
476.0272	0.0095
476.2278	-0.0052
476.4285	-0.0026
476.6291	-0.0037
476.8297	-0.0011
477.0303	-0.0167
477.2309	-0.0023
477.4315	-0.0109
477.632	-0.0043
477.8326	0.0034
478.0331	0.0016
478.2336	0.0095
478.4341	-0.0063
478.6346	-0.0082
478.8351	0.0001
479.0355	-0.0001
479.236	-0.0124
479.4364	0.0138
479.6368	-0.0038
479.8372	-0.0024
480.0376	0.0024
480.2379	-0.0213
480.4383	-0.0108
480.6386	0.0096
480.8389	-0.0003
481.0392	-0.0063
481.2395	-0.0118
481.4398	0.0013
481.6401	-0.005
481.8403	0.0019
482.0405	-0.0055
482.2408	-0.0114
482.441	0.0072
482.6411	-0.005
482.8413	-0.0145
483.0415	-0.0102
483.2416	-0.0089
483.4417	0.0074
483.6419	-0.0044
483.8419	0.0065
484.042	0.0027
484.2421	-0.0018
484.4422	0.0006
484.6422	0.0077
484.8422	-0.0012
485.0422	-0.013
485.2422	0.0142
485.4422	-0.0109
485.6422	-0.0123
485.8421	-0.0083
486.042	-0.0089
486.242	0.0039
486.4419	-0.0159
486.6417	-0.0169
486.8416	0.0029
487.0415	-0.008
487.2413	-0.0074
487.4411	-0.0037
487.641	-0.0041
487.8408	0.0126
488.0405	-0.005
488.2403	0.0011
488.4401	0.0057
488.6398	-0.0037
488.8395	-0.0084
489.0392	-0.0106
489.2389	-0.0093
489.4386	-0.0149
489.6383	0.0028
489.8379	0.0002
490.0376	-0.0024
490.2372	-0.0042
490.4368	-0.0081
490.6364	-0.0087
490.836	-0.0022
491.0355	-0.0051
491.2351	-0.0071
491.4346	0.0027
491.6341	-0.0083
491.8336	0.0018
492.0331	-0.0195
492.2326	-0.0113
492.432	0.0017
492.6315	-0.0096
492.8309	-0.0142
493.0303	0.0004
493.2297	-0.0001
493.4291	-0.0062
493.6284	0.0053
493.8278	-0.0027
494.0271	0.0059
494.2264	0.0027
494.4257	-0.0144
494.625	-0.0041
494.8243	-0.0204
495.0236	-0.0123
495.2228	-0.012
495.422	0.0044
495.6213	0.0022
495.8205	0.0016
496.0196	0.0015
496.2188	0.0056
496.418	-0.0061
496.6171	-0.0076
496.8162	-0.0085
497.0153	-0.0038
497.2144	-0.0082
497.4135	0
497.6126	-0.0065
497.8116	-0.0154
498.0107	0.0051
498.2097	-0.0159
498.4087	-0.0154
498.6077	-0.0026
498.8067	-0.0209
499.0056	0.0015
499.2046	-0.0079
499.4035	-0.0133
499.6024	-0.004
499.8013	-0.0043
500.0002	-0.0023
500.199	-0.01
500.3979	-0.0099
500.5967	-0.0101
500.7956	-0.006
500.9944	-0.0057
501.1932	-0.0159
501.3919	-0.0099
501.5907	-0.0181
501.7895	-0.0088
501.9882	-0.0056
502.1869	-0.0123
502.3856	-0.0171
502.5843	-0.0097
502.783	-0.0036
502.9816	-0.0072
503.1803	-0.0147
503.3789	-0.0087
503.5775	-0.0001
503.7761	-0.0083
503.9747	-0.0036
504.1732	-0.0055
504.3718	0.0011
504.5703	-0.0112
504.7689	-0.005
504.9674	-0.0055
505.1658	-0.0096
505.3643	-0.0063
505.5628	-0.0048
505.7612	-0.0022
505.9597	0.0023
506.1581	0.0067
506.3565	0.0126
506.5549	-0.0008
506.7532	-0.0226
506.9516	-0.0155
507.1499	0.0016
507.3482	-0.0096
507.5465	-0.012
507.7448	-0.0006
507.9431	-0.0004
508.1414	-0.0045
508.3396	-0.0102
508.5379	0.0042
508.7361	-0.0053
508.9343	-0.0065
509.1325	-0.0022
509.3306	-0.0048
509.5288	-0.0056
509.7269	-0.0112
509.9251	0.0015
510.1232	-0.0108
510.3213	0.0042
510.5193	0.0065
510.7174	-0.0119
510.9154	-0.0058
511.1135	-0.0085
511.3115	-0.0023
511.5095	-0.0006
511.7075	-0.0066
511.9055	-0.0056
512.1034	-0.0064
512.3014	0.0023
512.4993	-0.0016
512.6972	-0.0044
512.8951	-0.0172
513.093	-0.0062
513.2908	-0.0024
513.4887	-0.0065
513.6865	-0.0199
513.8844	-0.0055
514.0822	-0.0114
514.2799	-0.0045
514.4777	-0.0096
514.6755	-0.016
514.8732	-0.0066
515.0709	-0.0042
515.2687	-0.0002
515.4664	-0.0002
515.664	-0.0158
515.8617	-0.0057
516.0594	-0.0126
516.257	-0.0016
516.4546	-0.0137
516.6522	0.0105
516.8498	-0.0145
517.0474	0.0157
517.2449	0
517.4425	-0.01
517.64	-0.0068
517.8375	0.0013
518.035	-0.0034
518.2325	0.0008
518.43	-0.0081
518.6274	-0.0036
518.8249	-0.0102
519.0223	0.0097
519.2197	-0.0065
519.4171	-0.0046
519.6145	-0.0087
519.8118	-0.0015
520.0092	-0.0056
520.2065	-0.0032
520.4038	-0.0091
520.6011	-0.009
520.7984	0.0036
520.9956	-0.0052
521.1929	-0.0215
521.3901	-0.0014
521.5874	-0.0003
521.7846	-0.0009
521.9818	-0.013
522.1789	-0.0035
522.3761	-0.0069
522.5732	-0.0118
522.7704	-0.0147
522.9675	0.0024
523.1646	-0.0067
523.3617	0.0046
523.5587	-0.0044
523.7558	-0.006
523.9528	-0.004
524.1498	0.0036
524.3468	-0.0085
524.5438	-0.0151
524.7408	-0.0017
524.9378	0.0088
525.1347	-0.0045
525.3316	0.0061
525.5285	-0.0062
525.7254	-0.0007
525.9223	-0.0091
526.1192	0.0046
526.316	-0.0138
526.5129	-0.003
526.7097	0.0016
526.9065	0.0092
527.1033	-0.0112
527.3	0.0004
527.4968	0.0045
527.6935	-0.0018
527.8903	0.0047
528.087	-0.0054
528.2837	-0.0089
528.4804	-0.0048
528.677	-0.0135
528.8737	0.0064
529.0703	0.0081
529.2669	0.0002
529.4635	-0.0076
529.6601	-0.0047
529.8567	-0.0013
530.0532	-0.0151
530.2498	-0.0001
530.4463	0.001
530.6428	-0.0005
530.8393	0.0105
531.0358	-0.005
531.2322	0.0007
531.4287	-0.0004
531.6251	-0.0086
531.8215	0.0082
532.0179	0.0044
532.2143	0.0052
532.4107	-0.0097
532.607	-0.003
532.8034	0.0035
532.9997	0.0081
533.196	0.0018
533.3923	-0.01
533.5886	0.0014
533.7848	-0.0037
533.9811	0.0048
534.1773	-0.0011
534.3735	0.0023
534.5697	0.0011
534.7659	-0.0139
534.9621	0.0033
535.1582	-0.0032
535.3544	-0.0014
535.5505	-0.0102
535.7466	-0.0018
535.9427	-0.0095
536.1387	-0.0049
536.3348	-0.0023
536.5308	0.0056
536.7269	-0.0179
536.9229	0.0067
537.1189	-0.0028
537.3148	-0.0118
537.5108	-0.0069
537.7068	-0.0064
537.9027	-0.0017
538.0986	-0.0119
538.2945	-0.0086
538.4904	-0.0038
538.6863	-0.0158
538.8821	-0.0064
539.078	-0.0001
539.2738	-0.011
539.4696	0.0006
539.6654	-0.0008
539.8611	0.0108
540.0569	0.0072
540.2526	-0.0105
540.4484	0.0022
540.6441	0.0051
540.8398	0.0012
541.0355	0.0049
541.2311	0.0052
541.4268	-0.0111
541.6224	0.0029
541.818	-0.0026
542.0136	-0.0017
542.2092	0.0032
542.4048	-0.0027
542.6003	-0.0019
542.7959	0.0035
542.9914	-0.0025
543.1869	0.0013
543.3824	-0.0068
543.5779	-0.0126
543.7734	-0.0038
543.9688	-0.0044
544.1642	0.009
544.3596	0.0051
544.555	0.003
544.7504	-0.0074
544.9458	-0.0068
545.1411	0.0003
545.3365	-0.0036
545.5318	-0.0015
545.7271	0.0037
545.9224	-0.0029
546.1177	-0.0002
546.3129	0.0011
546.5081	-0.0044
546.7034	0.001
546.8986	-0.0025
547.0938	0.0006
547.289	0.0058
547.4841	0.0079
547.6793	0.004
547.8744	-0.0044
548.0695	0.0055
548.2646	-0.0103
548.4597	0.0046
548.6548	0.0056
548.8498	0.0059
549.0448	0.0047
549.2399	-0.008
549.4349	0.0044
549.6298	-0.0051
549.8248	0.0045
550.0198	-0.0055
550.2147	-0.0048
550.4096	-0.0106
550.6045	0.0018
550.7994	-0.0001
550.9943	0.0039
551.1892	-0.008
551.384	0.0042
551.5788	-0.0119
551.7737	0.0019
551.9685	0.0052
552.1632	0.0009
552.358	-0.0058
552.5528	0.0006
552.7475	-0.0037
552.9422	-0.0021
553.1369	0.0049
553.3316	0.0058
553.5263	-0.0021
553.7209	0.0075
553.9156	-0.0009
554.1102	-0.0082
554.3048	-0.0062
554.4994	0.0054
554.694	-0.0013
554.8885	0.0074
555.0831	0.0002
555.2776	-0.0036
555.4721	-0.0003
555.6666	-0.0129
555.8611	0.0029
556.0555	0.0039
556.25	-0.0025
556.4444	-0.0084
556.6388	-0.0073
556.8332	-0.0008
557.0276	0.0049
557.222	-0.0068
557.4163	0.0073
557.6107	-0.002
557.805	0.0091
557.9993	-0.0037
558.1936	-0.0026
558.3879	0.001
558.5821	0.005
558.7764	-0.0075
558.9706	-0
559.1648	0.0077
559.359	-0.0034
559.5532	-0.0026
559.7473	0.0047
559.9415	-0.0048
560.1356	-0.0111
560.3297	-0.0056
560.5238	0.0004
560.7179	-0.0052
560.9119	-0.0101
561.106	-0.0052
561.3	-0.0037
561.494	-0.0053
561.688	-0.0092
561.882	-0.0129
562.076	-0.0075
562.2699	-0.0002
562.4639	0
562.6578	-0.0047
562.8517	-0.0016
563.0456	-0.0012
563.2395	0.0041
563.4333	-0.0023
563.6272	0.0045
563.821	0.0004
564.0148	0.0041
564.2086	-0.0122
564.4024	0.0003
564.5961	-0.0068
564.7899	0.0033
564.9836	0.0038
565.1773	-0.0002
565.371	0.0123
565.5647	0.0033
565.7584	-0.0024
565.952	0.0034
566.1456	0.0035
566.3393	0.001
566.5329	-0.0083
566.7264	-0.0027
566.92	-0.0062
567.1136	0.0108
567.3071	-0.0078
567.5006	0.0005
567.6941	0.0084
567.8876	-0.0026
568.0811	-0.0025
568.2745	0.0042
568.468	0.0019
568.6614	0.0035
568.8548	0.0031
569.0482	-0.0014
569.2416	0.0034
569.4349	-0.0022
569.6283	0.0023
569.8216	-0.0073
570.0149	-0.0043
570.2082	0.0081
570.4015	0.0001
570.5947	0.0103
570.788	0.0071
570.9812	0.0062
571.1744	-0.0023
571.3676	-0.0102
571.5608	0.002
571.754	0.0108
571.9471	0.0012
572.1402	0.0076
572.3333	-0.0047
572.5264	0.0012
572.7195	0.0016
572.9126	0.0057
573.1057	0.0057
573.2987	-0.0059
573.4917	0.009
573.6847	-0.0108
573.8777	0.007
574.0707	0.0036
574.2636	-0.0034
574.4566	-0.0005
574.6495	0.0054
574.8424	-0.0008
575.0353	0.0034
575.2281	0.0049
575.421	0.0021
575.6138	0.0089
575.8067	-0.0085
575.9995	-0.0009
576.1923	-0.0019
576.385	0.0002
576.5778	0.0031
576.7706	0.0044
576.9633	0.0008
577.156	0.0091
577.3487	-0.0035
577.5414	0.0017
577.734	-0.008
577.9267	0.0055
578.1193	-0.0053
578.3119	-0.0016
578.5045	0.0026
578.6971	-0.0019
578.8897	0.0016
579.0822	0.0086
579.2747	0.0036
579.4673	-0.0015
579.6598	-0.0048
579.8522	-0.0011
580.0447	-0.0105
580.2372	-0.0016
580.4296	0.0044
580.622	0.0058
580.8144	0.0045
581.0068	-0.0014
581.1992	-0.0122
581.3915	-0.0039
581.5839	-0.0031
581.7762	0.003
581.9685	-0.0005
582.1608	0.0024
582.353	-0.0028
582.5453	0.0005
582.7375	0.002
582.9298	-0.001
583.122	0.003
583.3142	0.0015
583.5063	0.0067
583.6985	-0.0027
583.8906	0.0014
584.0827	0.0022
584.2749	0.0081
584.4669	0.0038
584.659	0.0004
584.8511	0.0022
585.0431	-0.0046
585.2352	0.0017
585.4272	-0.0044
585.6192	0.0022
585.8111	-0.0036
586.0031	-0.0015
586.195	-0.0003
586.387	0.0065
586.5789	-0.0024
586.7708	0.0046
586.9627	-0.0012
587.1545	-0.0042
587.3464	0.0036
587.5382	0.0052
587.73	-0.0029
587.9218	0.0061
588.1136	0.002
588.3053	0.005
588.4971	-0.0059
588.6888	-0.0063
588.8805	0.0017
589.0722	0.0016
589.2639	0.0017
589.4556	0.0014
589.6472	0.0025
589.8389	-0.0075
590.0305	-0.0039
590.2221	0.0072
590.4137	-0.0059
590.6052	0.0142
590.7968	0.0006
590.9883	0.0014
591.1798	-0.0005
591.3713	0.0008
591.5628	-0.0011
591.7543	0.0009
591.9458	0.0003
592.1372	0.0089
592.3286	0.0051
592.52	0.0066
592.7114	-0.008
592.9028	0
593.0941	0.0001
593.2855	0.0018
593.4768	-0.0046
593.6681	-0.0045
593.8594	-0.0042
594.0506	0.0044
594.2419	0.0038
594.4331	0.0003
594.6244	0.0061
594.8156	-0.0072
595.0067	-0.0009
595.1979	0.0019
595.3891	0.003
595.5802	-0.0056
595.7713	0.0015
595.9624	0.0023
596.1535	-0.0008
596.3446	-0.0012
596.5357	0.0051
596.7267	0.0097
596.9177	-0.0022
597.1087	-0.0004
597.2997	-0.0022
597.4907	0.0027
597.6817	-0.0024
597.8726	-0.0013
598.0635	-0.0093
598.2544	0.0012
598.4453	-0.0006
598.6362	0
598.827	-0.0047
599.0179	0.0044
599.2087	0.0004
599.3995	0.0034
599.5903	-0.0052
599.7811	0.0026
599.9718	0.0012
600.1626	-0.0033
600.3533	-0.0029
600.544	0.0023
600.7347	-0.0036
600.9254	0.005
601.116	-0.008
601.3067	-0.0044
601.4973	-0.0014
601.6879	0.0012
601.8785	-0.004
602.0691	0.0068
602.2596	-0.0017
602.4502	0.0054
602.6407	0.0034
602.8312	-0.0012
603.0217	-0.0021
603.2122	-0.0002
603.4027	-0.003
603.5931	0.0023
603.7835	-0.0046
603.9739	-0.0081
604.1643	0.0035
604.3547	-0.006
604.5451	-0.0014
604.7354	-0.0066
604.9257	-0.0019
605.116	-0.0062
605.3063	0.0025
605.4966	0.0039
605.6869	0.0081
605.8771	0.0053
606.0673	0.0033
606.2575	0.0054
606.4477	0.0115
606.6379	0.0039
606.8281	0.0003
607.0182	0.0013
607.2083	0.011
607.3985	-0.0013
607.5885	-0.0025
607.7786	0.0005
607.9687	-0.0001
608.1587	0.006
608.3488	0.002
608.5388	0.0005
608.7288	-0.0023
608.9187	-0.0018
609.1087	0.0004
609.2986	-0.0007
609.4886	0.0064
609.6785	0.0028
609.8684	0.006
610.0582	0.0045
610.2481	0.0081
610.4379	0.0051
610.6278	-0.0004
610.8176	-0.0022
611.0074	-0.0113
611.1971	-0.0017
611.3869	0.001
611.5766	-0.0047
611.7664	0.0113
611.9561	0.0065
612.1458	0.0024
612.3354	-0.0093
612.5251	0.002
612.7147	0.0064
612.9044	0.0069
613.094	-0.0045
613.2836	0.0061
613.4731	0.0001
613.6627	-0.0067
613.8522	0.0053
614.0417	0.0047
614.2313	-0.0076
614.4207	-0.0042
614.6102	-0.0013
614.7997	-0.0019
614.9891	-0.0041
615.1785	-0.0017
615.3679	0.0004
615.5573	0.0175
615.7467	-0
615.9361	0.0053
616.1254	0.003
616.3147	0.0054
616.504	0.0049
616.6933	0.0042
616.8826	0.0077
617.0718	0.0111
617.2611	0.007
617.4503	0.002
617.6395	-0.0006
617.8287	0.0003
618.0179	-0.0006
618.207	0.0057
618.3961	0.0001
618.5853	0.0027
618.7744	-0.0009
618.9634	0.0047
619.1525	-0.0024
619.3416	0.0044
619.5306	0.0047
619.7196	0.0006
619.9086	-0.0008
620.0976	0.0022
620.2866	-0.0018
620.4755	0.0083
620.6645	0.0077
620.8534	0.0024
621.0423	0.0087
621.2312	0.0025
621.42	0.0077
621.6089	0.0009
621.7977	0.0052
621.9865	0.0011
622.1753	0.0129
622.3641	-0.0017
622.5529	0.0067
622.7416	0.0076
622.9303	-0.0047
623.1191	0.0103
623.3078	-0.0052
623.4964	-0.0005
623.6851	-0.0047
623.8737	0.0003
624.0624	0.0043
624.251	0.0008
624.4396	-0.0026
624.6282	-0.0073
624.8167	0.0024
625.0053	0.0016
625.1938	0.003
625.3823	0.0033
625.5708	-0.003
625.7593	-0.0103
625.9477	-0.0074
626.1362	-0.0003
626.3246	-0.0012
626.513	-0.0001
626.7014	0.0017
626.8898	-0.003
627.0781	0.0037
627.2665	-0.0002
627.4548	0.0108
627.6431	0.0032
627.8314	0.0038
628.0197	0.0099
628.2079	-0.0079
628.3962	0
628.5844	0.0059
628.7726	-0.0008
628.9608	0.0025
629.1489	0.0002
629.3371	0.0043
629.5252	-0.0023
629.7134	0.0086
629.9015	0.0041
630.0895	-0.0033
630.2776	0.0093
630.4657	0.0056
630.6537	0.0067
630.8417	-0.0037
631.0297	-0.0053
631.2177	-0.0057
631.4057	-0.0066
631.5936	0.0007
631.7815	0.0011
631.9695	-0.0011
632.1574	0.0043
632.3452	0.0127
632.5331	0.0049
632.7209	0.0001
632.9088	0.0077
633.0966	0.0084
633.2844	-0.0066
633.4722	0.0009
633.6599	0.0029
633.8477	0.0007
634.0354	0.0003
634.2231	0.0007
634.4108	-0.0003
634.5985	0.005
634.7861	0.0081
634.9738	0.0036
635.1614	0.0078
635.349	0.0062
635.5366	0.001
635.7242	0.0109
635.9117	0.008
636.0993	-0.0008
636.2868	0.0047
636.4743	-0.0006
636.6618	0.0087
636.8492	0.0024
637.0367	0.0003
637.2241	0.003
637.4115	-0.0004
637.5989	-0.0002
637.7863	-0
637.9737	-0.0032
638.161	0.002
638.3484	-0.0042
638.5357	0.0031
638.723	-0.0016
638.9103	0.006
639.0975	0.007
639.2848	0.0015
639.472	0.0005
639.6592	0.011
639.8464	0.0069
640.0336	0.0096
640.2208	-0.0033
640.4079	-0.0021
640.595	-0.0012
640.7821	0.0055
640.9692	-0.003
641.1563	0.0089
641.3434	-0.0026
641.5304	0.0024
641.7174	0.0017
641.9044	0.0058
642.0914	0.006
642.2784	0.0059
642.4653	0.0077
642.6523	-0.0029
642.8392	-0.0059
643.0261	0.0053
643.213	0.0018
643.3999	-0.0029
643.5867	-0.0038
643.7735	0.0042
643.9604	-0.0068
644.1472	0.0012
644.3339	0.0069
644.5207	-0.0011
644.7075	-0.0012
644.8942	0.008
645.0809	0.0053
645.2676	0.0091
645.4543	0.0047
645.6409	0.0077
645.8276	0.0052
646.0142	0.0079
646.2008	-0.0024
646.3874	-0.0002
646.574	-0.0002
646.7605	-0.0027
646.9471	-0.0094
647.1336	0.001
647.3201	-0.0009
647.5066	-0.0088
647.6931	0.0016
647.8795	0.0016
648.0659	0.005
648.2524	0.008
648.4388	0.0017
648.6252	0.0056
648.8115	0.0003
648.9979	0.0054
649.1842	0.0074
649.3705	0.011
649.5568	0.0058
649.7431	0.0051
649.9294	0.0047
650.1156	0.0045
650.3018	-0.005
650.488	0.0075
650.6742	0.0001
650.8604	0.0009
651.0466	-0.0013
651.2327	0.0059
651.4188	0.0021
651.6049	-0.0019
651.791	-0.0021
651.9771	0.0075
652.1632	0.0041
652.3492	0.0002
652.5352	0.0005
652.7212	-0.0026
652.9072	0.0085
653.0932	-0.0006
653.2791	-0.0007
653.465	0.0084
653.651	0.0033
653.8369	-0.0049
654.0227	0.0054
654.2086	0.0015
654.3944	0.0042
654.5803	0.0036
654.7661	0.0047
654.9519	0.0041
655.1377	-0.0048
655.3234	-0.0014
655.5092	-0.0046
655.6949	-0.0067
655.8806	-0.0075
656.0663	-0.0019
656.2519	-0.0039
656.4376	-0.0023
656.6232	0.0081
656.8088	0.0065
656.9945	0.0025
657.18	-0.0005
657.3656	0.0036
657.5511	0.0026
657.7367	-0.0018
657.9222	0.0046
658.1077	-0.0042
658.2932	0.0052
658.4786	-0.0086
658.6641	0.0004
658.8495	0.0004
659.0349	0.0012
659.2203	0.0026
659.4057	0.0033
659.591	0.0043
659.7764	-0.0043
659.9617	0.0055
660.147	-0.0034
660.3323	0.0034
660.5176	0.005
660.7028	0.0098
660.888	0.0026
661.0733	0.0015
661.2585	-0.0075
661.4436	0.0057
661.6288	-0.0033
661.8139	-0.0098
661.9991	0.0083
662.1842	-0.0059
662.3693	0.0081
662.5544	-0.0059
662.7394	-0.0037
662.9245	-0.002
663.1095	0.0023
663.2945	-0.0043
663.4795	-0.0005
663.6644	0.0065
663.8494	-0.0007
664.0343	0.0014
664.2193	-0.0045
664.4042	0.0022
664.589	-0.0082
664.7739	-0.0043
664.9587	-0.0024
665.1436	0.0024
665.3284	0.0045
665.5132	-0.0001
665.698	0.0059
665.8827	0.0034
666.0675	0.0038
666.2522	-0.0065
666.4369	-0.0002
666.6216	-0.0049
666.8063	0.0023
666.9909	0.0055
667.1756	0.0038
667.3602	-0.0008
667.5448	-0.0044
667.7294	0.008
667.9139	0.0086
668.0985	0.0077
668.283	0.0026
668.4675	0.0049
668.652	-0.0028
668.8365	0.0048
669.0209	0.0084
669.2054	0.0108
669.3898	0.0052
669.5742	0.0035
669.7586	0.0071
669.943	0.0114
670.1273	0.0077
670.3117	0.0054
670.496	0.0068
670.6803	0.0067
670.8646	0.0086
671.0488	0.0017
671.2331	0.011
671.4173	-0.003
671.6015	-0.0016
671.7857	-0.0001
671.9699	0.0017
672.1541	0.0068
672.3382	0.0046
672.5223	0.0118
672.7064	0.0071
672.8905	0.0071
673.0746	0.002
673.2587	0.0007
673.4427	0.0106
673.6267	0.0081
673.8107	0.0032
673.9947	0.0023
674.1787	0.0038
674.3626	-0.0039
674.5465	-0.0017
674.7304	0.0011
674.9143	0.0088
675.0982	0.0071
675.2821	0.0051
675.4659	0.0056
675.6497	0.0023
675.8335	0.0015
676.0173	0.0059
676.2011	0.0013
676.3849	-0.0044
676.5686	-0.0123
676.7523	-0.0042
676.936	-0.011
677.1197	0.0042
677.3034	-0.0045
677.487	0.0058
677.6706	0.0005
677.8542	0.0027
678.0378	0.0034
678.2214	0.0032
678.405	0.0009
678.5885	-0.0098
678.772	0.0015
678.9555	-0.0096
679.139	-0.0067
679.3225	-0.0029
679.5059	-0.0013
679.6894	0.0064
679.8728	0.0002
680.0562	-0.0038
680.2395	-0.0026
680.4229	-0
680.6062	0.0076
680.7896	0.0012
680.9729	-0.001
681.1562	-0.0002
681.3394	0.005
681.5227	0.0003
681.7059	0.0068
681.8891	0.007
682.0723	0.0051
682.2555	0.0036
682.4387	0.0043
682.6218	0.0013
682.805	0.0063
682.9881	0.007
683.1712	-0.002
683.3542	0.003
683.5373	0.0082
683.7203	-0.0029
683.9034	-0.0016
684.0864	-0.0044
684.2694	0.0033
684.4523	-0.0018
684.6353	-0.0054
684.8182	-0.002
685.0011	-0.0007
685.184	-0.0007
685.3669	-0.0019
685.5498	0.0011
685.7326	-0.0006
685.9154	-0.005
686.0982	0.002
686.281	0.0048
686.4638	0.0098
686.6465	-0.0031
686.8293	-0.0052
687.012	0.0011
687.1947	-0.0083
687.3774	0.0006
687.56	-0.0037
687.7427	0.0055
687.9253	-0.0017
688.1079	0.0044
688.2905	0.0091
688.4731	-0.0009
688.6556	-0.0067
688.8382	0.0057
689.0207	0.0052
689.2032	-0.0032
689.3857	-0.0047
689.5681	0.0057
689.7506	-0.0079
689.933	0.0031
690.1154	0.0008
690.2978	0.0014
690.4802	0.0075
690.6626	-0.0074
690.8449	-0.0002
691.0272	0.0059
691.2095	-0.0003
691.3918	0.0052
691.5741	0.0071
691.7563	0.0012
691.9386	0.0071
692.1208	0.0022
692.303	0.0111
692.4852	0.0041
692.6673	0.0018
692.8495	0.001
693.0316	0.0122
693.2137	0.0066
693.3958	0.0052
693.5778	0.0082
693.7599	0.0006
693.9419	0.0027
694.1239	0.0012
694.3059	-0.0033
694.4879	-0
694.6699	0.016
694.8518	0.0024
695.0337	0.0035
695.2157	-0.0013
695.3975	0.0007
695.5794	0.0026
695.7613	0.003
695.9431	0.0099
696.1249	0.0099
696.3067	0.0037
696.4885	0.0103
696.6703	-0.0016
696.852	0.0093
697.0337	0.0055
697.2154	-0.0019
697.3971	0.0068
697.5788	0.0098
697.7605	0.0008
697.9421	0.0063
698.1237	0.0014
698.3053	0.0043
698.4869	-0.0059
698.6685	-0.0039
698.85	0.0026
699.0315	0.008
699.213	0.0008
699.3945	0.0066
699.576	0.0118
699.7575	-0.0007
699.9389	0.0023
700.1203	-0.0063
700.3017	-0.003
700.4831	-0.0141
700.6645	-0.0062
700.8458	0.0099
701.0271	-0.0075
701.2084	0.0021
701.3897	0.0015
701.571	-0.0003
701.7523	-0.0021
701.9335	-0.0021
702.1147	0.0021
702.2959	0.0018
702.4771	0.0057
702.6583	0.0052
702.8394	0.0041
703.0205	0
703.2016	-0.0011
703.3827	-0.0043
703.5638	0.0101
703.7449	0.0067
703.9259	0.0123
704.1069	-0.0026
704.2879	0.0085
704.4689	0.0033
704.6499	0.0046
704.8308	0.0089
705.0117	-0.0024
705.1927	0.0017
705.3735	0.0032
705.5544	-0.0047
705.7353	-0.0015
705.9161	-0.0087
706.0969	-0.0038
706.2777	0.0023
706.4585	-0.0017
706.6393	0.0026
706.82	0.0048
707.0007	-0.001
707.1815	0
707.3621	0.0067
707.5428	0.0073
707.7235	0.0061
707.9041	-0.0011
708.0847	-0.0064
708.2653	-0.0062
708.4459	-0.0042
708.6265	-0.0026
708.807	0.004
708.9875	-0.0018
709.168	0.0041
709.3485	-0.0059
709.529	-0.0019
709.7095	-0.0089
709.8899	-0.001
710.0703	-0.0072
710.2507	-0.0024
710.4311	-0.0093
710.6115	-0.0137
710.7918	-0.0085
710.9721	0.0021
711.1524	-0.0054
711.3327	-0.0012
711.513	0.0071
711.6932	0.001
711.8735	0.0132
712.0537	0.0047
712.2339	0.0068
712.4141	-0.002
712.5942	-0.0043
712.7744	0.0058
712.9545	-0.0025
713.1346	-0.0023
713.3147	-0.0015
713.4947	0.0013
713.6748	0.0013
713.8548	-0.0033
714.0348	-0.0046
714.2148	-0.0062
714.3948	0.0055
714.5748	-0.0032
714.7547	0.002
714.9346	0.0066
715.1145	-0.0049
715.2944	-0.0073
715.4743	0.0008
715.6541	-0.001
715.834	0.0068
716.0138	-0.0029
716.1936	-0.0072
716.3733	0.0036
716.5531	0.0063
716.7328	0.0018
716.9126	0.0072
717.0923	0.0056
717.2719	0.0052
717.4516	0.0141
717.6312	0.0014
717.8109	0.0035
717.9905	0.0036
718.1701	0.0028
718.3496	0.0015
718.5292	0.0032
718.7087	0.0098
718.8882	0.0092
719.0677	0.0046
719.2472	-0.004
719.4267	-0.0014
719.6061	0.0061
719.7856	0.0073
719.965	0.0091
720.1443	0.0001
720.3237	0.0133
720.5031	0.008
720.6824	0.0047
720.8617	0.0028
721.041	0.0105
721.2203	0.0145
721.3995	-0.0001
721.5788	0.0084
721.758	0.0054
721.9372	-0.0007
722.1164	-0.0007
722.2956	0.0077
722.4747	-0.0078
722.6538	0.0049
722.8329	0.006
723.012	-0.004
723.1911	0.0024
723.3702	0.0053
723.5492	0.0006
723.7282	-0.0041
723.9072	-0.0039
724.0862	-0.0051
724.2652	-0.0055
724.4441	-0.0017
724.623	0.0071
724.8019	0.0028
724.9808	0.0026
725.1597	-0.0051
725.3385	0.0094
725.5174	0.0013
725.6962	-0.0027
725.875	0.0084
726.0538	0.0098
726.2325	-0.0003
726.4112	-0.0029
726.59	-0.0002
726.7687	-0.0042
726.9474	0.0071
727.126	-0.0031
727.3047	0.0053
727.4833	0.006
727.6619	-0.0007
727.8405	-0.0037
728.0191	-0.0002
728.1976	0.0056
728.3762	-0.0012
728.5547	-0.0058
728.7332	-0.0086
728.9116	-0.0023
729.0901	0.0028
729.2686	-0.0141
729.447	-0.0035
729.6254	0.0071
729.8038	0
729.9821	-0.0143
730.1605	0.0037
730.3388	0.0056
730.5171	0.0027
730.6954	-0.0016
730.8737	0.004
731.0519	0.0077
731.2302	0.0014
731.4084	0.0051
731.5866	-0.0009
731.7648	-0.0012
731.9429	0.0016
732.1211	-0.0084
732.2992	-0.0026
732.4773	-0.0038
732.6554	-0.0002
732.8335	-0.0032
733.0115	0.0032
733.1896	0.007
733.3676	-0.0086
733.5456	0.011
733.7235	0.0154
733.9015	-0.0063
734.0794	0.0014
734.2574	0.0006
734.4353	-0.0125
734.6131	0.006
734.791	0.0008
734.9689	0.002
735.1467	0.0023
735.3245	-0.0062
735.5023	-0.0017
735.68	-0.0052
735.8578	0.0056
736.0355	-0.0126
736.2132	-0.0055
736.3909	-0.0013
736.5686	-0.0115
736.7463	0.0059
736.9239	-0.009
737.1015	-0.0012
737.2791	0.0057
737.4567	0.0007
737.6343	-0.001
737.8118	-0.0003
737.9894	0.0084
738.1669	-0.0065
738.3444	0.0046
738.5218	0.0066
738.6993	0.0013
738.8767	-0.0011
739.0541	0.0165
739.2315	-0.0087
739.4089	-0.0038
739.5863	0.0098
739.7636	0.0036
739.9409	-0.0019
740.1182	0.007
740.2955	0.0041
740.4728	0.0015
740.65	-0.007
740.8272	-0.0012
741.0044	-0.0016
741.1816	0.0056
741.3588	0.0047
741.5359	0
741.7131	-0.0111
741.8902	0.0006
742.0673	-0.0016
742.2444	0.0015
742.4214	-0.0058
742.5985	-0.0004
742.7755	0.0027
742.9525	-0.0164
743.1295	-0.0028
743.3064	0.003
743.4834	0.0091
743.6603	0.0008
743.8372	-0.0089
744.0141	0.0101
744.191	0.0076
744.3678	-0.0029
744.5446	-0.0002
744.7215	0.0048
744.8982	-0.0015
745.075	-0.0119
745.2518	0
745.4285	0.0019
745.6052	-0.0016
745.7819	-0.0025
745.9586	-0.0091
746.1353	-0.0058
746.3119	-0.0145
746.4885	-0.0145
746.6651	-0.0051
746.8417	-0.015
747.0183	-0.0049
747.1948	-0.0081
747.3714	-0.0087
747.5479	-0.0092
747.7244	-0.0101
747.9008	-0.0001
748.0773	-0.005
748.2537	-0.0012
748.4301	-0.0082
748.6065	-0.0005
748.7829	-0.0115
748.9593	-0.005
749.1356	-0.0086
749.3119	-0.0031
749.4882	-0.0059
749.6645	0.006
749.8408	-0.0099
750.017	-0.0067
750.1933	0.0018
750.3695	-0.0121
750.5457	0.0072
750.7218	0.0001
750.898	0.0085
751.0741	0.0009
751.2502	-0.0035
751.4263	-0.0141
751.6024	-0.0017
751.7784	-0.0097
751.9545	-0.0084
752.1305	-0.0032
752.3065	-0.0085
752.4825	0.0025
752.6584	-0.0058
752.8344	-0.0076
753.0103	-0.0108
753.1862	-0.0162
753.3621	-0.0076
753.5379	-0.0088
753.7138	-0.0021
753.8896	-0.0027
754.0654	0.0011
754.2412	-0.0008
754.417	0.0064
754.5927	-0.0016
754.7685	0.0004
754.9442	-0.0041
755.1199	0.006
755.2956	0.0006
755.4712	0.0151
755.6469	-0.0029
755.8225	0.0054
755.9981	0.0087
756.1736	0.0092
756.3492	0.0076
756.5248	0.0089
756.7003	0.0057
756.8758	0.0113
757.0513	-0.0037
757.2267	0.0051
757.4022	0.0048
757.5776	0.0005
757.753	-0
757.9284	0.0016
758.1038	0.0053
758.2791	0.0003
758.4545	-0.012
758.6298	-0.001
758.8051	0.0039
758.9803	-0.0045
759.1556	-0.0083
759.3308	-0.0111
759.506	0.0075
759.6812	0.0087
759.8564	0.0045
760.0316	0.003
760.2067	0.0091
760.3819	0.006
760.557	0.0183
760.732	-0.0001
760.9071	-0.0136
761.0821	-0.0025
761.2572	0.0073
761.4322	-0.0022
761.6072	-0.0038
761.7821	-0.0081
761.9571	-0.0027
762.132	0.0033
762.3069	-0.0074
762.4818	0.0037
762.6567	0.0055
762.8316	-0.0043
763.0064	-0.0019
763.1812	0.006
763.356	-0.0084
763.5308	0.0024
763.7055	0.0064
763.8803	-0.0094
764.055	0.0019
764.2297	0.0009
764.4044	0.0038
764.579	-0.0146
764.7537	-0.0161
764.9283	0.0017
765.1029	-0.0104
765.2775	-0.0023
765.4521	-0.011
765.6266	-0.0071
765.8011	-0.0082
765.9756	-0.0001
766.1501	0.0039
766.3246	-0.0062
766.4991	-0.0059
766.6735	-0.0061
766.8479	-0.0027
767.0223	0.0146
767.1967	-0.003
767.371	-0.0079
767.5454	-0.0066
767.7197	0.0031
767.894	-0.0075
768.0683	-0.0179
768.2425	-0.0011
768.4168	-0.0087
768.591	-0.005
768.7652	-0.0115
768.9394	-0.0062
769.1135	-0.0062
769.2877	-0.0011
769.4618	-0.0086
769.6359	-0.0029
769.81	0.0031
769.984	-0.008
770.1581	-0.0081
770.3321	-0.0005
770.5061	-0.0055
770.6801	-0.0058
770.8541	0.0027
771.028	0.0007
771.202	-0.0128
771.3759	0.0057
771.5498	-0.0024
771.7236	-0.0088
771.8975	-0.0044
772.0713	-0.0056
772.2451	0.0039
772.4189	0.0042
772.5927	0.0028
772.7665	-0.0002
772.9402	-0.0077
773.1139	0.0028
773.2876	-0.0044
773.4613	0.0028
773.635	0.0075
773.8086	-0.015
773.9822	0.0015
774.1558	0.0056
774.3294	-0.0167
774.503	-0.0056
774.6765	0.0005
774.8501	-0.0024
775.0236	-0.0001
775.1971	0.0055
775.3705	-0.0129
775.544	-0.0055
775.7174	-0.0139
775.8908	0.0047
776.0642	-0.0066
776.2376	-0.0023
776.4109	-0.0093
776.5843	0.0071
776.7576	0.0097
776.9309	-0.0017
777.1041	0.0039
777.2774	0.0024
777.4506	-0.0003
777.6238	-0.0009
777.797	0.0041
777.9702	0.0017
778.1434	0.0029
778.3165	-0.0125
778.4896	0.0015
778.6627	0.0087
778.8358	0.0015
779.0089	-0.0045
779.1819	-0.0046
779.3549	0.0055
779.5279	0.0031
779.7009	0.0008
779.8739	-0.003
780.0468	-0.0024
780.2197	-0.0022
780.3926	-0.0097
780.5655	-0.0079
780.7384	0.0002
780.9112	-0.0029
781.0841	-0.0114
781.2569	-0.0015
781.4297	-0.0014
781.6024	0.0017
781.7752	-0.0055
781.9479	0.0067
782.1206	-0.0006
782.2933	-0.0171
782.466	0.0036
782.6386	0.0012
782.8113	0.0111
782.9839	0.0035
783.1565	0.0223
783.329	0.0099
783.5016	0.0092
783.6741	0.0008
783.8466	0.0013
784.0191	0.0074
784.1916	0.0032
784.3641	0.0058
784.5365	0.0053
784.7089	-0.0018
784.8813	-0.0051
785.0537	-0.003
785.2261	0.0051
785.3984	-0.0249
785.5707	-0.0083
785.743	0.0001
785.9153	-0.0071
786.0876	-0.008
786.2598	-0.0116
786.432	-0.0236
786.6042	0.0019
786.7764	-0.0045
786.9486	-0.0035
787.1207	-0.019
787.2928	-0.0019
787.4649	0.0034
787.637	0.0109
787.8091	-0.0101
787.9811	-0.0062
788.1532	-0.0132
788.3252	-0.0016
788.4972	0.0001
788.6691	0.0019
788.8411	-0.0068
789.013	-0.0085
789.1849	0.0064
789.3568	0.0001
789.5287	-0.0029
789.7005	-0.0035
789.8723	-0.0031
790.0442	0.0058
790.2159	0.0065
790.3877	-0.0048
790.5595	-0.0149
790.7312	-0.0016
790.9029	-0.005
791.0746	-0.0044
791.2463	-0.0137
791.4179	-0.005
791.5896	-0.005
791.7612	0.004
791.9328	0.0106
792.1044	-0.0111
792.2759	-0.0077
792.4474	0.0012
792.619	0.0049
792.7905	0.0129
792.9619	0.006
793.1334	0.0079
793.3048	0.0143
793.4762	0.0043
793.6476	0.0035
793.819	-0.0075
793.9904	0.0109
794.1617	-0.0191
794.333	-0.0125
794.5043	-0.0129
794.6756	-0.0035
794.8469	-0.0053
795.0181	0.0178
795.1893	-0.0047
795.3605	0.0043
795.5317	0.0058
795.7029	-0.0015
795.874	0.0033
796.0452	-0.007
796.2163	0.0091
796.3873	0.0144
796.5584	0.007
796.7294	0.0017
796.9005	0.0108
797.0715	0.0162
797.2425	-0.0033
797.4134	0.0003
797.5844	0.0257
797.7553	-0.0092
797.9262	0.0021
798.0971	-0.008
798.2679	0.0061
798.4388	-0.022
798.6096	-0.0009
798.7804	-0.0057
798.9512	-0.0051
799.122	-0.0126
799.2927	-0.0001
799.4635	-0.0016
799.6342	-0.0238
799.8049	-0.0133
799.9755	-0.0126
800.1462	0.0057
800.3168	0.0124
800.4874	-0.0051
800.658	0.0131
800.8286	0.0062
800.9991	0.0067
801.1696	0.0062
801.3402	0.0067
801.5106	0.0003
801.6811	0.0035
801.8516	0.0219
802.022	0.0028
802.1924	-0.0026
802.3628	0.0179
802.5332	0.0244
802.7035	0.0247
802.8739	0.0039
803.0442	-0.0133
803.2145	0.0178
803.3847	-0.0147
803.555	-0.0071
803.7252	-0.0106
803.8954	-0.0134
804.0656	-0.0061
804.2358	-0.01
804.4059	0.0071
804.5761	0.0042
804.7462	0.0094
804.9163	-0.001
805.0864	-0.0193
805.2564	-0.0205
805.4264	0.0101
805.5965	-0.0079
805.7665	-0.0061
805.9364	0.003
806.1064	0.0376
806.2763	0.0109
806.4462	0.027
806.6161	0.0171
806.786	0.0062
806.9559	0.0008
807.1257	0.0157
807.2955	-0.0057
807.4653	-0.0129
807.6351	-0.0134
807.8048	-0.0094
807.9746	0.0013
808.1443	0.0001
808.314	0.0001
808.4837	-0.0165
808.6533	0.0032
808.8229	0.0107
808.9926	-0.0051
809.1622	0.0003
809.3317	0.0134
809.5013	-0.0019
809.6708	0.0178
809.8403	0.0113
810.0098	-0.0029
810.1793	-0.0029
810.3488	0.0082
810.5182	-0.0085
810.6876	0.0052
810.857	-0.011
811.0264	0.039
811.1958	0.0217
811.3651	0.0099
811.5344	0.0012
811.7037	-0.0179
811.873	-0.0114
812.0422	0.0027
812.2115	-0.0063
812.3807	0.0041
812.5499	0.0299
812.7191	0.0066
812.8882	-0.0013
813.0574	0.0079
813.2265	-0.0053
813.3956	-0.0103
813.5646	-0.0121
813.7337	-0.0082
813.9027	0.0001
814.0718	0.0212
814.2407	-0.0015
814.4097	-0.0074
814.5787	0.0045
814.7476	-0.0069
814.9165	-0.009
815.0854	0.0007
815.2543	-0.0005
815.4232	-0.0242
815.592	0.0187
815.7608	-0.0055
815.9296	0.004
816.0984	0.0048
816.2671	-0.0268
816.4359	-0.0254
816.6046	-0.0242
816.7733	-0.0131
816.942	-0.007
817.1106	0.0176
817.2793	0.0064
817.4479	0.0126
817.6165	0.0014
817.785	-0.0024
817.9536	0.0008
818.1221	0.0053
818.2906	-0.0056
818.4591	-0.0234
818.6276	-0.0076
818.7961	0.0081
818.9645	-0.0136
819.1329	-0.0101
819.3013	0.0029
819.4697	0.0374
819.638	0.0123
819.8064	0.0119
819.9747	0.0259
820.143	0.01
820.3113	-0.0222
820.4795	0.0147
820.6477	-0.0016
820.816	0.0037
820.9842	0.007
821.1523	-0.0056
821.3205	-0.0118
821.4886	0.0078
821.6567	0.0188
821.8248	0.0153
821.9929	0.0152
822.1609	-0.0106
822.329	0.0229
822.497	0.0184
822.665	0.0061
822.833	-0.0199
823.0009	0.0292
823.1688	0.0036
823.3367	0.021
823.5046	0.0185
823.6725	0.017
823.8404	0.0109
824.0082	0.0041
824.176	0.022
824.3438	0.038
824.5116	-0.0073
824.6793	0.0173
824.847	-0.0208
825.0147	0.0101
825.1824	0.0055
825.3501	0.0187
825.5177	-0.0112
825.6854	-0.0079
825.853	-0.0246
826.0206	-0.033
826.1881	-0.0171
826.3557	-0.0417
826.5232	0.017
826.6907	-0.0264
826.8582	-0.0171
827.0257	-0.0314
827.1931	0.0089
827.3605	-0.0214
827.528	-0.0104
827.6953	-0.0088
827.8627	0.0106
828.03	0.0031
828.1974	-0.004
828.3647	-0.0392
828.532	0.0112
828.6992	-0.0124
828.8665	-0.0262
829.0337	-0.0103
829.2009	0.0052
829.3681	0.0038
829.5352	0.0233
829.7024	-0.0046
829.8695	-0.0211
830.0366	0.0457
830.2037	-0.0043
830.3707	0.0325
830.5378	-0.0201
830.7048	-0.0009
830.8718	0.0174
831.0388	-0.0324
831.2057	-0.0003
831.3727	0.0428
831.5396	-0.0326
831.7065	-0.0015
831.8734	-0.0083
832.0402	-0.0167
832.2071	-0.0043
832.3739	-0.0243
832.5407	-0.0033
832.7075	0.0207
832.8742	-0.0277
833.041	-0.0312
833.2077	-0.001
833.3744	0.0283
833.541	-0.004
833.7077	0.004
833.8743	-0.0258
834.0409	-0.0016
834.2075	-0.0067
834.3741	0.0015
834.5407	-0.0154
834.7072	-0.0079
834.8737	-0.0267
835.0402	-0.0037
835.2067	0.0339
835.3731	0.0009
835.5395	0.01
835.706	0.0201
835.8723	-0.0262
836.0387	0.0023
836.2051	-0.0188
836.3714	0.0107
836.5377	0.0244
836.704	-0.0068
836.8703	0.0152
837.0365	0.0137
837.2027	-0.0019
837.3689	-0.0065
837.5351	0.0109
837.7013	-0.0547
837.8674	-0.0414
838.0335	-0.0587
838.1997	-0.018
838.3657	-0.0424
838.5318	-0.0286
838.6978	0.0426
838.8639	-0.0071
839.0299	-0.0165
839.1958	-0.0357
839.3618	-0.0382
839.5277	-0.023
839.6937	0.0095
839.8596	-0.0183
840.0254	0.0475
840.1913	0.0383
840.3571	-0.0109
840.523	0.0368
840.6888	0.0051
840.8545	-0.0347
841.0203	0.0514
841.186	0.0223
841.3517	0.0085
841.5174	-0.0083
841.6831	0.0051
841.8488	-0.0023
842.0144	-0.0105
842.18	0.0021
842.3456	0.0295
842.5112	0.0255
842.6767	-0.0514
842.8422	-0.0335
843.0077	-0.0118
843.1732	-0.049
843.3387	-0.0302
843.5042	-0.0715
843.6696	0.0115
843.835	0.0226
844.0004	0.0664
844.1657	0.0338
844.3311	-0.0577
844.4964	-0.0149
844.6617	-0.0265
844.827	-0.0405
844.9923	0.0362
845.1575	-0.036
845.3227	-0.0318
845.4879	-0.0393
845.6531	-0.0087
845.8183	-0.0422
845.9834	-0.0238
846.1485	0.0194
846.3136	-0.0372
846.4787	-0.0549
846.6438	0.0717
846.8088	0.0134
846.9738	-0.0837
847.1388	0.012
847.3038	-0.0039
847.4687	-0.1406
847.6337	0.0071
847.7986	-0.0472
847.9635	-0.0265
848.1284	0.059
848.2932	0.0747
848.458	-0.0061
848.6228	0.0812
848.7876	0.0608
848.9524	-0.0404
849.1172	-0.052
849.2819	-0.0594
849.4466	-0.1476
849.6113	-0.0522
849.7759	0.0496
849.9406	-0.0194
850.1052	0.0283
850.2698	-0.0477
850.4344	0.0128
850.599	-0.0242
850.7635	0.0173
850.928	0.0051
851.0925	0.0327
851.257	0.0378
851.4215	0.0385
851.5859	-0.0184
851.7503	0.0459
851.9147	0.0367
852.0791	-0.0085
852.2434	-0.1093
852.4078	0.0125
852.5721	0.0485
852.7364	-0.0564
852.9007	-0.1673
853.0649	-0.0108
853.2291	-0.066
853.3934	0.0296
853.5575	0.0463
853.7217	-0.0607
853.8859	-0.158
854.05	-0.0418
854.2141	-0.0596
854.3782	-0.0421
854.5423	-0.1266
854.7063	0.0754
854.8703	0.0152
855.0343	-0.0018
855.1983	-0.2264
855.3623	0.0386
855.5262	-0.0255
855.6901	-0.0274
855.854	0.0156
856.0179	0.0404
856.1818	0.1102
856.3456	-0.0588
856.5094	-0.1394
856.6732	0.0247
856.837	-0.1021
857.0008	0.0069
857.1645	0.0136
857.3282	-0.2967
857.4919	0.2008
857.6556	-0.0838
857.8192	0.1222
857.9828	0.0069
858.1465	0.1902
858.31	-0.1165
858.4736	-0.1712
858.6372	-0.3138
858.8007	-0.1465
858.9642	0.0878
859.1277	-0.0205
859.2911	-0.0206
859.4546	-0.0238
859.618	-0.3497
859.7814	0.059
859.9448	0.0625
860.1081	-0.0971
860.2715	0.102
860.4348	0.1858
860.5981	-0.0678
860.7614	0.2817
860.9246	0.0987
861.0879	-0.1444
861.2511	0.0013
861.4143	-0.1761
861.5774	0.1998
861.7406	0.0102
861.9037	-0.0254
862.0668	-0.139
862.2299	-0.1278
862.393	-0.5087
862.556	-0.1892
862.7191	-0.2543
862.8821	-0.2428
863.0451	0.1682
863.208	0.0232
863.371	0.1024
863.5339	-0.3034
863.6968	0.0223
863.8597	-0.0177
864.0225	-0.0935
864.1854	-0.1482
864.3482	-0
864.511	0.0482
864.6737	-0.0471
864.8365	-0.0851
864.9992	-0.1028
865.1619	0.0374
865.3246	0.1039
865.4873	0.0491
865.65	-0
865.8126	-0.0762
865.9752	0.0604
866.1378	-0.1721
866.3004	-0
866.4629	0.2624
866.6254	-0.0209
866.7879	-0.0836
866.9504	-0
867.1129	-0
867.2753	-0.05
867.4377	0.1373
867.6001	-0.2539
867.7625	-0.0915
867.9249	-0
868.0872	0.0496
868.2495	-0.0035
868.4118	0.2005
868.5741	-0.5752
868.7363	0.0062
868.8986	1.0162
869.0608	-0.1302
869.223	0.1941
869.3851	0.1582
869.5473	-0
869.7094	0.3147
869.8715	0.0151
870.0336	-0
870.1957	-0.6029
870.3577	-0
870.5197	0.0496
870.6817	0.3836
870.8437	-0.0654
871.0057	-0.4953
871.1676	-0.4663
871.3295	-0.3176
871.4914	-0
871.6533	-0.3037
871.8151	-0.0644
871.977	0.0974
872.1388	-0
872.3006	0.3882
872.4623	0.2334
872.6241	0.3154
872.7858	0.0966
872.9475	-0.2255
873.1092	-0.0215
873.2709	-0
873.4325	-0.0308
873.5941	-0.2691
873.7557	-0
873.9173	-0.4125
874.0789	-0
874.2404	-0
874.4019	-0
874.5634	0.1228
874.7249	-0.0879
874.8863	0.1343
875.0478	-0
875.2092	-0
875.3706	-0.0688
875.5319	-0.802
875.6933	0.5627
875.8546	-0.4229
876.0159	-0
876.1772	-0
876.3385	-0
876.4997	-0
876.6609	-0.4644
876.8221	-0.6833
876.9833	0.1879
877.1445	-0
877.3056	0.0598
877.4667	-0.4533
877.6278	-0
877.7889	-0.1761
877.9499	-1.0138
878.111	-0
878.272	-0
878.433	0.2405
878.5939	-0
878.7549	0.2413
878.9158	-0.4251
879.0767	0.9628
879.2376	1.0104
879.3984	-0.1478
879.5593	-0
879.7201	0.3343
879.8809	0.1179
880.0417	-0.1761
880.2024	0.5571
880.3632	-0
880.5239	-0
880.6846	0.3648
880.8452	-2.4289
881.0059	-1.4814
881.1665	-0.0715
881.3271	0.361
881.4877	0.0652
881.6483	0.5454
881.8088	-0.3251
881.9693	0.0813
882.1298	0.0813
882.2903	0.0813
