Data from MonoPyChalIsomerACN10uM350nmA_Absorbance_14-35-32-715.txt Node
Date: Fri Jul 05 14:35:32 BST 2024
User: LASERRRRR
Spectrometer: FLMT03099
Trigger mode: 0
Integration Time (sec): 1.000000E-1
Scans to average: 1
Electric dark correction enabled: true
Nonlinearity correction enabled: false
Boxcar width: 0
XAxis mode: Wavelengths
Number of Pixels in Spectrum: 3648
>>>>>Begin Spectral Data<<<<<
179.3399	-0.4446
179.5586	-0.4446
179.7771	-0.4446
179.9957	-0.1265
180.2143	-0
180.4329	0.2841
180.6514	-0.1372
180.8699	-0
181.0885	0.3312
181.307	-0.0582
181.5255	-0
181.744	-0.5441
181.9625	-0.3232
182.181	-0
182.3994	-0.0445
182.6179	-0
182.8363	-0.1326
183.0547	1.1461
183.2732	-0.106
183.4916	0.052
183.71	0.2325
183.9284	-0.004
184.1467	0.163
184.3651	0.0004
184.5835	-0.0344
184.8018	0.0617
185.0201	0.1236
185.2385	0.1443
185.4568	0.0556
185.6751	0.0693
185.8934	0.4345
186.1117	0.0824
186.3299	0.2305
186.5482	0.1674
186.7664	-0.0897
186.9847	0.0696
187.2029	0.1154
187.4211	0.1326
187.6393	1.4257
187.8575	-0.017
188.0757	0.1762
188.2939	0.1643
188.512	0.4531
188.7302	0.2162
188.9483	0.0406
189.1665	0.1982
189.3846	-0
189.6027	0.0878
189.8208	0.3183
190.0389	0.1439
190.257	0.0818
190.475	0.576
190.6931	0.173
190.9111	0.657
191.1292	0.1125
191.3472	0.3212
191.5652	0.4864
191.7832	0.2558
192.0012	0.4022
192.2192	0.5379
192.4371	0.5053
192.6551	0.3491
192.873	0.3145
193.091	0.3808
193.3089	0.4561
193.5268	0.5205
193.7447	0.6437
193.9626	0.6867
194.1805	0.7806
194.3984	0.887
194.6162	0.4592
194.8341	0.7352
195.0519	0.5495
195.2697	0.7602
195.4875	0.9488
195.7054	0.5557
195.9231	0.6229
196.1409	0.4938
196.3587	0.605
196.5765	0.4637
196.7942	0.5385
197.012	0.6391
197.2297	0.5912
197.4474	0.652
197.6651	0.4429
197.8828	0.6279
198.1005	0.531
198.3182	0.5846
198.5358	0.891
198.7535	0.6738
198.9711	0.5016
199.1888	0.6565
199.4064	0.8787
199.624	0.649
199.8416	0.577
200.0592	0.7249
200.2767	0.5283
200.4943	0.7213
200.7119	0.7666
200.9294	0.6695
201.1469	0.5512
201.3645	0.6548
201.582	0.6988
201.7995	0.6099
202.017	0.6424
202.2344	0.5796
202.4519	0.6031
202.6694	0.7494
202.8868	0.5744
203.1042	0.8327
203.3217	0.8315
203.5391	0.6831
203.7565	0.6503
203.9739	0.6059
204.1913	0.5288
204.4086	0.5839
204.626	0.6661
204.8433	0.6445
205.0607	0.6634
205.278	0.7449
205.4953	0.642
205.7126	0.708
205.9299	0.6756
206.1472	0.7091
206.3644	0.622
206.5817	0.7341
206.7989	0.6685
207.0162	0.6802
207.2334	0.6864
207.4506	0.6936
207.6678	0.6598
207.885	0.7033
208.1022	0.6016
208.3194	0.6812
208.5365	0.6239
208.7537	0.6635
208.9708	0.5648
209.1879	0.6013
209.405	0.6325
209.6222	0.6229
209.8392	0.7175
210.0563	0.553
210.2734	0.7159
210.4905	0.6733
210.7075	0.6369
210.9245	0.5684
211.1416	0.7039
211.3586	0.6175
211.5756	0.6129
211.7926	0.6083
212.0096	0.5596
212.2265	0.5298
212.4435	0.5486
212.6604	0.6001
212.8774	0.6066
213.0943	0.5512
213.3112	0.5413
213.5281	0.5245
213.745	0.4649
213.9619	0.5059
214.1788	0.4928
214.3956	0.4656
214.6125	0.4756
214.8293	0.5073
215.0461	0.4901
215.2629	0.4346
215.4798	0.4482
215.6965	0.4212
215.9133	0.4632
216.1301	0.4114
216.3469	0.4572
216.5636	0.4168
216.7803	0.3911
216.9971	0.3999
217.2138	0.4035
217.4305	0.3606
217.6472	0.3532
217.8639	0.3813
218.0805	0.3645
218.2972	0.3484
218.5138	0.3445
218.7305	0.3316
218.9471	0.3251
219.1637	0.2534
219.3803	0.2945
219.5969	0.2928
219.8135	0.283
220.0301	0.2745
220.2466	0.2865
220.4632	0.2568
220.6797	0.2347
220.8962	0.231
221.1127	0.2558
221.3292	0.2492
221.5457	0.2264
221.7622	0.2327
221.9787	0.2394
222.1951	0.214
222.4116	0.2674
222.628	0.2555
222.8444	0.2655
223.0608	0.26
223.2772	0.2497
223.4936	0.25
223.71	0.2381
223.9264	0.2753
224.1427	0.2428
224.3591	0.2469
224.5754	0.2842
224.7917	0.2674
225.008	0.2546
225.2243	0.2633
225.4406	0.3038
225.6569	0.2665
225.8732	0.2796
226.0894	0.2637
226.3057	0.2531
226.5219	0.2965
226.7381	0.2726
226.9543	0.2796
227.1705	0.2827
227.3867	0.3116
227.6029	0.2993
227.8191	0.2893
228.0352	0.3073
228.2513	0.3223
228.4675	0.3111
228.6836	0.3222
228.8997	0.2952
229.1158	0.2878
229.3319	0.328
229.548	0.308
229.764	0.3202
229.9801	0.3234
230.1961	0.3312
230.4121	0.3508
230.6282	0.3382
230.8442	0.3178
231.0602	0.35
231.2761	0.3413
231.4921	0.3488
231.7081	0.3484
231.924	0.3397
232.14	0.3813
232.3559	0.3418
232.5718	0.3748
232.7877	0.3544
233.0036	0.3515
233.2195	0.3561
233.4353	0.3791
233.6512	0.3566
233.867	0.3752
234.0829	0.3514
234.2987	0.369
234.5145	0.3781
234.7303	0.3775
234.9461	0.4043
235.1619	0.3718
235.3776	0.355
235.5934	0.3698
235.8091	0.3787
236.0249	0.3795
236.2406	0.3793
236.4563	0.3754
236.672	0.4102
236.8877	0.392
237.1034	0.4023
237.319	0.3862
237.5347	0.4009
237.7503	0.4074
237.966	0.4107
238.1816	0.4129
238.3972	0.4011
238.6128	0.4021
238.8284	0.4087
239.0439	0.4194
239.2595	0.4051
239.475	0.4212
239.6906	0.4168
239.9061	0.3957
240.1216	0.4029
240.3371	0.4007
240.5526	0.3992
240.7681	0.4027
240.9836	0.3938
241.199	0.3902
241.4145	0.3717
241.6299	0.3679
241.8453	0.3817
242.0607	0.3697
242.2761	0.3678
242.4915	0.3634
242.7069	0.3554
242.9223	0.3297
243.1376	0.3347
243.353	0.3266
243.5683	0.3193
243.7836	0.3219
243.9989	0.3322
244.2142	0.3007
244.4295	0.3035
244.6448	0.307
244.86	0.293
245.0753	0.2856
245.2905	0.2914
245.5057	0.2572
245.721	0.2835
245.9362	0.2564
246.1514	0.2677
246.3665	0.2562
246.5817	0.2508
246.7969	0.2525
247.012	0.2342
247.2271	0.2553
247.4423	0.2452
247.6574	0.2332
247.8725	0.2308
248.0876	0.2175
248.3026	0.2142
248.5177	0.2154
248.7328	0.2017
248.9478	0.2035
249.1628	0.2026
249.3779	0.2137
249.5929	0.1952
249.8079	0.2141
250.0228	0.1967
250.2378	0.1966
250.4528	0.1996
250.6677	0.1891
250.8827	0.1852
251.0976	0.1908
251.3125	0.1794
251.5274	0.1857
251.7423	0.1805
251.9572	0.1818
252.172	0.1686
252.3869	0.1695
252.6017	0.177
252.8166	0.1663
253.0314	0.1718
253.2462	0.1651
253.461	0.1713
253.6758	0.1675
253.8906	0.1702
254.1053	0.182
254.3201	0.1569
254.5348	0.1787
254.7496	0.1789
254.9643	0.1654
255.179	0.1635
255.3937	0.1624
255.6083	0.1819
255.823	0.1784
256.0377	0.1773
256.2523	0.1634
256.467	0.1554
256.6816	0.1786
256.8962	0.1594
257.1108	0.1435
257.3254	0.1715
257.54	0.167
257.7545	0.176
257.9691	0.1735
258.1836	0.1674
258.3981	0.175
258.6127	0.1817
258.8272	0.1661
259.0417	0.1667
259.2561	0.1604
259.4706	0.1548
259.6851	0.1633
259.8995	0.1544
260.114	0.1632
260.3284	0.1626
260.5428	0.1464
260.7572	0.1686
260.9716	0.1703
261.186	0.1511
261.4003	0.1533
261.6147	0.1636
261.829	0.1616
262.0433	0.1547
262.2577	0.163
262.472	0.1637
262.6863	0.1612
262.9005	0.1687
263.1148	0.1623
263.3291	0.1483
263.5433	0.1615
263.7576	0.1663
263.9718	0.1726
264.186	0.1413
264.4002	0.1629
264.6144	0.1621
264.8286	0.1761
265.0427	0.1484
265.2569	0.1561
265.471	0.1554
265.6851	0.1607
265.8993	0.1603
266.1134	0.1479
266.3275	0.1485
266.5415	0.1578
266.7556	0.1646
266.9697	0.1622
267.1837	0.1625
267.3978	0.1529
267.6118	0.1768
267.8258	0.172
268.0398	0.1501
268.2538	0.1751
268.4677	0.1512
268.6817	0.1678
268.8957	0.1501
269.1096	0.1582
269.3235	0.1529
269.5374	0.1476
269.7514	0.1522
269.9652	0.146
270.1791	0.1505
270.393	0.1298
270.6068	0.1454
270.8207	0.1443
271.0345	0.1434
271.2483	0.1507
271.4622	0.1421
271.676	0.1442
271.8897	0.1396
272.1035	0.1402
272.3173	0.133
272.531	0.1464
272.7448	0.1416
272.9585	0.1398
273.1722	0.1262
273.3859	0.1443
273.5996	0.1283
273.8133	0.144
274.0269	0.1274
274.2406	0.1234
274.4542	0.1426
274.6679	0.1217
274.8815	0.1393
275.0951	0.1355
275.3087	0.1359
275.5223	0.144
275.7358	0.136
275.9494	0.1348
276.1629	0.1305
276.3765	0.1353
276.59	0.1403
276.8035	0.1315
277.017	0.1302
277.2305	0.1308
277.444	0.1415
277.6574	0.1337
277.8709	0.149
278.0843	0.137
278.2978	0.1474
278.5112	0.136
278.7246	0.1324
278.938	0.1356
279.1513	0.1527
279.3647	0.1494
279.5781	0.1366
279.7914	0.1495
280.0047	0.15
280.2181	0.1369
280.4314	0.155
280.6447	0.1377
280.8579	0.1501
281.0712	0.1418
281.2845	0.1537
281.4977	0.1361
281.711	0.1357
281.9242	0.1483
282.1374	0.1459
282.3506	0.1425
282.5638	0.1508
282.7769	0.1537
282.9901	0.1445
283.2033	0.1525
283.4164	0.1511
283.6295	0.1428
283.8426	0.1529
284.0557	0.1493
284.2688	0.16
284.4819	0.1478
284.695	0.1507
284.908	0.1603
285.1211	0.1431
285.3341	0.1498
285.5471	0.1623
285.7601	0.1557
285.9731	0.1485
286.1861	0.1399
286.3991	0.1538
286.612	0.1596
286.825	0.157
287.0379	0.1647
287.2508	0.1543
287.4637	0.1681
287.6766	0.1583
287.8895	0.1655
288.1024	0.1782
288.3152	0.1582
288.5281	0.1572
288.7409	0.1609
288.9538	0.1619
289.1666	0.1656
289.3794	0.1722
289.5922	0.1602
289.8049	0.1675
290.0177	0.1643
290.2304	0.1606
290.4432	0.1621
290.6559	0.1588
290.8686	0.1692
291.0813	0.1655
291.294	0.1708
291.5067	0.1717
291.7194	0.1718
291.932	0.1733
292.1447	0.1679
292.3573	0.1651
292.5699	0.1849
292.7825	0.1733
292.9951	0.1681
293.2077	0.1687
293.4203	0.1675
293.6328	0.1617
293.8454	0.1698
294.0579	0.1699
294.2704	0.167
294.4829	0.1593
294.6954	0.1694
294.9079	0.1623
295.1204	0.173
295.3328	0.173
295.5453	0.171
295.7577	0.1662
295.9701	0.1585
296.1825	0.1622
296.3949	0.1726
296.6073	0.1562
296.8197	0.1622
297.0321	0.1661
297.2444	0.1537
297.4567	0.1646
297.6691	0.1687
297.8814	0.163
298.0937	0.1639
298.306	0.1768
298.5182	0.1708
298.7305	0.17
298.9428	0.1596
299.155	0.1756
299.3672	0.1696
299.5794	0.1614
299.7916	0.1703
300.0038	0.1742
300.216	0.177
300.4282	0.1814
300.6403	0.1589
300.8525	0.1684
301.0646	0.1563
301.2767	0.1648
301.4888	0.1642
301.7009	0.1727
301.913	0.1784
302.125	0.1671
302.3371	0.1583
302.5491	0.1551
302.7612	0.1792
302.9732	0.1671
303.1852	0.1667
303.3972	0.17
303.6092	0.1501
303.8211	0.1572
304.0331	0.1637
304.245	0.1584
304.457	0.1515
304.6689	0.1495
304.8808	0.1711
305.0927	0.1531
305.3046	0.1579
305.5164	0.1528
305.7283	0.1513
305.9401	0.1449
306.152	0.1436
306.3638	0.1526
306.5756	0.1426
306.7874	0.1476
306.9992	0.1543
307.2109	0.1373
307.4227	0.1302
307.6344	0.1433
307.8462	0.133
308.0579	0.1393
308.2696	0.1452
308.4813	0.1321
308.693	0.1331
308.9046	0.1315
309.1163	0.1346
309.328	0.1319
309.5396	0.1206
309.7512	0.1294
309.9628	0.12
310.1744	0.1195
310.386	0.125
310.5976	0.1172
310.8091	0.1187
311.0207	0.1231
311.2322	0.1147
311.4437	0.104
311.6552	0.1152
311.8667	0.1117
312.0782	0.0941
312.2897	0.0987
312.5012	0.1091
312.7126	0.1012
312.924	0.1056
313.1355	0.1111
313.3469	0.1044
313.5583	0.1162
313.7696	0.0968
313.981	0.0975
314.1924	0.1004
314.4037	0.0996
314.6151	0.104
314.8264	0.0881
315.0377	0.0838
315.249	0.1003
315.4603	0.1035
315.6716	0.0965
315.8828	0.0966
316.0941	0.0924
316.3053	0.0933
316.5165	0.0956
316.7277	0.0878
316.9389	0.0978
317.1501	0.0909
317.3613	0.0832
317.5724	0.0805
317.7836	0.0858
317.9947	0.0925
318.2058	0.089
318.417	0.0805
318.6281	0.0831
318.8391	0.0887
319.0502	0.0885
319.2613	0.0898
319.4723	0.0937
319.6834	0.0947
319.8944	0.0879
320.1054	0.0965
320.3164	0.0973
320.5274	0.0914
320.7383	0.0819
320.9493	0.0923
321.1602	0.0886
321.3712	0.0787
321.5821	0.0907
321.793	0.0916
322.0039	0.0914
322.2148	0.0821
322.4257	0.0972
322.6365	0.1058
322.8474	0.0931
323.0582	0.0895
323.269	0.1005
323.4798	0.1016
323.6906	0.1002
323.9014	0.1014
324.1122	0.0897
324.3229	0.0946
324.5337	0.1028
324.7444	0.0805
324.9551	0.0976
325.1658	0.0944
325.3765	0.0999
325.5872	0.0927
325.7979	0.0943
326.0085	0.0961
326.2192	0.0883
326.4298	0.1045
326.6404	0.0858
326.851	0.0921
327.0616	0.0869
327.2722	0.0937
327.4828	0.1075
327.6933	0.0946
327.9039	0.1064
328.1144	0.1028
328.3249	0.1136
328.5354	0.0992
328.7459	0.0965
328.9564	0.0878
329.1669	0.0982
329.3773	0.0868
329.5878	0.0967
329.7982	0.1009
330.0086	0.0973
330.219	0.0959
330.4294	0.0937
330.6398	0.0964
330.8502	0.0884
331.0605	0.1069
331.2708	0.1044
331.4812	0.1134
331.6915	0.1104
331.9018	0.1053
332.1121	0.1042
332.3224	0.104
332.5326	0.107
332.7429	0.0963
332.9531	0.1169
333.1633	0.1029
333.3735	0.1096
333.5837	0.1004
333.7939	0.1004
334.0041	0.1226
334.2143	0.1161
334.4244	0.1022
334.6346	0.0853
334.8447	0.1133
335.0548	0.0953
335.2649	0.0935
335.475	0.1045
335.685	0.0982
335.8951	0.1117
336.1051	0.1092
336.3152	0.1036
336.5252	0.105
336.7352	0.1084
336.9452	0.1152
337.1552	0.1088
337.3652	0.088
337.5751	0.1006
337.7851	0.1039
337.995	0.0812
338.2049	0.1044
338.4148	0.1068
338.6247	0.1062
338.8346	0.0974
339.0445	0.1016
339.2543	0.1049
339.4642	0.1041
339.674	0.0978
339.8838	0.1026
340.0936	0.111
340.3034	0.119
340.5132	0.1146
340.7229	0.1195
340.9327	0.1126
341.1424	0.1109
341.3522	0.1142
341.5619	0.1185
341.7716	0.1124
341.9813	0.122
342.1909	0.1093
342.4006	0.1244
342.6102	0.117
342.8199	0.1175
343.0295	0.1203
343.2391	0.121
343.4487	0.1157
343.6583	0.1188
343.8679	0.1225
344.0774	0.1227
344.287	0.1214
344.4965	0.1104
344.706	0.1258
344.9155	0.1085
345.125	0.1266
345.3345	0.1263
345.544	0.1227
345.7534	0.1191
345.9629	0.1278
346.1723	0.1181
346.3817	0.1095
346.5911	0.1199
346.8005	0.1275
347.0099	0.1173
347.2193	0.1361
347.4286	0.1217
347.638	0.1374
347.8473	0.129
348.0566	0.1293
348.2659	0.1348
348.4752	0.1347
348.6845	0.1195
348.8937	0.1289
349.103	0.1392
349.3122	0.1219
349.5214	0.1318
349.7306	0.1441
349.9398	0.1251
350.149	0.1356
350.3582	0.1327
350.5674	0.1485
350.7765	0.1229
350.9856	0.1399
351.1948	0.1407
351.4039	0.1303
351.613	0.1378
351.822	0.1396
352.0311	0.1536
352.2402	0.1394
352.4492	0.1389
352.6582	0.1451
352.8672	0.1428
353.0762	0.1535
353.2852	0.1331
353.4942	0.1341
353.7032	0.1354
353.9121	0.1444
354.1211	0.1534
354.33	0.1641
354.5389	0.1541
354.7478	0.1449
354.9567	0.1528
355.1655	0.1427
355.3744	0.1434
355.5833	0.1526
355.7921	0.1755
356.0009	0.1573
356.2097	0.1674
356.4185	0.161
356.6273	0.1523
356.8361	0.1608
357.0448	0.1639
357.2536	0.1553
357.4623	0.1539
357.671	0.1638
357.8797	0.1588
358.0884	0.1666
358.2971	0.154
358.5057	0.1771
358.7144	0.1691
358.923	0.18
359.1316	0.1646
359.3402	0.175
359.5488	0.1612
359.7574	0.1588
359.966	0.1677
360.1746	0.1751
360.3831	0.1818
360.5916	0.1646
360.8002	0.1653
361.0087	0.2001
361.2172	0.1783
361.4256	0.1745
361.6341	0.1749
361.8426	0.1992
362.051	0.1838
362.2594	0.1764
362.4678	0.1893
362.6762	0.1972
362.8846	0.19
363.093	0.1744
363.3014	0.1942
363.5097	0.1778
363.718	0.199
363.9264	0.1881
364.1347	0.1867
364.343	0.1888
364.5513	0.2097
364.7595	0.1943
364.9678	0.2054
365.176	0.2018
365.3842	0.1909
365.5925	0.1931
365.8007	0.1959
366.0089	0.1988
366.217	0.1972
366.4252	0.2185
366.6333	0.2266
366.8415	0.2071
367.0496	0.1882
367.2577	0.2083
367.4658	0.2266
367.6739	0.2117
367.882	0.2206
368.09	0.216
368.2981	0.2215
368.5061	0.2096
368.7141	0.2231
368.9221	0.2137
369.1301	0.2337
369.3381	0.2092
369.5461	0.2256
369.754	0.2155
369.962	0.2416
370.1699	0.2231
370.3778	0.2169
370.5857	0.1982
370.7936	0.2266
371.0015	0.2316
371.2093	0.2143
371.4172	0.2461
371.625	0.2144
371.8328	0.2234
372.0406	0.235
372.2484	0.2089
372.4562	0.2379
372.664	0.223
372.8717	0.228
373.0795	0.2183
373.2872	0.225
373.4949	0.2304
373.7026	0.2376
373.9103	0.2596
374.118	0.2436
374.3256	0.2401
374.5333	0.2152
374.7409	0.2219
374.9485	0.2454
375.1561	0.265
375.3637	0.2498
375.5713	0.2591
375.7789	0.2375
375.9864	0.2566
376.194	0.2429
376.4015	0.2536
376.609	0.256
376.8165	0.2385
377.024	0.239
377.2315	0.2318
377.4389	0.2547
377.6464	0.26
377.8538	0.2533
378.0612	0.2423
378.2686	0.2604
378.476	0.2633
378.6834	0.281
378.8908	0.2594
379.0981	0.2633
379.3055	0.2477
379.5128	0.2479
379.7201	0.2581
379.9274	0.2556
380.1347	0.2624
380.342	0.2611
380.5492	0.2586
380.7565	0.2608
380.9637	0.2682
381.1709	0.2546
381.3781	0.2819
381.5853	0.2671
381.7925	0.2641
381.9997	0.2828
382.2068	0.2806
382.4139	0.2688
382.6211	0.2706
382.8282	0.2592
383.0353	0.2669
383.2424	0.2696
383.4494	0.2833
383.6565	0.2757
383.8635	0.2586
384.0706	0.2786
384.2776	0.2768
384.4846	0.2494
384.6916	0.281
384.8986	0.2611
385.1055	0.2686
385.3125	0.2796
385.5194	0.2569
385.7263	0.2811
385.9333	0.2725
386.1402	0.2585
386.347	0.2755
386.5539	0.2661
386.7608	0.2768
386.9676	0.2584
387.1744	0.2734
387.3813	0.2676
387.5881	0.2642
387.7948	0.2674
388.0016	0.2806
388.2084	0.2581
388.4151	0.2756
388.6219	0.2777
388.8286	0.2705
389.0353	0.2799
389.242	0.2727
389.4487	0.2708
389.6553	0.2557
389.862	0.2365
390.0686	0.2628
390.2753	0.2912
390.4819	0.2717
390.6885	0.2592
390.8951	0.2663
391.1016	0.24
391.3082	0.2514
391.5147	0.2584
391.7213	0.2548
391.9278	0.2531
392.1343	0.2602
392.3408	0.2617
392.5473	0.2621
392.7537	0.2374
392.9602	0.2453
393.1666	0.228
393.373	0.2516
393.5794	0.261
393.7858	0.2442
393.9922	0.2376
394.1986	0.2659
394.4049	0.2557
394.6113	0.2396
394.8176	0.2255
395.0239	0.2359
395.2302	0.2227
395.4365	0.2338
395.6428	0.2371
395.8491	0.2262
396.0553	0.23
396.2615	0.2438
396.4678	0.2454
396.674	0.2255
396.8802	0.2452
397.0863	0.2431
397.2925	0.2205
397.4987	0.244
397.7048	0.2215
397.9109	0.2326
398.117	0.2176
398.3231	0.2236
398.5292	0.228
398.7353	0.2564
398.9413	0.2239
399.1474	0.2144
399.3534	0.2117
399.5594	0.2148
399.7654	0.2446
399.9714	0.2341
400.1774	0.2266
400.3833	0.2261
400.5893	0.2385
400.7952	0.2317
401.0011	0.2287
401.207	0.2421
401.4129	0.2363
401.6188	0.2269
401.8247	0.2174
402.0305	0.2172
402.2364	0.2164
402.4422	0.2273
402.648	0.2264
402.8538	0.25
403.0596	0.2204
403.2654	0.2434
403.4711	0.2358
403.6768	0.2347
403.8826	0.2368
404.0883	0.2268
404.294	0.2236
404.4997	0.2342
404.7054	0.2389
404.911	0.2126
405.1167	0.2326
405.3223	0.2475
405.5279	0.2213
405.7335	0.2317
405.9391	0.2335
406.1447	0.2225
406.3502	0.2453
406.5558	0.2244
406.7613	0.2372
406.9668	0.2347
407.1724	0.2174
407.3778	0.2263
407.5833	0.2207
407.7888	0.226
407.9942	0.244
408.1997	0.2344
408.4051	0.2376
408.6105	0.2174
408.8159	0.2066
409.0213	0.2229
409.2267	0.2411
409.432	0.2204
409.6374	0.228
409.8427	0.232
410.048	0.2284
410.2533	0.2116
410.4586	0.2172
410.6639	0.2132
410.8691	0.2229
411.0744	0.2262
411.2796	0.2253
411.4848	0.2275
411.69	0.2272
411.8952	0.2336
412.1004	0.2129
412.3056	0.2313
412.5107	0.2221
412.7158	0.2478
412.921	0.2117
413.1261	0.2164
413.3312	0.2087
413.5362	0.2299
413.7413	0.2299
413.9464	0.2169
414.1514	0.228
414.3564	0.2309
414.5614	0.2136
414.7664	0.2371
414.9714	0.2333
415.1764	0.2222
415.3813	0.2287
415.5863	0.2142
415.7912	0.2156
415.9961	0.2274
416.201	0.2204
416.4059	0.2237
416.6108	0.2068
416.8156	0.223
417.0205	0.2197
417.2253	0.1938
417.4301	0.2321
417.6349	0.2015
417.8397	0.2186
418.0445	0.2165
418.2492	0.2238
418.454	0.227
418.6587	0.2004
418.8634	0.2096
419.0681	0.206
419.2728	0.1938
419.4775	0.2061
419.6822	0.2068
419.8868	0.1967
420.0915	0.1947
420.2961	0.1802
420.5007	0.2017
420.7053	0.2128
420.9099	0.2094
421.1144	0.2281
421.319	0.1932
421.5235	0.211
421.728	0.2068
421.9325	0.2142
422.137	0.2099
422.3415	0.2042
422.546	0.1886
422.7504	0.2076
422.9549	0.2111
423.1593	0.199
423.3637	0.2053
423.5681	0.1939
423.7725	0.1814
423.9769	0.183
424.1812	0.1825
424.3856	0.1967
424.5899	0.1966
424.7942	0.1843
424.9985	0.2061
425.2028	0.1982
425.4071	0.2131
425.6113	0.1631
425.8156	0.184
426.0198	0.1869
426.224	0.1752
426.4282	0.1769
426.6324	0.1728
426.8366	0.1896
427.0407	0.1796
427.2449	0.1775
427.449	0.1827
427.6531	0.1472
427.8572	0.1571
428.0613	0.1747
428.2654	0.1794
428.4694	0.179
428.6735	0.1653
428.8775	0.1772
429.0815	0.1731
429.2855	0.1644
429.4895	0.1709
429.6935	0.1713
429.8975	0.1567
430.1014	0.1581
430.3053	0.141
430.5093	0.1683
430.7132	0.1531
430.9171	0.1505
431.1209	0.1453
431.3248	0.1399
431.5286	0.1481
431.7325	0.1544
431.9363	0.1458
432.1401	0.145
432.3439	0.1334
432.5477	0.1223
432.7514	0.1249
432.9552	0.1387
433.1589	0.1378
433.3627	0.1296
433.5664	0.134
433.7701	0.1328
433.9737	0.1265
434.1774	0.1234
434.3811	0.1267
434.5847	0.1278
434.7883	0.1449
434.9919	0.1268
435.1955	0.1246
435.3991	0.1423
435.6027	0.1327
435.8062	0.1142
436.0098	0.1194
436.2133	0.1133
436.4168	0.0985
436.6203	0.0913
436.8238	0.1194
437.0272	0.1184
437.2307	0.104
437.4341	0.105
437.6375	0.103
437.841	0.0922
438.0443	0.1063
438.2477	0.1037
438.4511	0.0988
438.6545	0.1007
438.8578	0.1016
439.0611	0.093
439.2644	0.0927
439.4677	0.0773
439.671	0.0892
439.8743	0.0936
440.0775	0.0861
440.2808	0.0922
440.484	0.0793
440.6872	0.0527
440.8904	0.0805
441.0936	0.0838
441.2967	0.0909
441.4999	0.082
441.703	0.0755
441.9062	0.0641
442.1093	0.0676
442.3124	0.0712
442.5155	0.0592
442.7185	0.065
442.9216	0.0488
443.1246	0.0697
443.3276	0.0629
443.5307	0.0731
443.7337	0.0515
443.9366	0.0676
444.1396	0.0633
444.3426	0.06
444.5455	0.0744
444.7484	0.0609
444.9513	0.0458
445.1542	0.0676
445.3571	0.0598
445.56	0.0391
445.7628	0.0529
445.9657	0.042
446.1685	0.0591
446.3713	0.0463
446.5741	0.0509
446.7769	0.0329
446.9797	0.04
447.1824	0.0357
447.3852	0.0339
447.5879	0.0591
447.7906	0.0596
447.9933	0.0398
448.196	0.0369
448.3986	0.0362
448.6013	0.0234
448.8039	0.0287
449.0066	0.0365
449.2092	0.0519
449.4118	0.0384
449.6143	0.0288
449.8169	0.048
450.0195	0.036
450.222	0.0106
450.4245	0.0304
450.627	0.0311
450.8295	0.0184
451.032	0.0234
451.2345	0.0188
451.4369	0.0265
451.6394	0.0293
451.8418	0
452.0442	0.0081
452.2466	0.0265
452.449	0.0029
452.6513	0.0185
452.8537	0.0073
453.056	0.0142
453.2583	0.0254
453.4607	0.0061
453.663	0.0151
453.8652	0.0461
454.0675	0.0054
454.2697	0.0208
454.472	-0.0041
454.6742	0.0145
454.8764	0.0339
455.0786	0.0268
455.2808	0.0037
455.4829	0.0152
455.6851	0.0232
455.8872	0.028
456.0893	0.0248
456.2915	-0.0132
456.4935	0.0141
456.6956	0.0107
456.8977	0.0244
457.0997	-0.0084
457.3018	-0.0035
457.5038	0.0164
457.7058	0.0083
457.9078	-0.0008
458.1098	0.0096
458.3117	0.0062
458.5137	0.0157
458.7156	0.0183
458.9175	-0.0101
459.1194	0.0105
459.3213	0.0042
459.5232	-0.0034
459.725	-0.0119
459.9269	-0.0024
460.1287	-0.0052
460.3305	-0.0017
460.5323	0.0075
460.7341	-0.0011
460.9359	0.0128
461.1376	0.009
461.3394	-0.0036
461.5411	0.0088
461.7428	0.0067
461.9445	0.009
462.1462	0.0264
462.3479	0.0061
462.5495	0.0076
462.7512	0.0077
462.9528	0.0074
463.1544	-0.0237
463.356	0.0108
463.5576	0.0012
463.7592	-0.0015
463.9607	-0.0012
464.1623	0.0244
464.3638	0.0155
464.5653	-0.0066
464.7668	-0.0019
464.9683	0.0021
465.1697	0.0217
465.3712	-0.0147
465.5726	0
465.7741	0.0043
465.9755	-0.0034
466.1769	0.0024
466.3782	0.0021
466.5796	-0.0095
466.7809	0.0066
466.9823	0.0071
467.1836	-0.0052
467.3849	-0.0139
467.5862	0.0043
467.7875	0.0059
467.9887	0.0114
468.19	0.0096
468.3912	-0.0083
468.5924	-0.0018
468.7936	-0.0047
468.9948	-0.0134
469.196	0.0034
469.3972	-0.0085
469.5983	0.0004
469.7994	-0.013
470.0006	-0.0021
470.2017	-0.0043
470.4027	-0.0094
470.6038	0.0044
470.8049	-0.0278
471.0059	-0.0104
471.2069	-0.0256
471.408	0.0025
471.6089	0.001
471.8099	-0.0082
472.0109	0.0002
472.2119	-0.0123
472.4128	-0.0034
472.6137	-0.0069
472.8146	-0.0071
473.0155	-0.0106
473.2164	-0.0053
473.4173	0.0097
473.6181	0.0041
473.819	0.0092
474.0198	-0.0077
474.2206	-0.0038
474.4214	-0.0014
474.6222	-0.0105
474.8229	-0.0092
475.0237	-0.0122
475.2244	-0.0056
475.4251	-0.005
475.6258	-0.0086
475.8265	-0.0028
476.0272	-0.0001
476.2278	-0.0125
476.4285	-0.0132
476.6291	-0.0057
476.8297	-0.0067
477.0303	-0.0111
477.2309	-0.0006
477.4315	-0.0043
477.632	0.0006
477.8326	-0.0071
478.0331	-0.0048
478.2336	0.0045
478.4341	-0.0058
478.6346	-0.0036
478.8351	-0.0052
479.0355	0.0043
479.236	-0.007
479.4364	0.0032
479.6368	0.0012
479.8372	-0.0102
480.0376	-0.0078
480.2379	-0.0276
480.4383	-0.0088
480.6386	0.0002
480.8389	-0.0079
481.0392	-0.0114
481.2395	-0.005
481.4398	0.0017
481.6401	-0.016
481.8403	-0.0076
482.0405	-0.0027
482.2408	-0.0093
482.441	0.0107
482.6411	-0.0042
482.8413	-0.0183
483.0415	-0.011
483.2416	-0.0059
483.4417	-0.0139
483.6419	-0.0041
483.8419	0.001
484.042	0.002
484.2421	0.0007
484.4422	0.0025
484.6422	-0.0029
484.8422	-0.0061
485.0422	-0.0143
485.2422	0.0036
485.4422	-0.0157
485.6422	-0.0075
485.8421	-0.0047
486.042	0.0046
486.242	-0.0123
486.4419	-0.0093
486.6417	-0.0082
486.8416	-0.0088
487.0415	-0.0143
487.2413	-0.0067
487.4411	-0.0142
487.641	-0.0134
487.8408	0.0049
488.0405	-0.0082
488.2403	-0.0088
488.4401	0.0037
488.6398	0.0012
488.8395	-0.0073
489.0392	0.0005
489.2389	-0.0064
489.4386	-0.0136
489.6383	-0.003
489.8379	-0.0081
490.0376	-0.0091
490.2372	-0.0194
490.4368	-0.015
490.6364	-0.0019
490.836	-0.0143
491.0355	-0.0128
491.2351	-0.0097
491.4346	-0.0105
491.6341	-0.0059
491.8336	0.0014
492.0331	-0.0143
492.2326	-0.0188
492.432	-0.0119
492.6315	-0.004
492.8309	-0.0155
493.0303	-0.0179
493.2297	-0.0193
493.4291	-0.0063
493.6284	-0.0112
493.8278	-0.0117
494.0271	-0.0041
494.2264	0.0036
494.4257	-0.0179
494.625	-0.0082
494.8243	-0.021
495.0236	-0.0151
495.2228	-0.0179
495.422	-0.0006
495.6213	-0.0065
495.8205	-0.0077
496.0196	-0.0014
496.2188	0.0043
496.418	-0.0122
496.6171	-0.0147
496.8162	-0.0116
497.0153	-0.0008
497.2144	-0.0159
497.4135	0.0023
497.6126	-0.0231
497.8116	-0.023
498.0107	-0.0055
498.2097	-0.0166
498.4087	-0.009
498.6077	-0.0033
498.8067	-0.0089
499.0056	0.001
499.2046	-0.02
499.4035	-0.0175
499.6024	-0.0028
499.8013	-0.0008
500.0002	-0.016
500.199	-0.0127
500.3979	-0.0101
500.5967	-0.0212
500.7956	-0.0095
500.9944	-0.0012
501.1932	-0.0103
501.3919	-0.011
501.5907	-0.015
501.7895	-0.0125
501.9882	-0.0196
502.1869	-0.011
502.3856	-0.0109
502.5843	-0.0074
502.783	-0.0168
502.9816	-0.0068
503.1803	-0.0171
503.3789	-0.0203
503.5775	0.0114
503.7761	-0.0129
503.9747	-0.0091
504.1732	-0.0078
504.3718	-0.0087
504.5703	-0.0061
504.7689	-0.0211
504.9674	-0.0037
505.1658	-0.0128
505.3643	-0.0037
505.5628	-0.0108
505.7612	-0.0005
505.9597	-0.0005
506.1581	-0.0153
506.3565	0.0039
506.5549	-0.0035
506.7532	-0.0235
506.9516	-0.0075
507.1499	-0.0059
507.3482	-0.0107
507.5465	-0.0096
507.7448	0.0022
507.9431	-0.001
508.1414	-0.0017
508.3396	-0.0024
508.5379	-0.0016
508.7361	-0.0118
508.9343	-0.0079
509.1325	-0.0033
509.3306	-0.0128
509.5288	-0.014
509.7269	-0.0084
509.9251	-0.0039
510.1232	-0.0062
510.3213	0.0066
510.5193	0.0024
510.7174	-0.0191
510.9154	-0.013
511.1135	-0.0155
511.3115	-0.0086
511.5095	-0.0033
511.7075	0.0022
511.9055	-0.0095
512.1034	-0.0167
512.3014	-0.0092
512.4993	0.0027
512.6972	-0.0106
512.8951	-0.0132
513.093	-0.0005
513.2908	-0.0013
513.4887	-0.0126
513.6865	-0.0145
513.8844	-0.017
514.0822	-0.0103
514.2799	-0.0102
514.4777	-0.0172
514.6755	-0.0136
514.8732	-0.0155
515.0709	-0.0184
515.2687	0.0004
515.4664	-0.0104
515.664	-0.0067
515.8617	-0.0057
516.0594	-0.0215
516.257	-0.0037
516.4546	-0.0186
516.6522	0.0093
516.8498	-0.0064
517.0474	0.0015
517.2449	0.0025
517.4425	-0.0154
517.64	-0.0145
517.8375	0.0013
518.035	-0.0034
518.2325	-0.0175
518.43	-0.0108
518.6274	-0.0118
518.8249	-0.0152
519.0223	-0.0093
519.2197	-0.0038
519.4171	-0.0123
519.6145	-0.0141
519.8118	-0.0062
520.0092	-0.008
520.2065	-0.0198
520.4038	-0.0157
520.6011	-0.0099
520.7984	-0.0086
520.9956	-0.016
521.1929	-0.0085
521.3901	-0.0087
521.5874	-0.004
521.7846	-0.002
521.9818	-0.0119
522.1789	-0.0154
522.3761	-0.0089
522.5732	-0.0154
522.7704	0.0009
522.9675	-0.0101
523.1646	-0.0175
523.3617	-0.0016
523.5587	-0.0061
523.7558	-0.0093
523.9528	-0.0033
524.1498	-0.01
524.3468	-0.0014
524.5438	-0.0147
524.7408	-0.0117
524.9378	0.0053
525.1347	0.0002
525.3316	-0.0102
525.5285	-0.0089
525.7254	-0.0161
525.9223	-0.01
526.1192	-0.0035
526.316	-0.0115
526.5129	-0.0069
526.7097	-0.0086
526.9065	-0.0092
527.1033	-0.005
527.3	-0.0044
527.4968	-0.0057
527.6935	-0.0047
527.8903	-0.0214
528.087	-0.0036
528.2837	-0.0067
528.4804	0.0007
528.677	-0.0055
528.8737	-0.0027
529.0703	-0.0094
529.2669	0.0027
529.4635	-0.006
529.6601	0.003
529.8567	-0.0071
530.0532	-0.0132
530.2498	-0.0012
530.4463	-0.0025
530.6428	-0.0104
530.8393	0.001
531.0358	0.0029
531.2322	-0.0032
531.4287	-0.005
531.6251	-0.0092
531.8215	0.0032
532.0179	-0.001
532.2143	-0.0058
532.4107	0.0025
532.607	-0.0099
532.8034	-0.0062
532.9997	-0.0031
533.196	-0.0169
533.3923	-0.0159
533.5886	-0.0038
533.7848	-0.0003
533.9811	-0.0111
534.1773	-0.0184
534.3735	0.0052
534.5697	-0.0067
534.7659	-0.0016
534.9621	-0.0063
535.1582	-0.0144
535.3544	-0.0078
535.5505	-0.0125
535.7466	-0.0108
535.9427	-0.003
536.1387	-0.0097
536.3348	0.0021
536.5308	-0.0046
536.7269	-0.0302
536.9229	-0.0006
537.1189	-0.0058
537.3148	-0.0037
537.5108	-0.0169
537.7068	-0.0101
537.9027	-0.0119
538.0986	-0.0134
538.2945	-0.0099
538.4904	-0.0072
538.6863	-0.0086
538.8821	-0.0093
539.078	-0.0064
539.2738	0.0004
539.4696	-0.0073
539.6654	-0.0057
539.8611	0.0035
540.0569	-0.008
540.2526	-0.0103
540.4484	-0.0059
540.6441	0
540.8398	-0.0025
541.0355	-0.0048
541.2311	-0.0061
541.4268	-0.0121
541.6224	-0.005
541.818	-0.0005
542.0136	0.0019
542.2092	-0.0045
542.4048	-0.0048
542.6003	-0.0008
542.7959	-0.0027
542.9914	-0.002
543.1869	-0.0015
543.3824	0.0043
543.5779	-0.006
543.7734	-0.0045
543.9688	-0.0031
544.1642	0.0027
544.3596	-0.0032
544.555	-0.0127
544.7504	0.0017
544.9458	-0.0025
545.1411	-0.0044
545.3365	-0.0106
545.5318	-0.0018
545.7271	-0.0022
545.9224	-0.0026
546.1177	0.004
546.3129	-0.0026
546.5081	-0.0091
546.7034	-0.0044
546.8986	-0.0117
547.0938	-0.0109
547.289	-0.0093
547.4841	0.0005
547.6793	0.0047
547.8744	-0.0115
548.0695	-0.0025
548.2646	-0.0114
548.4597	0.0087
548.6548	-0.0034
548.8498	0.0017
549.0448	0.0025
549.2399	-0.0085
549.4349	0.0101
549.6298	-0.0049
549.8248	0.0015
550.0198	-0.0135
550.2147	-0.0114
550.4096	-0.0136
550.6045	-0.0076
550.7994	0.0036
550.9943	0.0008
551.1892	0.0007
551.384	-0.0004
551.5788	-0.0101
551.7737	0.002
551.9685	-0.0085
552.1632	-0.0037
552.358	-0.0091
552.5528	0.0015
552.7475	-0.0056
552.9422	-0.0041
553.1369	-0.0032
553.3316	0.0037
553.5263	-0.0094
553.7209	-0.0023
553.9156	-0.0039
554.1102	-0.0098
554.3048	-0.0079
554.4994	-0.0011
554.694	-0.0053
554.8885	0.0084
555.0831	-0.0046
555.2776	-0.0063
555.4721	-0.0082
555.6666	-0.007
555.8611	0.0038
556.0555	-0.0041
556.25	0
556.4444	-0.0127
556.6388	-0.0048
556.8332	-0.0051
557.0276	-0.0029
557.222	-0.0104
557.4163	-0.0068
557.6107	-0.0078
557.805	0.0034
557.9993	-0.0056
558.1936	-0.0004
558.3879	-0.0066
558.5821	0.0022
558.7764	-0.0055
558.9706	0.0002
559.1648	0.0101
559.359	-0.0099
559.5532	0.0007
559.7473	0.0014
559.9415	0.0022
560.1356	-0.0068
560.3297	-0.0134
560.5238	-0.0114
560.7179	-0.0066
560.9119	-0.0052
561.106	-0.0081
561.3	-0.0075
561.494	-0.0008
561.688	-0.0104
561.882	-0.0164
562.076	-0.0168
562.2699	-0.0065
562.4639	-0.0079
562.6578	-0.007
562.8517	0.0038
563.0456	-0.0031
563.2395	-0.0005
563.4333	-0.0009
563.6272	0.0059
563.821	-0.0009
564.0148	-0.0085
564.2086	-0.0109
564.4024	-0.0083
564.5961	-0.0103
564.7899	0.006
564.9836	-0.0004
565.1773	-0.0083
565.371	0.0061
565.5647	0.0024
565.7584	0.0002
565.952	-0.0005
566.1456	0.0006
566.3393	0.0012
566.5329	-0.0062
566.7264	-0.0069
566.92	-0.0058
567.1136	0.0036
567.3071	-0.0048
567.5006	0.0022
567.6941	0.0085
567.8876	-0.0013
568.0811	-0.0055
568.2745	0.0018
568.468	0
568.6614	-0.0054
568.8548	-0.0045
569.0482	-0.0022
569.2416	0.0015
569.4349	-0.0019
569.6283	0.0029
569.8216	-0.0055
570.0149	-0.0088
570.2082	0.0037
570.4015	0.0081
570.5947	0.0033
570.788	0.0058
570.9812	0.0051
571.1744	-0.0032
571.3676	-0.0072
571.5608	-0.0029
571.754	0.0043
571.9471	-0.0106
572.1402	-0.0056
572.3333	-0.0032
572.5264	-0.007
572.7195	-0.0025
572.9126	-0.0012
573.1057	-0.0028
573.2987	-0.0073
573.4917	0.0015
573.6847	-0.01
573.8777	0.0038
574.0707	0.0075
574.2636	-0.0038
574.4566	-0.0049
574.6495	-0.0022
574.8424	-0.0057
575.0353	-0.007
575.2281	0.0023
575.421	-0.01
575.6138	-0.0033
575.8067	-0.0088
575.9995	0.0001
576.1923	-0.0011
576.385	0.0017
576.5778	-0.0025
576.7706	-0.0004
576.9633	0.0028
577.156	-0.0018
577.3487	-0.0064
577.5414	-0.0006
577.734	-0.0035
577.9267	0.0018
578.1193	-0.0151
578.3119	-0.0036
578.5045	0.0041
578.6971	0.0009
578.8897	0.0058
579.0822	-0.0003
579.2747	-0.0006
579.4673	-0.0036
579.6598	-0.0073
579.8522	-0.0092
580.0447	-0.0036
580.2372	0.0002
580.4296	0.0044
580.622	0.0037
580.8144	0.0003
581.0068	-0.0106
581.1992	-0.0107
581.3915	-0.0097
581.5839	-0.0134
581.7762	-0.0077
581.9685	-0.0003
582.1608	-0.0009
582.353	-0.0069
582.5453	-0.004
582.7375	-0.0027
582.9298	-0.0012
583.122	-0
583.3142	-0.0034
583.5063	-0.0024
583.6985	-0.0043
583.8906	-0.0043
584.0827	-0.0056
584.2749	0.0026
584.4669	0.0026
584.659	-0.0011
584.8511	-0.0052
585.0431	-0.0034
585.2352	-0.0023
585.4272	-0.0045
585.6192	-0.0073
585.8111	-0.0045
586.0031	-0.0033
586.195	-0.0018
586.387	0.0008
586.5789	-0.003
586.7708	-0.0066
586.9627	-0.0022
587.1545	-0.0095
587.3464	-0.0007
587.5382	0.0051
587.73	0.0023
587.9218	0.0061
588.1136	-0.0037
588.3053	0.0048
588.4971	-0.0085
588.6888	-0.011
588.8805	-0.0044
589.0722	0.0046
589.2639	0.0007
589.4556	-0.0054
589.6472	-0.0108
589.8389	-0.0084
590.0305	-0.0168
590.2221	0.003
590.4137	-0.0084
590.6052	0.0019
590.7968	0.0008
590.9883	-0.0054
591.1798	-0.0047
591.3713	-0.0035
591.5628	-0.0004
591.7543	0.0029
591.9458	-0.0071
592.1372	0.0037
592.3286	-0.0004
592.52	0.0066
592.7114	-0.0003
592.9028	-0.005
593.0941	0.0002
593.2855	0.0017
593.4768	-0.0073
593.6681	-0.0048
593.8594	-0.0058
594.0506	-0.0021
594.2419	0.0093
594.4331	-0.0034
594.6244	0.0054
594.8156	-0.011
595.0067	-0.0019
595.1979	-0.0029
595.3891	0.001
595.5802	-0.0077
595.7713	-0.0053
595.9624	-0.0058
596.1535	0.0017
596.3446	-0
596.5357	-0.0051
596.7267	0.0054
596.9177	0.0016
597.1087	-0.0075
597.2997	-0.0083
597.4907	0.0027
597.6817	-0.0104
597.8726	-0.0027
598.0635	-0.0079
598.2544	0.0012
598.4453	0.0013
598.6362	-0.012
598.827	-0.009
599.0179	0.0039
599.2087	0
599.3995	-0.0047
599.5903	-0.0036
599.7811	0.0014
599.9718	-0.0046
600.1626	-0.0069
600.3533	-0.0098
600.544	-0.0025
600.7347	-0.0038
600.9254	-0.0042
601.116	-0.0139
601.3067	-0.006
601.4973	-0.0095
601.6879	0.0076
601.8785	-0.0054
602.0691	-0.0058
602.2596	0.0004
602.4502	-0.002
602.6407	0.0036
602.8312	-0.0034
603.0217	-0.0132
603.2122	-0.0009
603.4027	-0.0027
603.5931	-0.0047
603.7835	-0.0031
603.9739	0.0005
604.1643	-0.0065
604.3547	-0.0074
604.5451	0.0004
604.7354	0.0043
604.9257	-0.0052
605.116	-0.0018
605.3063	0.0055
605.4966	-0.0021
605.6869	-0.001
605.8771	0.0111
606.0673	-0
606.2575	0.0027
606.4477	0.0084
606.6379	-0.0009
606.8281	-0.0051
607.0182	-0.0037
607.2083	0.006
607.3985	-0.0029
607.5885	-0.0024
607.7786	0.001
607.9687	-0.0056
608.1587	-0.0009
608.3488	-0.0001
608.5388	-0.0001
608.7288	-0.0023
608.9187	0.0003
609.1087	-0.0031
609.2986	-0.0091
609.4886	-0.0016
609.6785	0.0024
609.8684	-0.0016
610.0582	0.0023
610.2481	-0.0002
610.4379	-0.0043
610.6278	-0.0026
610.8176	0.0027
611.0074	-0.0039
611.1971	-0.0075
611.3869	-0.0015
611.5766	-0.0079
611.7664	0.0061
611.9561	0.0031
612.1458	0.0082
612.3354	-0.0113
612.5251	-0.0022
612.7147	0.002
612.9044	0.0054
613.094	-0.0066
613.2836	0.0023
613.4731	-0.0045
613.6627	-0.0054
613.8522	-0.0022
614.0417	0.0025
614.2313	-0.0038
614.4207	-0.006
614.6102	-0.0046
614.7997	-0.0018
614.9891	-0.002
615.1785	-0.0083
615.3679	-0.0039
615.5573	0.0043
615.7467	-0.0033
615.9361	-0.0019
616.1254	-0.0006
616.3147	-0
616.504	-0.0004
616.6933	-0.0044
616.8826	0.0008
617.0718	0.0081
617.2611	-0.0019
617.4503	-0.0045
617.6395	-0.0019
617.8287	-0.0041
618.0179	-0.0027
618.207	0.0096
618.3961	-0.0024
618.5853	0.0004
618.7744	-0.0015
618.9634	0.0057
619.1525	-0.0012
619.3416	-0.0057
619.5306	-0.0008
619.7196	-0.0008
619.9086	-0.0058
620.0976	-0.0019
620.2866	0.0003
620.4755	-0.0035
620.6645	0.0047
620.8534	0.007
621.0423	-0.0061
621.2312	-0.002
621.42	-0.0008
621.6089	-0.0053
621.7977	0.0012
621.9865	-0.0092
622.1753	0.0046
622.3641	0.0008
622.5529	0.0068
622.7416	0.0021
622.9303	-0.0002
623.1191	-0.0009
623.3078	-0.0024
623.4964	0.006
623.6851	-0.0073
623.8737	-0.0046
624.0624	0.0024
624.251	-0.0039
624.4396	-0.0012
624.6282	-0.0047
624.8167	-0.0072
625.0053	0.0016
625.1938	-0.0004
625.3823	-0.0015
625.5708	0.0018
625.7593	-0.0105
625.9477	-0.0126
626.1362	-0.0065
626.3246	-0.0061
626.513	-0.0006
626.7014	0.0046
626.8898	0.0012
627.0781	-0
627.2665	-0.0033
627.4548	0.005
627.6431	0.0045
627.8314	0.0022
628.0197	0.0056
628.2079	-0.0074
628.3962	-0.0014
628.5844	-0.0016
628.7726	-0.0021
628.9608	0.0019
629.1489	0.0031
629.3371	-0.0019
629.5252	-0.0066
629.7134	0.0077
629.9015	-0.0007
630.0895	-0.0015
630.2776	-0.0009
630.4657	-0.004
630.6537	0.0008
630.8417	-0.0035
631.0297	-0.0026
631.2177	-0.0003
631.4057	-0.009
631.5936	0.0009
631.7815	0.0029
631.9695	-0.0086
632.1574	0.0002
632.3452	0.0125
632.5331	0.0031
632.7209	-0.003
632.9088	0.0089
633.0966	0.0067
633.2844	-0.0045
633.4722	-0.0019
633.6599	0.0016
633.8477	0.0032
634.0354	-0.0016
634.2231	-0.0031
634.4108	-0.0009
634.5985	0.0009
634.7861	0.0021
634.9738	0.0061
635.1614	0.0036
635.349	0.0004
635.5366	0.0034
635.7242	-0.004
635.9117	0.0027
636.0993	-0.004
636.2868	0.0008
636.4743	-0.0072
636.6618	0.0097
636.8492	0.0008
637.0367	0.001
637.2241	-0.007
637.4115	-0.0027
637.5989	-0.0045
637.7863	0.0001
637.9737	-0.0076
638.161	0.0007
638.3484	-0
638.5357	0.0052
638.723	-0.0051
638.9103	-0.0072
639.0975	0.0089
639.2848	-0.0001
639.472	0.0036
639.6592	0.0035
639.8464	0.0036
640.0336	0.0087
640.2208	-0.005
640.4079	0.001
640.595	0.0003
640.7821	-0.0041
640.9692	0.0073
641.1563	-0.0053
641.3434	-0.0003
641.5304	0.0041
641.7174	-0.0001
641.9044	-0.0031
642.0914	-0.0017
642.2784	-0.0025
642.4653	0.0017
642.6523	-0.0018
642.8392	-0.0065
643.0261	0.0051
643.213	-0.0015
643.3999	-0.0103
643.5867	-0.0065
643.7735	-0.0037
643.9604	-0.0111
644.1472	-0.0071
644.3339	-0.002
644.5207	0.0037
644.7075	-0.0045
644.8942	0.0034
645.0809	0.0077
645.2676	0.0078
645.4543	0.004
645.6409	0.0034
645.8276	-0.0056
646.0142	0.0068
646.2008	-0.0031
646.3874	-0.0083
646.574	-0.0033
646.7605	-0.0125
646.9471	-0.0127
647.1336	-0.0004
647.3201	0.0063
647.5066	-0.0017
647.6931	0.0079
647.8795	-0.0039
648.0659	0.0018
648.2524	0.0016
648.4388	-0.0036
648.6252	-0.006
648.8115	-0.0064
648.9979	-0.0076
649.1842	0.0006
649.3705	0.0043
649.5568	0.002
649.7431	0.0014
649.9294	-0.0061
650.1156	0.0057
650.3018	-0.0032
650.488	0.0064
650.6742	0.0029
650.8604	-0.002
651.0466	-0.006
651.2327	-0.0068
651.4188	-0.0025
651.6049	-0.0069
651.791	-0.0044
651.9771	-0.0002
652.1632	-0.0038
652.3492	-0.0051
652.5352	-0.0016
652.7212	-0.0159
652.9072	0.0036
653.0932	0.0003
653.2791	-0.0072
653.465	0.0056
653.651	-0.0037
653.8369	-0.0011
654.0227	-0.0004
654.2086	0.0068
654.3944	0.009
654.5803	0.0032
654.7661	-0.0018
654.9519	-0.0026
655.1377	-0.0054
655.3234	-0.0046
655.5092	-0.0058
655.6949	-0.0084
655.8806	-0.0066
656.0663	-0.0039
656.2519	-0.0024
656.4376	-0.0071
656.6232	0.0018
656.8088	-0.0012
656.9945	-0.0048
657.18	-0.0018
657.3656	-0.0055
657.5511	-0.0049
657.7367	-0.0037
657.9222	0.0054
658.1077	0.0002
658.2932	0.0038
658.4786	-0.0124
658.6641	-0.0023
658.8495	-0.0073
659.0349	-0.005
659.2203	0.0043
659.4057	-0.0046
659.591	0.0017
659.7764	-0.0085
659.9617	0.0009
660.147	0.0012
660.3323	-0.0091
660.5176	-0.001
660.7028	0.0051
660.888	0.0017
661.0733	0.002
661.2585	-0.0064
661.4436	0.0061
661.6288	-0.0018
661.8139	-0.0059
661.9991	-0.0002
662.1842	-0.0101
662.3693	-0.0029
662.5544	0.0015
662.7394	0.0016
662.9245	-0.0063
663.1095	-0.0095
663.2945	-0.0078
663.4795	-0.0037
663.6644	0.0054
663.8494	0.0003
664.0343	0.0044
664.2193	-0.0062
664.4042	0.0052
664.589	-0.0027
664.7739	-0.0029
664.9587	-0.0124
665.1436	-0.0064
665.3284	0.0002
665.5132	-0.0027
665.698	0.0005
665.8827	-0.0048
666.0675	-0.0039
666.2522	-0.0105
666.4369	0.0039
666.6216	0.0017
666.8063	-0.0022
666.9909	-0.0011
667.1756	0.0045
667.3602	0.0002
667.5448	-0.0056
667.7294	0.0073
667.9139	0.0037
668.0985	0.013
668.283	0.0023
668.4675	-0.0028
668.652	-0.0037
668.8365	0.001
669.0209	0.0106
669.2054	0.0077
669.3898	-0.0002
669.5742	0.001
669.7586	-0.0023
669.943	0.0062
670.1273	0.0048
670.3117	0.0011
670.496	-0.0004
670.6803	0.0053
670.8646	-0.0026
671.0488	-0.0031
671.2331	0.0061
671.4173	-0.0023
671.6015	-0.005
671.7857	0.003
671.9699	-0.0003
672.1541	-0.0005
672.3382	0.0051
672.5223	0.0014
672.7064	0.002
672.8905	0.0089
673.0746	0.0009
673.2587	-0.0036
673.4427	0.0003
673.6267	0.0091
673.8107	0.0119
673.9947	0.0014
674.1787	0.0048
674.3626	0.001
674.5465	-0.0011
674.7304	0.0022
674.9143	0.0113
675.0982	0.0103
675.2821	0.0003
675.4659	0.0056
675.6497	0.0007
675.8335	0.0001
676.0173	-0.0014
676.2011	0.0026
676.3849	-0.0061
676.5686	-0.0159
676.7523	-0.0041
676.936	-0.0103
677.1197	-0.0059
677.3034	-0.002
677.487	-0.0042
677.6706	0.0047
677.8542	0.0072
678.0378	-0.0006
678.2214	-0.0019
678.405	0.0002
678.5885	-0.0088
678.772	-0.0043
678.9555	-0.008
679.139	-0.0041
679.3225	-0.0021
679.5059	0.0003
679.6894	-0.0022
679.8728	-0.0069
680.0562	-0.0072
680.2395	-0.0072
680.4229	-0.005
680.6062	0.0009
680.7896	-0.0082
680.9729	-0.0108
681.1562	0.0046
681.3394	0.0011
681.5227	-0.0066
681.7059	0.0017
681.8891	-0.0038
682.0723	-0.0007
682.2555	0.015
682.4387	0.0017
682.6218	-0.004
682.805	0.0081
682.9881	0.0007
683.1712	-0.0004
683.3542	-0.0044
683.5373	-0.0027
683.7203	-0.006
683.9034	-0.0038
684.0864	-0.0139
684.2694	-0.0093
684.4523	-0.0012
684.6353	-0.0094
684.8182	-0.0002
685.0011	-0.0099
685.184	0.002
685.3669	-0.0005
685.5498	-0.0012
685.7326	0.0009
685.9154	-0.0045
686.0982	0.0144
686.281	-0.0008
686.4638	-0.0002
686.6465	-0.0036
686.8293	-0.0022
687.012	-0.0032
687.1947	-0.0072
687.3774	-0.0008
687.56	-0.0075
687.7427	0.0034
687.9253	-0.0056
688.1079	-0.0044
688.2905	0.0046
688.4731	0.0005
688.6556	-0.0011
688.8382	-0.0071
689.0207	-0.0008
689.2032	-0.011
689.3857	-0.012
689.5681	0.0033
689.7506	-0.0113
689.933	-0.0042
690.1154	0.0007
690.2978	-0.0024
690.4802	0.0082
690.6626	-0.008
690.8449	-0.007
691.0272	0.0115
691.2095	-0.0065
691.3918	-0.006
691.5741	0.0065
691.7563	-0.0046
691.9386	-0.0003
692.1208	-0.0017
692.303	-0.0021
692.4852	0.0017
692.6673	-0.0016
692.8495	-0.0043
693.0316	0.0012
693.2137	0.0021
693.3958	0.0022
693.5778	0.0042
693.7599	-0.0046
693.9419	-0.0002
694.1239	-0.0008
694.3059	-0.0053
694.4879	0.0012
694.6699	0.0026
694.8518	-0.0041
695.0337	-0.0025
695.2157	0.0067
695.3975	-0.005
695.5794	0.0021
695.7613	-0.0003
695.9431	-0.0009
696.1249	-0.0001
696.3067	0.0063
696.4885	0.0055
696.6703	-0.0012
696.852	0.0065
697.0337	0.002
697.2154	0.0007
697.3971	0.0042
697.5788	0.0049
697.7605	-0.0029
697.9421	-0.0003
698.1237	-0.0003
698.3053	0.0022
698.4869	0.0026
698.6685	-0.004
698.85	0.0059
699.0315	0.0074
699.213	-0.002
699.3945	0.0014
699.576	0.0121
699.7575	0.0055
699.9389	0.0059
700.1203	0.0057
700.3017	-0.004
700.4831	-0.0102
700.6645	-0.0018
700.8458	0.0085
701.0271	-0.0064
701.2084	0.0063
701.3897	-0.0003
701.571	-0.0004
701.7523	-0.0079
701.9335	-0.0003
702.1147	-0.004
702.2959	0.0024
702.4771	0.0044
702.6583	-0.001
702.8394	-0.0144
703.0205	0.0028
703.2016	-0.0073
703.3827	-0.0029
703.5638	0.013
703.7449	-0.0037
703.9259	0.0098
704.1069	0.0026
704.2879	0.0023
704.4689	0.0097
704.6499	0.0031
704.8308	-0.0043
705.0117	0.0016
705.1927	-0.0088
705.3735	-0.0022
705.5544	-0.0048
705.7353	-0.0011
705.9161	-0.0077
706.0969	-0.0103
706.2777	-0.0049
706.4585	-0.004
706.6393	-0.0004
706.82	-0.0071
707.0007	-0.0054
707.1815	-0.001
707.3621	0.0004
707.5428	0.0023
707.7235	0.0063
707.9041	0.0002
708.0847	-0.0093
708.2653	-0.0095
708.4459	-0.0133
708.6265	-0.0018
708.807	-0.0042
708.9875	-0.0038
709.168	-0.0081
709.3485	-0.0043
709.529	-0.0091
709.7095	-0.0092
709.8899	-0.0109
710.0703	-0.0153
710.2507	-0.0107
710.4311	-0.0105
710.6115	-0.0164
710.7918	-0.0045
710.9721	0.0016
711.1524	-0.0076
711.3327	-0.0008
711.513	-0.0017
711.6932	0.0093
711.8735	0.0111
712.0537	0.0081
712.2339	0.0085
712.4141	-0.0024
712.5942	0.0012
712.7744	-0.0048
712.9545	-0.01
713.1346	-0.0031
713.3147	-0.0042
713.4947	-0.0037
713.6748	-0.0017
713.8548	-0.0078
714.0348	-0.0114
714.2148	-0.007
714.3948	-0.003
714.5748	-0.0062
714.7547	-0.0011
714.9346	-0.0004
715.1145	-0.0127
715.2944	-0.0153
715.4743	-0.0063
715.6541	-0.0089
715.834	0.0016
716.0138	-0.0066
716.1936	-0.0097
716.3733	-0.0121
716.5531	0.005
716.7328	-0.0091
716.9126	0.0016
717.0923	-0.0009
717.2719	-0.0051
717.4516	0.011
717.6312	-0.0005
717.8109	-0.0051
717.9905	0.0059
718.1701	-0.003
718.3496	-0.0092
718.5292	0.0062
718.7087	-0.0002
718.8882	0.0004
719.0677	0.0074
719.2472	-0.0008
719.4267	0.0028
719.6061	0.0032
719.7856	0.0013
719.965	0.0023
720.1443	-0.0072
720.3237	0.0107
720.5031	0.0056
720.6824	0.0056
720.8617	-0.0001
721.041	0.0037
721.2203	0.001
721.3995	0.0006
721.5788	0.0121
721.758	0.0034
721.9372	-0.0092
722.1164	-0.0006
722.2956	0.0048
722.4747	0.0005
722.6538	-0.0037
722.8329	0.005
723.012	-0.003
723.1911	-0.0009
723.3702	-0.0035
723.5492	-0.005
723.7282	-0.0086
723.9072	-0.0088
724.0862	-0.0116
724.2652	-0.0075
724.4441	-0.0057
724.623	-0.0003
724.8019	-0.0069
724.9808	-0.0087
725.1597	-0.0114
725.3385	-0.0061
725.5174	-0.0007
725.6962	-0.0078
725.875	-0.0021
726.0538	0.0003
726.2325	-0.0025
726.4112	0.0033
726.59	-0.0013
726.7687	-0.0032
726.9474	0.0002
727.126	-0.0004
727.3047	-0.0001
727.4833	0.0014
727.6619	-0.0018
727.8405	-0.0101
728.0191	-0.0023
728.1976	-0.0017
728.3762	0.0007
728.5547	-0.0014
728.7332	-0.0127
728.9116	-0.0019
729.0901	-0.0045
729.2686	-0.0151
729.447	-0.0073
729.6254	-0.0086
729.8038	-0.008
729.9821	-0.0103
730.1605	-0.0008
730.3388	-0.0086
730.5171	-0.006
730.6954	-0.0066
730.8737	0.0014
731.0519	-0.0028
731.2302	-0.0095
731.4084	0.0091
731.5866	0.007
731.7648	-0.0076
731.9429	-0.0031
732.1211	-0.0171
732.2992	0.0032
732.4773	-0.0101
732.6554	-0.0042
732.8335	-0.0027
733.0115	0.0039
733.1896	0.0037
733.3676	-0.0077
733.5456	0.0023
733.7235	-0.0018
733.9015	-0.0026
734.0794	0.0018
734.2574	-0.0095
734.4353	-0.006
734.6131	0.0034
734.791	-0.001
734.9689	0.0055
735.1467	-0.002
735.3245	-0.0105
735.5023	-0.0054
735.68	0.001
735.8578	0.0081
736.0355	-0.0175
736.2132	-0.0084
736.3909	-0.0055
736.5686	-0.0122
736.7463	0.0039
736.9239	-0.0034
737.1015	-0.0074
737.2791	0.0015
737.4567	-0.0036
737.6343	-0.0053
737.8118	0.0055
737.9894	-0.0004
738.1669	-0.0131
738.3444	-0.0128
738.5218	0.0042
738.6993	-0.0026
738.8767	-0.0042
739.0541	0.0032
739.2315	-0.012
739.4089	-0.0026
739.5863	-0.0034
739.7636	-0.0063
739.9409	-0.0027
740.1182	0.0027
740.2955	0.0075
740.4728	-0.0001
740.65	0.0033
740.8272	-0.0095
741.0044	-0.0088
741.1816	-0.0001
741.3588	-0.0097
741.5359	-0.0074
741.7131	-0.0149
741.8902	-0.0072
742.0673	-0.0058
742.2444	-0.0111
742.4214	-0.0061
742.5985	-0.0032
742.7755	-0.0035
742.9525	-0.0031
743.1295	0.0028
743.3064	-0.006
743.4834	0.0012
743.6603	-0.0038
743.8372	-0.0047
744.0141	-0.0021
744.191	-0.0009
744.3678	0.0008
744.5446	-0.0021
744.7215	0.0043
744.8982	-0.0063
745.075	-0.0027
745.2518	-0.0018
745.4285	-0.0035
745.6052	-0.0058
745.7819	-0.0072
745.9586	-0.0162
746.1353	-0.0049
746.3119	-0.0151
746.4885	-0.0151
746.6651	-0.0165
746.8417	-0.0142
747.0183	-0.023
747.1948	-0.0141
747.3714	-0.0058
747.5479	-0.0026
747.7244	-0.0144
747.9008	-0.0008
748.0773	-0.0049
748.2537	-0.0095
748.4301	-0.0146
748.6065	-0.0065
748.7829	-0.0031
748.9593	-0.0065
749.1356	0.0006
749.3119	0.0029
749.4882	-0.0159
749.6645	-0.0026
749.8408	-0.0062
750.017	-0.0038
750.1933	0.0017
750.3695	-0.0069
750.5457	-0.0016
750.7218	-0.0085
750.898	-0.0038
751.0741	-0.0103
751.2502	-0.0043
751.4263	-0.0104
751.6024	-0.0057
751.7784	-0.0078
751.9545	-0.0056
752.1305	-0.0068
752.3065	-0.0062
752.4825	0.0053
752.6584	-0.0102
752.8344	-0.0098
753.0103	-0.0079
753.1862	-0.0141
753.3621	-0.0106
753.5379	-0.0094
753.7138	0.0004
753.8896	-0.0125
754.0654	-0.0028
754.2412	0.002
754.417	-0.002
754.5927	-0.0076
754.7685	-0.005
754.9442	-0.0006
755.1199	0.0098
755.2956	-0.0022
755.4712	0.0067
755.6469	0.0025
755.8225	-0.0038
755.9981	0.0009
756.1736	0.0084
756.3492	0.0021
756.5248	-0.0036
756.7003	0.0056
756.8758	0.007
757.0513	-0.0082
757.2267	0.0041
757.4022	-0.0003
757.5776	-0.0102
757.753	-0.0063
757.9284	0.0076
758.1038	0.0025
758.2791	-0.001
758.4545	-0.011
758.6298	-0.009
758.8051	0.0012
758.9803	-0.0027
759.1556	-0.0042
759.3308	-0.0105
759.506	-0.0005
759.6812	-0.0034
759.8564	0.008
760.0316	0.0008
760.2067	0.008
760.3819	0.0025
760.557	0.0115
760.732	0.006
760.9071	-0.0151
761.0821	-0.0004
761.2572	0.0099
761.4322	0.0001
761.6072	-0.0139
761.7821	-0.0099
761.9571	-0.0054
762.132	-0.0027
762.3069	-0.0064
762.4818	-0.0072
762.6567	-0.0045
762.8316	-0.0036
763.0064	-0.0055
763.1812	-0.0105
763.356	-0.0202
763.5308	-0.0064
763.7055	-0.0062
763.8803	-0.0062
764.055	-0.0031
764.2297	-0.0046
764.4044	-0.0012
764.579	-0.0156
764.7537	-0.0104
764.9283	-0.0024
765.1029	-0.0172
765.2775	-0.0147
765.4521	-0.0185
765.6266	-0.0128
765.8011	-0.0175
765.9756	-0.0137
766.1501	-0.0062
766.3246	-0.0015
766.4991	-0.0019
766.6735	-0.0056
766.8479	-0.0167
767.0223	0.006
767.1967	-0.0089
767.371	-0.0025
767.5454	-0.0037
767.7197	0.0023
767.894	-0.018
768.0683	-0.0104
768.2425	-0.0084
768.4168	-0.0028
768.591	-0.0059
768.7652	-0.0061
768.9394	-0.0065
769.1135	0.008
769.2877	-0.0068
769.4618	-0.0003
769.6359	-0.0127
769.81	0.0043
769.984	-0.0065
770.1581	-0.0065
770.3321	-0.0046
770.5061	-0.0054
770.6801	-0.0041
770.8541	-0.013
771.028	0.0054
771.202	-0.0187
771.3759	0.0026
771.5498	-0.0108
771.7236	0.0001
771.8975	0.002
772.0713	0.0037
772.2451	-0.0033
772.4189	-0.0018
772.5927	-0.0078
772.7665	-0.0117
772.9402	-0.014
773.1139	-0.0147
773.2876	-0.0161
773.4613	0.0054
773.635	-0.0084
773.8086	-0.0274
773.9822	-0.0059
774.1558	0.0004
774.3294	-0.0126
774.503	-0.0078
774.6765	-0.0035
774.8501	-0.007
775.0236	0.0008
775.1971	0.0023
775.3705	-0.0169
775.544	0.0001
775.7174	-0.0141
775.8908	-0.0098
776.0642	-0.0029
776.2376	0.0015
776.4109	-0.0172
776.5843	-0.0111
776.7576	-0.0038
776.9309	-0.0021
777.1041	0.0163
777.2774	0.0136
777.4506	-0.0088
777.6238	-0.011
777.797	-0.0002
777.9702	0.0044
778.1434	-0.0019
778.3165	-0.0143
778.4896	-0.0088
778.6627	0.014
778.8358	-0.0159
779.0089	-0.0107
779.1819	-0.0042
779.3549	0.0078
779.5279	0.0012
779.7009	-0.0021
779.8739	-0.0063
780.0468	-0.0032
780.2197	-0.0024
780.3926	-0.0068
780.5655	0.001
780.7384	-0.0124
780.9112	-0.0087
781.0841	-0.0116
781.2569	-0.0127
781.4297	-0.0027
781.6024	-0.0111
781.7752	-0.0037
781.9479	-0.0138
782.1206	-0.0084
782.2933	-0.0127
782.466	0.0061
782.6386	0.0043
782.8113	0.0056
782.9839	0.0085
783.1565	-0.0063
783.329	0.003
783.5016	0.0034
783.6741	0.0005
783.8466	-0.0035
784.0191	0.0075
784.1916	-0.0019
784.3641	-0.0016
784.5365	0.0023
784.7089	0.0019
784.8813	-0.0139
785.0537	0.0005
785.2261	-0.009
785.3984	-0.008
785.5707	-0.0097
785.743	-0.0086
785.9153	-0.0068
786.0876	-0.007
786.2598	-0.0147
786.432	-0.0133
786.6042	-0.0016
786.7764	-0.0232
786.9486	-0.0102
787.1207	-0.0184
787.2928	-0.0043
787.4649	-0.0152
787.637	-0.0029
787.8091	-0.008
787.9811	-0.0079
788.1532	-0.0123
788.3252	0.0093
788.4972	-0.0087
788.6691	-0.0096
788.8411	0.0087
789.013	-0.0145
789.1849	-0.0052
789.3568	-0.012
789.5287	-0.0033
789.7005	-0.0199
789.8723	0.0069
790.0442	0.004
790.2159	-0.0081
790.3877	-0.0093
790.5595	-0.0135
790.7312	-0.0134
790.9029	-0.0025
791.0746	-0.0162
791.2463	-0.0049
791.4179	-0.0038
791.5896	-0.0006
791.7612	-0.0118
791.9328	0.0005
792.1044	-0.0136
792.2759	-0.0079
792.4474	-0.0084
792.619	-0.0096
792.7905	-0.0106
792.9619	-0.0024
793.1334	0.009
793.3048	0.012
793.4762	-0.0033
793.6476	-0.0015
793.819	-0.0099
793.9904	0.0073
794.1617	-0.0198
794.333	-0.0062
794.5043	-0.0111
794.6756	-0.0045
794.8469	-0.0037
795.0181	-0.011
795.1893	-0.012
795.3605	0.0075
795.5317	-0.0052
795.7029	-0.0034
795.874	0.0077
796.0452	-0.0063
796.2163	-0.0024
796.3873	0.0014
796.5584	0.0084
796.7294	0.0061
796.9005	0.0046
797.0715	-0.0017
797.2425	-0.026
797.4134	-0.0063
797.5844	0.0004
797.7553	-0.0213
797.9262	-0.0119
798.0971	-0.0254
798.2679	-0.0204
798.4388	-0.0015
798.6096	-0.0107
798.7804	0.0023
798.9512	0.0032
799.122	-0.0216
799.2927	-0.0133
799.4635	-0.0045
799.6342	-0.0285
799.8049	-0.0065
799.9755	0.0016
800.1462	-0.0097
800.3168	-0.0107
800.4874	0.0027
800.658	0.0148
800.8286	0.0045
800.9991	0.0076
801.1696	0.0053
801.3402	-0.0019
801.5106	0.0118
801.6811	-0.0161
801.8516	0.0084
802.022	-0.0045
802.1924	-0.0057
802.3628	0.0021
802.5332	0.0095
802.7035	-0.0002
802.8739	0.006
803.0442	-0.0241
803.2145	0.0013
803.3847	-0.0225
803.555	-0.0019
803.7252	-0.0149
803.8954	-0.0079
804.0656	-0.0097
804.2358	-0.0017
804.4059	0.0152
804.5761	-0.0019
804.7462	0.0064
804.9163	-0.0024
805.0864	-0.0277
805.2564	-0.008
805.4264	0.0031
805.5965	-0.0082
805.7665	0.0115
805.9364	-0.0064
806.1064	0.0216
806.2763	0.0013
806.4462	0.0096
806.6161	0.0009
806.786	-0.0006
806.9559	-0.0114
807.1257	-0.0146
807.2955	-0.0027
807.4653	-0.0025
807.6351	-0.0056
807.8048	-0.0026
807.9746	-0.0063
808.1443	0.0133
808.314	-0.0007
808.4837	0.0026
808.6533	-0.0131
808.8229	0.0346
808.9926	0.0047
809.1622	0.0134
809.3317	-0.0273
809.5013	-0.0091
809.6708	0.0012
809.8403	-0.0054
810.0098	-0.0127
810.1793	0.0031
810.3488	0.0104
810.5182	-0.0281
810.6876	-0.008
810.857	-0.0121
811.0264	0.0189
811.1958	0.013
811.3651	0.0177
811.5344	-0.0107
811.7037	-0.0073
811.873	-0.0024
812.0422	0
812.2115	0.0171
812.3807	-0.0159
812.5499	0.0252
812.7191	0.0204
812.8882	-0.0031
813.0574	-0.0109
813.2265	-0.0021
813.3956	0.0115
813.5646	-0.0093
813.7337	-0.0204
813.9027	0.0008
814.0718	0.0049
814.2407	0.0159
814.4097	-0.0159
814.5787	-0.0055
814.7476	-0.0166
814.9165	-0.0088
815.0854	-0.0064
815.2543	-0.0063
815.4232	-0.0166
815.592	-0.0043
815.7608	-0.0096
815.9296	-0.0093
816.0984	0.0137
816.2671	-0.0244
816.4359	-0.0066
816.6046	0.0172
816.7733	-0.0147
816.942	-0.028
817.1106	0.0107
817.2793	0.0025
817.4479	-0.0197
817.6165	0.0003
817.785	-0.0015
817.9536	-0.0078
818.1221	-0.0271
818.2906	-0.0157
818.4591	-0.0116
818.6276	-0.012
818.7961	-0.0069
818.9645	-0.0143
819.1329	-0.0072
819.3013	0.0219
819.4697	0.0273
819.638	-0.0115
819.8064	-0.0091
819.9747	0.0501
820.143	-0.0196
820.3113	-0.0178
820.4795	0.0121
820.6477	0.0154
820.816	0.0189
820.9842	0.031
821.1523	0.0132
821.3205	0.0181
821.4886	-0.0061
821.6567	0.0058
821.8248	0.0077
821.9929	0.0173
822.1609	-0.0052
822.329	0.0262
822.497	0.0118
822.665	0.0072
822.833	-0.027
823.0009	-0.0037
823.1688	-0.0187
823.3367	0.007
823.5046	0.0293
823.6725	0.0364
823.8404	0.0194
824.0082	0.0139
824.176	0.0112
824.3438	-0.0224
824.5116	-0.0216
824.6793	0.0113
824.847	-0.0057
825.0147	0.017
825.1824	0.0561
825.3501	-0.0147
825.5177	-0.0096
825.6854	-0.0202
825.853	0.0241
826.0206	-0.0292
826.1881	0.0061
826.3557	-0.0423
826.5232	0.0182
826.6907	-0.0189
826.8582	0.0023
827.0257	-0.0421
827.1931	-0.0288
827.3605	-0.0062
827.528	0.0075
827.6953	-0.0326
827.8627	-0.0115
828.03	0.0363
828.1974	-0.0046
828.3647	-0.0398
828.532	-0.0314
828.6992	-0.0202
828.8665	-0.0117
829.0337	-0.0264
829.2009	-0.0113
829.3681	-0.001
829.5352	0.0114
829.7024	-0.0163
829.8695	-0.0218
830.0366	0.0524
830.2037	0.0062
830.3707	0.027
830.5378	0.0049
830.7048	0.005
830.8718	0.0017
831.0388	-0.0336
831.2057	-0.0197
831.3727	0.023
831.5396	0.0052
831.7065	-0.0191
831.8734	-0.0122
832.0402	-0.014
832.2071	0.0208
832.3739	-0.0011
832.5407	-0.0198
832.7075	-0.0324
832.8742	-0.0162
833.041	-0.0227
833.2077	-0.0072
833.3744	0.0048
833.541	-0.0302
833.7077	-0.0484
833.8743	0.0073
834.0409	0.0093
834.2075	-0.0069
834.3741	-0.0175
834.5407	-0.0037
834.7072	0.0358
834.8737	-0.0422
835.0402	-0.0273
835.2067	0.0127
835.3731	-0.0117
835.5395	0.0091
835.706	-0.007
835.8723	0.0147
836.0387	0.0374
836.2051	0.0001
836.3714	0.0028
836.5377	-0.0074
836.704	-0.0296
836.8703	0.0702
837.0365	-0.0192
837.2027	-0.0082
837.3689	0.0188
837.5351	-0.0434
837.7013	-0.0075
837.8674	-0.0112
838.0335	-0.0183
838.1997	-0.0182
838.3657	-0.0247
838.5318	-0.0336
838.6978	0.0472
838.8639	0.0152
839.0299	0.0009
839.1958	0.008
839.3618	-0.0176
839.5277	0.0035
839.6937	0.0092
839.8596	-0.0098
840.0254	0.0699
840.1913	0.0017
840.3571	-0.0196
840.523	-0.0019
840.6888	0.0153
840.8545	-0.0675
841.0203	0.0089
841.186	0.0087
841.3517	0.0091
841.5174	-0.0025
841.6831	0.0106
841.8488	-0.0106
842.0144	0.0566
842.18	0.0256
842.3456	0.0262
842.5112	0.0156
842.6767	-0.0275
842.8422	-0.0063
843.0077	0.0116
843.1732	-0.0494
843.3387	-0.0295
843.5042	0.0216
843.6696	0.0099
843.835	-0.0095
844.0004	0.0261
844.1657	-0.0059
844.3311	-0.005
844.4964	-0.0711
844.6617	-0.0716
844.827	-0.0045
844.9923	-0.0222
845.1575	-0.0151
845.3227	-0.0428
845.4879	-0.0626
845.6531	-0.0634
845.8183	-0.0192
845.9834	-0.0036
846.1485	-0.018
846.3136	-0.0558
846.4787	-0.0806
846.6438	0.0427
846.8088	-0.0612
846.9738	-0.0266
847.1388	0.0369
847.3038	-0.0552
847.4687	-0.0845
847.6337	0.0027
847.7986	0.0219
847.9635	0.029
848.1284	0.0477
848.2932	0.0777
848.458	0.0393
848.6228	0.0643
848.7876	0.1283
848.9524	-0.0282
849.1172	-0.0368
849.2819	0.0567
849.4466	-0.0818
849.6113	-0.0984
849.7759	-0.0766
849.9406	-0.0392
850.1052	-0.01
850.2698	0.0722
850.4344	-0.0428
850.599	-0.0514
850.7635	0.0357
850.928	-0.1082
851.0925	-0.0313
851.257	-0.0086
851.4215	0.0139
851.5859	0.0204
851.7503	-0.0422
851.9147	-0.0436
852.0791	-0.0515
852.2434	0.0156
852.4078	0.0018
852.5721	0.0497
852.7364	-0.0516
852.9007	-0.207
853.0649	0.0061
853.2291	0.0078
853.3934	-0.031
853.5575	-0.0147
853.7217	-0.0826
853.8859	-0.0981
854.05	-0.1092
854.2141	-0.0442
854.3782	-0.0775
854.5423	-0.0802
854.7063	0.1485
854.8703	0.1353
855.0343	-0.0121
855.1983	-0.1334
855.3623	0.1076
855.5262	0.0558
855.6901	-0.0142
855.854	0.0368
856.0179	0.0347
856.1818	0.2048
856.3456	0.1988
856.5094	0.0187
856.6732	0.0185
856.837	-0.0544
857.0008	0.1346
857.1645	-0.0592
857.3282	-0.2055
857.4919	0.3931
857.6556	-0.0274
857.8192	0.0239
857.9828	-0.0026
858.1465	0.0043
858.31	0.0502
858.4736	-0.0623
858.6372	-0.3401
858.8007	-0.2322
858.9642	0.0696
859.1277	0.3777
859.2911	0.2098
859.4546	-0.0193
859.618	-0.4511
859.7814	-0.117
859.9448	0.076
860.1081	-0.1894
860.2715	0.2151
860.4348	0.1411
860.5981	0.0451
860.7614	0.0162
860.9246	-0.0435
861.0879	-0.2561
861.2511	0.0812
861.4143	-0.278
861.5774	0.277
861.7406	-0.0134
861.9037	0.0883
862.0668	0.0211
862.2299	-0.0206
862.393	-0.308
862.556	-0.0285
862.7191	0.0376
862.8821	-0.2655
863.0451	0.1818
863.208	0.2928
863.371	0.112
863.5339	0.149
863.6968	0.3761
863.8597	-0.0819
864.0225	0.0713
864.1854	-0.034
864.3482	1.5235
864.511	0.1896
864.6737	0.2515
864.8365	-0.1109
864.9992	0.6237
865.1619	-0.4736
865.3246	-0.1012
865.4873	-0.0507
865.65	-0.3502
865.8126	0.1609
865.9752	0.2043
866.1378	0.2777
866.3004	-0
866.4629	0.2672
866.6254	-0.3444
866.7879	0.3742
866.9504	0.086
867.1129	-0
867.2753	1.1825
867.4377	0.351
867.6001	-0.0856
867.7625	-0.0199
867.9249	-0.6799
868.0872	0.0763
868.2495	0.1674
868.4118	-0.1945
868.5741	-0.7216
868.7363	-0.0677
868.8986	0.1426
869.0608	-0.3121
869.223	0.2961
869.3851	-0
869.5473	-0
869.7094	0.1865
869.8715	1.0504
870.0336	-0
870.1957	0.223
870.3577	-0.9386
870.5197	0.1197
870.6817	-0.4531
870.8437	-0.0615
871.0057	-0
871.1676	-0
871.3295	-0.3947
871.4914	-0.0878
871.6533	-0.4091
871.8151	-0.2697
871.977	-0
872.1388	-0
872.3006	-0.5811
872.4623	0.0884
872.6241	0.7507
872.7858	-0
872.9475	0.1574
873.1092	0.4901
873.2709	-0
873.4325	-0.2253
873.5941	-0
873.7557	0.2206
873.9173	0.9317
874.0789	-0.2549
874.2404	-0.2934
874.4019	0.0903
874.5634	0.3551
874.7249	0.0101
874.8863	0.1766
875.0478	-0
875.2092	-0
875.3706	0.5284
875.5319	-0.9211
875.6933	0.1849
875.8546	0.7935
876.0159	-0.4179
876.1772	-0
876.3385	-0
876.4997	0.1356
876.6609	-0.2645
876.8221	-0.2185
876.9833	-0.2233
877.1445	0.3597
877.3056	0.2008
877.4667	0.6237
877.6278	-0.1089
877.7889	-0.6408
877.9499	-0
878.111	-0.5674
878.272	-0
878.433	0.5596
878.5939	-0
878.7549	-0.0337
878.9158	0.2242
879.0767	0.3985
879.2376	-0
879.3984	-0
879.5593	-0.5979
879.7201	-0.2747
879.8809	-0.2957
880.0417	-0.2008
880.2024	0.4639
880.3632	-0.7089
880.5239	0.1579
880.6846	-0
880.8452	-2.2844
881.0059	-1.281
881.1665	0.7822
881.3271	0.2686
881.4877	-0
881.6483	-0.4835
881.8088	-0.4232
881.9693	0.3906
882.1298	0.3906
882.2903	0.3906
