Data from MonoPyChalIsomerACN10uM350nmA_Absorbance_14-35-39-315.txt Node
Date: Fri Jul 05 14:35:39 BST 2024
User: LASERRRRR
Spectrometer: FLMT03099
Trigger mode: 0
Integration Time (sec): 1.000000E-1
Scans to average: 1
Electric dark correction enabled: true
Nonlinearity correction enabled: false
Boxcar width: 0
XAxis mode: Wavelengths
Number of Pixels in Spectrum: 3648
>>>>>Begin Spectral Data<<<<<
179.3399	0.301
179.5586	0.301
179.7771	0.301
179.9957	1.5125
180.2143	-0
180.4329	-0.1443
180.6514	0.5592
180.8699	-0
181.0885	-0.31
181.307	0.1207
181.5255	-0.7801
181.744	-0.5619
181.9625	-0
182.181	-0.7089
182.3994	1.113
182.6179	-0
182.8363	-0.0826
183.0547	0.6807
183.2732	0.0126
183.4916	0.3679
183.71	0.3129
183.9284	0.3467
184.1467	0.0774
184.3651	0.1811
184.5835	-0.0855
184.8018	0.075
185.0201	0.0153
185.2385	-0.0995
185.4568	0.138
185.6751	0.0973
185.8934	0.3959
186.1117	-0.0525
186.3299	-0.0608
186.5482	0.1357
186.7664	0.0149
186.9847	-0.0825
187.2029	0.285
187.4211	0.0955
187.6393	0.0392
187.8575	-0.1694
188.0757	0.3248
188.2939	0.1305
188.512	0.1201
188.7302	-0.1258
188.9483	0.0847
189.1665	0.4278
189.3846	-0.0584
189.6027	0.1463
189.8208	0.1583
190.0389	0.2647
190.257	0.1733
190.475	0.2573
190.6931	0.2296
190.9111	0.6315
191.1292	0.0985
191.3472	0.3646
191.5652	0.3181
191.7832	0.1938
192.0012	0.6517
192.2192	0.3186
192.4371	0.9424
192.6551	0.5895
192.873	0.5252
193.091	0.341
193.3089	0.7049
193.5268	0.3145
193.7447	0.5637
193.9626	0.4524
194.1805	0.6285
194.3984	0.7214
194.6162	0.6601
194.8341	0.5019
195.0519	0.4007
195.2697	0.8067
195.4875	1.1631
195.7054	0.5192
195.9231	0.6449
196.1409	0.5682
196.3587	0.7123
196.5765	0.5051
196.7942	0.5672
197.012	0.7033
197.2297	0.6948
197.4474	0.8187
197.6651	0.6369
197.8828	0.6027
198.1005	0.5764
198.3182	0.7293
198.5358	0.793
198.7535	0.6593
198.9711	0.5519
199.1888	0.7065
199.4064	0.7234
199.624	0.5436
199.8416	0.5935
200.0592	0.5877
200.2767	0.7593
200.4943	0.695
200.7119	0.6058
200.9294	0.5799
201.1469	0.5424
201.3645	0.6031
201.582	0.6109
201.7995	0.7366
202.017	0.5852
202.2344	0.6531
202.4519	0.7109
202.6694	0.6262
202.8868	0.5683
203.1042	0.7658
203.3217	0.6833
203.5391	0.6305
203.7565	0.6179
203.9739	0.6367
204.1913	0.7229
204.4086	0.6035
204.626	0.7903
204.8433	0.5929
205.0607	0.5875
205.278	0.6079
205.4953	0.6078
205.7126	0.6435
205.9299	0.81
206.1472	0.8383
206.3644	0.6275
206.5817	0.7031
206.7989	0.6875
207.0162	0.7091
207.2334	0.6708
207.4506	0.6541
207.6678	0.658
207.885	0.639
208.1022	0.6361
208.3194	0.6408
208.5365	0.6723
208.7537	0.6766
208.9708	0.5391
209.1879	0.6799
209.405	0.6662
209.6222	0.6992
209.8392	0.6611
210.0563	0.5901
210.2734	0.6611
210.4905	0.5955
210.7075	0.6207
210.9245	0.532
211.1416	0.7807
211.3586	0.6419
211.5756	0.6244
211.7926	0.5812
212.0096	0.597
212.2265	0.5891
212.4435	0.5497
212.6604	0.5863
212.8774	0.5918
213.0943	0.6484
213.3112	0.5627
213.5281	0.509
213.745	0.4883
213.9619	0.4933
214.1788	0.5179
214.3956	0.4875
214.6125	0.4655
214.8293	0.4442
215.0461	0.4492
215.2629	0.4643
215.4798	0.4414
215.6965	0.4062
215.9133	0.4207
216.1301	0.409
216.3469	0.4599
216.5636	0.4048
216.7803	0.4058
216.9971	0.4138
217.2138	0.3969
217.4305	0.3506
217.6472	0.3638
217.8639	0.384
218.0805	0.3456
218.2972	0.3431
218.5138	0.3374
218.7305	0.3284
218.9471	0.3017
219.1637	0.2855
219.3803	0.2713
219.5969	0.2893
219.8135	0.2368
220.0301	0.2651
220.2466	0.2719
220.4632	0.254
220.6797	0.2451
220.8962	0.2333
221.1127	0.261
221.3292	0.2607
221.5457	0.2372
221.7622	0.2439
221.9787	0.2438
222.1951	0.2151
222.4116	0.2748
222.628	0.2558
222.8444	0.2617
223.0608	0.2492
223.2772	0.2624
223.4936	0.2623
223.71	0.2414
223.9264	0.239
224.1427	0.2606
224.3591	0.2582
224.5754	0.2465
224.7917	0.2765
225.008	0.2599
225.2243	0.2536
225.4406	0.2889
225.6569	0.2723
225.8732	0.2636
226.0894	0.266
226.3057	0.2585
226.5219	0.2701
226.7381	0.2783
226.9543	0.2841
227.1705	0.2988
227.3867	0.2662
227.6029	0.3007
227.8191	0.2847
228.0352	0.2918
228.2513	0.3093
228.4675	0.3009
228.6836	0.2984
228.8997	0.3064
229.1158	0.3062
229.3319	0.3056
229.548	0.3309
229.764	0.3135
229.9801	0.3371
230.1961	0.3295
230.4121	0.3308
230.6282	0.331
230.8442	0.3354
231.0602	0.3495
231.2761	0.3478
231.4921	0.344
231.7081	0.3446
231.924	0.3292
232.14	0.3625
232.3559	0.3363
232.5718	0.3423
232.7877	0.3566
233.0036	0.3649
233.2195	0.3575
233.4353	0.3509
233.6512	0.3599
233.867	0.3559
234.0829	0.3543
234.2987	0.3741
234.5145	0.3699
234.7303	0.3699
234.9461	0.3835
235.1619	0.3724
235.3776	0.37
235.5934	0.3969
235.8091	0.3616
236.0249	0.3896
236.2406	0.3681
236.4563	0.374
236.672	0.3933
236.8877	0.4069
237.1034	0.4042
237.319	0.3703
237.5347	0.4084
237.7503	0.3816
237.966	0.3996
238.1816	0.414
238.3972	0.3928
238.6128	0.3807
238.8284	0.41
239.0439	0.3877
239.2595	0.4025
239.475	0.4082
239.6906	0.4084
239.9061	0.4035
240.1216	0.3975
240.3371	0.4135
240.5526	0.4137
240.7681	0.4022
240.9836	0.3903
241.199	0.4075
241.4145	0.3783
241.6299	0.3946
241.8453	0.3763
242.0607	0.3943
242.2761	0.3597
242.4915	0.3694
242.7069	0.3618
242.9223	0.3851
243.1376	0.359
243.353	0.358
243.5683	0.3487
243.7836	0.3241
243.9989	0.3381
244.2142	0.3056
244.4295	0.3142
244.6448	0.305
244.86	0.2846
245.0753	0.2938
245.2905	0.2813
245.5057	0.2705
245.721	0.2821
245.9362	0.2624
246.1514	0.2771
246.3665	0.2609
246.5817	0.2531
246.7969	0.2461
247.012	0.2508
247.2271	0.2456
247.4423	0.2482
247.6574	0.2488
247.8725	0.2388
248.0876	0.2132
248.3026	0.2399
248.5177	0.2265
248.7328	0.2138
248.9478	0.1962
249.1628	0.2173
249.3779	0.2247
249.5929	0.206
249.8079	0.2106
250.0228	0.1955
250.2378	0.2002
250.4528	0.1984
250.6677	0.185
250.8827	0.2069
251.0976	0.2002
251.3125	0.1938
251.5274	0.1807
251.7423	0.1858
251.9572	0.1927
252.172	0.1741
252.3869	0.1905
252.6017	0.1769
252.8166	0.1678
253.0314	0.1652
253.2462	0.1729
253.461	0.1691
253.6758	0.1653
253.8906	0.1655
254.1053	0.1654
254.3201	0.1773
254.5348	0.1883
254.7496	0.1813
254.9643	0.1664
255.179	0.175
255.3937	0.1639
255.6083	0.1683
255.823	0.1696
256.0377	0.1702
256.2523	0.1694
256.467	0.1441
256.6816	0.1829
256.8962	0.1689
257.1108	0.1469
257.3254	0.1746
257.54	0.151
257.7545	0.1815
257.9691	0.181
258.1836	0.1731
258.3981	0.1756
258.6127	0.1699
258.8272	0.1642
259.0417	0.1513
259.2561	0.1606
259.4706	0.1771
259.6851	0.1701
259.8995	0.1667
260.114	0.1666
260.3284	0.1604
260.5428	0.167
260.7572	0.1643
260.9716	0.1815
261.186	0.1584
261.4003	0.1596
261.6147	0.1582
261.829	0.1658
262.0433	0.1612
262.2577	0.1624
262.472	0.1586
262.6863	0.162
262.9005	0.1601
263.1148	0.1609
263.3291	0.1486
263.5433	0.1634
263.7576	0.1686
263.9718	0.1584
264.186	0.1524
264.4002	0.1457
264.6144	0.1621
264.8286	0.1613
265.0427	0.1533
265.2569	0.1583
265.471	0.161
265.6851	0.1606
265.8993	0.1545
266.1134	0.1645
266.3275	0.1656
266.5415	0.1536
266.7556	0.1662
266.9697	0.1671
267.1837	0.1672
267.3978	0.1582
267.6118	0.168
267.8258	0.1732
268.0398	0.1558
268.2538	0.1547
268.4677	0.1609
268.6817	0.156
268.8957	0.1595
269.1096	0.1627
269.3235	0.1641
269.5374	0.152
269.7514	0.1636
269.9652	0.1512
270.1791	0.1537
270.393	0.1407
270.6068	0.1557
270.8207	0.1431
271.0345	0.1379
271.2483	0.1495
271.4622	0.1389
271.676	0.1541
271.8897	0.1406
272.1035	0.1434
272.3173	0.1389
272.531	0.1483
272.7448	0.1493
272.9585	0.1399
273.1722	0.1495
273.3859	0.1555
273.5996	0.133
273.8133	0.1344
274.0269	0.1396
274.2406	0.1444
274.4542	0.1463
274.6679	0.1342
274.8815	0.1373
275.0951	0.1597
275.3087	0.1635
275.5223	0.1464
275.7358	0.1493
275.9494	0.1476
276.1629	0.149
276.3765	0.1318
276.59	0.1497
276.8035	0.1485
277.017	0.1491
277.2305	0.1393
277.444	0.1577
277.6574	0.1529
277.8709	0.1518
278.0843	0.1375
278.2978	0.1459
278.5112	0.1439
278.7246	0.1428
278.938	0.1569
279.1513	0.1532
279.3647	0.1519
279.5781	0.1365
279.7914	0.1516
280.0047	0.1618
280.2181	0.152
280.4314	0.1491
280.6447	0.1484
280.8579	0.1469
281.0712	0.1566
281.2845	0.1505
281.4977	0.1467
281.711	0.151
281.9242	0.1409
282.1374	0.1679
282.3506	0.1438
282.5638	0.1635
282.7769	0.1466
282.9901	0.161
283.2033	0.1585
283.4164	0.1556
283.6295	0.1478
283.8426	0.152
284.0557	0.1543
284.2688	0.1525
284.4819	0.1482
284.695	0.1612
284.908	0.173
285.1211	0.1586
285.3341	0.1655
285.5471	0.1737
285.7601	0.1633
285.9731	0.1495
286.1861	0.1487
286.3991	0.1562
286.612	0.1706
286.825	0.1628
287.0379	0.1683
287.2508	0.1638
287.4637	0.1647
287.6766	0.1584
287.8895	0.164
288.1024	0.1779
288.3152	0.1749
288.5281	0.1551
288.7409	0.1643
288.9538	0.1583
289.1666	0.165
289.3794	0.1587
289.5922	0.1545
289.8049	0.1662
290.0177	0.1587
290.2304	0.1583
290.4432	0.1614
290.6559	0.1558
290.8686	0.1636
291.0813	0.167
291.294	0.1696
291.5067	0.1778
291.7194	0.1544
291.932	0.1692
292.1447	0.1636
292.3573	0.1558
292.5699	0.1713
292.7825	0.1788
292.9951	0.1684
293.2077	0.1573
293.4203	0.1608
293.6328	0.1496
293.8454	0.1661
294.0579	0.1695
294.2704	0.1692
294.4829	0.1569
294.6954	0.175
294.9079	0.1725
295.1204	0.161
295.3328	0.1574
295.5453	0.1571
295.7577	0.1642
295.9701	0.1597
296.1825	0.1552
296.3949	0.1573
296.6073	0.1595
296.8197	0.1523
297.0321	0.1703
297.2444	0.1523
297.4567	0.1633
297.6691	0.1614
297.8814	0.162
298.0937	0.1557
298.306	0.1676
298.5182	0.1652
298.7305	0.1773
298.9428	0.1532
299.155	0.1625
299.3672	0.1653
299.5794	0.1653
299.7916	0.1577
300.0038	0.1619
300.216	0.1628
300.4282	0.165
300.6403	0.1539
300.8525	0.1559
301.0646	0.1603
301.2767	0.168
301.4888	0.1612
301.7009	0.1543
301.913	0.1545
302.125	0.1654
302.3371	0.1553
302.5491	0.173
302.7612	0.1603
302.9732	0.1667
303.1852	0.1649
303.3972	0.1557
303.6092	0.1532
303.8211	0.1544
304.0331	0.1383
304.245	0.1574
304.457	0.1539
304.6689	0.1476
304.8808	0.1536
305.0927	0.1553
305.3046	0.1419
305.5164	0.1585
305.7283	0.1403
305.9401	0.1558
306.152	0.1551
306.3638	0.1648
306.5756	0.1419
306.7874	0.1486
306.9992	0.1398
307.2109	0.1391
307.4227	0.1296
307.6344	0.1384
307.8462	0.1287
308.0579	0.1366
308.2696	0.1312
308.4813	0.1374
308.693	0.138
308.9046	0.1346
309.1163	0.1234
309.328	0.1248
309.5396	0.1248
309.7512	0.1276
309.9628	0.126
310.1744	0.1288
310.386	0.123
310.5976	0.1228
310.8091	0.1187
311.0207	0.1231
311.2322	0.1275
311.4437	0.1074
311.6552	0.1156
311.8667	0.1161
312.0782	0.0927
312.2897	0.0989
312.5012	0.1115
312.7126	0.105
312.924	0.0954
313.1355	0.1227
313.3469	0.1057
313.5583	0.1091
313.7696	0.1065
313.981	0.1102
314.1924	0.1163
314.4037	0.1007
314.6151	0.1121
314.8264	0.1041
315.0377	0.1088
315.249	0.1058
315.4603	0.1054
315.6716	0.0944
315.8828	0.0933
316.0941	0.0973
316.3053	0.0981
316.5165	0.0958
316.7277	0.0917
316.9389	0.1023
317.1501	0.103
317.3613	0.0948
317.5724	0.086
317.7836	0.1096
317.9947	0.0953
318.2058	0.094
318.417	0.0974
318.6281	0.0859
318.8391	0.0959
319.0502	0.0986
319.2613	0.0959
319.4723	0.1058
319.6834	0.1148
319.8944	0.0845
320.1054	0.0986
320.3164	0.1102
320.5274	0.0882
320.7383	0.1005
320.9493	0.0975
321.1602	0.1057
321.3712	0.0963
321.5821	0.1122
321.793	0.1082
322.0039	0.108
322.2148	0.0984
322.4257	0.1003
322.6365	0.1079
322.8474	0.1076
323.0582	0.1098
323.269	0.0942
323.4798	0.1103
323.6906	0.117
323.9014	0.0999
324.1122	0.1099
324.3229	0.1061
324.5337	0.0863
324.7444	0.0897
324.9551	0.1127
325.1658	0.1038
325.3765	0.1048
325.5872	0.1045
325.7979	0.1045
326.0085	0.098
326.2192	0.1091
326.4298	0.1
326.6404	0.097
326.851	0.1002
327.0616	0.0905
327.2722	0.1062
327.4828	0.1059
327.6933	0.0951
327.9039	0.1177
328.1144	0.116
328.3249	0.1086
328.5354	0.0993
328.7459	0.1089
328.9564	0.1057
329.1669	0.1119
329.3773	0.1164
329.5878	0.1011
329.7982	0.1016
330.0086	0.1027
330.219	0.1058
330.4294	0.1014
330.6398	0.1137
330.8502	0.0992
331.0605	0.1032
331.2708	0.1108
331.4812	0.1015
331.6915	0.1151
331.9018	0.1073
332.1121	0.1062
332.3224	0.106
332.5326	0.1162
332.7429	0.1053
332.9531	0.1232
333.1633	0.1107
333.3735	0.0977
333.5837	0.1032
333.7939	0.1041
334.0041	0.1268
334.2143	0.1212
334.4244	0.1087
334.6346	0.0979
334.8447	0.1141
335.0548	0.1044
335.2649	0.104
335.475	0.1105
335.685	0.0984
335.8951	0.1132
336.1051	0.115
336.3152	0.1083
336.5252	0.1059
336.7352	0.1172
336.9452	0.1145
337.1552	0.1092
337.3652	0.1169
337.5751	0.1161
337.7851	0.1132
337.995	0.1108
338.2049	0.1186
338.4148	0.1117
338.6247	0.1213
338.8346	0.1006
339.0445	0.1144
339.2543	0.1119
339.4642	0.1143
339.674	0.1092
339.8838	0.1144
340.0936	0.1083
340.3034	0.125
340.5132	0.1198
340.7229	0.1144
340.9327	0.1255
341.1424	0.1112
341.3522	0.1275
341.5619	0.1163
341.7716	0.1214
341.9813	0.117
342.1909	0.1224
342.4006	0.1288
342.6102	0.1239
342.8199	0.1141
343.0295	0.1236
343.2391	0.1259
343.4487	0.1301
343.6583	0.1288
343.8679	0.128
344.0774	0.1364
344.287	0.1298
344.4965	0.1155
344.706	0.133
344.9155	0.1277
345.125	0.1238
345.3345	0.1324
345.544	0.1319
345.7534	0.1261
345.9629	0.1257
346.1723	0.1362
346.3817	0.1263
346.5911	0.1338
346.8005	0.1367
347.0099	0.1196
347.2193	0.1392
347.4286	0.1359
347.638	0.1334
347.8473	0.1324
348.0566	0.1289
348.2659	0.133
348.4752	0.1357
348.6845	0.1195
348.8937	0.1353
349.103	0.1461
349.3122	0.1253
349.5214	0.1318
349.7306	0.1332
349.9398	0.137
350.149	0.13
350.3582	0.1393
350.5674	0.1543
350.7765	0.1484
350.9856	0.1547
351.1948	0.1369
351.4039	0.1296
351.613	0.1309
351.822	0.145
352.0311	0.1594
352.2402	0.1464
352.4492	0.163
352.6582	0.1506
352.8672	0.1412
353.0762	0.1503
353.2852	0.1447
353.4942	0.1405
353.7032	0.164
353.9121	0.143
354.1211	0.155
354.33	0.1566
354.5389	0.1598
354.7478	0.1475
354.9567	0.1419
355.1655	0.1559
355.3744	0.1464
355.5833	0.1744
355.7921	0.1606
356.0009	0.1652
356.2097	0.1891
356.4185	0.1694
356.6273	0.1489
356.8361	0.1603
357.0448	0.1565
357.2536	0.1521
357.4623	0.1474
357.671	0.1675
357.8797	0.1683
358.0884	0.1709
358.2971	0.1634
358.5057	0.1604
358.7144	0.1766
358.923	0.1738
359.1316	0.1866
359.3402	0.1703
359.5488	0.1722
359.7574	0.1769
359.966	0.1738
360.1746	0.17
360.3831	0.1764
360.5916	0.1712
360.8002	0.1701
361.0087	0.1849
361.2172	0.1697
361.4256	0.175
361.6341	0.1855
361.8426	0.1779
362.051	0.1963
362.2594	0.1925
362.4678	0.1704
362.6762	0.2082
362.8846	0.1815
363.093	0.1883
363.3014	0.1824
363.5097	0.1783
363.718	0.1842
363.9264	0.1785
364.1347	0.1805
364.343	0.1959
364.5513	0.1941
364.7595	0.2059
364.9678	0.1962
365.176	0.1918
365.3842	0.1853
365.5925	0.1938
365.8007	0.1991
366.0089	0.1946
366.217	0.1709
366.4252	0.1901
366.6333	0.2093
366.8415	0.1787
367.0496	0.1738
367.2577	0.2002
367.4658	0.2018
367.6739	0.2145
367.882	0.2206
368.09	0.2168
368.2981	0.2069
368.5061	0.2028
368.7141	0.226
368.9221	0.2261
369.1301	0.2033
369.3381	0.1999
369.5461	0.2163
369.754	0.2232
369.962	0.212
370.1699	0.2237
370.3778	0.2294
370.5857	0.2058
370.7936	0.2186
371.0015	0.2249
371.2093	0.2306
371.4172	0.224
371.625	0.2046
371.8328	0.2019
372.0406	0.2275
372.2484	0.198
372.4562	0.2186
372.664	0.2162
372.8717	0.2358
373.0795	0.2155
373.2872	0.2142
373.4949	0.216
373.7026	0.2282
373.9103	0.2281
374.118	0.2329
374.3256	0.2239
374.5333	0.2214
374.7409	0.2331
374.9485	0.256
375.1561	0.2381
375.3637	0.2085
375.5713	0.2391
375.7789	0.2364
375.9864	0.2375
376.194	0.2312
376.4015	0.236
376.609	0.24
376.8165	0.2288
377.024	0.2332
377.2315	0.2309
377.4389	0.2289
377.6464	0.2312
377.8538	0.2361
378.0612	0.2382
378.2686	0.2388
378.476	0.2463
378.6834	0.2524
378.8908	0.2252
379.0981	0.2493
379.3055	0.2298
379.5128	0.2409
379.7201	0.2504
379.9274	0.2381
380.1347	0.2608
380.342	0.2626
380.5492	0.2449
380.7565	0.2558
380.9637	0.256
381.1709	0.2442
381.3781	0.2404
381.5853	0.2547
381.7925	0.2436
381.9997	0.2623
382.2068	0.2561
382.4139	0.2392
382.6211	0.2516
382.8282	0.2353
383.0353	0.245
383.2424	0.2391
383.4494	0.2482
383.6565	0.2545
383.8635	0.2466
384.0706	0.2404
384.2776	0.2577
384.4846	0.2455
384.6916	0.2598
384.8986	0.2628
385.1055	0.2488
385.3125	0.2615
385.5194	0.2534
385.7263	0.2702
385.9333	0.2415
386.1402	0.2632
386.347	0.2508
386.5539	0.2537
386.7608	0.2638
386.9676	0.241
387.1744	0.2451
387.3813	0.2599
387.5881	0.2555
387.7948	0.2506
388.0016	0.2573
388.2084	0.249
388.4151	0.2453
388.6219	0.2525
388.8286	0.2458
389.0353	0.2679
389.242	0.24
389.4487	0.2399
389.6553	0.2357
389.862	0.2279
390.0686	0.2214
390.2753	0.2521
390.4819	0.235
390.6885	0.2361
390.8951	0.2596
391.1016	0.2293
391.3082	0.2391
391.5147	0.2358
391.7213	0.2493
391.9278	0.2208
392.1343	0.224
392.3408	0.2255
392.5473	0.2562
392.7537	0.2402
392.9602	0.2326
393.1666	0.2239
393.373	0.2272
393.5794	0.2389
393.7858	0.2226
393.9922	0.2144
394.1986	0.2267
394.4049	0.2289
394.6113	0.199
394.8176	0.209
395.0239	0.2211
395.2302	0.2248
395.4365	0.2284
395.6428	0.2112
395.8491	0.2236
396.0553	0.2293
396.2615	0.2065
396.4678	0.2188
396.674	0.1942
396.8802	0.2005
397.0863	0.2258
397.2925	0.2078
397.4987	0.2176
397.7048	0.2122
397.9109	0.2313
398.117	0.2123
398.3231	0.2147
398.5292	0.2272
398.7353	0.2321
398.9413	0.2012
399.1474	0.2063
399.3534	0.1983
399.5594	0.1945
399.7654	0.2208
399.9714	0.2124
400.1774	0.2064
400.3833	0.1981
400.5893	0.2085
400.7952	0.1977
401.0011	0.1936
401.207	0.2237
401.4129	0.2068
401.6188	0.2149
401.8247	0.2081
402.0305	0.2077
402.2364	0.2062
402.4422	0.2096
402.648	0.2091
402.8538	0.2235
403.0596	0.1959
403.2654	0.2237
403.4711	0.1974
403.6768	0.2127
403.8826	0.2283
404.0883	0.2163
404.294	0.2077
404.4997	0.2072
404.7054	0.2166
404.911	0.2155
405.1167	0.2132
405.3223	0.2085
405.5279	0.2349
405.7335	0.2266
405.9391	0.2071
406.1447	0.1963
406.3502	0.2185
406.5558	0.2133
406.7613	0.2045
406.9668	0.2204
407.1724	0.1999
407.3778	0.1971
407.5833	0.1981
407.7888	0.2019
407.9942	0.2328
408.1997	0.2249
408.4051	0.2052
408.6105	0.2169
408.8159	0.1949
409.0213	0.2133
409.2267	0.2091
409.432	0.2006
409.6374	0.2119
409.8427	0.1924
410.048	0.2238
410.2533	0.1998
410.4586	0.1883
410.6639	0.1851
410.8691	0.1883
411.0744	0.1916
411.2796	0.1968
411.4848	0.197
411.69	0.1918
411.8952	0.2321
412.1004	0.1881
412.3056	0.1997
412.5107	0.1953
412.7158	0.2134
412.921	0.2018
413.1261	0.203
413.3312	0.1918
413.5362	0.2037
413.7413	0.2052
413.9464	0.209
414.1514	0.2
414.3564	0.1906
414.5614	0.1715
414.7664	0.2218
414.9714	0.2009
415.1764	0.2006
415.3813	0.2093
415.5863	0.1816
415.7912	0.2148
415.9961	0.2014
416.201	0.2017
416.4059	0.2046
416.6108	0.1932
416.8156	0.2016
417.0205	0.2189
417.2253	0.196
417.4301	0.1998
417.6349	0.2043
417.8397	0.1929
418.0445	0.2061
418.2492	0.2078
418.454	0.208
418.6587	0.1983
418.8634	0.1887
419.0681	0.1881
419.2728	0.1847
419.4775	0.2053
419.6822	0.1851
419.8868	0.1721
420.0915	0.1872
420.2961	0.1807
420.5007	0.1806
420.7053	0.1793
420.9099	0.1839
421.1144	0.192
421.319	0.1853
421.5235	0.1818
421.728	0.1882
421.9325	0.1886
422.137	0.1913
422.3415	0.1714
422.546	0.189
422.7504	0.1869
422.9549	0.1935
423.1593	0.1908
423.3637	0.2022
423.5681	0.1888
423.7725	0.1737
423.9769	0.1593
424.1812	0.1632
424.3856	0.1776
424.5899	0.1664
424.7942	0.1849
424.9985	0.1783
425.2028	0.1675
425.4071	0.1841
425.6113	0.1703
425.8156	0.1618
426.0198	0.1899
426.224	0.1648
426.4282	0.1749
426.6324	0.161
426.8366	0.1617
427.0407	0.1654
427.2449	0.1541
427.449	0.1656
427.6531	0.1334
427.8572	0.1558
428.0613	0.1573
428.2654	0.1489
428.4694	0.1532
428.6735	0.1384
428.8775	0.1595
429.0815	0.182
429.2855	0.1308
429.4895	0.1478
429.6935	0.1566
429.8975	0.1415
430.1014	0.1363
430.3053	0.129
430.5093	0.1274
430.7132	0.1221
430.9171	0.1409
431.1209	0.1346
431.3248	0.1297
431.5286	0.1471
431.7325	0.1427
431.9363	0.1221
432.1401	0.1427
432.3439	0.1249
432.5477	0.118
432.7514	0.1105
432.9552	0.1188
433.1589	0.1137
433.3627	0.1174
433.5664	0.1288
433.7701	0.1098
433.9737	0.1205
434.1774	0.098
434.3811	0.1177
434.5847	0.1131
434.7883	0.1271
434.9919	0.0931
435.1955	0.1032
435.3991	0.1014
435.6027	0.1002
435.8062	0.1098
436.0098	0.0886
436.2133	0.0983
436.4168	0.0932
436.6203	0.0968
436.8238	0.093
437.0272	0.0891
437.2307	0.1012
437.4341	0.1068
437.6375	0.0984
437.841	0.088
438.0443	0.0998
438.2477	0.089
438.4511	0.0897
438.6545	0.095
438.8578	0.0839
439.0611	0.0968
439.2644	0.101
439.4677	0.0722
439.671	0.0678
439.8743	0.0827
440.0775	0.0942
440.2808	0.0837
440.484	0.072
440.6872	0.0613
440.8904	0.068
441.0936	0.0891
441.2967	0.0843
441.4999	0.0695
441.703	0.0773
441.9062	0.0707
442.1093	0.0716
442.3124	0.0624
442.5155	0.056
442.7185	0.0737
442.9216	0.0508
443.1246	0.0754
443.3276	0.0574
443.5307	0.0559
443.7337	0.0621
443.9366	0.0695
444.1396	0.0527
444.3426	0.0529
444.5455	0.0573
444.7484	0.0428
444.9513	0.049
445.1542	0.0567
445.3571	0.0371
445.56	0.0517
445.7628	0.0358
445.9657	0.0456
446.1685	0.0528
446.3713	0.0474
446.5741	0.0355
446.7769	0.0358
446.9797	0.048
447.1824	0.0418
447.3852	0.0372
447.5879	0.0607
447.7906	0.0522
447.9933	0.0435
448.196	0.0343
448.3986	0.031
448.6013	0.0341
448.8039	0.0204
449.0066	0.0223
449.2092	0.0477
449.4118	0.0485
449.6143	0.0312
449.8169	0.0364
450.0195	0.0319
450.222	0.016
450.4245	0.0311
450.627	0.0318
450.8295	0.028
451.032	0.036
451.2345	0.012
451.4369	0.0395
451.6394	0.0219
451.8418	0.022
452.0442	0.0093
452.2466	0.0353
452.449	0.0096
452.6513	0.0185
452.8537	0.0215
453.056	0.0027
453.2583	0.0214
453.4607	0.0184
453.663	0.0315
453.8652	0.0223
454.0675	0.0004
454.2697	0.0118
454.472	0.0157
454.6742	0.0196
454.8764	0.0143
455.0786	0.0272
455.2808	0.0155
455.4829	0.014
455.6851	0.0083
455.8872	0.0228
456.0893	0.0292
456.2915	0.0041
456.4935	0.0166
456.6956	0.0065
456.8977	0.0161
457.0997	0.0067
457.3018	0.0038
457.5038	0.0161
457.7058	0.0102
457.9078	-0.001
458.1098	0.0151
458.3117	0.0152
458.5137	0.0112
458.7156	0.0104
458.9175	-0.0053
459.1194	0.0157
459.3213	0.0062
459.5232	-0.0001
459.725	0.0046
459.9269	-0.0002
460.1287	0.0037
460.3305	0.0078
460.5323	0.0094
460.7341	0.0017
460.9359	0.0123
461.1376	0.0095
461.3394	-0.0028
461.5411	0.0066
461.7428	0.0163
461.9445	0.0095
462.1462	0.0264
462.3479	-0.0009
462.5495	0.0047
462.7512	0.0154
462.9528	-0.0076
463.1544	-0.0103
463.356	-0.0015
463.5576	0.0182
463.7592	-0.0045
463.9607	0.0126
464.1623	0.0061
464.3638	0.015
464.5653	-0.0033
464.7668	0.0009
464.9683	0.0111
465.1697	0.0073
465.3712	0.0098
465.5726	0.0081
465.7741	-0.0013
465.9755	-0.0126
466.1769	-0.0037
466.3782	0.0051
466.5796	-0.0021
466.7809	0.0287
466.9823	-0.0016
467.1836	0.0031
467.3849	-0.0006
467.5862	0.0056
467.7875	-0.0059
467.9887	0.0109
468.19	0.0047
468.3912	-0.0154
468.5924	-0.0084
468.7936	-0.0131
468.9948	0.017
469.196	0.0125
469.3972	-0.0122
469.5983	0.0092
469.7994	0.0009
470.0006	-0.0081
470.2017	0.0026
470.4027	-0.0036
470.6038	0.0066
470.8049	-0.0157
471.0059	-0.0123
471.2069	-0.0183
471.408	0.013
471.6089	0.0045
471.8099	0.0155
472.0109	0.0007
472.2119	0.0086
472.4128	-0.0235
472.6137	0.0201
472.8146	-0.0057
473.0155	0.0034
473.2164	0.0008
473.4173	0.0086
473.6181	0.0056
473.819	-0.0059
474.0198	-0.0102
474.2206	-0.0014
474.4214	0.0046
474.6222	0.0027
474.8229	-0.0112
475.0237	-0.0041
475.2244	0.0014
475.4251	0.0092
475.6258	0.0015
475.8265	-0.0016
476.0272	-0.002
476.2278	0.0028
476.4285	0.0014
476.6291	-0.0007
476.8297	0.0022
477.0303	0.0008
477.2309	-0.0048
477.4315	-0.013
477.632	-0.0072
477.8326	0.0004
478.0331	0.0042
478.2336	-0.0017
478.4341	0.0042
478.6346	-0.0052
478.8351	-0.0048
479.0355	0.0169
479.236	-0.0043
479.4364	-0.0009
479.6368	0.001
479.8372	-0.0075
480.0376	-0.0061
480.2379	-0.0164
480.4383	-0.0099
480.6386	0.0098
480.8389	-0.0001
481.0392	-0.0008
481.2395	-0.0126
481.4398	0.0038
481.6401	0.0092
481.8403	-0.0147
482.0405	-0.0014
482.2408	-0.0029
482.441	0.0091
482.6411	-0.0057
482.8413	0.0077
483.0415	-0.0044
483.2416	-0.0065
483.4417	-0.0006
483.6419	-0.0048
483.8419	0.0032
484.042	0.0089
484.2421	-0.0017
484.4422	0.0039
484.6422	-0.0039
484.8422	0
485.0422	0.0008
485.2422	0.0062
485.4422	-0.0051
485.6422	-0.0053
485.8421	0.0056
486.042	-0.0013
486.242	0.0091
486.4419	-0.0077
486.6417	-0.02
486.8416	-0.0022
487.0415	-0.0074
487.2413	0.0003
487.4411	-0.0041
487.641	-0.018
487.8408	0.0067
488.0405	-0.0066
488.2403	-0.0023
488.4401	0.0098
488.6398	0.0013
488.8395	-0.0071
489.0392	0.0024
489.2389	-0.009
489.4386	-0.0054
489.6383	-0.0014
489.8379	0.0093
490.0376	-0.0038
490.2372	-0.0074
490.4368	-0.0093
490.6364	0.0034
490.836	-0.0045
491.0355	0.0043
491.2351	-0.0052
491.4346	-0.0024
491.6341	0.0025
491.8336	0.0072
492.0331	-0.0096
492.2326	-0.0064
492.432	0.0072
492.6315	-0.0044
492.8309	-0.0046
493.0303	-0.0086
493.2297	0.0013
493.4291	0.0068
493.6284	0.0014
493.8278	0.0032
494.0271	0.008
494.2264	0.005
494.4257	-0.0132
494.625	-0.0036
494.8243	-0.0071
495.0236	-0.0062
495.2228	-0.0158
495.422	0.0027
495.6213	-0.0012
495.8205	0.0022
496.0196	0.0034
496.2188	-0.0007
496.418	-0.0106
496.6171	-0.0067
496.8162	-0.0145
497.0153	0.0069
497.2144	-0.0077
497.4135	-0.0025
497.6126	-0.0103
497.8116	-0.0017
498.0107	0.0027
498.2097	-0.0101
498.4087	-0.0044
498.6077	0.0081
498.8067	-0.0083
499.0056	0.0035
499.2046	-0.0176
499.4035	-0.0146
499.6024	-0.0054
499.8013	0.0015
500.0002	-0.0081
500.199	0.0003
500.3979	-0.0062
500.5967	-0.0204
500.7956	0.0052
500.9944	-0.0058
501.1932	-0.0084
501.3919	-0.0034
501.5907	-0.0082
501.7895	-0.0159
501.9882	-0.0114
502.1869	-0.0039
502.3856	-0.0117
502.5843	-0.0075
502.783	-0.0026
502.9816	-0.0078
503.1803	-0.0109
503.3789	-0.0137
503.5775	0.006
503.7761	-0.0103
503.9747	-0.004
504.1732	-0.0033
504.3718	0.0025
504.5703	-0.0067
504.7689	-0.0166
504.9674	0.0034
505.1658	-0.0147
505.3643	-0.0081
505.5628	0.0004
505.7612	0.0003
505.9597	-0.0004
506.1581	0.0016
506.3565	-0.0025
506.5549	-0.006
506.7532	-0.0077
506.9516	0.0085
507.1499	0.0002
507.3482	-0.0032
507.5465	-0.0031
507.7448	0.0045
507.9431	0.0024
508.1414	-0.0009
508.3396	-0.0003
508.5379	-0.0023
508.7361	-0.0085
508.9343	-0.001
509.1325	-0.0047
509.3306	-0.0047
509.5288	-0.005
509.7269	-0.0106
509.9251	0.0024
510.1232	-0.0096
510.3213	-0.0057
510.5193	0.0057
510.7174	-0.0118
510.9154	-0.0079
511.1135	-0.0094
511.3115	-0.0104
511.5095	0.0052
511.7075	0.0008
511.9055	-0.0143
512.1034	-0.0125
512.3014	-0.0034
512.4993	0.01
512.6972	-0.0019
512.8951	-0.0128
513.093	-0.0017
513.2908	-0.0125
513.4887	0.0009
513.6865	-0.0045
513.8844	-0.0139
514.0822	0.0021
514.2799	-0.0118
514.4777	-0.0103
514.6755	-0.0131
514.8732	0.0003
515.0709	-0.01
515.2687	-0.0121
515.4664	-0.0059
515.664	-0.0022
515.8617	-0.0052
516.0594	-0.0104
516.257	0.002
516.4546	-0.0037
516.6522	0.0019
516.8498	0.0045
517.0474	-0.0085
517.2449	-0.0036
517.4425	-0.005
517.64	-0.0046
517.8375	0.004
518.035	-0.0043
518.2325	-0.0075
518.43	-0.0065
518.6274	-0.0047
518.8249	-0.0078
519.0223	-0.0016
519.2197	-0.0039
519.4171	-0.009
519.6145	-0.0013
519.8118	0.0039
520.0092	-0.0036
520.2065	-0.0038
520.4038	-0.0106
520.6011	-0.0063
520.7984	-0.0077
520.9956	-0.0121
521.1929	-0.0063
521.3901	-0.0055
521.5874	-0.0012
521.7846	-0.0001
521.9818	-0.0006
522.1789	-0.0021
522.3761	0.0042
522.5732	-0.0154
522.7704	0.005
522.9675	-0.0005
523.1646	-0.0108
523.3617	-0.0043
523.5587	0.0055
523.7558	0.0015
523.9528	0.0029
524.1498	-0.0057
524.3468	-0.0046
524.5438	-0.0108
524.7408	-0.0049
524.9378	0.0088
525.1347	-0.0031
525.3316	-0.0026
525.5285	0.0002
525.7254	-0.0136
525.9223	-0.0032
526.1192	0.0049
526.316	-0.0116
526.5129	0.0055
526.7097	0.0044
526.9065	-0.0035
527.1033	-0.009
527.3	0.0026
527.4968	0.0012
527.6935	-0.0031
527.8903	-0.0064
528.087	-0.0081
528.2837	-0.0016
528.4804	0.0002
528.677	-0.006
528.8737	0.0036
529.0703	0.0035
529.2669	-0.0058
529.4635	0.0011
529.6601	0.0041
529.8567	-0.0007
530.0532	-0.0094
530.2498	0.0091
530.4463	0.0086
530.6428	-0.0007
530.8393	0.0055
531.0358	-0.008
531.2322	0
531.4287	-0.0059
531.6251	-0.0084
531.8215	0.018
532.0179	0.0003
532.2143	-0.0031
532.4107	0
532.607	-0.002
532.8034	0.0029
532.9997	0.0056
533.196	0.0044
533.3923	-0.0145
533.5886	0.0009
533.7848	-0.0008
533.9811	-0.0043
534.1773	0.0086
534.3735	0.0059
534.5697	0.0045
534.7659	0.0014
534.9621	0.0053
535.1582	-0.0032
535.3544	-0.0084
535.5505	-0.0072
535.7466	-0.0034
535.9427	-0.0022
536.1387	-0.0062
536.3348	-0.0023
536.5308	0.0017
536.7269	-0.0157
536.9229	-0.0006
537.1189	-0.0099
537.3148	-0.001
537.5108	-0.0059
537.7068	-0.0007
537.9027	-0.0011
538.0986	-0.0037
538.2945	-0.0112
538.4904	0.0009
538.6863	-0.007
538.8821	0.0023
539.078	0.0048
539.2738	-0.008
539.4696	-0.0123
539.6654	0.0107
539.8611	0.0105
540.0569	-0.0048
540.2526	-0.0055
540.4484	0.0013
540.6441	0.0062
540.8398	0.0033
541.0355	0.0015
541.2311	-0.0032
541.4268	-0.009
541.6224	0.0098
541.818	-0.005
542.0136	-0.001
542.2092	0.0002
542.4048	0.0046
542.6003	-0.0063
542.7959	0.0052
542.9914	-0.0037
543.1869	0.0032
543.3824	0.0014
543.5779	0.0014
543.7734	-0.0082
543.9688	-0.0132
544.1642	0.0074
544.3596	-0.0007
544.555	-0.0047
544.7504	0.0078
544.9458	-0.0058
545.1411	-0.0026
545.3365	-0.0005
545.5318	0.0029
545.7271	0.0035
545.9224	0.0013
546.1177	0.0011
546.3129	0.006
546.5081	0.0008
546.7034	0.0017
546.8986	-0.0019
547.0938	-0.0063
547.289	-0.0114
547.4841	-0.0076
547.6793	0.0051
547.8744	-0.0065
548.0695	0.0043
548.2646	0.0016
548.4597	0.0058
548.6548	-0.0044
548.8498	-0.0019
549.0448	0.0039
549.2399	-0.0045
549.4349	0.0088
549.6298	0.0059
549.8248	-0.0007
550.0198	0.0016
550.2147	-0.011
550.4096	-0.0075
550.6045	-0.0027
550.7994	0.008
550.9943	0.0006
551.1892	0.0027
551.384	0.0029
551.5788	-0.0074
551.7737	0.0074
551.9685	-0.0049
552.1632	-0.0006
552.358	-0.0055
552.5528	0.0021
552.7475	-0.0032
552.9422	-0.0031
553.1369	-0.0028
553.3316	0.0016
553.5263	-0.0031
553.7209	0.006
553.9156	0.0015
554.1102	-0.0058
554.3048	-0.0025
554.4994	0.0066
554.694	-0.0023
554.8885	-0.0017
555.0831	-0.0038
555.2776	-0.0069
555.4721	-0.0049
555.6666	0.0022
555.8611	0.0128
556.0555	-0.0021
556.25	-0.0106
556.4444	-0.0083
556.6388	0.0002
556.8332	0.0037
557.0276	-0.003
557.222	0.0011
557.4163	0.0008
557.6107	-0.0096
557.805	0.0099
557.9993	-0.0035
558.1936	-0.0018
558.3879	0.0046
558.5821	0.0016
558.7764	-0.0024
558.9706	-0.0038
559.1648	-0.004
559.359	-0.0056
559.5532	-0.0122
559.7473	-0.0018
559.9415	-0.0017
560.1356	0.0024
560.3297	-0.0117
560.5238	-0.0069
560.7179	-0.0042
560.9119	-0.0129
561.106	-0.0083
561.3	-0.0094
561.494	-0.0014
561.688	-0.0019
561.882	-0.0091
562.076	-0.0054
562.2699	0.005
562.4639	0.0008
562.6578	-0.0009
562.8517	0.0005
563.0456	-0.0009
563.2395	-0.0042
563.4333	-0.0014
563.6272	-0.0013
563.821	-0.0036
564.0148	0.0038
564.2086	0.0006
564.4024	-0.0054
564.5961	-0.0089
564.7899	0.0055
564.9836	0.0007
565.1773	-0.0036
565.371	0.0086
565.5647	0.0006
565.7584	0.0088
565.952	-0.0078
566.1456	0.0071
566.3393	0.0031
566.5329	-0.0083
566.7264	0.0002
566.92	-0.0074
567.1136	0.0059
567.3071	0.0012
567.5006	-0.0065
567.6941	-0.0018
567.8876	-0.0013
568.0811	0.0003
568.2745	-0.0042
568.468	0.0046
568.6614	0.0008
568.8548	-0.0045
569.0482	-0.0024
569.2416	0.0052
569.4349	-0.0017
569.6283	0.0045
569.8216	0.004
570.0149	-0.0064
570.2082	0.0079
570.4015	0.0038
570.5947	0.0091
570.788	0.0016
570.9812	0.0122
571.1744	0.0004
571.3676	-0.0018
571.5608	0.0021
571.754	0.0071
571.9471	0.0024
572.1402	0.0011
572.3333	-0.0048
572.5264	-0.0042
572.7195	0.0023
572.9126	0.0025
573.1057	-0.0007
573.2987	0.0048
573.4917	0.0069
573.6847	-0.0051
573.8777	0.006
574.0707	0.0043
574.2636	-0.0049
574.4566	0.0015
574.6495	0.0031
574.8424	0.0023
575.0353	-0.0007
575.2281	0.0083
575.421	0.0023
575.6138	0.0055
575.8067	-0.0033
575.9995	0.0016
576.1923	0.0032
576.385	0.0042
576.5778	0.0043
576.7706	-0.0017
576.9633	-0.0033
577.156	0.005
577.3487	0.001
577.5414	0.0047
577.734	0.0011
577.9267	0.0056
578.1193	-0.0114
578.3119	-0.003
578.5045	-0.0048
578.6971	0.0047
578.8897	0.0072
579.0822	0.001
579.2747	-0.0023
579.4673	0.0007
579.6598	0.0014
579.8522	-0.0011
580.0447	-0.0024
580.2372	0.0017
580.4296	0.0065
580.622	0.0007
580.8144	-0.0005
581.0068	-0.0015
581.1992	-0.009
581.3915	-0.0012
581.5839	-0.009
581.7762	-0.0043
581.9685	0.0031
582.1608	0.0076
582.353	-0.0031
582.5453	0.0002
582.7375	-0.0008
582.9298	-0.0009
583.122	-0.0045
583.3142	-0.0065
583.5063	0.0012
583.6985	-0.0039
583.8906	-0.0035
584.0827	-0.0037
584.2749	0.0014
584.4669	-0.0036
584.659	-0.0044
584.8511	0.0025
585.0431	-0.0081
585.2352	0.0004
585.4272	-0.009
585.6192	0.0004
585.8111	-0.0056
586.0031	-0.0041
586.195	-0.0005
586.387	0.006
586.5789	-0.0069
586.7708	0.005
586.9627	-0.0006
587.1545	-0.0003
587.3464	0.0003
587.5382	0.0017
587.73	-0.0023
587.9218	0.0045
588.1136	-0.0006
588.3053	0.0039
588.4971	0.0033
588.6888	-0.0086
588.8805	-0.0023
589.0722	0.0082
589.2639	-0.0022
589.4556	-0.0061
589.6472	-0.0017
589.8389	-0.0034
590.0305	-0.0092
590.2221	0.0044
590.4137	-0.0048
590.6052	0.0036
590.7968	-0.003
590.9883	-0.0008
591.1798	0.0033
591.3713	0.0032
591.5628	0.0074
591.7543	0.0073
591.9458	-0.0003
592.1372	0.0047
592.3286	0.0009
592.52	-0.0004
592.7114	-0.0004
592.9028	-0.002
593.0941	0.0006
593.2855	0.0016
593.4768	-0.0097
593.6681	-0.0051
593.8594	-0.0014
594.0506	-0.0027
594.2419	0.0089
594.4331	-0.0018
594.6244	-0.0012
594.8156	-0.0133
595.0067	-0.0005
595.1979	-0.0039
595.3891	0.0022
595.5802	-0.0081
595.7713	-0.0091
595.9624	-0.0023
596.1535	0.0045
596.3446	0.0035
596.5357	-0.0072
596.7267	0.0044
596.9177	0.0005
597.1087	-0.0082
597.2997	-0.0008
597.4907	-0.0007
597.6817	-0.0017
597.8726	-0.0081
598.0635	-0.0101
598.2544	0.0023
598.4453	-0.0003
598.6362	0.0014
598.827	-0.0106
599.0179	0.0049
599.2087	-0.0024
599.3995	0.0003
599.5903	-0.0028
599.7811	0.0063
599.9718	-0.0036
600.1626	-0.004
600.3533	-0.0064
600.544	0.002
600.7347	-0
600.9254	-0.0029
601.116	-0.0057
601.3067	-0.0038
601.4973	-0.0099
601.6879	0.0022
601.8785	-0.0018
602.0691	-0.0015
602.2596	0.0009
602.4502	0.0044
602.6407	0.0028
602.8312	-0.0022
603.0217	-0.0095
603.2122	-0.0031
603.4027	-0.0078
603.5931	-0.0026
603.7835	-0.0064
603.9739	0.0033
604.1643	-0.0043
604.3547	-0.0039
604.5451	0.0014
604.7354	-0.0039
604.9257	-0.0009
605.116	0.0014
605.3063	0.0073
605.4966	0.0035
605.6869	0.0035
605.8771	0.0087
606.0673	0.0098
606.2575	0.0067
606.4477	0.0055
606.6379	0.0057
606.8281	-0.0045
607.0182	-0.0013
607.2083	0.0084
607.3985	-0.0064
607.5885	0.0023
607.7786	0.0094
607.9687	-0.0043
608.1587	0.0045
608.3488	-0.0025
608.5388	0.0019
608.7288	-0.002
608.9187	0.0009
609.1087	-0.0016
609.2986	-0.0092
609.4886	-0.0041
609.6785	-0
609.8684	0.0041
610.0582	0.0076
610.2481	0.0015
610.4379	-0.0009
610.6278	0.0012
610.8176	0.0022
611.0074	-0.0056
611.1971	-0.0021
611.3869	-0.0043
611.5766	-0.0109
611.7664	0.0092
611.9561	0.0027
612.1458	-0.0024
612.3354	0.0002
612.5251	0.0046
612.7147	0.0057
612.9044	0.0066
613.094	-0.0051
613.2836	0.0011
613.4731	-0.0064
613.6627	-0.0032
613.8522	-0.001
614.0417	0.0066
614.2313	-0.0066
614.4207	-0.004
614.6102	0.0033
614.7997	-0.0012
614.9891	-0.0055
615.1785	0.0003
615.3679	-0.0032
615.5573	0.006
615.7467	0.0003
615.9361	0.0001
616.1254	0.0077
616.3147	0.0068
616.504	0.0026
616.6933	0.0124
616.8826	0.0049
617.0718	0.0004
617.2611	0.0002
617.4503	-0.0047
617.6395	0.0002
617.8287	-0.0037
618.0179	0.0006
618.207	0.0058
618.3961	-0.0035
618.5853	-0.005
618.7744	0.003
618.9634	-0.0004
619.1525	0.0058
619.3416	-0.0002
619.5306	0.0062
619.7196	-0.0045
619.9086	-0.0015
620.0976	-0.0019
620.2866	0.0014
620.4755	0.0061
620.6645	0.0038
620.8534	0.0041
621.0423	0.0034
621.2312	0.0079
621.42	-0.0054
621.6089	-0.0018
621.7977	0.0033
621.9865	-0.0056
622.1753	0.0044
622.3641	0.0022
622.5529	0.0086
622.7416	0.0008
622.9303	-0.0012
623.1191	0.0065
623.3078	-0.0011
623.4964	0.0072
623.6851	-0.0005
623.8737	-0.0074
624.0624	0.0028
624.251	-0.0053
624.4396	0.0002
624.6282	-0.0094
624.8167	-0.0031
625.0053	0.0003
625.1938	0.0098
625.3823	0.0088
625.5708	0.0018
625.7593	-0.0094
625.9477	-0.0033
626.1362	-0.0016
626.3246	-0.0042
626.513	-0.0001
626.7014	0.0062
626.8898	-0
627.0781	0.0004
627.2665	-0.0064
627.4548	0.0093
627.6431	0.0047
627.8314	0.0013
628.0197	0.0077
628.2079	-0.0023
628.3962	-0.0013
628.5844	0.0106
628.7726	0.0021
628.9608	0.0058
629.1489	-0.0001
629.3371	0.01
629.5252	0.002
629.7134	0.0083
629.9015	0.0034
630.0895	-0.002
630.2776	-0.0037
630.4657	0.0056
630.6537	0.0009
630.8417	0.0012
631.0297	-0.0071
631.2177	0.0032
631.4057	-0.0099
631.5936	0.0019
631.7815	0.0025
631.9695	0.0006
632.1574	0.001
632.3452	0.0176
632.5331	-0.0008
632.7209	-0.0045
632.9088	0.0017
633.0966	0.0085
633.2844	-0.0008
633.4722	0.0041
633.6599	0.0068
633.8477	0.0016
634.0354	0.0013
634.2231	0.0019
634.4108	0.0062
634.5985	-0.0002
634.7861	0.0037
634.9738	0.0009
635.1614	0.0021
635.349	0.0074
635.5366	0.0045
635.7242	0.0038
635.9117	0.0067
636.0993	0.0031
636.2868	0.0008
636.4743	-0.0016
636.6618	0.0085
636.8492	-0
637.0367	0.0103
637.2241	-0.0027
637.4115	-0.0016
637.5989	0.0027
637.7863	-0
637.9737	-0.0006
638.161	0.0013
638.3484	0.004
638.5357	0.0023
638.723	0.0017
638.9103	0.0049
639.0975	-0.0071
639.2848	0.004
639.472	-0.0029
639.6592	-0.0022
639.8464	0.0055
640.0336	0.0058
640.2208	-0.0014
640.4079	-0.004
640.595	-0.001
640.7821	-0.0028
640.9692	0.0021
641.1563	0.0003
641.3434	0.0057
641.5304	-0.0048
641.7174	0.0035
641.9044	0.0084
642.0914	0.007
642.2784	-0.0026
642.4653	0.0043
642.6523	-0.0071
642.8392	-0.0042
643.0261	0.0083
643.213	0.0037
643.3999	-0.0004
643.5867	-0.0057
643.7735	-0.0039
643.9604	-0.0022
644.1472	-0.0006
644.3339	-0.0001
644.5207	0.0021
644.7075	0.0018
644.8942	0.0063
645.0809	0.0042
645.2676	0.0072
645.4543	-0.0029
645.6409	0.0079
645.8276	0.0098
646.0142	0.0052
646.2008	-0.0036
646.3874	0.0041
646.574	-0.0005
646.7605	-0.0005
646.9471	-0.0111
647.1336	-0.0025
647.3201	0.0044
647.5066	0.0017
647.6931	0.0016
647.8795	0.0025
648.0659	0.0073
648.2524	0.0018
648.4388	-0.0058
648.6252	-0.0002
648.8115	-0.0001
648.9979	0.0056
649.1842	0.007
649.3705	0.0032
649.5568	0.001
649.7431	0.0064
649.9294	0.0025
650.1156	0.001
650.3018	0.0002
650.488	0.0045
650.6742	0.0001
650.8604	0.0032
651.0466	-0.0069
651.2327	0.0047
651.4188	-0.0026
651.6049	-0.0106
651.791	-0.0085
651.9771	-0.0022
652.1632	0.0051
652.3492	0.0017
652.5352	-0.0048
652.7212	-0.0057
652.9072	0.0088
653.0932	0.0013
653.2791	0.0007
653.465	0.0023
653.651	0.002
653.8369	-0.0009
654.0227	0.0009
654.2086	0.0014
654.3944	0.0085
654.5803	0.0007
654.7661	0.0015
654.9519	0.005
655.1377	-0.0046
655.3234	-0.0002
655.5092	-0.0076
655.6949	-0.006
655.8806	-0.005
656.0663	0
656.2519	0.0005
656.4376	-0.0039
656.6232	0.0075
656.8088	0.0006
656.9945	0.0003
657.18	0.0037
657.3656	0.0001
657.5511	-0.0035
657.7367	-0
657.9222	0.0101
658.1077	0.0049
658.2932	0.002
658.4786	-0.0055
658.6641	-0.0078
658.8495	-0.0027
659.0349	-0.0059
659.2203	0.0031
659.4057	-0.003
659.591	0.0027
659.7764	0.0008
659.9617	-0.0028
660.147	-0.0016
660.3323	0
660.5176	0.01
660.7028	0.0113
660.888	0.0069
661.0733	-0.0001
661.2585	-0.0064
661.4436	-0.0023
661.6288	-0.0009
661.8139	-0.0017
661.9991	0.0037
662.1842	-0.0043
662.3693	0.0054
662.5544	-0.0065
662.7394	-0.0019
662.9245	-0.0003
663.1095	0.0026
663.2945	-0.0036
663.4795	-0.0068
663.6644	0.0016
663.8494	-0.0002
664.0343	0.0054
664.2193	-0.004
664.4042	0.001
664.589	-0.0041
664.7739	-0.0036
664.9587	-0.0056
665.1436	-0.0013
665.3284	-0.0007
665.5132	0
665.698	-0.0028
665.8827	0.0034
666.0675	-0.0036
666.2522	-0.0095
666.4369	0.0011
666.6216	0.0109
666.8063	0.0056
666.9909	0.0026
667.1756	-0.0007
667.3602	0
667.5448	-0.0012
667.7294	0.0054
667.9139	-0.0003
668.0985	0.0114
668.283	-0.005
668.4675	0.0039
668.652	-0.0039
668.8365	0.0032
669.0209	0.0085
669.2054	0.0088
669.3898	-0.0022
669.5742	-0.0004
669.7586	0.003
669.943	0.003
670.1273	0.0103
670.3117	0.0056
670.496	0.0001
670.6803	0.0094
670.8646	0.0052
671.0488	-0.0077
671.2331	0.0058
671.4173	-0.0031
671.6015	-0.0068
671.7857	-0.0017
671.9699	0.0061
672.1541	0.0024
672.3382	0.0075
672.5223	0.0132
672.7064	0.004
672.8905	0.004
673.0746	0.0061
673.2587	-0.0053
673.4427	0.0082
673.6267	0.004
673.8107	-0.0001
673.9947	0.006
674.1787	0.0052
674.3626	-0.0059
674.5465	0.0087
674.7304	0.0017
674.9143	0.0077
675.0982	0.0121
675.2821	0.0012
675.4659	0.0053
675.6497	0.0089
675.8335	0.0018
676.0173	-0.0045
676.2011	-0.006
676.3849	-0.0039
676.5686	-0.0077
676.7523	0.0056
676.936	-0.0092
677.1197	-0.0074
677.3034	-0.0083
677.487	0.0007
677.6706	-0.0005
677.8542	-0.001
678.0378	0.003
678.2214	-0.0085
678.405	-0.0023
678.5885	-0.0117
678.772	-0.0004
678.9555	-0.0095
679.139	-0.0064
679.3225	-0.0046
679.5059	-0.0015
679.6894	0.0049
679.8728	-0.0026
680.0562	-0.0048
680.2395	-0.005
680.4229	-0.0077
680.6062	0.0017
680.7896	0.0053
680.9729	0.0001
681.1562	0.0024
681.3394	0.0046
681.5227	-0.0031
681.7059	0.0013
681.8891	0.0002
682.0723	0.015
682.2555	0.0017
682.4387	0.0003
682.6218	0.0002
682.805	0.0108
682.9881	0.0079
683.1712	0.0022
683.3542	-0.0016
683.5373	0.0051
683.7203	-0.0059
683.9034	-0.0031
684.0864	-0.0042
684.2694	-0.0005
684.4523	-0.0013
684.6353	-0.0048
684.8182	-0.0018
685.0011	-0.0049
685.184	0.0008
685.3669	-0.0025
685.5498	0.0043
685.7326	0.0011
685.9154	-0.0029
686.0982	0.0072
686.281	0.0041
686.4638	0.0065
686.6465	-0.0048
686.8293	0.0048
687.012	-0.0051
687.1947	-0.0127
687.3774	0.0019
687.56	-0.0063
687.7427	0.0025
687.9253	-0.0039
688.1079	-0.002
688.2905	0.0093
688.4731	0.0001
688.6556	0.002
688.8382	-0.0009
689.0207	0.0029
689.2032	-0.0058
689.3857	-0.0123
689.5681	0.0009
689.7506	-0.006
689.933	-0.005
690.1154	-0.0015
690.2978	-0.0036
690.4802	-0.0018
690.6626	-0.0102
690.8449	-0.0042
691.0272	-0.0027
691.2095	-0.0057
691.3918	-0.0035
691.5741	-0.0004
691.7563	-0.0045
691.9386	0.0039
692.1208	0.002
692.303	0.0033
692.4852	-0.0018
692.6673	-0.0008
692.8495	0.0006
693.0316	0.0052
693.2137	0.0064
693.3958	0.0101
693.5778	0
693.7599	0.0006
693.9419	0.0032
694.1239	-0.0026
694.3059	-0.0048
694.4879	0.015
694.6699	0.0038
694.8518	0.0042
695.0337	-0.004
695.2157	0.0031
695.3975	0.0077
695.5794	0.0033
695.7613	0.0047
695.9431	-0.0003
696.1249	0.0051
696.3067	0.0104
696.4885	0.0098
696.6703	0.0062
696.852	0.0078
697.0337	0.0029
697.2154	0.0008
697.3971	0.0057
697.5788	0.0016
697.7605	-0.0006
697.9421	0.0015
698.1237	0.003
698.3053	0.0061
698.4869	0.0001
698.6685	-0.0021
698.85	0.0072
699.0315	0.0094
699.213	-0.0042
699.3945	0.0063
699.576	0.0117
699.7575	0.0024
699.9389	0.0042
700.1203	0.0005
700.3017	0.0003
700.4831	-0.0054
700.6645	-0.0023
700.8458	0.001
701.0271	-0.001
701.2084	-0.0021
701.3897	-0.0046
701.571	-0.0035
701.7523	-0.0081
701.9335	-0.0041
702.1147	0.0037
702.2959	0.0022
702.4771	0.0075
702.6583	0.0041
702.8394	-0.0036
703.0205	0.0003
703.2016	-0.0011
703.3827	-0.0002
703.5638	0.0085
703.7449	0.0023
703.9259	0.0115
704.1069	-0.0073
704.2879	0.0072
704.4689	0.0026
704.6499	-0.0025
704.8308	-0.0001
705.0117	-0.001
705.1927	0.0017
705.3735	-0.0024
705.5544	-0.0062
705.7353	0.0079
705.9161	-0.0032
706.0969	0.0032
706.2777	0.0023
706.4585	-0.005
706.6393	0.0031
706.82	-0.0075
707.0007	0.0019
707.1815	0.0032
707.3621	0.0044
707.5428	0.0015
707.7235	0.0057
707.9041	0.0029
708.0847	-0.0178
708.2653	-0.0031
708.4459	-0.0114
708.6265	-0.0041
708.807	-0.0035
708.9875	-0.007
709.168	0.0012
709.3485	-0.0068
709.529	0.0013
709.7095	-0.0156
709.8899	-0.0089
710.0703	-0.0043
710.2507	0.0032
710.4311	-0.0075
710.6115	-0.019
710.7918	-0.0117
710.9721	0.0036
711.1524	-0.0068
711.3327	0.0005
711.513	0.0029
711.6932	0.0093
711.8735	0.0139
712.0537	0.0062
712.2339	0.0035
712.4141	-0.0013
712.5942	-0.0027
712.7744	0.003
712.9545	0.0008
713.1346	-0.0051
713.3147	0.0031
713.4947	-0.006
713.6748	-0.0028
713.8548	-0.0093
714.0348	-0.0051
714.2148	-0.0002
714.3948	0.0064
714.5748	0.0038
714.7547	-0.0041
714.9346	-0.0038
715.1145	-0.0036
715.2944	-0.006
715.4743	-0.0001
715.6541	0.0038
715.834	0.0017
716.0138	-0.0078
716.1936	-0.005
716.3733	-0.0015
716.5531	0.0099
716.7328	-0.0011
716.9126	-0.0041
717.0923	0.0069
717.2719	-0.0011
717.4516	0.0014
717.6312	0.0072
717.8109	-0.0088
717.9905	0.0027
718.1701	-0.0042
718.3496	0.0004
718.5292	0.0027
718.7087	0.008
718.8882	0.003
719.0677	0.0066
719.2472	-0.0029
719.4267	0.002
719.6061	-0.0042
719.7856	0.0096
719.965	0.0005
720.1443	0.002
720.3237	0.0114
720.5031	0.0046
720.6824	0.0082
720.8617	-0.001
721.041	-0.0029
721.2203	0.0126
721.3995	0
721.5788	0.0072
721.758	0.0057
721.9372	-0.0066
722.1164	-0.0013
722.2956	-0.004
722.4747	-0.0024
722.6538	-0.007
722.8329	0.0101
723.012	-0.0018
723.1911	-0.0024
723.3702	0.0027
723.5492	0.0038
723.7282	-0.0024
723.9072	-0.0025
724.0862	-0.0103
724.2652	-0.004
724.4441	-0.0044
724.623	-0.0025
724.8019	-0.0065
724.9808	-0.0033
725.1597	-0.0132
725.3385	0.0104
725.5174	-0.0022
725.6962	0.0007
725.875	-0.0016
726.0538	0.0017
726.2325	0.0006
726.4112	0.0051
726.59	-0.0009
726.7687	-0.0029
726.9474	0.0067
727.126	0.0066
727.3047	0.0014
727.4833	0.001
727.6619	-0.0063
727.8405	-0.0099
728.0191	-0.0003
728.1976	0.0053
728.3762	-0.0018
728.5547	0.0044
728.7332	-0.0088
728.9116	-0.0091
729.0901	-0.0055
729.2686	-0.0148
729.447	-0.0019
729.6254	-0.0102
729.8038	-0.0038
729.9821	-0.0155
730.1605	-0.0018
730.3388	-0.0003
730.5171	0.0056
730.6954	-0.01
730.8737	0.0021
731.0519	0.0049
731.2302	0.0032
731.4084	0.0114
731.5866	0.0032
731.7648	-0.0046
731.9429	-0.0004
732.1211	-0.0096
732.2992	-0.0065
732.4773	-0.0061
732.6554	-0.003
732.8335	0.0058
733.0115	0.0024
733.1896	0.0017
733.3676	-0.0055
733.5456	0.0076
733.7235	0.0041
733.9015	-0.0071
734.0794	-0.0053
734.2574	0.001
734.4353	0.0018
734.6131	0.0067
734.791	0.0067
734.9689	-0.0019
735.1467	0.0108
735.3245	-0.0035
735.5023	-0.0043
735.68	0.0011
735.8578	-0.0012
736.0355	-0.0167
736.2132	-0.0094
736.3909	-0.001
736.5686	-0.0054
736.7463	0.0066
736.9239	-0.0009
737.1015	-0.0052
737.2791	0.0074
737.4567	-0.0016
737.6343	0.0013
737.8118	-0.0036
737.9894	0.009
738.1669	-0.0072
738.3444	-0.0103
738.5218	-0.0033
738.6993	0.0007
738.8767	-0.0023
739.0541	0.0075
739.2315	-0.0138
739.4089	-0.0027
739.5863	0.0006
739.7636	-0.0034
739.9409	0.0005
740.1182	0.0092
740.2955	0.0061
740.4728	-0.0006
740.65	0.0023
740.8272	-0.0048
741.0044	-0.0064
741.1816	0.0026
741.3588	-0.0032
741.5359	-0.0011
741.7131	-0.0043
741.8902	0.0046
742.0673	-0.0017
742.2444	-0.0056
742.4214	-0.0078
742.5985	-0.0032
742.7755	-0.0063
742.9525	-0.0104
743.1295	0.0085
743.3064	-0.0028
743.4834	0.008
743.6603	-0.0019
743.8372	-0.0099
744.0141	0.0017
744.191	0.0032
744.3678	-0.0012
744.5446	0.0035
744.7215	0.0081
744.8982	-0.0034
745.075	-0.0177
745.2518	0.0016
745.4285	0.002
745.6052	-0.0059
745.7819	-0.0108
745.9586	-0.0152
746.1353	-0.009
746.3119	-0.0096
746.4885	-0.0172
746.6651	-0.0192
746.8417	-0.0097
747.0183	-0.0106
747.1948	-0.0121
747.3714	-0.0095
747.5479	-0.0041
747.7244	-0.0138
747.9008	0.0022
748.0773	-0.0064
748.2537	-0.0109
748.4301	-0.0105
748.6065	-0.0089
748.7829	-0.0023
748.9593	-0.0135
749.1356	-0.0043
749.3119	0.0055
749.4882	-0.0119
749.6645	0.0077
749.8408	-0.005
750.017	-0.0107
750.1933	-0.0043
750.3695	-0.0029
750.5457	0.0007
750.7218	-0.0063
750.898	0.0046
751.0741	-0.0046
751.2502	0.001
751.4263	-0.0117
751.6024	0.0034
751.7784	-0.0113
751.9545	-0.0096
752.1305	-0.0027
752.3065	-0.0046
752.4825	0
752.6584	-0.0042
752.8344	-0.0076
753.0103	-0.0066
753.1862	-0.012
753.3621	-0.0101
753.5379	-0.0144
753.7138	-0.0051
753.8896	-0.0059
754.0654	-0.0115
754.2412	0.01
754.417	0.0025
754.5927	-0.0034
754.7685	-0.0091
754.9442	-0.0023
755.1199	0.0029
755.2956	-0.0024
755.4712	0.0055
755.6469	0.0058
755.8225	0.0003
755.9981	0.0013
756.1736	0.0032
756.3492	0.0128
756.5248	-0.0001
756.7003	0.0033
756.8758	0.0121
757.0513	-0.0018
757.2267	0.0059
757.4022	0.0104
757.5776	0.0018
757.753	0.0041
757.9284	-0.0042
758.1038	0.0069
758.2791	-0.0038
758.4545	-0.0153
758.6298	0.0002
758.8051	0
758.9803	-0.0042
759.1556	-0.0127
759.3308	-0.009
759.506	0.0032
759.6812	0.0068
759.8564	0.0046
760.0316	-0.0027
760.2067	0.016
760.3819	0.0106
760.557	0.0152
760.732	0.0108
760.9071	-0.0087
761.0821	0.0011
761.2572	0.0115
761.4322	-0.0054
761.6072	-0.0024
761.7821	-0.0023
761.9571	0.0056
762.132	-0.0052
762.3069	-0.0185
762.4818	0.0027
762.6567	-0.0077
762.8316	-0.0026
763.0064	-0.0072
763.1812	-0.0086
763.356	-0.0068
763.5308	0.0044
763.7055	0.0079
763.8803	-0.0156
764.055	-0.0078
764.2297	-0.0051
764.4044	-0.0061
764.579	-0.0091
764.7537	-0.0139
764.9283	-0.0088
765.1029	-0.0057
765.2775	-0.0057
765.4521	-0.0156
765.6266	-0.0113
765.8011	-0.0124
765.9756	-0.0048
766.1501	0.0015
766.3246	0.0008
766.4991	-0.0076
766.6735	-0.0059
766.8479	-0.0104
767.0223	0.0126
767.1967	-0.0038
767.371	-0.0046
767.5454	-0.0085
767.7197	-0.0017
767.894	-0.0081
768.0683	-0.0144
768.2425	0.0059
768.4168	-0.0049
768.591	-0.0054
768.7652	-0.0134
768.9394	-0.0055
769.1135	0.0001
769.2877	-0.0045
769.4618	-0.0065
769.6359	-0.0097
769.81	0.0005
769.984	-0.0002
770.1581	-0.0101
770.3321	-0.001
770.5061	-0.0033
770.6801	-0.0024
770.8541	-0.006
771.028	0.0033
771.202	-0.0066
771.3759	0.0019
771.5498	-0.006
771.7236	-0.0048
771.8975	0.0021
772.0713	0.0137
772.2451	-0.0003
772.4189	0.0074
772.5927	0.0059
772.7665	-0.002
772.9402	0.0021
773.1139	-0.0021
773.2876	-0.0224
773.4613	0.0018
773.635	0.0029
773.8086	-0.0189
773.9822	-0.0049
774.1558	-0.0019
774.3294	-0.0252
774.503	-0.0092
774.6765	-0.0089
774.8501	0.0001
775.0236	0.0076
775.1971	0.0022
775.3705	-0.012
775.544	-0.0043
775.7174	-0.0086
775.8908	0.0049
776.0642	-0.0033
776.2376	-0.006
776.4109	-0.0152
776.5843	-0.003
776.7576	-0.002
776.9309	0.0116
777.1041	0.0062
777.2774	0.0094
777.4506	0.0024
777.6238	-0.0111
777.797	-0.0145
777.9702	-0.0081
778.1434	0.002
778.3165	-0.012
778.4896	-0.0099
778.6627	-0.004
778.8358	-0.0059
779.0089	-0.0054
779.1819	0.0025
779.3549	0.0047
779.5279	0.0121
779.7009	0.0028
779.8739	-0.0072
780.0468	-0.0019
780.2197	-0.0012
780.3926	-0.0153
780.5655	-0.0125
780.7384	-0.0113
780.9112	-0.0141
781.0841	-0.0124
781.2569	-0.0029
781.4297	0.0013
781.6024	0.0079
781.7752	0.0043
781.9479	0.0077
782.1206	-0.0038
782.2933	-0.0122
782.466	0.0145
782.6386	-0.0031
782.8113	0.0017
782.9839	0.0053
783.1565	0.0093
783.329	0.0013
783.5016	0.01
783.6741	0.0023
783.8466	0.0065
784.0191	0.0018
784.1916	-0.0114
784.3641	-0.0042
784.5365	0.0039
784.7089	0.0012
784.8813	-0.0024
785.0537	-0.0028
785.2261	-0.0105
785.3984	-0.0156
785.5707	-0.0105
785.743	-0.0107
785.9153	0.0072
786.0876	0.0097
786.2598	-0.0153
786.432	-0.0258
786.6042	0.0007
786.7764	-0.0136
786.9486	0.0024
787.1207	-0.0318
787.2928	-0.0075
787.4649	0.0137
787.637	0.0035
787.8091	-0.007
787.9811	-0.0075
788.1532	-0.0116
788.3252	-0.0005
788.4972	-0.009
788.6691	0.007
788.8411	0.0055
789.013	-0.0135
789.1849	-0.0028
789.3568	-0.0032
789.5287	-0.0027
789.7005	-0.0062
789.8723	-0.0132
790.0442	0.011
790.2159	0.0008
790.3877	0.0032
790.5595	-0.0016
790.7312	0.0029
790.9029	-0.0104
791.0746	-0.0195
791.2463	0.0113
791.4179	-0.0112
791.5896	-0.0014
791.7612	0.0038
791.9328	0.0105
792.1044	-0.0047
792.2759	-0.0066
792.4474	-0.0127
792.619	0.0016
792.7905	0.0183
792.9619	-0.0021
793.1334	0.0152
793.3048	-0.0061
793.4762	-0.0018
793.6476	0.003
793.819	-0.0185
793.9904	0.0003
794.1617	-0.008
794.333	0.0043
794.5043	-0.0068
794.6756	-0.0071
794.8469	0.0041
795.0181	-0.0042
795.1893	0.0005
795.3605	0.0068
795.5317	0.0002
795.7029	-0.0102
795.874	0.0102
796.0452	0.004
796.2163	0.0155
796.3873	-0.0007
796.5584	0
796.7294	0.0013
796.9005	0.0205
797.0715	-0.004
797.2425	-0.0045
797.4134	0.0096
797.5844	0.0086
797.7553	-0.0032
797.9262	0.0026
798.0971	-0.0072
798.2679	-0.0007
798.4388	-0.0195
798.6096	0.001
798.7804	-0.0126
798.9512	0.0064
799.122	-0.0041
799.2927	-0.0027
799.4635	0.0145
799.6342	-0.0268
799.8049	-0.0029
799.9755	-0.0023
800.1462	-0.0073
800.3168	0.0117
800.4874	0.0084
800.658	0.0176
800.8286	0.0043
800.9991	-0.0057
801.1696	0.0155
801.3402	0.0143
801.5106	-0.0044
801.6811	0.0062
801.8516	0.0101
802.022	0.0045
802.1924	0.0025
802.3628	0.0047
802.5332	0.0173
802.7035	0.0289
802.8739	0.009
803.0442	-0.0138
803.2145	0.0069
803.3847	-0.0152
803.555	-0.0004
803.7252	-0.0011
803.8954	-0.0146
804.0656	-0.0131
804.2358	-0.0116
804.4059	0.0126
804.5761	-0.0117
804.7462	0.0071
804.9163	-0.0173
805.0864	-0.0206
805.2564	0.0025
805.4264	-0.013
805.5965	-0.0011
805.7665	0.0177
805.9364	0.015
806.1064	0.0155
806.2763	-0.0038
806.4462	0.0148
806.6161	0.0092
806.786	0.0185
806.9559	-0.0169
807.1257	-0.0037
807.2955	0.0009
807.4653	-0.0114
807.6351	-0.0077
807.8048	-0.0049
807.9746	0.0057
808.1443	0.0067
808.314	-0.009
808.4837	-0.0191
808.6533	0.0075
808.8229	0.0194
808.9926	-0.0078
809.1622	0.0087
809.3317	-0.0221
809.5013	-0.0067
809.6708	-0.0027
809.8403	0.0164
810.0098	-0.0184
810.1793	0.0149
810.3488	0.0143
810.5182	-0.0184
810.6876	-0.007
810.857	-0.0154
811.0264	0.0322
811.1958	0.0194
811.3651	-0.001
811.5344	0.0027
811.7037	0.0027
811.873	-0.0156
812.0422	-0.0031
812.2115	0.0049
812.3807	-0.0198
812.5499	-0.0061
812.7191	0.0137
812.8882	-0.0275
813.0574	-0.0084
813.2265	0.0022
813.3956	0.0104
813.5646	0.0034
813.7337	-0.012
813.9027	0
814.0718	-0.0041
814.2407	0.0123
814.4097	0.0054
814.5787	-0.0298
814.7476	0.0003
814.9165	0.0053
815.0854	-0.0224
815.2543	-0.0037
815.4232	-0.0033
815.592	0.0147
815.7608	-0.0032
815.9296	-0.013
816.0984	0.0021
816.2671	-0.0017
816.4359	-0.0139
816.6046	-0.0018
816.7733	-0.0087
816.942	-0.0387
817.1106	-0.008
817.2793	-0.0062
817.4479	-0.0147
817.6165	0.0172
817.785	0.0191
817.9536	-0.0316
818.1221	-0.0032
818.2906	0.0023
818.4591	-0.0318
818.6276	-0.0123
818.7961	-0.0107
818.9645	-0.0023
819.1329	-0.028
819.3013	0.0093
819.4697	0.0107
819.638	0.0004
819.8064	-0.002
819.9747	-0.0055
820.143	-0.001
820.3113	-0.0079
820.4795	-0.0028
820.6477	0.0031
820.816	0.0042
820.9842	0.0169
821.1523	-0.0075
821.3205	-0.001
821.4886	-0.0211
821.6567	0.0007
821.8248	0.0257
821.9929	0.0223
822.1609	-0.0191
822.329	0.0007
822.497	0.0272
822.665	-0.0227
822.833	-0.0088
823.0009	-0.0048
823.1688	0.0324
823.3367	0.02
823.5046	0.0164
823.6725	0.0265
823.8404	0.0124
824.0082	0.0237
824.176	0.0004
824.3438	0.0012
824.5116	-0.0079
824.6793	-0.0012
824.847	-0.0142
825.0147	-0.0151
825.1824	0.0113
825.3501	0.017
825.5177	-0.0053
825.6854	-0.021
825.853	0.008
826.0206	-0.0292
826.1881	0.0083
826.3557	-0.0336
826.5232	0.0232
826.6907	-0.0464
826.8582	-0.0224
827.0257	-0.0367
827.1931	-0.0045
827.3605	-0.0168
827.528	0.0052
827.6953	-0.0288
827.8627	-0.0083
828.03	0.0114
828.1974	-0.0088
828.3647	-0.0398
828.532	-0.0263
828.6992	-0.0049
828.8665	0.0201
829.0337	-0.0178
829.2009	0.0273
829.3681	-0.01
829.5352	0.0667
829.7024	-0.0179
829.8695	-0.025
830.0366	0.0524
830.2037	-0.001
830.3707	0.0075
830.5378	-0.0126
830.7048	-0.0043
830.8718	-0.0149
831.0388	-0.0394
831.2057	0.0361
831.3727	0.0016
831.5396	-0.0062
831.7065	-0.0358
831.8734	0.0361
832.0402	-0.0094
832.2071	-0.0083
832.3739	-0.0211
832.5407	-0.0272
832.7075	0.0102
832.8742	-0.025
833.041	-0.0406
833.2077	0.0232
833.3744	0.0231
833.541	-0.0353
833.7077	-0.0213
833.8743	-0.0453
834.0409	-0.0306
834.2075	-0.0018
834.3741	-0.0257
834.5407	0.0039
834.7072	-0.0335
834.8737	-0.0763
835.0402	0.0109
835.2067	-0.0024
835.3731	0.0395
835.5395	0.013
835.706	0.0322
835.8723	0.0214
836.0387	0.0034
836.2051	-0.0096
836.3714	0.024
836.5377	-0.0168
836.704	-0.0098
836.8703	-0.003
837.0365	-0.0036
837.2027	-0.0074
837.3689	0.018
837.5351	-0.0103
837.7013	-0.005
837.8674	-0.0112
838.0335	-0.032
838.1997	-0.0366
838.3657	-0.0008
838.5318	-0.0086
838.6978	-0.0007
838.8639	0.0276
839.0299	-0.0068
839.1958	0.0136
839.3618	0.0275
839.5277	-0.04
839.6937	-0.0225
839.8596	0.033
840.0254	0.0309
840.1913	0.0389
840.3571	0.0262
840.523	-0.0165
840.6888	0.0144
840.8545	-0.0499
841.0203	-0.04
841.186	-0.005
841.3517	0.0046
841.5174	-0.0278
841.6831	-0.0255
841.8488	0.0037
842.0144	0.014
842.18	-0.0324
842.3456	0.0445
842.5112	0.0001
842.6767	-0.0238
842.8422	-0.0358
843.0077	0.0001
843.1732	-0.0137
843.3387	-0.0512
843.5042	-0.0368
843.6696	0.0567
843.835	0.0338
844.0004	0.0089
844.1657	0.0061
844.3311	0.0014
844.4964	-0.0907
844.6617	-0.0021
844.827	-0.0091
844.9923	-0.0056
845.1575	0.0399
845.3227	-0.03
845.4879	-0.0386
845.6531	-0.0793
845.8183	-0.0647
845.9834	-0.0098
846.1485	-0.017
846.3136	-0.0456
846.4787	-0.1105
846.6438	0.044
846.8088	-0.0301
846.9738	-0.1141
847.1388	-0.0298
847.3038	-0.0417
847.4687	-0.0752
847.6337	0.0874
847.7986	0.0375
847.9635	-0.0628
848.1284	0.0728
848.2932	0.0406
848.458	0.0001
848.6228	0.0393
848.7876	0.0337
848.9524	0.0036
849.1172	-0.027
849.2819	0.0172
849.4466	-0.0611
849.6113	-0.0432
849.7759	-0.0078
849.9406	-0.0329
850.1052	0.0575
850.2698	0.0482
850.4344	0.0435
850.599	-0.075
850.7635	0.0943
850.928	-0.0162
851.0925	-0.0075
851.257	-0.0172
851.4215	0.0298
851.5859	-0.017
851.7503	0.0048
851.9147	-0.0239
852.0791	-0.1359
852.2434	-0.0344
852.4078	0.1419
852.5721	0.0461
852.7364	-0.0158
852.9007	-0.2229
853.0649	-0.041
853.2291	-0.164
853.3934	0.0568
853.5575	0.0773
853.7217	-0.1442
853.8859	-0.1416
854.05	0.0055
854.2141	0.0354
854.3782	-0.1842
854.5423	-0.1292
854.7063	0.0845
854.8703	-0.0591
855.0343	-0.006
855.1983	-0.136
855.3623	0.0748
855.5262	0.0375
855.6901	-0.1073
855.854	-0.0738
856.0179	0.0645
856.1818	0.0942
856.3456	-0.0568
856.5094	-0.1423
856.6732	-0.1606
856.837	-0.0176
857.0008	0.1232
857.1645	-0.0485
857.3282	-0.005
857.4919	0.0963
857.6556	0.03
857.8192	0.1385
857.9828	0.0845
858.1465	-0.0262
858.31	-0.0716
858.4736	-0.0665
858.6372	-0.1241
858.8007	-0.0778
858.9642	0.3056
859.1277	-0.0333
859.2911	0.0097
859.4546	-0.0634
859.618	-0.4728
859.7814	-0.0794
859.9448	-0.0859
860.1081	-0.1425
860.2715	0.0913
860.4348	-0.1398
860.5981	-0.153
860.7614	0.1747
860.9246	0.4255
861.0879	-0.1752
861.2511	0.0775
861.4143	-0.3449
861.5774	0.1456
861.7406	-0.2138
861.9037	-0.1848
862.0668	-0.2355
862.2299	-0.0341
862.393	-0.5898
862.556	-0.0643
862.7191	-0.1709
862.8821	-0.217
863.0451	0.0173
863.208	0.318
863.371	0.1062
863.5339	-0.3778
863.6968	0.1123
863.8597	-0.2318
864.0225	-0.0604
864.1854	-0.1373
864.3482	-0.1146
864.511	0.2553
864.6737	0.1965
864.8365	0.3162
864.9992	-0.3345
865.1619	-0.6291
865.3246	-0.2454
865.4873	-0.0328
865.65	0.017
865.8126	0.2091
865.9752	0.0462
866.1378	0.5547
866.3004	-0.1972
866.4629	0.0679
866.6254	-0.1561
866.7879	0.2385
866.9504	-0.5368
867.1129	-0
867.2753	0.1799
867.4377	0.1125
867.6001	-0.4585
867.7625	0.5129
867.9249	-0
868.0872	-0.1197
868.2495	0.224
868.4118	-0.329
868.5741	1.0504
868.7363	-0.4164
868.8986	0.4751
869.0608	-0.2242
869.223	0.541
869.3851	-0
869.5473	-0
869.7094	0.1152
869.8715	0.1776
870.0336	0.1698
870.1957	-0.6838
870.3577	-0
870.5197	0.0661
870.6817	-0.5137
870.8437	-0.1863
871.0057	-0.2304
871.1676	-0.1095
871.3295	-0.0647
871.4914	-0
871.6533	-0.3059
871.8151	-0.4997
871.977	-0
872.1388	-0
872.3006	0.0322
872.4623	-0
872.6241	0.2165
872.7858	-0.0733
872.9475	-0.3187
873.1092	-0.0636
873.2709	-0.0203
873.4325	0.0536
873.5941	-0
873.7557	-0
873.9173	-0
874.0789	-0.4005
874.2404	-0.4253
874.4019	0.2055
874.5634	-0.2731
874.7249	0.1285
874.8863	0.0866
875.0478	0.1293
875.2092	-0
875.3706	0.1255
875.5319	-0.7793
875.6933	-0
875.8546	0.1338
876.0159	-0.0813
876.1772	-0
876.3385	-0
876.4997	1.3633
876.6609	-0.4442
876.8221	-0
876.9833	0.5162
877.1445	-0
877.3056	0.0644
877.4667	-0.3104
877.6278	-0
877.7889	-0.8018
877.9499	-0.776
878.111	-0.9408
878.272	-0
878.433	0.1751
878.5939	0.2358
878.7549	-0.1666
878.9158	-0.9109
879.0767	0.4366
879.2376	0.1469
879.3984	-0.1806
879.5593	-0
879.7201	-0.1146
879.8809	-0.2957
880.0417	-0.4221
880.2024	0.1134
880.3632	-0
880.5239	0.3203
880.6846	0.2529
880.8452	-1.7364
881.0059	-1.5092
881.1665	0.0641
881.3271	-0
881.4877	-0.2735
881.6483	-0.2622
881.8088	-0.0907
881.9693	-0
882.1298	-0
882.2903	-0
