Data from MonoPyChalIsomerACN10uM350nmA_Absorbance_14-35-38-915.txt Node
Date: Fri Jul 05 14:35:38 BST 2024
User: LASERRRRR
Spectrometer: FLMT03099
Trigger mode: 0
Integration Time (sec): 1.000000E-1
Scans to average: 1
Electric dark correction enabled: true
Nonlinearity correction enabled: false
Boxcar width: 0
XAxis mode: Wavelengths
Number of Pixels in Spectrum: 3648
>>>>>Begin Spectral Data<<<<<
179.3399	0.0335
179.5586	0.0335
179.7771	0.0335
179.9957	-0.0427
180.2143	-0
180.4329	-0.348
180.6514	-0
180.8699	-0
181.0885	-0.0293
181.307	0.1906
181.5255	-0
181.744	-0.7773
181.9625	-0
182.181	-0
182.3994	0.8862
182.6179	-0
182.8363	0.4913
183.0547	-0
183.2732	0.056
183.4916	0.083
183.71	0.0328
183.9284	0.2293
184.1467	0.1041
184.3651	0.0673
184.5835	-0.0587
184.8018	0.0888
185.0201	0.0521
185.2385	0.1102
185.4568	0.0399
185.6751	0.0304
185.8934	0.1991
186.1117	-0.0034
186.3299	0.1836
186.5482	0.174
186.7664	-0.1268
186.9847	-0.0042
187.2029	-0.0634
187.4211	0.0099
187.6393	0.2906
187.8575	-0.0054
188.0757	0.1719
188.2939	0.0279
188.512	-0.0993
188.7302	0.1535
188.9483	0.1339
189.1665	0.1313
189.3846	-0
189.6027	0.41
189.8208	0.3486
190.0389	0.1015
190.257	-0.0607
190.475	0.223
190.6931	0.1927
190.9111	0.2676
191.1292	0.0849
191.3472	0.4672
191.5652	0.3143
191.7832	0.2511
192.0012	0.4922
192.2192	0.3295
192.4371	0.8177
192.6551	0.3876
192.873	0.4167
193.091	0.4533
193.3089	0.363
193.5268	0.5792
193.7447	0.7087
193.9626	0.4462
194.1805	0.7893
194.3984	0.9294
194.6162	0.5598
194.8341	0.5682
195.0519	0.4872
195.2697	0.8681
195.4875	0.4758
195.7054	0.4954
195.9231	0.5819
196.1409	0.6019
196.3587	0.5057
196.5765	0.6319
196.7942	0.681
197.012	0.5152
197.2297	0.6029
197.4474	0.7617
197.6651	0.5171
197.8828	0.6546
198.1005	0.5868
198.3182	0.6624
198.5358	0.6659
198.7535	0.5499
198.9711	0.4584
199.1888	0.5896
199.4064	0.808
199.624	0.5351
199.8416	0.5483
200.0592	0.5962
200.2767	0.7218
200.4943	0.7351
200.7119	0.6243
200.9294	0.6725
201.1469	0.6334
201.3645	0.642
201.582	0.6007
201.7995	0.6347
202.017	0.6207
202.2344	0.5709
202.4519	0.6486
202.6694	0.6792
202.8868	0.6036
203.1042	0.753
203.3217	0.6343
203.5391	0.6674
203.7565	0.6263
203.9739	0.6519
204.1913	0.62
204.4086	0.525
204.626	0.7414
204.8433	0.7418
205.0607	0.6025
205.278	0.5846
205.4953	0.642
205.7126	0.5925
205.9299	0.819
206.1472	0.6415
206.3644	0.587
206.5817	0.6127
206.7989	0.6855
207.0162	0.7337
207.2334	0.7067
207.4506	0.649
207.6678	0.6458
207.885	0.6719
208.1022	0.6296
208.3194	0.6846
208.5365	0.7111
208.7537	0.6368
208.9708	0.6058
209.1879	0.7271
209.405	0.6592
209.6222	0.6485
209.8392	0.6708
210.0563	0.6445
210.2734	0.6705
210.4905	0.6687
210.7075	0.6927
210.9245	0.5424
211.1416	0.7089
211.3586	0.6084
211.5756	0.5708
211.7926	0.5482
212.0096	0.6065
212.2265	0.6215
212.4435	0.5098
212.6604	0.621
212.8774	0.5593
213.0943	0.6281
213.3112	0.5607
213.5281	0.5181
213.745	0.4967
213.9619	0.4675
214.1788	0.4853
214.3956	0.5045
214.6125	0.4438
214.8293	0.437
215.0461	0.4719
215.2629	0.4481
215.4798	0.455
215.6965	0.444
215.9133	0.4518
216.1301	0.3837
216.3469	0.4151
216.5636	0.4095
216.7803	0.37
216.9971	0.39
217.2138	0.3788
217.4305	0.3654
217.6472	0.3428
217.8639	0.3723
218.0805	0.3246
218.2972	0.3076
218.5138	0.3155
218.7305	0.318
218.9471	0.3073
219.1637	0.2776
219.3803	0.2866
219.5969	0.2765
219.8135	0.2697
220.0301	0.2756
220.2466	0.2633
220.4632	0.2518
220.6797	0.2206
220.8962	0.252
221.1127	0.2684
221.3292	0.2349
221.5457	0.2382
221.7622	0.2125
221.9787	0.2431
222.1951	0.2433
222.4116	0.2503
222.628	0.2436
222.8444	0.2588
223.0608	0.2535
223.2772	0.2407
223.4936	0.2518
223.71	0.2471
223.9264	0.2706
224.1427	0.2326
224.3591	0.2433
224.5754	0.2457
224.7917	0.2403
225.008	0.2538
225.2243	0.2525
225.4406	0.2776
225.6569	0.2582
225.8732	0.2569
226.0894	0.2562
226.3057	0.2704
226.5219	0.2925
226.7381	0.2625
226.9543	0.2618
227.1705	0.2738
227.3867	0.2783
227.6029	0.2902
227.8191	0.3254
228.0352	0.3002
228.2513	0.2943
228.4675	0.3125
228.6836	0.3084
228.8997	0.3005
229.1158	0.3009
229.3319	0.3174
229.548	0.3078
229.764	0.3116
229.9801	0.32
230.1961	0.3241
230.4121	0.3201
230.6282	0.3325
230.8442	0.338
231.0602	0.347
231.2761	0.3413
231.4921	0.3376
231.7081	0.3622
231.924	0.3496
232.14	0.3522
232.3559	0.341
232.5718	0.3687
232.7877	0.3555
233.0036	0.348
233.2195	0.3556
233.4353	0.3522
233.6512	0.361
233.867	0.3532
234.0829	0.3621
234.2987	0.3578
234.5145	0.3914
234.7303	0.3767
234.9461	0.3892
235.1619	0.389
235.3776	0.385
235.5934	0.3747
235.8091	0.385
236.0249	0.3725
236.2406	0.3704
236.4563	0.3701
236.672	0.4018
236.8877	0.4102
237.1034	0.3973
237.319	0.387
237.5347	0.4124
237.7503	0.3981
237.966	0.3972
238.1816	0.4069
238.3972	0.4088
238.6128	0.4098
238.8284	0.4007
239.0439	0.4098
239.2595	0.3973
239.475	0.402
239.6906	0.4225
239.9061	0.3839
240.1216	0.4021
240.3371	0.3981
240.5526	0.3854
240.7681	0.4032
240.9836	0.3739
241.199	0.4082
241.4145	0.3979
241.6299	0.386
241.8453	0.3884
242.0607	0.3881
242.2761	0.3664
242.4915	0.3713
242.7069	0.3669
242.9223	0.3633
243.1376	0.351
243.353	0.3585
243.5683	0.3606
243.7836	0.3292
243.9989	0.3375
244.2142	0.3083
244.4295	0.3158
244.6448	0.2945
244.86	0.3006
245.0753	0.2944
245.2905	0.2847
245.5057	0.2779
245.721	0.2765
245.9362	0.2771
246.1514	0.2757
246.3665	0.255
246.5817	0.2412
246.7969	0.2564
247.012	0.2665
247.2271	0.2435
247.4423	0.2497
247.6574	0.2369
247.8725	0.226
248.0876	0.2403
248.3026	0.2194
248.5177	0.219
248.7328	0.2013
248.9478	0.2116
249.1628	0.2398
249.3779	0.2085
249.5929	0.2081
249.8079	0.2147
250.0228	0.2048
250.2378	0.2137
250.4528	0.1966
250.6677	0.1955
250.8827	0.1989
251.0976	0.1768
251.3125	0.194
251.5274	0.1767
251.7423	0.1878
251.9572	0.1847
252.172	0.1731
252.3869	0.1878
252.6017	0.1837
252.8166	0.1765
253.0314	0.1648
253.2462	0.1781
253.461	0.1916
253.6758	0.1615
253.8906	0.1729
254.1053	0.1719
254.3201	0.159
254.5348	0.1777
254.7496	0.1867
254.9643	0.1738
255.179	0.1774
255.3937	0.1639
255.6083	0.1703
255.823	0.171
256.0377	0.1658
256.2523	0.175
256.467	0.1563
256.6816	0.162
256.8962	0.1697
257.1108	0.1679
257.3254	0.1648
257.54	0.166
257.7545	0.166
257.9691	0.1634
258.1836	0.1754
258.3981	0.1671
258.6127	0.1781
258.8272	0.1708
259.0417	0.1631
259.2561	0.1612
259.4706	0.1735
259.6851	0.1647
259.8995	0.1636
260.114	0.1677
260.3284	0.1731
260.5428	0.1608
260.7572	0.1691
260.9716	0.1644
261.186	0.1557
261.4003	0.1711
261.6147	0.1704
261.829	0.165
262.0433	0.1735
262.2577	0.1595
262.472	0.1705
262.6863	0.1663
262.9005	0.1741
263.1148	0.1553
263.3291	0.148
263.5433	0.16
263.7576	0.1567
263.9718	0.1691
264.186	0.1615
264.4002	0.155
264.6144	0.1656
264.8286	0.1743
265.0427	0.155
265.2569	0.1587
265.471	0.1543
265.6851	0.1532
265.8993	0.1667
266.1134	0.1609
266.3275	0.1623
266.5415	0.15
266.7556	0.1745
266.9697	0.1658
267.1837	0.1563
267.3978	0.1565
267.6118	0.1703
267.8258	0.172
268.0398	0.1514
268.2538	0.1544
268.4677	0.1645
268.6817	0.1575
268.8957	0.1558
269.1096	0.1587
269.3235	0.1547
269.5374	0.1609
269.7514	0.1551
269.9652	0.1518
270.1791	0.1486
270.393	0.1522
270.6068	0.1452
270.8207	0.156
271.0345	0.1535
271.2483	0.1574
271.4622	0.1327
271.676	0.1552
271.8897	0.143
272.1035	0.1377
272.3173	0.1363
272.531	0.1399
272.7448	0.1489
272.9585	0.1359
273.1722	0.1618
273.3859	0.1486
273.5996	0.142
273.8133	0.1482
274.0269	0.138
274.2406	0.135
274.4542	0.1456
274.6679	0.1345
274.8815	0.1413
275.0951	0.1579
275.3087	0.1593
275.5223	0.1551
275.7358	0.1475
275.9494	0.148
276.1629	0.1426
276.3765	0.1393
276.59	0.1472
276.8035	0.1418
277.017	0.1468
277.2305	0.1382
277.444	0.1546
277.6574	0.1459
277.8709	0.157
278.0843	0.1539
278.2978	0.1477
278.5112	0.1486
278.7246	0.151
278.938	0.1494
279.1513	0.1606
279.3647	0.1568
279.5781	0.1498
279.7914	0.143
280.0047	0.156
280.2181	0.1529
280.4314	0.1606
280.6447	0.1539
280.8579	0.1443
281.0712	0.1568
281.2845	0.1548
281.4977	0.1499
281.711	0.1448
281.9242	0.1633
282.1374	0.1591
282.3506	0.146
282.5638	0.161
282.7769	0.16
282.9901	0.148
283.2033	0.162
283.4164	0.1573
283.6295	0.1549
283.8426	0.1463
284.0557	0.1653
284.2688	0.1504
284.4819	0.1568
284.695	0.155
284.908	0.1593
285.1211	0.1538
285.3341	0.1706
285.5471	0.1651
285.7601	0.1554
285.9731	0.1516
286.1861	0.1504
286.3991	0.1614
286.612	0.1664
286.825	0.1589
287.0379	0.1704
287.2508	0.149
287.4637	0.1561
287.6766	0.1499
287.8895	0.1678
288.1024	0.188
288.3152	0.1602
288.5281	0.1537
288.7409	0.1627
288.9538	0.1695
289.1666	0.1519
289.3794	0.1668
289.5922	0.1617
289.8049	0.1652
290.0177	0.1627
290.2304	0.1618
290.4432	0.1604
290.6559	0.1705
290.8686	0.1659
291.0813	0.1629
291.294	0.172
291.5067	0.1608
291.7194	0.1579
291.932	0.163
292.1447	0.1573
292.3573	0.1528
292.5699	0.1674
292.7825	0.1607
292.9951	0.1623
293.2077	0.1688
293.4203	0.1594
293.6328	0.1535
293.8454	0.1686
294.0579	0.1662
294.2704	0.1645
294.4829	0.1522
294.6954	0.1661
294.9079	0.1662
295.1204	0.1725
295.3328	0.1661
295.5453	0.1605
295.7577	0.1674
295.9701	0.1606
296.1825	0.1629
296.3949	0.1588
296.6073	0.1644
296.8197	0.1532
297.0321	0.1777
297.2444	0.1574
297.4567	0.1649
297.6691	0.1608
297.8814	0.1587
298.0937	0.1616
298.306	0.1619
298.5182	0.1628
298.7305	0.1655
298.9428	0.1592
299.155	0.1687
299.3672	0.1593
299.5794	0.165
299.7916	0.1584
300.0038	0.1617
300.216	0.162
300.4282	0.1761
300.6403	0.1555
300.8525	0.1682
301.0646	0.1601
301.2767	0.1528
301.4888	0.1654
301.7009	0.1649
301.913	0.16
302.125	0.1732
302.3371	0.1542
302.5491	0.1609
302.7612	0.176
302.9732	0.1679
303.1852	0.1613
303.3972	0.1541
303.6092	0.159
303.8211	0.1537
304.0331	0.1562
304.245	0.1526
304.457	0.1528
304.6689	0.1487
304.8808	0.1714
305.0927	0.1549
305.3046	0.1532
305.5164	0.159
305.7283	0.1527
305.9401	0.1563
306.152	0.1457
306.3638	0.1612
306.5756	0.1495
306.7874	0.1368
306.9992	0.149
307.2109	0.1417
307.4227	0.1272
307.6344	0.1336
307.8462	0.1345
308.0579	0.1393
308.2696	0.1255
308.4813	0.1234
308.693	0.1371
308.9046	0.1404
309.1163	0.1356
309.328	0.1315
309.5396	0.1269
309.7512	0.1198
309.9628	0.1205
310.1744	0.1264
310.386	0.1214
310.5976	0.1141
310.8091	0.1198
311.0207	0.1174
311.2322	0.1241
311.4437	0.1146
311.6552	0.1139
311.8667	0.1252
312.0782	0.1005
312.2897	0.1118
312.5012	0.1164
312.7126	0.1057
312.924	0.1057
313.1355	0.1187
313.3469	0.1146
313.5583	0.1112
313.7696	0.1056
313.981	0.117
314.1924	0.115
314.4037	0.1071
314.6151	0.1168
314.8264	0.0904
315.0377	0.1035
315.249	0.1037
315.4603	0.0994
315.6716	0.0968
315.8828	0.0964
316.0941	0.1036
316.3053	0.0939
316.5165	0.0997
316.7277	0.0891
316.9389	0.1005
317.1501	0.1015
317.3613	0.0987
317.5724	0.0892
317.7836	0.092
317.9947	0.0965
318.2058	0.0943
318.417	0.0919
318.6281	0.0888
318.8391	0.094
319.0502	0.099
319.2613	0.1032
319.4723	0.1061
319.6834	0.0955
319.8944	0.0962
320.1054	0.0976
320.3164	0.0943
320.5274	0.0908
320.7383	0.1064
320.9493	0.0985
321.1602	0.1159
321.3712	0.09
321.5821	0.0885
321.793	0.0992
322.0039	0.0956
322.2148	0.1039
322.4257	0.1015
322.6365	0.1008
322.8474	0.1064
323.0582	0.1054
323.269	0.1041
323.4798	0.1118
323.6906	0.1127
323.9014	0.0921
324.1122	0.1069
324.3229	0.0968
324.5337	0.0878
324.7444	0.099
324.9551	0.1122
325.1658	0.1114
325.3765	0.1095
325.5872	0.1016
325.7979	0.0892
326.0085	0.0999
326.2192	0.1177
326.4298	0.1101
326.6404	0.0954
326.851	0.0966
327.0616	0.103
327.2722	0.1042
327.4828	0.1069
327.6933	0.1088
327.9039	0.1134
328.1144	0.1198
328.3249	0.1033
328.5354	0.1026
328.7459	0.1115
328.9564	0.0985
329.1669	0.0942
329.3773	0.1028
329.5878	0.1058
329.7982	0.1121
330.0086	0.1037
330.219	0.0997
330.4294	0.1051
330.6398	0.1058
330.8502	0.1009
331.0605	0.1165
331.2708	0.1111
331.4812	0.1076
331.6915	0.1122
331.9018	0.0999
332.1121	0.0926
332.3224	0.1029
332.5326	0.1135
332.7429	0.1101
332.9531	0.1186
333.1633	0.1152
333.3735	0.109
333.5837	0.1171
333.7939	0.0911
334.0041	0.1188
334.2143	0.1206
334.4244	0.1157
334.6346	0.0867
334.8447	0.1235
335.0548	0.1003
335.2649	0.0941
335.475	0.1151
335.685	0.0947
335.8951	0.1087
336.1051	0.1062
336.3152	0.1265
336.5252	0.1125
336.7352	0.12
336.9452	0.1179
337.1552	0.1116
337.3652	0.1094
337.5751	0.1105
337.7851	0.1118
337.995	0.1067
338.2049	0.1131
338.4148	0.1144
338.6247	0.114
338.8346	0.1072
339.0445	0.1073
339.2543	0.1169
339.4642	0.1163
339.674	0.1034
339.8838	0.1111
340.0936	0.118
340.3034	0.1363
340.5132	0.1102
340.7229	0.1308
340.9327	0.112
341.1424	0.1129
341.3522	0.1316
341.5619	0.12
341.7716	0.1281
341.9813	0.1205
342.1909	0.1244
342.4006	0.1342
342.6102	0.1281
342.8199	0.1272
343.0295	0.1215
343.2391	0.1205
343.4487	0.1258
343.6583	0.1238
343.8679	0.126
344.0774	0.1295
344.287	0.1281
344.4965	0.1218
344.706	0.1273
344.9155	0.1242
345.125	0.128
345.3345	0.1266
345.544	0.1267
345.7534	0.1352
345.9629	0.1165
346.1723	0.1396
346.3817	0.1238
346.5911	0.1478
346.8005	0.1383
347.0099	0.1322
347.2193	0.142
347.4286	0.1303
347.638	0.1286
347.8473	0.1395
348.0566	0.1331
348.2659	0.1351
348.4752	0.1381
348.6845	0.1433
348.8937	0.13
349.103	0.1299
349.3122	0.1207
349.5214	0.1317
349.7306	0.1273
349.9398	0.1388
350.149	0.1483
350.3582	0.1391
350.5674	0.1489
350.7765	0.1497
350.9856	0.1468
351.1948	0.1465
351.4039	0.136
351.613	0.1467
351.822	0.1464
352.0311	0.1426
352.2402	0.1412
352.4492	0.1554
352.6582	0.1634
352.8672	0.1567
353.0762	0.1455
353.2852	0.1454
353.4942	0.1421
353.7032	0.1439
353.9121	0.1581
354.1211	0.152
354.33	0.1505
354.5389	0.148
354.7478	0.1577
354.9567	0.1516
355.1655	0.1342
355.3744	0.1567
355.5833	0.1582
355.7921	0.1667
356.0009	0.1653
356.2097	0.1726
356.4185	0.1581
356.6273	0.1714
356.8361	0.1601
357.0448	0.1473
357.2536	0.1514
357.4623	0.1598
357.671	0.1551
357.8797	0.1646
358.0884	0.1646
358.2971	0.1506
358.5057	0.1586
358.7144	0.171
358.923	0.1575
359.1316	0.1847
359.3402	0.1699
359.5488	0.1593
359.7574	0.161
359.966	0.1811
360.1746	0.1739
360.3831	0.1713
360.5916	0.1687
360.8002	0.1631
361.0087	0.1794
361.2172	0.1856
361.4256	0.1709
361.6341	0.1821
361.8426	0.1766
362.051	0.1884
362.2594	0.194
362.4678	0.1806
362.6762	0.1983
362.8846	0.1699
363.093	0.1839
363.3014	0.1763
363.5097	0.1761
363.718	0.1807
363.9264	0.1783
364.1347	0.1876
364.343	0.1913
364.5513	0.1957
364.7595	0.1899
364.9678	0.1936
365.176	0.1973
365.3842	0.1943
365.5925	0.2037
365.8007	0.192
366.0089	0.1925
366.217	0.2036
366.4252	0.2016
366.6333	0.2002
366.8415	0.2025
367.0496	0.1959
367.2577	0.2116
367.4658	0.2143
367.6739	0.2036
367.882	0.2042
368.09	0.201
368.2981	0.2199
368.5061	0.2064
368.7141	0.2096
368.9221	0.218
369.1301	0.2047
369.3381	0.1865
369.5461	0.2139
369.754	0.2026
369.962	0.2232
370.1699	0.2213
370.3778	0.2229
370.5857	0.1978
370.7936	0.2309
371.0015	0.2202
371.2093	0.2121
371.4172	0.2213
371.625	0.2193
371.8328	0.2031
372.0406	0.2193
372.2484	0.2295
372.4562	0.2214
372.664	0.2122
372.8717	0.2295
373.0795	0.2041
373.2872	0.2156
373.4949	0.219
373.7026	0.2145
373.9103	0.2198
374.118	0.2238
374.3256	0.2298
374.5333	0.2351
374.7409	0.2295
374.9485	0.2337
375.1561	0.2301
375.3637	0.2342
375.5713	0.235
375.7789	0.239
375.9864	0.23
376.194	0.2321
376.4015	0.2604
376.609	0.2327
376.8165	0.2332
377.024	0.2313
377.2315	0.2233
377.4389	0.2201
377.6464	0.2385
377.8538	0.2446
378.0612	0.2417
378.2686	0.2402
378.476	0.2499
378.6834	0.2389
378.8908	0.2311
379.0981	0.2474
379.3055	0.2441
379.5128	0.2346
379.7201	0.2338
379.9274	0.2434
380.1347	0.2445
380.342	0.2599
380.5492	0.2547
380.7565	0.254
380.9637	0.2448
381.1709	0.2358
381.3781	0.2431
381.5853	0.2625
381.7925	0.2487
381.9997	0.2636
382.2068	0.2486
382.4139	0.2565
382.6211	0.2458
382.8282	0.2495
383.0353	0.2495
383.2424	0.2466
383.4494	0.2572
383.6565	0.2444
383.8635	0.2508
384.0706	0.2562
384.2776	0.2605
384.4846	0.2455
384.6916	0.2405
384.8986	0.263
385.1055	0.2521
385.3125	0.2652
385.5194	0.2395
385.7263	0.257
385.9333	0.2475
386.1402	0.2523
386.347	0.2457
386.5539	0.2525
386.7608	0.2735
386.9676	0.2385
387.1744	0.246
387.3813	0.2437
387.5881	0.2512
387.7948	0.228
388.0016	0.2382
388.2084	0.2492
388.4151	0.246
388.6219	0.2536
388.8286	0.2475
389.0353	0.2619
389.242	0.2572
389.4487	0.2357
389.6553	0.2292
389.862	0.2349
390.0686	0.2168
390.2753	0.2607
390.4819	0.2413
390.6885	0.2406
390.8951	0.2493
391.1016	0.2409
391.3082	0.2276
391.5147	0.2413
391.7213	0.2405
391.9278	0.2266
392.1343	0.2266
392.3408	0.2178
392.5473	0.228
392.7537	0.2246
392.9602	0.2228
393.1666	0.2348
393.373	0.2428
393.5794	0.2166
393.7858	0.2383
393.9922	0.225
394.1986	0.2221
394.4049	0.225
394.6113	0.2215
394.8176	0.2058
395.0239	0.2323
395.2302	0.2205
395.4365	0.2208
395.6428	0.2132
395.8491	0.1914
396.0553	0.2087
396.2615	0.2277
396.4678	0.2202
396.674	0.2132
396.8802	0.2031
397.0863	0.2169
397.2925	0.1949
397.4987	0.2087
397.7048	0.2098
397.9109	0.23
398.117	0.2107
398.3231	0.209
398.5292	0.2163
398.7353	0.2199
398.9413	0.1944
399.1474	0.2087
399.3534	0.2004
399.5594	0.1905
399.7654	0.2106
399.9714	0.2301
400.1774	0.2091
400.3833	0.1966
400.5893	0.2143
400.7952	0.2066
401.0011	0.2123
401.207	0.2035
401.4129	0.2084
401.6188	0.221
401.8247	0.2186
402.0305	0.1972
402.2364	0.2141
402.4422	0.2222
402.648	0.1981
402.8538	0.227
403.0596	0.192
403.2654	0.219
403.4711	0.1942
403.6768	0.2191
403.8826	0.2132
404.0883	0.2173
404.294	0.2079
404.4997	0.2056
404.7054	0.1994
404.911	0.2042
405.1167	0.2032
405.3223	0.2256
405.5279	0.2231
405.7335	0.2162
405.9391	0.2207
406.1447	0.2053
406.3502	0.2333
406.5558	0.2027
406.7613	0.2209
406.9668	0.2117
407.1724	0.2098
407.3778	0.1983
407.5833	0.2058
407.7888	0.2083
407.9942	0.2127
408.1997	0.2232
408.4051	0.2158
408.6105	0.2176
408.8159	0.192
409.0213	0.209
409.2267	0.2213
409.432	0.1978
409.6374	0.2114
409.8427	0.2135
410.048	0.2218
410.2533	0.1934
410.4586	0.2095
410.6639	0.2139
410.8691	0.2053
411.0744	0.2179
411.2796	0.181
411.4848	0.2169
411.69	0.1954
411.8952	0.2123
412.1004	0.1928
412.3056	0.2182
412.5107	0.2068
412.7158	0.2101
412.921	0.1926
413.1261	0.2054
413.3312	0.2126
413.5362	0.199
413.7413	0.2035
413.9464	0.1939
414.1514	0.1933
414.3564	0.2172
414.5614	0.1699
414.7664	0.2123
414.9714	0.2047
415.1764	0.1984
415.3813	0.2062
415.5863	0.1918
415.7912	0.1907
415.9961	0.1951
416.201	0.2008
416.4059	0.1961
416.6108	0.1948
416.8156	0.1929
417.0205	0.2048
417.2253	0.1999
417.4301	0.2026
417.6349	0.1941
417.8397	0.1914
418.0445	0.2009
418.2492	0.1971
418.454	0.1939
418.6587	0.1994
418.8634	0.2106
419.0681	0.1916
419.2728	0.1915
419.4775	0.1831
419.6822	0.1907
419.8868	0.1797
420.0915	0.1866
420.2961	0.1887
420.5007	0.1976
420.7053	0.2047
420.9099	0.1913
421.1144	0.1747
421.319	0.1725
421.5235	0.1847
421.728	0.1847
421.9325	0.1866
422.137	0.205
422.3415	0.1773
422.546	0.1927
422.7504	0.1747
422.9549	0.1779
423.1593	0.1819
423.3637	0.1868
423.5681	0.1769
423.7725	0.1851
423.9769	0.1668
424.1812	0.1778
424.3856	0.1795
424.5899	0.1856
424.7942	0.1951
424.9985	0.184
425.2028	0.1698
425.4071	0.1915
425.6113	0.1775
425.8156	0.1881
426.0198	0.1697
426.224	0.1489
426.4282	0.1644
426.6324	0.1547
426.8366	0.1523
427.0407	0.1505
427.2449	0.1646
427.449	0.1667
427.6531	0.1524
427.8572	0.1448
428.0613	0.1709
428.2654	0.1518
428.4694	0.15
428.6735	0.1432
428.8775	0.1749
429.0815	0.1656
429.2855	0.1467
429.4895	0.1638
429.6935	0.1561
429.8975	0.1452
430.1014	0.1451
430.3053	0.1432
430.5093	0.1507
430.7132	0.1274
430.9171	0.1396
431.1209	0.1417
431.3248	0.1425
431.5286	0.1448
431.7325	0.1357
431.9363	0.1211
432.1401	0.1333
432.3439	0.121
432.5477	0.1212
432.7514	0.1257
432.9552	0.1234
433.1589	0.1216
433.3627	0.1142
433.5664	0.1093
433.7701	0.1122
433.9737	0.1163
434.1774	0.0972
434.3811	0.1128
434.5847	0.133
434.7883	0.1092
434.9919	0.1123
435.1955	0.1007
435.3991	0.1048
435.6027	0.112
435.8062	0.1146
436.0098	0.0992
436.2133	0.0967
436.4168	0.0969
436.6203	0.1047
436.8238	0.0967
437.0272	0.085
437.2307	0.0919
437.4341	0.0914
437.6375	0.0815
437.841	0.0899
438.0443	0.108
438.2477	0.0881
438.4511	0.0769
438.6545	0.0801
438.8578	0.0922
439.0611	0.0953
439.2644	0.0759
439.4677	0.0701
439.671	0.0846
439.8743	0.0922
440.0775	0.0784
440.2808	0.0632
440.484	0.0707
440.6872	0.0596
440.8904	0.0522
441.0936	0.07
441.2967	0.0685
441.4999	0.0838
441.703	0.0505
441.9062	0.0595
442.1093	0.0627
442.3124	0.0747
442.5155	0.0588
442.7185	0.0657
442.9216	0.0358
443.1246	0.0759
443.3276	0.0534
443.5307	0.0509
443.7337	0.0547
443.9366	0.052
444.1396	0.0597
444.3426	0.0536
444.5455	0.0601
444.7484	0.0442
444.9513	0.0422
445.1542	0.0552
445.3571	0.046
445.56	0.0475
445.7628	0.0357
445.9657	0.0288
446.1685	0.0505
446.3713	0.0461
446.5741	0.0509
446.7769	0.031
446.9797	0.0515
447.1824	0.0449
447.3852	0.043
447.5879	0.0399
447.7906	0.0484
447.9933	0.0427
448.196	0.0222
448.3986	0.0308
448.6013	0.0343
448.8039	0.0218
449.0066	0.0223
449.2092	0.0204
449.4118	0.0399
449.6143	0.0257
449.8169	0.0438
450.0195	0.0202
450.222	0.0028
450.4245	0.0091
450.627	0.0381
450.8295	0.0329
451.032	0.0282
451.2345	0.0071
451.4369	0.0361
451.6394	0.0273
451.8418	0.0167
452.0442	0.0135
452.2466	0.0378
452.449	0.0077
452.6513	0.0282
452.8537	0.0199
453.056	0.008
453.2583	0.0231
453.4607	0.0233
453.663	0.0112
453.8652	0.0185
454.0675	0.0042
454.2697	0.0302
454.472	-0.0053
454.6742	0.0274
454.8764	-0.0068
455.0786	0.0194
455.2808	0.0144
455.4829	0.0097
455.6851	0.0251
455.8872	0.0129
456.0893	0.0248
456.2915	0.0056
456.4935	0.0261
456.6956	0.0092
456.8977	0.0093
457.0997	0.0105
457.3018	0.0032
457.5038	0.0126
457.7058	0.0053
457.9078	0.0129
458.1098	0.0076
458.3117	0.0157
458.5137	0.012
458.7156	0.0122
458.9175	-0.0087
459.1194	0.0137
459.3213	0.013
459.5232	0
459.725	0.0032
459.9269	-0.0028
460.1287	0.0093
460.3305	-0.0052
460.5323	0.0123
460.7341	-0.0061
460.9359	0.0125
461.1376	0.0085
461.3394	-0.0047
461.5411	0.0039
461.7428	-0.0043
461.9445	0.0155
462.1462	0.0121
462.3479	0.003
462.5495	-0.0026
462.7512	0.0107
462.9528	-0.0049
463.1544	-0.0128
463.356	-0.0041
463.5576	0.0186
463.7592	0.0022
463.9607	0.0016
464.1623	0.0135
464.3638	0.0092
464.5653	-0.0035
464.7668	0.0084
464.9683	0.0255
465.1697	0.0073
465.3712	0.0023
465.5726	-0.0027
465.7741	-0.0046
465.9755	-0.0078
466.1769	0.0003
466.3782	-0.0003
466.5796	0.0064
466.7809	0.0148
466.9823	0.0048
467.1836	-0.008
467.3849	-0.0115
467.5862	0.004
467.7875	-0.0059
467.9887	0.0156
468.19	0.0073
468.3912	-0.0054
468.5924	-0.0056
468.7936	-0.006
468.9948	-0.0058
469.196	0.0012
469.3972	-0.023
469.5983	0.0139
469.7994	0.0031
470.0006	-0.0163
470.2017	-0.0315
470.4027	0.0012
470.6038	-0.0041
470.8049	-0.0252
471.0059	-0.0115
471.2069	-0.027
471.408	0.0105
471.6089	-0.0091
471.8099	-0.0087
472.0109	-0.0008
472.2119	-0.0131
472.4128	-0.0258
472.6137	0.0055
472.8146	-0.007
473.0155	-0.0064
473.2164	0.0006
473.4173	0.0034
473.6181	0.0203
473.819	0.0006
474.0198	0.0099
474.2206	-0.0008
474.4214	0.0077
474.6222	-0.0031
474.8229	0.006
475.0237	-0.0111
475.2244	-0.0163
475.4251	0.0001
475.6258	0.0021
475.8265	0.0063
476.0272	0.0074
476.2278	0.0088
476.4285	-0.0104
476.6291	-0.0011
476.8297	-0.0078
477.0303	-0.0119
477.2309	0.0033
477.4315	-0.0114
477.632	-0.0038
477.8326	-0.0049
478.0331	0.0041
478.2336	0.0068
478.4341	0.0007
478.6346	-0.0088
478.8351	0.0007
479.0355	-0.0102
479.236	-0.006
479.4364	0.0091
479.6368	-0.006
479.8372	0.0024
480.0376	-0.003
480.2379	-0.0184
480.4383	-0.0034
480.6386	0.0132
480.8389	0.0025
481.0392	-0.0163
481.2395	-0.0102
481.4398	0.0153
481.6401	0.001
481.8403	0.0041
482.0405	0.0016
482.2408	-0.0157
482.441	0.0098
482.6411	-0.0037
482.8413	-0.0034
483.0415	-0.0113
483.2416	-0.0138
483.4417	-0.0009
483.6419	-0.0154
483.8419	-0.0101
484.042	0.0063
484.2421	0.0117
484.4422	0.0031
484.6422	0.0004
484.8422	-0.0033
485.0422	-0.0054
485.2422	0.0093
485.4422	-0.0063
485.6422	-0.0165
485.8421	-0.0042
486.042	0.0087
486.242	-0.0026
486.4419	-0.0136
486.6417	-0.0072
486.8416	-0.0046
487.0415	-0.007
487.2413	-0.0064
487.4411	-0.0016
487.641	-0.0093
487.8408	-0.0073
488.0405	-0.0182
488.2403	-0.0091
488.4401	0.0008
488.6398	-0.0001
488.8395	-0.0071
489.0392	0.0021
489.2389	-0.0062
489.4386	-0.0041
489.6383	-0.0068
489.8379	0.0003
490.0376	0.0025
490.2372	-0.0159
490.4368	-0.0038
490.6364	-0.0055
490.836	-0.0087
491.0355	-0.0054
491.2351	-0.0046
491.4346	-0.0084
491.6341	-0.0103
491.8336	0.0051
492.0331	-0.0117
492.2326	-0.0147
492.432	-0.0021
492.6315	-0.0061
492.8309	-0.0097
493.0303	-0.0086
493.2297	-0.0104
493.4291	-0.0052
493.6284	-0.0086
493.8278	-0.0023
494.0271	0.0062
494.2264	-0.0022
494.4257	-0.0102
494.625	-0.0017
494.8243	-0.0114
495.0236	-0.0047
495.2228	-0.013
495.422	0.0023
495.6213	-0.0147
495.8205	-0.0031
496.0196	-0.006
496.2188	0.0021
496.418	-0.0175
496.6171	-0.0006
496.8162	-0.005
497.0153	-0.0007
497.2144	-0.0019
497.4135	0.0015
497.6126	-0.0156
497.8116	-0.0164
498.0107	-0.0036
498.2097	-0.0132
498.4087	-0.0152
498.6077	-0.0046
498.8067	-0.0065
499.0056	-0.008
499.2046	0.0013
499.4035	-0.0215
499.6024	0.0004
499.8013	-0.0061
500.0002	-0.0032
500.199	-0.0003
500.3979	-0.002
500.5967	-0.0249
500.7956	0.0057
500.9944	-0.008
501.1932	-0.0128
501.3919	-0.0062
501.5907	-0.0091
501.7895	-0.0041
501.9882	-0.0091
502.1869	-0.0083
502.3856	-0.0167
502.5843	-0.0061
502.783	-0.0043
502.9816	-0.0083
503.1803	-0.0126
503.3789	-0.0108
503.5775	0.0054
503.7761	-0.0122
503.9747	-0.0045
504.1732	-0.0198
504.3718	-0.0073
504.5703	-0.009
504.7689	-0.0143
504.9674	-0.0109
505.1658	-0.0121
505.3643	-0.01
505.5628	-0.0116
505.7612	-0.0069
505.9597	-0.0012
506.1581	-0.0007
506.3565	-0.0027
506.5549	-0.0069
506.7532	-0.022
506.9516	-0.0085
507.1499	-0.0013
507.3482	-0.0153
507.5465	-0.0006
507.7448	-0.0048
507.9431	-0.0084
508.1414	-0.0076
508.3396	0.0002
508.5379	-0.001
508.7361	-0.0124
508.9343	0.0004
509.1325	0.003
509.3306	-0.0131
509.5288	-0.0055
509.7269	-0.0062
509.9251	-0.0073
510.1232	-0.0135
510.3213	0.002
510.5193	-0.0042
510.7174	-0.0077
510.9154	-0.0139
511.1135	-0.002
511.3115	-0.009
511.5095	0.0082
511.7075	-0.0086
511.9055	-0.0058
512.1034	-0.015
512.3014	0.0034
512.4993	-0.0074
512.6972	-0.0062
512.8951	-0.016
513.093	-0.0056
513.2908	-0.0089
513.4887	-0.0064
513.6865	-0.0046
513.8844	0
514.0822	-0.0027
514.2799	-0.0161
514.4777	-0.0092
514.6755	-0.0099
514.8732	-0.0144
515.0709	0.0021
515.2687	-0.0037
515.4664	0.0054
515.664	-0.0117
515.8617	-0.0171
516.0594	-0.0138
516.257	0.0019
516.4546	-0.0175
516.6522	-0.0043
516.8498	-0.0077
517.0474	-0.0052
517.2449	-0.0078
517.4425	-0.0085
517.64	0.0039
517.8375	-0.0092
518.035	-0.004
518.2325	-0.0167
518.43	-0.0046
518.6274	-0.0094
518.8249	-0.0119
519.0223	0.0013
519.2197	-0.0014
519.4171	-0.0012
519.6145	-0.0152
519.8118	0.0039
520.0092	0.0035
520.2065	-0.0096
520.4038	-0.0098
520.6011	-0.0102
520.7984	-0.0163
520.9956	-0.0139
521.1929	-0.0186
521.3901	-0.0011
521.5874	0.0017
521.7846	-0.0067
521.9818	-0.0108
522.1789	-0.0069
522.3761	-0.0034
522.5732	-0.0082
522.7704	-0.0017
522.9675	-0.0104
523.1646	-0.0177
523.3617	0.0026
523.5587	-0.0029
523.7558	-0.0087
523.9528	-0.0069
524.1498	0.0016
524.3468	-0.0052
524.5438	-0.0143
524.7408	0.0016
524.9378	0.0024
525.1347	0.0009
525.3316	-0.0077
525.5285	-0.0059
525.7254	-0.0098
525.9223	-0.0068
526.1192	-0.0047
526.316	-0.0132
526.5129	-0.0013
526.7097	-0.0029
526.9065	0.0002
527.1033	-0.0177
527.3	-0.0075
527.4968	-0.0142
527.6935	-0.0108
527.8903	-0.0122
528.087	0.0061
528.2837	-0.0019
528.4804	0.0008
528.677	-0.0088
528.8737	0.0076
529.0703	-0.0034
529.2669	0.0005
529.4635	-0.0027
529.6601	-0.0017
529.8567	-0.0026
530.0532	-0.0056
530.2498	-0.002
530.4463	0.0061
530.6428	-0.0048
530.8393	-0.0056
531.0358	0.0028
531.2322	0.0024
531.4287	-0.0039
531.6251	-0.0077
531.8215	0.0088
532.0179	-0.0091
532.2143	0.0067
532.4107	-0.0103
532.607	-0.0182
532.8034	0.0022
532.9997	-0.0045
533.196	-0.0024
533.3923	-0.0048
533.5886	-0.0036
533.7848	-0.0026
533.9811	0.0034
534.1773	0.002
534.3735	0.0011
534.5697	-0.0071
534.7659	-0.0032
534.9621	-0.0056
535.1582	-0.0056
535.3544	-0.0099
535.5505	-0.0092
535.7466	-0.0031
535.9427	-0.0042
536.1387	-0.0152
536.3348	0
536.5308	-0.0069
536.7269	-0.0069
536.9229	0.0014
537.1189	-0.0061
537.3148	-0.0026
537.5108	-0.0098
537.7068	0.0003
537.9027	-0.0041
538.0986	-0.0099
538.2945	0.0007
538.4904	-0.0035
538.6863	-0.0049
538.8821	-0.0063
539.078	-0.0026
539.2738	0.0013
539.4696	-0.0065
539.6654	0.0057
539.8611	0.0087
540.0569	0.0007
540.2526	-0.0011
540.4484	0.0007
540.6441	0.0043
540.8398	-0.0072
541.0355	-0.0035
541.2311	-0.0006
541.4268	-0.0066
541.6224	0.0094
541.818	-0.0031
542.0136	-0.0038
542.2092	-0.004
542.4048	0.0054
542.6003	0.0063
542.7959	-0.0018
542.9914	-0.006
543.1869	0.002
543.3824	-0.01
543.5779	-0.0086
543.7734	-0.0065
543.9688	-0.0158
544.1642	0.0072
544.3596	-0.0065
544.555	-0.0036
544.7504	-0.0071
544.9458	-0.0022
545.1411	0.0009
545.3365	-0.0082
545.5318	-0.0066
545.7271	-0.0056
545.9224	-0.009
546.1177	-0.0064
546.3129	0.0017
546.5081	-0.0021
546.7034	-0.006
546.8986	-0.0004
547.0938	-0.0098
547.289	-0.0047
547.4841	0.007
547.6793	0.0072
547.8744	-0.0052
548.0695	-0.0007
548.2646	-0.0129
548.4597	0.003
548.6548	-0.0085
548.8498	0.0022
549.0448	0.0125
549.2399	-0.0055
549.4349	-0.0026
549.6298	-0.0036
549.8248	-0.01
550.0198	-0.0043
550.2147	-0.0034
550.4096	-0.0107
550.6045	-0.003
550.7994	0.0043
550.9943	0.0096
551.1892	-0.0045
551.384	0.0063
551.5788	-0.0085
551.7737	0.0022
551.9685	0.0042
552.1632	-0.003
552.358	0.0052
552.5528	0.0013
552.7475	0.0008
552.9422	-0.0046
553.1369	0.0059
553.3316	0.0087
553.5263	-0.0078
553.7209	0.0069
553.9156	-0.0043
554.1102	-0.0183
554.3048	-0.0126
554.4994	0.0051
554.694	-0.0016
554.8885	0.0074
555.0831	-0.0034
555.2776	-0.0059
555.4721	-0.0063
555.6666	-0.0035
555.8611	0.0021
556.0555	-0.0044
556.25	-0.0057
556.4444	-0.0106
556.6388	0.0056
556.8332	-0.0027
557.0276	-0.0011
557.222	-0.0019
557.4163	-0.0053
557.6107	-0.0143
557.805	-0.0047
557.9993	-0.0087
558.1936	0.0055
558.3879	0.002
558.5821	-0.0019
558.7764	-0.0085
558.9706	0.0002
559.1648	-0.0029
559.359	-0.0021
559.5532	-0.0068
559.7473	-0.0022
559.9415	0.0002
560.1356	0.0001
560.3297	-0.0103
560.5238	-0.0114
560.7179	-0.0038
560.9119	-0.0001
561.106	-0.0127
561.3	-0.0103
561.494	-0.005
561.688	-0.0085
561.882	-0.0112
562.076	-0.0035
562.2699	-0.0034
562.4639	-0.0007
562.6578	0.0005
562.8517	0.0004
563.0456	0.0001
563.2395	-0.0071
563.4333	-0.0004
563.6272	0.0075
563.821	-0.0059
564.0148	0.0003
564.2086	-0.0073
564.4024	-0.0091
564.5961	-0.0054
564.7899	-0.0051
564.9836	-0.0042
565.1773	-0.0026
565.371	0.0034
565.5647	-0.0027
565.7584	0.0039
565.952	0.0019
566.1456	0.0003
566.3393	-0.0068
566.5329	-0.0046
566.7264	-0.0046
566.92	0.0008
567.1136	0.0118
567.3071	0.0023
567.5006	0.0054
567.6941	0.0013
567.8876	0.0031
568.0811	-0.0045
568.2745	-0.0036
568.468	0.0092
568.6614	0.0054
568.8548	-0.0077
569.0482	-0.0007
569.2416	0.0058
569.4349	-0.0042
569.6283	-0.0015
569.8216	-0.0009
570.0149	-0.0053
570.2082	0.0067
570.4015	0.007
570.5947	0.0015
570.788	0.0014
570.9812	0.0119
571.1744	-0.0027
571.3676	-0.005
571.5608	-0.0053
571.754	-0.0004
571.9471	-0.0011
572.1402	0.0031
572.3333	-0.003
572.5264	-0.0012
572.7195	-0.0001
572.9126	-0.0086
573.1057	-0.002
573.2987	-0.0021
573.4917	0.0048
573.6847	0.0006
573.8777	0.005
574.0707	0.0084
574.2636	-0.0059
574.4566	-0.0015
574.6495	0.0037
574.8424	-0.0044
575.0353	-0.0094
575.2281	0.0074
575.421	-0.0008
575.6138	0.0063
575.8067	0.0016
575.9995	0.0016
576.1923	0.0096
576.385	-0.0011
576.5778	0.007
576.7706	-0.0023
576.9633	0.0086
577.156	0.0053
577.3487	-0.0024
577.5414	-0.0055
577.734	-0.0015
577.9267	0.0007
578.1193	-0.0035
578.3119	-0.0022
578.5045	0.0015
578.6971	0.0029
578.8897	0.0046
579.0822	0.0016
579.2747	0.0029
579.4673	-0.0012
579.6598	-0.0112
579.8522	-0.0042
580.0447	-0.0083
580.2372	-0.0003
580.4296	0.0032
580.622	-0.0069
580.8144	0.0005
581.0068	-0.0001
581.1992	-0.0059
581.3915	-0.0067
581.5839	-0.0049
581.7762	-0.0066
581.9685	-0.0033
582.1608	0.0045
582.353	0.0007
582.5453	0.0008
582.7375	0.0006
582.9298	0.0071
583.122	0.0005
583.3142	0.007
583.5063	0.006
583.6985	0.0019
583.8906	-0.0021
584.0827	-0.0084
584.2749	0.0005
584.4669	0.0043
584.659	-0.0024
584.8511	-0.0037
585.0431	-0.0027
585.2352	-0.0018
585.4272	0.001
585.6192	0.0035
585.8111	0.0036
586.0031	0.0014
586.195	-0.0006
586.387	0.0026
586.5789	-0.0006
586.7708	-0.0028
586.9627	-0.0004
587.1545	-0.0055
587.3464	0.0076
587.5382	0.0051
587.73	-0.0012
587.9218	0.003
588.1136	-0.0037
588.3053	-0.0033
588.4971	-0.0016
588.6888	-0.0026
588.8805	0.0013
589.0722	-0.0019
589.2639	-0.005
589.4556	-0.0034
589.6472	-0.005
589.8389	-0.0127
590.0305	-0.0045
590.2221	-0.0032
590.4137	-0.0044
590.6052	0.0053
590.7968	0.0013
590.9883	-0.0078
591.1798	-0.0072
591.3713	-0.0068
591.5628	0.0082
591.7543	0.0012
591.9458	0.0013
592.1372	0.0017
592.3286	0.014
592.52	0.0032
592.7114	-0.0016
592.9028	-0.0045
593.0941	-0.0016
593.2855	0.0008
593.4768	-0.0109
593.6681	-0.0099
593.8594	-0.0012
594.0506	0.0028
594.2419	0.005
594.4331	0.0045
594.6244	0.0093
594.8156	-0.0032
595.0067	-0.0038
595.1979	-0.0003
595.3891	-0.0002
595.5802	-0.0013
595.7713	-0.003
595.9624	-0.0104
596.1535	0.0033
596.3446	-0.0039
596.5357	0.0016
596.7267	0.0013
596.9177	-0.001
597.1087	-0.0026
597.2997	-0.0081
597.4907	0.0065
597.6817	-0.0053
597.8726	0.0048
598.0635	-0.0068
598.2544	-0.0046
598.4453	0.0015
598.6362	-0.0001
598.827	0.001
599.0179	0.0068
599.2087	0.0035
599.3995	0.0011
599.5903	0.0002
599.7811	-0.0018
599.9718	-0.0013
600.1626	-0.0001
600.3533	-0.0041
600.544	-0.0043
600.7347	0.0009
600.9254	0.0014
601.116	-0.0146
601.3067	-0.001
601.4973	-0.0109
601.6879	0.0073
601.8785	-0.0006
602.0691	0.0054
602.2596	0.0035
602.4502	0.001
602.6407	0.0031
602.8312	0.0001
603.0217	-0.003
603.2122	-0.0008
603.4027	0.0027
603.5931	-0.005
603.7835	-0.0048
603.9739	-0.0076
604.1643	-0.0009
604.3547	-0.0072
604.5451	0.0069
604.7354	-0.002
604.9257	-0.0023
605.116	0.0034
605.3063	0.0049
605.4966	0.0015
605.6869	0.003
605.8771	0.0089
606.0673	0.0062
606.2575	0.0095
606.4477	0.0104
606.6379	0.001
606.8281	0.0016
607.0182	0.0023
607.2083	0.0153
607.3985	0.0019
607.5885	-0.0005
607.7786	-0.0015
607.9687	0.0057
608.1587	0.0059
608.3488	0.0054
608.5388	0.0063
608.7288	0.0014
608.9187	-0.0098
609.1087	0.0001
609.2986	-0.0043
609.4886	-0.0039
609.6785	0.0036
609.8684	0.0069
610.0582	0.0085
610.2481	0.0058
610.4379	-0.005
610.6278	0.0007
610.8176	-0.0044
611.0074	-0.0063
611.1971	-0.0042
611.3869	-0.0026
611.5766	-0.0083
611.7664	0.0094
611.9561	-0.0024
612.1458	0.0052
612.3354	-0.0002
612.5251	-0.0016
612.7147	0.0028
612.9044	0.0043
613.094	-0.0066
613.2836	-0.0006
613.4731	0.001
613.6627	-0.0056
613.8522	0.0011
614.0417	0.0028
614.2313	0.0015
614.4207	-0.0014
614.6102	0.0033
614.7997	-0.0048
614.9891	-0.0039
615.1785	0.0015
615.3679	-0.0076
615.5573	0.0112
615.7467	0.0037
615.9361	-0.0036
616.1254	-0.0009
616.3147	-0.0016
616.504	0.0082
616.6933	0.0056
616.8826	0.0056
617.0718	0.0044
617.2611	0.0034
617.4503	-0.0103
617.6395	-0.0018
617.8287	-0.0037
618.0179	0.0012
618.207	0.0086
618.3961	-0.0021
618.5853	0.0016
618.7744	0.0016
618.9634	0.0001
619.1525	0.0005
619.3416	-0.0003
619.5306	0.0024
619.7196	0.0041
619.9086	0.0022
620.0976	0.0047
620.2866	0.0042
620.4755	0.001
620.6645	0.0041
620.8534	0.003
621.0423	0.0005
621.2312	0.0011
621.42	-0.0019
621.6089	0.0008
621.7977	0.0025
621.9865	-0.0043
622.1753	0.0021
622.3641	-0.0012
622.5529	0.0052
622.7416	0.0064
622.9303	-0.0002
623.1191	0.0114
623.3078	0.0005
623.4964	0.0031
623.6851	-0.0011
623.8737	-0.0051
624.0624	0.0054
624.251	-0.0026
624.4396	-0.0005
624.6282	-0.0092
624.8167	-0.0016
625.0053	0.0056
625.1938	0.0062
625.3823	0.0083
625.5708	-0.0051
625.7593	-0.0021
625.9477	-0.0073
626.1362	-0.0056
626.3246	-0.0028
626.513	0.0062
626.7014	-0.0005
626.8898	0.0018
627.0781	0.0014
627.2665	-0.0064
627.4548	0.0114
627.6431	0.0046
627.8314	0.0073
628.0197	0.0008
628.2079	-0.0036
628.3962	0.0021
628.5844	0.006
628.7726	0.0054
628.9608	0.005
629.1489	-0.0011
629.3371	0.0053
629.5252	-0.0029
629.7134	0.0127
629.9015	0.0009
630.0895	0.0023
630.2776	0.0132
630.4657	0.0019
630.6537	0.0043
630.8417	-0.0013
631.0297	-0.0004
631.2177	0.0023
631.4057	-0.0018
631.5936	-0.0067
631.7815	0.0019
631.9695	0.0014
632.1574	0.0123
632.3452	0.0174
632.5331	0.0041
632.7209	-0.0006
632.9088	0.007
633.0966	0.0079
633.2844	-0.0061
633.4722	0.0042
633.6599	0.0058
633.8477	0.0013
634.0354	-0.0006
634.2231	-0.0018
634.4108	-0.0004
634.5985	0.0121
634.7861	-0.0001
634.9738	0.0048
635.1614	-0.0015
635.349	0.011
635.5366	0.0113
635.7242	0.0083
635.9117	0.0041
636.0993	-0.0066
636.2868	0.0033
636.4743	0.0025
636.6618	0.0071
636.8492	0.0044
637.0367	0.0058
637.2241	0.0051
637.4115	0.0028
637.5989	0.0009
637.7863	-0.0006
637.9737	-0.0029
638.161	0.0027
638.3484	-0.0051
638.5357	0.0041
638.723	-0.0042
638.9103	0.0031
639.0975	0.0028
639.2848	0.0015
639.472	0.0043
639.6592	-0.0008
639.8464	0.009
640.0336	0.0053
640.2208	-0.0026
640.4079	-0.0009
640.595	0.002
640.7821	0.0031
640.9692	0.0035
641.1563	0.0034
641.3434	0.0011
641.5304	-0.0011
641.7174	0.0023
641.9044	0.0048
642.0914	0.0039
642.2784	0.0017
642.4653	0.0061
642.6523	0.0026
642.8392	-0.0047
643.0261	-0.0009
643.213	0.0009
643.3999	-0.0072
643.5867	-0.0023
643.7735	-0
643.9604	-0.0065
644.1472	0.0007
644.3339	0.0028
644.5207	-0.0007
644.7075	0.001
644.8942	-0.001
645.0809	0.008
645.2676	0.0106
645.4543	0.0003
645.6409	0
645.8276	0.0011
646.0142	0.0029
646.2008	-0.0014
646.3874	-0.0045
646.574	0.0024
646.7605	-0.0019
646.9471	-0.0148
647.1336	-0.0039
647.3201	0.0092
647.5066	-0.0069
647.6931	0.013
647.8795	0.0056
648.0659	0.0087
648.2524	0.0051
648.4388	0.0025
648.6252	0.0004
648.8115	-0.0008
648.9979	0.002
649.1842	0.0015
649.3705	0.0084
649.5568	0.0098
649.7431	0.0114
649.9294	-0.0038
650.1156	0.0008
650.3018	-0.0004
650.488	0.0078
650.6742	0.0017
650.8604	0.0016
651.0466	-0.0069
651.2327	0.0013
651.4188	0.0017
651.6049	-0.0003
651.791	-0.0021
651.9771	0.0013
652.1632	0.0007
652.3492	0.0042
652.5352	-0.0022
652.7212	0.0018
652.9072	-0.0011
653.0932	-0.0035
653.2791	-0.0031
653.465	-0.0003
653.651	0.001
653.8369	-0.0042
654.0227	-0.0057
654.2086	0.0068
654.3944	0.0051
654.5803	0.0012
654.7661	-0.0062
654.9519	0.0061
655.1377	-0.0013
655.3234	-0.0015
655.5092	-0.0074
655.6949	-0.0067
655.8806	-0.0021
656.0663	-0.0016
656.2519	0.0014
656.4376	-0.0035
656.6232	0.0051
656.8088	0.0029
656.9945	0.0022
657.18	0.0011
657.3656	-0.0006
657.5511	-0.0016
657.7367	-0.0046
657.9222	0.0049
658.1077	0.004
658.2932	0.0034
658.4786	-0.0074
658.6641	-0.0004
658.8495	-0.0051
659.0349	0.0015
659.2203	-0.0005
659.4057	-0.0003
659.591	0.0008
659.7764	-0.0046
659.9617	0.0006
660.147	0.0005
660.3323	0.0056
660.5176	0.0128
660.7028	0.0008
660.888	0.0097
661.0733	0.002
661.2585	-0.0063
661.4436	-0.0001
661.6288	0.0002
661.8139	0.0037
661.9991	0.0007
662.1842	-0.0072
662.3693	-0.0001
662.5544	-0.0096
662.7394	-0.001
662.9245	-0.0056
663.1095	0.0041
663.2945	-0.004
663.4795	-0.0029
663.6644	0.002
663.8494	0.002
664.0343	0.0019
664.2193	-0.0079
664.4042	-0.0007
664.589	-0.0056
664.7739	0.0012
664.9587	-0.0042
665.1436	-0.0047
665.3284	0.0029
665.5132	-0.0025
665.698	0.0071
665.8827	0.0005
666.0675	-0.001
666.2522	-0.0079
666.4369	-0.0005
666.6216	0.0118
666.8063	0.0016
666.9909	-0.0013
667.1756	0.0016
667.3602	-0.002
667.5448	0.0024
667.7294	0.01
667.9139	0.0049
668.0985	0.0081
668.283	-0.0015
668.4675	0.0068
668.652	0.0054
668.8365	0.0065
669.0209	0.0086
669.2054	0.015
669.3898	0.002
669.5742	0.0034
669.7586	0.0032
669.943	0.005
670.1273	0.0028
670.3117	0.0049
670.496	0.0109
670.6803	0.0073
670.8646	0.0023
671.0488	-0.0038
671.2331	0.003
671.4173	0.0082
671.6015	0.002
671.7857	0.009
671.9699	0.0071
672.1541	-0.0006
672.3382	0.0019
672.5223	0.0018
672.7064	0.0013
672.8905	0.0057
673.0746	0.0044
673.2587	-0.0041
673.4427	-0.0013
673.6267	0.001
673.8107	0.0072
673.9947	0.0077
674.1787	0.0046
674.3626	-0.0066
674.5465	0.0001
674.7304	0.0005
674.9143	0.0041
675.0982	0.0053
675.2821	-0.0057
675.4659	0.0043
675.6497	0.0035
675.8335	-0.0033
676.0173	-0.0012
676.2011	-0.0001
676.3849	-0.0025
676.5686	-0.0101
676.7523	-0.0066
676.936	-0.0013
677.1197	-0.0035
677.3034	-0.0082
677.487	0.0021
677.6706	-0.0044
677.8542	0.0022
678.0378	0.0049
678.2214	0.0012
678.405	-0.0017
678.5885	-0.0075
678.772	0.0015
678.9555	0.0086
679.139	-0.0013
679.3225	-0.0045
679.5059	-0.0064
679.6894	0.0019
679.8728	-0.0046
680.0562	-0.0026
680.2395	-0.0009
680.4229	-0.0029
680.6062	0.0095
680.7896	0.0063
680.9729	-0.0041
681.1562	0.0044
681.3394	-0.001
681.5227	-0.0017
681.7059	0.0031
681.8891	0.0073
682.0723	0.0114
682.2555	0.0069
682.4387	0.0045
682.6218	0.006
682.805	0.013
682.9881	0.0069
683.1712	0.0046
683.3542	0.0029
683.5373	0.0021
683.7203	-0.0004
683.9034	-0.0047
684.0864	-0.0029
684.2694	-0.0025
684.4523	-0.0003
684.6353	-0.0037
684.8182	0
685.0011	-0.009
685.184	0.0043
685.3669	-0.0049
685.5498	-0.0021
685.7326	-0.0006
685.9154	-0.0081
686.0982	0.0091
686.281	0.0038
686.4638	-0.0031
686.6465	-0.007
686.8293	-0.0022
687.012	0.0002
687.1947	-0.0117
687.3774	0.002
687.56	-0.0052
687.7427	0.0068
687.9253	-0.0073
688.1079	-0.0102
688.2905	0.0085
688.4731	-0.0027
688.6556	0
688.8382	0.0053
689.0207	-0.0015
689.2032	-0.0061
689.3857	-0.0005
689.5681	-0.0004
689.7506	-0.0051
689.933	-0.0002
690.1154	0.0064
690.2978	0.0025
690.4802	-0.0054
690.6626	-0.0046
690.8449	-0.0024
691.0272	0.0036
691.2095	-0.0025
691.3918	-0.0015
691.5741	0.0019
691.7563	-0.0002
691.9386	0.0056
692.1208	0.0007
692.303	0.0038
692.4852	-0.0007
692.6673	0.0065
692.8495	0.0025
693.0316	0.007
693.2137	0.0012
693.3958	0.0086
693.5778	0.0008
693.7599	-0.0017
693.9419	0.0076
694.1239	0.0002
694.3059	0.0016
694.4879	0.0072
694.6699	0.0073
694.8518	0.0038
695.0337	-0.0009
695.2157	0.0052
695.3975	-0.0023
695.5794	0.0051
695.7613	0.0088
695.9431	0.0008
696.1249	0.0018
696.3067	0.0106
696.4885	0.0133
696.6703	-0.001
696.852	0.0108
697.0337	0.0039
697.2154	0.0041
697.3971	-0.005
697.5788	0.0022
697.7605	0.0005
697.9421	0.0068
698.1237	0.0044
698.3053	0.0042
698.4869	-0.0009
698.6685	-0.0032
698.85	0.0067
699.0315	0.0139
699.213	0.0052
699.3945	0.0038
699.576	0.0027
699.7575	0.0062
699.9389	0.0097
700.1203	0.0041
700.3017	-0.0046
700.4831	-0.0082
700.6645	-0.0032
700.8458	0.0087
701.0271	-0.0048
701.2084	-0.0011
701.3897	-0.0022
701.571	0.0032
701.7523	-0.0018
701.9335	0.0073
702.1147	0.0019
702.2959	0.0008
702.4771	-0.0034
702.6583	-0.0007
702.8394	-0.0057
703.0205	0.0116
703.2016	-0.0092
703.3827	0.0027
703.5638	0.0053
703.7449	0.0072
703.9259	0.0072
704.1069	-0.0091
704.2879	0.0092
704.4689	0.0016
704.6499	-0.0018
704.8308	-0.0025
705.0117	0.0035
705.1927	0.0006
705.3735	0.0044
705.5544	-0.0082
705.7353	0.0048
705.9161	0.0003
706.0969	-0.005
706.2777	-0.0041
706.4585	-0.0029
706.6393	0.001
706.82	0.003
707.0007	0.0065
707.1815	0.0045
707.3621	0.0069
707.5428	0.0009
707.7235	0.0007
707.9041	0.0027
708.0847	-0.0063
708.2653	-0.0027
708.4459	-0.0117
708.6265	0.0003
708.807	0.0016
708.9875	-0.0097
709.168	-0.0073
709.3485	-0.0057
709.529	-0.0097
709.7095	-0.0155
709.8899	-0.0056
710.0703	-0.012
710.2507	-0.0059
710.4311	-0.0059
710.6115	-0.0098
710.7918	-0.0046
710.9721	-0.0055
711.1524	-0.0033
711.3327	0.002
711.513	0.0055
711.6932	0.0051
711.8735	0.0139
712.0537	0.0087
712.2339	0.0087
712.4141	-0.0033
712.5942	0.0037
712.7744	0.0033
712.9545	-0.0047
713.1346	-0.0047
713.3147	-0.0027
713.4947	0.0019
713.6748	-0.007
713.8548	0.0032
714.0348	-0.002
714.2148	-0.0083
714.3948	0.0099
714.5748	-0.005
714.7547	-0.0042
714.9346	0.0059
715.1145	-0.0046
715.2944	-0.0025
715.4743	-0.0018
715.6541	-0.0025
715.834	0.003
716.0138	-0.0016
716.1936	-0.0031
716.3733	-0.0027
716.5531	0.0087
716.7328	-0.0065
716.9126	-0.0022
717.0923	0.0069
717.2719	0.0006
717.4516	0.0043
717.6312	0.0174
717.8109	-0.0032
717.9905	0.0103
718.1701	-0.0051
718.3496	-0.0056
718.5292	0.0031
718.7087	-0.0033
718.8882	0.0081
719.0677	0.0047
719.2472	0.0004
719.4267	-0.0004
719.6061	0.0038
719.7856	0.0025
719.965	0.0076
720.1443	0.0044
720.3237	0.0165
720.5031	-0.0001
720.6824	0.0041
720.8617	0.0016
721.041	-0.0029
721.2203	0.0091
721.3995	0.001
721.5788	-0.0024
721.758	0.0073
721.9372	0.0032
722.1164	0.0036
722.2956	-0.0043
722.4747	0.0027
722.6538	-0.0097
722.8329	0.0071
723.012	0.0056
723.1911	0.0005
723.3702	0.0017
723.5492	-0.0002
723.7282	-0.0055
723.9072	-0.0026
724.0862	-0.0045
724.2652	-0.0069
724.4441	-0.0001
724.623	-0.0036
724.8019	-0.0069
724.9808	0.0047
725.1597	-0.0052
725.3385	0.0153
725.5174	0.0066
725.6962	0.0008
725.875	0.0015
726.0538	0.0023
726.2325	-0.0024
726.4112	0.0025
726.59	-0.0052
726.7687	-0.002
726.9474	0.0114
727.126	0.0036
727.3047	-0.0056
727.4833	0.0044
727.6619	-0.0063
727.8405	-0.0028
728.0191	0.0083
728.1976	0.0042
728.3762	-0.0068
728.5547	0.0013
728.7332	-0.0055
728.9116	0.0023
729.0901	0.0057
729.2686	-0.0054
729.447	-0.0096
729.6254	-0.0074
729.8038	-0.0042
729.9821	-0.007
730.1605	0.0039
730.3388	-0.0036
730.5171	-0.0005
730.6954	-0.0018
730.8737	0.0019
731.0519	0.0016
731.2302	-0.0013
731.4084	0.0016
731.5866	-0.0008
731.7648	0.0019
731.9429	0.0007
732.1211	-0.0057
732.2992	-0.0019
732.4773	-0.0036
732.6554	-0.002
732.8335	-0.0029
733.0115	0.0031
733.1896	-0.0005
733.3676	-0.0049
733.5456	0.0069
733.7235	0.0136
733.9015	0.0002
734.0794	0.0062
734.2574	-0.0039
734.4353	0.0024
734.6131	0.0078
734.791	0.0021
734.9689	-0.0016
735.1467	0.009
735.3245	-0.0074
735.5023	-0.0036
735.68	-0.0028
735.8578	0.011
736.0355	-0.019
736.2132	-0.0064
736.3909	-0.0001
736.5686	-0.01
736.7463	0.0012
736.9239	-0.0069
737.1015	-0.0069
737.2791	0.0063
737.4567	-0.0011
737.6343	0.0002
737.8118	-0.0001
737.9894	0.0032
738.1669	-0.0142
738.3444	-0.0053
738.5218	0.0052
738.6993	0.0037
738.8767	-0.0016
739.0541	0.0035
739.2315	-0.0137
739.4089	-0.0013
739.5863	0.0055
739.7636	-0.0094
739.9409	-0.0034
740.1182	-0.0017
740.2955	0.0097
740.4728	0.0039
740.65	-0.0067
740.8272	-0.0077
741.0044	-0.0106
741.1816	0.0036
741.3588	-0.0006
741.5359	-0.0001
741.7131	-0.0064
741.8902	0.0006
742.0673	0.0051
742.2444	-0.016
742.4214	-0.008
742.5985	-0.0056
742.7755	-0.0025
742.9525	-0.0114
743.1295	0.0048
743.3064	-0.0007
743.4834	0.0015
743.6603	-0.0008
743.8372	-0.0043
744.0141	0.0021
744.191	-0.0029
744.3678	0.0028
744.5446	0.0053
744.7215	-0.0006
744.8982	-0.0057
745.075	-0.0104
745.2518	0.0042
745.4285	0.0011
745.6052	-0.0159
745.7819	-0.0098
745.9586	-0.0106
746.1353	-0.0038
746.3119	-0.0145
746.4885	-0.0143
746.6651	-0.0086
746.8417	-0.0137
747.0183	-0.0049
747.1948	-0.0132
747.3714	-0.009
747.5479	-0.0065
747.7244	-0.0119
747.9008	-0.0046
748.0773	-0.0026
748.2537	-0.0064
748.4301	-0.0187
748.6065	-0.0035
748.7829	-0.0068
748.9593	-0.0142
749.1356	-0.0066
749.3119	0.0014
749.4882	-0.015
749.6645	0.0009
749.8408	-0.0076
750.017	-0.0033
750.1933	-0.0008
750.3695	-0.0077
750.5457	0.0036
750.7218	-0.0043
750.898	-0.0031
751.0741	-0.0031
751.2502	-0.0027
751.4263	-0.0043
751.6024	0.0011
751.7784	-0.0064
751.9545	-0.0141
752.1305	-0.0035
752.3065	-0.0065
752.4825	0.0048
752.6584	-0.0099
752.8344	-0.0053
753.0103	-0.0081
753.1862	-0.0149
753.3621	-0.0078
753.5379	-0.0164
753.7138	-0.0042
753.8896	0.0043
754.0654	0.0089
754.2412	0.0055
754.417	0.0006
754.5927	-0.0078
754.7685	0.0008
754.9442	0.0021
755.1199	0.0061
755.2956	-0.0009
755.4712	0.013
755.6469	0.0093
755.8225	-0.0069
755.9981	-0.0045
756.1736	0
756.3492	0.0163
756.5248	0.0007
756.7003	0.0054
756.8758	0.0143
757.0513	-0.0074
757.2267	-0.0017
757.4022	0.0054
757.5776	-0.0021
757.753	0.0039
757.9284	0.0025
758.1038	0.0064
758.2791	-0.0021
758.4545	-0.0156
758.6298	-0.0026
758.8051	0.0097
758.9803	0.0013
759.1556	-0.0033
759.3308	-0.0086
759.506	0.0095
759.6812	0.0022
759.8564	0.0051
760.0316	0.0018
760.2067	0.0045
760.3819	0.0065
760.557	0.0169
760.732	-0.0056
760.9071	-0.0085
761.0821	0.0063
761.2572	0.0108
761.4322	-0.0032
761.6072	-0.0021
761.7821	-0.0013
761.9571	0.0079
762.132	0.0026
762.3069	-0.0052
762.4818	-0.0108
762.6567	-0.0056
762.8316	-0.0025
763.0064	-0.001
763.1812	0.003
763.356	-0.0157
763.5308	0.0012
763.7055	-0.0001
763.8803	-0.0055
764.055	-0.0005
764.2297	-0.0058
764.4044	-0.0036
764.579	-0.0131
764.7537	-0.0195
764.9283	0.0015
765.1029	-0.0061
765.2775	-0.0147
765.4521	-0.0178
765.6266	-0.003
765.8011	-0.0155
765.9756	-0.0051
766.1501	0.0069
766.3246	-0.0089
766.4991	-0.0093
766.6735	-0.0052
766.8479	-0.0151
767.0223	-0.0033
767.1967	-0.0028
767.371	-0.0039
767.5454	-0.0025
767.7197	-0.0101
767.894	-0.0074
768.0683	-0.0187
768.2425	-0.0053
768.4168	-0.0138
768.591	0.0003
768.7652	-0.0041
768.9394	-0.0049
769.1135	-0.0013
769.2877	-0.0007
769.4618	-0.007
769.6359	-0.0081
769.81	0.0085
769.984	-0.0084
770.1581	-0.0025
770.3321	-0.0059
770.5061	-0.0059
770.6801	-0.0056
770.8541	-0.0028
771.028	-0.0052
771.202	0.0021
771.3759	0.0042
771.5498	-0.006
771.7236	0.0085
771.8975	-0.0097
772.0713	0.0049
772.2451	0.0015
772.4189	0.0108
772.5927	0.0037
772.7665	-0.0034
772.9402	-0.009
773.1139	-0.0028
773.2876	-0.0063
773.4613	0.005
773.635	-0.0041
773.8086	-0.0116
773.9822	-0.0023
774.1558	0.0054
774.3294	-0.0149
774.503	-0.0067
774.6765	0.0027
774.8501	0.0078
775.0236	-0.0023
775.1971	0.0128
775.3705	-0.0026
775.544	0.0075
775.7174	-0.0114
775.8908	-0.0046
776.0642	-0.0088
776.2376	-0.0028
776.4109	-0.0209
776.5843	0.0019
776.7576	0.0044
776.9309	0.0055
777.1041	0.0034
777.2774	0.0096
777.4506	-0.0054
777.6238	-0.0113
777.797	-0.0021
777.9702	-0.002
778.1434	-0.0103
778.3165	-0.0131
778.4896	-0.0102
778.6627	-0.0045
778.8358	0.0032
779.0089	-0.012
779.1819	-0.0225
779.3549	0.0004
779.5279	0.002
779.7009	-0.0065
779.8739	-0.006
780.0468	-0.0065
780.2197	-0.0012
780.3926	-0.0078
780.5655	-0.0057
780.7384	-0.0072
780.9112	-0.0138
781.0841	-0.0135
781.2569	-0.0135
781.4297	0.0031
781.6024	-0.0006
781.7752	0.0013
781.9479	0.0006
782.1206	-0.0016
782.2933	-0.0244
782.466	0.0044
782.6386	0.0063
782.8113	-0.001
782.9839	0.0023
783.1565	0.0102
783.329	0.0033
783.5016	0.0043
783.6741	-0.0023
783.8466	-0.0015
784.0191	0.0159
784.1916	0.0014
784.3641	-0.0031
784.5365	0.0077
784.7089	-0.0056
784.8813	-0.0129
785.0537	0.0149
785.2261	-0.0114
785.3984	-0.0198
785.5707	-0.0031
785.743	-0.0086
785.9153	-0.0069
786.0876	-0.0054
786.2598	-0.018
786.432	-0.0152
786.6042	0.0065
786.7764	-0.0139
786.9486	-0.0092
787.1207	-0.0191
787.2928	-0.0024
787.4649	0.0025
787.637	0
787.8091	-0.0126
787.9811	-0.0057
788.1532	-0.0003
788.3252	0.0041
788.4972	-0.0095
788.6691	0.0002
788.8411	-0.0029
789.013	-0.0087
789.1849	-0.005
789.3568	-0.0097
789.5287	-0.0021
789.7005	-0.0003
789.8723	-0.0058
790.0442	0.0193
790.2159	-0.0121
790.3877	0.0017
790.5595	-0.0228
790.7312	0.0096
790.9029	0.0062
791.0746	-0.0006
791.2463	-0.0031
791.4179	-0.0047
791.5896	-0.0129
791.7612	-0.0065
791.9328	-0.0034
792.1044	-0.008
792.2759	-0.0059
792.4474	-0.0099
792.619	-0.003
792.7905	0.0042
792.9619	0.0056
793.1334	0.0009
793.3048	0.0116
793.4762	0.0006
793.6476	0.0033
793.819	-0.013
793.9904	-0.007
794.1617	-0.008
794.333	-0.0016
794.5043	-0.0114
794.6756	-0.0024
794.8469	-0.0101
795.0181	-0.0124
795.1893	-0.0021
795.3605	0.0075
795.5317	-0.001
795.7029	-0.0073
795.874	-0.0047
796.0452	0.0017
796.2163	0.003
796.3873	0.0193
796.5584	0.0102
796.7294	0.0065
796.9005	0.0093
797.0715	0.0039
797.2425	-0.0164
797.4134	0.0046
797.5844	0.0076
797.7553	-0.005
797.9262	-0.0089
798.0971	-0.009
798.2679	0.0017
798.4388	-0.0235
798.6096	-0.0115
798.7804	0.0044
798.9512	-0.0088
799.122	-0.0147
799.2927	-0.0025
799.4635	-0.0011
799.6342	-0.0043
799.8049	-0.0122
799.9755	-0.0113
800.1462	-0.0153
800.3168	-0.0025
800.4874	0.006
800.658	-0.0015
800.8286	0.0109
800.9991	0.0018
801.1696	0.0008
801.3402	0.0093
801.5106	0.0066
801.6811	0.0064
801.8516	0.0072
802.022	0.0108
802.1924	0.0008
802.3628	0.0149
802.5332	0.012
802.7035	0.0182
802.8739	-0.0075
803.0442	-0.003
803.2145	0.0268
803.3847	-0.0131
803.555	-0.0023
803.7252	-0.0214
803.8954	-0.0214
804.0656	-0.0215
804.2358	-0.008
804.4059	-0.0118
804.5761	-0.0119
804.7462	0.0005
804.9163	-0.0035
805.0864	-0.0174
805.2564	-0.0056
805.4264	0.0143
805.5965	-0.0095
805.7665	0.0043
805.9364	0.01
806.1064	0.0382
806.2763	0.003
806.4462	0.0326
806.6161	-0.0085
806.786	0.0196
806.9559	-0.0043
807.1257	-0.0071
807.2955	-0.0016
807.4653	-0.0086
807.6351	-0.0126
807.8048	-0.0032
807.9746	0.0079
808.1443	-0.0086
808.314	-0.0026
808.4837	-0.0081
808.6533	-0.0021
808.8229	0.0197
808.9926	0.0013
809.1622	0.0107
809.3317	-0.0141
809.5013	-0.0057
809.6708	0.0079
809.8403	0.0141
810.0098	-0.0125
810.1793	0.0018
810.3488	0.0135
810.5182	-0.02
810.6876	-0.0124
810.857	-0.017
811.0264	0.021
811.1958	-0.0023
811.3651	0.005
811.5344	-0.0071
811.7037	-0.0002
811.873	-0.0096
812.0422	-0.0122
812.2115	-0.0174
812.3807	-0.011
812.5499	0.0098
812.7191	-0.0085
812.8882	0.0072
813.0574	-0.0084
813.2265	-0.0038
813.3956	-0.0128
813.5646	-0.0168
813.7337	-0.0032
813.9027	0.0041
814.0718	-0.0013
814.2407	0
814.4097	0.0031
814.5787	-0.0137
814.7476	-0.0048
814.9165	-0.0025
815.0854	-0.0017
815.2543	0.0099
815.4232	-0.0018
815.592	-0.0083
815.7608	-0.0151
815.9296	0.0056
816.0984	0.0098
816.2671	-0.0272
816.4359	-0.0252
816.6046	-0.0153
816.7733	-0.0211
816.942	-0.019
817.1106	0.0206
817.2793	0.0137
817.4479	-0.02
817.6165	-0.007
817.785	-0.0121
817.9536	-0.0164
818.1221	-0.0256
818.2906	-0.0085
818.4591	-0.0106
818.6276	-0.0287
818.7961	-0.0072
818.9645	0.0057
819.1329	0.0037
819.3013	0.0038
819.4697	0.0032
819.638	-0.0125
819.8064	0.0069
819.9747	0.0366
820.143	-0.0018
820.3113	-0.0083
820.4795	0
820.6477	0.0183
820.816	0.0124
820.9842	0.0154
821.1523	0.0091
821.3205	0.0043
821.4886	-0.0057
821.6567	0.0153
821.8248	0.0246
821.9929	-0.0102
822.1609	-0.0067
822.329	0.0397
822.497	0.0363
822.665	-0.0132
822.833	-0.0317
823.0009	-0.0085
823.1688	-0.0033
823.3367	0.0196
823.5046	-0.0011
823.6725	0.0101
823.8404	-0.0078
824.0082	0.0028
824.176	0.0149
824.3438	0.0077
824.5116	-0.0284
824.6793	-0.0153
824.847	-0.0221
825.0147	0.0056
825.1824	0.0159
825.3501	-0.0166
825.5177	-0.0109
825.6854	0.0149
825.853	0.0017
826.0206	-0.0488
826.1881	0.0154
826.3557	-0.0148
826.5232	0.0155
826.6907	-0.0228
826.8582	-0.0067
827.0257	-0.0476
827.1931	-0.0009
827.3605	-0.015
827.528	0.0028
827.6953	-0.0054
827.8627	-0.0064
828.03	0.0287
828.1974	-0.0179
828.3647	-0.0546
828.532	0.0223
828.6992	-0.0044
828.8665	-0.0113
829.0337	0.0051
829.2009	0.0081
829.3681	0.0104
829.5352	0.0346
829.7024	-0.04
829.8695	-0.0462
830.0366	0.0058
830.2037	0.0011
830.3707	0.0187
830.5378	-0.0422
830.7048	-0.0149
830.8718	-0.0243
831.0388	-0.0017
831.2057	-0.011
831.3727	0.0358
831.5396	0.0023
831.7065	-0.0229
831.8734	0.0038
832.0402	-0.0203
832.2071	-0.0149
832.3739	-0.0199
832.5407	0.0006
832.7075	-0.0231
832.8742	-0.0232
833.041	-0.0052
833.2077	0.0068
833.3744	0.0108
833.541	-0.0006
833.7077	-0.0284
833.8743	-0.0327
834.0409	-0.0226
834.2075	-0.0575
834.3741	-0.0061
834.5407	-0.0031
834.7072	-0.0112
834.8737	-0.0162
835.0402	-0.0053
835.2067	-0.0104
835.3731	0.0505
835.5395	-0.0069
835.706	-0.0006
835.8723	-0.0291
836.0387	0.0089
836.2051	-0.0096
836.3714	-0.0167
836.5377	0.0397
836.704	-0.0349
836.8703	0.0263
837.0365	0.0037
837.2027	-0.0067
837.3689	0.0141
837.5351	0.0016
837.7013	-0.0174
837.8674	-0.0352
838.0335	-0.0499
838.1997	0.0025
838.3657	-0.0568
838.5318	-0.0436
838.6978	0.0353
838.8639	-0.0007
839.0299	0.035
839.1958	-0.0323
839.3618	-0.0033
839.5277	0.0018
839.6937	-0.0193
839.8596	0.0028
840.0254	0.0178
840.1913	0.0326
840.3571	-0.0392
840.523	0.0041
840.6888	-0.0147
840.8545	-0.0261
841.0203	0.0134
841.186	0.0114
841.3517	0.0165
841.5174	0.0036
841.6831	0.0313
841.8488	0.0298
842.0144	0.0084
842.18	-0.0043
842.3456	-0.0165
842.5112	-0.0139
842.6767	-0.0096
842.8422	-0.0063
843.0077	-0.0091
843.1732	-0.0431
843.3387	0.0442
843.5042	-0.0368
843.6696	-0.0199
843.835	0.0385
844.0004	0.0344
844.1657	0.0154
844.3311	-0.0648
844.4964	-0.0459
844.6617	-0.0076
844.827	-0.0147
844.9923	0.0164
845.1575	0.0233
845.3227	-0.0235
845.4879	-0.024
845.6531	-0.0815
845.8183	-0.0891
845.9834	-0.0073
846.1485	-0.071
846.3136	-0.0558
846.4787	-0.0414
846.6438	0.0884
846.8088	0.0378
846.9738	-0.0401
847.1388	0.0415
847.3038	-0.043
847.4687	-0.2094
847.6337	-0.0038
847.7986	0.0136
847.9635	-0.0551
848.1284	0.0416
848.2932	0.0457
848.458	-0.0466
848.6228	0.0547
848.7876	0.0801
848.9524	-0.033
849.1172	-0.0767
849.2819	-0.0054
849.4466	-0.0941
849.6113	-0.1203
849.7759	-0.0117
849.9406	0.0036
850.1052	0.0184
850.2698	-0.0362
850.4344	-0.1133
850.599	-0.0499
850.7635	0.0826
850.928	-0.0673
851.0925	-0.0437
851.257	0.0391
851.4215	-0.0059
851.5859	-0.0396
851.7503	0.042
851.9147	-0.0223
852.0791	-0.0681
852.2434	-0.1465
852.4078	0.088
852.5721	0.0389
852.7364	-0.0694
852.9007	-0.1393
853.0649	-0.0916
853.2291	0.0312
853.3934	-0.0478
853.5575	0.0262
853.7217	-0.1362
853.8859	-0.0388
854.05	-0.1428
854.2141	-0.0693
854.3782	0.0147
854.5423	-0.0323
854.7063	0.0806
854.8703	0.0114
855.0343	0.0098
855.1983	-0.1612
855.3623	0.0421
855.5262	0.0286
855.6901	0.0202
855.854	-0.0039
856.0179	-0.046
856.1818	0.0765
856.3456	-0.0993
856.5094	-0.0562
856.6732	-0.145
856.837	0.004
857.0008	0.2633
857.1645	-0.0923
857.3282	-0.1549
857.4919	0.3273
857.6556	-0.1078
857.8192	0.017
857.9828	-0.0352
858.1465	-0.0682
858.31	-0.1631
858.4736	-0.0747
858.6372	-0.3331
858.8007	-0.0736
858.9642	-0.0553
859.1277	0.0184
859.2911	-0.0476
859.4546	-0.0989
859.618	-0.4247
859.7814	-0.0738
859.9448	-0.0824
860.1081	0.1659
860.2715	0.1417
860.4348	-0.1263
860.5981	-0.0771
860.7614	0.1346
860.9246	-0.2286
861.0879	-0.0467
861.2511	0.0389
861.4143	-0.2667
861.5774	0.0567
861.7406	0.1422
861.9037	0.1032
862.0668	-0.0615
862.2299	0.0383
862.393	-0.5221
862.556	-0.0468
862.7191	-0.1295
862.8821	-0.2655
863.0451	-0.0513
863.208	0.2178
863.371	-0.0041
863.5339	0.0491
863.6968	0.0997
863.8597	-0.2318
864.0225	-0.0392
864.1854	-0.1503
864.3482	0.2142
864.511	0.0322
864.6737	0.1209
864.8365	0.0082
864.9992	-0.3345
865.1619	0.6237
865.3246	0.0159
865.4873	0.2286
865.65	-0.2043
865.8126	0.309
865.9752	0.0774
866.1378	-0.4243
866.3004	0.213
866.4629	0.1424
866.6254	-0.2414
866.7879	0.1623
866.9504	-0.379
867.1129	-0
867.2753	-0.0199
867.4377	0.1181
867.6001	-0.0144
867.7625	0.3451
867.9249	-0.0462
868.0872	-0.1197
868.2495	0.0253
868.4118	-0.3068
868.5741	-0.484
868.7363	-0.1794
868.8986	-0.247
869.0608	-0.2242
869.223	0.0208
869.3851	-0
869.5473	-0
869.7094	0.2271
869.8715	-0
870.0336	-0
870.1957	-0.5736
870.3577	-0
870.5197	-0.0855
870.6817	-0.2194
870.8437	-0.1406
871.0057	-0
871.1676	-0
871.3295	-0
871.4914	-0
871.6533	-0.3828
871.8151	-0.3239
871.977	-0
872.1388	-0
872.3006	-0
872.4623	-0
872.6241	0.1764
872.7858	-0
872.9475	-0.2281
873.1092	-0.0389
873.2709	-0.0615
873.4325	-0.1706
873.5941	0.2638
873.7557	-0
873.9173	0.1219
874.0789	-0.5094
874.2404	-0
874.4019	0.5211
874.5634	-0.1573
874.7249	0.0929
874.8863	0.4144
875.0478	0.1146
875.2092	-0
875.3706	0.2818
875.5319	-1.0035
875.6933	-0
875.8546	-0.381
876.0159	0.0206
876.1772	-0.0013
876.3385	-0
876.4997	0.0524
876.6609	-0.1737
876.8221	-0.5083
876.9833	0.1407
877.1445	-0
877.3056	0.1078
877.4667	-0.0681
877.6278	-0
877.7889	-0.5951
877.9499	-0
878.111	-0.7195
878.272	-0
878.433	-0
878.5939	-0
878.7549	-0.3506
878.9158	-0.7032
879.0767	-0
879.2376	-0
879.3984	-0
879.5593	-0
879.7201	0.2555
879.8809	-0.6657
880.0417	-0.0764
880.2024	0.0265
880.3632	-0
880.5239	0.2479
880.6846	1.2148
880.8452	-2.723
881.0059	-0
881.1665	0.3524
881.3271	-0
881.4877	-0.5736
881.6483	-0.2799
881.8088	-0.3284
881.9693	-0
882.1298	-0
882.2903	-0
