Data from MonoPyChalIsomerACN10uM350nmA_Absorbance_14-35-37-815.txt Node
Date: Fri Jul 05 14:35:37 BST 2024
User: LASERRRRR
Spectrometer: FLMT03099
Trigger mode: 0
Integration Time (sec): 1.000000E-1
Scans to average: 1
Electric dark correction enabled: true
Nonlinearity correction enabled: false
Boxcar width: 0
XAxis mode: Wavelengths
Number of Pixels in Spectrum: 3648
>>>>>Begin Spectral Data<<<<<
179.3399	-0.2982
179.5586	-0.2982
179.7771	-0.2982
179.9957	-0.0213
180.2143	-0.0166
180.4329	-0
180.6514	-0
180.8699	-0
181.0885	-0.0974
181.307	-0.0737
181.5255	-0
181.744	-0
181.9625	-0
182.181	-1.2626
182.3994	0.1256
182.6179	1.6767
182.8363	0.0927
183.0547	-0.1335
183.2732	0.0061
183.4916	0.2236
183.71	0.3587
183.9284	0.2323
184.1467	-0.0535
184.3651	-0.0881
184.5835	-0.0242
184.8018	0.0326
185.0201	0.0949
185.2385	0.2342
185.4568	0.1745
185.6751	-0.1181
185.8934	0.5682
186.1117	0.0709
186.3299	0.0167
186.5482	0.5009
186.7664	-0.0881
186.9847	0.0163
187.2029	0.1816
187.4211	0.0972
187.6393	0.3387
187.8575	0.111
188.0757	0.3213
188.2939	0.0807
188.512	-0.0272
188.7302	0.0089
188.9483	0.3195
189.1665	0.3098
189.3846	-0
189.6027	0.1532
189.8208	0.2501
190.0389	0.3123
190.257	0.2122
190.475	0.3602
190.6931	0.4976
190.9111	0.4634
191.1292	0.3624
191.3472	0.5527
191.5652	0.2684
191.7832	0.0402
192.0012	1.17
192.2192	0.2354
192.4371	0.6067
192.6551	0.4672
192.873	0.4672
193.091	0.3426
193.3089	0.6118
193.5268	0.3946
193.7447	0.8041
193.9626	0.4537
194.1805	0.6372
194.3984	0.7107
194.6162	0.7339
194.8341	0.5931
195.0519	0.6792
195.2697	1.0045
195.4875	0.6667
195.7054	0.7284
195.9231	0.6947
196.1409	0.55
196.3587	0.7419
196.5765	0.5686
196.7942	0.5613
197.012	0.5195
197.2297	0.7018
197.4474	0.5975
197.6651	0.5243
197.8828	0.6228
198.1005	0.5847
198.3182	0.5087
198.5358	0.7033
198.7535	0.5709
198.9711	0.5578
199.1888	0.708
199.4064	0.9096
199.624	0.6469
199.8416	0.5493
200.0592	0.5512
200.2767	0.6789
200.4943	0.6595
200.7119	0.757
200.9294	0.7021
201.1469	0.7501
201.3645	0.5434
201.582	0.6468
201.7995	0.8481
202.017	0.5936
202.2344	0.6122
202.4519	0.7648
202.6694	0.5689
202.8868	0.7908
203.1042	0.8579
203.3217	0.7891
203.5391	0.7382
203.7565	0.6104
203.9739	0.6209
204.1913	0.5772
204.4086	0.6376
204.626	0.745
204.8433	0.6971
205.0607	0.6051
205.278	0.595
205.4953	0.6514
205.7126	0.6863
205.9299	0.692
206.1472	0.6788
206.3644	0.5696
206.5817	0.6573
206.7989	0.6942
207.0162	0.598
207.2334	0.6872
207.4506	0.6092
207.6678	0.7406
207.885	0.7083
208.1022	0.6552
208.3194	0.6368
208.5365	0.6574
208.7537	0.6909
208.9708	0.5914
209.1879	0.6077
209.405	0.7131
209.6222	0.6854
209.8392	0.7038
210.0563	0.6467
210.2734	0.6555
210.4905	0.5745
210.7075	0.584
210.9245	0.5848
211.1416	0.7012
211.3586	0.6167
211.5756	0.5736
211.7926	0.6352
212.0096	0.5733
212.2265	0.5405
212.4435	0.5987
212.6604	0.6149
212.8774	0.5403
213.0943	0.6404
213.3112	0.5465
213.5281	0.5103
213.745	0.5232
213.9619	0.5017
214.1788	0.4484
214.3956	0.4659
214.6125	0.4978
214.8293	0.4769
215.0461	0.4753
215.2629	0.4463
215.4798	0.4574
215.6965	0.4356
215.9133	0.41
216.1301	0.3958
216.3469	0.4414
216.5636	0.4134
216.7803	0.3842
216.9971	0.3885
217.2138	0.4055
217.4305	0.377
217.6472	0.3509
217.8639	0.3816
218.0805	0.3464
218.2972	0.3199
218.5138	0.3732
218.7305	0.3072
218.9471	0.3088
219.1637	0.2695
219.3803	0.2852
219.5969	0.291
219.8135	0.2366
220.0301	0.2802
220.2466	0.2528
220.4632	0.2606
220.6797	0.2332
220.8962	0.2439
221.1127	0.264
221.3292	0.2397
221.5457	0.2373
221.7622	0.2437
221.9787	0.272
222.1951	0.2329
222.4116	0.2523
222.628	0.2428
222.8444	0.2876
223.0608	0.2487
223.2772	0.2459
223.4936	0.2486
223.71	0.2427
223.9264	0.267
224.1427	0.2403
224.3591	0.2302
224.5754	0.2607
224.7917	0.2538
225.008	0.2606
225.2243	0.2683
225.4406	0.2987
225.6569	0.2606
225.8732	0.2559
226.0894	0.2541
226.3057	0.274
226.5219	0.2946
226.7381	0.2799
226.9543	0.2856
227.1705	0.2885
227.3867	0.2773
227.6029	0.3147
227.8191	0.2943
228.0352	0.3017
228.2513	0.3113
228.4675	0.3087
228.6836	0.2969
228.8997	0.2984
229.1158	0.2974
229.3319	0.3215
229.548	0.3216
229.764	0.3187
229.9801	0.3363
230.1961	0.3225
230.4121	0.3328
230.6282	0.3331
230.8442	0.3126
231.0602	0.3436
231.2761	0.3648
231.4921	0.3541
231.7081	0.3463
231.924	0.3327
232.14	0.3582
232.3559	0.3256
232.5718	0.3775
232.7877	0.3551
233.0036	0.3324
233.2195	0.3493
233.4353	0.3667
233.6512	0.3825
233.867	0.3619
234.0829	0.3576
234.2987	0.3715
234.5145	0.3722
234.7303	0.3697
234.9461	0.3863
235.1619	0.3803
235.3776	0.3728
235.5934	0.3781
235.8091	0.3715
236.0249	0.3914
236.2406	0.3901
236.4563	0.381
236.672	0.3994
236.8877	0.4084
237.1034	0.3889
237.319	0.3689
237.5347	0.3957
237.7503	0.3891
237.966	0.4162
238.1816	0.3929
238.3972	0.4033
238.6128	0.3923
238.8284	0.4169
239.0439	0.4073
239.2595	0.4099
239.475	0.3964
239.6906	0.4415
239.9061	0.3928
240.1216	0.404
240.3371	0.4003
240.5526	0.408
240.7681	0.4235
240.9836	0.4093
241.199	0.3891
241.4145	0.3837
241.6299	0.3618
241.8453	0.4003
242.0607	0.389
242.2761	0.3533
242.4915	0.3508
242.7069	0.3518
242.9223	0.3622
243.1376	0.3282
243.353	0.3647
243.5683	0.3343
243.7836	0.323
243.9989	0.3393
244.2142	0.3114
244.4295	0.3198
244.6448	0.3197
244.86	0.3071
245.0753	0.3115
245.2905	0.2852
245.5057	0.2856
245.721	0.2795
245.9362	0.2688
246.1514	0.2776
246.3665	0.253
246.5817	0.2572
246.7969	0.2438
247.012	0.2479
247.2271	0.2463
247.4423	0.2439
247.6574	0.2407
247.8725	0.2392
248.0876	0.219
248.3026	0.2298
248.5177	0.2159
248.7328	0.2145
248.9478	0.2104
249.1628	0.2119
249.3779	0.2189
249.5929	0.1888
249.8079	0.2202
250.0228	0.1991
250.2378	0.1992
250.4528	0.2068
250.6677	0.1746
250.8827	0.205
251.0976	0.193
251.3125	0.1963
251.5274	0.1681
251.7423	0.188
251.9572	0.192
252.172	0.1847
252.3869	0.1864
252.6017	0.1775
252.8166	0.1829
253.0314	0.1629
253.2462	0.1755
253.461	0.1726
253.6758	0.1693
253.8906	0.191
254.1053	0.1721
254.3201	0.1584
254.5348	0.1773
254.7496	0.1863
254.9643	0.1595
255.179	0.1681
255.3937	0.1713
255.6083	0.1754
255.823	0.1665
256.0377	0.1662
256.2523	0.1699
256.467	0.1538
256.6816	0.1713
256.8962	0.1655
257.1108	0.1547
257.3254	0.1737
257.54	0.1657
257.7545	0.1734
257.9691	0.1716
258.1836	0.1623
258.3981	0.1753
258.6127	0.1688
258.8272	0.1693
259.0417	0.1685
259.2561	0.1671
259.4706	0.1602
259.6851	0.1574
259.8995	0.1646
260.114	0.1699
260.3284	0.1678
260.5428	0.1616
260.7572	0.1646
260.9716	0.1583
261.186	0.1666
261.4003	0.166
261.6147	0.1669
261.829	0.1681
262.0433	0.1626
262.2577	0.1666
262.472	0.1698
262.6863	0.156
262.9005	0.1675
263.1148	0.1657
263.3291	0.1467
263.5433	0.1639
263.7576	0.1764
263.9718	0.1687
264.186	0.1595
264.4002	0.1659
264.6144	0.1475
264.8286	0.1711
265.0427	0.1718
265.2569	0.1608
265.471	0.1627
265.6851	0.1553
265.8993	0.1645
266.1134	0.1514
266.3275	0.1624
266.5415	0.1607
266.7556	0.1715
266.9697	0.1667
267.1837	0.1831
267.3978	0.1633
267.6118	0.175
267.8258	0.1627
268.0398	0.1452
268.2538	0.1711
268.4677	0.1723
268.6817	0.1497
268.8957	0.1627
269.1096	0.1624
269.3235	0.1692
269.5374	0.1545
269.7514	0.1578
269.9652	0.1501
270.1791	0.1367
270.393	0.1446
270.6068	0.1562
270.8207	0.1421
271.0345	0.1507
271.2483	0.1519
271.4622	0.1497
271.676	0.1539
271.8897	0.1446
272.1035	0.1364
272.3173	0.1392
272.531	0.1547
272.7448	0.1579
272.9585	0.1461
273.1722	0.1486
273.3859	0.146
273.5996	0.1432
273.8133	0.1522
274.0269	0.1472
274.2406	0.1405
274.4542	0.1419
274.6679	0.1359
274.8815	0.1514
275.0951	0.1451
275.3087	0.1518
275.5223	0.1608
275.7358	0.1531
275.9494	0.1443
276.1629	0.1373
276.3765	0.1428
276.59	0.1474
276.8035	0.1597
277.017	0.1484
277.2305	0.1432
277.444	0.1527
277.6574	0.1453
277.8709	0.1525
278.0843	0.1332
278.2978	0.1497
278.5112	0.1306
278.7246	0.1578
278.938	0.1558
279.1513	0.1492
279.3647	0.1551
279.5781	0.1366
279.7914	0.1434
280.0047	0.1615
280.2181	0.1602
280.4314	0.1545
280.6447	0.1585
280.8579	0.1467
281.0712	0.1507
281.2845	0.1556
281.4977	0.1545
281.711	0.1474
281.9242	0.1412
282.1374	0.1529
282.3506	0.1547
282.5638	0.1635
282.7769	0.1507
282.9901	0.1449
283.2033	0.1683
283.4164	0.1586
283.6295	0.1489
283.8426	0.1547
284.0557	0.1705
284.2688	0.1679
284.4819	0.1574
284.695	0.1572
284.908	0.1613
285.1211	0.1526
285.3341	0.1594
285.5471	0.1581
285.7601	0.1562
285.9731	0.1624
286.1861	0.1481
286.3991	0.1668
286.612	0.1623
286.825	0.1659
287.0379	0.1669
287.2508	0.1556
287.4637	0.1588
287.6766	0.1634
287.8895	0.17
288.1024	0.1814
288.3152	0.1699
288.5281	0.1537
288.7409	0.1639
288.9538	0.1645
289.1666	0.1648
289.3794	0.1685
289.5922	0.1564
289.8049	0.1636
290.0177	0.1653
290.2304	0.1672
290.4432	0.1789
290.6559	0.1629
290.8686	0.1702
291.0813	0.1698
291.294	0.1547
291.5067	0.171
291.7194	0.1703
291.932	0.1711
292.1447	0.1693
292.3573	0.1577
292.5699	0.1551
292.7825	0.184
292.9951	0.1692
293.2077	0.165
293.4203	0.1658
293.6328	0.1584
293.8454	0.173
294.0579	0.1625
294.2704	0.1677
294.4829	0.1522
294.6954	0.1629
294.9079	0.1689
295.1204	0.162
295.3328	0.1698
295.5453	0.1635
295.7577	0.1622
295.9701	0.1569
296.1825	0.1661
296.3949	0.1678
296.6073	0.1541
296.8197	0.157
297.0321	0.1728
297.2444	0.1643
297.4567	0.1649
297.6691	0.1618
297.8814	0.1544
298.0937	0.1647
298.306	0.169
298.5182	0.1645
298.7305	0.1705
298.9428	0.1772
299.155	0.1667
299.3672	0.1624
299.5794	0.1656
299.7916	0.1628
300.0038	0.1676
300.216	0.1811
300.4282	0.1696
300.6403	0.1602
300.8525	0.162
301.0646	0.1604
301.2767	0.1666
301.4888	0.1637
301.7009	0.1743
301.913	0.1643
302.125	0.1571
302.3371	0.1603
302.5491	0.1589
302.7612	0.1617
302.9732	0.1651
303.1852	0.1656
303.3972	0.1641
303.6092	0.1668
303.8211	0.1608
304.0331	0.1608
304.245	0.1523
304.457	0.1521
304.6689	0.1496
304.8808	0.1639
305.0927	0.1482
305.3046	0.1546
305.5164	0.1654
305.7283	0.1478
305.9401	0.1439
306.152	0.1442
306.3638	0.1494
306.5756	0.1521
306.7874	0.1472
306.9992	0.1469
307.2109	0.1361
307.4227	0.1269
307.6344	0.1384
307.8462	0.1438
308.0579	0.1313
308.2696	0.122
308.4813	0.1274
308.693	0.1346
308.9046	0.1284
309.1163	0.1238
309.328	0.1255
309.5396	0.1218
309.7512	0.1229
309.9628	0.1142
310.1744	0.1322
310.386	0.128
310.5976	0.1238
310.8091	0.1229
311.0207	0.1119
311.2322	0.1321
311.4437	0.1137
311.6552	0.1146
311.8667	0.1188
312.0782	0.1087
312.2897	0.1078
312.5012	0.1183
312.7126	0.1078
312.924	0.1014
313.1355	0.1108
313.3469	0.1151
313.5583	0.1119
313.7696	0.1104
313.981	0.1069
314.1924	0.0995
314.4037	0.1091
314.6151	0.1147
314.8264	0.1021
315.0377	0.0997
315.249	0.1124
315.4603	0.1254
315.6716	0.1064
315.8828	0.0963
316.0941	0.1035
316.3053	0.1003
316.5165	0.108
316.7277	0.106
316.9389	0.114
317.1501	0.0911
317.3613	0.0977
317.5724	0.0893
317.7836	0.0993
317.9947	0.1034
318.2058	0.0992
318.417	0.0946
318.6281	0.0907
318.8391	0.0939
319.0502	0.0979
319.2613	0.1102
319.4723	0.101
319.6834	0.1037
319.8944	0.0864
320.1054	0.0974
320.3164	0.1112
320.5274	0.0973
320.7383	0.0996
320.9493	0.0984
321.1602	0.1101
321.3712	0.0944
321.5821	0.1125
321.793	0.0951
322.0039	0.0969
322.2148	0.1043
322.4257	0.0963
322.6365	0.1112
322.8474	0.1108
323.0582	0.0928
323.269	0.0995
323.4798	0.108
323.6906	0.1069
323.9014	0.1081
324.1122	0.0901
324.3229	0.0975
324.5337	0.1057
324.7444	0.0898
324.9551	0.1079
325.1658	0.1059
325.3765	0.0998
325.5872	0.1078
325.7979	0.1112
326.0085	0.1039
326.2192	0.1054
326.4298	0.1105
326.6404	0.1022
326.851	0.095
327.0616	0.1018
327.2722	0.1119
327.4828	0.1107
327.6933	0.1036
327.9039	0.1171
328.1144	0.1145
328.3249	0.1085
328.5354	0.106
328.7459	0.1054
328.9564	0.1115
329.1669	0.1053
329.3773	0.1037
329.5878	0.107
329.7982	0.1083
330.0086	0.0993
330.219	0.1143
330.4294	0.095
330.6398	0.1017
330.8502	0.1001
331.0605	0.1109
331.2708	0.1076
331.4812	0.1272
331.6915	0.109
331.9018	0.1109
332.1121	0.1063
332.3224	0.1104
332.5326	0.1181
332.7429	0.1076
332.9531	0.1205
333.1633	0.1194
333.3735	0.1141
333.5837	0.1133
333.7939	0.0992
334.0041	0.129
334.2143	0.1091
334.4244	0.1067
334.6346	0.0918
334.8447	0.1151
335.0548	0.1048
335.2649	0.1087
335.475	0.1132
335.685	0.1081
335.8951	0.1145
336.1051	0.1133
336.3152	0.1333
336.5252	0.1196
336.7352	0.1185
336.9452	0.1166
337.1552	0.1205
337.3652	0.1095
337.5751	0.1158
337.7851	0.1255
337.995	0.1072
338.2049	0.1175
338.4148	0.1175
338.6247	0.1064
338.8346	0.1157
339.0445	0.1087
339.2543	0.1243
339.4642	0.1174
339.674	0.1038
339.8838	0.1262
340.0936	0.1188
340.3034	0.115
340.5132	0.1253
340.7229	0.121
340.9327	0.1084
341.1424	0.1166
341.3522	0.1384
341.5619	0.1201
341.7716	0.1244
341.9813	0.1364
342.1909	0.1172
342.4006	0.1368
342.6102	0.1381
342.8199	0.1274
343.0295	0.1199
343.2391	0.1297
343.4487	0.1455
343.6583	0.1314
343.8679	0.1303
344.0774	0.1283
344.287	0.1271
344.4965	0.1224
344.706	0.1409
344.9155	0.1284
345.125	0.13
345.3345	0.138
345.544	0.1223
345.7534	0.12
345.9629	0.1153
346.1723	0.1355
346.3817	0.1236
346.5911	0.124
346.8005	0.1364
347.0099	0.1385
347.2193	0.1404
347.4286	0.1278
347.638	0.1337
347.8473	0.1356
348.0566	0.1404
348.2659	0.1356
348.4752	0.1411
348.6845	0.1303
348.8937	0.1308
349.103	0.1457
349.3122	0.1323
349.5214	0.1248
349.7306	0.1349
349.9398	0.134
350.149	0.1416
350.3582	0.1346
350.5674	0.1532
350.7765	0.1397
350.9856	0.1298
351.1948	0.1407
351.4039	0.1301
351.613	0.1408
351.822	0.1549
352.0311	0.1568
352.2402	0.1391
352.4492	0.1593
352.6582	0.1545
352.8672	0.1564
353.0762	0.1561
353.2852	0.1515
353.4942	0.1414
353.7032	0.1578
353.9121	0.1549
354.1211	0.1551
354.33	0.1581
354.5389	0.1578
354.7478	0.1494
354.9567	0.1514
355.1655	0.14
355.3744	0.1596
355.5833	0.155
355.7921	0.1782
356.0009	0.1566
356.2097	0.1744
356.4185	0.1563
356.6273	0.1584
356.8361	0.1662
357.0448	0.1536
357.2536	0.1528
357.4623	0.1609
357.671	0.1602
357.8797	0.1629
358.0884	0.1624
358.2971	0.161
358.5057	0.1615
358.7144	0.1762
358.923	0.1533
359.1316	0.1774
359.3402	0.1693
359.5488	0.1744
359.7574	0.1683
359.966	0.1741
360.1746	0.1818
360.3831	0.1707
360.5916	0.1896
360.8002	0.1827
361.0087	0.1938
361.2172	0.1828
361.4256	0.1855
361.6341	0.1897
361.8426	0.1744
362.051	0.1814
362.2594	0.197
362.4678	0.1896
362.6762	0.1996
362.8846	0.1874
363.093	0.1953
363.3014	0.2018
363.5097	0.1812
363.718	0.1949
363.9264	0.1893
364.1347	0.1752
364.343	0.1947
364.5513	0.2004
364.7595	0.2035
364.9678	0.1959
365.176	0.2045
365.3842	0.1973
365.5925	0.1928
365.8007	0.2021
366.0089	0.1976
366.217	0.184
366.4252	0.2082
366.6333	0.2151
366.8415	0.1957
367.0496	0.211
367.2577	0.2193
367.4658	0.2259
367.6739	0.2208
367.882	0.2181
368.09	0.1984
368.2981	0.213
368.5061	0.1991
368.7141	0.2194
368.9221	0.2202
369.1301	0.2092
369.3381	0.2083
369.5461	0.223
369.754	0.2152
369.962	0.2349
370.1699	0.2202
370.3778	0.2319
370.5857	0.1957
370.7936	0.2308
371.0015	0.2125
371.2093	0.2214
371.4172	0.2199
371.625	0.2167
371.8328	0.2105
372.0406	0.22
372.2484	0.2121
372.4562	0.2312
372.664	0.222
372.8717	0.2337
373.0795	0.1843
373.2872	0.2276
373.4949	0.239
373.7026	0.2168
373.9103	0.2371
374.118	0.243
374.3256	0.2365
374.5333	0.2034
374.7409	0.2174
374.9485	0.2317
375.1561	0.2419
375.3637	0.2334
375.5713	0.2285
375.7789	0.2265
375.9864	0.2325
376.194	0.227
376.4015	0.2483
376.609	0.2458
376.8165	0.2454
377.024	0.2352
377.2315	0.2392
377.4389	0.2374
377.6464	0.2604
377.8538	0.2285
378.0612	0.2426
378.2686	0.2587
378.476	0.2605
378.6834	0.2527
378.8908	0.237
379.0981	0.2458
379.3055	0.2476
379.5128	0.2364
379.7201	0.2441
379.9274	0.2476
380.1347	0.2467
380.342	0.2515
380.5492	0.2603
380.7565	0.2449
380.9637	0.249
381.1709	0.2477
381.3781	0.2432
381.5853	0.2523
381.7925	0.2543
381.9997	0.248
382.2068	0.2696
382.4139	0.2675
382.6211	0.2469
382.8282	0.2427
383.0353	0.2503
383.2424	0.245
383.4494	0.2632
383.6565	0.264
383.8635	0.254
384.0706	0.2437
384.2776	0.2693
384.4846	0.252
384.6916	0.2682
384.8986	0.2405
385.1055	0.2579
385.3125	0.2563
385.5194	0.2538
385.7263	0.2657
385.9333	0.2488
386.1402	0.2461
386.347	0.2599
386.5539	0.2496
386.7608	0.2744
386.9676	0.2336
387.1744	0.2645
387.3813	0.2403
387.5881	0.2418
387.7948	0.2526
388.0016	0.2577
388.2084	0.253
388.4151	0.2501
388.6219	0.2623
388.8286	0.2485
389.0353	0.2522
389.242	0.2662
389.4487	0.2473
389.6553	0.2377
389.862	0.2231
390.0686	0.2642
390.2753	0.2444
390.4819	0.2439
390.6885	0.2355
390.8951	0.2395
391.1016	0.23
391.3082	0.2475
391.5147	0.2489
391.7213	0.2482
391.9278	0.2405
392.1343	0.2302
392.3408	0.2358
392.5473	0.2438
392.7537	0.2448
392.9602	0.229
393.1666	0.24
393.373	0.2218
393.5794	0.2397
393.7858	0.2521
393.9922	0.2265
394.1986	0.2359
394.4049	0.2234
394.6113	0.2187
394.8176	0.2211
395.0239	0.2164
395.2302	0.2178
395.4365	0.2337
395.6428	0.2286
395.8491	0.2207
396.0553	0.2223
396.2615	0.2166
396.4678	0.2068
396.674	0.2078
396.8802	0.2157
397.0863	0.2382
397.2925	0.209
397.4987	0.2206
397.7048	0.2187
397.9109	0.2168
398.117	0.2089
398.3231	0.2041
398.5292	0.216
398.7353	0.2231
398.9413	0.2101
399.1474	0.2149
399.3534	0.2274
399.5594	0.2079
399.7654	0.2226
399.9714	0.2291
400.1774	0.2173
400.3833	0.2073
400.5893	0.2101
400.7952	0.2128
401.0011	0.2035
401.207	0.2109
401.4129	0.2274
401.6188	0.2116
401.8247	0.2149
402.0305	0.2084
402.2364	0.211
402.4422	0.2205
402.648	0.2143
402.8538	0.224
403.0596	0.2046
403.2654	0.2203
403.4711	0.2108
403.6768	0.2099
403.8826	0.2312
404.0883	0.2132
404.294	0.2122
404.4997	0.2372
404.7054	0.2173
404.911	0.2134
405.1167	0.2102
405.3223	0.2146
405.5279	0.2083
405.7335	0.2188
405.9391	0.2338
406.1447	0.216
406.3502	0.2253
406.5558	0.2012
406.7613	0.2137
406.9668	0.2243
407.1724	0.2245
407.3778	0.2053
407.5833	0.2126
407.7888	0.2084
407.9942	0.2244
408.1997	0.2105
408.4051	0.2114
408.6105	0.2094
408.8159	0.2121
409.0213	0.2018
409.2267	0.2332
409.432	0.2187
409.6374	0.2229
409.8427	0.2185
410.048	0.2157
410.2533	0.2004
410.4586	0.1952
410.6639	0.1887
410.8691	0.1998
411.0744	0.212
411.2796	0.1984
411.4848	0.1939
411.69	0.2224
411.8952	0.2224
412.1004	0.2078
412.3056	0.2179
412.5107	0.1997
412.7158	0.2243
412.921	0.1956
413.1261	0.2064
413.3312	0.2049
413.5362	0.2024
413.7413	0.2172
413.9464	0.2103
414.1514	0.2132
414.3564	0.209
414.5614	0.2055
414.7664	0.2019
414.9714	0.2013
415.1764	0.2256
415.3813	0.2063
415.5863	0.216
415.7912	0.1913
415.9961	0.2106
416.201	0.216
416.4059	0.21
416.6108	0.1951
416.8156	0.2116
417.0205	0.194
417.2253	0.1813
417.4301	0.2152
417.6349	0.1979
417.8397	0.2038
418.0445	0.1941
418.2492	0.21
418.454	0.1961
418.6587	0.1974
418.8634	0.2069
419.0681	0.1981
419.2728	0.1927
419.4775	0.2014
419.6822	0.1912
419.8868	0.1933
420.0915	0.1878
420.2961	0.1732
420.5007	0.185
420.7053	0.1928
420.9099	0.1944
421.1144	0.1833
421.319	0.1829
421.5235	0.1897
421.728	0.2024
421.9325	0.2076
422.137	0.2046
422.3415	0.1803
422.546	0.19
422.7504	0.1818
422.9549	0.1879
423.1593	0.1997
423.3637	0.2057
423.5681	0.1737
423.7725	0.1779
423.9769	0.1669
424.1812	0.1718
424.3856	0.1627
424.5899	0.1766
424.7942	0.1942
424.9985	0.1819
425.2028	0.175
425.4071	0.1916
425.6113	0.1715
425.8156	0.1748
426.0198	0.1782
426.224	0.1736
426.4282	0.162
426.6324	0.1595
426.8366	0.1702
427.0407	0.1657
427.2449	0.1696
427.449	0.1716
427.6531	0.1536
427.8572	0.1438
428.0613	0.1592
428.2654	0.1609
428.4694	0.1775
428.6735	0.1587
428.8775	0.1561
429.0815	0.1676
429.2855	0.1535
429.4895	0.1622
429.6935	0.1649
429.8975	0.1666
430.1014	0.1417
430.3053	0.1371
430.5093	0.1353
430.7132	0.144
430.9171	0.1258
431.1209	0.1381
431.3248	0.1458
431.5286	0.1401
431.7325	0.142
431.9363	0.1188
432.1401	0.1445
432.3439	0.1344
432.5477	0.1155
432.7514	0.1194
432.9552	0.1191
433.1589	0.1083
433.3627	0.1226
433.5664	0.1048
433.7701	0.117
433.9737	0.1125
434.1774	0.1101
434.3811	0.1182
434.5847	0.1268
434.7883	0.1207
434.9919	0.117
435.1955	0.101
435.3991	0.1103
435.6027	0.1196
435.8062	0.1147
436.0098	0.1002
436.2133	0.1094
436.4168	0.09
436.6203	0.092
436.8238	0.106
437.0272	0.0961
437.2307	0.0922
437.4341	0.1089
437.6375	0.0994
437.841	0.0919
438.0443	0.1071
438.2477	0.0891
438.4511	0.0821
438.6545	0.0869
438.8578	0.1006
439.0611	0.0889
439.2644	0.0885
439.4677	0.0706
439.671	0.0738
439.8743	0.1022
440.0775	0.0832
440.2808	0.0857
440.484	0.0818
440.6872	0.0653
440.8904	0.0708
441.0936	0.0899
441.2967	0.0586
441.4999	0.0854
441.703	0.0646
441.9062	0.0683
442.1093	0.064
442.3124	0.062
442.5155	0.0502
442.7185	0.0656
442.9216	0.0336
443.1246	0.0699
443.3276	0.06
443.5307	0.0403
443.7337	0.0538
443.9366	0.0689
444.1396	0.0756
444.3426	0.0574
444.5455	0.0739
444.7484	0.0532
444.9513	0.0538
445.1542	0.0674
445.3571	0.0566
445.56	0.0541
445.7628	0.0459
445.9657	0.0395
446.1685	0.0418
446.3713	0.0436
446.5741	0.0417
446.7769	0.0453
446.9797	0.0444
447.1824	0.0337
447.3852	0.0368
447.5879	0.0569
447.7906	0.0506
447.9933	0.041
448.196	0.0224
448.3986	0.0335
448.6013	0.0319
448.8039	0.0239
449.0066	0.0255
449.2092	0.0494
449.4118	0.0347
449.6143	0.0441
449.8169	0.0287
450.0195	0.0238
450.222	0.0116
450.4245	0.0284
450.627	0.0407
450.8295	0.036
451.032	0.0294
451.2345	0.0177
451.4369	0.0411
451.6394	0.0175
451.8418	0.0087
452.0442	0.0085
452.2466	0.0326
452.449	0.022
452.6513	0.0245
452.8537	0.0175
453.056	0.0035
453.2583	0.0241
453.4607	0.0174
453.663	0.0194
453.8652	0.0263
454.0675	0.0168
454.2697	0.0228
454.472	0.0103
454.6742	0.0288
454.8764	0.0125
455.0786	0.0279
455.2808	0.0195
455.4829	0.0232
455.6851	0.0231
455.8872	0.0123
456.0893	0.0127
456.2915	0.0193
456.4935	0.0224
456.6956	0.0158
456.8977	0.0266
457.0997	-0.0077
457.3018	0.0043
457.5038	0.0176
457.7058	0.0106
457.9078	0.0141
458.1098	0.0193
458.3117	0.0238
458.5137	0.027
458.7156	0.0002
458.9175	0.0093
459.1194	0.0053
459.3213	0.0051
459.5232	0.0179
459.725	-0.0037
459.9269	0.004
460.1287	0.0063
460.3305	-0.0047
460.5323	0.0084
460.7341	0.0165
460.9359	0.0131
461.1376	0.0156
461.3394	0.0049
461.5411	0.0033
461.7428	0.0047
461.9445	0.0149
462.1462	0.0118
462.3479	0.002
462.5495	0.0057
462.7512	0.0169
462.9528	-0.0062
463.1544	-0.0008
463.356	-0.0088
463.5576	0.0029
463.7592	-0.017
463.9607	0.0125
464.1623	0.0196
464.3638	0.0113
464.5653	-0.0042
464.7668	0.0002
464.9683	0.008
465.1697	0.0175
465.3712	0.0019
465.5726	0.0058
465.7741	0.0111
465.9755	-0.0104
466.1769	0.0097
466.3782	0.0063
466.5796	-0.0121
466.7809	0.0088
466.9823	0.015
467.1836	0.001
467.3849	-0.0022
467.5862	0.001
467.7875	-0.0025
467.9887	0.0136
468.19	-0.0034
468.3912	-0.0074
468.5924	0.0007
468.7936	-0.0002
468.9948	-0.0111
469.196	0.0103
469.3972	-0.0074
469.5983	0.0046
469.7994	-0.0004
470.0006	0.0046
470.2017	-0.0199
470.4027	0.0019
470.6038	0.009
470.8049	-0.0089
471.0059	-0.0016
471.2069	-0.0252
471.408	-0.007
471.6089	-0.0043
471.8099	0.0079
472.0109	0.0076
472.2119	-0.0064
472.4128	-0.0052
472.6137	0.0132
472.8146	-0.0034
473.0155	-0.0062
473.2164	-0.0013
473.4173	0.0069
473.6181	0.0043
473.819	0.013
474.0198	0.0013
474.2206	0.012
474.4214	-0.0132
474.6222	0.0022
474.8229	-0.0128
475.0237	0.0033
475.2244	0.0032
475.4251	-0.006
475.6258	0.0022
475.8265	0.0033
476.0272	0.0127
476.2278	-0.0071
476.4285	0.0003
476.6291	-0.0135
476.8297	0.0132
477.0303	-0.0116
477.2309	0.0001
477.4315	-0.0087
477.632	-0.0156
477.8326	-0.0131
478.0331	0.0109
478.2336	0.0117
478.4341	-0.0062
478.6346	-0.0053
478.8351	-0.0007
479.0355	-0.0051
479.236	0.0082
479.4364	-0.0019
479.6368	-0.0052
479.8372	-0.011
480.0376	-0.0061
480.2379	-0.0089
480.4383	-0.0105
480.6386	0.009
480.8389	-0.0055
481.0392	-0.0052
481.2395	-0.0138
481.4398	0.0019
481.6401	0.0028
481.8403	0.0006
482.0405	-0.0071
482.2408	0.0003
482.441	0.0093
482.6411	0.0029
482.8413	-0.0037
483.0415	-0.0079
483.2416	-0.0007
483.4417	0.0001
483.6419	-0.0138
483.8419	0.0034
484.042	-0.0018
484.2421	0.01
484.4422	0.0057
484.6422	-0.0041
484.8422	-0.0003
485.0422	-0.0038
485.2422	0
485.4422	-0.0136
485.6422	-0.0084
485.8421	-0.0028
486.042	0.0089
486.242	-0.0027
486.4419	-0.0158
486.6417	-0.0114
486.8416	-0.0008
487.0415	0.0035
487.2413	-0.0116
487.4411	0.0014
487.641	-0.0066
487.8408	0.001
488.0405	-0.0093
488.2403	-0.004
488.4401	0.0054
488.6398	-0.0031
488.8395	-0.004
489.0392	0.0068
489.2389	-0.0021
489.4386	-0.014
489.6383	0.0026
489.8379	-0.0027
490.0376	-0.0036
490.2372	-0.0133
490.4368	-0.0178
490.6364	0.0008
490.836	-0.0073
491.0355	-0.0102
491.2351	-0.0049
491.4346	-0.0024
491.6341	-0.007
491.8336	0.0005
492.0331	-0.0099
492.2326	-0.0051
492.432	-0.0032
492.6315	-0.0103
492.8309	-0.0247
493.0303	-0.0126
493.2297	-0.0092
493.4291	-0.0071
493.6284	-0.0101
493.8278	0.0076
494.0271	0.0029
494.2264	-0.0013
494.4257	-0.011
494.625	0.0008
494.8243	-0.0153
495.0236	-0.0041
495.2228	0.0026
495.422	0.0062
495.6213	0.0059
495.8205	-0.0019
496.0196	-0.001
496.2188	0.0087
496.418	-0.0117
496.6171	-0.0018
496.8162	-0.0115
497.0153	0.0051
497.2144	-0.0169
497.4135	-0.0011
497.6126	-0.0127
497.8116	-0.0062
498.0107	-0.0056
498.2097	-0.0031
498.4087	-0.0107
498.6077	-0.0033
498.8067	-0.0146
499.0056	-0.0004
499.2046	-0.0129
499.4035	-0.0211
499.6024	0.0035
499.8013	-0.0053
500.0002	-0.0074
500.199	0.0019
500.3979	0.0037
500.5967	-0.0165
500.7956	-0.0006
500.9944	-0.0027
501.1932	-0.0083
501.3919	-0.0161
501.5907	-0.0092
501.7895	-0.0023
501.9882	-0.0096
502.1869	-0.014
502.3856	-0.0137
502.5843	-0.0079
502.783	-0.0045
502.9816	-0.0013
503.1803	-0.0118
503.3789	-0.0051
503.5775	-0.0023
503.7761	-0.0107
503.9747	-0.0088
504.1732	-0.0066
504.3718	0
504.5703	-0.007
504.7689	-0.0068
504.9674	0.0023
505.1658	-0.0083
505.3643	-0.0008
505.5628	-0.0098
505.7612	-0.0082
505.9597	-0.0029
506.1581	-0.0058
506.3565	0.0082
506.5549	-0.0067
506.7532	-0.0146
506.9516	-0.0065
507.1499	-0.0132
507.3482	-0.0026
507.5465	-0.0113
507.7448	-0.0007
507.9431	0.0005
508.1414	0.0013
508.3396	0.0011
508.5379	-0.007
508.7361	-0.0034
508.9343	-0.0072
509.1325	-0.0055
509.3306	-0.0078
509.5288	-0.0124
509.7269	-0.0064
509.9251	0.0057
510.1232	-0.0072
510.3213	0.0019
510.5193	0.0063
510.7174	-0.0118
510.9154	-0.0036
511.1135	-0.0028
511.3115	-0.0059
511.5095	-0.0025
511.7075	0.0037
511.9055	-0.0017
512.1034	-0.0032
512.3014	-0.0005
512.4993	0.0023
512.6972	-0.0031
512.8951	-0.0129
513.093	-0.01
513.2908	-0.0063
513.4887	-0.0025
513.6865	-0.001
513.8844	-0.0035
514.0822	-0.0079
514.2799	-0.0077
514.4777	-0.0169
514.6755	0.0007
514.8732	0.0024
515.0709	-0.0023
515.2687	-0.0049
515.4664	-0.0047
515.664	-0.0019
515.8617	-0.0058
516.0594	-0.006
516.257	0.0011
516.4546	-0.0174
516.6522	0.0064
516.8498	0.008
517.0474	-0.002
517.2449	0.0057
517.4425	-0.0152
517.64	-0.0054
517.8375	0.0005
518.035	0.002
518.2325	0.0009
518.43	-0.0048
518.6274	-0.008
518.8249	-0.0081
519.0223	-0.001
519.2197	-0.0011
519.4171	-0.0141
519.6145	-0.0034
519.8118	0.0016
520.0092	-0.0105
520.2065	-0.0123
520.4038	-0.0044
520.6011	-0.0075
520.7984	-0.0094
520.9956	-0.0052
521.1929	-0.0084
521.3901	0.0035
521.5874	-0
521.7846	-0.0066
521.9818	-0.0076
522.1789	-0.0099
522.3761	-0.0051
522.5732	0.0008
522.7704	0.0037
522.9675	-0.0038
523.1646	-0.0192
523.3617	-0.0052
523.5587	0.0023
523.7558	0.0002
523.9528	-0.0128
524.1498	-0.0004
524.3468	-0.0026
524.5438	-0.0087
524.7408	0.0019
524.9378	0.0017
525.1347	0.0015
525.3316	0.0053
525.5285	-0.01
525.7254	0.0009
525.9223	-0.0022
526.1192	-0.0095
526.316	-0.0092
526.5129	0.0104
526.7097	-0.0009
526.9065	-0.0059
527.1033	-0.0161
527.3	-0.0043
527.4968	-0.0044
527.6935	-0.0065
527.8903	-0.0165
528.087	-0.0073
528.2837	-0.0031
528.4804	0.0006
528.677	-0.004
528.8737	0.0059
529.0703	-0.0079
529.2669	-0.0113
529.4635	0.0039
529.6601	-0.0015
529.8567	0.0041
530.0532	-0.0102
530.2498	0.0074
530.4463	0.0081
530.6428	0.0003
530.8393	-0.0009
531.0358	0.0018
531.2322	-0.0065
531.4287	-0.0041
531.6251	-0.0066
531.8215	0.0143
532.0179	0.005
532.2143	0.0051
532.4107	0.0001
532.607	-0.0095
532.8034	-0.0061
532.9997	0.0011
533.196	-0.0063
533.3923	-0.0053
533.5886	0.0012
533.7848	0.0043
533.9811	-0.0027
534.1773	0.0009
534.3735	0.0112
534.5697	-0.0014
534.7659	-0.0039
534.9621	0.0015
535.1582	-0.0149
535.3544	-0.0074
535.5505	-0.0046
535.7466	0.0005
535.9427	0.0019
536.1387	-0.014
536.3348	-0.003
536.5308	0.0047
536.7269	-0.0113
536.9229	-0.0021
537.1189	0.0061
537.3148	-0.0057
537.5108	-0.0092
537.7068	0.003
537.9027	0.001
538.0986	-0.0074
538.2945	-0.0053
538.4904	-0.0029
538.6863	-0.0065
538.8821	-0.0106
539.078	0
539.2738	0.0001
539.4696	-0.0058
539.6654	-0
539.8611	0.006
540.0569	-0.0011
540.2526	-0.0034
540.4484	-0.0005
540.6441	0.0079
540.8398	-0.0004
541.0355	-0.0003
541.2311	-0.0018
541.4268	-0.0124
541.6224	-0.0024
541.818	0.0031
542.0136	-0.0104
542.2092	0.0011
542.4048	-0.0015
542.6003	0.0004
542.7959	-0.0016
542.9914	-0.0054
543.1869	0.0061
543.3824	-0.0034
543.5779	-0.0055
543.7734	-0.009
543.9688	-0.0064
544.1642	0.0033
544.3596	0.0018
544.555	-0.0086
544.7504	-0.001
544.9458	-0.0103
545.1411	-0.0048
545.3365	0.0042
545.5318	-0.0055
545.7271	0.0007
545.9224	-0.0049
546.1177	0.003
546.3129	0.0077
546.5081	-0.0032
546.7034	-0.0057
546.8986	-0.0074
547.0938	-0.0086
547.289	-0.002
547.4841	0.0015
547.6793	0.0121
547.8744	-0.007
548.0695	0.0031
548.2646	-0.0083
548.4597	0.0038
548.6548	-0.001
548.8498	0.0018
549.0448	0.0071
549.2399	-0.0065
549.4349	0.004
549.6298	-0.0004
549.8248	0.0003
550.0198	-0.0034
550.2147	-0.0048
550.4096	0.0029
550.6045	-0.0018
550.7994	0.0005
550.9943	0.002
551.1892	-0.0034
551.384	0.0051
551.5788	-0.0073
551.7737	0.0064
551.9685	-0.0044
552.1632	0.0032
552.358	0.0004
552.5528	-0.0053
552.7475	0.0024
552.9422	-0.0044
553.1369	-0.0013
553.3316	0.0124
553.5263	-0.0181
553.7209	0.0059
553.9156	0.0029
554.1102	0.0014
554.3048	-0.0039
554.4994	0.0097
554.694	0.0017
554.8885	-0.0031
555.0831	-0.0097
555.2776	-0.0012
555.4721	-0.0057
555.6666	-0.0077
555.8611	0.0102
556.0555	-0.0023
556.25	-0.0021
556.4444	-0.007
556.6388	0.0056
556.8332	-0.0043
557.0276	0.0018
557.222	-0.0053
557.4163	-0.0049
557.6107	-0.017
557.805	0.0097
557.9993	-0.0001
558.1936	0.0002
558.3879	-0.0029
558.5821	0.0038
558.7764	-0.004
558.9706	-0.0039
559.1648	0.0041
559.359	0.0014
559.5532	-0.0101
559.7473	0.0006
559.9415	-0.0034
560.1356	-0.0049
560.3297	-0.0112
560.5238	-0.0046
560.7179	-0.0021
560.9119	-0.0057
561.106	-0.0003
561.3	-0.01
561.494	0.0034
561.688	0.0027
561.882	-0.0082
562.076	-0.0143
562.2699	0.0008
562.4639	-0.0028
562.6578	0.0002
562.8517	0.0002
563.0456	-0.0058
563.2395	-0.0024
563.4333	0.0008
563.6272	0.0067
563.821	0.0028
564.0148	0.0048
564.2086	-0.0077
564.4024	-0.0017
564.5961	-0.0029
564.7899	-0.0039
564.9836	-0.0054
565.1773	0.0025
565.371	0.0112
565.5647	0.007
565.7584	-0.0043
565.952	-0.0013
566.1456	0.0006
566.3393	-0.0006
566.5329	-0.0035
566.7264	-0.0018
566.92	0.0016
567.1136	0.0014
567.3071	-0.0033
567.5006	0.0067
567.6941	0.0081
567.8876	0.0038
568.0811	-0.0032
568.2745	0.0082
568.468	0.0065
568.6614	0.0116
568.8548	-0.0097
569.0482	-0.0011
569.2416	0.0112
569.4349	0.0053
569.6283	0.009
569.8216	-0.0081
570.0149	-0.0005
570.2082	0.0123
570.4015	-0.0003
570.5947	0.0072
570.788	-0.0035
570.9812	0.0056
571.1744	-0.0003
571.3676	-0.0047
571.5608	-0.0037
571.754	0.0043
571.9471	-0.0031
572.1402	0.0048
572.3333	-0.0018
572.5264	-0.0043
572.7195	-0.0007
572.9126	-0.0028
573.1057	-0.0012
573.2987	0.0061
573.4917	0.0072
573.6847	-0.0015
573.8777	0.0039
574.0707	0.0087
574.2636	-0.0022
574.4566	-0.0077
574.6495	0.0038
574.8424	-0.0041
575.0353	-0.0072
575.2281	0.0087
575.421	0.0041
575.6138	0.0032
575.8067	-0.0001
575.9995	0.0017
576.1923	0.0126
576.385	0
576.5778	0.0002
576.7706	0.0033
576.9633	0.0034
577.156	0.0032
577.3487	-0.0013
577.5414	0.0027
577.734	-0.0056
577.9267	0.0034
578.1193	-0.0066
578.3119	-0.0006
578.5045	0.0017
578.6971	-0.0021
578.8897	0.0032
579.0822	0.0061
579.2747	0.0081
579.4673	-0.0047
579.6598	0.0013
579.8522	-0.0075
580.0447	-0.0026
580.2372	-0.0037
580.4296	0.0041
580.622	0.0008
580.8144	0.0043
581.0068	0.0011
581.1992	-0.0093
581.3915	-0.0062
581.5839	-0.0058
581.7762	-0.006
581.9685	-0.0002
582.1608	0.0017
582.353	-0.006
582.5453	-0.0032
582.7375	-0.002
582.9298	0.0066
583.122	-0.0024
583.3142	0.0044
583.5063	-0.0014
583.6985	0.0016
583.8906	-0.0012
584.0827	0.0043
584.2749	0.005
584.4669	0.0003
584.659	0.0021
584.8511	-0.0039
585.0431	-0.0047
585.2352	0.0024
585.4272	0.0052
585.6192	0.0078
585.8111	0.0074
586.0031	0.0013
586.195	-0.0016
586.387	0.0059
586.5789	-0.0003
586.7708	-0.0004
586.9627	0.001
587.1545	-0.005
587.3464	0.0029
587.5382	0.0019
587.73	0.0069
587.9218	0.0093
588.1136	0.0011
588.3053	0.0115
588.4971	0
588.6888	-0.0072
588.8805	0.002
589.0722	0.0053
589.2639	0.002
589.4556	-0.0005
589.6472	-0.0072
589.8389	-0.0056
590.0305	-0.0073
590.2221	0.0009
590.4137	-0.0051
590.6052	0.0051
590.7968	0.0003
590.9883	0.0044
591.1798	0.0046
591.3713	-0.0058
591.5628	-0.0013
591.7543	-0.0019
591.9458	0.0011
592.1372	0.006
592.3286	0.0099
592.52	0.0057
592.7114	-0.0029
592.9028	-0.0026
593.0941	-0.0056
593.2855	-0.0024
593.4768	-0.0056
593.6681	0.0032
593.8594	-0.0049
594.0506	0.0038
594.2419	0.0152
594.4331	0.0014
594.6244	0.0054
594.8156	-0.0037
595.0067	0.0034
595.1979	0.0049
595.3891	0.0013
595.5802	-0.0034
595.7713	-0.0049
595.9624	0.0005
596.1535	0.0051
596.3446	-0.0008
596.5357	-0.0015
596.7267	0.0106
596.9177	-0.003
597.1087	-0.002
597.2997	-0.0038
597.4907	0.0009
597.6817	-0.0026
597.8726	0.001
598.0635	-0.002
598.2544	0.0025
598.4453	-0.0005
598.6362	-0.0033
598.827	0.0027
599.0179	0.0077
599.2087	0.0043
599.3995	0.0057
599.5903	0.0022
599.7811	0.0011
599.9718	0.0056
600.1626	-0.0068
600.3533	-0.0091
600.544	0.0039
600.7347	-0.0026
600.9254	0.0009
601.116	-0.0133
601.3067	0.0007
601.4973	-0.0024
601.6879	0.0073
601.8785	-0.0012
602.0691	0.0054
602.2596	0.0018
602.4502	-0.0022
602.6407	0.0021
602.8312	-0.001
603.0217	-0.0012
603.2122	0.0034
603.4027	0.0025
603.5931	-0.0008
603.7835	0.0003
603.9739	-0.0024
604.1643	0.0047
604.3547	0.0013
604.5451	0.0022
604.7354	-0.001
604.9257	0.0099
605.116	-0.0047
605.3063	0.005
605.4966	0.0064
605.6869	0.0005
605.8771	0.0071
606.0673	0.0098
606.2575	0.0074
606.4477	0.01
606.6379	0.0104
606.8281	0.0002
607.0182	-0.0048
607.2083	0.0088
607.3985	-0.0048
607.5885	0.0036
607.7786	0.0065
607.9687	-0.0013
608.1587	0.0039
608.3488	0.0041
608.5388	0.0056
608.7288	0.0021
608.9187	-0.005
609.1087	-0
609.2986	-0.0018
609.4886	0.0074
609.6785	0.0087
609.8684	0.0048
610.0582	0.003
610.2481	0.0029
610.4379	0.0016
610.6278	-0.0058
610.8176	-0.0019
611.0074	0.0005
611.1971	-0.0067
611.3869	0.0013
611.5766	-0.0036
611.7664	0.0015
611.9561	0.0023
612.1458	0.0059
612.3354	-0.0061
612.5251	-0.0064
612.7147	0.0108
612.9044	-0.0001
613.094	-0.0087
613.2836	0.0055
613.4731	-0.0005
613.6627	-0.0027
613.8522	-0.0009
614.0417	0.0106
614.2313	-0.0048
614.4207	-0.0044
614.6102	-0.0014
614.7997	-0.0011
614.9891	-0.0034
615.1785	0.0019
615.3679	-0.0051
615.5573	0.0095
615.7467	0.0014
615.9361	-0.0017
616.1254	-0.003
616.3147	0.0055
616.504	0.0064
616.6933	0.0103
616.8826	0.0113
617.0718	0.0045
617.2611	0.0034
617.4503	0.003
617.6395	-0.0057
617.8287	-0.0035
618.0179	-0.0028
618.207	0.0045
618.3961	0.0054
618.5853	-0.0026
618.7744	0.0048
618.9634	0.0105
619.1525	0.0021
619.3416	-0.004
619.5306	0.0019
619.7196	0.006
619.9086	-0.0063
620.0976	0.0037
620.2866	0.0017
620.4755	0.0076
620.6645	0.0045
620.8534	0.0069
621.0423	0.0038
621.2312	0.0018
621.42	0.0049
621.6089	0.0054
621.7977	0.0112
621.9865	-0.0029
622.1753	0.0021
622.3641	0.0045
622.5529	0.009
622.7416	0.0075
622.9303	-0.0012
623.1191	0.0061
623.3078	0.0033
623.4964	-0.0006
623.6851	0.0039
623.8737	-0.0035
624.0624	0.0066
624.251	0.0034
624.4396	-0.0018
624.6282	0.0017
624.8167	0.0034
625.0053	0.007
625.1938	-0.004
625.3823	0.0017
625.5708	-0.001
625.7593	-0.0074
625.9477	0.0007
626.1362	-0.0012
626.3246	-0.0004
626.513	0.0059
626.7014	0.0077
626.8898	0.0031
627.0781	-0.0001
627.2665	-0.0048
627.4548	0.0164
627.6431	0.007
627.8314	0.0049
628.0197	0.0071
628.2079	-0.0014
628.3962	0.0013
628.5844	0.0109
628.7726	0.0054
628.9608	0.0042
629.1489	0.0071
629.3371	0.0037
629.5252	0.0001
629.7134	0.0093
629.9015	-0.0039
630.0895	0.0008
630.2776	0.0021
630.4657	0.0059
630.6537	0.0004
630.8417	-0.0024
631.0297	-0.0074
631.2177	-0.0014
631.4057	-0.0091
631.5936	-0.0017
631.7815	-0.0021
631.9695	0.0023
632.1574	0.008
632.3452	0.0037
632.5331	0.0068
632.7209	0.0023
632.9088	0.0046
633.0966	0.0124
633.2844	-0.0021
633.4722	0.007
633.6599	0.0117
633.8477	-0.0025
634.0354	0.0017
634.2231	-0.0007
634.4108	0.008
634.5985	0.0086
634.7861	0.0048
634.9738	-0.0034
635.1614	0.0057
635.349	0.0111
635.5366	0.0012
635.7242	0.008
635.9117	0.006
636.0993	0.0044
636.2868	0.0055
636.4743	0.0016
636.6618	0.01
636.8492	0.0016
637.0367	0.0045
637.2241	0
637.4115	-0.0016
637.5989	-0.0022
637.7863	0.0063
637.9737	-0.0021
638.161	-0.0025
638.3484	0.0031
638.5357	0.0063
638.723	-0.0004
638.9103	0.0007
639.0975	0.0058
639.2848	0.0037
639.472	-0.0028
639.6592	0.001
639.8464	0.0069
640.0336	0.0016
640.2208	0.0042
640.4079	-0.0024
640.595	0.0018
640.7821	0.0064
640.9692	-0.0031
641.1563	-0.0026
641.3434	0.0062
641.5304	-0.0053
641.7174	0.0009
641.9044	-0.0042
642.0914	0.0103
642.2784	0.0074
642.4653	0.0086
642.6523	0.0079
642.8392	0.0014
643.0261	0.0027
643.213	-0.0022
643.3999	-0.0021
643.5867	0.0017
643.7735	0
643.9604	-0.0045
644.1472	0.0012
644.3339	-0.0012
644.5207	0.0043
644.7075	0.0003
644.8942	0.0049
645.0809	0.012
645.2676	0.0131
645.4543	0.0102
645.6409	0.0075
645.8276	0.008
646.0142	0.0071
646.2008	-0.0001
646.3874	0.0034
646.574	0.001
646.7605	-0.0062
646.9471	-0.0032
647.1336	0.0082
647.3201	-0.0028
647.5066	-0.0036
647.6931	0.0056
647.8795	-0.0009
648.0659	0.0049
648.2524	0.0047
648.4388	-0.0072
648.6252	0.005
648.8115	-0.0029
648.9979	-0.0027
649.1842	0.0069
649.3705	0.0036
649.5568	0.005
649.7431	0.0152
649.9294	-0.0004
650.1156	0.0079
650.3018	-0.0019
650.488	0.0029
650.6742	0.0013
650.8604	0.0011
651.0466	-0.0038
651.2327	0.0047
651.4188	0.0032
651.6049	-0.0029
651.791	-0.0008
651.9771	0.0026
652.1632	0.0017
652.3492	-0.0036
652.5352	0.0052
652.7212	-0.0051
652.9072	0.0026
653.0932	0.0045
653.2791	-0.0039
653.465	0.0046
653.651	-0.0073
653.8369	0.0055
654.0227	-0.0017
654.2086	0.007
654.3944	0.0014
654.5803	0.0038
654.7661	-0.0034
654.9519	0.0026
655.1377	-0.0068
655.3234	-0.0028
655.5092	-0.0043
655.6949	-0.0062
655.8806	-0.0066
656.0663	0.0022
656.2519	0.0007
656.4376	0.0004
656.6232	0.0066
656.8088	0.0024
656.9945	0.003
657.18	0.001
657.3656	0.0048
657.5511	-0.0024
657.7367	-0.0014
657.9222	0.0052
658.1077	0.0031
658.2932	0.0011
658.4786	-0.013
658.6641	-0.0063
658.8495	-0.0049
659.0349	-0.0052
659.2203	0.0032
659.4057	0.0052
659.591	0.0036
659.7764	-0.0025
659.9617	0.0041
660.147	0.0013
660.3323	0.0038
660.5176	0.0072
660.7028	0.0061
660.888	0.003
661.0733	0.0042
661.2585	-0.0005
661.4436	0.0032
661.6288	0.0002
661.8139	-0.0023
661.9991	0.0098
662.1842	-0.0014
662.3693	-0.002
662.5544	-0.0048
662.7394	0.0013
662.9245	-0.0025
663.1095	-0.0003
663.2945	-0.0007
663.4795	0.0007
663.6644	0.0106
663.8494	0.0044
664.0343	0.0041
664.2193	-0.0024
664.4042	-0.0041
664.589	-0.0031
664.7739	-0.0059
664.9587	-0.0048
665.1436	0.0007
665.3284	-0.0016
665.5132	-0.0049
665.698	0.0034
665.8827	0.0041
666.0675	0.0016
666.2522	-0.006
666.4369	0.0024
666.6216	0.0101
666.8063	0.0032
666.9909	-0.0029
667.1756	-0.0013
667.3602	-0.0003
667.5448	-0.0069
667.7294	0.0063
667.9139	0.0005
668.0985	0.0092
668.283	0.001
668.4675	0.0019
668.652	0.0083
668.8365	0.0056
669.0209	0.0091
669.2054	0.0165
669.3898	0.0043
669.5742	0.008
669.7586	0.0047
669.943	0.0112
670.1273	0.0087
670.3117	0.0035
670.496	0.0015
670.6803	0.0036
670.8646	0.0042
671.0488	-0.0053
671.2331	0.0024
671.4173	0.0012
671.6015	-0.0048
671.7857	0.002
671.9699	0.0024
672.1541	0.0032
672.3382	0.0015
672.5223	0.0094
672.7064	0.0129
672.8905	0.0118
673.0746	0.0006
673.2587	0.0044
673.4427	0.0045
673.6267	-0.0005
673.8107	0.0069
673.9947	0.0044
674.1787	0.006
674.3626	-0.0029
674.5465	0.0088
674.7304	0.007
674.9143	0.0079
675.0982	0.0148
675.2821	-0.0002
675.4659	0.0079
675.6497	0.0063
675.8335	0.0014
676.0173	0.0005
676.2011	-0.0006
676.3849	-0.0007
676.5686	-0.0008
676.7523	0.0011
676.936	-0.0017
677.1197	-0.0055
677.3034	-0.0071
677.487	0.0061
677.6706	-0.0022
677.8542	0.0031
678.0378	0.0018
678.2214	0
678.405	0.0018
678.5885	-0.0117
678.772	0.0029
678.9555	-0.0036
679.139	-0.0022
679.3225	0.0012
679.5059	0.004
679.6894	0.0025
679.8728	-0.0013
680.0562	-0.0114
680.2395	-0.0021
680.4229	0.0057
680.6062	0.0015
680.7896	0.0072
680.9729	-0.0034
681.1562	0.0073
681.3394	0.009
681.5227	0.0029
681.7059	-0.0003
681.8891	0.0069
682.0723	0.013
682.2555	0.0043
682.4387	-0.0015
682.6218	0.0008
682.805	0.0071
682.9881	0.0106
683.1712	0.0049
683.3542	0.0014
683.5373	0.0106
683.7203	-0.0052
683.9034	0.0086
684.0864	-0.003
684.2694	-0.0034
684.4523	0.0001
684.6353	-0.0008
684.8182	-0.0005
685.0011	-0.0104
685.184	0.0014
685.3669	-0.0015
685.5498	0.0004
685.7326	0.0008
685.9154	-0.009
686.0982	0.0072
686.281	0.0061
686.4638	0.0032
686.6465	-0.0059
686.8293	-0.003
687.012	0.0047
687.1947	-0.0103
687.3774	0.0004
687.56	-0.0034
687.7427	-0.0042
687.9253	-0.0085
688.1079	0.0031
688.2905	0.0047
688.4731	0.0009
688.6556	0.0007
688.8382	-0.0018
689.0207	-0.001
689.2032	-0.0104
689.3857	-0.0046
689.5681	0.001
689.7506	0.0011
689.933	-0.0085
690.1154	0.0029
690.2978	-0.0007
690.4802	0.0028
690.6626	-0.0023
690.8449	-0.0023
691.0272	-0.0039
691.2095	-0.0048
691.3918	-0.0031
691.5741	0.0101
691.7563	0.0042
691.9386	-0.001
692.1208	0.0045
692.303	0.0047
692.4852	0.0054
692.6673	0.0111
692.8495	0.0019
693.0316	0.0052
693.2137	-0.0034
693.3958	0.0095
693.5778	0.0085
693.7599	-0.0022
693.9419	0.0072
694.1239	0.0007
694.3059	-0.0011
694.4879	0.0087
694.6699	0.0028
694.8518	0.0068
695.0337	0.0011
695.2157	0.0025
695.3975	0.0015
695.5794	-0.0027
695.7613	0.0066
695.9431	0.0018
696.1249	0.0067
696.3067	0.0101
696.4885	0.013
696.6703	0.0025
696.852	0.0096
697.0337	0.0113
697.2154	0.0012
697.3971	0.0065
697.5788	0.0029
697.7605	0.0027
697.9421	0.0074
698.1237	0.0056
698.3053	0.0077
698.4869	0.0055
698.6685	0.003
698.85	0.0048
699.0315	0.009
699.213	0.0036
699.3945	0.0086
699.576	0.0076
699.7575	0.0071
699.9389	0.0108
700.1203	0.0012
700.3017	-0.0051
700.4831	-0.008
700.6645	0.0008
700.8458	0.0082
701.0271	-0.0062
701.2084	0.0058
701.3897	-0.0041
701.571	0.0063
701.7523	-0.0082
701.9335	-0.0005
702.1147	0.0041
702.2959	-0.0015
702.4771	0.0045
702.6583	0.006
702.8394	-0.0061
703.0205	0.0011
703.2016	-0.002
703.3827	-0.0057
703.5638	0.0141
703.7449	0.0049
703.9259	0.0166
704.1069	-0.002
704.2879	0.0059
704.4689	0.0106
704.6499	-0.0009
704.8308	0.0022
705.0117	0.0037
705.1927	0.0094
705.3735	0.0069
705.5544	-0.0064
705.7353	0.003
705.9161	-0.0015
706.0969	-0.004
706.2777	0.0058
706.4585	-0.0055
706.6393	0
706.82	0.0003
707.0007	0.0065
707.1815	0.002
707.3621	0.0129
707.5428	0.0084
707.7235	0.0078
707.9041	-0.0007
708.0847	-0.0026
708.2653	-0.0031
708.4459	-0.0119
708.6265	-0.0005
708.807	-0.0017
708.9875	-0.0063
709.168	-0.0068
709.3485	-0.0027
709.529	-0.006
709.7095	-0.0093
709.8899	-0.0068
710.0703	-0.0101
710.2507	0.0008
710.4311	-0.0026
710.6115	-0.0109
710.7918	-0.0051
710.9721	-0.0028
711.1524	-0.0103
711.3327	0.0046
711.513	0.0084
711.6932	0.0051
711.8735	0.0061
712.0537	0.0049
712.2339	0.0088
712.4141	-0.0042
712.5942	0.0033
712.7744	0.0059
712.9545	-0.0031
713.1346	0.0022
713.3147	-0.004
713.4947	-0.0088
713.6748	-0.0015
713.8548	0.0042
714.0348	0.0032
714.2148	0.0017
714.3948	0.0106
714.5748	-0.0073
714.7547	-0.0072
714.9346	0.0064
715.1145	-0.0061
715.2944	-0.0031
715.4743	-0.0035
715.6541	-0.002
715.834	0.0038
716.0138	-0.0019
716.1936	-0.0032
716.3733	-0.0075
716.5531	0.0061
716.7328	-0.0008
716.9126	-0.0019
717.0923	0.0047
717.2719	0.0093
717.4516	0.0069
717.6312	0.0047
717.8109	-0
717.9905	0.0146
718.1701	-0.0012
718.3496	-0.0053
718.5292	0.0038
718.7087	0.0075
718.8882	0.0038
719.0677	0.0167
719.2472	-0.0042
719.4267	0.0065
719.6061	0.0057
719.7856	0.0111
719.965	0.0086
720.1443	0.0007
720.3237	0.0129
720.5031	-0.0007
720.6824	0.0059
720.8617	-0.0038
721.041	0.0025
721.2203	0.0086
721.3995	0.0047
721.5788	0.0122
721.758	0.0055
721.9372	0.0054
722.1164	0.0062
722.2956	0.0133
722.4747	-0.002
722.6538	0.0015
722.8329	0.0192
723.012	0.0013
723.1911	-0.0011
723.3702	-0.0018
723.5492	0.0028
723.7282	-0.0015
723.9072	0.0013
724.0862	-0.0065
724.2652	-0.0035
724.4441	-0.0064
724.623	-0.0102
724.8019	0.0011
724.9808	-0.0003
725.1597	-0.0062
725.3385	-0.0024
725.5174	0.0085
725.6962	-0.0015
725.875	-0.0066
726.0538	0.0076
726.2325	0
726.4112	0.0114
726.59	-0.0028
726.7687	-0.0037
726.9474	0.0113
727.126	0.0022
727.3047	-0.0067
727.4833	-0.001
727.6619	-0.0022
727.8405	-0.0099
728.0191	-0.0013
728.1976	-0.0013
728.3762	-0.0077
728.5547	-0.0039
728.7332	-0.0071
728.9116	-0.0095
729.0901	-0.0048
729.2686	-0.0004
729.447	-0.0055
729.6254	0.0027
729.8038	-0.0031
729.9821	-0.0131
730.1605	0.0014
730.3388	-0.0061
730.5171	0.0083
730.6954	-0.0075
730.8737	0.0002
731.0519	0.0049
731.2302	0.0048
731.4084	0.0069
731.5866	0.0087
731.7648	-0.0091
731.9429	-0.0013
732.1211	-0.0034
732.2992	0.0037
732.4773	-0.0052
732.6554	-0.0006
732.8335	0.0031
733.0115	0.001
733.1896	0.0083
733.3676	-0.0037
733.5456	0.0094
733.7235	0.0077
733.9015	0.0022
734.0794	-0.0022
734.2574	0.0068
734.4353	-0.0066
734.6131	0.0029
734.791	0.0017
734.9689	0.0065
735.1467	-0.0017
735.3245	-0.0063
735.5023	-0.0028
735.68	0.0026
735.8578	0.0055
736.0355	-0.0066
736.2132	-0.0009
736.3909	-0.0005
736.5686	-0.0082
736.7463	0.0028
736.9239	0.0002
737.1015	0.0027
737.2791	0.0092
737.4567	0.0064
737.6343	0.0021
737.8118	0.0032
737.9894	0.0037
738.1669	-0.005
738.3444	-0.0014
738.5218	0.0027
738.6993	-0.0027
738.8767	-0.0103
739.0541	0.0116
739.2315	-0.0031
739.4089	0.012
739.5863	0.0083
739.7636	-0.0038
739.9409	-0.0026
740.1182	-0.0028
740.2955	0.0096
740.4728	-0.0008
740.65	-0.0043
740.8272	-0.0123
741.0044	-0.0019
741.1816	0.0002
741.3588	-0.0091
741.5359	0.0007
741.7131	-0.0099
741.8902	-0.005
742.0673	0.0032
742.2444	-0.0064
742.4214	-0.0069
742.5985	0
742.7755	-0.0055
742.9525	-0.0132
743.1295	0.0079
743.3064	0.0043
743.4834	0.0024
743.6603	-0.0024
743.8372	-0.0039
744.0141	0.0016
744.191	0.0073
744.3678	-0.0048
744.5446	0.0012
744.7215	0.0009
744.8982	0.0001
745.075	-0.0047
745.2518	-0.0029
745.4285	-0.0029
745.6052	-0.0156
745.7819	-0.0039
745.9586	-0.0066
746.1353	-0.0112
746.3119	-0.0088
746.4885	-0.0105
746.6651	-0.0098
746.8417	-0.0075
747.0183	-0.0138
747.1948	-0.0072
747.3714	-0.0034
747.5479	-0.0043
747.7244	-0.014
747.9008	-0.0047
748.0773	-0.0069
748.2537	-0.0079
748.4301	-0.0119
748.6065	-0.0008
748.7829	-0.0013
748.9593	-0.0031
749.1356	-0.0119
749.3119	0.0011
749.4882	-0.0091
749.6645	0.0028
749.8408	-0.0047
750.017	-0.0045
750.1933	-0.0046
750.3695	-0.0088
750.5457	0.0052
750.7218	-0.0017
750.898	0.0101
751.0741	-0.0011
751.2502	0.0023
751.4263	-0.0062
751.6024	0.0004
751.7784	-0.002
751.9545	-0.0091
752.1305	-0.0029
752.3065	-0.0045
752.4825	-0.006
752.6584	-0.0059
752.8344	-0.0008
753.0103	-0.0088
753.1862	-0.0093
753.3621	-0.0041
753.5379	-0.0106
753.7138	-0.0002
753.8896	0.0013
754.0654	0.0059
754.2412	0.0083
754.417	0.0026
754.5927	-0.0089
754.7685	-0.0028
754.9442	0.0059
755.1199	0.0111
755.2956	0.0021
755.4712	0.0178
755.6469	0.003
755.8225	-0.0067
755.9981	0.0003
756.1736	0.0049
756.3492	0.0031
756.5248	0.0021
756.7003	0.0054
756.8758	0.0118
757.0513	-0.0119
757.2267	0.0016
757.4022	0.0122
757.5776	-0.0103
757.753	0.0064
757.9284	0.0058
758.1038	0.0028
758.2791	-0.0087
758.4545	-0.0155
758.6298	-0.0034
758.8051	-0.0032
758.9803	-0.0002
759.1556	0.0026
759.3308	-0.0028
759.506	0.008
759.6812	-0.0002
759.8564	0.0151
760.0316	-0.0007
760.2067	0.0139
760.3819	0.016
760.557	0.0187
760.732	0.0064
760.9071	-0.0092
761.0821	0.0034
761.2572	0.02
761.4322	-0.0033
761.6072	0.0014
761.7821	-0.0062
761.9571	0.01
762.132	-0.009
762.3069	-0.0032
762.4818	-0.0079
762.6567	0.0032
762.8316	-0.0098
763.0064	0.0071
763.1812	0.0043
763.356	0.0014
763.5308	-0.0086
763.7055	-0.005
763.8803	-0.0053
764.055	-0.0109
764.2297	0.0001
764.4044	-0.0027
764.579	-0.0138
764.7537	-0.0124
764.9283	-0.0018
765.1029	-0.0116
765.2775	-0.0068
765.4521	-0.0075
765.6266	-0.0067
765.8011	-0.0093
765.9756	-0.0057
766.1501	0.0033
766.3246	-0.0033
766.4991	-0.0056
766.6735	-0.0086
766.8479	-0.0136
767.0223	0.0042
767.1967	-0.0142
767.371	-0.0078
767.5454	-0.0118
767.7197	-0.0015
767.894	-0.0086
768.0683	-0.013
768.2425	-0.0016
768.4168	-0.0025
768.591	0.0021
768.7652	-0.0045
768.9394	-0.0057
769.1135	-0.001
769.2877	0.0048
769.4618	0.0026
769.6359	-0.0011
769.81	0.0029
769.984	0.0019
770.1581	-0.0082
770.3321	-0.0061
770.5061	0.0038
770.6801	-0.0014
770.8541	0.0084
771.028	0.01
771.202	-0.011
771.3759	0.0073
771.5498	-0.0036
771.7236	-0.0015
771.8975	0.0039
772.0713	0.0031
772.2451	0.0071
772.4189	0.008
772.5927	0.013
772.7665	0.011
772.9402	-0.0027
773.1139	-0.0065
773.2876	-0.0049
773.4613	-0.0008
773.635	0.0052
773.8086	-0.0163
773.9822	0.0033
774.1558	0.0036
774.3294	-0.0152
774.503	-0.0115
774.6765	-0.0087
774.8501	-0.0082
775.0236	0.0062
775.1971	0.0093
775.3705	-0.0067
775.544	0.0099
775.7174	-0.0216
775.8908	-0.0033
776.0642	-0.0075
776.2376	-0.0075
776.4109	-0.0032
776.5843	0.0019
776.7576	-0.0013
776.9309	0.0028
777.1041	0.0002
777.2774	0.0197
777.4506	0.006
777.6238	-0.0165
777.797	0.0021
777.9702	-0.0045
778.1434	-0.0048
778.3165	-0.0087
778.4896	-0.0052
778.6627	-0.0038
778.8358	0.0047
779.0089	-0.0035
779.1819	-0.0002
779.3549	0.0006
779.5279	0.0058
779.7009	0.001
779.8739	-0.0012
780.0468	-0.0132
780.2197	-0.0054
780.3926	0.0007
780.5655	-0.0014
780.7384	-0.0116
780.9112	-0.0074
781.0841	-0.0167
781.2569	0.0023
781.4297	-0.0038
781.6024	0.0045
781.7752	0.0072
781.9479	0.0071
782.1206	0.0093
782.2933	-0.015
782.466	-0.0023
782.6386	0.0041
782.8113	0.001
782.9839	0.0018
783.1565	0.008
783.329	0.0005
783.5016	0.0048
783.6741	0.0047
783.8466	0.0026
784.0191	0.0146
784.1916	-0.0053
784.3641	0.004
784.5365	-0.0006
784.7089	0.0011
784.8813	-0.0003
785.0537	0.001
785.2261	0.0035
785.3984	-0.0078
785.5707	-0.0016
785.743	-0.0017
785.9153	0.0015
786.0876	-0.0022
786.2598	-0.0002
786.432	-0.0118
786.6042	-0.0008
786.7764	-0.017
786.9486	-0.0047
787.1207	-0.0118
787.2928	0.0052
787.4649	-0.0085
787.637	0.0052
787.8091	0.0035
787.9811	-0.0009
788.1532	0.0149
788.3252	0.0023
788.4972	-0.0063
788.6691	-0.0087
788.8411	0.0002
789.013	-0.002
789.1849	0.0001
789.3568	0.0082
789.5287	-0.0007
789.7005	0.0008
789.8723	0.0004
790.0442	0.0107
790.2159	0.0007
790.3877	-0.0017
790.5595	-0.0188
790.7312	0.0043
790.9029	0.006
791.0746	-0.0172
791.2463	-0.001
791.4179	-0.0089
791.5896	-0.0055
791.7612	0.0023
791.9328	0.0144
792.1044	-0.0103
792.2759	-0.008
792.4474	-0.0102
792.619	-0.0112
792.7905	0.0137
792.9619	0.0039
793.1334	-0.0046
793.3048	-0.0034
793.4762	0.0068
793.6476	0.0015
793.819	-0.01
793.9904	0.0199
794.1617	-0.009
794.333	0.0077
794.5043	-0.0186
794.6756	-0.002
794.8469	-0.0062
795.0181	-0.0038
795.1893	-0.0062
795.3605	0.0147
795.5317	-0.0056
795.7029	0.0006
795.874	-0.0055
796.0452	0.0152
796.2163	0.0059
796.3873	0.0015
796.5584	0.0054
796.7294	0.0015
796.9005	0.0137
797.0715	0.0073
797.2425	0.0025
797.4134	0.0071
797.5844	0.001
797.7553	-0.0134
797.9262	0.011
798.0971	0.0014
798.2679	-0.0095
798.4388	-0.0304
798.6096	-0.0063
798.7804	0.0001
798.9512	-0.028
799.122	-0.008
799.2927	-0.0001
799.4635	0.0041
799.6342	-0.0314
799.8049	-0.0108
799.9755	-0.0079
800.1462	-0.0076
800.3168	0.003
800.4874	-0.003
800.658	0.0299
800.8286	-0.0026
800.9991	-0.0007
801.1696	0.008
801.3402	0.0011
801.5106	-0.0041
801.6811	0.0065
801.8516	0.0081
802.022	0.0228
802.1924	0.0024
802.3628	-0.0107
802.5332	0.0044
802.7035	0.0222
802.8739	-0.0087
803.0442	-0.0089
803.2145	0.0197
803.3847	-0.0288
803.555	0.0081
803.7252	-0.0099
803.8954	-0.0021
804.0656	-0.0111
804.2358	0.0054
804.4059	0.0161
804.5761	-0.0029
804.7462	0.003
804.9163	0.0078
805.0864	-0.0201
805.2564	-0.0008
805.4264	0.0025
805.5965	0.0062
805.7665	0.0132
805.9364	0.0105
806.1064	0.0259
806.2763	0.0035
806.4462	0.0204
806.6161	0.0077
806.786	0.0111
806.9559	0.0006
807.1257	0.001
807.2955	0.0074
807.4653	-0.0008
807.6351	0.003
807.8048	0.0041
807.9746	0.007
808.1443	0.0084
808.314	-0.0004
808.4837	0.0145
808.6533	-0.01
808.8229	0.0056
808.9926	0.0031
809.1622	0.015
809.3317	-0.0116
809.5013	-0.0031
809.6708	0.0006
809.8403	0.0255
810.0098	0.0029
810.1793	0.0085
810.3488	0.0082
810.5182	-0.0231
810.6876	-0.0169
810.857	-0.0288
811.0264	0.0385
811.1958	0.0252
811.3651	0.003
811.5344	0.0103
811.7037	-0.0118
811.873	-0.0071
812.0422	0.0195
812.2115	-0.0047
812.3807	-0.0232
812.5499	0.0056
812.7191	0.0102
812.8882	-0.0007
813.0574	-0.0188
813.2265	0.0034
813.3956	0.0111
813.5646	-0.0159
813.7337	-0.0076
813.9027	0.0218
814.0718	0.0119
814.2407	-0.0044
814.4097	-0.0035
814.5787	-0.0228
814.7476	-0.0074
814.9165	0.0117
815.0854	-0.0104
815.2543	-0.0201
815.4232	-0.0164
815.592	0.0139
815.7608	0.0058
815.9296	-0.0054
816.0984	-0.0182
816.2671	-0.006
816.4359	0.0032
816.6046	0.0122
816.7733	-0.0008
816.942	-0.0255
817.1106	0.0056
817.2793	0.0058
817.4479	-0.0047
817.6165	0.0206
817.785	-0.0169
817.9536	-0.0293
818.1221	-0.003
818.2906	0.0089
818.4591	-0.0015
818.6276	0.0012
818.7961	0.0002
818.9645	0.0136
819.1329	0.0185
819.3013	0.0281
819.4697	0.0098
819.638	-0.0012
819.8064	0.0126
819.9747	0.0176
820.143	-0.0174
820.3113	-0.0166
820.4795	0.0198
820.6477	-0.0002
820.816	-0.0166
820.9842	0.0031
821.1523	0.0034
821.3205	0.0002
821.4886	-0.0005
821.6567	0.0184
821.8248	0.0128
821.9929	0.0096
822.1609	-0.0142
822.329	0.0133
822.497	0.0174
822.665	-0.0069
822.833	0.0128
823.0009	0.0036
823.1688	-0.0032
823.3367	0.0357
823.5046	-0.0002
823.6725	0.0291
823.8404	-0.0002
824.0082	0.0105
824.176	0.0394
824.3438	0.0131
824.5116	0.0186
824.6793	0.0282
824.847	-0.018
825.0147	0.0054
825.1824	0.0295
825.3501	0.0042
825.5177	-0.0055
825.6854	-0.0024
825.853	-0.0023
826.0206	-0.0308
826.1881	0.0124
826.3557	-0.0299
826.5232	-0.0054
826.6907	-0.0209
826.8582	-0.0158
827.0257	-0.024
827.1931	0.0163
827.3605	0.0029
827.528	0.0035
827.6953	-0.0131
827.8627	-0.009
828.03	0.0163
828.1974	-0.0072
828.3647	-0.0513
828.532	-0.0027
828.6992	-0.0256
828.8665	0.0198
829.0337	-0.0058
829.2009	0.0186
829.3681	-0.0038
829.5352	0.0318
829.7024	-0.0304
829.8695	-0.0242
830.0366	0.0585
830.2037	0.0281
830.3707	0.0077
830.5378	-0.0231
830.7048	0.0215
830.8718	-0.0147
831.0388	-0.0172
831.2057	0.01
831.3727	0.0429
831.5396	0.0009
831.7065	-0.0031
831.8734	-0.0013
832.0402	-0.0109
832.2071	0.0313
832.3739	0.0143
832.5407	-0.0074
832.7075	0.0022
832.8742	-0.0183
833.041	-0.0324
833.2077	-0.0188
833.3744	0.0477
833.541	-0.0081
833.7077	-0.0362
833.8743	-0.0042
834.0409	-0.0015
834.2075	0.0218
834.3741	-0.0058
834.5407	0.0265
834.7072	0.01
834.8737	-0.0322
835.0402	-0.0264
835.2067	-0.0016
835.3731	0.0037
835.5395	0.0349
835.706	0.0141
835.8723	0.0106
836.0387	0.019
836.2051	0.0254
836.3714	-0.0003
836.5377	0.0052
836.704	-0.0385
836.8703	0.0177
837.0365	-0.0374
837.2027	-0.0469
837.3689	0.0128
837.5351	-0.0115
837.7013	-0.0417
837.8674	-0.0243
838.0335	-0.0372
838.1997	-0.0171
838.3657	-0.0004
838.5318	-0.0126
838.6978	0.0507
838.8639	0.0466
839.0299	0.0153
839.1958	-0.0135
839.3618	0.0188
839.5277	0.0021
839.6937	-0.0253
839.8596	-0.0516
840.0254	0.0105
840.1913	0.0251
840.3571	0.0084
840.523	0.0293
840.6888	-0.0508
840.8545	-0.0293
841.0203	0.0156
841.186	-0.0221
841.3517	0.0388
841.5174	0.0426
841.6831	-0.0134
841.8488	0.0142
842.0144	-0.0166
842.18	0.0307
842.3456	0.0266
842.5112	-0.0337
842.6767	-0.0015
842.8422	0.0191
843.0077	-0.0127
843.1732	-0.0109
843.3387	0.0063
843.5042	-0.0143
843.6696	-0.0054
843.835	-0.0164
844.0004	0.0153
844.1657	0.0035
844.3311	-0.0071
844.4964	-0.0273
844.6617	0.0305
844.827	-0.0641
844.9923	-0.0409
845.1575	0.0302
845.3227	0.0355
845.4879	0.0469
845.6531	-0.0709
845.8183	-0.0665
845.9834	-0.0177
846.1485	-0.0197
846.3136	-0.0217
846.4787	-0.0696
846.6438	0.0445
846.8088	-0.0281
846.9738	-0.015
847.1388	-0.041
847.3038	0.0193
847.4687	-0.1516
847.6337	0.0072
847.7986	0.002
847.9635	-0.048
848.1284	0.0062
848.2932	0.1422
848.458	0.0165
848.6228	0.0747
848.7876	0.0253
848.9524	-0.0194
849.1172	-0.0905
849.2819	0.0135
849.4466	-0.127
849.6113	-0.0097
849.7759	-0.0224
849.9406	0.0597
850.1052	0.1028
850.2698	0.0386
850.4344	0.0644
850.599	-0.0758
850.7635	0.0767
850.928	-0.0893
851.0925	-0.0142
851.257	0.0805
851.4215	-0.0082
851.5859	0.0674
851.7503	-0.0023
851.9147	0.0962
852.0791	-0.1622
852.2434	-0.0942
852.4078	0.097
852.5721	0.067
852.7364	-0.0343
852.9007	-0.206
853.0649	-0.0029
853.2291	-0.0183
853.3934	-0.0301
853.5575	0.0847
853.7217	0.0042
853.8859	-0.0592
854.05	-0.1245
854.2141	0.0145
854.3782	0.0043
854.5423	-0.0942
854.7063	0.0455
854.8703	-0.0229
855.0343	-0.0546
855.1983	-0.0968
855.3623	0.0245
855.5262	-0.0068
855.6901	0.0531
855.854	-0.066
856.0179	0.1032
856.1818	-0.0157
856.3456	0.0483
856.5094	-0.022
856.6732	-0.0441
856.837	-0.0299
857.0008	0.0957
857.1645	0.0364
857.3282	-0.0188
857.4919	0.0823
857.6556	0.1358
857.8192	0.0468
857.9828	0.0432
858.1465	0.0838
858.31	-0.1161
858.4736	-0.0564
858.6372	-0.2144
858.8007	-0.1971
858.9642	0.021
859.1277	-0.1327
859.2911	0.213
859.4546	0.0072
859.618	-0.2346
859.7814	-0.1335
859.9448	0.0245
860.1081	0.6675
860.2715	0.062
860.4348	-0.1567
860.5981	-0.0715
860.7614	0.1813
860.9246	0.0534
861.0879	-0.1839
861.2511	-0.126
861.4143	0.1004
861.5774	0.2174
861.7406	-0.1988
861.9037	-0.0506
862.0668	-0.0473
862.2299	-0.2148
862.393	-0.5254
862.556	-0.0266
862.7191	-0.2971
862.8821	-0.2315
863.0451	-0.0637
863.208	-0.0103
863.371	-0.0405
863.5339	-0.2487
863.6968	-0.0073
863.8597	-0.0381
864.0225	-0.0477
864.1854	-0.1603
864.3482	0.3112
864.511	-0.0554
864.6737	0.0449
864.8365	0.1449
864.9992	-0.4614
865.1619	-0.3413
865.3246	-0.1297
865.4873	0.2763
865.65	-0.1376
865.8126	0.1543
865.9752	0.0866
866.1378	0.1009
866.3004	-0.0586
866.4629	0.2156
866.6254	-0.1327
866.7879	0.4077
866.9504	-0
867.1129	-0.0706
867.2753	-0.0737
867.4377	0.3649
867.6001	-0.0801
867.7625	0.6272
867.9249	-0.0258
868.0872	-0.0753
868.2495	0.0613
868.4118	-0.288
868.5741	-0.6604
868.7363	0.0389
868.8986	-0.0765
869.0608	-0.2459
869.223	0.0614
869.3851	-0.1771
869.5473	0.0759
869.7094	0.2306
869.8715	-0
870.0336	-0.6021
870.1957	-0.2866
870.3577	-1.1047
870.5197	-0.2221
870.6817	-0.3526
870.8437	0.017
871.0057	-0.6864
871.1676	0.3382
871.3295	0.5059
871.4914	-0.2366
871.6533	-0.0991
871.8151	-0.4786
871.977	-0.0778
872.1388	-0
872.3006	0.243
872.4623	-0.4663
872.6241	1.283
872.7858	0.2603
872.9475	-0.0553
873.1092	0.4657
873.2709	-0.1268
873.4325	-0.094
873.5941	-0
873.7557	0.6247
873.9173	-0
874.0789	-0.1992
874.2404	-0.3665
874.4019	0.1066
874.5634	-0.1354
874.7249	0.014
874.8863	-0.1971
875.0478	0.9239
875.2092	-0
875.3706	-0
875.5319	-0.4818
875.6933	-0.0619
875.8546	-0.0327
876.0159	0.4958
876.1772	-0.2153
876.3385	-0
876.4997	0.3382
876.6609	-0.4487
876.8221	0.5119
876.9833	0.4293
877.1445	-0
877.3056	0.1266
877.4667	-0.0364
877.6278	-0
877.7889	0.2089
877.9499	-0
878.111	-0
878.272	-0
878.433	-0
878.5939	-0
878.7549	0.1662
878.9158	-0.3148
879.0767	0.3836
879.2376	-0
879.3984	-0
879.5593	-0.0902
879.7201	-0.0401
879.8809	-0.7686
880.0417	-0.3463
880.2024	-0.2072
880.3632	-0
880.5239	-0
880.6846	-0
880.8452	-2.3181
881.0059	-0.6021
881.1665	-0.0724
881.3271	0.0632
881.4877	-0
881.6483	0.0525
881.8088	-0.2143
881.9693	0.5634
882.1298	0.5634
882.2903	0.5634
