Data from MonoPyChalIsomerACN10uM350nmA_Absorbance_14-35-37-515.txt Node
Date: Fri Jul 05 14:35:37 BST 2024
User: LASERRRRR
Spectrometer: FLMT03099
Trigger mode: 0
Integration Time (sec): 1.000000E-1
Scans to average: 1
Electric dark correction enabled: true
Nonlinearity correction enabled: false
Boxcar width: 0
XAxis mode: Wavelengths
Number of Pixels in Spectrum: 3648
>>>>>Begin Spectral Data<<<<<
179.3399	0.029
179.5586	0.029
179.7771	0.029
179.9957	0.4675
180.2143	-0
180.4329	-0.3302
180.6514	0.7692
180.8699	-0
181.0885	-0.1989
181.307	-0.0747
181.5255	-0
181.744	-0.5111
181.9625	-0
182.181	-0.699
182.3994	0.0983
182.6179	-0
182.8363	-0.135
183.0547	-0.1867
183.2732	0.0095
183.4916	0.0685
183.71	0.2618
183.9284	-0.028
184.1467	-0.1165
184.3651	0.0016
184.5835	0.0153
184.8018	-0.1304
185.0201	0.289
185.2385	-0.0558
185.4568	0.2848
185.6751	-0.0422
185.8934	0.2006
186.1117	0.1021
186.3299	0.2259
186.5482	0.0341
186.7664	-0.2384
186.9847	0.0108
187.2029	0.0568
187.4211	0.1045
187.6393	0.0348
187.8575	-0.1603
188.0757	0.1241
188.2939	0.1136
188.512	-0.0504
188.7302	0.1233
188.9483	0.1724
189.1665	0.0361
189.3846	-0.2914
189.6027	0.1827
189.8208	0.2543
190.0389	0.0128
190.257	0.1833
190.475	0.0884
190.6931	0.2962
190.9111	0.4704
191.1292	0.1315
191.3472	0.2981
191.5652	0.1351
191.7832	0.1121
192.0012	0.2344
192.2192	0.2349
192.4371	0.3672
192.6551	0.4543
192.873	0.4622
193.091	0.4646
193.3089	0.428
193.5268	0.6875
193.7447	0.509
193.9626	0.6775
194.1805	0.4987
194.3984	0.9211
194.6162	0.4601
194.8341	0.4128
195.0519	0.4779
195.2697	0.6241
195.4875	0.6603
195.7054	0.65
195.9231	0.3727
196.1409	0.6349
196.3587	0.5443
196.5765	0.5266
196.7942	0.5794
197.012	0.4926
197.2297	0.6039
197.4474	0.6578
197.6651	0.572
197.8828	0.5176
198.1005	0.628
198.3182	0.6832
198.5358	0.7544
198.7535	0.613
198.9711	0.5827
199.1888	0.6542
199.4064	0.897
199.624	0.5248
199.8416	0.5267
200.0592	0.6144
200.2767	0.6013
200.4943	0.6013
200.7119	0.7751
200.9294	0.5855
201.1469	0.5861
201.3645	0.5492
201.582	0.6491
201.7995	0.582
202.017	0.5484
202.2344	0.5823
202.4519	0.7265
202.6694	0.7672
202.8868	0.7006
203.1042	0.6651
203.3217	0.89
203.5391	0.6864
203.7565	0.5402
203.9739	0.6524
204.1913	0.5558
204.4086	0.5941
204.626	0.7269
204.8433	0.6679
205.0607	0.5736
205.278	0.7191
205.4953	0.6102
205.7126	0.6302
205.9299	0.7932
206.1472	0.7161
206.3644	0.5629
206.5817	0.6456
206.7989	0.6938
207.0162	0.6071
207.2334	0.6435
207.4506	0.6311
207.6678	0.6326
207.885	0.6325
208.1022	0.6532
208.3194	0.6617
208.5365	0.6657
208.7537	0.5882
208.9708	0.5382
209.1879	0.6803
209.405	0.6614
209.6222	0.6424
209.8392	0.5975
210.0563	0.6176
210.2734	0.6506
210.4905	0.555
210.7075	0.6225
210.9245	0.6011
211.1416	0.6993
211.3586	0.6815
211.5756	0.6045
211.7926	0.5571
212.0096	0.6093
212.2265	0.499
212.4435	0.5997
212.6604	0.6295
212.8774	0.5989
213.0943	0.5957
213.3112	0.5771
213.5281	0.5322
213.745	0.4738
213.9619	0.4644
214.1788	0.4445
214.3956	0.448
214.6125	0.4467
214.8293	0.522
215.0461	0.4783
215.2629	0.4462
215.4798	0.4389
215.6965	0.4082
215.9133	0.4209
216.1301	0.4217
216.3469	0.4159
216.5636	0.4127
216.7803	0.3871
216.9971	0.3681
217.2138	0.3824
217.4305	0.3693
217.6472	0.3395
217.8639	0.374
218.0805	0.3432
218.2972	0.3149
218.5138	0.3219
218.7305	0.2994
218.9471	0.2903
219.1637	0.2968
219.3803	0.2632
219.5969	0.2778
219.8135	0.2291
220.0301	0.2765
220.2466	0.2499
220.4632	0.2631
220.6797	0.2194
220.8962	0.2489
221.1127	0.2518
221.3292	0.239
221.5457	0.2343
221.7622	0.2331
221.9787	0.2693
222.1951	0.2164
222.4116	0.2348
222.628	0.2665
222.8444	0.2509
223.0608	0.2348
223.2772	0.2572
223.4936	0.2772
223.71	0.2481
223.9264	0.2525
224.1427	0.253
224.3591	0.2494
224.5754	0.2649
224.7917	0.2432
225.008	0.2828
225.2243	0.2512
225.4406	0.2798
225.6569	0.2496
225.8732	0.2515
226.0894	0.2555
226.3057	0.2606
226.5219	0.2708
226.7381	0.2668
226.9543	0.2855
227.1705	0.2922
227.3867	0.2769
227.6029	0.3055
227.8191	0.2962
228.0352	0.2728
228.2513	0.3091
228.4675	0.3087
228.6836	0.3149
228.8997	0.3031
229.1158	0.3261
229.3319	0.2963
229.548	0.3051
229.764	0.3273
229.9801	0.3288
230.1961	0.3175
230.4121	0.3172
230.6282	0.3263
230.8442	0.3244
231.0602	0.3312
231.2761	0.3456
231.4921	0.3475
231.7081	0.3338
231.924	0.343
232.14	0.3601
232.3559	0.3296
232.5718	0.3631
232.7877	0.3678
233.0036	0.351
233.2195	0.3437
233.4353	0.3461
233.6512	0.373
233.867	0.3752
234.0829	0.3446
234.2987	0.3642
234.5145	0.3667
234.7303	0.3643
234.9461	0.4081
235.1619	0.3863
235.3776	0.384
235.5934	0.3764
235.8091	0.3725
236.0249	0.3758
236.2406	0.383
236.4563	0.3733
236.672	0.3904
236.8877	0.399
237.1034	0.3881
237.319	0.3947
237.5347	0.4052
237.7503	0.3901
237.966	0.4121
238.1816	0.4072
238.3972	0.408
238.6128	0.3876
238.8284	0.3997
239.0439	0.4157
239.2595	0.4043
239.475	0.3982
239.6906	0.4148
239.9061	0.4033
240.1216	0.3994
240.3371	0.4075
240.5526	0.3897
240.7681	0.4211
240.9836	0.3673
241.199	0.4159
241.4145	0.3803
241.6299	0.3692
241.8453	0.3708
242.0607	0.3714
242.2761	0.3537
242.4915	0.3637
242.7069	0.3669
242.9223	0.3499
243.1376	0.3573
243.353	0.3421
243.5683	0.3364
243.7836	0.3176
243.9989	0.3326
244.2142	0.3034
244.4295	0.3091
244.6448	0.3063
244.86	0.31
245.0753	0.3064
245.2905	0.2714
245.5057	0.2767
245.721	0.2721
245.9362	0.2571
246.1514	0.276
246.3665	0.2551
246.5817	0.271
246.7969	0.2571
247.012	0.2454
247.2271	0.2475
247.4423	0.2655
247.6574	0.2539
247.8725	0.2304
248.0876	0.2299
248.3026	0.2255
248.5177	0.2177
248.7328	0.2138
248.9478	0.2063
249.1628	0.2051
249.3779	0.2152
249.5929	0.1945
249.8079	0.222
250.0228	0.1975
250.2378	0.1912
250.4528	0.1988
250.6677	0.1872
250.8827	0.1991
251.0976	0.1878
251.3125	0.1889
251.5274	0.1692
251.7423	0.1603
251.9572	0.1995
252.172	0.1723
252.3869	0.1888
252.6017	0.1744
252.8166	0.163
253.0314	0.1712
253.2462	0.1592
253.461	0.1779
253.6758	0.1724
253.8906	0.1879
254.1053	0.1715
254.3201	0.1726
254.5348	0.1802
254.7496	0.1745
254.9643	0.1707
255.179	0.1746
255.3937	0.1691
255.6083	0.1854
255.823	0.1713
256.0377	0.1576
256.2523	0.1704
256.467	0.1498
256.6816	0.1587
256.8962	0.1602
257.1108	0.1589
257.3254	0.1724
257.54	0.1593
257.7545	0.1705
257.9691	0.1829
258.1836	0.1693
258.3981	0.1771
258.6127	0.1767
258.8272	0.1609
259.0417	0.1617
259.2561	0.1536
259.4706	0.1709
259.6851	0.1622
259.8995	0.1591
260.114	0.1746
260.3284	0.1606
260.5428	0.1557
260.7572	0.1776
260.9716	0.1674
261.186	0.1444
261.4003	0.1619
261.6147	0.1767
261.829	0.1651
262.0433	0.154
262.2577	0.155
262.472	0.1622
262.6863	0.1553
262.9005	0.159
263.1148	0.1671
263.3291	0.1537
263.5433	0.1562
263.7576	0.1705
263.9718	0.1631
264.186	0.1606
264.4002	0.1644
264.6144	0.1629
264.8286	0.1635
265.0427	0.1607
265.2569	0.1753
265.471	0.1613
265.6851	0.162
265.8993	0.1552
266.1134	0.1527
266.3275	0.1625
266.5415	0.1605
266.7556	0.1673
266.9697	0.1531
267.1837	0.1671
267.3978	0.1558
267.6118	0.1698
267.8258	0.1825
268.0398	0.1573
268.2538	0.1644
268.4677	0.1722
268.6817	0.1541
268.8957	0.1572
269.1096	0.1634
269.3235	0.1629
269.5374	0.1475
269.7514	0.1546
269.9652	0.1576
270.1791	0.1522
270.393	0.1452
270.6068	0.1635
270.8207	0.1306
271.0345	0.1479
271.2483	0.1492
271.4622	0.143
271.676	0.1659
271.8897	0.137
272.1035	0.1486
272.3173	0.1492
272.531	0.1436
272.7448	0.1507
272.9585	0.1476
273.1722	0.1394
273.3859	0.1501
273.5996	0.1336
273.8133	0.1429
274.0269	0.1469
274.2406	0.1422
274.4542	0.1419
274.6679	0.1314
274.8815	0.1508
275.0951	0.1425
275.3087	0.1551
275.5223	0.1565
275.7358	0.1533
275.9494	0.1449
276.1629	0.1366
276.3765	0.1477
276.59	0.1411
276.8035	0.156
277.017	0.1341
277.2305	0.1362
277.444	0.1533
277.6574	0.135
277.8709	0.1495
278.0843	0.1392
278.2978	0.1418
278.5112	0.1385
278.7246	0.1509
278.938	0.1565
279.1513	0.1419
279.3647	0.1499
279.5781	0.1464
279.7914	0.164
280.0047	0.1643
280.2181	0.1524
280.4314	0.1576
280.6447	0.1532
280.8579	0.1492
281.0712	0.1556
281.2845	0.1585
281.4977	0.154
281.711	0.1561
281.9242	0.1573
282.1374	0.1454
282.3506	0.1544
282.5638	0.16
282.7769	0.1503
282.9901	0.1461
283.2033	0.1721
283.4164	0.1706
283.6295	0.1506
283.8426	0.138
284.0557	0.1534
284.2688	0.1633
284.4819	0.165
284.695	0.1499
284.908	0.1578
285.1211	0.1566
285.3341	0.1625
285.5471	0.165
285.7601	0.1586
285.9731	0.1536
286.1861	0.1497
286.3991	0.1613
286.612	0.1608
286.825	0.1491
287.0379	0.1623
287.2508	0.1564
287.4637	0.1639
287.6766	0.1416
287.8895	0.166
288.1024	0.166
288.3152	0.1694
288.5281	0.163
288.7409	0.1615
288.9538	0.1526
289.1666	0.1643
289.3794	0.1689
289.5922	0.1567
289.8049	0.1606
290.0177	0.1629
290.2304	0.1637
290.4432	0.1648
290.6559	0.16
290.8686	0.1634
291.0813	0.1654
291.294	0.1601
291.5067	0.1733
291.7194	0.1645
291.932	0.1807
292.1447	0.1643
292.3573	0.1645
292.5699	0.1607
292.7825	0.1608
292.9951	0.1629
293.2077	0.1678
293.4203	0.17
293.6328	0.1666
293.8454	0.1683
294.0579	0.1567
294.2704	0.1634
294.4829	0.16
294.6954	0.1698
294.9079	0.1652
295.1204	0.1682
295.3328	0.1676
295.5453	0.156
295.7577	0.1648
295.9701	0.1512
296.1825	0.1551
296.3949	0.162
296.6073	0.1637
296.8197	0.1565
297.0321	0.1752
297.2444	0.1479
297.4567	0.1703
297.6691	0.1593
297.8814	0.1555
298.0937	0.1552
298.306	0.1661
298.5182	0.164
298.7305	0.1653
298.9428	0.1574
299.155	0.1657
299.3672	0.1563
299.5794	0.1512
299.7916	0.1608
300.0038	0.1695
300.216	0.1635
300.4282	0.1675
300.6403	0.1553
300.8525	0.1632
301.0646	0.1499
301.2767	0.1634
301.4888	0.1623
301.7009	0.1642
301.913	0.1617
302.125	0.1612
302.3371	0.1702
302.5491	0.1666
302.7612	0.1706
302.9732	0.1669
303.1852	0.1564
303.3972	0.1606
303.6092	0.1477
303.8211	0.1503
304.0331	0.1495
304.245	0.1518
304.457	0.1558
304.6689	0.1591
304.8808	0.1728
305.0927	0.144
305.3046	0.1676
305.5164	0.1532
305.7283	0.1519
305.9401	0.15
306.152	0.1471
306.3638	0.157
306.5756	0.1428
306.7874	0.1466
306.9992	0.1372
307.2109	0.1434
307.4227	0.1265
307.6344	0.1373
307.8462	0.1407
308.0579	0.1352
308.2696	0.1415
308.4813	0.1273
308.693	0.1289
308.9046	0.1382
309.1163	0.1282
309.328	0.13
309.5396	0.1186
309.7512	0.125
309.9628	0.125
310.1744	0.1194
310.386	0.1263
310.5976	0.1226
310.8091	0.1121
311.0207	0.1223
311.2322	0.1272
311.4437	0.1194
311.6552	0.1107
311.8667	0.1163
312.0782	0.103
312.2897	0.1117
312.5012	0.1079
312.7126	0.1012
312.924	0.1005
313.1355	0.115
313.3469	0.1144
313.5583	0.1098
313.7696	0.1183
313.981	0.1155
314.1924	0.1067
314.4037	0.1094
314.6151	0.1189
314.8264	0.1034
315.0377	0.0999
315.249	0.1031
315.4603	0.1099
315.6716	0.1026
315.8828	0.1015
316.0941	0.0969
316.3053	0.0991
316.5165	0.0908
316.7277	0.0966
316.9389	0.1105
317.1501	0.1083
317.3613	0.109
317.5724	0.0945
317.7836	0.0986
317.9947	0.0985
318.2058	0.0986
318.417	0.0884
318.6281	0.0842
318.8391	0.0938
319.0502	0.0947
319.2613	0.0947
319.4723	0.1012
319.6834	0.0996
319.8944	0.0953
320.1054	0.1088
320.3164	0.1084
320.5274	0.09
320.7383	0.087
320.9493	0.0938
321.1602	0.1133
321.3712	0.0886
321.5821	0.0936
321.793	0.0982
322.0039	0.096
322.2148	0.0943
322.4257	0.1011
322.6365	0.1152
322.8474	0.1003
323.0582	0.1014
323.269	0.102
323.4798	0.1108
323.6906	0.0944
323.9014	0.1043
324.1122	0.1078
324.3229	0.1125
324.5337	0.1029
324.7444	0.0973
324.9551	0.1161
325.1658	0.1066
325.3765	0.101
325.5872	0.1105
325.7979	0.1085
326.0085	0.1068
326.2192	0.1123
326.4298	0.1106
326.6404	0.0913
326.851	0.0935
327.0616	0.1002
327.2722	0.1013
327.4828	0.1074
327.6933	0.1056
327.9039	0.1175
328.1144	0.1085
328.3249	0.1021
328.5354	0.1006
328.7459	0.1004
328.9564	0.0988
329.1669	0.1022
329.3773	0.1046
329.5878	0.0986
329.7982	0.1077
330.0086	0.098
330.219	0.1091
330.4294	0.0941
330.6398	0.1044
330.8502	0.1012
331.0605	0.1047
331.2708	0.1007
331.4812	0.1008
331.6915	0.1087
331.9018	0.107
332.1121	0.1099
332.3224	0.1081
332.5326	0.1211
332.7429	0.1105
332.9531	0.1137
333.1633	0.1153
333.3735	0.1212
333.5837	0.113
333.7939	0.1004
334.0041	0.1124
334.2143	0.1219
334.4244	0.1078
334.6346	0.0904
334.8447	0.1244
335.0548	0.0927
335.2649	0.0983
335.475	0.1217
335.685	0.1099
335.8951	0.1131
336.1051	0.1112
336.3152	0.1141
336.5252	0.1062
336.7352	0.1142
336.9452	0.1158
337.1552	0.1223
337.3652	0.1062
337.5751	0.1177
337.7851	0.1108
337.995	0.0947
338.2049	0.1076
338.4148	0.1155
338.6247	0.1154
338.8346	0.1025
339.0445	0.1122
339.2543	0.1073
339.4642	0.1102
339.674	0.1114
339.8838	0.1203
340.0936	0.1111
340.3034	0.1285
340.5132	0.1213
340.7229	0.1313
340.9327	0.1203
341.1424	0.1127
341.3522	0.1323
341.5619	0.1155
341.7716	0.126
341.9813	0.126
342.1909	0.1154
342.4006	0.1328
342.6102	0.1346
342.8199	0.1282
343.0295	0.1269
343.2391	0.1185
343.4487	0.13
343.6583	0.1184
343.8679	0.1316
344.0774	0.1368
344.287	0.1361
344.4965	0.1307
344.706	0.1365
344.9155	0.1256
345.125	0.1127
345.3345	0.133
345.544	0.1239
345.7534	0.1342
345.9629	0.1192
346.1723	0.1264
346.3817	0.1307
346.5911	0.1192
346.8005	0.1361
347.0099	0.1208
347.2193	0.1367
347.4286	0.1406
347.638	0.1336
347.8473	0.1428
348.0566	0.142
348.2659	0.1274
348.4752	0.1378
348.6845	0.1373
348.8937	0.1346
349.103	0.1476
349.3122	0.1154
349.5214	0.1309
349.7306	0.1416
349.9398	0.1434
350.149	0.13
350.3582	0.1298
350.5674	0.1429
350.7765	0.1446
350.9856	0.1313
351.1948	0.1453
351.4039	0.1218
351.613	0.1233
351.822	0.1385
352.0311	0.1443
352.2402	0.1627
352.4492	0.146
352.6582	0.1405
352.8672	0.1441
353.0762	0.1488
353.2852	0.1354
353.4942	0.1501
353.7032	0.1454
353.9121	0.1465
354.1211	0.1485
354.33	0.164
354.5389	0.1575
354.7478	0.1505
354.9567	0.148
355.1655	0.1521
355.3744	0.1496
355.5833	0.1536
355.7921	0.174
356.0009	0.1543
356.2097	0.1635
356.4185	0.1746
356.6273	0.1634
356.8361	0.1737
357.0448	0.1596
357.2536	0.1595
357.4623	0.1498
357.671	0.162
357.8797	0.169
358.0884	0.1624
358.2971	0.158
358.5057	0.1699
358.7144	0.1688
358.923	0.1714
359.1316	0.1698
359.3402	0.1629
359.5488	0.174
359.7574	0.1461
359.966	0.1933
360.1746	0.1662
360.3831	0.1841
360.5916	0.1723
360.8002	0.1744
361.0087	0.1817
361.2172	0.1792
361.4256	0.1749
361.6341	0.1963
361.8426	0.1813
362.051	0.1808
362.2594	0.1772
362.4678	0.1758
362.6762	0.1962
362.8846	0.1861
363.093	0.1815
363.3014	0.1883
363.5097	0.1758
363.718	0.1792
363.9264	0.1814
364.1347	0.1743
364.343	0.1822
364.5513	0.2115
364.7595	0.2053
364.9678	0.1897
365.176	0.1968
365.3842	0.1826
365.5925	0.1831
365.8007	0.192
366.0089	0.2165
366.217	0.184
366.4252	0.2038
366.6333	0.2173
366.8415	0.2014
367.0496	0.2077
367.2577	0.2166
367.4658	0.2092
367.6739	0.2138
367.882	0.2029
368.09	0.1992
368.2981	0.2079
368.5061	0.2125
368.7141	0.2098
368.9221	0.2178
369.1301	0.2045
369.3381	0.2187
369.5461	0.2162
369.754	0.1986
369.962	0.216
370.1699	0.2295
370.3778	0.2289
370.5857	0.1978
370.7936	0.2098
371.0015	0.2125
371.2093	0.2029
371.4172	0.2293
371.625	0.2204
371.8328	0.206
372.0406	0.2233
372.2484	0.2164
372.4562	0.2154
372.664	0.2282
372.8717	0.2266
373.0795	0.1941
373.2872	0.2327
373.4949	0.2241
373.7026	0.2305
373.9103	0.2339
374.118	0.2354
374.3256	0.2301
374.5333	0.2272
374.7409	0.2346
374.9485	0.2472
375.1561	0.2265
375.3637	0.2276
375.5713	0.2357
375.7789	0.2252
375.9864	0.2418
376.194	0.224
376.4015	0.2437
376.609	0.2407
376.8165	0.2143
377.024	0.2423
377.2315	0.2262
377.4389	0.2492
377.6464	0.2484
377.8538	0.2509
378.0612	0.2281
378.2686	0.2409
378.476	0.2431
378.6834	0.2347
378.8908	0.2469
379.0981	0.2449
379.3055	0.2556
379.5128	0.229
379.7201	0.2501
379.9274	0.2292
380.1347	0.2341
380.342	0.262
380.5492	0.2532
380.7565	0.2367
380.9637	0.2584
381.1709	0.2442
381.3781	0.2529
381.5853	0.2614
381.7925	0.2682
381.9997	0.2525
382.2068	0.2485
382.4139	0.253
382.6211	0.2346
382.8282	0.2387
383.0353	0.248
383.2424	0.2542
383.4494	0.272
383.6565	0.2642
383.8635	0.2785
384.0706	0.2608
384.2776	0.2645
384.4846	0.2458
384.6916	0.2615
384.8986	0.2425
385.1055	0.2554
385.3125	0.2665
385.5194	0.2441
385.7263	0.2514
385.9333	0.2471
386.1402	0.2516
386.347	0.2697
386.5539	0.2419
386.7608	0.2759
386.9676	0.2411
387.1744	0.2638
387.3813	0.245
387.5881	0.2762
387.7948	0.2588
388.0016	0.2465
388.2084	0.2406
388.4151	0.2385
388.6219	0.2734
388.8286	0.2362
389.0353	0.263
389.242	0.2665
389.4487	0.2466
389.6553	0.2274
389.862	0.2375
390.0686	0.242
390.2753	0.2458
390.4819	0.2465
390.6885	0.2357
390.8951	0.2424
391.1016	0.2398
391.3082	0.226
391.5147	0.2393
391.7213	0.2287
391.9278	0.2278
392.1343	0.2289
392.3408	0.2268
392.5473	0.2352
392.7537	0.216
392.9602	0.2308
393.1666	0.2343
393.373	0.223
393.5794	0.2504
393.7858	0.2343
393.9922	0.2204
394.1986	0.2272
394.4049	0.213
394.6113	0.2169
394.8176	0.1991
395.0239	0.2157
395.2302	0.2234
395.4365	0.2255
395.6428	0.2228
395.8491	0.2155
396.0553	0.2141
396.2615	0.2198
396.4678	0.2123
396.674	0.2075
396.8802	0.2019
397.0863	0.2413
397.2925	0.2096
397.4987	0.2239
397.7048	0.2137
397.9109	0.2191
398.117	0.2136
398.3231	0.2016
398.5292	0.2199
398.7353	0.2145
398.9413	0.2103
399.1474	0.2
399.3534	0.2025
399.5594	0.2057
399.7654	0.2304
399.9714	0.2216
400.1774	0.2094
400.3833	0.205
400.5893	0.2159
400.7952	0.2145
401.0011	0.2157
401.207	0.2158
401.4129	0.213
401.6188	0.2349
401.8247	0.213
402.0305	0.1895
402.2364	0.2072
402.4422	0.2078
402.648	0.2152
402.8538	0.207
403.0596	0.196
403.2654	0.2165
403.4711	0.2079
403.6768	0.216
403.8826	0.2244
404.0883	0.212
404.294	0.2126
404.4997	0.2271
404.7054	0.196
404.911	0.1935
405.1167	0.2126
405.3223	0.2103
405.5279	0.2187
405.7335	0.2071
405.9391	0.2274
406.1447	0.214
406.3502	0.2285
406.5558	0.1954
406.7613	0.2264
406.9668	0.2021
407.1724	0.2023
407.3778	0.2248
407.5833	0.2233
407.7888	0.2093
407.9942	0.2172
408.1997	0.2126
408.4051	0.2261
408.6105	0.2254
408.8159	0.1972
409.0213	0.2081
409.2267	0.2316
409.432	0.1933
409.6374	0.212
409.8427	0.2199
410.048	0.2085
410.2533	0.2026
410.4586	0.1995
410.6639	0.2014
410.8691	0.1938
411.0744	0.2094
411.2796	0.1974
411.4848	0.2069
411.69	0.2034
411.8952	0.2316
412.1004	0.1894
412.3056	0.2222
412.5107	0.2095
412.7158	0.2153
412.921	0.2104
413.1261	0.2076
413.3312	0.1918
413.5362	0.2106
413.7413	0.2035
413.9464	0.2063
414.1514	0.2153
414.3564	0.208
414.5614	0.1922
414.7664	0.1954
414.9714	0.2002
415.1764	0.2138
415.3813	0.214
415.5863	0.207
415.7912	0.2151
415.9961	0.1921
416.201	0.1934
416.4059	0.2082
416.6108	0.187
416.8156	0.2083
417.0205	0.1974
417.2253	0.2027
417.4301	0.1897
417.6349	0.1989
417.8397	0.2046
418.0445	0.2097
418.2492	0.1997
418.454	0.1968
418.6587	0.1927
418.8634	0.1897
419.0681	0.1729
419.2728	0.18
419.4775	0.2074
419.6822	0.1856
419.8868	0.1786
420.0915	0.2037
420.2961	0.1831
420.5007	0.1722
420.7053	0.193
420.9099	0.2048
421.1144	0.1969
421.319	0.1804
421.5235	0.1933
421.728	0.1903
421.9325	0.1848
422.137	0.1989
422.3415	0.1873
422.546	0.1838
422.7504	0.1826
422.9549	0.1892
423.1593	0.1832
423.3637	0.1973
423.5681	0.1861
423.7725	0.1667
423.9769	0.1826
424.1812	0.1819
424.3856	0.1613
424.5899	0.1809
424.7942	0.1809
424.9985	0.1832
425.2028	0.1852
425.4071	0.2011
425.6113	0.1618
425.8156	0.1679
426.0198	0.1752
426.224	0.1611
426.4282	0.1611
426.6324	0.1597
426.8366	0.1751
427.0407	0.1638
427.2449	0.1644
427.449	0.1634
427.6531	0.1377
427.8572	0.1541
428.0613	0.1551
428.2654	0.162
428.4694	0.1571
428.6735	0.1491
428.8775	0.159
429.0815	0.158
429.2855	0.1559
429.4895	0.1583
429.6935	0.1559
429.8975	0.1539
430.1014	0.1543
430.3053	0.1416
430.5093	0.142
430.7132	0.1289
430.9171	0.1337
431.1209	0.1385
431.3248	0.1429
431.5286	0.1467
431.7325	0.1328
431.9363	0.1313
432.1401	0.1256
432.3439	0.1333
432.5477	0.121
432.7514	0.1243
432.9552	0.1282
433.1589	0.136
433.3627	0.1184
433.5664	0.1305
433.7701	0.1215
433.9737	0.1216
434.1774	0.0985
434.3811	0.1036
434.5847	0.1217
434.7883	0.1054
434.9919	0.1189
435.1955	0.1082
435.3991	0.1141
435.6027	0.1043
435.8062	0.0959
436.0098	0.09
436.2133	0.1026
436.4168	0.0773
436.6203	0.0902
436.8238	0.0985
437.0272	0.0948
437.2307	0.0977
437.4341	0.0987
437.6375	0.1044
437.841	0.0921
438.0443	0.1025
438.2477	0.0916
438.4511	0.0887
438.6545	0.09
438.8578	0.0915
439.0611	0.0862
439.2644	0.0741
439.4677	0.0819
439.671	0.0643
439.8743	0.0849
440.0775	0.0887
440.2808	0.0861
440.484	0.0603
440.6872	0.0516
440.8904	0.0793
441.0936	0.0867
441.2967	0.0664
441.4999	0.078
441.703	0.0597
441.9062	0.0683
442.1093	0.0691
442.3124	0.063
442.5155	0.0562
442.7185	0.0753
442.9216	0.0449
443.1246	0.068
443.3276	0.045
443.5307	0.0498
443.7337	0.0758
443.9366	0.0653
444.1396	0.0602
444.3426	0.0541
444.5455	0.0597
444.7484	0.0565
444.9513	0.0467
445.1542	0.059
445.3571	0.0589
445.56	0.049
445.7628	0.0276
445.9657	0.0445
446.1685	0.0478
446.3713	0.055
446.5741	0.0558
446.7769	0.0339
446.9797	0.0401
447.1824	0.059
447.3852	0.0483
447.5879	0.0407
447.7906	0.0547
447.9933	0.0354
448.196	0.0407
448.3986	0.0239
448.6013	0.0109
448.8039	0.0231
449.0066	0.0354
449.2092	0.0354
449.4118	0.0288
449.6143	0.0367
449.8169	0.0306
450.0195	0.0247
450.222	0.02
450.4245	0.0248
450.627	0.0222
450.8295	0.0322
451.032	0.0257
451.2345	0.0229
451.4369	0.0292
451.6394	0.0283
451.8418	0.0212
452.0442	0.0172
452.2466	0.0312
452.449	0.0126
452.6513	0.0307
452.8537	0.0118
453.056	0.0046
453.2583	0.0118
453.4607	0.024
453.663	0.0146
453.8652	0.0191
454.0675	0.0141
454.2697	0.024
454.472	-0.0062
454.6742	0.0131
454.8764	0.0215
455.0786	0.0254
455.2808	0.0111
455.4829	0.0191
455.6851	0.0203
455.8872	0.0099
456.0893	0.0198
456.2915	-0.0036
456.4935	0.0189
456.6956	0.0089
456.8977	0.025
457.0997	0.0144
457.3018	0.0083
457.5038	0.023
457.7058	0.007
457.9078	0.0047
458.1098	0.0267
458.3117	0.0139
458.5137	0.0087
458.7156	0.0153
458.9175	-0.0066
459.1194	-0.0012
459.3213	0.0041
459.5232	0.0033
459.725	-0.0104
459.9269	0.0073
460.1287	-0.0067
460.3305	0.0123
460.5323	0.0069
460.7341	-0.0029
460.9359	0.0095
461.1376	0.0196
461.3394	0.0057
461.5411	0.0268
461.7428	0.0038
461.9445	0.0189
462.1462	0.0226
462.3479	-0.0061
462.5495	0.0112
462.7512	0.0158
462.9528	0.0043
463.1544	-0.0123
463.356	0.0044
463.5576	0.0034
463.7592	-0.0021
463.9607	0.0093
464.1623	0.0248
464.3638	0.0166
464.5653	-0.0081
464.7668	0.0151
464.9683	0.0105
465.1697	0.014
465.3712	-0.0062
465.5726	-0.0089
465.7741	0
465.9755	-0.0006
466.1769	-0.0022
466.3782	0.0081
466.5796	0.0023
466.7809	0.0218
466.9823	-0.0103
467.1836	0.0112
467.3849	-0.0045
467.5862	0.0034
467.7875	-0.0017
467.9887	0.017
468.19	0.0015
468.3912	-0.007
468.5924	0.0025
468.7936	-0.005
468.9948	0.0077
469.196	-0.002
469.3972	-0.0122
469.5983	0.0105
469.7994	-0.0176
470.0006	-0.0059
470.2017	-0.0134
470.4027	-0.0074
470.6038	-0.0056
470.8049	-0.0063
471.0059	-0.0113
471.2069	-0.0254
471.408	0.0036
471.6089	0.004
471.8099	0.0155
472.0109	-0.0045
472.2119	-0.0129
472.4128	-0.0152
472.6137	-0.0082
472.8146	-0.0202
473.0155	-0.0007
473.2164	0.0056
473.4173	0.0022
473.6181	0.0049
473.819	0.0063
474.0198	-0.0095
474.2206	-0.0044
474.4214	-0.0052
474.6222	0.0045
474.8229	-0.0068
475.0237	-0.019
475.2244	-0.0006
475.4251	-0.014
475.6258	-0.0172
475.8265	0.004
476.0272	0.0102
476.2278	0.0034
476.4285	-0.0075
476.6291	-0.009
476.8297	-0.0064
477.0303	-0.0117
477.2309	0.0019
477.4315	-0.0094
477.632	-0.0133
477.8326	0.009
478.0331	0.0037
478.2336	0.0012
478.4341	0.0042
478.6346	-0.0136
478.8351	-0.014
479.0355	-0.0026
479.236	-0.0055
479.4364	0.0073
479.6368	0.0007
479.8372	-0.0111
480.0376	-0.0089
480.2379	-0.0144
480.4383	-0.0177
480.6386	0.0112
480.8389	0.0062
481.0392	-0.0073
481.2395	-0.0042
481.4398	0.0062
481.6401	0.0025
481.8403	-0.0186
482.0405	-0.0068
482.2408	-0.0046
482.441	0.0115
482.6411	-0.0077
482.8413	0.0043
483.0415	-0.0065
483.2416	0.0079
483.4417	0.0012
483.6419	-0.02
483.8419	-0.0126
484.042	0.0011
484.2421	0.0051
484.4422	0.0037
484.6422	-0.0021
484.8422	0.0016
485.0422	-0.0108
485.2422	0.0053
485.4422	-0.0098
485.6422	-0.0066
485.8421	-0.0056
486.042	-0.0001
486.242	-0.0087
486.4419	-0.0081
486.6417	-0.0032
486.8416	-0.0037
487.0415	-0.0179
487.2413	-0.0038
487.4411	-0.0122
487.641	-0.0094
487.8408	-0.0014
488.0405	-0.0042
488.2403	-0.004
488.4401	0.0007
488.6398	-0.0043
488.8395	-0.0069
489.0392	0.0013
489.2389	-0.0035
489.4386	-0.0002
489.6383	0.0037
489.8379	-0.003
490.0376	-0.0059
490.2372	-0.0122
490.4368	-0.0101
490.6364	-0.0039
490.836	0.0046
491.0355	0.0021
491.2351	-0.0171
491.4346	-0.0054
491.6341	-0.0079
491.8336	-0.0074
492.0331	-0.0114
492.2326	-0.0109
492.432	-0.0101
492.6315	0.0016
492.8309	-0.023
493.0303	-0.0042
493.2297	-0.0108
493.4291	0.0107
493.6284	0.0025
493.8278	0.0022
494.0271	0.007
494.2264	0.0058
494.4257	-0.0112
494.625	-0.0044
494.8243	-0.0133
495.0236	-0.0022
495.2228	-0.0096
495.422	0.0018
495.6213	-0.0041
495.8205	-0.0024
496.0196	-0.0086
496.2188	0.0027
496.418	-0.0129
496.6171	-0.0122
496.8162	-0.0142
497.0153	-0.0001
497.2144	-0.0073
497.4135	-0.008
497.6126	-0.0065
497.8116	-0.0054
498.0107	-0.004
498.2097	-0.0121
498.4087	-0.0061
498.6077	-0.0035
498.8067	-0.0102
499.0056	0.0093
499.2046	-0.0014
499.4035	-0.0163
499.6024	-0.0035
499.8013	-0.0038
500.0002	-0.0077
500.199	-0.004
500.3979	-0.0081
500.5967	-0.018
500.7956	-0.0007
500.9944	-0.0009
501.1932	-0.0022
501.3919	-0.0141
501.5907	-0.0158
501.7895	-0.0002
501.9882	-0.0109
502.1869	-0.0109
502.3856	-0.0143
502.5843	-0.0051
502.783	-0.002
502.9816	-0.0021
503.1803	-0.0095
503.3789	-0.0102
503.5775	-0.0039
503.7761	-0.0092
503.9747	-0.009
504.1732	-0.0073
504.3718	-0.0048
504.5703	-0.0094
504.7689	-0.0179
504.9674	-0.0082
505.1658	-0.0145
505.3643	-0.0032
505.5628	-0.0068
505.7612	-0.0067
505.9597	-0.0002
506.1581	-0.0092
506.3565	0.0025
506.5549	-0.0016
506.7532	-0.0144
506.9516	0.0056
507.1499	0.0006
507.3482	-0.015
507.5465	-0.0133
507.7448	-0.0072
507.9431	-0.0059
508.1414	-0.0037
508.3396	-0.0024
508.5379	-0.0047
508.7361	-0.0172
508.9343	-0.0001
509.1325	-0.0039
509.3306	-0.0088
509.5288	0.0014
509.7269	-0.004
509.9251	0.0095
510.1232	-0.0095
510.3213	-0.0081
510.5193	-0.0007
510.7174	-0.007
510.9154	-0.0118
511.1135	-0.0013
511.3115	0.002
511.5095	-0.0122
511.7075	-0.0104
511.9055	0.0004
512.1034	-0.0112
512.3014	0.0021
512.4993	-0.0007
512.6972	-0.0038
512.8951	-0.0125
513.093	-0.0066
513.2908	-0.0042
513.4887	-0.0041
513.6865	-0.0173
513.8844	0.0005
514.0822	-0.0048
514.2799	-0.0084
514.4777	-0.0085
514.6755	-0.0121
514.8732	-0.0093
515.0709	0.0022
515.2687	-0.0142
515.4664	0.004
515.664	-0.0123
515.8617	-0.0032
516.0594	-0.01
516.257	-0.0027
516.4546	-0.0091
516.6522	0.002
516.8498	-0.0098
517.0474	-0.0002
517.2449	-0.0008
517.4425	-0.01
517.64	-0.0008
517.8375	0.0071
518.035	0.0007
518.2325	-0.0098
518.43	-0.0018
518.6274	-0.0033
518.8249	-0.0145
519.0223	0.0051
519.2197	0.0017
519.4171	-0.0057
519.6145	-0.0083
519.8118	0.0041
520.0092	-0.0099
520.2065	-0.008
520.4038	-0.0142
520.6011	-0.0013
520.7984	-0.0074
520.9956	-0.0103
521.1929	-0.0107
521.3901	0.0014
521.5874	-0.002
521.7846	-0.0081
521.9818	-0.0031
522.1789	-0.0121
522.3761	-0.0071
522.5732	-0.0107
522.7704	0.0021
522.9675	-0.0114
523.1646	-0.0072
523.3617	-0.0067
523.5587	0.0007
523.7558	0.0092
523.9528	-0.0042
524.1498	-0.0057
524.3468	-0.0103
524.5438	-0.0126
524.7408	-0.0013
524.9378	0.0183
525.1347	-0.0079
525.3316	0.0056
525.5285	-0.0135
525.7254	-0.0075
525.9223	-0.0007
526.1192	-0.012
526.316	-0.0058
526.5129	-0.0073
526.7097	0.0047
526.9065	0.0025
527.1033	-0.0063
527.3	0.0066
527.4968	-0.0025
527.6935	-0.0042
527.8903	-0.0039
528.087	-0.0043
528.2837	-0.0066
528.4804	-0.0098
528.677	-0.0105
528.8737	0.0037
529.0703	0.0093
529.2669	0.0025
529.4635	0.0018
529.6601	0.0011
529.8567	0.0007
530.0532	-0.0063
530.2498	0.0024
530.4463	-0.0008
530.6428	-0.0062
530.8393	0.0044
531.0358	-0.0035
531.2322	-0.01
531.4287	-0.0086
531.6251	-0.0078
531.8215	0.004
532.0179	0.0021
532.2143	0.0047
532.4107	-0.0004
532.607	-0.0137
532.8034	0.0079
532.9997	-0.0012
533.196	0.0053
533.3923	-0.01
533.5886	0.0005
533.7848	0.0037
533.9811	-0.0043
534.1773	0.0007
534.3735	0.006
534.5697	-0.0052
534.7659	0.0004
534.9621	0.0011
535.1582	-0.0106
535.3544	-0.005
535.5505	-0.0047
535.7466	-0.0022
535.9427	-0.0019
536.1387	-0.0118
536.3348	-0.0178
536.5308	0.0029
536.7269	-0.0086
536.9229	0.0065
537.1189	-0.0013
537.3148	-0.008
537.5108	-0.0066
537.7068	-0.007
537.9027	-0.0036
538.0986	0.0019
538.2945	-0.0132
538.4904	-0.0049
538.6863	-0.0054
538.8821	-0.0071
539.078	0.0008
539.2738	-0.0011
539.4696	-0.0007
539.6654	0.007
539.8611	-0.0016
540.0569	-0.0041
540.2526	-0.001
540.4484	0.0013
540.6441	0.0057
540.8398	-0.0088
541.0355	0.0068
541.2311	0.0005
541.4268	-0.007
541.6224	0.0047
541.818	-0.0022
542.0136	-0.0079
542.2092	0.0018
542.4048	-0.0012
542.6003	0.003
542.7959	-0.0102
542.9914	-0.0067
543.1869	-0.0064
543.3824	-0.0003
543.5779	-0.0058
543.7734	-0.0031
543.9688	-0.0072
544.1642	0.003
544.3596	0.0029
544.555	-0.0027
544.7504	-0.0063
544.9458	-0.0052
545.1411	0.0014
545.3365	-0.0099
545.5318	-0.0124
545.7271	-0.0011
545.9224	0.0028
546.1177	0.0046
546.3129	0.0068
546.5081	0.0057
546.7034	0.0024
546.8986	-0.0108
547.0938	-0.0079
547.289	0.0045
547.4841	0.0028
547.6793	0.0048
547.8744	-0.0088
548.0695	-0.0063
548.2646	-0.0099
548.4597	0.0008
548.6548	-0.0037
548.8498	0.0009
549.0448	0.0023
549.2399	-0.0048
549.4349	0.0048
549.6298	0.0019
549.8248	0.0005
550.0198	-0.0045
550.2147	-0.0065
550.4096	-0.0117
550.6045	-0.0064
550.7994	0.0055
550.9943	0.0025
551.1892	0.0009
551.384	0.0085
551.5788	-0.0048
551.7737	-0.0003
551.9685	-0.0027
552.1632	0.0055
552.358	-0.0022
552.5528	0.0002
552.7475	-0.0067
552.9422	-0.0026
553.1369	0.0067
553.3316	0.002
553.5263	-0.0082
553.7209	0.0095
553.9156	0.0014
554.1102	-0.0008
554.3048	-0.0113
554.4994	0.0182
554.694	-0.0114
554.8885	-0.0012
555.0831	-0.0075
555.2776	-0.0132
555.4721	-0.0088
555.6666	-0.0058
555.8611	0.0138
556.0555	0.006
556.25	0.0023
556.4444	-0.018
556.6388	-0.0004
556.8332	0.0027
557.0276	-0.0075
557.222	-0.0112
557.4163	0.0001
557.6107	-0.0115
557.805	0.0065
557.9993	-0.0019
558.1936	-0.0103
558.3879	-0.0033
558.5821	0.0015
558.7764	0.0086
558.9706	0.0019
559.1648	0.0013
559.359	-0.0088
559.5532	-0.008
559.7473	-0.002
559.9415	0.0027
560.1356	-0.0051
560.3297	-0.0045
560.5238	-0.0064
560.7179	-0.0052
560.9119	0.0026
561.106	-0.0061
561.3	-0.014
561.494	-0.0089
561.688	-0.0061
561.882	-0.0175
562.076	-0.0083
562.2699	0.0006
562.4639	-0.0051
562.6578	0.0046
562.8517	-0.0018
563.0456	-0.0013
563.2395	0.0015
563.4333	-0.0021
563.6272	0.0108
563.821	0.0073
564.0148	0.003
564.2086	-0.0003
564.4024	-0.0026
564.5961	-0.0059
564.7899	-0.0002
564.9836	-0.005
565.1773	0.0006
565.371	0.0039
565.5647	0.0055
565.7584	-0.007
565.952	0.0027
566.1456	0.004
566.3393	-0.0016
566.5329	-0.0029
566.7264	0.001
566.92	-0.0044
567.1136	0.0081
567.3071	0.0001
567.5006	0.0035
567.6941	0.0004
567.8876	0.0017
568.0811	0.001
568.2745	0.0101
568.468	0.0047
568.6614	0.0057
568.8548	-0.0042
569.0482	-0.0042
569.2416	0.0033
569.4349	0.0062
569.6283	0.0098
569.8216	-0.0076
570.0149	-0.0047
570.2082	0.0052
570.4015	0.0085
570.5947	0.0093
570.788	0.0058
570.9812	0.0028
571.1744	0.0027
571.3676	-0.0035
571.5608	0.0038
571.754	0.0029
571.9471	0.0016
572.1402	-0.0064
572.3333	-0.0028
572.5264	-0.0011
572.7195	-0.0007
572.9126	0.0049
573.1057	-0.0029
573.2987	0.0042
573.4917	0.0014
573.6847	-0.0042
573.8777	0.0098
574.0707	0.0132
574.2636	0.0033
574.4566	-0.0051
574.6495	0.0084
574.8424	-0.0012
575.0353	-0.0041
575.2281	0.0047
575.421	-0.0005
575.6138	0.0047
575.8067	-0.0022
575.9995	0.0048
576.1923	0.0013
576.385	0.0005
576.5778	0.0037
576.7706	0.0039
576.9633	0.0044
577.156	0.002
577.3487	-0.0013
577.5414	0.0007
577.734	-0.0003
577.9267	0.004
578.1193	-0.0104
578.3119	-0.0028
578.5045	0.004
578.6971	0.004
578.8897	0.0079
579.0822	0.0012
579.2747	0.0012
579.4673	-0.0004
579.6598	-0.0049
579.8522	-0.0015
580.0447	-0.0078
580.2372	-0.0035
580.4296	0.0037
580.622	-0.0055
580.8144	0.0049
581.0068	-0.0029
581.1992	-0.0055
581.3915	-0.0022
581.5839	-0.0062
581.7762	-0.0023
581.9685	-0.0005
582.1608	0.0069
582.353	-0.0023
582.5453	0.0011
582.7375	0.0001
582.9298	-0.0055
583.122	0.001
583.3142	-0.0032
583.5063	0.001
583.6985	-0
583.8906	0.0012
584.0827	-0.0034
584.2749	0.0001
584.4669	-0.0048
584.659	0.0012
584.8511	-0.0034
585.0431	-0.0024
585.2352	0.0048
585.4272	0.0006
585.6192	0.0078
585.8111	-0.0027
586.0031	0.0018
586.195	-0.0021
586.387	-0.0003
586.5789	0.0006
586.7708	0.002
586.9627	-0.0003
587.1545	-0.0064
587.3464	0.0036
587.5382	-0.0025
587.73	0.0066
587.9218	0.009
588.1136	-0.0006
588.3053	0.0057
588.4971	-0.003
588.6888	-0.0136
588.8805	0.0025
589.0722	0.0011
589.2639	0.0012
589.4556	0.0039
589.6472	-0.0043
589.8389	-0.0076
590.0305	-0.003
590.2221	-0.0017
590.4137	-0.0038
590.6052	0.0015
590.7968	-0.0005
590.9883	-0.0005
591.1798	-0.0052
591.3713	-0.0042
591.5628	0.0094
591.7543	0.0033
591.9458	0.0038
592.1372	0.0093
592.3286	0.0062
592.52	-0.0001
592.7114	-0.0048
592.9028	-0.0034
593.0941	0.001
593.2855	-0.0016
593.4768	-0.0075
593.6681	-0.0075
593.8594	-0.0047
594.0506	0.0056
594.2419	0.0053
594.4331	0.0019
594.6244	0.0038
594.8156	-0.0052
595.0067	0.0039
595.1979	0.003
595.3891	0.0056
595.5802	-0.0013
595.7713	-0.0052
595.9624	-0.0037
596.1535	0.0055
596.3446	-0.0015
596.5357	-0.002
596.7267	0.0076
596.9177	0.0039
597.1087	-0.0025
597.2997	0.0014
597.4907	0.001
597.6817	-0.0033
597.8726	0.0025
598.0635	-0.0015
598.2544	0.0029
598.4453	-0.003
598.6362	-0.0009
598.827	-0.0063
599.0179	-0.0007
599.2087	0.0046
599.3995	-0.0006
599.5903	-0.0032
599.7811	0.0029
599.9718	0.0009
600.1626	-0.0019
600.3533	-0.0033
600.544	-0.0025
600.7347	-0.0021
600.9254	-0.003
601.116	-0.0076
601.3067	-0.0013
601.4973	0.0018
601.6879	0.0097
601.8785	-0.0056
602.0691	0.0052
602.2596	0.0023
602.4502	0.0058
602.6407	0.0072
602.8312	-0.0029
603.0217	-0.0089
603.2122	0.0029
603.4027	0.0052
603.5931	0.0025
603.7835	-0.0046
603.9739	0.0026
604.1643	-0.0041
604.3547	-0.0014
604.5451	0.0115
604.7354	-0.0036
604.9257	-0.0006
605.116	0.004
605.3063	-0.0015
605.4966	0.0085
605.6869	0.0065
605.8771	0.0073
606.0673	0.007
606.2575	0.006
606.4477	0.004
606.6379	0.0074
606.8281	0.0032
607.0182	-0.0031
607.2083	0.0053
607.3985	-0.0062
607.5885	-0.0003
607.7786	-0.0021
607.9687	-0.0038
608.1587	0.0018
608.3488	0.0016
608.5388	0.0003
608.7288	0.0029
608.9187	-0.0034
609.1087	-0.0006
609.2986	-0.0068
609.4886	0.0039
609.6785	-0.0017
609.8684	0.002
610.0582	0.0033
610.2481	-0.0026
610.4379	0.0008
610.6278	0.0027
610.8176	-0.0008
611.0074	0.0009
611.1971	-0.0057
611.3869	-0.0047
611.5766	-0.0041
611.7664	0.0067
611.9561	0.0085
612.1458	0.0008
612.3354	-0.0004
612.5251	0.0024
612.7147	0.0067
612.9044	0.0031
613.094	-0.0076
613.2836	0.0028
613.4731	0.0025
613.6627	-0.0004
613.8522	0.0053
614.0417	0.0031
614.2313	-0.003
614.4207	-0.0056
614.6102	0.0011
614.7997	-0.0006
614.9891	-0.0045
615.1785	0.0002
615.3679	0.0035
615.5573	0.002
615.7467	-0.0077
615.9361	-0.0007
616.1254	-0.0029
616.3147	0.0008
616.504	0.0027
616.6933	0.0085
616.8826	0.0055
617.0718	0.0046
617.2611	-0.0009
617.4503	-0.0045
617.6395	-0.0058
617.8287	-0.003
618.0179	0.0015
618.207	0.0037
618.3961	0.0036
618.5853	0.003
618.7744	0.0017
618.9634	0.0049
619.1525	0.0012
619.3416	-0.0013
619.5306	0.0036
619.7196	0.0078
619.9086	-0.0022
620.0976	0.0078
620.2866	0.0049
620.4755	0.0022
620.6645	0.0077
620.8534	0.0064
621.0423	0.0076
621.2312	0.0056
621.42	-0.0027
621.6089	-0.0011
621.7977	0.0058
621.9865	-0.0001
622.1753	0.0058
622.3641	0.0024
622.5529	0.0025
622.7416	0.0076
622.9303	-0.0016
623.1191	0.0025
623.3078	-0.0067
623.4964	0.0033
623.6851	-0.0022
623.8737	-0.0028
624.0624	0.0034
624.251	-0.0008
624.4396	-0.0009
624.6282	-0.0058
624.8167	0.0039
625.0053	0.0009
625.1938	0.0042
625.3823	0.0048
625.5708	0.0009
625.7593	-0.0053
625.9477	-0.0066
626.1362	-0.0048
626.3246	-0.0036
626.513	0.0017
626.7014	0.0058
626.8898	-0.0012
627.0781	0.0022
627.2665	0.001
627.4548	0.0106
627.6431	0.0063
627.8314	0.0011
628.0197	0.0018
628.2079	0.0015
628.3962	0.0019
628.5844	0.0062
628.7726	0.0072
628.9608	0.0032
629.1489	0.0016
629.3371	0.0044
629.5252	-0.0012
629.7134	0.002
629.9015	-0.0026
630.0895	-0.0021
630.2776	0.0068
630.4657	0.001
630.6537	0.0023
630.8417	-0.0018
631.0297	-0.0063
631.2177	-0.0054
631.4057	-0.0035
631.5936	0.002
631.7815	0.0075
631.9695	0.0014
632.1574	0.0083
632.3452	0.0097
632.5331	0.0037
632.7209	-0.0023
632.9088	0.0135
633.0966	0.0134
633.2844	-0.0052
633.4722	0.0038
633.6599	0.0083
633.8477	0.0012
634.0354	0.0007
634.2231	-0.0018
634.4108	0.0114
634.5985	0.0088
634.7861	0.0056
634.9738	0.0014
635.1614	0.0083
635.349	0.0079
635.5366	0.0005
635.7242	0.0063
635.9117	0.0097
636.0993	0.0026
636.2868	0.0094
636.4743	0.0024
636.6618	0.0126
636.8492	0.0012
637.0367	0.0025
637.2241	0.0026
637.4115	0.0008
637.5989	-0.0025
637.7863	-0.0028
637.9737	0.0017
638.161	0.0017
638.3484	0.0003
638.5357	0.0082
638.723	0.0017
638.9103	0.0018
639.0975	-0.0014
639.2848	0.0011
639.472	-0.0023
639.6592	0.0058
639.8464	0.0075
640.0336	0.0047
640.2208	-0.0009
640.4079	-0.0034
640.595	-0.0003
640.7821	0.0023
640.9692	-0.0015
641.1563	0.0021
641.3434	0.0017
641.5304	-0.0001
641.7174	0.0006
641.9044	-0.0005
642.0914	0.002
642.2784	0.0048
642.4653	0.0076
642.6523	-0.0012
642.8392	0.0052
643.0261	0.0036
643.213	0.0041
643.3999	-0.0009
643.5867	-0.0061
643.7735	0.0071
643.9604	-0.0008
644.1472	0.0056
644.3339	-0.0002
644.5207	0.0022
644.7075	0.0054
644.8942	0.0084
645.0809	0.0106
645.2676	0.011
645.4543	0.01
645.6409	0.0038
645.8276	-0.0019
646.0142	0.0041
646.2008	-0.0066
646.3874	-0.0058
646.574	-0.0028
646.7605	-0.0073
646.9471	-0.0095
647.1336	-0.0017
647.3201	0.0053
647.5066	-0.0022
647.6931	0.0032
647.8795	0.0004
648.0659	0.0034
648.2524	0.0121
648.4388	-0.0076
648.6252	0.0062
648.8115	0.0034
648.9979	0.0045
649.1842	0.0121
649.3705	0.0112
649.5568	0.0081
649.7431	0.006
649.9294	0.0024
650.1156	0.0083
650.3018	-0.0026
650.488	0.0038
650.6742	0.0014
650.8604	0.0017
651.0466	-0.0045
651.2327	-0.0012
651.4188	0.0032
651.6049	0.0058
651.791	-0.0027
651.9771	0.0048
652.1632	0.0038
652.3492	-0
652.5352	0.0044
652.7212	-0.0019
652.9072	0.0067
653.0932	0.0004
653.2791	0.002
653.465	-0.0006
653.651	-0.0031
653.8369	-0.0026
654.0227	-0.0043
654.2086	0.0093
654.3944	0.0029
654.5803	-0.0007
654.7661	-0.0003
654.9519	0.0009
655.1377	-0.0051
655.3234	0.0024
655.5092	-0.0037
655.6949	-0.0079
655.8806	-0.0057
656.0663	0.0014
656.2519	-0.0041
656.4376	0.0005
656.6232	0.0067
656.8088	0.003
656.9945	0.0054
657.18	0.004
657.3656	-0.0003
657.5511	-0.0063
657.7367	0.0002
657.9222	0.0089
658.1077	0.0027
658.2932	-0.0004
658.4786	-0.0057
658.6641	-0.0095
658.8495	0.0005
659.0349	-0.0039
659.2203	0.0036
659.4057	0.0055
659.591	0.0022
659.7764	0.002
659.9617	-0
660.147	-0.0043
660.3323	0.0029
660.5176	0.0037
660.7028	0.0045
660.888	0.006
661.0733	0.0051
661.2585	-0.0071
661.4436	0.0049
661.6288	-0.0019
661.8139	-0.0017
661.9991	0.0081
662.1842	-0.0057
662.3693	-0.0045
662.5544	-0.0059
662.7394	-0.005
662.9245	0.0004
663.1095	-0.0029
663.2945	-0.0031
663.4795	-0.0028
663.6644	0.0083
663.8494	0.002
664.0343	0.0019
664.2193	-0.0048
664.4042	-0.0042
664.589	-0.0004
664.7739	-0.0032
664.9587	-0.0049
665.1436	0.0015
665.3284	0.0062
665.5132	-0.0065
665.698	0.0009
665.8827	0.0124
666.0675	-0.001
666.2522	-0.0093
666.4369	-0.0001
666.6216	0.0044
666.8063	-0.0017
666.9909	0.0014
667.1756	-0.0014
667.3602	0.0047
667.5448	-0.0026
667.7294	0.0068
667.9139	0.0018
668.0985	0.0102
668.283	0.0045
668.4675	0.0071
668.652	0.0005
668.8365	0.0035
669.0209	0.0079
669.2054	0.0104
669.3898	-0.0007
669.5742	0.0036
669.7586	0.0128
669.943	0.0121
670.1273	0.0101
670.3117	0.008
670.496	0.0042
670.6803	0.0101
670.8646	0.0034
671.0488	0.0012
671.2331	0.0036
671.4173	0.007
671.6015	-0.0016
671.7857	0.0077
671.9699	0.0028
672.1541	0.0041
672.3382	0.0055
672.5223	0.0032
672.7064	0.0064
672.8905	0.0048
673.0746	0.0076
673.2587	-0.0018
673.4427	0.0041
673.6267	0.0078
673.8107	-0.0005
673.9947	0.0074
674.1787	0.0052
674.3626	-0.0034
674.5465	0.0062
674.7304	0.0033
674.9143	0.0039
675.0982	0.0039
675.2821	-0.006
675.4659	0.0073
675.6497	0.0003
675.8335	-0.0015
676.0173	-0.0007
676.2011	0.0068
676.3849	0.0039
676.5686	-0.0021
676.7523	-0.0001
676.936	-0.003
677.1197	-0.0037
677.3034	-0.0081
677.487	0.0051
677.6706	0.0024
677.8542	0.0033
678.0378	0.0055
678.2214	0.0031
678.405	-0.0047
678.5885	-0.008
678.772	-0.0028
678.9555	-0.0017
679.139	-0.0028
679.3225	0.0003
679.5059	-0.0007
679.6894	-0.0016
679.8728	0.0008
680.0562	-0.0089
680.2395	-0.006
680.4229	-0.0083
680.6062	0.0067
680.7896	0.0028
680.9729	0.0007
681.1562	0.0079
681.3394	0.0021
681.5227	-0.0019
681.7059	-0.0016
681.8891	0.0099
682.0723	0.0096
682.2555	0.009
682.4387	0.0078
682.6218	-0.0012
682.805	0.0063
682.9881	0.0013
683.1712	0.007
683.3542	0.002
683.5373	0.0065
683.7203	-0.0021
683.9034	-0.0014
684.0864	-0.0072
684.2694	-0.0079
684.4523	-0.0013
684.6353	-0.0062
684.8182	0.0005
685.0011	-0.0089
685.184	0.0065
685.3669	0.0044
685.5498	0.0031
685.7326	0.0025
685.9154	-0.0028
686.0982	0.0055
686.281	0.0098
686.4638	0.0018
686.6465	-0.0057
686.8293	0.0015
687.012	-0
687.1947	-0.0073
687.3774	0.0053
687.56	-0.005
687.7427	0.0033
687.9253	-0.0113
688.1079	-0.0006
688.2905	-0.0009
688.4731	0.0045
688.6556	-0.0021
688.8382	0.0029
689.0207	0.001
689.2032	-0.0088
689.3857	-0.0069
689.5681	0.002
689.7506	-0.0002
689.933	-0.0006
690.1154	-0.0024
690.2978	-0.0032
690.4802	-0.0005
690.6626	-0.0141
690.8449	0.0027
691.0272	0.0005
691.2095	-0.0059
691.3918	-0.0005
691.5741	0.0025
691.7563	-0.0023
691.9386	0.0029
692.1208	0.0006
692.303	0.0069
692.4852	-0.0012
692.6673	0.0017
692.8495	0.0079
693.0316	0.0046
693.2137	0.0038
693.3958	0.0054
693.5778	0.0015
693.7599	0.0009
693.9419	-0.0067
694.1239	0.0005
694.3059	-0.0013
694.4879	0.0101
694.6699	0.0034
694.8518	0.0016
695.0337	-0.0046
695.2157	0.0047
695.3975	0.0001
695.5794	0.0085
695.7613	0.0077
695.9431	0.0017
696.1249	0.0116
696.3067	0.0114
696.4885	0.012
696.6703	0.0015
696.852	0.0012
697.0337	0.0137
697.2154	0.0126
697.3971	0.0083
697.5788	0.0083
697.7605	-0.0027
697.9421	0.0071
698.1237	0.0062
698.3053	0.0046
698.4869	0.0027
698.6685	-0.0048
698.85	0.0086
699.0315	0.0098
699.213	0.0008
699.3945	0.0008
699.576	0.0091
699.7575	0.004
699.9389	0.0053
700.1203	0.0013
700.3017	-0.0021
700.4831	-0.005
700.6645	-0.0066
700.8458	-0.004
701.0271	-0.0056
701.2084	0.0137
701.3897	-0.0016
701.571	0.0036
701.7523	-0.0062
701.9335	-0.0024
702.1147	0.0006
702.2959	0.0006
702.4771	-0.0001
702.6583	0.001
702.8394	0.0014
703.0205	0.0062
703.2016	-0.0042
703.3827	0.0032
703.5638	0.0104
703.7449	0.0134
703.9259	0.0158
704.1069	-0.0037
704.2879	0.0021
704.4689	0.0085
704.6499	0.01
704.8308	-0.0015
705.0117	0.0028
705.1927	0.0011
705.3735	-0.0049
705.5544	-0.0044
705.7353	-0.0047
705.9161	0.001
706.0969	-0.0052
706.2777	-0.0097
706.4585	-0.0032
706.6393	0.0068
706.82	-0.002
707.0007	0.002
707.1815	-0.0017
707.3621	0.0081
707.5428	-0.0004
707.7235	0.0052
707.9041	0.0076
708.0847	-0.0052
708.2653	-0.0057
708.4459	-0.004
708.6265	0.0021
708.807	0.0025
708.9875	0.0001
709.168	-0.0025
709.3485	-0.0029
709.529	-0.0082
709.7095	-0.0096
709.8899	-0.001
710.0703	-0.0134
710.2507	0.0033
710.4311	-0.0108
710.6115	-0.0078
710.7918	-0.0102
710.9721	0.0016
711.1524	-0.0079
711.3327	0.0031
711.513	0.0071
711.6932	0.0055
711.8735	0.0163
712.0537	0.0065
712.2339	0.003
712.4141	-0.0052
712.5942	-0.0067
712.7744	0.0025
712.9545	-0.0075
713.1346	-0.0055
713.3147	0.0036
713.4947	-0.0005
713.6748	0.0077
713.8548	-0.0036
714.0348	0.0044
714.2148	-0.0051
714.3948	0.0066
714.5748	-0.0033
714.7547	-0.0019
714.9346	0.0039
715.1145	-0.0016
715.2944	-0.0002
715.4743	0.0028
715.6541	-0.0036
715.834	0.0094
716.0138	-0.0012
716.1936	-0.0036
716.3733	-0.0045
716.5531	0.0098
716.7328	-0.0038
716.9126	-0.0048
717.0923	0.0062
717.2719	0.0002
717.4516	0.0105
717.6312	0.0047
717.8109	0.0059
717.9905	0.0004
718.1701	-0.0017
718.3496	0.0001
718.5292	0.0028
718.7087	0.0084
718.8882	0.0034
719.0677	0.0055
719.2472	0.0044
719.4267	0.0057
719.6061	0.0033
719.7856	0.0082
719.965	0.0131
720.1443	-0.0031
720.3237	0.014
720.5031	0.0003
720.6824	0.0072
720.8617	-0.0041
721.041	0.0031
721.2203	0.0086
721.3995	0.0046
721.5788	0.0033
721.758	0.0073
721.9372	-0.0008
722.1164	-0.0065
722.2956	0.0078
722.4747	-0.0024
722.6538	-0.0015
722.8329	0.0159
723.012	0.0029
723.1911	-0.0043
723.3702	-0.0024
723.5492	0.003
723.7282	-0.0079
723.9072	-0.0068
724.0862	-0.0106
724.2652	0.0048
724.4441	-0.0055
724.623	-0.0035
724.8019	-0.006
724.9808	-0.0028
725.1597	-0.0117
725.3385	0.003
725.5174	0.0003
725.6962	-0.0002
725.875	-0.0042
726.0538	0.0019
726.2325	0.0024
726.4112	0.0041
726.59	-0.0032
726.7687	-0.0072
726.9474	0.0062
727.126	-0.0032
727.3047	-0.0066
727.4833	0.0019
727.6619	-0.0052
727.8405	-0.0046
728.0191	-0.0042
728.1976	0.0066
728.3762	-0.0015
728.5547	-0.0051
728.7332	-0.0183
728.9116	-0.0046
729.0901	0.0016
729.2686	-0.0111
729.447	-0.0065
729.6254	-0.0052
729.8038	0.0002
729.9821	-0.0062
730.1605	0.0003
730.3388	-0.0012
730.5171	0.002
730.6954	-0.0029
730.8737	0.0066
731.0519	0.009
731.2302	0.009
731.4084	0.0085
731.5866	0.0075
731.7648	-0.0036
731.9429	-0.002
732.1211	-0.0119
732.2992	0.0033
732.4773	-0.0069
732.6554	-0.0007
732.8335	0.0057
733.0115	0.003
733.1896	0.0137
733.3676	-0.0047
733.5456	0.0042
733.7235	0.0069
733.9015	0.0075
734.0794	0.006
734.2574	-0.0043
734.4353	0.0027
734.6131	0.0084
734.791	-0.002
734.9689	0.0069
735.1467	0.0013
735.3245	-0.0015
735.5023	-0.0071
735.68	-0.0058
735.8578	0.0022
736.0355	-0.0134
736.2132	-0.0055
736.3909	-0.006
736.5686	-0.0129
736.7463	0.0031
736.9239	-0.0021
737.1015	-0.0076
737.2791	0.0025
737.4567	-0.0022
737.6343	-0.005
737.8118	0.0093
737.9894	-0.0033
738.1669	-0.0029
738.3444	0.0037
738.5218	0.0016
738.6993	0.001
738.8767	-0.0002
739.0541	0.0092
739.2315	-0.0102
739.4089	0.0028
739.5863	0.007
739.7636	0.0014
739.9409	-0.0014
740.1182	0.005
740.2955	0.0074
740.4728	0.002
740.65	-0.0016
740.8272	-0.0019
741.0044	-0.0003
741.1816	-0.0038
741.3588	0
741.5359	-0.0009
741.7131	-0.0097
741.8902	0.0036
742.0673	-0.0007
742.2444	-0.0144
742.4214	-0.0021
742.5985	0.0043
742.7755	-0.0016
742.9525	-0.0082
743.1295	-0.0062
743.3064	-0.0056
743.4834	0.0087
743.6603	0.0047
743.8372	0.0031
744.0141	0.0008
744.191	-0.0018
744.3678	0.0009
744.5446	0.0035
744.7215	0.0011
744.8982	-0.0026
745.075	-0.0098
745.2518	-0.0041
745.4285	-0.0011
745.6052	-0.0055
745.7819	-0.006
745.9586	-0.0102
746.1353	-0.0113
746.3119	-0.0094
746.4885	-0.012
746.6651	-0.0162
746.8417	-0.0159
747.0183	-0.015
747.1948	-0.0184
747.3714	-0.003
747.5479	-0.0135
747.7244	-0.0124
747.9008	0.0042
748.0773	0.0015
748.2537	-0.009
748.4301	-0.013
748.6065	-0.0066
748.7829	-0.0082
748.9593	-0.0151
749.1356	-0.0074
749.3119	-0.0025
749.4882	-0.0159
749.6645	0.0055
749.8408	-0.009
750.017	-0.0029
750.1933	-0.0061
750.3695	-0.0081
750.5457	0.0062
750.7218	-0.0034
750.898	0.0051
751.0741	-0.0062
751.2502	-0.0067
751.4263	-0.0065
751.6024	0.0037
751.7784	0.0002
751.9545	-0.0158
752.1305	-0.0021
752.3065	-0.0137
752.4825	-0.0012
752.6584	-0.002
752.8344	-0.0186
753.0103	-0.0138
753.1862	-0.0029
753.3621	-0.0077
753.5379	-0.009
753.7138	-0.0054
753.8896	-0.0071
754.0654	0.0051
754.2412	0.0054
754.417	0.0097
754.5927	-0.0087
754.7685	-0.002
754.9442	0.0094
755.1199	0.0122
755.2956	-0.004
755.4712	0.0094
755.6469	0.0017
755.8225	-0.0037
755.9981	-0.0006
756.1736	0.0056
756.3492	0.0056
756.5248	0.0013
756.7003	-0.0013
756.8758	0.0143
757.0513	-0.0053
757.2267	-0.0054
757.4022	0.0093
757.5776	0.0005
757.753	-0.0015
757.9284	-0.0045
758.1038	0.0046
758.2791	-0.0011
758.4545	-0.0129
758.6298	-0.001
758.8051	-0.0051
758.9803	-0.0001
759.1556	-0.0081
759.3308	-0.0109
759.506	0.0075
759.6812	-0.0014
759.8564	0.0071
760.0316	-0.0001
760.2067	0.0047
760.3819	0.0109
760.557	0.0154
760.732	0.0045
760.9071	-0.0132
761.0821	0.0014
761.2572	0.0075
761.4322	-0.0008
761.6072	-0.0058
761.7821	0.006
761.9571	-0.0001
762.132	0.0018
762.3069	-0.0136
762.4818	-0.0164
762.6567	-0.0088
762.8316	-0.0007
763.0064	-0.0016
763.1812	-0.0033
763.356	-0.0166
763.5308	-0.0034
763.7055	0.0083
763.8803	-0.0034
764.055	-0.0025
764.2297	-0.0102
764.4044	-0.0215
764.579	-0.0103
764.7537	-0.0181
764.9283	0.0068
765.1029	-0.0046
765.2775	-0.0049
765.4521	-0.0151
765.6266	-0.0095
765.8011	-0.0105
765.9756	-0.0036
766.1501	0.0065
766.3246	-0.0025
766.4991	-0.0133
766.6735	0.0033
766.8479	-0.0112
767.0223	-0.0073
767.1967	0.0064
767.371	-0.0012
767.5454	-0.0062
767.7197	-0.0016
767.894	-0.0056
768.0683	-0.0102
768.2425	0.0047
768.4168	0.0023
768.591	-0.0015
768.7652	-0.0062
768.9394	-0.0037
769.1135	-0.0016
769.2877	0.0057
769.4618	-0.0094
769.6359	-0.0095
769.81	-0.0014
769.984	-0.0009
770.1581	-0.0044
770.3321	0.0072
770.5061	-0.0058
770.6801	-0.0091
770.8541	-0.0071
771.028	-0.0022
771.202	-0.0124
771.3759	0.0036
771.5498	-0.0088
771.7236	0.0059
771.8975	0.0079
772.0713	0.0048
772.2451	-0.0012
772.4189	0.0117
772.5927	0.0119
772.7665	0.004
772.9402	-0.0069
773.1139	0.0036
773.2876	-0.0077
773.4613	-0.0026
773.635	0.0097
773.8086	-0.0168
773.9822	-0.0055
774.1558	-0.0057
774.3294	-0.0217
774.503	-0.0063
774.6765	0.0085
774.8501	0.0006
775.0236	0.0061
775.1971	0.0026
775.3705	-0.0046
775.544	0.0056
775.7174	-0.0125
775.8908	-0.002
776.0642	0.0017
776.2376	-0.0033
776.4109	-0.0116
776.5843	-0.0093
776.7576	-0.0018
776.9309	0.0039
777.1041	-0.0102
777.2774	0.0019
777.4506	-0.0083
777.6238	-0.0051
777.797	0.0046
777.9702	-0.0018
778.1434	-0.009
778.3165	-0.0097
778.4896	-0.0051
778.6627	0.0033
778.8358	-0.0112
779.0089	-0.0087
779.1819	0.001
779.3549	0.0127
779.5279	0.0052
779.7009	0.0073
779.8739	0.0075
780.0468	-0.0078
780.2197	-0.0026
780.3926	-0.0153
780.5655	-0.0079
780.7384	-0.0016
780.9112	-0.0053
781.0841	-0.0204
781.2569	0.0018
781.4297	-0.002
781.6024	0.0072
781.7752	-0.0078
781.9479	-0.0009
782.1206	-0.0141
782.2933	-0.0073
782.466	0.0036
782.6386	0.0038
782.8113	-0.0096
782.9839	0.0022
783.1565	0.018
783.329	-0.0013
783.5016	0.006
783.6741	0.0099
783.8466	-0.0041
784.0191	0.0127
784.1916	0.0114
784.3641	-0.0008
784.5365	0.0183
784.7089	0.0007
784.8813	-0.0077
785.0537	-0.0005
785.2261	-0.0067
785.3984	-0.008
785.5707	-0.0058
785.743	0.0019
785.9153	-0.0013
786.0876	-0.0077
786.2598	-0.0115
786.432	-0.0179
786.6042	0.0097
786.7764	-0.0096
786.9486	-0.011
787.1207	-0.0098
787.2928	-0.0097
787.4649	0.0027
787.637	-0.0002
787.8091	-0.0087
787.9811	-0.0022
788.1532	-0.0025
788.3252	0.0114
788.4972	-0.0096
788.6691	0.0099
788.8411	0.0065
789.013	-0.0137
789.1849	-0.0029
789.3568	0.0057
789.5287	-0.0001
789.7005	0.0019
789.8723	0.0024
790.0442	0.0098
790.2159	0.0037
790.3877	-0.0006
790.5595	-0.0117
790.7312	0.0072
790.9029	-0.0001
791.0746	-0.0022
791.2463	0.0005
791.4179	0.0013
791.5896	-0.0038
791.7612	-0.0006
791.9328	0.0131
792.1044	-0.0168
792.2759	-0.0157
792.4474	-0.0041
792.619	0.006
792.7905	0.006
792.9619	-0.0063
793.1334	0.0193
793.3048	0.0054
793.4762	-0.004
793.6476	0.0055
793.819	-0.0091
793.9904	0.0091
794.1617	-0.0024
794.333	0.0082
794.5043	-0.0057
794.6756	0.0027
794.8469	-0.0144
795.0181	0.0002
795.1893	-0.0072
795.3605	0.0056
795.5317	-0.001
795.7029	-0.0128
795.874	0.0009
796.0452	-0.0073
796.2163	-0.0045
796.3873	0.0067
796.5584	-0.0012
796.7294	-0.0026
796.9005	0.0002
797.0715	0.0009
797.2425	-0.0205
797.4134	0.0013
797.5844	0.0071
797.7553	-0.0135
797.9262	-0.003
798.0971	-0.0022
798.2679	-0.0197
798.4388	-0.0166
798.6096	-0.0052
798.7804	0.0004
798.9512	0.0044
799.122	-0.0028
799.2927	-0.0105
799.4635	0.0235
799.6342	-0.0223
799.8049	-0.0186
799.9755	-0.0091
800.1462	-0.0121
800.3168	0.012
800.4874	-0.0091
800.658	0.0125
800.8286	0.0113
800.9991	0.0067
801.1696	0.0109
801.3402	0.0045
801.5106	0.0066
801.6811	-0.0068
801.8516	0.0124
802.022	-0.0024
802.1924	0.0121
802.3628	0.006
802.5332	0.0089
802.7035	0.0298
802.8739	-0.005
803.0442	-0.0074
803.2145	0.0082
803.3847	-0.0077
803.555	0.0037
803.7252	-0.0229
803.8954	-0.0255
804.0656	-0.0208
804.2358	-0.0249
804.4059	0.0148
804.5761	-0.0065
804.7462	0.0105
804.9163	0.0058
805.0864	-0.0073
805.2564	-0.001
805.4264	0.0142
805.5965	-0.0035
805.7665	0.0236
805.9364	0.0073
806.1064	0.0376
806.2763	-0.022
806.4462	0.0201
806.6161	-0.011
806.786	0.0034
806.9559	0.0028
807.1257	-0.002
807.2955	-0.006
807.4653	-0.0145
807.6351	-0.0139
807.8048	-0.0041
807.9746	0.0067
808.1443	0.0031
808.314	0.0001
808.4837	0.0001
808.6533	-0.0013
808.8229	0.0046
808.9926	0.0043
809.1622	0.0073
809.3317	-0.0159
809.5013	0.0084
809.6708	0.015
809.8403	0.0078
810.0098	-0.0163
810.1793	0.0171
810.3488	0.0183
810.5182	-0.0219
810.6876	-0.0024
810.857	-0.002
811.0264	0.0098
811.1958	0.0058
811.3651	-0.0072
811.5344	-0.0088
811.7037	0.0145
811.873	-0.001
812.0422	-0.0151
812.2115	-0.0055
812.3807	-0.0139
812.5499	0.0071
812.7191	0.0278
812.8882	-0.0255
813.0574	0.0023
813.2265	0.0047
813.3956	-0.0082
813.5646	-0.0103
813.7337	-0.0136
813.9027	0.0198
814.0718	-0.0048
814.2407	0.0123
814.4097	-0.0166
814.5787	-0.0259
814.7476	-0.0027
814.9165	-0.0013
815.0854	-0.0072
815.2543	-0.0196
815.4232	-0.0133
815.592	0.0211
815.7608	-0.0318
815.9296	0.0211
816.0984	0.0069
816.2671	-0.0139
816.4359	-0.0047
816.6046	-0.008
816.7733	-0.0057
816.942	-0.0366
817.1106	-0.0121
817.2793	-0.0107
817.4479	0.0069
817.6165	-0.0063
817.785	0.0084
817.9536	-0.0254
818.1221	-0.0021
818.2906	-0.0062
818.4591	-0.0083
818.6276	-0.0168
818.7961	-0.009
818.9645	0.0004
819.1329	-0.0035
819.3013	0.017
819.4697	0.0193
819.638	-0.0074
819.8064	-0.0156
819.9747	0.011
820.143	0.0092
820.3113	-0.0184
820.4795	-0.0116
820.6477	0.0195
820.816	-0.0096
820.9842	0.0181
821.1523	-0.0274
821.3205	-0.0107
821.4886	-0.007
821.6567	0.015
821.8248	0.0239
821.9929	0.006
822.1609	-0.0047
822.329	0.0165
822.497	0.0111
822.665	-0.0146
822.833	0.0228
823.0009	0.0031
823.1688	0.0013
823.3367	0.0071
823.5046	0.0274
823.6725	0.0231
823.8404	-0.0199
824.0082	0.0041
824.176	0.0137
824.3438	-0.0034
824.5116	-0.0207
824.6793	0.0316
824.847	-0.0197
825.0147	0.0167
825.1824	0.0273
825.3501	0.0085
825.5177	-0.0143
825.6854	-0.0109
825.853	-0.0134
826.0206	-0.0429
826.1881	0.0137
826.3557	-0.0256
826.5232	-0.0046
826.6907	-0.0226
826.8582	-0.0158
827.0257	-0.031
827.1931	-0.032
827.3605	-0.0299
827.528	0.0158
827.6953	-0.0262
827.8627	-0.0181
828.03	0.0205
828.1974	0.003
828.3647	-0.0378
828.532	-0.0091
828.6992	-0.0008
828.8665	-0.0107
829.0337	0.0161
829.2009	0.0032
829.3681	-0.0289
829.5352	0.0368
829.7024	-0.0462
829.8695	-0.0152
830.0366	0.0097
830.2037	0.0079
830.3707	-0.0182
830.5378	-0.0035
830.7048	0.009
830.8718	-0.0358
831.0388	-0.0308
831.2057	0.0334
831.3727	0.0231
831.5396	-0.0154
831.7065	-0.0145
831.8734	0.0073
832.0402	-0.0252
832.2071	-0.0314
832.3739	-0.0427
832.5407	-0.0348
832.7075	-0.027
832.8742	-0.0172
833.041	-0.0225
833.2077	-0.0136
833.3744	-0.0126
833.541	-0.0244
833.7077	0.0015
833.8743	-0.0258
834.0409	0.0008
834.2075	0.0053
834.3741	-0.0203
834.5407	-0.0123
834.7072	-0.0316
834.8737	-0.0018
835.0402	0.0174
835.2067	0.0265
835.3731	-0.0083
835.5395	0.0099
835.706	0.0221
835.8723	-0.0132
836.0387	0.0063
836.2051	-0.0254
836.3714	-0.0211
836.5377	-0.0166
836.704	-0.0254
836.8703	0.0281
837.0365	-0.0239
837.2027	-0.0102
837.3689	0.0064
837.5351	0.0003
837.7013	-0.0098
837.8674	-0.0773
838.0335	-0.0691
838.1997	-0.0078
838.3657	-0.0457
838.5318	-0.048
838.6978	0.027
838.8639	0.0062
839.0299	-0.0074
839.1958	-0.0307
839.3618	-0.0223
839.5277	-0.0107
839.6937	-0.0167
839.8596	-0.0087
840.0254	-0.0063
840.1913	0.0267
840.3571	0.0074
840.523	0.0249
840.6888	0.006
840.8545	-0.0573
841.0203	0.0003
841.186	-0.0023
841.3517	0.0546
841.5174	-0.0219
841.6831	-0.0262
841.8488	0.0215
842.0144	0.0105
842.18	0.0325
842.3456	0.0793
842.5112	-0.0077
842.6767	-0.0075
842.8422	-0.052
843.0077	-0.0276
843.1732	-0.0212
843.3387	-0.0292
843.5042	-0.0333
843.6696	0.0227
843.835	-0.0238
844.0004	0.0152
844.1657	0.0458
844.3311	-0.0623
844.4964	-0.0753
844.6617	-0.037
844.827	-0.0521
844.9923	-0.041
845.1575	0.0261
845.3227	0.0133
845.4879	-0.0475
845.6531	0.0168
845.8183	-0.1219
845.9834	-0.0008
846.1485	-0.0431
846.3136	-0.0633
846.4787	-0.1114
846.6438	0.0917
846.8088	-0.0795
846.9738	-0.1002
847.1388	-0.0009
847.3038	0.0097
847.4687	-0.1777
847.6337	-0.0047
847.7986	-0.0178
847.9635	-0.0848
848.1284	0.0272
848.2932	0.0654
848.458	-0.0701
848.6228	0.0262
848.7876	-0.0093
848.9524	-0.0838
849.1172	-0.0299
849.2819	-0.0078
849.4466	-0.0952
849.6113	-0.1049
849.7759	0.0191
849.9406	-0.0325
850.1052	-0.0317
850.2698	-0.0529
850.4344	0.0484
850.599	-0.0045
850.7635	0.1246
850.928	0.007
851.0925	-0.0569
851.257	0.0493
851.4215	-0.001
851.5859	0.0051
851.7503	0.0098
851.9147	-0.0858
852.0791	-0.0777
852.2434	-0.0069
852.4078	0.0192
852.5721	0.0593
852.7364	-0.0619
852.9007	-0.1993
853.0649	0.1438
853.2291	-0.042
853.3934	0.0101
853.5575	-0.0285
853.7217	-0.1108
853.8859	-0.1379
854.05	-0.1754
854.2141	-0.0797
854.3782	-0.1429
854.5423	-0.046
854.7063	0.0714
854.8703	-0.0704
855.0343	-0.0766
855.1983	-0.2115
855.3623	0.0511
855.5262	-0.0258
855.6901	-0.0972
855.854	0.0197
856.0179	0.147
856.1818	0.1573
856.3456	-0.0501
856.5094	-0.1008
856.6732	-0.1442
856.837	-0.006
857.0008	-0.0074
857.1645	-0.0843
857.3282	-0.1943
857.4919	0.0894
857.6556	0.0224
857.8192	-0.0574
857.9828	-0.0345
858.1465	-0.0216
858.31	-0.1128
858.4736	-0.1811
858.6372	-0.3495
858.8007	-0.2103
858.9642	-0.0336
859.1277	0.079
859.2911	0.0663
859.4546	-0.04
859.618	-0.1913
859.7814	-0.129
859.9448	-0.0239
860.1081	-0.1885
860.2715	-0.0068
860.4348	0.5327
860.5981	-0.1352
860.7614	0.1028
860.9246	-0.3218
861.0879	-0.2409
861.2511	0.0712
861.4143	-0.1165
861.5774	0.3759
861.7406	-0.099
861.9037	-0.0332
862.0668	-0.0989
862.2299	-0.2022
862.393	-0.63
862.556	0.2013
862.7191	-0.0616
862.8821	-0.2155
863.0451	-0.03
863.208	-0.023
863.371	-0.1259
863.5339	-0.3907
863.6968	-0.0407
863.8597	-0.2433
864.0225	-0.232
864.1854	0.1285
864.3482	-0.3599
864.511	0.2573
864.6737	0.0437
864.8365	0.1131
864.9992	-0.7602
865.1619	-0.2947
865.3246	0.2283
865.4873	0.0271
865.65	-0.2564
865.8126	0.0442
865.9752	0.0855
866.1378	-0.0419
866.3004	0.1546
866.4629	0.0645
866.6254	-0.1987
866.7879	0.1005
866.9504	-0.0402
867.1129	-0
867.2753	0.0166
867.4377	0.2904
867.6001	0.1828
867.7625	-0.0747
867.9249	0.2278
868.0872	-0.1498
868.2495	-0.0902
868.4118	-0.4685
868.5741	-0.5258
868.7363	0.1063
868.8986	-0.4205
869.0608	-0.3268
869.223	0.2606
869.3851	0.6818
869.5473	-0
869.7094	0.3575
869.8715	-0.1898
870.0336	-0.7286
870.1957	-0.4957
870.3577	-0.5921
870.5197	-0.253
870.6817	-0.2286
870.8437	-0.1442
871.0057	-0
871.1676	-0
871.3295	-0.1358
871.4914	-0.6204
871.6533	-0.4698
871.8151	-0.5536
871.977	-0
872.1388	-0
872.3006	-0.2925
872.4623	-0.3078
872.6241	0.6006
872.7858	0.3665
872.9475	-0.0336
873.1092	-0.1278
873.2709	-0
873.4325	-0.2085
873.5941	-0.5939
873.7557	-0
873.9173	0.827
874.0789	-0.0252
874.2404	-0.253
874.4019	0.3973
874.5634	-0.0982
874.7249	0.0521
874.8863	-0.0776
875.0478	-0.0776
875.2092	-0
875.3706	-0.1318
875.5319	-0.5842
875.6933	0.2073
875.8546	-0
876.0159	-0
876.1772	0.1342
876.3385	-0
876.4997	0.7439
876.6609	-0.4264
876.8221	0.1227
876.9833	0.1711
877.1445	-0
877.3056	0.5057
877.4667	0.4001
877.6278	-0
877.7889	-0.4328
877.9499	-0
878.111	-0
878.272	-0.996
878.433	-0
878.5939	-0
878.7549	-0.2258
878.9158	0.45
879.0767	0.3234
879.2376	0.0211
879.3984	-0.613
879.5593	-0
879.7201	0.7924
879.8809	-0.8895
880.0417	-0.1165
880.2024	-0
880.3632	-1.1241
880.5239	0.0085
880.6846	0.089
880.8452	-2.4579
881.0059	-0
881.1665	-0
881.3271	-0.0527
881.4877	-0.582
881.6483	-0.4348
881.8088	-0.4513
881.9693	-0
882.1298	-0
882.2903	-0
