Data from MonoPyChalIsomerACN10uM350nmA_Absorbance_14-35-36-515.txt Node
Date: Fri Jul 05 14:35:36 BST 2024
User: LASERRRRR
Spectrometer: FLMT03099
Trigger mode: 0
Integration Time (sec): 1.000000E-1
Scans to average: 1
Electric dark correction enabled: true
Nonlinearity correction enabled: false
Boxcar width: 0
XAxis mode: Wavelengths
Number of Pixels in Spectrum: 3648
>>>>>Begin Spectral Data<<<<<
179.3399	-0.2196
179.5586	-0.2196
179.7771	-0.2196
179.9957	-0
180.2143	-0
180.4329	-0.2635
180.6514	0.9841
180.8699	0.0586
181.0885	0.1773
181.307	-0.0463
181.5255	-0.8826
181.744	-0.6682
181.9625	-0
182.181	-0
182.3994	0.812
182.6179	0.5153
182.8363	0.5366
183.0547	-0.0687
183.2732	0.0648
183.4916	0.1779
183.71	0.0585
183.9284	0.7414
184.1467	-0.1648
184.3651	-0.0141
184.5835	-0.1818
184.8018	-0.1013
185.0201	0.0408
185.2385	0.0051
185.4568	0.1573
185.6751	-0.0693
185.8934	0.4337
186.1117	0.0731
186.3299	0.1668
186.5482	0.0676
186.7664	-0.0662
186.9847	-0.112
187.2029	0.1742
187.4211	0.1195
187.6393	0.0053
187.8575	-0.1817
188.0757	0.2073
188.2939	0.1922
188.512	-0.0309
188.7302	-0.1218
188.9483	-0.0864
189.1665	0.1789
189.3846	-0.0366
189.6027	0.1364
189.8208	0.2629
190.0389	0.1356
190.257	0.1864
190.475	0.2281
190.6931	0.307
190.9111	0.3243
191.1292	0.0846
191.3472	0.4667
191.5652	0.2498
191.7832	0.1616
192.0012	0.6509
192.2192	0.3183
192.4371	0.561
192.6551	0.4827
192.873	0.3761
193.091	0.2642
193.3089	0.6074
193.5268	0.2195
193.7447	0.5679
193.9626	0.4845
194.1805	0.5449
194.3984	0.8209
194.6162	0.5641
194.8341	0.6149
195.0519	0.5262
195.2697	0.79
195.4875	0.7552
195.7054	0.7607
195.9231	0.5514
196.1409	0.5801
196.3587	0.7742
196.5765	0.5165
196.7942	0.4738
197.012	0.5657
197.2297	0.6482
197.4474	0.647
197.6651	0.6366
197.8828	0.5453
198.1005	0.4982
198.3182	0.4785
198.5358	0.7447
198.7535	0.6183
198.9711	0.4971
199.1888	0.623
199.4064	0.708
199.624	0.5349
199.8416	0.5714
200.0592	0.6604
200.2767	0.6401
200.4943	0.6639
200.7119	0.8529
200.9294	0.5606
201.1469	0.538
201.3645	0.5444
201.582	0.5737
201.7995	0.646
202.017	0.5432
202.2344	0.6607
202.4519	0.6586
202.6694	0.6962
202.8868	0.6233
203.1042	0.6964
203.3217	0.6803
203.5391	0.6937
203.7565	0.5722
203.9739	0.5979
204.1913	0.571
204.4086	0.6564
204.626	0.6836
204.8433	0.6149
205.0607	0.5801
205.278	0.672
205.4953	0.5868
205.7126	0.6575
205.9299	0.7238
206.1472	0.6488
206.3644	0.604
206.5817	0.6143
206.7989	0.775
207.0162	0.6193
207.2334	0.6393
207.4506	0.6146
207.6678	0.5817
207.885	0.6424
208.1022	0.7086
208.3194	0.6037
208.5365	0.6583
208.7537	0.6231
208.9708	0.4885
209.1879	0.6188
209.405	0.7748
209.6222	0.612
209.8392	0.6562
210.0563	0.6069
210.2734	0.6625
210.4905	0.569
210.7075	0.6177
210.9245	0.6092
211.1416	0.7314
211.3586	0.6981
211.5756	0.6256
211.7926	0.5429
212.0096	0.5682
212.2265	0.5788
212.4435	0.5164
212.6604	0.5949
212.8774	0.573
213.0943	0.6222
213.3112	0.5528
213.5281	0.4905
213.745	0.4768
213.9619	0.481
214.1788	0.4172
214.3956	0.4263
214.6125	0.4807
214.8293	0.4567
215.0461	0.4852
215.2629	0.4969
215.4798	0.462
215.6965	0.4198
215.9133	0.461
216.1301	0.4318
216.3469	0.4681
216.5636	0.4029
216.7803	0.3717
216.9971	0.4199
217.2138	0.3537
217.4305	0.3918
217.6472	0.3576
217.8639	0.3845
218.0805	0.3471
218.2972	0.3107
218.5138	0.3336
218.7305	0.3036
218.9471	0.3112
219.1637	0.2997
219.3803	0.3012
219.5969	0.2716
219.8135	0.2587
220.0301	0.2561
220.2466	0.267
220.4632	0.2667
220.6797	0.2249
220.8962	0.2353
221.1127	0.2603
221.3292	0.2593
221.5457	0.2395
221.7622	0.2445
221.9787	0.2537
222.1951	0.2451
222.4116	0.2587
222.628	0.2592
222.8444	0.26
223.0608	0.2473
223.2772	0.2401
223.4936	0.2901
223.71	0.2572
223.9264	0.2623
224.1427	0.2609
224.3591	0.2329
224.5754	0.2823
224.7917	0.2722
225.008	0.2607
225.2243	0.263
225.4406	0.2937
225.6569	0.2714
225.8732	0.2622
226.0894	0.2611
226.3057	0.2498
226.5219	0.2925
226.7381	0.2661
226.9543	0.2796
227.1705	0.2849
227.3867	0.2695
227.6029	0.3065
227.8191	0.3011
228.0352	0.2799
228.2513	0.3125
228.4675	0.3238
228.6836	0.3067
228.8997	0.2996
229.1158	0.3084
229.3319	0.3056
229.548	0.3094
229.764	0.3227
229.9801	0.329
230.1961	0.3199
230.4121	0.3242
230.6282	0.3327
230.8442	0.3268
231.0602	0.3677
231.2761	0.3514
231.4921	0.3307
231.7081	0.347
231.924	0.3443
232.14	0.3583
232.3559	0.3451
232.5718	0.3488
232.7877	0.3641
233.0036	0.3443
233.2195	0.358
233.4353	0.3624
233.6512	0.3577
233.867	0.3596
234.0829	0.357
234.2987	0.3551
234.5145	0.3713
234.7303	0.372
234.9461	0.3998
235.1619	0.3678
235.3776	0.3684
235.5934	0.3769
235.8091	0.3642
236.0249	0.3784
236.2406	0.3678
236.4563	0.3903
236.672	0.3952
236.8877	0.3809
237.1034	0.4078
237.319	0.3899
237.5347	0.4141
237.7503	0.4063
237.966	0.4011
238.1816	0.4025
238.3972	0.4064
238.6128	0.4109
238.8284	0.422
239.0439	0.4121
239.2595	0.4022
239.475	0.4251
239.6906	0.4139
239.9061	0.4189
240.1216	0.4263
240.3371	0.4177
240.5526	0.3808
240.7681	0.4174
240.9836	0.379
241.199	0.399
241.4145	0.3997
241.6299	0.3756
241.8453	0.3685
242.0607	0.3911
242.2761	0.3651
242.4915	0.3669
242.7069	0.3613
242.9223	0.3383
243.1376	0.3545
243.353	0.3504
243.5683	0.3571
243.7836	0.3327
243.9989	0.3366
244.2142	0.3159
244.4295	0.3168
244.6448	0.31
244.86	0.3017
245.0753	0.282
245.2905	0.2854
245.5057	0.2686
245.721	0.271
245.9362	0.2703
246.1514	0.2658
246.3665	0.2619
246.5817	0.2585
246.7969	0.2519
247.012	0.244
247.2271	0.2423
247.4423	0.2523
247.6574	0.25
247.8725	0.2341
248.0876	0.2339
248.3026	0.227
248.5177	0.216
248.7328	0.2121
248.9478	0.21
249.1628	0.2188
249.3779	0.2142
249.5929	0.1995
249.8079	0.2225
250.0228	0.1902
250.2378	0.2079
250.4528	0.1996
250.6677	0.1851
250.8827	0.1951
251.0976	0.1939
251.3125	0.184
251.5274	0.1807
251.7423	0.1901
251.9572	0.187
252.172	0.1797
252.3869	0.1901
252.6017	0.1874
252.8166	0.1789
253.0314	0.1666
253.2462	0.1757
253.461	0.1756
253.6758	0.1778
253.8906	0.1876
254.1053	0.1694
254.3201	0.1776
254.5348	0.1773
254.7496	0.1743
254.9643	0.1729
255.179	0.168
255.3937	0.1584
255.6083	0.1687
255.823	0.1865
256.0377	0.155
256.2523	0.1754
256.467	0.1562
256.6816	0.1811
256.8962	0.1635
257.1108	0.1598
257.3254	0.1782
257.54	0.1559
257.7545	0.1764
257.9691	0.1796
258.1836	0.165
258.3981	0.1736
258.6127	0.173
258.8272	0.1642
259.0417	0.1734
259.2561	0.1639
259.4706	0.1727
259.6851	0.1689
259.8995	0.1642
260.114	0.1651
260.3284	0.1714
260.5428	0.1635
260.7572	0.1668
260.9716	0.1733
261.186	0.1609
261.4003	0.1589
261.6147	0.1672
261.829	0.1712
262.0433	0.167
262.2577	0.1563
262.472	0.1778
262.6863	0.1641
262.9005	0.1716
263.1148	0.173
263.3291	0.1514
263.5433	0.1666
263.7576	0.161
263.9718	0.1527
264.186	0.1583
264.4002	0.1483
264.6144	0.1585
264.8286	0.1718
265.0427	0.1677
265.2569	0.1571
265.471	0.1608
265.6851	0.1553
265.8993	0.1596
266.1134	0.1478
266.3275	0.1679
266.5415	0.1577
266.7556	0.1609
266.9697	0.1745
267.1837	0.1712
267.3978	0.1621
267.6118	0.1771
267.8258	0.168
268.0398	0.1557
268.2538	0.175
268.4677	0.1617
268.6817	0.1574
268.8957	0.169
269.1096	0.1616
269.3235	0.1644
269.5374	0.1443
269.7514	0.1523
269.9652	0.1556
270.1791	0.1532
270.393	0.1417
270.6068	0.1604
270.8207	0.1391
271.0345	0.1469
271.2483	0.1458
271.4622	0.1441
271.676	0.1561
271.8897	0.1333
272.1035	0.1446
272.3173	0.14
272.531	0.1414
272.7448	0.1451
272.9585	0.1472
273.1722	0.151
273.3859	0.1559
273.5996	0.1275
273.8133	0.1432
274.0269	0.144
274.2406	0.1381
274.4542	0.1354
274.6679	0.1293
274.8815	0.1386
275.0951	0.1532
275.3087	0.1447
275.5223	0.1488
275.7358	0.1495
275.9494	0.1419
276.1629	0.1498
276.3765	0.1467
276.59	0.1467
276.8035	0.1441
277.017	0.1485
277.2305	0.1466
277.444	0.1526
277.6574	0.1437
277.8709	0.1554
278.0843	0.1295
278.2978	0.1378
278.5112	0.1476
278.7246	0.1399
278.938	0.1435
279.1513	0.1471
279.3647	0.1529
279.5781	0.1456
279.7914	0.143
280.0047	0.1558
280.2181	0.1472
280.4314	0.1485
280.6447	0.1495
280.8579	0.1448
281.0712	0.1576
281.2845	0.1613
281.4977	0.1542
281.711	0.1424
281.9242	0.1434
282.1374	0.1647
282.3506	0.1476
282.5638	0.1434
282.7769	0.1459
282.9901	0.1611
283.2033	0.1545
283.4164	0.1652
283.6295	0.1484
283.8426	0.1454
284.0557	0.1657
284.2688	0.1661
284.4819	0.1665
284.695	0.158
284.908	0.1614
285.1211	0.1489
285.3341	0.1575
285.5471	0.1584
285.7601	0.15
285.9731	0.1612
286.1861	0.1587
286.3991	0.1647
286.612	0.1671
286.825	0.1644
287.0379	0.1624
287.2508	0.1656
287.4637	0.1656
287.6766	0.1399
287.8895	0.1698
288.1024	0.1764
288.3152	0.1713
288.5281	0.1624
288.7409	0.1745
288.9538	0.1649
289.1666	0.155
289.3794	0.1604
289.5922	0.1565
289.8049	0.158
290.0177	0.1644
290.2304	0.1651
290.4432	0.1627
290.6559	0.1587
290.8686	0.1732
291.0813	0.1598
291.294	0.1766
291.5067	0.1708
291.7194	0.1764
291.932	0.171
292.1447	0.1637
292.3573	0.1532
292.5699	0.1595
292.7825	0.1718
292.9951	0.1579
293.2077	0.1765
293.4203	0.1579
293.6328	0.1544
293.8454	0.1734
294.0579	0.1662
294.2704	0.1667
294.4829	0.1612
294.6954	0.1611
294.9079	0.1652
295.1204	0.1588
295.3328	0.1642
295.5453	0.1739
295.7577	0.1676
295.9701	0.1572
296.1825	0.1652
296.3949	0.1583
296.6073	0.1561
296.8197	0.153
297.0321	0.1711
297.2444	0.1577
297.4567	0.1727
297.6691	0.1619
297.8814	0.1577
298.0937	0.176
298.306	0.1728
298.5182	0.1646
298.7305	0.1604
298.9428	0.1619
299.155	0.161
299.3672	0.1626
299.5794	0.1508
299.7916	0.1653
300.0038	0.176
300.216	0.1614
300.4282	0.1665
300.6403	0.1613
300.8525	0.17
301.0646	0.1601
301.2767	0.1738
301.4888	0.1529
301.7009	0.1586
301.913	0.1648
302.125	0.1673
302.3371	0.1664
302.5491	0.1654
302.7612	0.164
302.9732	0.1752
303.1852	0.1653
303.3972	0.1619
303.6092	0.1567
303.8211	0.1562
304.0331	0.1527
304.245	0.1565
304.457	0.1484
304.6689	0.1461
304.8808	0.1715
305.0927	0.1505
305.3046	0.1492
305.5164	0.1667
305.7283	0.1422
305.9401	0.1567
306.152	0.1457
306.3638	0.1591
306.5756	0.1517
306.7874	0.1475
306.9992	0.1443
307.2109	0.1443
307.4227	0.1254
307.6344	0.1489
307.8462	0.1347
308.0579	0.1368
308.2696	0.1402
308.4813	0.1368
308.693	0.143
308.9046	0.1343
309.1163	0.1309
309.328	0.1242
309.5396	0.1342
309.7512	0.1263
309.9628	0.1223
310.1744	0.1178
310.386	0.1215
310.5976	0.1243
310.8091	0.1208
311.0207	0.1172
311.2322	0.1292
311.4437	0.1082
311.6552	0.1113
311.8667	0.1201
312.0782	0.0968
312.2897	0.1034
312.5012	0.1098
312.7126	0.1123
312.924	0.108
313.1355	0.1139
313.3469	0.1071
313.5583	0.1124
313.7696	0.1057
313.981	0.1035
314.1924	0.1095
314.4037	0.106
314.6151	0.1156
314.8264	0.101
315.0377	0.0961
315.249	0.102
315.4603	0.1133
315.6716	0.0999
315.8828	0.0934
316.0941	0.1073
316.3053	0.1034
316.5165	0.095
316.7277	0.0952
316.9389	0.0996
317.1501	0.0973
317.3613	0.0981
317.5724	0.0943
317.7836	0.1012
317.9947	0.0956
318.2058	0.096
318.417	0.0926
318.6281	0.0825
318.8391	0.0864
319.0502	0.108
319.2613	0.0955
319.4723	0.0954
319.6834	0.1035
319.8944	0.1001
320.1054	0.1018
320.3164	0.11
320.5274	0.0899
320.7383	0.0927
320.9493	0.1039
321.1602	0.1024
321.3712	0.0855
321.5821	0.1008
321.793	0.1021
322.0039	0.1013
322.2148	0.0943
322.4257	0.1045
322.6365	0.0978
322.8474	0.1045
323.0582	0.0928
323.269	0.1003
323.4798	0.1
323.6906	0.1084
323.9014	0.1003
324.1122	0.1029
324.3229	0.0997
324.5337	0.0906
324.7444	0.0942
324.9551	0.1114
325.1658	0.1014
325.3765	0.0944
325.5872	0.1067
325.7979	0.095
326.0085	0.118
326.2192	0.1029
326.4298	0.0981
326.6404	0.0979
326.851	0.1012
327.0616	0.093
327.2722	0.1082
327.4828	0.1024
327.6933	0.0996
327.9039	0.1116
328.1144	0.1161
328.3249	0.1096
328.5354	0.0972
328.7459	0.1092
328.9564	0.1059
329.1669	0.1064
329.3773	0.1125
329.5878	0.1028
329.7982	0.1111
330.0086	0.107
330.219	0.1128
330.4294	0.1066
330.6398	0.1112
330.8502	0.0997
331.0605	0.1125
331.2708	0.1039
331.4812	0.1062
331.6915	0.1085
331.9018	0.1015
332.1121	0.0986
332.3224	0.1098
332.5326	0.1094
332.7429	0.1104
332.9531	0.1112
333.1633	0.1034
333.3735	0.1065
333.5837	0.1053
333.7939	0.1051
334.0041	0.1224
334.2143	0.1118
334.4244	0.1111
334.6346	0.0999
334.8447	0.1223
335.0548	0.0998
335.2649	0.1143
335.475	0.1133
335.685	0.1089
335.8951	0.1224
336.1051	0.11
336.3152	0.1201
336.5252	0.1042
336.7352	0.1125
336.9452	0.11
337.1552	0.1091
337.3652	0.1126
337.5751	0.1134
337.7851	0.1133
337.995	0.104
338.2049	0.1283
338.4148	0.1087
338.6247	0.1105
338.8346	0.1001
339.0445	0.1082
339.2543	0.1098
339.4642	0.1121
339.674	0.1031
339.8838	0.1231
340.0936	0.1171
340.3034	0.1244
340.5132	0.1214
340.7229	0.1055
340.9327	0.1153
341.1424	0.1156
341.3522	0.1235
341.5619	0.1188
341.7716	0.1113
341.9813	0.1295
342.1909	0.1151
342.4006	0.1349
342.6102	0.1255
342.8199	0.1247
343.0295	0.1178
343.2391	0.1272
343.4487	0.1323
343.6583	0.1071
343.8679	0.119
344.0774	0.1264
344.287	0.124
344.4965	0.1312
344.706	0.1246
344.9155	0.1204
345.125	0.1159
345.3345	0.1319
345.544	0.118
345.7534	0.129
345.9629	0.1218
346.1723	0.124
346.3817	0.1311
346.5911	0.1296
346.8005	0.1358
347.0099	0.1343
347.2193	0.1336
347.4286	0.1289
347.638	0.1375
347.8473	0.1387
348.0566	0.1505
348.2659	0.1392
348.4752	0.142
348.6845	0.1202
348.8937	0.1333
349.103	0.1327
349.3122	0.1226
349.5214	0.1317
349.7306	0.1454
349.9398	0.1383
350.149	0.1375
350.3582	0.1319
350.5674	0.1437
350.7765	0.1325
350.9856	0.1434
351.1948	0.1427
351.4039	0.1368
351.613	0.1327
351.822	0.1477
352.0311	0.1521
352.2402	0.1451
352.4492	0.1606
352.6582	0.1491
352.8672	0.1437
353.0762	0.1393
353.2852	0.1496
353.4942	0.1211
353.7032	0.1505
353.9121	0.1464
354.1211	0.1523
354.33	0.1528
354.5389	0.1541
354.7478	0.1563
354.9567	0.1468
355.1655	0.1438
355.3744	0.1597
355.5833	0.1698
355.7921	0.1748
356.0009	0.1557
356.2097	0.1559
356.4185	0.1656
356.6273	0.1557
356.8361	0.1731
357.0448	0.1583
357.2536	0.1341
357.4623	0.1513
357.671	0.1636
357.8797	0.1774
358.0884	0.1731
358.2971	0.1646
358.5057	0.1673
358.7144	0.1694
358.923	0.1652
359.1316	0.1689
359.3402	0.179
359.5488	0.1693
359.7574	0.1822
359.966	0.1809
360.1746	0.1742
360.3831	0.1846
360.5916	0.1759
360.8002	0.1667
361.0087	0.1875
361.2172	0.1793
361.4256	0.1885
361.6341	0.1903
361.8426	0.1759
362.051	0.1801
362.2594	0.1778
362.4678	0.1803
362.6762	0.1986
362.8846	0.1982
363.093	0.1831
363.3014	0.1909
363.5097	0.1728
363.718	0.169
363.9264	0.1967
364.1347	0.1892
364.343	0.2025
364.5513	0.1993
364.7595	0.2051
364.9678	0.2107
365.176	0.2074
365.3842	0.1943
365.5925	0.1927
365.8007	0.2026
366.0089	0.2052
366.217	0.1813
366.4252	0.2081
366.6333	0.2194
366.8415	0.2101
367.0496	0.1968
367.2577	0.2242
367.4658	0.2124
367.6739	0.1985
367.882	0.2152
368.09	0.2096
368.2981	0.2122
368.5061	0.2098
368.7141	0.2191
368.9221	0.2142
369.1301	0.2162
369.3381	0.2045
369.5461	0.2201
369.754	0.212
369.962	0.2249
370.1699	0.2108
370.3778	0.2332
370.5857	0.2093
370.7936	0.2223
371.0015	0.2098
371.2093	0.2344
371.4172	0.2251
371.625	0.2119
371.8328	0.2147
372.0406	0.2251
372.2484	0.2243
372.4562	0.2282
372.664	0.2116
372.8717	0.2265
373.0795	0.2047
373.2872	0.2261
373.4949	0.2264
373.7026	0.2263
373.9103	0.2422
374.118	0.2274
374.3256	0.2084
374.5333	0.2162
374.7409	0.2326
374.9485	0.2413
375.1561	0.2405
375.3637	0.2411
375.5713	0.2305
375.7789	0.24
375.9864	0.2377
376.194	0.218
376.4015	0.2462
376.609	0.2342
376.8165	0.2408
377.024	0.2285
377.2315	0.2254
377.4389	0.2427
377.6464	0.244
377.8538	0.2591
378.0612	0.2397
378.2686	0.2568
378.476	0.256
378.6834	0.2646
378.8908	0.2547
379.0981	0.2388
379.3055	0.2544
379.5128	0.2392
379.7201	0.2511
379.9274	0.2481
380.1347	0.2459
380.342	0.2723
380.5492	0.2606
380.7565	0.2648
380.9637	0.2555
381.1709	0.248
381.3781	0.2542
381.5853	0.2618
381.7925	0.27
381.9997	0.2549
382.2068	0.2524
382.4139	0.2656
382.6211	0.2426
382.8282	0.253
383.0353	0.2645
383.2424	0.2451
383.4494	0.2529
383.6565	0.2513
383.8635	0.2546
384.0706	0.2482
384.2776	0.2561
384.4846	0.233
384.6916	0.2715
384.8986	0.2437
385.1055	0.278
385.3125	0.253
385.5194	0.2534
385.7263	0.266
385.9333	0.2552
386.1402	0.2477
386.347	0.2645
386.5539	0.2445
386.7608	0.2517
386.9676	0.2569
387.1744	0.2674
387.3813	0.2596
387.5881	0.2789
387.7948	0.2531
388.0016	0.2446
388.2084	0.2494
388.4151	0.2472
388.6219	0.2486
388.8286	0.2514
389.0353	0.2684
389.242	0.2522
389.4487	0.2446
389.6553	0.2526
389.862	0.2265
390.0686	0.2416
390.2753	0.2358
390.4819	0.2519
390.6885	0.2372
390.8951	0.2367
391.1016	0.2475
391.3082	0.2288
391.5147	0.2488
391.7213	0.2395
391.9278	0.2206
392.1343	0.2299
392.3408	0.2505
392.5473	0.2319
392.7537	0.2429
392.9602	0.2324
393.1666	0.247
393.373	0.2388
393.5794	0.2538
393.7858	0.2222
393.9922	0.2424
394.1986	0.2178
394.4049	0.2287
394.6113	0.2153
394.8176	0.2116
395.0239	0.2225
395.2302	0.2186
395.4365	0.2254
395.6428	0.225
395.8491	0.2138
396.0553	0.219
396.2615	0.2331
396.4678	0.2036
396.674	0.2065
396.8802	0.2192
397.0863	0.226
397.2925	0.2007
397.4987	0.2133
397.7048	0.2117
397.9109	0.2199
398.117	0.2052
398.3231	0.2155
398.5292	0.2268
398.7353	0.2186
398.9413	0.2125
399.1474	0.214
399.3534	0.2091
399.5594	0.2027
399.7654	0.2288
399.9714	0.2201
400.1774	0.1983
400.3833	0.207
400.5893	0.2159
400.7952	0.2188
401.0011	0.2098
401.207	0.228
401.4129	0.2086
401.6188	0.2166
401.8247	0.2106
402.0305	0.2065
402.2364	0.2028
402.4422	0.2038
402.648	0.2156
402.8538	0.2296
403.0596	0.21
403.2654	0.2223
403.4711	0.2173
403.6768	0.2098
403.8826	0.2211
404.0883	0.2072
404.294	0.2272
404.4997	0.2239
404.7054	0.1972
404.911	0.1943
405.1167	0.2181
405.3223	0.2207
405.5279	0.2143
405.7335	0.2284
405.9391	0.2248
406.1447	0.2305
406.3502	0.2294
406.5558	0.2078
406.7613	0.2165
406.9668	0.2044
407.1724	0.2284
407.3778	0.1997
407.5833	0.2142
407.7888	0.2206
407.9942	0.2286
408.1997	0.2041
408.4051	0.2152
408.6105	0.2083
408.8159	0.2057
409.0213	0.2078
409.2267	0.2176
409.432	0.205
409.6374	0.2211
409.8427	0.2265
410.048	0.2215
410.2533	0.2134
410.4586	0.2087
410.6639	0.2173
410.8691	0.2023
411.0744	0.2141
411.2796	0.2036
411.4848	0.2128
411.69	0.2077
411.8952	0.2343
412.1004	0.1923
412.3056	0.206
412.5107	0.2029
412.7158	0.2185
412.921	0.1995
413.1261	0.2111
413.3312	0.2161
413.5362	0.2032
413.7413	0.2015
413.9464	0.2122
414.1514	0.2154
414.3564	0.1875
414.5614	0.1912
414.7664	0.2176
414.9714	0.2125
415.1764	0.2258
415.3813	0.2157
415.5863	0.2071
415.7912	0.2117
415.9961	0.205
416.201	0.2249
416.4059	0.2101
416.6108	0.1824
416.8156	0.1972
417.0205	0.2028
417.2253	0.1786
417.4301	0.2124
417.6349	0.2018
417.8397	0.2058
418.0445	0.2111
418.2492	0.2127
418.454	0.198
418.6587	0.207
418.8634	0.206
419.0681	0.1772
419.2728	0.1935
419.4775	0.1877
419.6822	0.1748
419.8868	0.1708
420.0915	0.1984
420.2961	0.1742
420.5007	0.1723
420.7053	0.1961
420.9099	0.1834
421.1144	0.19
421.319	0.1919
421.5235	0.2034
421.728	0.1828
421.9325	0.1761
422.137	0.2023
422.3415	0.1841
422.546	0.1766
422.7504	0.1979
422.9549	0.1799
423.1593	0.1969
423.3637	0.1988
423.5681	0.1795
423.7725	0.1681
423.9769	0.159
424.1812	0.166
424.3856	0.1666
424.5899	0.175
424.7942	0.1806
424.9985	0.175
425.2028	0.1666
425.4071	0.2013
425.6113	0.1684
425.8156	0.16
426.0198	0.1672
426.224	0.1742
426.4282	0.1755
426.6324	0.1701
426.8366	0.1691
427.0407	0.1574
427.2449	0.1702
427.449	0.1801
427.6531	0.1596
427.8572	0.1621
428.0613	0.1526
428.2654	0.1659
428.4694	0.1468
428.6735	0.1751
428.8775	0.1633
429.0815	0.142
429.2855	0.1497
429.4895	0.1615
429.6935	0.1494
429.8975	0.1556
430.1014	0.1314
430.3053	0.1415
430.5093	0.1573
430.7132	0.1345
430.9171	0.1415
431.1209	0.1494
431.3248	0.1415
431.5286	0.1493
431.7325	0.1397
431.9363	0.1291
432.1401	0.1538
432.3439	0.1304
432.5477	0.1162
432.7514	0.123
432.9552	0.1356
433.1589	0.1212
433.3627	0.1163
433.5664	0.1197
433.7701	0.1108
433.9737	0.1355
434.1774	0.1132
434.3811	0.1236
434.5847	0.1122
434.7883	0.1116
434.9919	0.1146
435.1955	0.1075
435.3991	0.1149
435.6027	0.1209
435.8062	0.1152
436.0098	0.0882
436.2133	0.0981
436.4168	0.0915
436.6203	0.103
436.8238	0.1094
437.0272	0.107
437.2307	0.1046
437.4341	0.1175
437.6375	0.0844
437.841	0.0744
438.0443	0.0911
438.2477	0.0917
438.4511	0.0749
438.6545	0.0941
438.8578	0.0953
439.0611	0.086
439.2644	0.099
439.4677	0.0826
439.671	0.0657
439.8743	0.0892
440.0775	0.0742
440.2808	0.0835
440.484	0.0696
440.6872	0.0547
440.8904	0.0737
441.0936	0.0954
441.2967	0.0653
441.4999	0.0781
441.703	0.074
441.9062	0.0707
442.1093	0.0815
442.3124	0.081
442.5155	0.057
442.7185	0.0547
442.9216	0.0354
443.1246	0.0715
443.3276	0.0602
443.5307	0.0583
443.7337	0.0642
443.9366	0.0535
444.1396	0.0657
444.3426	0.0529
444.5455	0.0661
444.7484	0.0353
444.9513	0.057
445.1542	0.0669
445.3571	0.0489
445.56	0.0567
445.7628	0.0387
445.9657	0.0467
446.1685	0.0497
446.3713	0.0507
446.5741	0.0588
446.7769	0.0411
446.9797	0.051
447.1824	0.0483
447.3852	0.0381
447.5879	0.0508
447.7906	0.0414
447.9933	0.0247
448.196	0.0218
448.3986	0.0326
448.6013	0.0336
448.8039	0.0301
449.0066	0.0318
449.2092	0.0466
449.4118	0.0377
449.6143	0.0355
449.8169	0.0526
450.0195	0.0142
450.222	0.0098
450.4245	0.0241
450.627	0.0313
450.8295	0.0243
451.032	0.0253
451.2345	0.0323
451.4369	0.0329
451.6394	0.0255
451.8418	0.0005
452.0442	0.0076
452.2466	0.0282
452.449	-0.0044
452.6513	0.032
452.8537	0.0236
453.056	0.0137
453.2583	0.0308
453.4607	0.017
453.663	0.0133
453.8652	0.0301
454.0675	0.0158
454.2697	0.0318
454.472	0.0094
454.6742	0.0216
454.8764	0.0081
455.0786	0.0219
455.2808	0.0112
455.4829	0.0263
455.6851	0.0146
455.8872	0.0186
456.0893	0.028
456.2915	-0.0047
456.4935	0.0186
456.6956	0.0177
456.8977	0.0272
457.0997	0.0077
457.3018	-0.006
457.5038	0.0129
457.7058	0.0027
457.9078	0.0159
458.1098	0.0187
458.3117	0.0245
458.5137	0.0131
458.7156	0.018
458.9175	0.0038
459.1194	-0.0064
459.3213	0.0139
459.5232	-0.0008
459.725	-0.001
459.9269	0.0012
460.1287	-0.0162
460.3305	0.0066
460.5323	0.0004
460.7341	0.0031
460.9359	0.0052
461.1376	0.0056
461.3394	-0.0015
461.5411	0.0173
461.7428	0.0067
461.9445	0.0227
462.1462	0.0146
462.3479	0.0009
462.5495	-0.011
462.7512	0.0116
462.9528	0.0063
463.1544	-0.0022
463.356	-0.0014
463.5576	-0.0017
463.7592	0.0086
463.9607	0.0011
464.1623	0.0117
464.3638	0.0148
464.5653	-0.0119
464.7668	0.0099
464.9683	-0.0001
465.1697	0.0104
465.3712	-0.014
465.5726	0.0057
465.7741	0.0029
465.9755	-0.0026
466.1769	0.0009
466.3782	0.0032
466.5796	-0.0214
466.7809	0.0113
466.9823	0.0005
467.1836	0.0166
467.3849	-0.0075
467.5862	-0.0044
467.7875	-0.0076
467.9887	0.0111
468.19	-0.0116
468.3912	0.0019
468.5924	-0.0127
468.7936	-0.0029
468.9948	-0.0064
469.196	0.0093
469.3972	-0.0151
469.5983	0.0144
469.7994	-0.0085
470.0006	-0.0002
470.2017	-0.009
470.4027	-0.0086
470.6038	0.0027
470.8049	-0.01
471.0059	-0.0104
471.2069	-0.0194
471.408	0.0132
471.6089	-0.0013
471.8099	-0.0051
472.0109	0.0073
472.2119	-0.0176
472.4128	-0.0109
472.6137	0.0114
472.8146	-0.0084
473.0155	-0.004
473.2164	-0.0101
473.4173	0.0008
473.6181	-0.002
473.819	0.0041
474.0198	-0.0017
474.2206	-0.0105
474.4214	-0.0025
474.6222	-0.0061
474.8229	-0.01
475.0237	-0.0164
475.2244	-0.0071
475.4251	0.0035
475.6258	-0.0062
475.8265	0.0049
476.0272	0.0101
476.2278	0.0038
476.4285	-0.0065
476.6291	-0.004
476.8297	0.0076
477.0303	-0.0108
477.2309	-0.0087
477.4315	-0.0107
477.632	-0.0039
477.8326	-0.0144
478.0331	0.0042
478.2336	0.0189
478.4341	-0.0112
478.6346	-0.0015
478.8351	0.0053
479.0355	0.0078
479.236	-0.0018
479.4364	-0.0022
479.6368	-0.0112
479.8372	-0.0154
480.0376	-0.0093
480.2379	-0.0226
480.4383	-0.0071
480.6386	-0.0007
480.8389	-0
481.0392	-0.014
481.2395	-0.0072
481.4398	-0.001
481.6401	0.0024
481.8403	-0.0083
482.0405	-0.0039
482.2408	-0.006
482.441	0.0074
482.6411	-0.0028
482.8413	-0.0088
483.0415	-0.0035
483.2416	-0.0006
483.4417	0.0054
483.6419	-0.0078
483.8419	-0.0057
484.042	0.0055
484.2421	0.0005
484.4422	0.0149
484.6422	-0.0183
484.8422	-0.0018
485.0422	-0.0028
485.2422	-0.001
485.4422	-0.0153
485.6422	-0.007
485.8421	0.0005
486.042	0.0086
486.242	-0.0052
486.4419	-0.0136
486.6417	-0.0146
486.8416	-0.0102
487.0415	-0.0015
487.2413	0.0012
487.4411	0.0017
487.641	-0.0006
487.8408	0.0042
488.0405	-0.0104
488.2403	-0.0103
488.4401	0.0024
488.6398	-0.0055
488.8395	-0
489.0392	0.0017
489.2389	-0.0077
489.4386	-0.0027
489.6383	-0.0099
489.8379	0.0089
490.0376	-0.0085
490.2372	-0.0098
490.4368	-0.0188
490.6364	-0.0053
490.836	-0.0017
491.0355	-0.0063
491.2351	-0.0029
491.4346	0.0036
491.6341	-0.016
491.8336	0.0063
492.0331	-0.0116
492.2326	-0.01
492.432	-0.0062
492.6315	-0.0124
492.8309	-0.0104
493.0303	-0.0105
493.2297	-0.0048
493.4291	-0.0064
493.6284	-0.0073
493.8278	-0.0017
494.0271	0.0109
494.2264	0.0018
494.4257	-0.0058
494.625	0.0037
494.8243	-0.0175
495.0236	-0.0187
495.2228	-0.0164
495.422	-0.0063
495.6213	-0.0117
495.8205	-0.0019
496.0196	0.0005
496.2188	-0.001
496.418	-0.0138
496.6171	-0.0068
496.8162	-0.0131
497.0153	0.0011
497.2144	-0.006
497.4135	-0.005
497.6126	-0.012
497.8116	-0.0161
498.0107	0.0034
498.2097	-0.0152
498.4087	-0.0074
498.6077	0.0006
498.8067	-0.0121
499.0056	0.0064
499.2046	-0.0085
499.4035	-0.0166
499.6024	-0.0067
499.8013	0.0017
500.0002	-0.008
500.199	-0.0008
500.3979	-0.0056
500.5967	-0.0211
500.7956	-0.0021
500.9944	-0.0072
501.1932	-0.0027
501.3919	-0.0134
501.5907	-0.0132
501.7895	0.0019
501.9882	-0.0179
502.1869	-0.0016
502.3856	-0.0018
502.5843	-0.0214
502.783	-0.0006
502.9816	-0.0055
503.1803	-0.0134
503.3789	-0.0077
503.5775	0.011
503.7761	-0.0232
503.9747	-0.0108
504.1732	-0.0084
504.3718	0.003
504.5703	-0.0042
504.7689	-0.0141
504.9674	0.0037
505.1658	-0.0103
505.3643	-0.0062
505.5628	-0.0094
505.7612	-0.0042
505.9597	0.0094
506.1581	-0.0069
506.3565	0.0009
506.5549	-0.0028
506.7532	-0.0128
506.9516	-0.004
507.1499	-0.0066
507.3482	-0.0094
507.5465	-0.004
507.7448	-0.004
507.9431	-0.011
508.1414	0.0011
508.3396	0.0007
508.5379	-0.0056
508.7361	-0.006
508.9343	-0.0043
509.1325	0.0003
509.3306	-0.0038
509.5288	-0.003
509.7269	-0.0078
509.9251	-0.0029
510.1232	-0.0098
510.3213	-0.0021
510.5193	-0.0057
510.7174	-0.0164
510.9154	-0.0054
511.1135	-0.0026
511.3115	-0.004
511.5095	-0.0004
511.7075	-0.0121
511.9055	-0.0053
512.1034	-0.0043
512.3014	-0.0009
512.4993	0.0092
512.6972	-0.011
512.8951	-0.0148
513.093	-0.0044
513.2908	0.0006
513.4887	-0.0043
513.6865	-0.0036
513.8844	-0.0023
514.0822	-0.0036
514.2799	-0.0133
514.4777	-0.0053
514.6755	-0.0126
514.8732	-0.0098
515.0709	-0.0107
515.2687	-0.0106
515.4664	-0.0002
515.664	-0.0011
515.8617	0.0009
516.0594	-0.0139
516.257	-0.0042
516.4546	-0.0124
516.6522	-0.0059
516.8498	-0.0105
517.0474	0.0012
517.2449	-0.0009
517.4425	-0.0147
517.64	-0.008
517.8375	0.0028
518.035	-0.0072
518.2325	-0.0027
518.43	-0.0102
518.6274	-0.0136
518.8249	-0.0145
519.0223	-0.0003
519.2197	-0.0036
519.4171	0.0008
519.6145	-0.0025
519.8118	-0.0024
520.0092	-0.0077
520.2065	-0.0099
520.4038	-0.0059
520.6011	0.0015
520.7984	-0.0113
520.9956	-0.006
521.1929	-0.0191
521.3901	0.0016
521.5874	-0.0091
521.7846	-0.0006
521.9818	-0.0094
522.1789	-0.0057
522.3761	-0.005
522.5732	-0.0073
522.7704	-0.0013
522.9675	0.0049
523.1646	-0.0133
523.3617	-0.0027
523.5587	-0.0141
523.7558	-0.0025
523.9528	-0.0023
524.1498	0.0009
524.3468	0.0003
524.5438	-0.0055
524.7408	-0.0028
524.9378	0.0021
525.1347	0.0067
525.3316	-0.0005
525.5285	-0.0129
525.7254	-0.0052
525.9223	-0.0059
526.1192	-0.0042
526.316	-0.0114
526.5129	0.0041
526.7097	-0.005
526.9065	-0.0153
527.1033	-0.0039
527.3	-0.0001
527.4968	-0.0049
527.6935	-0.0004
527.8903	-0.0141
528.087	-0.0084
528.2837	-0.0101
528.4804	-0.0039
528.677	-0.0075
528.8737	0.0087
529.0703	0.0087
529.2669	-0.0019
529.4635	-0.0093
529.6601	-0.0063
529.8567	-0.0009
530.0532	-0.005
530.2498	0.0024
530.4463	0.004
530.6428	-0.0093
530.8393	0.0103
531.0358	-0.0129
531.2322	-0.0048
531.4287	-0.0053
531.6251	-0.0039
531.8215	0.008
532.0179	-0.0027
532.2143	0.0052
532.4107	-0.0055
532.607	-0.0118
532.8034	0.0035
532.9997	0.0041
533.196	0.0037
533.3923	-0.0031
533.5886	0.0008
533.7848	0.0007
533.9811	-0.0036
534.1773	0.0005
534.3735	0.0107
534.5697	-0.0002
534.7659	0.0057
534.9621	0.0069
535.1582	-0.0082
535.3544	-0.0063
535.5505	-0.0138
535.7466	0.0015
535.9427	-0.0084
536.1387	-0.009
536.3348	-0.0084
536.5308	0.0032
536.7269	-0.0114
536.9229	0.0128
537.1189	0.0065
537.3148	-0.0117
537.5108	0.0021
537.7068	-0.0044
537.9027	-0.005
538.0986	-0.0007
538.2945	-0.003
538.4904	-0.0044
538.6863	-0.0099
538.8821	-0.0075
539.078	-0.0022
539.2738	0.0031
539.4696	-0.0018
539.6654	0.0025
539.8611	0.0092
540.0569	-0.0045
540.2526	-0.0075
540.4484	0.0068
540.6441	0.0094
540.8398	0.0088
541.0355	-0.0038
541.2311	-0.0055
541.4268	-0.0155
541.6224	-0.0012
541.818	-0.0033
542.0136	-0.0088
542.2092	0.0012
542.4048	0.007
542.6003	0.0046
542.7959	-0.0066
542.9914	-0.0048
543.1869	0.0036
543.3824	0.003
543.5779	-0.002
543.7734	-0.0022
543.9688	-0.0037
544.1642	0.002
544.3596	-0.0008
544.555	-0.0044
544.7504	-0.0032
544.9458	-0.0093
545.1411	-0.0049
545.3365	-0.0023
545.5318	-0.0048
545.7271	-0.0046
545.9224	-0.0018
546.1177	0.0037
546.3129	-0.0067
546.5081	0.0004
546.7034	0.0003
546.8986	-0.0023
547.0938	-0.0032
547.289	-0.0078
547.4841	0.0046
547.6793	0.011
547.8744	-0.0119
548.0695	-0.003
548.2646	-0.0078
548.4597	-0.0013
548.6548	-0.0024
548.8498	0.0077
549.0448	0.0027
549.2399	0.0026
549.4349	0.0056
549.6298	-0.0009
549.8248	-0
550.0198	-0.0013
550.2147	-0.0019
550.4096	-0.0069
550.6045	-0.0049
550.7994	0.0027
550.9943	0.0044
551.1892	-0.0026
551.384	0.0029
551.5788	-0.0042
551.7737	0.0012
551.9685	-0.0098
552.1632	0.0001
552.358	0.002
552.5528	-0.0007
552.7475	0.0038
552.9422	0.0017
553.1369	0.0054
553.3316	0.0028
553.5263	-0.0079
553.7209	0.0051
553.9156	-0.0072
554.1102	-0.0053
554.3048	-0.0046
554.4994	0.0032
554.694	-0.0038
554.8885	-0.0013
555.0831	-0.0099
555.2776	-0.008
555.4721	0.0042
555.6666	-0.0102
555.8611	0.0017
556.0555	-0.0029
556.25	-0.0006
556.4444	-0.0058
556.6388	0.0059
556.8332	0.0059
557.0276	0.0078
557.222	-0.0105
557.4163	-0.0004
557.6107	-0.0008
557.805	-0.0024
557.9993	-0.0109
558.1936	0.0052
558.3879	0.0104
558.5821	0.0004
558.7764	-0.0035
558.9706	0.0051
559.1648	0.0043
559.359	-0.0024
559.5532	-0.0108
559.7473	-0.0049
559.9415	0.002
560.1356	-0.0012
560.3297	-0.0084
560.5238	0.0001
560.7179	-0.0046
560.9119	-0.0079
561.106	0.0032
561.3	-0.0081
561.494	-0.0048
561.688	-0.0003
561.882	-0.0089
562.076	-0.0015
562.2699	0.0081
562.4639	-0.0019
562.6578	0.0025
562.8517	0.0008
563.0456	0.0022
563.2395	0.0007
563.4333	0.0022
563.6272	0.0034
563.821	-0.0032
564.0148	0.0026
564.2086	-0.0059
564.4024	-0.008
564.5961	-0.0053
564.7899	0.0006
564.9836	-0.0053
565.1773	0.0053
565.371	0.0112
565.5647	0.0074
565.7584	0.0053
565.952	-0.0042
566.1456	0.0073
566.3393	-0.006
566.5329	-0.0023
566.7264	-0.0003
566.92	-0.0021
567.1136	0.0034
567.3071	-0.0028
567.5006	0.0117
567.6941	0.004
567.8876	0.0005
568.0811	-0.0061
568.2745	0.0033
568.468	0.0099
568.6614	0.0055
568.8548	-0.0018
569.0482	0.0026
569.2416	0.0013
569.4349	0.0046
569.6283	0.005
569.8216	0.0011
570.0149	0.0023
570.2082	0.0067
570.4015	0.0093
570.5947	0.0072
570.788	0.0021
570.9812	0.0131
571.1744	-0.0033
571.3676	-0.004
571.5608	-0.0001
571.754	0.0041
571.9471	0.0024
572.1402	0.0041
572.3333	-0.0017
572.5264	-0.002
572.7195	0.0008
572.9126	0.0067
573.1057	-0.003
573.2987	0.0002
573.4917	0.0058
573.6847	-0.0113
573.8777	0.0047
574.0707	0.0062
574.2636	-0.0033
574.4566	-0.0024
574.6495	0.0088
574.8424	0.0051
575.0353	-0.0025
575.2281	0.0026
575.421	0.0029
575.6138	0.0098
575.8067	0.0017
575.9995	0.0036
576.1923	0.0067
576.385	0.002
576.5778	-0.0038
576.7706	0.0032
576.9633	-0.0007
577.156	0.0024
577.3487	0.0037
577.5414	-0.0029
577.734	0.006
577.9267	0.0038
578.1193	-0.0044
578.3119	-0.0078
578.5045	0.0031
578.6971	0.0028
578.8897	0.0051
579.0822	-0.0023
579.2747	0.002
579.4673	-0.0025
579.6598	-0.0026
579.8522	0
580.0447	-0.0017
580.2372	-0.0054
580.4296	-0.0031
580.622	-0.0004
580.8144	-0.0048
581.0068	-0.0051
581.1992	-0.0081
581.3915	-0.0002
581.5839	-0.0038
581.7762	-0.0041
581.9685	-0.0038
582.1608	-0.0009
582.353	0.005
582.5453	0.001
582.7375	0.0092
582.9298	0.0039
583.122	0.0081
583.3142	0.0027
583.5063	0.0024
583.6985	-0.0032
583.8906	0.0035
584.0827	-0.0016
584.2749	0.0032
584.4669	0.0044
584.659	-0.0015
584.8511	-0.0022
585.0431	-0.0023
585.2352	0.0035
585.4272	0.0015
585.6192	0.0089
585.8111	0.001
586.0031	0.0023
586.195	-0.0022
586.387	0.0064
586.5789	-0.0047
586.7708	0.0061
586.9627	-0.0008
587.1545	0.0082
587.3464	0.0038
587.5382	0.0061
587.73	0.0029
587.9218	0.0062
588.1136	0.0003
588.3053	0.0095
588.4971	-0.0008
588.6888	-0.0141
588.8805	-0.0013
589.0722	0.0022
589.2639	-0.0008
589.4556	0.0009
589.6472	-0.0007
589.8389	-0.0072
590.0305	-0.0087
590.2221	0.0075
590.4137	-0.0013
590.6052	0.0069
590.7968	-0.0007
590.9883	0.002
591.1798	-0.0029
591.3713	-0.0025
591.5628	0.0012
591.7543	-0.0003
591.9458	-0.0013
592.1372	0.006
592.3286	0.007
592.52	0.0041
592.7114	-0.0011
592.9028	0.0003
593.0941	0.0002
593.2855	0.0035
593.4768	0.0019
593.6681	-0.0048
593.8594	-0.0036
594.0506	0.0026
594.2419	0.0062
594.4331	0.0044
594.6244	0.0055
594.8156	-0.0006
595.0067	-0.0018
595.1979	0.0035
595.3891	0.0018
595.5802	-0.0026
595.7713	-0.0022
595.9624	-0.0018
596.1535	-0.0013
596.3446	0.0008
596.5357	0.0025
596.7267	0.0003
596.9177	-0.0016
597.1087	-0.009
597.2997	-0.0066
597.4907	0.0083
597.6817	-0.0065
597.8726	0.0003
598.0635	0.0017
598.2544	0.002
598.4453	0.0021
598.6362	-0.004
598.827	-0.0059
599.0179	0.0001
599.2087	0.0065
599.3995	0.0018
599.5903	0.0027
599.7811	0.0006
599.9718	0.0064
600.1626	-0.0073
600.3533	-0.005
600.544	-0.0016
600.7347	-0.0026
600.9254	0.0011
601.116	-0.0066
601.3067	-0.0054
601.4973	-0.0045
601.6879	-0.0009
601.8785	-0.004
602.0691	0.0039
602.2596	0.0085
602.4502	-0.0061
602.6407	0.0056
602.8312	0.0041
603.0217	-0.0115
603.2122	0.001
603.4027	0.0035
603.5931	0.006
603.7835	-0.0075
603.9739	0.006
604.1643	0.0008
604.3547	-0.0038
604.5451	0.0006
604.7354	0.0037
604.9257	0.0027
605.116	0.0016
605.3063	0.0088
605.4966	0.0037
605.6869	0.0077
605.8771	0.0102
606.0673	0.0078
606.2575	0.0043
606.4477	0.0075
606.6379	-0
606.8281	0.0023
607.0182	0.0006
607.2083	0.0096
607.3985	-0.0035
607.5885	0.0025
607.7786	0.0051
607.9687	-0.0045
608.1587	0.01
608.3488	0.0024
608.5388	0.0018
608.7288	0.0001
608.9187	0.0016
609.1087	-0.0014
609.2986	-0.003
609.4886	0.0007
609.6785	-0.0012
609.8684	0.0076
610.0582	-0.0017
610.2481	0.0005
610.4379	-0.0017
610.6278	-0.0032
610.8176	0.0068
611.0074	-0.0036
611.1971	0.0026
611.3869	-0.0005
611.5766	0.0004
611.7664	0.0119
611.9561	0.0031
612.1458	0.0013
612.3354	-0.0009
612.5251	0.0003
612.7147	0.0029
612.9044	0.007
613.094	-0.008
613.2836	0.0011
613.4731	-0.0042
613.6627	-0.0043
613.8522	0.0004
614.0417	-0.0002
614.2313	-0.0089
614.4207	-0.0014
614.6102	0.0007
614.7997	-0.0003
614.9891	-0.0026
615.1785	0.0009
615.3679	-0.0067
615.5573	0.0043
615.7467	-0.0055
615.9361	-0.0032
616.1254	-0.0021
616.3147	0.0015
616.504	0.0093
616.6933	0.0022
616.8826	0.0065
617.0718	0.0092
617.2611	0.0053
617.4503	-0.0054
617.6395	0.0016
617.8287	-0.0015
618.0179	-0.0005
618.207	0.0056
618.3961	-0.0057
618.5853	-0.0005
618.7744	0.0006
618.9634	0.002
619.1525	0.0076
619.3416	0.0016
619.5306	0.0058
619.7196	0.0085
619.9086	0.0016
620.0976	0.0015
620.2866	0.0016
620.4755	0.0008
620.6645	0.0021
620.8534	0.0049
621.0423	0.0048
621.2312	0.0045
621.42	0.0089
621.6089	0.0023
621.7977	0.0077
621.9865	-0.0017
622.1753	0.0103
622.3641	0.0033
622.5529	0.0072
622.7416	0.004
622.9303	-0.0008
623.1191	0.008
623.3078	-0.0066
623.4964	0.004
623.6851	-0.0035
623.8737	-0.0023
624.0624	0.0069
624.251	-0.0034
624.4396	-0.0009
624.6282	-0.0021
624.8167	0.005
625.0053	0.0087
625.1938	0.0044
625.3823	0.0021
625.5708	0.0005
625.7593	-0.0081
625.9477	-0.0037
626.1362	-0.0015
626.3246	-0.0029
626.513	0.0095
626.7014	0.0029
626.8898	0.0004
627.0781	0.0001
627.2665	0.0015
627.4548	0.0074
627.6431	0.0015
627.8314	0.0057
628.0197	0.0117
628.2079	0.0002
628.3962	-0.0072
628.5844	0.0055
628.7726	0.0051
628.9608	0.0075
629.1489	0.0052
629.3371	0.0046
629.5252	-0.0007
629.7134	0.0076
629.9015	0.0031
630.0895	-0.0015
630.2776	0.0066
630.4657	-0.0023
630.6537	-0.0007
630.8417	-0.0032
631.0297	-0.0004
631.2177	-0.0057
631.4057	-0.0032
631.5936	0.0047
631.7815	0.0056
631.9695	0.0034
632.1574	0.0012
632.3452	0.0126
632.5331	0.004
632.7209	0.0041
632.9088	0.011
633.0966	0.0092
633.2844	-0.0027
633.4722	0.0046
633.6599	0.0076
633.8477	0.0086
634.0354	0.0065
634.2231	0.0004
634.4108	0.0009
634.5985	0.0088
634.7861	0.0052
634.9738	0.0024
635.1614	0.006
635.349	0.0058
635.5366	0.0038
635.7242	0.0022
635.9117	0.013
636.0993	0.0023
636.2868	0.0036
636.4743	-0.0038
636.6618	0.0125
636.8492	0.0047
637.0367	0.0059
637.2241	-0.0035
637.4115	-0.0041
637.5989	0.0006
637.7863	-0.0029
637.9737	0.005
638.161	0.0076
638.3484	-0.0005
638.5357	0.0051
638.723	-0.0052
638.9103	-0.0047
639.0975	0.0051
639.2848	0.0025
639.472	0.0019
639.6592	0.0069
639.8464	0.0106
640.0336	0.0062
640.2208	0.0056
640.4079	0.0019
640.595	-0.001
640.7821	-0.0006
640.9692	0.0001
641.1563	-0.0009
641.3434	-0.0004
641.5304	0.0041
641.7174	0.0017
641.9044	0.0051
642.0914	0.0018
642.2784	0.0104
642.4653	0.0095
642.6523	0.0032
642.8392	-0.0012
643.0261	0.0006
643.213	0.0034
643.3999	-0.004
643.5867	0.0015
643.7735	-0.0016
643.9604	-0.0072
644.1472	-0.0008
644.3339	0.0079
644.5207	-0.0005
644.7075	0.0008
644.8942	0.0096
645.0809	0.0042
645.2676	0.0099
645.4543	0.0057
645.6409	0.0097
645.8276	0.006
646.0142	0.0046
646.2008	-0.0045
646.3874	-0.0053
646.574	0.0019
646.7605	-0.0016
646.9471	-0.0091
647.1336	0.0021
647.3201	0.0045
647.5066	-0.0019
647.6931	0.0069
647.8795	0.0004
648.0659	0.0099
648.2524	0.0058
648.4388	-0.0019
648.6252	0.0105
648.8115	0.0028
648.9979	0.0048
649.1842	0.0072
649.3705	0.0161
649.5568	0.0046
649.7431	0.0064
649.9294	-0.0022
650.1156	0.0147
650.3018	-0.0053
650.488	0.0041
650.6742	0.0046
650.8604	0.0016
651.0466	-0.0028
651.2327	-0.0008
651.4188	-0.0027
651.6049	-0.0028
651.791	-0.0025
651.9771	-0.0003
652.1632	0.0014
652.3492	0.0028
652.5352	0.0024
652.7212	-0
652.9072	-0.0027
653.0932	0.0012
653.2791	-0.0003
653.465	0.0018
653.651	-0.0039
653.8369	0.0011
654.0227	-0.003
654.2086	0.0018
654.3944	0.0064
654.5803	0.0032
654.7661	-0.0061
654.9519	0.0093
655.1377	-0.0012
655.3234	-0.0025
655.5092	-0.0036
655.6949	-0.005
655.8806	-0.0058
656.0663	-0.0023
656.2519	0.0029
656.4376	-0.0015
656.6232	0.0072
656.8088	0.0011
656.9945	0.0031
657.18	0.0004
657.3656	0.0046
657.5511	-0.0012
657.7367	-0.0022
657.9222	0.0103
658.1077	0.0023
658.2932	0.0042
658.4786	-0.0082
658.6641	-0.0039
658.8495	0.001
659.0349	-0.0054
659.2203	-0.0026
659.4057	-0.0001
659.591	0.001
659.7764	-0.0014
659.9617	-0.0033
660.147	0.0012
660.3323	0.0029
660.5176	0.0059
660.7028	0.0045
660.888	0.0024
661.0733	-0.0021
661.2585	-0.0037
661.4436	0.0106
661.6288	0.0037
661.8139	-0.0072
661.9991	-0.0006
662.1842	-0.0041
662.3693	0.0025
662.5544	-0.0032
662.7394	0.0032
662.9245	-0.0063
663.1095	0.0005
663.2945	0.008
663.4795	0.0038
663.6644	0.0081
663.8494	0.0035
664.0343	-0.0005
664.2193	-0.0039
664.4042	0.0002
664.589	-0.0061
664.7739	0.0027
664.9587	-0.0036
665.1436	-0.0026
665.3284	0.0083
665.5132	-0.0032
665.698	-0.0075
665.8827	0.0089
666.0675	-0.0056
666.2522	0.0001
666.4369	-0.0036
666.6216	0.0092
666.8063	0.0002
666.9909	-0.0005
667.1756	0.0008
667.3602	0.002
667.5448	-0.0002
667.7294	0.0101
667.9139	0.0043
668.0985	0.0155
668.283	0.0032
668.4675	0.0042
668.652	0.0031
668.8365	0.0063
669.0209	0.0118
669.2054	0.0132
669.3898	-0.006
669.5742	0.0043
669.7586	0.0128
669.943	0.0084
670.1273	0.0088
670.3117	0.0044
670.496	0.0028
670.6803	0.0069
670.8646	0.0065
671.0488	-0.0026
671.2331	0.0058
671.4173	0.0088
671.6015	-0.0001
671.7857	0.001
671.9699	0.003
672.1541	0.0016
672.3382	-0.0001
672.5223	0.0111
672.7064	0.0062
672.8905	0.0129
673.0746	0.005
673.2587	-0.0008
673.4427	0.0031
673.6267	0.0035
673.8107	0.0066
673.9947	0.008
674.1787	0.0083
674.3626	0.0016
674.5465	0.0032
674.7304	0.0007
674.9143	0.0057
675.0982	0.0067
675.2821	-0.0033
675.4659	0.011
675.6497	0.0003
675.8335	0.0026
676.0173	0.0042
676.2011	-0.0005
676.3849	0.0019
676.5686	-0.008
676.7523	0.0013
676.936	-0.0006
677.1197	-0.0019
677.3034	-0.004
677.487	0.0049
677.6706	0.006
677.8542	0.0074
678.0378	0.0032
678.2214	-0.0037
678.405	0.0023
678.5885	-0.0121
678.772	-0.0054
678.9555	-0.0062
679.139	0.0006
679.3225	0.0024
679.5059	-0.0001
679.6894	0.0036
679.8728	-0.0043
680.0562	-0.0073
680.2395	-0.0055
680.4229	-0.0025
680.6062	0.0124
680.7896	-0.0034
680.9729	-0.0011
681.1562	0.0089
681.3394	0.0044
681.5227	0.0049
681.7059	0.0085
681.8891	0.0052
682.0723	0.0082
682.2555	0.0058
682.4387	-0.0087
682.6218	-0.0046
682.805	0.0051
682.9881	0.0065
683.1712	0.0024
683.3542	-0.0002
683.5373	0.0091
683.7203	-0.0004
683.9034	0.0019
684.0864	-0.01
684.2694	0.0007
684.4523	0.006
684.6353	-0.0095
684.8182	-0.0007
685.0011	-0.0079
685.184	0.0043
685.3669	0.0015
685.5498	-0.0012
685.7326	0.0043
685.9154	-0.0035
686.0982	0.0049
686.281	0.0035
686.4638	0.0061
686.6465	0.0045
686.8293	-0.0029
687.012	0.0024
687.1947	-0.0087
687.3774	0.0005
687.56	-0.0012
687.7427	0.0055
687.9253	-0.0086
688.1079	-0.0019
688.2905	0.0141
688.4731	0.0046
688.6556	0.0013
688.8382	-0.001
689.0207	0.0037
689.2032	-0.0032
689.3857	-0.005
689.5681	0.0002
689.7506	-0.0001
689.933	-0.0002
690.1154	0.0068
690.2978	-0.0015
690.4802	0.0064
690.6626	-0.0056
690.8449	-0.0062
691.0272	0.0072
691.2095	-0.0022
691.3918	-0.0024
691.5741	0.0047
691.7563	0.0024
691.9386	-0.0001
692.1208	-0.0045
692.303	0.0061
692.4852	-0.0044
692.6673	0.0038
692.8495	0.0005
693.0316	0.0025
693.2137	0.0056
693.3958	0.0051
693.5778	0.0069
693.7599	0.0012
693.9419	0.0008
694.1239	0.0035
694.3059	-0.0053
694.4879	0.009
694.6699	0.0069
694.8518	0.0041
695.0337	-0.0035
695.2157	0.009
695.3975	-0.0031
695.5794	0.0026
695.7613	0.0041
695.9431	-0.001
696.1249	0.0088
696.3067	0.0037
696.4885	0.0173
696.6703	-0.0048
696.852	0.0049
697.0337	0.0017
697.2154	0.0035
697.3971	0.0047
697.5788	0.0084
697.7605	0.0066
697.9421	0.0065
698.1237	0.0011
698.3053	0.0088
698.4869	-0.0002
698.6685	0.0032
698.85	0.0104
699.0315	0.0074
699.213	-0.0031
699.3945	0.0061
699.576	0.0078
699.7575	0.0033
699.9389	0.0153
700.1203	-0.0033
700.3017	-0.0057
700.4831	-0.0026
700.6645	-0.0056
700.8458	0.0011
701.0271	-0.0065
701.2084	-0.002
701.3897	0.0045
701.571	-0.0002
701.7523	-0.0102
701.9335	-0.0033
702.1147	0.0004
702.2959	-0.0021
702.4771	0.0004
702.6583	0.0042
702.8394	0.0049
703.0205	0.0034
703.2016	-0.0016
703.3827	-0.0019
703.5638	0.003
703.7449	0.0054
703.9259	0.0084
704.1069	0.0005
704.2879	-0.0013
704.4689	0.0054
704.6499	0.0089
704.8308	0.0058
705.0117	0.0053
705.1927	0.0054
705.3735	0.0014
705.5544	-0.0073
705.7353	0.0011
705.9161	-0.0049
706.0969	-0.004
706.2777	-0.0018
706.4585	0.0014
706.6393	0.0016
706.82	0.0006
707.0007	0.0072
707.1815	0.0034
707.3621	0.0093
707.5428	0.0057
707.7235	0.008
707.9041	0.0054
708.0847	-0.0102
708.2653	-0.0007
708.4459	-0.0161
708.6265	-0.0004
708.807	-0.0022
708.9875	0.0002
709.168	-0.0065
709.3485	-0.0089
709.529	-0.0033
709.7095	-0.0122
709.8899	0.0002
710.0703	-0.0162
710.2507	-0.0009
710.4311	-0.0132
710.6115	-0.0098
710.7918	-0.0039
710.9721	-0.0028
711.1524	-0.005
711.3327	0.0028
711.513	0.0044
711.6932	0.009
711.8735	0.0193
712.0537	0.01
712.2339	0.0035
712.4141	-0.0063
712.5942	-0.0083
712.7744	0.0064
712.9545	-0.0079
713.1346	-0.0068
713.3147	-0.0018
713.4947	-0.0042
713.6748	-0.0049
713.8548	-0.0052
714.0348	0.0026
714.2148	-0.0073
714.3948	0.0033
714.5748	0.0005
714.7547	0.0028
714.9346	0.0058
715.1145	0.0012
715.2944	-0.0103
715.4743	-0.0013
715.6541	-0.0002
715.834	0.0104
716.0138	-0.0067
716.1936	-0.0059
716.3733	0.0043
716.5531	0.0099
716.7328	-0.005
716.9126	0.001
717.0923	0.0104
717.2719	0.0068
717.4516	0.0128
717.6312	0.0072
717.8109	-0.0007
717.9905	0.0092
718.1701	-0.0033
718.3496	-0.0022
718.5292	0.0011
718.7087	0.0077
718.8882	-0.0007
719.0677	0.0103
719.2472	0.0005
719.4267	0.0068
719.6061	0.001
719.7856	0.012
719.965	0.0092
720.1443	0.0088
720.3237	0.0157
720.5031	-0.0013
720.6824	0.0093
720.8617	0.0023
721.041	0.0068
721.2203	0.0133
721.3995	0.0043
721.5788	0.0098
721.758	0.0112
721.9372	0.0057
722.1164	-0.0012
722.2956	0.0105
722.4747	0.0054
722.6538	-0.0021
722.8329	0.0081
723.012	0.0025
723.1911	0.0027
723.3702	-0.0038
723.5492	0.0065
723.7282	-0.0055
723.9072	-0.0027
724.0862	-0.0054
724.2652	-0.0031
724.4441	0.001
724.623	0.0018
724.8019	-0.0056
724.9808	0.0027
725.1597	-0.0099
725.3385	0.0007
725.5174	-0.0023
725.6962	0.003
725.875	-0.0083
726.0538	0.0057
726.2325	0.0016
726.4112	-0.0019
726.59	-0.0021
726.7687	-0.0028
726.9474	0.009
727.126	0.0046
727.3047	-0.0082
727.4833	-0.0007
727.6619	-0.003
727.8405	-0.0056
728.0191	-0.001
728.1976	0.0063
728.3762	-0.0009
728.5547	0.0046
728.7332	-0.0099
728.9116	0.0025
729.0901	-0.0059
729.2686	-0.0043
729.447	-0.0052
729.6254	0.0004
729.8038	0.003
729.9821	-0.0072
730.1605	-0.0031
730.3388	0.0007
730.5171	-0.0034
730.6954	-0.0084
730.8737	0.0085
731.0519	0.0007
731.2302	0.0028
731.4084	0.014
731.5866	0.0055
731.7648	-0.0062
731.9429	0.0041
732.1211	-0.011
732.2992	-0.0032
732.4773	-0.0033
732.6554	-0.0066
732.8335	-0.0046
733.0115	0.0031
733.1896	0.0049
733.3676	-0.0013
733.5456	0.0083
733.7235	0.0043
733.9015	0.0058
734.0794	0.005
734.2574	-0.0004
734.4353	-0.0003
734.6131	0.006
734.791	0.0003
734.9689	-0.0038
735.1467	0.0008
735.3245	-0.0019
735.5023	-0.0016
735.68	-0.0043
735.8578	0.0094
736.0355	-0.0176
736.2132	-0.0091
736.3909	-0.0105
736.5686	-0.0093
736.7463	0.0047
736.9239	-0.0019
737.1015	-0.0032
737.2791	0.0119
737.4567	0.0043
737.6343	0.0022
737.8118	0.0103
737.9894	0.0029
738.1669	0.0012
738.3444	0.0007
738.5218	-0.001
738.6993	-0.0042
738.8767	0.0015
739.0541	0.0087
739.2315	-0.0015
739.4089	0.0015
739.5863	0.0038
739.7636	-0.0031
739.9409	0.003
740.1182	0.0091
740.2955	0.0103
740.4728	0.0009
740.65	-0.0065
740.8272	-0.0016
741.0044	0.0004
741.1816	0.0002
741.3588	0.0086
741.5359	-0.0004
741.7131	-0.0163
741.8902	0.006
742.0673	0.0004
742.2444	-0.004
742.4214	-0.0052
742.5985	-0.0023
742.7755	-0.0098
742.9525	-0.0174
743.1295	0.0015
743.3064	0.0042
743.4834	0.0045
743.6603	0.0053
743.8372	-0.0103
744.0141	0.0039
744.191	0.0004
744.3678	0.0013
744.5446	-0
744.7215	0.0044
744.8982	-0.0102
745.075	-0.014
745.2518	0.0009
745.4285	-0.0003
745.6052	-0.0111
745.7819	-0.0084
745.9586	-0.0098
746.1353	0.0001
746.3119	-0.0132
746.4885	-0.0169
746.6651	-0.0169
746.8417	-0.008
747.0183	-0.0011
747.1948	-0.0168
747.3714	-0.008
747.5479	-0.0058
747.7244	-0.007
747.9008	0.0033
748.0773	-0.0077
748.2537	-0.0048
748.4301	-0.0185
748.6065	0.0035
748.7829	-0.0054
748.9593	-0.0015
749.1356	-0.0049
749.3119	0.001
749.4882	-0.009
749.6645	0.0009
749.8408	-0.0007
750.017	-0.0092
750.1933	-0.0009
750.3695	-0.0043
750.5457	0.0061
750.7218	-0.0021
750.898	0.0007
751.0741	0.0011
751.2502	0.0105
751.4263	-0.0074
751.6024	-0.003
751.7784	-0.0087
751.9545	-0.0002
752.1305	-0.0013
752.3065	-0.0061
752.4825	0.0002
752.6584	-0.0106
752.8344	-0.0166
753.0103	-0.0119
753.1862	-0.0119
753.3621	-0.0051
753.5379	-0.0125
753.7138	-0.0008
753.8896	-0.0047
754.0654	0.0041
754.2412	0.0123
754.417	0.0015
754.5927	-0.009
754.7685	0.0031
754.9442	0.0032
755.1199	0.0107
755.2956	0.0007
755.4712	0.0057
755.6469	0.0082
755.8225	0.0017
755.9981	-0.0028
756.1736	0.0053
756.3492	0.0069
756.5248	0.0009
756.7003	0.0042
756.8758	0.0093
757.0513	-0.0085
757.2267	-0.0022
757.4022	-0.0001
757.5776	-0.0071
757.753	0.0016
757.9284	-0.0002
758.1038	0.0088
758.2791	-0.0002
758.4545	-0.0138
758.6298	-0.0026
758.8051	-0.0024
758.9803	0.0074
759.1556	-0.0039
759.3308	-0.0032
759.506	-0.0015
759.6812	0.0041
759.8564	0.0062
760.0316	0.0005
760.2067	0.0101
760.3819	0.0108
760.557	0.0121
760.732	0.0025
760.9071	-0.0138
761.0821	0.0089
761.2572	0.0062
761.4322	-0.0007
761.6072	-0.0028
761.7821	-0.0026
761.9571	0.0066
762.132	-0.0082
762.3069	-0.01
762.4818	-0.0058
762.6567	-0.007
762.8316	-0.0059
763.0064	-0.0041
763.1812	-0.0074
763.356	-0.0116
763.5308	-0.006
763.7055	-0.0062
763.8803	-0.0125
764.055	-0.0057
764.2297	0.0002
764.4044	-0.0083
764.579	-0.0101
764.7537	-0.0097
764.9283	-0.004
765.1029	-0.0044
765.2775	-0.0084
765.4521	-0.0116
765.6266	-0.0113
765.8011	-0.0022
765.9756	-0.0082
766.1501	0.0031
766.3246	0.0016
766.4991	-0.0076
766.6735	0.004
766.8479	-0.0219
767.0223	-0.0041
767.1967	-0.0038
767.371	-0.0073
767.5454	-0.0096
767.7197	-0.005
767.894	-0.0051
768.0683	-0.0077
768.2425	-0.002
768.4168	-0.0069
768.591	-0.001
768.7652	-0.0125
768.9394	-0
769.1135	-0.011
769.2877	0.0035
769.4618	-0.0051
769.6359	-0.0023
769.81	-0.0057
769.984	-0.0146
770.1581	-0.0097
770.3321	0.0003
770.5061	-0.0003
770.6801	-0.0068
770.8541	0.0027
771.028	0.0134
771.202	-0.0167
771.3759	-0.0012
771.5498	-0.0065
771.7236	-0.0029
771.8975	0.0005
772.0713	0.0013
772.2451	0.0061
772.4189	-0.0039
772.5927	0.0057
772.7665	-0.0012
772.9402	-0.0057
773.1139	-0.006
773.2876	-0.0146
773.4613	0.0108
773.635	0.0039
773.8086	-0.0215
773.9822	-0.015
774.1558	-0.0017
774.3294	-0.013
774.503	-0.0067
774.6765	-0.0058
774.8501	-0.0012
775.0236	-0.0058
775.1971	-0.0022
775.3705	-0.0162
775.544	-0.0028
775.7174	-0.0197
775.8908	-0.0139
776.0642	-0.0061
776.2376	0.0007
776.4109	-0.0191
776.5843	-0.0119
776.7576	0.0008
776.9309	-0.0006
777.1041	0.0102
777.2774	0.0111
777.4506	-0.006
777.6238	-0.0022
777.797	-0.0041
777.9702	-0.0002
778.1434	0.0005
778.3165	-0.0125
778.4896	-0.0148
778.6627	0.0121
778.8358	-0.0021
779.0089	-0.0002
779.1819	-0.0105
779.3549	0.0065
779.5279	0.0136
779.7009	-0.0114
779.8739	-0.0035
780.0468	-0.0045
780.2197	0.0026
780.3926	-0.0165
780.5655	-0.0094
780.7384	0.0016
780.9112	-0.0062
781.0841	-0.0069
781.2569	-0.0023
781.4297	0.001
781.6024	-0
781.7752	0.0101
781.9479	-0.001
782.1206	-0.0112
782.2933	-0.0154
782.466	-0.0029
782.6386	0.0054
782.8113	-0.0037
782.9839	-0.002
783.1565	0.0091
783.329	0.0188
783.5016	0.0079
783.6741	-0.0032
783.8466	-0.0015
784.0191	0.0244
784.1916	0.0019
784.3641	0.0048
784.5365	0.0031
784.7089	-0.0003
784.8813	-0.0017
785.0537	0.0036
785.2261	-0.0005
785.3984	-0.016
785.5707	-0.0155
785.743	0.0025
785.9153	-0.0032
786.0876	-0.004
786.2598	-0.012
786.432	-0.017
786.6042	0.0018
786.7764	-0.0031
786.9486	-0.0103
787.1207	-0.0134
787.2928	0.019
787.4649	0.0053
787.637	0.0006
787.8091	-0.0104
787.9811	-0.004
788.1532	-0.0003
788.3252	0.0021
788.4972	-0.0016
788.6691	0.0014
788.8411	-0.0036
789.013	-0.021
789.1849	-0.0028
789.3568	-0.0012
789.5287	-0.0006
789.7005	0.0023
789.8723	0.0028
790.0442	0.0134
790.2159	0.0009
790.3877	-0.0093
790.5595	-0.0132
790.7312	-0.0011
790.9029	-0.0071
791.0746	-0.0026
791.2463	-0.0069
791.4179	0.002
791.5896	-0.0193
791.7612	0.0023
791.9328	0.013
792.1044	-0.0164
792.2759	-0.0079
792.4474	-0.0087
792.619	0.0127
792.7905	0.0122
792.9619	0.0058
793.1334	0.012
793.3048	0.0137
793.4762	0.0125
793.6476	0.0129
793.819	-0.0089
793.9904	0.007
794.1617	-0.0032
794.333	-0.0096
794.5043	-0.0142
794.6756	-0.0028
794.8469	-0.0098
795.0181	-0.0018
795.1893	0.004
795.3605	0.0121
795.5317	-0.0108
795.7029	-0.0113
795.874	-0.0101
796.0452	-0.0058
796.2163	0.0016
796.3873	-0.0047
796.5584	0.0082
796.7294	-0.0028
796.9005	0.0127
797.0715	0.0142
797.2425	-0.018
797.4134	-0.0009
797.5844	0.0132
797.7553	-0.0082
797.9262	-0.0005
798.0971	-0.0124
798.2679	-0.002
798.4388	-0.0175
798.6096	-0.0015
798.7804	-0.0085
798.9512	0.0007
799.122	0.0023
799.2927	-0.0044
799.4635	0.0029
799.6342	-0.0207
799.8049	-0.013
799.9755	-0.0033
800.1462	-0.0031
800.3168	0.0151
800.4874	0.0169
800.658	0.014
800.8286	-0.0025
800.9991	0.0052
801.1696	0.0051
801.3402	-0.0021
801.5106	0.0014
801.6811	0.005
801.8516	0.0155
802.022	0.0016
802.1924	0.0095
802.3628	0.0022
802.5332	-0.0012
802.7035	0.0317
802.8739	0.0096
803.0442	-0.0017
803.2145	0.006
803.3847	-0.0274
803.555	0.0125
803.7252	-0.0143
803.8954	-0.022
804.0656	-0.0132
804.2358	-0.012
804.4059	0.01
804.5761	-0.0175
804.7462	0.0197
804.9163	-0.0101
805.0864	-0.0268
805.2564	0.0007
805.4264	0.0022
805.5965	-0.0051
805.7665	0.0047
805.9364	0.0282
806.1064	0.0177
806.2763	0.0186
806.4462	0.0291
806.6161	0.0037
806.786	-0.002
806.9559	-0.0074
807.1257	-0.0014
807.2955	0.0084
807.4653	-0.005
807.6351	-0.0096
807.8048	0.0016
807.9746	0.0026
808.1443	-0.0077
808.314	-0.0146
808.4837	0.0074
808.6533	-0.0092
808.8229	0.0252
808.9926	-0.001
809.1622	-0.001
809.3317	0.0017
809.5013	-0.0045
809.6708	0.0086
809.8403	0.0042
810.0098	-0.0159
810.1793	0.0141
810.3488	-0.0018
810.5182	-0.0252
810.6876	0.0015
810.857	-0.0121
811.0264	0.0341
811.1958	0.0036
811.3651	0.0176
811.5344	0.0013
811.7037	-0.0165
811.873	-0.0216
812.0422	0.0161
812.2115	0.003
812.3807	-0.0011
812.5499	0.0038
812.7191	0.0054
812.8882	-0.0006
813.0574	-0.0186
813.2265	-0.0035
813.3956	-0.0022
813.5646	0.0149
813.7337	-0.0365
813.9027	-0.0088
814.0718	0.0102
814.2407	-0.0032
814.4097	-0.0017
814.5787	-0.021
814.7476	-0.0081
814.9165	0.0059
815.0854	-0.0171
815.2543	-0.0094
815.4232	-0.011
815.592	0.0049
815.7608	0.0084
815.9296	0.0235
816.0984	0.0086
816.2671	-0.0003
816.4359	-0.016
816.6046	-0.0126
816.7733	0.0037
816.942	-0.0262
817.1106	-0.0057
817.2793	-0.0193
817.4479	0.0003
817.6165	0.0074
817.785	0.0054
817.9536	-0.0211
818.1221	-0.007
818.2906	-0.0045
818.4591	-0.0254
818.6276	-0.0256
818.7961	-0.0162
818.9645	0.0063
819.1329	0.0003
819.3013	0.0051
819.4697	0.0182
819.638	-0.0201
819.8064	0.0065
819.9747	0.0177
820.143	-0.0068
820.3113	0.0048
820.4795	0.012
820.6477	0.0136
820.816	0.0146
820.9842	0.0131
821.1523	0.0022
821.3205	0.0021
821.4886	-0.0146
821.6567	0.0227
821.8248	0.0144
821.9929	0.0055
822.1609	0.0049
822.329	0.0164
822.497	0.0161
822.665	-0.0078
822.833	-0.0226
823.0009	-0.0126
823.1688	0.0076
823.3367	0.0376
823.5046	0.0027
823.6725	0.0146
823.8404	-0.02
824.0082	0.0051
824.176	0.0084
824.3438	0.0335
824.5116	-0.0185
824.6793	0.0121
824.847	-0.017
825.0147	0.0077
825.1824	0.0422
825.3501	0.01
825.5177	0.0036
825.6854	-0.0227
825.853	0.0205
826.0206	-0.0345
826.1881	0.014
826.3557	-0.0301
826.5232	0.0195
826.6907	-0.0098
826.8582	-0.0112
827.0257	-0.0476
827.1931	0.0055
827.3605	-0.0304
827.528	-0.0097
827.6953	-0.0173
827.8627	-0.0196
828.03	0.0417
828.1974	-0.0161
828.3647	-0.0246
828.532	-0.0332
828.6992	-0.0546
828.8665	-0.026
829.0337	0.0071
829.2009	-0.0045
829.3681	0.0088
829.5352	0.0311
829.7024	-0.0281
829.8695	-0.0442
830.0366	0.0626
830.2037	0.0031
830.3707	0.0095
830.5378	-0.0011
830.7048	-0.0076
830.8718	0.0027
831.0388	-0.0447
831.2057	0.0213
831.3727	0.0257
831.5396	-0.0265
831.7065	-0.0321
831.8734	0.0082
832.0402	0.0127
832.2071	-0.03
832.3739	-0.0095
832.5407	0.0012
832.7075	-0.0249
832.8742	-0.0421
833.041	-0.0284
833.2077	0.0245
833.3744	-0.0024
833.541	-0.0078
833.7077	-0.0207
833.8743	-0.0161
834.0409	0.0031
834.2075	-0.0125
834.3741	-0.0292
834.5407	0.0109
834.7072	0.0083
834.8737	-0.0092
835.0402	-0.0119
835.2067	0.0211
835.3731	-0.0557
835.5395	0.0039
835.706	0.0078
835.8723	-0.0224
836.0387	-0.0094
836.2051	-0.0014
836.3714	-0.0233
836.5377	0.0147
836.704	0.0036
836.8703	0.0054
837.0365	0.0202
837.2027	-0.0163
837.3689	-0
837.5351	-0.0262
837.7013	-0.0351
837.8674	-0.023
838.0335	-0.0209
838.1997	-0.0411
838.3657	0.0254
838.5318	-0.0101
838.6978	0.0073
838.8639	0.0174
839.0299	-0.0465
839.1958	-0.0206
839.3618	0.0193
839.5277	-0.029
839.6937	-0.0535
839.8596	-0.0221
840.0254	-0.0049
840.1913	0.0185
840.3571	0.029
840.523	-0.0147
840.6888	-0.0351
840.8545	-0.0261
841.0203	-0.0017
841.186	-0.0034
841.3517	0.0296
841.5174	0.016
841.6831	-0.0597
841.8488	-0.0236
842.0144	-0.0334
842.18	-0.0018
842.3456	0.0133
842.5112	-0.0294
842.6767	-0.0248
842.8422	0.0065
843.0077	-0.0649
843.1732	-0.0303
843.3387	-0.0123
843.5042	-0
843.6696	-0.028
843.835	0.0022
844.0004	0.0648
844.1657	0.0269
844.3311	-0.0992
844.4964	-0.046
844.6617	-0.0322
844.827	-0.0441
844.9923	0.0081
845.1575	0.0571
845.3227	-0.0236
845.4879	-0.0022
845.6531	-0.0517
845.8183	-0.1039
845.9834	-0.0147
846.1485	0.0099
846.3136	-0.0669
846.4787	-0.0833
846.6438	0.036
846.8088	-0.0303
846.9738	-0.1006
847.1388	-0.0179
847.3038	-0.0996
847.4687	-0.0846
847.6337	0.0039
847.7986	-0.022
847.9635	-0.0326
848.1284	-0.0187
848.2932	0.0542
848.458	-0.0343
848.6228	0.0772
848.7876	0.1043
848.9524	-0.1091
849.1172	-0.0739
849.2819	0.0014
849.4466	-0.1626
849.6113	-0.07
849.7759	0.0354
849.9406	-0.0711
850.1052	0.021
850.2698	-0.0019
850.4344	-0.0447
850.599	-0.0837
850.7635	0.0726
850.928	-0.053
851.0925	-0.0592
851.257	0.0507
851.4215	0.0511
851.5859	0.0225
851.7503	0.0062
851.9147	0.0151
852.0791	-0.0516
852.2434	-0.0038
852.4078	0.0381
852.5721	0.1672
852.7364	-0.0352
852.9007	-0.1229
853.0649	0.0119
853.2291	-0.0289
853.3934	0.0782
853.5575	-0.0409
853.7217	-0.1115
853.8859	-0.1704
854.05	-0.0729
854.2141	-0.056
854.3782	-0.1496
854.5423	0.0859
854.7063	0.0746
854.8703	-0.0689
855.0343	-0.1153
855.1983	-0.1283
855.3623	-0.0038
855.5262	0.1193
855.6901	-0.0959
855.854	-0.0182
856.0179	0.1849
856.1818	0.0493
856.3456	-0.1357
856.5094	-0.1859
856.6732	-0.1988
856.837	-0.1118
857.0008	0.094
857.1645	-0.0178
857.3282	-0.0845
857.4919	0.1377
857.6556	0.0253
857.8192	0.0713
857.9828	0.1592
858.1465	0.0367
858.31	-0.1844
858.4736	-0.0413
858.6372	-0.3506
858.8007	-0.2082
858.9642	-0.009
859.1277	-0.1262
859.2911	0.0865
859.4546	-0.0223
859.618	-0.4545
859.7814	-0.0355
859.9448	0.0044
860.1081	0.2504
860.2715	0.0546
860.4348	-0.1599
860.5981	-0.0274
860.7614	0.0602
860.9246	-0.2104
861.0879	-0.062
861.2511	0.0628
861.4143	-0.2615
861.5774	0.1166
861.7406	-0.357
861.9037	-0.1023
862.0668	1.024
862.2299	-0.085
862.393	-0.5112
862.556	0.031
862.7191	-0.3944
862.8821	-0.3232
863.0451	0.0524
863.208	-0.0511
863.371	0.0136
863.5339	0.0234
863.6968	0.0751
863.8597	-0.183
864.0225	-0.081
864.1854	0.1366
864.3482	0.0646
864.511	-0.0612
864.6737	0.2061
864.8365	0.1196
864.9992	-0.5658
865.1619	-0.286
865.3246	-0.2032
865.4873	-0.0467
865.65	-0.2239
865.8126	-0.0155
865.9752	-0.0211
866.1378	-0.1912
866.3004	0.0142
866.4629	0.2061
866.6254	-0.2421
866.7879	-0.2703
866.9504	-0.3236
867.1129	-0
867.2753	-0.0767
867.4377	0.1065
867.6001	-0.4962
867.7625	-0.1211
867.9249	-0.9086
868.0872	0.0653
868.2495	-0.0291
868.4118	-0.1086
868.5741	-0.3646
868.7363	-0.4111
868.8986	-0.3553
869.0608	-0.1784
869.223	0.1005
869.3851	0.0976
869.5473	-0
869.7094	0.1018
869.8715	-0.1741
870.0336	-0.1313
870.1957	-0.8571
870.3577	-1.1967
870.5197	0.0553
870.6817	-0.256
870.8437	-0.1263
871.0057	-0
871.1676	-0.5857
871.3295	-0.3955
871.4914	-0.0817
871.6533	-0.4486
871.8151	-0.2988
871.977	-0
872.1388	-0
872.3006	-0
872.4623	-0
872.6241	-0.0327
872.7858	-0
872.9475	0.3121
873.1092	0.2344
873.2709	0.2754
873.4325	0.5839
873.5941	-0
873.7557	0.0988
873.9173	-0.6089
874.0789	-0.133
874.2404	-0.4904
874.4019	0.2066
874.5634	-0.1581
874.7249	0.1662
874.8863	0.0228
875.0478	-0.1642
875.2092	-0
875.3706	-0.0723
875.5319	-0.67
875.6933	-0
875.8546	-0.511
876.0159	-0
876.1772	0.4672
876.3385	-0
876.4997	0.1786
876.6609	-0.4889
876.8221	-0
876.9833	-0
877.1445	-0
877.3056	0.0372
877.4667	-0.2989
877.6278	-0
877.7889	-0.3203
877.9499	-0
878.111	-0.9785
878.272	-0
878.433	-0
878.5939	0.2629
878.7549	-0.1244
878.9158	-0.6325
879.0767	-0.0546
879.2376	-0.1086
879.3984	0.1448
879.5593	-0
879.7201	0.0934
879.8809	-0.5745
880.0417	-0.2986
880.2024	0.1121
880.3632	-0
880.5239	-0
880.6846	-0
880.8452	-2.5119
881.0059	-0
881.1665	0.2152
881.3271	-0
881.4877	0.9402
881.6483	-0.7735
881.8088	-0.2889
881.9693	-0
882.1298	-0
882.2903	-0
