Data from MonoPyChalIsomerACN10uM350nmA_Absorbance_14-35-38-815.txt Node
Date: Fri Jul 05 14:35:38 BST 2024
User: LASERRRRR
Spectrometer: FLMT03099
Trigger mode: 0
Integration Time (sec): 1.000000E-1
Scans to average: 1
Electric dark correction enabled: true
Nonlinearity correction enabled: false
Boxcar width: 0
XAxis mode: Wavelengths
Number of Pixels in Spectrum: 3648
>>>>>Begin Spectral Data<<<<<
179.3399	-0.0733
179.5586	-0.0733
179.7771	-0.0733
179.9957	0.3749
180.2143	-0
180.4329	-0
180.6514	-0
180.8699	0.1357
181.0885	0.0501
181.307	0.0997
181.5255	-1.0102
181.744	-0.9257
181.9625	-0.3327
182.181	-0.9742
182.3994	-0
182.6179	1.4337
182.8363	0.3097
183.0547	-0.1523
183.2732	0.2676
183.4916	0.1203
183.71	-0.1045
183.9284	0.2124
184.1467	-0.0014
184.3651	-0.091
184.5835	-0.1914
184.8018	-0.084
185.0201	0.0558
185.2385	0.1015
185.4568	0.2055
185.6751	0.3393
185.8934	0.2949
186.1117	-0.0915
186.3299	0.0292
186.5482	-0.0633
186.7664	-0.0106
186.9847	-0.0101
187.2029	0.2137
187.4211	0.2373
187.6393	0.1194
187.8575	0.069
188.0757	0.0612
188.2939	0.0625
188.512	0.0961
188.7302	-0.1316
188.9483	0.464
189.1665	0.2696
189.3846	-0.21
189.6027	0.3898
189.8208	0.1905
190.0389	0.3079
190.257	0.114
190.475	0.0159
190.6931	0.2502
190.9111	0.3108
191.1292	0.3768
191.3472	0.3324
191.5652	0.2296
191.7832	0.2639
192.0012	0.3691
192.2192	0.3033
192.4371	0.332
192.6551	0.5136
192.873	0.3289
193.091	0.2999
193.3089	0.5564
193.5268	0.4482
193.7447	0.8061
193.9626	0.6026
194.1805	0.8136
194.3984	0.8103
194.6162	0.6523
194.8341	0.5667
195.0519	0.5894
195.2697	0.6542
195.4875	0.6518
195.7054	0.5779
195.9231	0.4991
196.1409	0.5394
196.3587	0.5642
196.5765	0.5796
196.7942	0.473
197.012	0.5582
197.2297	0.6696
197.4474	0.7148
197.6651	0.4844
197.8828	0.6078
198.1005	0.6576
198.3182	0.59
198.5358	0.7314
198.7535	0.634
198.9711	0.7242
199.1888	0.5502
199.4064	0.7794
199.624	0.6551
199.8416	0.523
200.0592	0.7595
200.2767	0.7427
200.4943	0.7168
200.7119	0.7962
200.9294	0.7332
201.1469	0.7724
201.3645	0.5541
201.582	0.5974
201.7995	0.6064
202.017	0.6333
202.2344	0.6058
202.4519	0.6378
202.6694	0.6537
202.8868	0.7155
203.1042	0.6767
203.3217	0.7935
203.5391	0.5622
203.7565	0.5606
203.9739	0.6173
204.1913	0.6294
204.4086	0.706
204.626	0.6485
204.8433	0.6479
205.0607	0.6192
205.278	0.6855
205.4953	0.59
205.7126	0.6825
205.9299	0.7973
206.1472	0.7041
206.3644	0.7855
206.5817	0.6919
206.7989	0.7697
207.0162	0.6456
207.2334	0.6283
207.4506	0.6302
207.6678	0.5769
207.885	0.6367
208.1022	0.6275
208.3194	0.6892
208.5365	0.6528
208.7537	0.6811
208.9708	0.6166
209.1879	0.6845
209.405	0.6673
209.6222	0.6302
209.8392	0.6312
210.0563	0.6519
210.2734	0.6963
210.4905	0.5823
210.7075	0.6319
210.9245	0.5603
211.1416	0.6821
211.3586	0.6184
211.5756	0.5648
211.7926	0.5924
212.0096	0.5872
212.2265	0.5356
212.4435	0.5932
212.6604	0.5858
212.8774	0.5903
213.0943	0.5519
213.3112	0.5099
213.5281	0.5087
213.745	0.5172
213.9619	0.526
214.1788	0.4984
214.3956	0.4709
214.6125	0.4783
214.8293	0.4476
215.0461	0.4939
215.2629	0.4411
215.4798	0.4562
215.6965	0.414
215.9133	0.4198
216.1301	0.422
216.3469	0.4383
216.5636	0.4028
216.7803	0.382
216.9971	0.3829
217.2138	0.3814
217.4305	0.3422
217.6472	0.3595
217.8639	0.3689
218.0805	0.3333
218.2972	0.3182
218.5138	0.318
218.7305	0.3157
218.9471	0.3111
219.1637	0.2931
219.3803	0.2641
219.5969	0.2826
219.8135	0.2654
220.0301	0.2682
220.2466	0.2595
220.4632	0.2401
220.6797	0.2394
220.8962	0.2342
221.1127	0.2461
221.3292	0.262
221.5457	0.2492
221.7622	0.2294
221.9787	0.2581
222.1951	0.2333
222.4116	0.2631
222.628	0.2651
222.8444	0.2476
223.0608	0.2599
223.2772	0.2349
223.4936	0.2609
223.71	0.255
223.9264	0.2761
224.1427	0.2711
224.3591	0.2609
224.5754	0.2593
224.7917	0.2635
225.008	0.2657
225.2243	0.2629
225.4406	0.2657
225.6569	0.2739
225.8732	0.264
226.0894	0.2545
226.3057	0.2674
226.5219	0.2927
226.7381	0.2545
226.9543	0.2764
227.1705	0.2837
227.3867	0.2501
227.6029	0.2952
227.8191	0.2941
228.0352	0.2973
228.2513	0.3224
228.4675	0.3158
228.6836	0.2956
228.8997	0.2901
229.1158	0.2842
229.3319	0.3033
229.548	0.3087
229.764	0.326
229.9801	0.3202
230.1961	0.311
230.4121	0.3214
230.6282	0.3324
230.8442	0.3229
231.0602	0.3557
231.2761	0.3435
231.4921	0.3442
231.7081	0.3664
231.924	0.3347
232.14	0.3855
232.3559	0.3243
232.5718	0.3496
232.7877	0.3503
233.0036	0.3466
233.2195	0.3598
233.4353	0.3724
233.6512	0.3692
233.867	0.3759
234.0829	0.3623
234.2987	0.354
234.5145	0.3679
234.7303	0.3799
234.9461	0.3772
235.1619	0.379
235.3776	0.3844
235.5934	0.3965
235.8091	0.3816
236.0249	0.3873
236.2406	0.3741
236.4563	0.3848
236.672	0.4115
236.8877	0.4
237.1034	0.4047
237.319	0.4043
237.5347	0.4026
237.7503	0.3828
237.966	0.3805
238.1816	0.4054
238.3972	0.4108
238.6128	0.4127
238.8284	0.4131
239.0439	0.4126
239.2595	0.4001
239.475	0.4116
239.6906	0.4073
239.9061	0.409
240.1216	0.3947
240.3371	0.4145
240.5526	0.3891
240.7681	0.3976
240.9836	0.3796
241.199	0.3891
241.4145	0.3796
241.6299	0.3847
241.8453	0.3912
242.0607	0.3864
242.2761	0.3802
242.4915	0.359
242.7069	0.377
242.9223	0.3706
243.1376	0.3391
243.353	0.3483
243.5683	0.3498
243.7836	0.3183
243.9989	0.3263
244.2142	0.314
244.4295	0.3105
244.6448	0.3208
244.86	0.3032
245.0753	0.2853
245.2905	0.3058
245.5057	0.2678
245.721	0.2754
245.9362	0.2714
246.1514	0.2806
246.3665	0.2567
246.5817	0.2505
246.7969	0.2517
247.012	0.2335
247.2271	0.2472
247.4423	0.2415
247.6574	0.2406
247.8725	0.2197
248.0876	0.2164
248.3026	0.2347
248.5177	0.2292
248.7328	0.2233
248.9478	0.2196
249.1628	0.2248
249.3779	0.2195
249.5929	0.2061
249.8079	0.2075
250.0228	0.2034
250.2378	0.202
250.4528	0.2094
250.6677	0.184
250.8827	0.1946
251.0976	0.1904
251.3125	0.1916
251.5274	0.1719
251.7423	0.1813
251.9572	0.1888
252.172	0.1823
252.3869	0.1886
252.6017	0.1846
252.8166	0.1671
253.0314	0.1698
253.2462	0.1666
253.461	0.1797
253.6758	0.1673
253.8906	0.1782
254.1053	0.1605
254.3201	0.1824
254.5348	0.1722
254.7496	0.1737
254.9643	0.1666
255.179	0.1736
255.3937	0.1692
255.6083	0.1797
255.823	0.1641
256.0377	0.1593
256.2523	0.1566
256.467	0.1475
256.6816	0.1681
256.8962	0.1782
257.1108	0.1556
257.3254	0.1817
257.54	0.1653
257.7545	0.1605
257.9691	0.1699
258.1836	0.1637
258.3981	0.1707
258.6127	0.1755
258.8272	0.1641
259.0417	0.171
259.2561	0.161
259.4706	0.1749
259.6851	0.1628
259.8995	0.1728
260.114	0.1562
260.3284	0.1665
260.5428	0.1728
260.7572	0.1675
260.9716	0.1595
261.186	0.151
261.4003	0.1684
261.6147	0.1678
261.829	0.1539
262.0433	0.166
262.2577	0.1619
262.472	0.1646
262.6863	0.1712
262.9005	0.1728
263.1148	0.171
263.3291	0.1504
263.5433	0.1711
263.7576	0.1618
263.9718	0.1611
264.186	0.1624
264.4002	0.1743
264.6144	0.1696
264.8286	0.1663
265.0427	0.1529
265.2569	0.1621
265.471	0.1595
265.6851	0.1513
265.8993	0.1603
266.1134	0.1432
266.3275	0.1601
266.5415	0.1591
266.7556	0.1658
266.9697	0.1612
267.1837	0.1718
267.3978	0.1476
267.6118	0.1756
267.8258	0.1756
268.0398	0.1455
268.2538	0.1649
268.4677	0.1542
268.6817	0.1614
268.8957	0.1604
269.1096	0.1615
269.3235	0.1656
269.5374	0.1585
269.7514	0.1513
269.9652	0.1526
270.1791	0.1594
270.393	0.1515
270.6068	0.1531
270.8207	0.1466
271.0345	0.1385
271.2483	0.1548
271.4622	0.1519
271.676	0.1581
271.8897	0.1462
272.1035	0.1466
272.3173	0.1482
272.531	0.1447
272.7448	0.1495
272.9585	0.1556
273.1722	0.1515
273.3859	0.161
273.5996	0.1352
273.8133	0.1499
274.0269	0.1422
274.2406	0.1466
274.4542	0.153
274.6679	0.1363
274.8815	0.1498
275.0951	0.1525
275.3087	0.1538
275.5223	0.1508
275.7358	0.1476
275.9494	0.1478
276.1629	0.1346
276.3765	0.1443
276.59	0.1534
276.8035	0.1379
277.017	0.1499
277.2305	0.1432
277.444	0.1523
277.6574	0.1428
277.8709	0.1416
278.0843	0.1369
278.2978	0.1459
278.5112	0.1492
278.7246	0.1479
278.938	0.15
279.1513	0.1524
279.3647	0.1605
279.5781	0.1368
279.7914	0.1416
280.0047	0.1579
280.2181	0.1481
280.4314	0.1451
280.6447	0.1566
280.8579	0.1498
281.0712	0.1556
281.2845	0.1572
281.4977	0.1557
281.711	0.1461
281.9242	0.1511
282.1374	0.1636
282.3506	0.1484
282.5638	0.159
282.7769	0.1598
282.9901	0.1603
283.2033	0.1646
283.4164	0.1666
283.6295	0.1517
283.8426	0.1511
284.0557	0.1635
284.2688	0.1688
284.4819	0.1655
284.695	0.1648
284.908	0.1688
285.1211	0.1618
285.3341	0.1636
285.5471	0.1624
285.7601	0.1584
285.9731	0.1597
286.1861	0.1416
286.3991	0.1589
286.612	0.1684
286.825	0.1692
287.0379	0.1689
287.2508	0.1562
287.4637	0.1642
287.6766	0.1585
287.8895	0.1666
288.1024	0.1667
288.3152	0.157
288.5281	0.1667
288.7409	0.1666
288.9538	0.1645
289.1666	0.1638
289.3794	0.1552
289.5922	0.1572
289.8049	0.1695
290.0177	0.1466
290.2304	0.1579
290.4432	0.168
290.6559	0.1613
290.8686	0.165
291.0813	0.1544
291.294	0.1631
291.5067	0.1663
291.7194	0.1648
291.932	0.1801
292.1447	0.1596
292.3573	0.1561
292.5699	0.1675
292.7825	0.1736
292.9951	0.1686
293.2077	0.1729
293.4203	0.1555
293.6328	0.1485
293.8454	0.1766
294.0579	0.1684
294.2704	0.1731
294.4829	0.1528
294.6954	0.167
294.9079	0.1643
295.1204	0.1579
295.3328	0.1692
295.5453	0.1695
295.7577	0.1644
295.9701	0.155
296.1825	0.1641
296.3949	0.1512
296.6073	0.1577
296.8197	0.1619
297.0321	0.1851
297.2444	0.1425
297.4567	0.1696
297.6691	0.1563
297.8814	0.1664
298.0937	0.1593
298.306	0.1706
298.5182	0.1613
298.7305	0.1637
298.9428	0.1528
299.155	0.1727
299.3672	0.1617
299.5794	0.1484
299.7916	0.1589
300.0038	0.172
300.216	0.1659
300.4282	0.163
300.6403	0.1608
300.8525	0.1633
301.0646	0.1623
301.2767	0.1645
301.4888	0.1615
301.7009	0.1605
301.913	0.1516
302.125	0.1605
302.3371	0.1458
302.5491	0.1638
302.7612	0.1665
302.9732	0.1668
303.1852	0.1643
303.3972	0.1597
303.6092	0.1523
303.8211	0.155
304.0331	0.156
304.245	0.1483
304.457	0.1582
304.6689	0.15
304.8808	0.1571
305.0927	0.1437
305.3046	0.1487
305.5164	0.1528
305.7283	0.1452
305.9401	0.147
306.152	0.1526
306.3638	0.14
306.5756	0.1429
306.7874	0.1434
306.9992	0.1519
307.2109	0.1366
307.4227	0.1314
307.6344	0.1285
307.8462	0.1439
308.0579	0.1284
308.2696	0.1325
308.4813	0.1253
308.693	0.1246
308.9046	0.1375
309.1163	0.1244
309.328	0.1166
309.5396	0.1261
309.7512	0.115
309.9628	0.1169
310.1744	0.1162
310.386	0.1288
310.5976	0.1205
310.8091	0.1136
311.0207	0.119
311.2322	0.1252
311.4437	0.1158
311.6552	0.111
311.8667	0.1168
312.0782	0.1076
312.2897	0.1002
312.5012	0.1138
312.7126	0.1057
312.924	0.1044
313.1355	0.1156
313.3469	0.112
313.5583	0.11
313.7696	0.1031
313.981	0.1067
314.1924	0.1019
314.4037	0.1021
314.6151	0.1113
314.8264	0.1069
315.0377	0.0989
315.249	0.108
315.4603	0.122
315.6716	0.1077
315.8828	0.0949
316.0941	0.101
316.3053	0.0888
316.5165	0.0974
316.7277	0.1043
316.9389	0.1062
317.1501	0.0894
317.3613	0.1027
317.5724	0.0885
317.7836	0.1074
317.9947	0.0929
318.2058	0.0903
318.417	0.0917
318.6281	0.0917
318.8391	0.099
319.0502	0.0958
319.2613	0.097
319.4723	0.1017
319.6834	0.0986
319.8944	0.0875
320.1054	0.0963
320.3164	0.1015
320.5274	0.0976
320.7383	0.09
320.9493	0.0982
321.1602	0.1111
321.3712	0.0967
321.5821	0.1108
321.793	0.105
322.0039	0.0969
322.2148	0.09
322.4257	0.0996
322.6365	0.1074
322.8474	0.1016
323.0582	0.0961
323.269	0.0925
323.4798	0.1203
323.6906	0.1122
323.9014	0.0984
324.1122	0.1028
324.3229	0.1037
324.5337	0.109
324.7444	0.0876
324.9551	0.1127
325.1658	0.1071
325.3765	0.1057
325.5872	0.0991
325.7979	0.1063
326.0085	0.1052
326.2192	0.1173
326.4298	0.1126
326.6404	0.1021
326.851	0.0939
327.0616	0.102
327.2722	0.109
327.4828	0.1029
327.6933	0.0941
327.9039	0.1098
328.1144	0.1146
328.3249	0.1033
328.5354	0.087
328.7459	0.1016
328.9564	0.1008
329.1669	0.1077
329.3773	0.1091
329.5878	0.0905
329.7982	0.1
330.0086	0.1057
330.219	0.1154
330.4294	0.1014
330.6398	0.1052
330.8502	0.0951
331.0605	0.1119
331.2708	0.1007
331.4812	0.1191
331.6915	0.1069
331.9018	0.1064
332.1121	0.1056
332.3224	0.1106
332.5326	0.1105
332.7429	0.1009
332.9531	0.1206
333.1633	0.1062
333.3735	0.1121
333.5837	0.1058
333.7939	0.1069
334.0041	0.1188
334.2143	0.1183
334.4244	0.1099
334.6346	0.1047
334.8447	0.1205
335.0548	0.1089
335.2649	0.1061
335.475	0.115
335.685	0.1073
335.8951	0.1253
336.1051	0.1202
336.3152	0.109
336.5252	0.102
336.7352	0.1166
336.9452	0.1194
337.1552	0.1135
337.3652	0.1133
337.5751	0.1108
337.7851	0.1115
337.995	0.1101
338.2049	0.1223
338.4148	0.1057
338.6247	0.111
338.8346	0.1135
339.0445	0.1113
339.2543	0.1046
339.4642	0.1189
339.674	0.1096
339.8838	0.1063
340.0936	0.1165
340.3034	0.1289
340.5132	0.1288
340.7229	0.1161
340.9327	0.1158
341.1424	0.1105
341.3522	0.1268
341.5619	0.1282
341.7716	0.1169
341.9813	0.1248
342.1909	0.1255
342.4006	0.1197
342.6102	0.122
342.8199	0.1224
343.0295	0.1126
343.2391	0.1321
343.4487	0.1324
343.6583	0.1185
343.8679	0.1233
344.0774	0.1307
344.287	0.1205
344.4965	0.1312
344.706	0.124
344.9155	0.121
345.125	0.1313
345.3345	0.127
345.544	0.1303
345.7534	0.1342
345.9629	0.1265
346.1723	0.1414
346.3817	0.1378
346.5911	0.1187
346.8005	0.1342
347.0099	0.1387
347.2193	0.1392
347.4286	0.131
347.638	0.137
347.8473	0.147
348.0566	0.1385
348.2659	0.1212
348.4752	0.1392
348.6845	0.1395
348.8937	0.142
349.103	0.1455
349.3122	0.1238
349.5214	0.1291
349.7306	0.1424
349.9398	0.1405
350.149	0.1412
350.3582	0.1327
350.5674	0.1441
350.7765	0.1427
350.9856	0.1383
351.1948	0.1307
351.4039	0.1353
351.613	0.1363
351.822	0.1391
352.0311	0.152
352.2402	0.1401
352.4492	0.1468
352.6582	0.1665
352.8672	0.1506
353.0762	0.1563
353.2852	0.1448
353.4942	0.1558
353.7032	0.1439
353.9121	0.1371
354.1211	0.1487
354.33	0.1565
354.5389	0.1525
354.7478	0.1378
354.9567	0.1458
355.1655	0.1489
355.3744	0.1539
355.5833	0.1693
355.7921	0.1734
356.0009	0.1504
356.2097	0.1649
356.4185	0.1653
356.6273	0.1611
356.8361	0.161
357.0448	0.1459
357.2536	0.165
357.4623	0.1497
357.671	0.1649
357.8797	0.1748
358.0884	0.1602
358.2971	0.171
358.5057	0.17
358.7144	0.1743
358.923	0.1776
359.1316	0.1794
359.3402	0.1753
359.5488	0.1752
359.7574	0.1594
359.966	0.1719
360.1746	0.1784
360.3831	0.1745
360.5916	0.1671
360.8002	0.1621
361.0087	0.1741
361.2172	0.167
361.4256	0.1838
361.6341	0.1784
361.8426	0.1799
362.051	0.1719
362.2594	0.1769
362.4678	0.1994
362.6762	0.1977
362.8846	0.1821
363.093	0.1763
363.3014	0.1884
363.5097	0.1665
363.718	0.1906
363.9264	0.1868
364.1347	0.173
364.343	0.184
364.5513	0.1884
364.7595	0.2083
364.9678	0.1919
365.176	0.1963
365.3842	0.2096
365.5925	0.2031
365.8007	0.1955
366.0089	0.193
366.217	0.1737
366.4252	0.1991
366.6333	0.2072
366.8415	0.1985
367.0496	0.1916
367.2577	0.2195
367.4658	0.2155
367.6739	0.2127
367.882	0.2246
368.09	0.208
368.2981	0.2072
368.5061	0.2103
368.7141	0.2002
368.9221	0.2134
369.1301	0.2044
369.3381	0.2152
369.5461	0.2119
369.754	0.2186
369.962	0.2167
370.1699	0.2088
370.3778	0.226
370.5857	0.1952
370.7936	0.2212
371.0015	0.2093
371.2093	0.219
371.4172	0.2299
371.625	0.2016
371.8328	0.218
372.0406	0.2181
372.2484	0.2177
372.4562	0.2234
372.664	0.2089
372.8717	0.2286
373.0795	0.195
373.2872	0.2277
373.4949	0.233
373.7026	0.2294
373.9103	0.2278
374.118	0.2341
374.3256	0.2236
374.5333	0.2147
374.7409	0.2229
374.9485	0.2335
375.1561	0.2136
375.3637	0.2309
375.5713	0.2382
375.7789	0.2253
375.9864	0.2258
376.194	0.2245
376.4015	0.2316
376.609	0.2479
376.8165	0.2258
377.024	0.2265
377.2315	0.2346
377.4389	0.2431
377.6464	0.2389
377.8538	0.2525
378.0612	0.2286
378.2686	0.2425
378.476	0.2537
378.6834	0.249
378.8908	0.2466
379.0981	0.2488
379.3055	0.2397
379.5128	0.2395
379.7201	0.2517
379.9274	0.249
380.1347	0.2525
380.342	0.2678
380.5492	0.2472
380.7565	0.2431
380.9637	0.2653
381.1709	0.247
381.3781	0.2473
381.5853	0.258
381.7925	0.2505
381.9997	0.2704
382.2068	0.2581
382.4139	0.2662
382.6211	0.243
382.8282	0.2516
383.0353	0.2536
383.2424	0.2563
383.4494	0.2413
383.6565	0.2627
383.8635	0.2435
384.0706	0.2489
384.2776	0.2679
384.4846	0.2378
384.6916	0.2493
384.8986	0.245
385.1055	0.2762
385.3125	0.2537
385.5194	0.2511
385.7263	0.2548
385.9333	0.2525
386.1402	0.2433
386.347	0.2411
386.5539	0.247
386.7608	0.2687
386.9676	0.23
387.1744	0.2462
387.3813	0.2375
387.5881	0.2506
387.7948	0.2584
388.0016	0.2431
388.2084	0.2473
388.4151	0.2375
388.6219	0.2328
388.8286	0.2459
389.0353	0.2681
389.242	0.2633
389.4487	0.2563
389.6553	0.2356
389.862	0.2257
390.0686	0.2237
390.2753	0.2524
390.4819	0.261
390.6885	0.2455
390.8951	0.2423
391.1016	0.2381
391.3082	0.2268
391.5147	0.2466
391.7213	0.2259
391.9278	0.2348
392.1343	0.2329
392.3408	0.2301
392.5473	0.2443
392.7537	0.2202
392.9602	0.2334
393.1666	0.2277
393.373	0.2276
393.5794	0.2377
393.7858	0.2089
393.9922	0.2112
394.1986	0.2194
394.4049	0.2352
394.6113	0.1975
394.8176	0.1967
395.0239	0.2158
395.2302	0.2157
395.4365	0.2246
395.6428	0.2245
395.8491	0.2035
396.0553	0.219
396.2615	0.2217
396.4678	0.2229
396.674	0.2114
396.8802	0.196
397.0863	0.2242
397.2925	0.2099
397.4987	0.2063
397.7048	0.2128
397.9109	0.2138
398.117	0.2145
398.3231	0.2157
398.5292	0.2198
398.7353	0.2298
398.9413	0.2133
399.1474	0.2065
399.3534	0.2183
399.5594	0.2067
399.7654	0.2402
399.9714	0.2196
400.1774	0.2033
400.3833	0.1939
400.5893	0.2173
400.7952	0.2074
401.0011	0.2122
401.207	0.222
401.4129	0.2187
401.6188	0.2198
401.8247	0.2173
402.0305	0.2099
402.2364	0.2166
402.4422	0.216
402.648	0.2105
402.8538	0.2305
403.0596	0.2026
403.2654	0.2169
403.4711	0.1978
403.6768	0.2081
403.8826	0.2336
404.0883	0.2114
404.294	0.2147
404.4997	0.2156
404.7054	0.2219
404.911	0.2014
405.1167	0.2112
405.3223	0.2231
405.5279	0.2292
405.7335	0.2168
405.9391	0.222
406.1447	0.2085
406.3502	0.2367
406.5558	0.2066
406.7613	0.2245
406.9668	0.2129
407.1724	0.2017
407.3778	0.2088
407.5833	0.2201
407.7888	0.2065
407.9942	0.2221
408.1997	0.2186
408.4051	0.1975
408.6105	0.221
408.8159	0.2089
409.0213	0.1936
409.2267	0.2231
409.432	0.1882
409.6374	0.2255
409.8427	0.1955
410.048	0.2299
410.2533	0.2335
410.4586	0.2006
410.6639	0.202
410.8691	0.1946
411.0744	0.2038
411.2796	0.2025
411.4848	0.222
411.69	0.2025
411.8952	0.2277
412.1004	0.2008
412.3056	0.2098
412.5107	0.1962
412.7158	0.2256
412.921	0.209
413.1261	0.206
413.3312	0.1891
413.5362	0.1904
413.7413	0.1902
413.9464	0.2081
414.1514	0.1901
414.3564	0.1956
414.5614	0.1871
414.7664	0.2209
414.9714	0.1847
415.1764	0.1966
415.3813	0.2092
415.5863	0.2012
415.7912	0.2033
415.9961	0.2011
416.201	0.1964
416.4059	0.2127
416.6108	0.1858
416.8156	0.2203
417.0205	0.2093
417.2253	0.2006
417.4301	0.1997
417.6349	0.2044
417.8397	0.1901
418.0445	0.1819
418.2492	0.2054
418.454	0.1826
418.6587	0.188
418.8634	0.2083
419.0681	0.1813
419.2728	0.1909
419.4775	0.192
419.6822	0.1821
419.8868	0.161
420.0915	0.1946
420.2961	0.1841
420.5007	0.1795
420.7053	0.1978
420.9099	0.1878
421.1144	0.2051
421.319	0.1929
421.5235	0.1957
421.728	0.1882
421.9325	0.1883
422.137	0.2056
422.3415	0.1697
422.546	0.1796
422.7504	0.1891
422.9549	0.1962
423.1593	0.1887
423.3637	0.1809
423.5681	0.1641
423.7725	0.1786
423.9769	0.182
424.1812	0.1625
424.3856	0.1693
424.5899	0.1653
424.7942	0.1617
424.9985	0.1661
425.2028	0.1666
425.4071	0.197
425.6113	0.1491
425.8156	0.1796
426.0198	0.166
426.224	0.1675
426.4282	0.1652
426.6324	0.1684
426.8366	0.1542
427.0407	0.1653
427.2449	0.1477
427.449	0.151
427.6531	0.1394
427.8572	0.1562
428.0613	0.1614
428.2654	0.1567
428.4694	0.1609
428.6735	0.1476
428.8775	0.1701
429.0815	0.1544
429.2855	0.1429
429.4895	0.1643
429.6935	0.1489
429.8975	0.1563
430.1014	0.1328
430.3053	0.1219
430.5093	0.1528
430.7132	0.1147
430.9171	0.1332
431.1209	0.1462
431.3248	0.1375
431.5286	0.1482
431.7325	0.1378
431.9363	0.1181
432.1401	0.1426
432.3439	0.1261
432.5477	0.1185
432.7514	0.1236
432.9552	0.1285
433.1589	0.111
433.3627	0.1111
433.5664	0.1162
433.7701	0.1073
433.9737	0.1215
434.1774	0.1022
434.3811	0.0985
434.5847	0.1178
434.7883	0.1101
434.9919	0.101
435.1955	0.1156
435.3991	0.1106
435.6027	0.1057
435.8062	0.1001
436.0098	0.0811
436.2133	0.0975
436.4168	0.0891
436.6203	0.0883
436.8238	0.1068
437.0272	0.1064
437.2307	0.1027
437.4341	0.1152
437.6375	0.1058
437.841	0.0851
438.0443	0.0984
438.2477	0.0904
438.4511	0.0774
438.6545	0.0832
438.8578	0.0958
439.0611	0.0779
439.2644	0.0905
439.4677	0.0877
439.671	0.062
439.8743	0.069
440.0775	0.0891
440.2808	0.0835
440.484	0.0597
440.6872	0.0599
440.8904	0.0683
441.0936	0.0811
441.2967	0.0639
441.4999	0.0783
441.703	0.069
441.9062	0.0608
442.1093	0.0841
442.3124	0.0609
442.5155	0.0518
442.7185	0.0628
442.9216	0.0499
443.1246	0.0764
443.3276	0.0589
443.5307	0.0571
443.7337	0.0745
443.9366	0.0608
444.1396	0.0545
444.3426	0.0668
444.5455	0.0612
444.7484	0.042
444.9513	0.0491
445.1542	0.0471
445.3571	0.0436
445.56	0.0591
445.7628	0.0399
445.9657	0.039
446.1685	0.0536
446.3713	0.044
446.5741	0.0542
446.7769	0.0353
446.9797	0.0383
447.1824	0.0525
447.3852	0.0365
447.5879	0.0474
447.7906	0.0485
447.9933	0.0414
448.196	0.0334
448.3986	0.0353
448.6013	0.0352
448.8039	0.0233
449.0066	0.025
449.2092	0.0437
449.4118	0.0421
449.6143	0.0424
449.8169	0.0412
450.0195	0.0127
450.222	0.0053
450.4245	0.0233
450.627	0.0329
450.8295	0.029
451.032	0.0286
451.2345	0.0204
451.4369	0.0377
451.6394	0.0315
451.8418	0.0126
452.0442	0.0132
452.2466	0.0311
452.449	0.003
452.6513	0.0164
452.8537	0.0123
453.056	0.0081
453.2583	0.0171
453.4607	0.0206
453.663	0.0031
453.8652	0.0164
454.0675	-0.0031
454.2697	0.0248
454.472	-0.005
454.6742	0.01
454.8764	0.0173
455.0786	0.0218
455.2808	0.0225
455.4829	0.02
455.6851	0.019
455.8872	0.0277
456.0893	0.0254
456.2915	0.0028
456.4935	0.0076
456.6956	0.0126
456.8977	0.0233
457.0997	0.0034
457.3018	-0.0143
457.5038	0.0191
457.7058	0.0121
457.9078	-0.0015
458.1098	0.0212
458.3117	0.0135
458.5137	0.018
458.7156	0.0222
458.9175	0.007
459.1194	-0.0082
459.3213	-0.002
459.5232	-0.0002
459.725	-0.008
459.9269	-0.0045
460.1287	-0.0048
460.3305	0.0057
460.5323	0.001
460.7341	0.0093
460.9359	0.0006
461.1376	0.0125
461.3394	0.0103
461.5411	0.0103
461.7428	0.0177
461.9445	0.0021
462.1462	0.0141
462.3479	0.0071
462.5495	-0.0063
462.7512	0.0085
462.9528	0.0127
463.1544	0.0008
463.356	-0.0026
463.5576	0.0118
463.7592	-0.0126
463.9607	0.0093
464.1623	0.0156
464.3638	0.0205
464.5653	-0.0171
464.7668	0.0012
464.9683	0.0147
465.1697	0.012
465.3712	-0.0091
465.5726	-0.0029
465.7741	0.0017
465.9755	0.0103
466.1769	0.0003
466.3782	-0.0078
466.5796	-0.0036
466.7809	0.0094
466.9823	-0.0026
467.1836	-0.0114
467.3849	-0.0112
467.5862	0.006
467.7875	0.0011
467.9887	0.0162
468.19	0.0114
468.3912	-0.0069
468.5924	-0.011
468.7936	-0.0074
468.9948	-0.0029
469.196	0.0083
469.3972	-0.0141
469.5983	0.0106
469.7994	-0.0197
470.0006	0.0063
470.2017	0.0012
470.4027	-0.0062
470.6038	0.0161
470.8049	-0.02
471.0059	0.0005
471.2069	-0.0228
471.408	0.011
471.6089	0.0192
471.8099	0.0059
472.0109	-0.0002
472.2119	-0.004
472.4128	-0.0082
472.6137	-0.0074
472.8146	-0.0159
473.0155	-0.012
473.2164	-0.0086
473.4173	-0.0034
473.6181	0.0075
473.819	-0.0052
474.0198	-0.0054
474.2206	-0.0042
474.4214	-0.016
474.6222	-0.0024
474.8229	-0.0181
475.0237	0.0144
475.2244	-0.014
475.4251	-0.0012
475.6258	-0.0031
475.8265	0.0028
476.0272	0.0053
476.2278	-0.0003
476.4285	-0.0118
476.6291	-0.002
476.8297	-0.002
477.0303	-0.0018
477.2309	0.0021
477.4315	-0.0058
477.632	0.0019
477.8326	0.0029
478.0331	0.0061
478.2336	0.0136
478.4341	0.0087
478.6346	-0.0012
478.8351	-0.0055
479.0355	-0.0044
479.236	-0.0043
479.4364	-0.0041
479.6368	-0.0048
479.8372	0.0008
480.0376	0.0096
480.2379	-0.0194
480.4383	-0.0007
480.6386	-0.0036
480.8389	-0.0023
481.0392	-0.011
481.2395	-0.0099
481.4398	0.0081
481.6401	0.0094
481.8403	-0.0088
482.0405	-0.0066
482.2408	-0.0031
482.441	0.0061
482.6411	-0.0123
482.8413	-0.0077
483.0415	-0.013
483.2416	-0.0071
483.4417	0.0009
483.6419	-0.0064
483.8419	0.003
484.042	0.0056
484.2421	0.0082
484.4422	0.0001
484.6422	0.0034
484.8422	0.0067
485.0422	-0.0102
485.2422	0.0004
485.4422	-0.0128
485.6422	-0.0111
485.8421	-0.006
486.042	-0.0041
486.242	-0.0055
486.4419	-0.0061
486.6417	-0.0156
486.8416	0.0058
487.0415	0.0014
487.2413	0.0002
487.4411	-0.0126
487.641	-0.0086
487.8408	-0.0017
488.0405	-0.002
488.2403	-0.0037
488.4401	0.0052
488.6398	-0.0034
488.8395	-0.0069
489.0392	-0.0049
489.2389	-0.0167
489.4386	-0.0034
489.6383	0.0011
489.8379	-0.005
490.0376	-0.01
490.2372	-0.0055
490.4368	-0.0046
490.6364	-0.0057
490.836	-0.0043
491.0355	-0.0069
491.2351	-0.0099
491.4346	0.0008
491.6341	-0.0087
491.8336	0.0067
492.0331	-0.0104
492.2326	-0.0115
492.432	0.0022
492.6315	-0.0103
492.8309	-0.0064
493.0303	-0.0156
493.2297	-0.0027
493.4291	-0.0087
493.6284	-0.0057
493.8278	0.0037
494.0271	0.0072
494.2264	-0.0002
494.4257	-0.008
494.625	-0.0045
494.8243	-0.0205
495.0236	-0.0031
495.2228	-0.0119
495.422	0.0026
495.6213	-0.0005
495.8205	0.0012
496.0196	-0.0039
496.2188	0.0036
496.418	-0.0075
496.6171	-0.0075
496.8162	-0.0136
497.0153	0.0021
497.2144	-0.0123
497.4135	0.0007
497.6126	-0.0078
497.8116	-0.0036
498.0107	0.0095
498.2097	-0.0136
498.4087	-0.0133
498.6077	-0.0052
498.8067	-0.0072
499.0056	-0.0045
499.2046	-0.0084
499.4035	-0.0142
499.6024	0.0008
499.8013	-0.0023
500.0002	-0.0152
500.199	-0.0098
500.3979	-0.0024
500.5967	-0.017
500.7956	-0.0013
500.9944	-0.0066
501.1932	-0.014
501.3919	-0.0205
501.5907	-0.0116
501.7895	-0.0002
501.9882	-0.0126
502.1869	-0.0061
502.3856	-0.0119
502.5843	-0.0139
502.783	0.0056
502.9816	-0.0138
503.1803	-0.0206
503.3789	-0.0119
503.5775	-0.003
503.7761	-0.0096
503.9747	0.0031
504.1732	-0.0177
504.3718	0.0007
504.5703	-0.0109
504.7689	-0.0185
504.9674	-0.0046
505.1658	-0.0171
505.3643	-0.0118
505.5628	-0.012
505.7612	-0.0094
505.9597	-0.0022
506.1581	-0.0115
506.3565	0.0101
506.5549	-0.0118
506.7532	-0.0143
506.9516	-0.0046
507.1499	-0.008
507.3482	-0.0145
507.5465	-0.0154
507.7448	-0.0016
507.9431	-0.0064
508.1414	-0.002
508.3396	-0.0058
508.5379	-0.0012
508.7361	-0.0137
508.9343	-0.0066
509.1325	-0.01
509.3306	0.0009
509.5288	-0.0063
509.7269	-0.0009
509.9251	-0.0015
510.1232	-0.007
510.3213	-0.001
510.5193	-0.0026
510.7174	-0.0068
510.9154	-0.0081
511.1135	-0.0036
511.3115	-0.0048
511.5095	-0.0097
511.7075	-0.0114
511.9055	-0.0089
512.1034	-0.0135
512.3014	-0.0085
512.4993	0.0014
512.6972	-0.0076
512.8951	-0.0129
513.093	-0.0029
513.2908	0.0057
513.4887	-0.0047
513.6865	-0.0074
513.8844	-0.006
514.0822	-0.011
514.2799	-0.012
514.4777	-0.0049
514.6755	-0.0144
514.8732	-0.0066
515.0709	-0.0079
515.2687	-0.0078
515.4664	0.0008
515.664	-0.0067
515.8617	-0.006
516.0594	-0.0113
516.257	-0.0071
516.4546	-0.0083
516.6522	0.0004
516.8498	-0.0065
517.0474	0.0048
517.2449	0.0065
517.4425	-0.0193
517.64	-0.0126
517.8375	0.0013
518.035	-0.0091
518.2325	-0.0078
518.43	-0.0097
518.6274	-0.0097
518.8249	-0.012
519.0223	0.0014
519.2197	-0.005
519.4171	-0.0005
519.6145	-0.0136
519.8118	-0.0023
520.0092	-0.0063
520.2065	-0.0003
520.4038	-0.0076
520.6011	-0.0021
520.7984	-0.0037
520.9956	-0.0072
521.1929	-0.004
521.3901	-0.01
521.5874	-0.0101
521.7846	-0.0027
521.9818	-0.0179
522.1789	-0.0117
522.3761	-0.0013
522.5732	-0.0083
522.7704	-0.0157
522.9675	-0.0091
523.1646	-0.0095
523.3617	-0.0064
523.5587	-0.0009
523.7558	-0.0052
523.9528	-0.0043
524.1498	-0.0044
524.3468	0.0008
524.5438	-0.0039
524.7408	-0.0017
524.9378	0.0113
525.1347	0.0026
525.3316	-0
525.5285	0.0006
525.7254	-0.018
525.9223	-0.0047
526.1192	-0.0039
526.316	-0.0103
526.5129	0.0015
526.7097	0.0016
526.9065	-0.0026
527.1033	-0.0047
527.3	-0.0007
527.4968	0.0026
527.6935	-0.0029
527.8903	-0.0131
528.087	-0.0044
528.2837	-0.0082
528.4804	-0.0052
528.677	-0.0047
528.8737	0.0005
529.0703	0.0035
529.2669	-0.0023
529.4635	-0.0089
529.6601	-0.0006
529.8567	0.003
530.0532	-0.0115
530.2498	0.0088
530.4463	-0.0013
530.6428	-0.0091
530.8393	0.0119
531.0358	-0.0017
531.2322	-0.0006
531.4287	-0.0081
531.6251	-0.0096
531.8215	-0.0006
532.0179	-0.0039
532.2143	-0.0095
532.4107	-0.0083
532.607	-0.0009
532.8034	0.0048
532.9997	-0.0006
533.196	-0.017
533.3923	-0.0095
533.5886	-0.0043
533.7848	-0.0051
533.9811	-0.0035
534.1773	0.0067
534.3735	0.0096
534.5697	-0.003
534.7659	-0.0075
534.9621	-0.0045
535.1582	-0.0107
535.3544	-0.0045
535.5505	0.0018
535.7466	-0.0127
535.9427	-0.0072
536.1387	-0.0076
536.3348	-0.0011
536.5308	0.0024
536.7269	-0.0157
536.9229	-0.0024
537.1189	-0.0024
537.3148	-0.0124
537.5108	-0.0078
537.7068	-0.0044
537.9027	-0.0059
538.0986	-0.0109
538.2945	-0.009
538.4904	-0.0001
538.6863	0.0004
538.8821	-0.005
539.078	-0.0046
539.2738	-0.0026
539.4696	-0.0066
539.6654	0.0011
539.8611	0.0187
540.0569	0.0005
540.2526	0.0012
540.4484	-0.0036
540.6441	0.006
540.8398	0.0021
541.0355	0.0008
541.2311	-0.0061
541.4268	-0.0041
541.6224	0.0015
541.818	-0.0008
542.0136	-0.0051
542.2092	-0.0014
542.4048	-0
542.6003	0.0015
542.7959	-0.002
542.9914	-0.0012
543.1869	-0.0031
543.3824	-0.001
543.5779	-0.0059
543.7734	-0.0056
543.9688	-0.0089
544.1642	0.0003
544.3596	0.0016
544.555	-0.0105
544.7504	-0.0128
544.9458	-0.0097
545.1411	-0.0033
545.3365	-0.0023
545.5318	-0.012
545.7271	-0.0041
545.9224	-0.0064
546.1177	0.0027
546.3129	-0.0102
546.5081	-0.0059
546.7034	-0.0143
546.8986	-0.0079
547.0938	-0.0069
547.289	-0.0041
547.4841	-0.0037
547.6793	0.0091
547.8744	-0.0105
548.0695	0.0038
548.2646	-0.0009
548.4597	0.004
548.6548	0.0052
548.8498	-0.0019
549.0448	0.0027
549.2399	-0.0008
549.4349	0.0066
549.6298	-0.0023
549.8248	0.0024
550.0198	-0.003
550.2147	-0.0091
550.4096	-0.0099
550.6045	-0.0002
550.7994	0.0055
550.9943	0.0091
551.1892	-0.0029
551.384	0.0091
551.5788	-0.0146
551.7737	0.0056
551.9685	-0.0053
552.1632	-0.0005
552.358	-0.0039
552.5528	-0.0077
552.7475	0.0011
552.9422	-0.0067
553.1369	-0.0037
553.3316	0.0045
553.5263	-0.0066
553.7209	0.0025
553.9156	-0.0076
554.1102	0.0004
554.3048	-0.0054
554.4994	0.0066
554.694	-0.0055
554.8885	0.0053
555.0831	-0.0056
555.2776	-0.0006
555.4721	-0.0013
555.6666	-0.0066
555.8611	0.0032
556.0555	-0.0035
556.25	-0.0001
556.4444	-0.0101
556.6388	-0.0043
556.8332	0.0034
557.0276	0.0018
557.222	-0.0111
557.4163	-0.0004
557.6107	-0.0136
557.805	-0.0006
557.9993	-0.0054
558.1936	-0.0005
558.3879	-0.0035
558.5821	-0.0047
558.7764	0.0005
558.9706	0.0038
559.1648	0.0054
559.359	-0.0012
559.5532	-0.0135
559.7473	-0.0001
559.9415	-0.0007
560.1356	-0.0049
560.3297	-0.0097
560.5238	-0.0119
560.7179	0.0019
560.9119	-0.0078
561.106	-0.0039
561.3	-0.0161
561.494	-0.0021
561.688	-0.0068
561.882	-0.0106
562.076	-0.0009
562.2699	0.0064
562.4639	-0.0034
562.6578	-0.0011
562.8517	-0.0104
563.0456	0.0046
563.2395	0.0059
563.4333	0.0051
563.6272	-0.002
563.821	0.0017
564.0148	-0.004
564.2086	-0.0056
564.4024	-0.0054
564.5961	-0.0064
564.7899	-0.0016
564.9836	0.005
565.1773	0.0029
565.371	0.0077
565.5647	0.0032
565.7584	0.0002
565.952	-0.0006
566.1456	0.0096
566.3393	-0.0039
566.5329	0.0007
566.7264	0.0015
566.92	-0.0037
567.1136	0.0022
567.3071	-0.0008
567.5006	-0.0044
567.6941	0.0064
567.8876	0.001
568.0811	0.0019
568.2745	0.0003
568.468	0.0046
568.6614	0.0043
568.8548	-0.0036
569.0482	-0.0004
569.2416	0.0008
569.4349	0.0003
569.6283	0.0099
569.8216	0.0019
570.0149	0.0007
570.2082	0.0053
570.4015	0.0057
570.5947	0.0043
570.788	0.0081
570.9812	0.0077
571.1744	0.0002
571.3676	-0.0047
571.5608	-0.0054
571.754	-0.0013
571.9471	0.0078
572.1402	-0.0039
572.3333	-0.0069
572.5264	0.0011
572.7195	-0.0031
572.9126	-0.0049
573.1057	0.0009
573.2987	-0.004
573.4917	0.0069
573.6847	-0.0011
573.8777	0.0009
574.0707	0.0025
574.2636	-0.0062
574.4566	0.0019
574.6495	0.0081
574.8424	-0.0059
575.0353	0.0009
575.2281	0.0076
575.421	0.003
575.6138	0.0037
575.8067	-0.0003
575.9995	0.0078
576.1923	0.0078
576.385	0.0034
576.5778	-0.0043
576.7706	-0.003
576.9633	0.0021
577.156	0.0035
577.3487	0.0002
577.5414	0.0035
577.734	-0.0051
577.9267	0.005
578.1193	-0.0075
578.3119	-0.0012
578.5045	-0.0001
578.6971	-0.0053
578.8897	0.006
579.0822	-0.0008
579.2747	0.0008
579.4673	-0.0017
579.6598	-0.0083
579.8522	0.0004
580.0447	-0.0035
580.2372	-0.0007
580.4296	0.0071
580.622	-0.0015
580.8144	0.005
581.0068	-0.003
581.1992	-0.0081
581.3915	-0.0034
581.5839	-0.0073
581.7762	-0.004
581.9685	-0.0005
582.1608	0.0037
582.353	-0.0011
582.5453	0.0027
582.7375	-0.0035
582.9298	0.0061
583.122	0.001
583.3142	0.0079
583.5063	-0.0037
583.6985	0.0016
583.8906	0.002
584.0827	-0.0028
584.2749	0.0019
584.4669	-0.0004
584.659	0.0017
584.8511	0.0031
585.0431	-0.0012
585.2352	0.0034
585.4272	-0.0021
585.6192	0.0008
585.8111	-0.0066
586.0031	0.0034
586.195	-0.0044
586.387	0.0081
586.5789	-0.0041
586.7708	0.0052
586.9627	0.0015
587.1545	0
587.3464	0.0094
587.5382	0.0047
587.73	0.0012
587.9218	0.0095
588.1136	-0.0026
588.3053	0.0092
588.4971	-0.0034
588.6888	-0.0131
588.8805	-0.0024
589.0722	0.0075
589.2639	0.0036
589.4556	-0.0008
589.6472	0.0022
589.8389	-0.0085
590.0305	-0.0019
590.2221	0.0035
590.4137	-0.0019
590.6052	0.005
590.7968	-0.0056
590.9883	-0.0014
591.1798	0.0011
591.3713	-0.0011
591.5628	0.0038
591.7543	0.0057
591.9458	0.001
592.1372	0.0035
592.3286	0.0075
592.52	0.0062
592.7114	-0.0015
592.9028	0.0009
593.0941	-0.0011
593.2855	0.0013
593.4768	-0.006
593.6681	-0.0086
593.8594	-0.0038
594.0506	0.005
594.2419	0.0054
594.4331	-0.0019
594.6244	0.0085
594.8156	-0.0103
595.0067	0.0032
595.1979	0.0069
595.3891	-0.0021
595.5802	-0.0067
595.7713	-0.0067
595.9624	-0.005
596.1535	0.0026
596.3446	0.0002
596.5357	-0.0064
596.7267	0.013
596.9177	-0.0041
597.1087	-0.0017
597.2997	-0.0032
597.4907	0.0066
597.6817	-0.0027
597.8726	-0.0029
598.0635	-0.004
598.2544	0.0004
598.4453	-0.0055
598.6362	-0.0028
598.827	0.0041
599.0179	-0.0014
599.2087	-0.0002
599.3995	-0.0066
599.5903	0.0002
599.7811	0.0025
599.9718	0.0011
600.1626	-0.0047
600.3533	-0.0046
600.544	0.002
600.7347	-0.0024
600.9254	0.0032
601.116	-0.0107
601.3067	0.0006
601.4973	-0.0039
601.6879	0.0036
601.8785	0.0008
602.0691	-0.0019
602.2596	-0.0007
602.4502	0.008
602.6407	0.0024
602.8312	0.0036
603.0217	-0.008
603.2122	0.0009
603.4027	-0.0071
603.5931	0.0022
603.7835	-0.0045
603.9739	-0.0039
604.1643	-0.0059
604.3547	-0.0041
604.5451	0.0026
604.7354	0.0017
604.9257	0.0048
605.116	0.0009
605.3063	0.0056
605.4966	0.0054
605.6869	0.002
605.8771	0.0032
606.0673	0.009
606.2575	0.0069
606.4477	0.0155
606.6379	0.0002
606.8281	0.0021
607.0182	0.0009
607.2083	0.0053
607.3985	0.0009
607.5885	0.0051
607.7786	0.003
607.9687	-0.0009
608.1587	0.0042
608.3488	0.0037
608.5388	-0.0004
608.7288	0.0037
608.9187	-0.0047
609.1087	0.0008
609.2986	-0.0058
609.4886	0.0014
609.6785	-0.0024
609.8684	0.0052
610.0582	0.0038
610.2481	0.0063
610.4379	-0.001
610.6278	-0.004
610.8176	0.0032
611.0074	-0.0045
611.1971	-0.0027
611.3869	0.0003
611.5766	-0.0065
611.7664	0.0142
611.9561	0.0095
612.1458	0.003
612.3354	-0.0057
612.5251	-0.0005
612.7147	0.0009
612.9044	0.0047
613.094	-0.0058
613.2836	0.0039
613.4731	-0.001
613.6627	-0.0035
613.8522	0.0065
614.0417	-0.0016
614.2313	-0.0029
614.4207	-0.004
614.6102	-0.0029
614.7997	-0.0015
614.9891	-0.0133
615.1785	0.0008
615.3679	-0.0042
615.5573	0.0062
615.7467	0.0015
615.9361	0.0016
616.1254	0.0001
616.3147	0.002
616.504	-0.0004
616.6933	0.0069
616.8826	0.0074
617.0718	0.0091
617.2611	0.0033
617.4503	-0.0029
617.6395	-0.0013
617.8287	-0.0086
618.0179	0.0022
618.207	0.0062
618.3961	0
618.5853	0.004
618.7744	0.0038
618.9634	0.0036
619.1525	0.0036
619.3416	0.0043
619.5306	0.0044
619.7196	0.0027
619.9086	-0.0012
620.0976	0.0006
620.2866	-0.0005
620.4755	0.0024
620.6645	-0.0002
620.8534	0.0048
621.0423	0.0023
621.2312	-0.0018
621.42	0.0004
621.6089	-0.0013
621.7977	0.0004
621.9865	-0.0013
622.1753	0.0044
622.3641	0.0007
622.5529	0.0071
622.7416	0.0105
622.9303	-0.0031
623.1191	0.0045
623.3078	-0.0032
623.4964	0.007
623.6851	-0.0029
623.8737	-0.0019
624.0624	0.0088
624.251	0.0009
624.4396	0.0002
624.6282	-0.006
624.8167	-0.0036
625.0053	0.0097
625.1938	0.003
625.3823	0.0059
625.5708	-0.0006
625.7593	-0.0017
625.9477	-0.0025
626.1362	-0.0074
626.3246	-0.0003
626.513	0.0025
626.7014	0.0063
626.8898	-0.0005
627.0781	0.0035
627.2665	-0.0069
627.4548	0.0041
627.6431	0.0048
627.8314	0.0108
628.0197	0.0002
628.2079	-0.0046
628.3962	-0.0027
628.5844	0.0037
628.7726	0.0079
628.9608	0.0085
629.1489	-0.0009
629.3371	0.0101
629.5252	-0.0038
629.7134	0.0058
629.9015	-0.0047
630.0895	0.0014
630.2776	0.0045
630.4657	-0.0015
630.6537	0.0043
630.8417	0.0049
631.0297	-0.005
631.2177	0.0011
631.4057	-0.0014
631.5936	0.003
631.7815	-0.0013
631.9695	-0.0013
632.1574	0.0159
632.3452	0.0146
632.5331	-0.0022
632.7209	0.0026
632.9088	0.01
633.0966	0.0019
633.2844	0.0035
633.4722	-0.0013
633.6599	0.0066
633.8477	-0.0041
634.0354	-0.0005
634.2231	-0.0025
634.4108	0.0047
634.5985	0.0034
634.7861	0.0076
634.9738	0.0057
635.1614	0.0078
635.349	0.0068
635.5366	0.0065
635.7242	0.0033
635.9117	0.0062
636.0993	0.0014
636.2868	0.0078
636.4743	-0.0022
636.6618	0.0177
636.8492	0.0049
637.0367	-0.002
637.2241	0.004
637.4115	-0.0051
637.5989	-0.0028
637.7863	-0.0023
637.9737	-0.0062
638.161	0.0064
638.3484	0.0027
638.5357	0.0106
638.723	-0.0017
638.9103	0.0031
639.0975	0.0013
639.2848	0.008
639.472	-0.0043
639.6592	0.0058
639.8464	0.0064
640.0336	0.0094
640.2208	-0.0019
640.4079	-0.0046
640.595	0.0022
640.7821	-0.0007
640.9692	0.0002
641.1563	0.0013
641.3434	-0.0012
641.5304	0.0017
641.7174	-0.0022
641.9044	-0.0036
642.0914	0.0003
642.2784	0.0058
642.4653	0.0101
642.6523	0.0001
642.8392	-0.0051
643.0261	0.0056
643.213	0.0042
643.3999	0.0033
643.5867	0.0026
643.7735	-0.0057
643.9604	-0.0016
644.1472	0.0043
644.3339	0.0035
644.5207	-0
644.7075	0.0062
644.8942	0.0054
645.0809	-0.0006
645.2676	0.001
645.4543	0
645.6409	0.0085
645.8276	-0.0038
646.0142	0.0048
646.2008	0.0022
646.3874	-0.0036
646.574	-0.0014
646.7605	0.0018
646.9471	-0.0084
647.1336	-0.0025
647.3201	0.0025
647.5066	-0.0008
647.6931	0.0082
647.8795	0.001
648.0659	0.0014
648.2524	0.0099
648.4388	0.0025
648.6252	-0.0015
648.8115	0.0067
648.9979	-0.0004
649.1842	0.0046
649.3705	0.0026
649.5568	0.0052
649.7431	0.0116
649.9294	-0.0015
650.1156	0.0049
650.3018	-0.0047
650.488	-0.0026
650.6742	0.0028
650.8604	0.0057
651.0466	-0.0019
651.2327	-0.0002
651.4188	0.0026
651.6049	-0.0052
651.791	-0.0068
651.9771	0.0019
652.1632	0.0028
652.3492	0.0044
652.5352	0.0055
652.7212	-0.0005
652.9072	-0.0035
653.0932	0.0016
653.2791	0.0026
653.465	0.0043
653.651	-0.0042
653.8369	-0.0019
654.0227	0.0003
654.2086	0.0071
654.3944	0.0111
654.5803	0.0024
654.7661	-0.0033
654.9519	-0.0006
655.1377	-0.0038
655.3234	-0.0044
655.5092	-0.0059
655.6949	-0.0053
655.8806	-0.0043
656.0663	-0.0046
656.2519	-0.0001
656.4376	-0.0007
656.6232	-0.0008
656.8088	0.0039
656.9945	0.0055
657.18	0.0094
657.3656	-0.0033
657.5511	0.0006
657.7367	-0.0063
657.9222	0.0047
658.1077	0.0057
658.2932	-0.0021
658.4786	-0.0065
658.6641	-0.0053
658.8495	-0.0042
659.0349	-0.0082
659.2203	0.0009
659.4057	0.0015
659.591	-0.0001
659.7764	-0.0056
659.9617	-0.0009
660.147	0.0008
660.3323	0.0039
660.5176	0.0132
660.7028	-0.0033
660.888	0.0013
661.0733	0.0025
661.2585	-0.0015
661.4436	0.0048
661.6288	-0.0045
661.8139	-0.0056
661.9991	0.006
662.1842	-0.0071
662.3693	-0.0013
662.5544	-0.0053
662.7394	-0.0022
662.9245	-0.0063
663.1095	-0.0017
663.2945	-0.0014
663.4795	0.0037
663.6644	0.0075
663.8494	0.0006
664.0343	0.0035
664.2193	-0.0082
664.4042	0.0041
664.589	-0.0002
664.7739	-0.0058
664.9587	-0.0002
665.1436	0.0092
665.3284	0.0042
665.5132	-0.003
665.698	-0.003
665.8827	0.0028
666.0675	-0.0036
666.2522	-0.0073
666.4369	-0.0035
666.6216	0.0064
666.8063	-0.0007
666.9909	-0.0022
667.1756	0.0005
667.3602	0.0046
667.5448	0.006
667.7294	0.0048
667.9139	-0.0009
668.0985	0.0178
668.283	0.0069
668.4675	0.0008
668.652	0.0024
668.8365	0.0055
669.0209	0.0107
669.2054	0.0155
669.3898	0.0047
669.5742	0.005
669.7586	0.0049
669.943	0.0049
670.1273	0.0023
670.3117	0.0025
670.496	0.0005
670.6803	0.0113
670.8646	-0.001
671.0488	-0.0043
671.2331	0.0026
671.4173	-0.002
671.6015	-0.0044
671.7857	0.0026
671.9699	-0.0021
672.1541	-0.0038
672.3382	0.0026
672.5223	0.0048
672.7064	0.0003
672.8905	0.0065
673.0746	0.0027
673.2587	-0.0027
673.4427	-0.0028
673.6267	0.009
673.8107	0.0055
673.9947	0.0026
674.1787	0.005
674.3626	0.0014
674.5465	0.0088
674.7304	0.0001
674.9143	0.0084
675.0982	0.0098
675.2821	-0.0022
675.4659	0.0126
675.6497	0.0032
675.8335	0.0046
676.0173	-0.001
676.2011	-0.0005
676.3849	-0.0015
676.5686	0.0014
676.7523	0.0049
676.936	-0.0023
677.1197	-0.0035
677.3034	-0.0034
677.487	0.0042
677.6706	0.004
677.8542	0.0015
678.0378	-0.0012
678.2214	-0.0013
678.405	0.0015
678.5885	-0.0028
678.772	-0.0072
678.9555	-0.0041
679.139	-0.003
679.3225	-0.0005
679.5059	-0.0008
679.6894	0.0064
679.8728	-0.0073
680.0562	-0.0089
680.2395	-0.0051
680.4229	-0.0018
680.6062	0.0071
680.7896	0.0021
680.9729	-0.0045
681.1562	0.0104
681.3394	-0.0014
681.5227	-0.0017
681.7059	0.0056
681.8891	0.002
682.0723	0.007
682.2555	0.0069
682.4387	-0.0043
682.6218	0.0066
682.805	0.0045
682.9881	0.0117
683.1712	0.0025
683.3542	0.0067
683.5373	-0.0029
683.7203	-0.0014
683.9034	-0.0034
684.0864	-0.0113
684.2694	-0.0062
684.4523	-0.0017
684.6353	-0.0062
684.8182	-0.0038
685.0011	-0.007
685.184	-0.0006
685.3669	-0.0033
685.5498	0.0014
685.7326	-0.0013
685.9154	-0.0092
686.0982	0.0062
686.281	0.0028
686.4638	-0.0005
686.6465	-0.004
686.8293	-0.003
687.012	-0.0002
687.1947	-0.0143
687.3774	0.001
687.56	-0.0053
687.7427	0.0027
687.9253	-0.0017
688.1079	-0.0032
688.2905	0.0071
688.4731	0.004
688.6556	0.0037
688.8382	-0.0052
689.0207	0.0074
689.2032	-0.01
689.3857	-0.0023
689.5681	0.0018
689.7506	-0.0072
689.933	-0.0056
690.1154	-0.01
690.2978	0.0032
690.4802	0.0052
690.6626	-0.0115
690.8449	-0.004
691.0272	0.0029
691.2095	-0.0061
691.3918	-0.0011
691.5741	0.0059
691.7563	0.0003
691.9386	-0.0014
692.1208	-0.0036
692.303	0.0061
692.4852	-0.0026
692.6673	0.0016
692.8495	-0
693.0316	0.0017
693.2137	0.0053
693.3958	0.009
693.5778	0.0038
693.7599	0.0031
693.9419	0.0009
694.1239	-0.0024
694.3059	-0.0119
694.4879	0.007
694.6699	0.0122
694.8518	-0.0001
695.0337	-0.0048
695.2157	0.0057
695.3975	0.0025
695.5794	0.0011
695.7613	0.0074
695.9431	0.0038
696.1249	0.0083
696.3067	0.0084
696.4885	0.012
696.6703	-0.0073
696.852	0.0054
697.0337	0.0068
697.2154	0.0082
697.3971	0.0011
697.5788	0.0058
697.7605	0.0045
697.9421	0.0115
698.1237	-0.0006
698.3053	0.0064
698.4869	0.0028
698.6685	-0.0087
698.85	0.0046
699.0315	0.006
699.213	0.0033
699.3945	0.0022
699.576	0.0045
699.7575	0.014
699.9389	0.0094
700.1203	0.0019
700.3017	-0.0077
700.4831	-0.0063
700.6645	-0.0002
700.8458	0.0025
701.0271	-0.0037
701.2084	0.0047
701.3897	-0.0051
701.571	-0.003
701.7523	0.0019
701.9335	0.0024
702.1147	0.0044
702.2959	0.0037
702.4771	0.0068
702.6583	-0.0031
702.8394	-0.0085
703.0205	0.0033
703.2016	-0.0045
703.3827	-0
703.5638	0.0093
703.7449	-0.0004
703.9259	0.0123
704.1069	-0.0018
704.2879	0.0024
704.4689	0.0108
704.6499	0.0089
704.8308	0.0026
705.0117	0.0007
705.1927	0.0035
705.3735	-0.0024
705.5544	-0.0091
705.7353	-0.0033
705.9161	-0.0107
706.0969	-0.0095
706.2777	-0.0021
706.4585	-0.001
706.6393	-0.0012
706.82	-0.0008
707.0007	0.0081
707.1815	0.0023
707.3621	0.0025
707.5428	0.0034
707.7235	0.0061
707.9041	0.0102
708.0847	-0.0084
708.2653	-0.0116
708.4459	-0.0099
708.6265	-0.0001
708.807	-0.0013
708.9875	0.0072
709.168	-0.0046
709.3485	-0.0031
709.529	-0.0007
709.7095	-0.0062
709.8899	-0.0044
710.0703	-0.0161
710.2507	-0.0041
710.4311	-0.0072
710.6115	-0.0118
710.7918	-0.0102
710.9721	0.0015
711.1524	-0.005
711.3327	0.0029
711.513	0.0016
711.6932	0.0028
711.8735	0.0107
712.0537	0.0052
712.2339	0.0102
712.4141	-0.0016
712.5942	0.0008
712.7744	-0.0015
712.9545	-0.0047
713.1346	-0.0019
713.3147	-0.0032
713.4947	-0.0012
713.6748	-0.0002
713.8548	-0.0003
714.0348	0.0028
714.2148	-0.0014
714.3948	0.009
714.5748	-0.0036
714.7547	-0.004
714.9346	0.0109
715.1145	-0.0033
715.2944	0.0014
715.4743	0.0005
715.6541	0.0058
715.834	0.0091
716.0138	0.0055
716.1936	-0.0119
716.3733	-0.0032
716.5531	0.005
716.7328	0.0012
716.9126	-0.0025
717.0923	0.0062
717.2719	0.0079
717.4516	0.0052
717.6312	0.0085
717.8109	0.001
717.9905	0.0086
718.1701	0.0029
718.3496	-0.0017
718.5292	0.0008
718.7087	-0.002
718.8882	0.009
719.0677	0.0092
719.2472	0.003
719.4267	0.0057
719.6061	0.0016
719.7856	0.0092
719.965	0.0077
720.1443	0.0015
720.3237	0.0156
720.5031	0.0041
720.6824	0.0053
720.8617	0.0024
721.041	-0.0052
721.2203	0.0158
721.3995	0.0029
721.5788	0.0043
721.758	0.0062
721.9372	0.004
722.1164	-0.0066
722.2956	0.0062
722.4747	0.0041
722.6538	-0.0049
722.8329	0.009
723.012	0.0042
723.1911	-0.0096
723.3702	-0.0011
723.5492	0.0013
723.7282	-0.0035
723.9072	-0.0024
724.0862	-0.0033
724.2652	-0.0023
724.4441	-0.0006
724.623	0.0002
724.8019	-0.0027
724.9808	-0.0015
725.1597	-0.01
725.3385	0.0061
725.5174	0.0036
725.6962	0.0006
725.875	0.0052
726.0538	0.0026
726.2325	-0.0022
726.4112	0.0065
726.59	-0.0071
726.7687	-0.0019
726.9474	0.0054
727.126	0.0024
727.3047	0.0053
727.4833	0.0011
727.6619	-0.0025
727.8405	-0.0019
728.0191	-0.0058
728.1976	0.0021
728.3762	-0.0067
728.5547	-0.0012
728.7332	-0.0084
728.9116	0.0009
729.0901	-0.005
729.2686	-0.0114
729.447	-0.0032
729.6254	-0.0051
729.8038	-0.0028
729.9821	-0.008
730.1605	-0.0005
730.3388	-0.0097
730.5171	-0.0074
730.6954	-0.0009
730.8737	0.0041
731.0519	-0.0012
731.2302	-0.0049
731.4084	0.0086
731.5866	0.0073
731.7648	-0.0061
731.9429	-0.004
732.1211	-0.0036
732.2992	-0.0104
732.4773	-0.0053
732.6554	-0.0071
732.8335	-0.004
733.0115	0.0006
733.1896	0.0057
733.3676	-0.009
733.5456	0.0064
733.7235	0.0141
733.9015	-0.0086
734.0794	0.0005
734.2574	-0.0004
734.4353	0.0023
734.6131	0.0012
734.791	-0.0021
734.9689	0.0013
735.1467	0.0046
735.3245	-0.0056
735.5023	-0.0021
735.68	0.005
735.8578	0.002
736.0355	-0.0197
736.2132	-0.0029
736.3909	-0.0024
736.5686	-0.0041
736.7463	0.0092
736.9239	-0.0121
737.1015	-0.0057
737.2791	0.0068
737.4567	0.0012
737.6343	0.0002
737.8118	0.0076
737.9894	0.0024
738.1669	-0.0052
738.3444	0.0001
738.5218	0.0009
738.6993	-0.0007
738.8767	-0.01
739.0541	0.0118
739.2315	-0.0055
739.4089	0.0038
739.5863	0.0016
739.7636	-0.009
739.9409	0.0041
740.1182	0.0053
740.2955	-0.0023
740.4728	-0.0047
740.65	-0.0066
740.8272	-0.0009
741.0044	-0.0039
741.1816	0.0028
741.3588	0.0049
741.5359	0.0008
741.7131	-0.0043
741.8902	-0.0036
742.0673	0.005
742.2444	-0.0026
742.4214	0.0047
742.5985	-0.0062
742.7755	-0.0022
742.9525	-0.0202
743.1295	0.0035
743.3064	-0.0025
743.4834	0.007
743.6603	-0.0043
743.8372	-0.003
744.0141	0.0013
744.191	0.0006
744.3678	0.002
744.5446	0.0069
744.7215	-0.0058
744.8982	-0.0114
745.075	-0.0061
745.2518	-0.0049
745.4285	-0.0021
745.6052	-0.0121
745.7819	0.0006
745.9586	-0.0111
746.1353	-0.005
746.3119	-0.014
746.4885	-0.0101
746.6651	-0.0184
746.8417	-0.0088
747.0183	-0.0161
747.1948	-0.0157
747.3714	-0.0054
747.5479	-0.0055
747.7244	-0.009
747.9008	0.0058
748.0773	-0.0034
748.2537	-0.0053
748.4301	-0.0136
748.6065	-0.0005
748.7829	0.0007
748.9593	-0.0133
749.1356	-0.0081
749.3119	0.0028
749.4882	-0.0129
749.6645	-0.0041
749.8408	-0.0053
750.017	-0.0005
750.1933	0.0021
750.3695	-0.0073
750.5457	0.0086
750.7218	0.0015
750.898	0.002
751.0741	-0.0123
751.2502	-0.0068
751.4263	-0.0073
751.6024	-0.0002
751.7784	-0.0034
751.9545	-0.0129
752.1305	-0.0073
752.3065	-0.017
752.4825	-0.0009
752.6584	-0.0071
752.8344	-0.0014
753.0103	-0.0109
753.1862	-0.0139
753.3621	-0.0048
753.5379	-0.0134
753.7138	0.0014
753.8896	-0.0009
754.0654	-0.0015
754.2412	0.0024
754.417	0.0017
754.5927	-0.0125
754.7685	-0.0086
754.9442	0.0065
755.1199	0.0106
755.2956	0.002
755.4712	0.017
755.6469	-0.0001
755.8225	-0.0012
755.9981	-0.0009
756.1736	0.0072
756.3492	0.0103
756.5248	0.0027
756.7003	0.0076
756.8758	0.0157
757.0513	-0.008
757.2267	-0.0026
757.4022	0.0023
757.5776	-0.0034
757.753	0.0091
757.9284	0.0046
758.1038	0.007
758.2791	0.0038
758.4545	-0.015
758.6298	0.004
758.8051	-0.0053
758.9803	-0.0105
759.1556	-0.0058
759.3308	-0.0063
759.506	0.0004
759.6812	-0.0003
759.8564	0.0095
760.0316	-0.0027
760.2067	0.0032
760.3819	0.0059
760.557	0.0098
760.732	0.0059
760.9071	-0.0088
761.0821	0.0012
761.2572	0.0116
761.4322	-0.0001
761.6072	-0.0041
761.7821	-0.0026
761.9571	0.0128
762.132	-0.0078
762.3069	-0.0114
762.4818	-0.0097
762.6567	-0.0002
762.8316	-0.0066
763.0064	-0.008
763.1812	0.0024
763.356	-0.012
763.5308	-0.0021
763.7055	-0.0063
763.8803	-0.01
764.055	-0.0004
764.2297	-0.0049
764.4044	-0.0138
764.579	-0.0092
764.7537	-0.0179
764.9283	0.0034
765.1029	-0.0016
765.2775	-0.0048
765.4521	-0.0136
765.6266	-0.0105
765.8011	-0.005
765.9756	-0.0085
766.1501	0.0032
766.3246	-0.0089
766.4991	-0.0123
766.6735	-0.0045
766.8479	-0.0057
767.0223	0.0195
767.1967	-0.0004
767.371	-0.005
767.5454	-0.0013
767.7197	-0.002
767.894	0.0001
768.0683	-0.0235
768.2425	-0.008
768.4168	-0.0018
768.591	-0.0009
768.7652	-0.0044
768.9394	-0.0103
769.1135	-0.0136
769.2877	0.0029
769.4618	-0.0007
769.6359	-0.0049
769.81	-0.0036
769.984	-0.0022
770.1581	-0.0033
770.3321	-0.0032
770.5061	0.003
770.6801	-0.0029
770.8541	-0.0098
771.028	0.0128
771.202	-0.0134
771.3759	-0.0049
771.5498	-0.0158
771.7236	-0.0006
771.8975	0.0018
772.0713	0.0095
772.2451	0.0044
772.4189	0.0018
772.5927	-0.0047
772.7665	0.0017
772.9402	-0.0047
773.1139	-0.002
773.2876	-0.0075
773.4613	0.0131
773.635	0.0072
773.8086	-0.0134
773.9822	-0.0052
774.1558	-0.0028
774.3294	-0.0178
774.503	-0.0001
774.6765	-0.0072
774.8501	0.0069
775.0236	0.0143
775.1971	-0.0007
775.3705	-0.0169
775.544	0.0026
775.7174	-0.0102
775.8908	-0.0028
776.0642	-0.0035
776.2376	0.0026
776.4109	-0.0105
776.5843	-0.0078
776.7576	0.0052
776.9309	0.0056
777.1041	0.0036
777.2774	-0.0041
777.4506	0.0004
777.6238	-0.0043
777.797	-0.0015
777.9702	-0.0041
778.1434	-0.0019
778.3165	-0.0137
778.4896	-0.0104
778.6627	0.0063
778.8358	-0.0083
779.0089	-0.0132
779.1819	-0.0043
779.3549	0.0026
779.5279	0.0015
779.7009	-0.0098
779.8739	-0.0049
780.0468	-0.0027
780.2197	0.0124
780.3926	-0.0015
780.5655	-0.0114
780.7384	-0.0021
780.9112	-0.0038
781.0841	-0.0125
781.2569	-0
781.4297	-0.0027
781.6024	-0.003
781.7752	-0.0008
781.9479	0.0003
782.1206	-0.02
782.2933	0.0048
782.466	0.0061
782.6386	-0.0009
782.8113	-0.0022
782.9839	-0.0059
783.1565	0.0008
783.329	0.0026
783.5016	0.0099
783.6741	-0.0022
783.8466	-0.0008
784.0191	0.0225
784.1916	-0.0026
784.3641	-0.0022
784.5365	0.0044
784.7089	-0
784.8813	-0.0038
785.0537	0.0059
785.2261	-0.0132
785.3984	-0.0269
785.5707	-0.004
785.743	0.0072
785.9153	-0.0106
786.0876	-0.0061
786.2598	-0.0077
786.432	-0.0161
786.6042	0.0052
786.7764	-0.017
786.9486	-0.0033
787.1207	-0.0187
787.2928	-0.0048
787.4649	0.0038
787.637	-0.0076
787.8091	-0.0003
787.9811	-0.0129
788.1532	-0.008
788.3252	0.0015
788.4972	-0.0062
788.6691	0.0032
788.8411	0.0008
789.013	-0.0233
789.1849	0.0019
789.3568	-0.0126
789.5287	-0.0065
789.7005	0.0012
789.8723	-0.0002
790.0442	0.0029
790.2159	0.0013
790.3877	-0.0016
790.5595	-0.0111
790.7312	0.0059
790.9029	-0.0088
791.0746	-0.004
791.2463	0.0026
791.4179	0.0046
791.5896	-0.0171
791.7612	-0.0097
791.9328	0.0114
792.1044	-0.0144
792.2759	-0.0244
792.4474	-0.0072
792.619	-0.0004
792.7905	-0.0096
792.9619	0.0131
793.1334	0.0057
793.3048	0.0084
793.4762	0.0045
793.6476	0.0107
793.819	-0.0057
793.9904	0.0036
794.1617	0.0032
794.333	-0.0146
794.5043	-0.0106
794.6756	-0.0109
794.8469	-0.0007
795.0181	-0.0018
795.1893	-0.0079
795.3605	0.0121
795.5317	-0.0082
795.7029	0.0135
795.874	-0.0011
796.0452	-0.0113
796.2163	0.0065
796.3873	0.015
796.5584	-0.002
796.7294	0.0008
796.9005	0.0045
797.0715	0.0021
797.2425	-0.009
797.4134	-0.0193
797.5844	0.0098
797.7553	-0.0106
797.9262	-0.0118
798.0971	-0.0112
798.2679	-0.0265
798.4388	-0.0272
798.6096	-0.0167
798.7804	-0.0069
798.9512	-0.0087
799.122	-0.0029
799.2927	-0.0037
799.4635	0.0112
799.6342	-0.005
799.8049	-0.0008
799.9755	-0.0063
800.1462	-0.0104
800.3168	0.0121
800.4874	0.0036
800.658	0.0216
800.8286	-0
800.9991	0.0093
801.1696	0.0234
801.3402	0.0013
801.5106	0.0044
801.6811	-0.0079
801.8516	-0.0025
802.022	0.0099
802.1924	-0.0123
802.3628	-0.0051
802.5332	0.0132
802.7035	0.009
802.8739	-0.0074
803.0442	-0.0007
803.2145	-0.0052
803.3847	-0.0244
803.555	-0.0005
803.7252	-0.0066
803.8954	-0.0162
804.0656	-0.0216
804.2358	-0.0048
804.4059	0.016
804.5761	0.0151
804.7462	0.003
804.9163	-0.0018
805.0864	-0.0068
805.2564	-0.0192
805.4264	0.0066
805.5965	-0.0111
805.7665	0.0075
805.9364	0.0017
806.1064	0.0179
806.2763	0.0172
806.4462	0.0271
806.6161	-0.0143
806.786	0.0034
806.9559	0.0038
807.1257	-0.0113
807.2955	0.0077
807.4653	-0.001
807.6351	-0.0104
807.8048	0.0094
807.9746	0.0165
808.1443	-0.0051
808.314	0.0055
808.4837	-0.0003
808.6533	-0.0076
808.8229	0.0244
808.9926	0.0099
809.1622	-0.0003
809.3317	-0.0067
809.5013	0.0042
809.6708	0.0012
809.8403	0.0037
810.0098	-0.0074
810.1793	0.004
810.3488	0.0122
810.5182	-0.0175
810.6876	-0.0033
810.857	-0.0041
811.0264	-0.0013
811.1958	-0.0047
811.3651	-0.0006
811.5344	-0.0014
811.7037	-0.0073
811.873	0.0046
812.0422	0.0063
812.2115	0.0013
812.3807	-0.0043
812.5499	0.0232
812.7191	0.0108
812.8882	-0.014
813.0574	-0.0247
813.2265	-0.0161
813.3956	0.0024
813.5646	0.0024
813.7337	-0.0323
813.9027	0.025
814.0718	0.0015
814.2407	0.018
814.4097	-0.0213
814.5787	-0.031
814.7476	-0.0227
814.9165	-0.0089
815.0854	-0.0152
815.2543	-0.0271
815.4232	-0.0216
815.592	0.0104
815.7608	0.0125
815.9296	-0.0047
816.0984	0.0055
816.2671	-0.0138
816.4359	-0.0178
816.6046	0.01
816.7733	-0.0106
816.942	-0.0348
817.1106	-0.0019
817.2793	-0.0106
817.4479	-0.0139
817.6165	0.0018
817.785	0.0025
817.9536	-0.0389
818.1221	-0.0061
818.2906	0.0015
818.4591	-0.0171
818.6276	0.0043
818.7961	-0.0011
818.9645	-0.0034
819.1329	-0.0177
819.3013	0.0119
819.4697	0.0269
819.638	0.0117
819.8064	-0.0001
819.9747	0.002
820.143	-0.0167
820.3113	-0.0337
820.4795	-0.0046
820.6477	0.0139
820.816	0.0094
820.9842	-0.0008
821.1523	0.0138
821.3205	-0.0151
821.4886	-0.0202
821.6567	0.0024
821.8248	-0.0008
821.9929	0.0097
822.1609	-0.009
822.329	-0.0089
822.497	0.0226
822.665	-0.0164
822.833	-0.0183
823.0009	0.0018
823.1688	0.0133
823.3367	0.0239
823.5046	-0.0031
823.6725	0.0323
823.8404	-0.0239
824.0082	0.0122
824.176	0.0007
824.3438	0.0161
824.5116	0.0144
824.6793	0.0158
824.847	-0.0063
825.0147	-0.0229
825.1824	0.0166
825.3501	0.0259
825.5177	-0.0234
825.6854	0.0008
825.853	-0.0092
826.0206	-0.0376
826.1881	0.0042
826.3557	-0.0411
826.5232	0.0131
826.6907	-0.0225
826.8582	-0.0256
827.0257	0.0111
827.1931	0.0099
827.3605	0.015
827.528	-0.0138
827.6953	-0.0447
827.8627	-0.001
828.03	0.0466
828.1974	-0.0122
828.3647	-0.0391
828.532	-0.0031
828.6992	-0.0288
828.8665	0.0052
829.0337	-0.0247
829.2009	-0.0139
829.3681	-0.0047
829.5352	0.0375
829.7024	-0.0123
829.8695	-0.0052
830.0366	0.0416
830.2037	-0.0077
830.3707	0.0211
830.5378	-0.0044
830.7048	-0.0103
830.8718	0.0349
831.0388	-0.0036
831.2057	0.0223
831.3727	0.0131
831.5396	-0.0277
831.7065	-0.007
831.8734	0.0306
832.0402	-0.0652
832.2071	0.0044
832.3739	-0.0559
832.5407	-0.0273
832.7075	-0.0057
832.8742	0.0029
833.041	-0.0438
833.2077	0.0048
833.3744	-0.0152
833.541	-0.0055
833.7077	-0.0113
833.8743	-0.0335
834.0409	-0.0134
834.2075	-0.0021
834.3741	-0.0224
834.5407	0.0134
834.7072	0.0017
834.8737	-0.0061
835.0402	-0.0237
835.2067	-0.0178
835.3731	0.0012
835.5395	-0.0146
835.706	0.0313
835.8723	0.0257
836.0387	0.0142
836.2051	-0.0192
836.3714	0.0137
836.5377	-0.0144
836.704	-0.0107
836.8703	0.0092
837.0365	0.0013
837.2027	-0.0187
837.3689	0.0258
837.5351	-0.0361
837.7013	-0.0234
837.8674	-0.0355
838.0335	-0.0275
838.1997	-0.0177
838.3657	-0.0333
838.5318	-0.0477
838.6978	0.0583
838.8639	-0.0126
839.0299	0.0156
839.1958	0.0256
839.3618	0.0164
839.5277	-0.0186
839.6937	-0.0297
839.8596	0.0183
840.0254	0.0562
840.1913	0.0209
840.3571	-0.0191
840.523	-0.0188
840.6888	0.0035
840.8545	-0.0327
841.0203	-0.0123
841.186	0.0076
841.3517	0.0125
841.5174	-0.0173
841.6831	-0.0132
841.8488	0.0007
842.0144	0.0501
842.18	-0.015
842.3456	0.0258
842.5112	-0.0527
842.6767	-0.0324
842.8422	-0.0459
843.0077	-0.0552
843.1732	-0.0284
843.3387	-0.0634
843.5042	-0.0095
843.6696	-0.0784
843.835	0.0464
844.0004	0.0913
844.1657	0.0161
844.3311	-0.0516
844.4964	-0.0331
844.6617	-0.0283
844.827	-0.0185
844.9923	-0.0375
845.1575	-0.0378
845.3227	0.0358
845.4879	-0.0265
845.6531	-0.0375
845.8183	-0.0382
845.9834	-0.0327
846.1485	0.0175
846.3136	-0.046
846.4787	-0.0652
846.6438	0.0569
846.8088	0.0156
846.9738	-0.0797
847.1388	0.0258
847.3038	0.0197
847.4687	-0.1202
847.6337	-0.008
847.7986	-0.0185
847.9635	-0.012
848.1284	0.0278
848.2932	0.0864
848.458	0.0331
848.6228	0.0388
848.7876	0.0287
848.9524	-0.086
849.1172	-0.1069
849.2819	0.0211
849.4466	-0.0616
849.6113	-0.0938
849.7759	0.0781
849.9406	-0.0626
850.1052	-0.0041
850.2698	-0.0605
850.4344	-0.0178
850.599	-0.0549
850.7635	0.0971
850.928	-0.0326
851.0925	-0.0211
851.257	0.0462
851.4215	0.0308
851.5859	-0.0322
851.7503	0.0364
851.9147	-0.0004
852.0791	-0.0238
852.2434	0.0309
852.4078	0.1166
852.5721	0.0211
852.7364	0.0225
852.9007	-0.1561
853.0649	-0.0253
853.2291	0.0044
853.3934	-0.0647
853.5575	0.007
853.7217	-0.0477
853.8859	-0.2514
854.05	-0.0931
854.2141	-0.0497
854.3782	0.0079
854.5423	-0.1181
854.7063	0.1104
854.8703	-0.0007
855.0343	0.0561
855.1983	-0.1471
855.3623	0.1142
855.5262	-0.0088
855.6901	-0.0468
855.854	-0.0362
856.0179	0.0688
856.1818	0.0171
856.3456	-0.1719
856.5094	-0.1784
856.6732	-0.237
856.837	-0.1579
857.0008	-0.0035
857.1645	-0.0038
857.3282	-0.1118
857.4919	0.0832
857.6556	-0.0287
857.8192	-0.0106
857.9828	0.0903
858.1465	0.0314
858.31	-0.0988
858.4736	-0.0801
858.6372	-0.249
858.8007	-0.1931
858.9642	-0.0276
859.1277	-0.1094
859.2911	0.1022
859.4546	-0.0007
859.618	-0.1587
859.7814	-0.0887
859.9448	0.0121
860.1081	-0.0739
860.2715	0.1736
860.4348	0.2859
860.5981	0.0539
860.7614	0.3482
860.9246	-0.0595
861.0879	-0.3334
861.2511	0.0549
861.4143	-0.1212
861.5774	-0.0897
861.7406	0.1293
861.9037	0.0363
862.0668	0.0118
862.2299	-0.0864
862.393	-0.535
862.556	-0.1027
862.7191	-0.3813
862.8821	-0.1895
863.0451	0.132
863.208	-0.0369
863.371	-0.0594
863.5339	-0.1849
863.6968	0.0241
863.8597	0.0709
864.0225	-0.0517
864.1854	-0.1711
864.3482	0.343
864.511	-0.1156
864.6737	-0.027
864.8365	-0.1566
864.9992	-0.4412
865.1619	-0.4503
865.3246	0.026
865.4873	0.0678
865.65	-0.0995
865.8126	0.0306
865.9752	0.1087
866.1378	0.0752
866.3004	-0.0555
866.4629	0.2438
866.6254	0.1767
866.7879	-0.1191
866.9504	-0.3145
867.1129	-0
867.2753	-0.138
867.4377	0.1699
867.6001	-0.325
867.7625	-0.1277
867.9249	-0.6836
868.0872	0.6827
868.2495	-0.2151
868.4118	0.1845
868.5741	-0.0425
868.7363	-0.2628
868.8986	-0.3683
869.0608	-0.3796
869.223	0.2928
869.3851	1.1955
869.5473	-0
869.7094	0.3508
869.8715	-0.2844
870.0336	-0.4276
870.1957	-0
870.3577	-0.6704
870.5197	-0.3142
870.6817	-0.0795
870.8437	0.055
871.0057	-0.6067
871.1676	-0.4614
871.3295	0.1316
871.4914	-0
871.6533	-0.4724
871.8151	-0.4764
871.977	-0
872.1388	-0
872.3006	-0.2643
872.4623	-0
872.6241	1.5577
872.7858	0.0243
872.9475	0.0827
873.1092	0.0401
873.2709	-0
873.4325	-0.1389
873.5941	-0.628
873.7557	-0
873.9173	-0
874.0789	0.2406
874.2404	-0.4099
874.4019	0.0547
874.5634	-0.1331
874.7249	0.3041
874.8863	-0.2359
875.0478	1.0593
875.2092	-0
875.3706	2.0253
875.5319	-0.7248
875.6933	0.6974
875.8546	0.1549
876.0159	-0
876.1772	-0
876.3385	-0
876.4997	-0.069
876.6609	-0.632
876.8221	-0.1579
876.9833	-0
877.1445	-0
877.3056	0.0904
877.4667	-0.5167
877.6278	-0
877.7889	-0
877.9499	-0
878.111	-0
878.272	-0
878.433	-0
878.5939	0.7421
878.7549	-0.1443
878.9158	-0.7404
879.0767	0.8135
879.2376	-0
879.3984	0.2316
879.5593	-0.4059
879.7201	0.2483
879.8809	-0.8703
880.0417	-0.5548
880.2024	-0
880.3632	-0.4715
880.5239	0.6246
880.6846	-0
880.8452	-2.5139
881.0059	-1.5922
881.1665	-0
881.3271	-0
881.4877	-0
881.6483	-0.5472
881.8088	-0.1429
881.9693	1.6628
882.1298	1.6628
882.2903	1.6628
