Data from MonoPyChalIsomerACN10uM350nmA_Absorbance_14-35-32-315.txt Node
Date: Fri Jul 05 14:35:32 BST 2024
User: LASERRRRR
Spectrometer: FLMT03099
Trigger mode: 0
Integration Time (sec): 1.000000E-1
Scans to average: 1
Electric dark correction enabled: true
Nonlinearity correction enabled: false
Boxcar width: 0
XAxis mode: Wavelengths
Number of Pixels in Spectrum: 3648
>>>>>Begin Spectral Data<<<<<
179.3399	-0.0941
179.5586	-0.0941
179.7771	-0.0941
179.9957	0.0111
180.2143	-0
180.4329	-0.1893
180.6514	0.8318
180.8699	-0
181.0885	0.358
181.307	0.1817
181.5255	-0
181.744	-0.4893
181.9625	-0
182.181	-0
182.3994	-0
182.6179	-0
182.8363	0.0966
183.0547	0.0513
183.2732	0.0345
183.4916	0.0529
183.71	0.0293
183.9284	-0.0403
184.1467	-0.025
184.3651	-0.061
184.5835	-0.0295
184.8018	0.2916
185.0201	0.1378
185.2385	-0.1413
185.4568	0.0012
185.6751	0.2434
185.8934	0.3619
186.1117	0.2331
186.3299	0.0679
186.5482	0.0903
186.7664	0.1611
186.9847	-0.1181
187.2029	-0.0152
187.4211	-0.0639
187.6393	0.1445
187.8575	0.2317
188.0757	0.1355
188.2939	0.1133
188.512	0.6956
188.7302	-0.027
188.9483	0.5131
189.1665	0.2289
189.3846	0.0877
189.6027	0.3457
189.8208	0.3134
190.0389	0.1248
190.257	0.3459
190.475	0.0532
190.6931	0.4472
190.9111	0.453
191.1292	0.1131
191.3472	0.4682
191.5652	0.4873
191.7832	0.3237
192.0012	0.5139
192.2192	0.3121
192.4371	0.6198
192.6551	0.3498
192.873	0.4792
193.091	0.4492
193.3089	0.6365
193.5268	0.5617
193.7447	0.6027
193.9626	0.4561
194.1805	0.5264
194.3984	0.7226
194.6162	0.5512
194.8341	0.5345
195.0519	0.4981
195.2697	1.2112
195.4875	0.6653
195.7054	0.4993
195.9231	0.6109
196.1409	0.6638
196.3587	0.6446
196.5765	0.5711
196.7942	0.83
197.012	0.6602
197.2297	0.5243
197.4474	0.5502
197.6651	0.5266
197.8828	0.5882
198.1005	0.6316
198.3182	0.5449
198.5358	0.7138
198.7535	0.576
198.9711	0.485
199.1888	0.6296
199.4064	0.7643
199.624	0.6017
199.8416	0.7274
200.0592	0.509
200.2767	0.5475
200.4943	0.6987
200.7119	0.7982
200.9294	0.6188
201.1469	0.5258
201.3645	0.5174
201.582	0.5359
201.7995	0.592
202.017	0.6212
202.2344	0.6857
202.4519	0.6724
202.6694	0.6024
202.8868	0.7141
203.1042	0.6546
203.3217	0.7484
203.5391	0.6577
203.7565	0.6161
203.9739	0.6988
204.1913	0.6578
204.4086	0.7255
204.626	0.8362
204.8433	0.7057
205.0607	0.6242
205.278	0.6819
205.4953	0.5873
205.7126	0.7202
205.9299	0.6304
206.1472	0.7073
206.3644	0.6334
206.5817	0.6182
206.7989	0.7804
207.0162	0.643
207.2334	0.675
207.4506	0.6277
207.6678	0.7151
207.885	0.7267
208.1022	0.6564
208.3194	0.6681
208.5365	0.6486
208.7537	0.7063
208.9708	0.5501
209.1879	0.6666
209.405	0.7599
209.6222	0.6726
209.8392	0.6425
210.0563	0.5835
210.2734	0.6341
210.4905	0.669
210.7075	0.6282
210.9245	0.5405
211.1416	0.7042
211.3586	0.652
211.5756	0.5337
211.7926	0.6134
212.0096	0.5375
212.2265	0.5635
212.4435	0.5779
212.6604	0.6376
212.8774	0.6103
213.0943	0.5924
213.3112	0.5462
213.5281	0.5554
213.745	0.5141
213.9619	0.4812
214.1788	0.4652
214.3956	0.4745
214.6125	0.4685
214.8293	0.4238
215.0461	0.4486
215.2629	0.4615
215.4798	0.4943
215.6965	0.4225
215.9133	0.4464
216.1301	0.3956
216.3469	0.4426
216.5636	0.4187
216.7803	0.4028
216.9971	0.4145
217.2138	0.3812
217.4305	0.3564
217.6472	0.3453
217.8639	0.3825
218.0805	0.3603
218.2972	0.3221
218.5138	0.3187
218.7305	0.3353
218.9471	0.3069
219.1637	0.2814
219.3803	0.295
219.5969	0.2941
219.8135	0.251
220.0301	0.2724
220.2466	0.312
220.4632	0.2802
220.6797	0.2487
220.8962	0.232
221.1127	0.2782
221.3292	0.2465
221.5457	0.2389
221.7622	0.2423
221.9787	0.2659
222.1951	0.2468
222.4116	0.2639
222.628	0.2503
222.8444	0.2525
223.0608	0.256
223.2772	0.2477
223.4936	0.2797
223.71	0.24
223.9264	0.2734
224.1427	0.2494
224.3591	0.2295
224.5754	0.2616
224.7917	0.2687
225.008	0.2715
225.2243	0.2542
225.4406	0.2836
225.6569	0.2773
225.8732	0.2594
226.0894	0.2828
226.3057	0.2421
226.5219	0.2759
226.7381	0.281
226.9543	0.2844
227.1705	0.2968
227.3867	0.2919
227.6029	0.2936
227.8191	0.2979
228.0352	0.3014
228.2513	0.3126
228.4675	0.3219
228.6836	0.3109
228.8997	0.3139
229.1158	0.3214
229.3319	0.3101
229.548	0.321
229.764	0.3194
229.9801	0.3299
230.1961	0.3318
230.4121	0.3275
230.6282	0.3428
230.8442	0.3203
231.0602	0.3404
231.2761	0.3467
231.4921	0.3446
231.7081	0.358
231.924	0.3427
232.14	0.3579
232.3559	0.3514
232.5718	0.3541
232.7877	0.347
233.0036	0.3505
233.2195	0.3589
233.4353	0.355
233.6512	0.3616
233.867	0.3661
234.0829	0.3644
234.2987	0.3583
234.5145	0.3705
234.7303	0.3643
234.9461	0.3811
235.1619	0.393
235.3776	0.3928
235.5934	0.4013
235.8091	0.3685
236.0249	0.3726
236.2406	0.3922
236.4563	0.3831
236.672	0.3874
236.8877	0.3926
237.1034	0.3862
237.319	0.3961
237.5347	0.4071
237.7503	0.3936
237.966	0.4012
238.1816	0.4226
238.3972	0.4062
238.6128	0.4074
238.8284	0.3927
239.0439	0.4191
239.2595	0.4109
239.475	0.4098
239.6906	0.4171
239.9061	0.3982
240.1216	0.404
240.3371	0.4098
240.5526	0.4034
240.7681	0.405
240.9836	0.3849
241.199	0.3993
241.4145	0.3776
241.6299	0.3791
241.8453	0.3681
242.0607	0.3747
242.2761	0.3611
242.4915	0.3564
242.7069	0.3638
242.9223	0.3582
243.1376	0.3397
243.353	0.3388
243.5683	0.3464
243.7836	0.3288
243.9989	0.3349
244.2142	0.2975
244.4295	0.3133
244.6448	0.2975
244.86	0.2978
245.0753	0.2742
245.2905	0.2879
245.5057	0.2706
245.721	0.2714
245.9362	0.2594
246.1514	0.2671
246.3665	0.2426
246.5817	0.2318
246.7969	0.2559
247.012	0.2407
247.2271	0.2297
247.4423	0.2422
247.6574	0.2358
247.8725	0.2201
248.0876	0.2266
248.3026	0.2222
248.5177	0.2135
248.7328	0.2166
248.9478	0.194
249.1628	0.2036
249.3779	0.221
249.5929	0.1967
249.8079	0.2202
250.0228	0.193
250.2378	0.1969
250.4528	0.199
250.6677	0.1713
250.8827	0.1908
251.0976	0.194
251.3125	0.1949
251.5274	0.1711
251.7423	0.1813
251.9572	0.1838
252.172	0.171
252.3869	0.1819
252.6017	0.1809
252.8166	0.1653
253.0314	0.1693
253.2462	0.1495
253.461	0.1702
253.6758	0.1678
253.8906	0.1766
254.1053	0.163
254.3201	0.1724
254.5348	0.1763
254.7496	0.1785
254.9643	0.1637
255.179	0.1686
255.3937	0.1705
255.6083	0.1856
255.823	0.168
256.0377	0.1606
256.2523	0.1784
256.467	0.1522
256.6816	0.176
256.8962	0.1719
257.1108	0.1544
257.3254	0.1753
257.54	0.1617
257.7545	0.1652
257.9691	0.1712
258.1836	0.1615
258.3981	0.1805
258.6127	0.1608
258.8272	0.1688
259.0417	0.1591
259.2561	0.1544
259.4706	0.1598
259.6851	0.1707
259.8995	0.1604
260.114	0.1609
260.3284	0.1629
260.5428	0.1501
260.7572	0.1633
260.9716	0.1625
261.186	0.1524
261.4003	0.1539
261.6147	0.1619
261.829	0.1736
262.0433	0.1552
262.2577	0.1594
262.472	0.1664
262.6863	0.1639
262.9005	0.1728
263.1148	0.1527
263.3291	0.1317
263.5433	0.1566
263.7576	0.1567
263.9718	0.1564
264.186	0.1554
264.4002	0.1599
264.6144	0.1643
264.8286	0.1681
265.0427	0.158
265.2569	0.1491
265.471	0.1559
265.6851	0.1598
265.8993	0.1631
266.1134	0.1515
266.3275	0.1592
266.5415	0.1536
266.7556	0.1645
266.9697	0.1579
267.1837	0.1687
267.3978	0.1517
267.6118	0.1525
267.8258	0.1641
268.0398	0.1464
268.2538	0.1576
268.4677	0.1484
268.6817	0.1439
268.8957	0.1612
269.1096	0.1565
269.3235	0.1631
269.5374	0.1486
269.7514	0.1536
269.9652	0.1391
270.1791	0.1454
270.393	0.1378
270.6068	0.1551
270.8207	0.1343
271.0345	0.1292
271.2483	0.1494
271.4622	0.1369
271.676	0.1435
271.8897	0.1322
272.1035	0.1328
272.3173	0.1479
272.531	0.1416
272.7448	0.136
272.9585	0.1351
273.1722	0.1398
273.3859	0.1481
273.5996	0.126
273.8133	0.142
274.0269	0.1383
274.2406	0.12
274.4542	0.1403
274.6679	0.1316
274.8815	0.1301
275.0951	0.1402
275.3087	0.1385
275.5223	0.1328
275.7358	0.1421
275.9494	0.1288
276.1629	0.132
276.3765	0.127
276.59	0.1316
276.8035	0.1404
277.017	0.1352
277.2305	0.1294
277.444	0.1352
277.6574	0.1244
277.8709	0.1414
278.0843	0.1345
278.2978	0.1333
278.5112	0.1297
278.7246	0.1323
278.938	0.1299
279.1513	0.1395
279.3647	0.1403
279.5781	0.1348
279.7914	0.144
280.0047	0.1451
280.2181	0.1379
280.4314	0.1312
280.6447	0.1441
280.8579	0.1491
281.0712	0.1492
281.2845	0.156
281.4977	0.1403
281.711	0.1446
281.9242	0.1378
282.1374	0.1417
282.3506	0.1318
282.5638	0.1543
282.7769	0.1496
282.9901	0.1491
283.2033	0.1516
283.4164	0.1592
283.6295	0.1444
283.8426	0.1425
284.0557	0.1471
284.2688	0.1649
284.4819	0.1538
284.695	0.1602
284.908	0.1581
285.1211	0.1386
285.3341	0.1477
285.5471	0.1543
285.7601	0.1586
285.9731	0.1438
286.1861	0.1493
286.3991	0.154
286.612	0.1671
286.825	0.1593
287.0379	0.1664
287.2508	0.1635
287.4637	0.1571
287.6766	0.1606
287.8895	0.1582
288.1024	0.1779
288.3152	0.1649
288.5281	0.1619
288.7409	0.1578
288.9538	0.1632
289.1666	0.1539
289.3794	0.161
289.5922	0.1516
289.8049	0.1781
290.0177	0.1629
290.2304	0.163
290.4432	0.1706
290.6559	0.1714
290.8686	0.1798
291.0813	0.1676
291.294	0.1692
291.5067	0.1818
291.7194	0.168
291.932	0.1782
292.1447	0.1625
292.3573	0.1621
292.5699	0.1671
292.7825	0.1811
292.9951	0.1705
293.2077	0.1647
293.4203	0.1663
293.6328	0.1672
293.8454	0.1714
294.0579	0.1635
294.2704	0.1676
294.4829	0.1634
294.6954	0.1627
294.9079	0.166
295.1204	0.1624
295.3328	0.1654
295.5453	0.1668
295.7577	0.1704
295.9701	0.1573
296.1825	0.1661
296.3949	0.1693
296.6073	0.166
296.8197	0.1685
297.0321	0.1762
297.2444	0.1584
297.4567	0.1666
297.6691	0.1657
297.8814	0.1647
298.0937	0.1613
298.306	0.1678
298.5182	0.1677
298.7305	0.1787
298.9428	0.1528
299.155	0.1794
299.3672	0.1704
299.5794	0.1589
299.7916	0.1622
300.0038	0.1717
300.216	0.1665
300.4282	0.1731
300.6403	0.1603
300.8525	0.1751
301.0646	0.158
301.2767	0.167
301.4888	0.1733
301.7009	0.1653
301.913	0.1553
302.125	0.1645
302.3371	0.1688
302.5491	0.1759
302.7612	0.1726
302.9732	0.1685
303.1852	0.1716
303.3972	0.1657
303.6092	0.1662
303.8211	0.1612
304.0331	0.1594
304.245	0.1621
304.457	0.1559
304.6689	0.1643
304.8808	0.1714
305.0927	0.148
305.3046	0.1512
305.5164	0.1621
305.7283	0.1495
305.9401	0.1512
306.152	0.1652
306.3638	0.1573
306.5756	0.147
306.7874	0.1416
306.9992	0.152
307.2109	0.1499
307.4227	0.1317
307.6344	0.1483
307.8462	0.1375
308.0579	0.1368
308.2696	0.1331
308.4813	0.1306
308.693	0.1362
308.9046	0.1382
309.1163	0.1227
309.328	0.1293
309.5396	0.1189
309.7512	0.1181
309.9628	0.122
310.1744	0.1174
310.386	0.1143
310.5976	0.1176
310.8091	0.1105
311.0207	0.1194
311.2322	0.1121
311.4437	0.1006
311.6552	0.1021
311.8667	0.1087
312.0782	0.0974
312.2897	0.0988
312.5012	0.118
312.7126	0.1128
312.924	0.0957
313.1355	0.0975
313.3469	0.1001
313.5583	0.0986
313.7696	0.1032
313.981	0.1023
314.1924	0.1023
314.4037	0.1033
314.6151	0.0941
314.8264	0.0812
315.0377	0.1012
315.249	0.0958
315.4603	0.1012
315.6716	0.1005
315.8828	0.0885
316.0941	0.0964
316.3053	0.0939
316.5165	0.1014
316.7277	0.0895
316.9389	0.0996
317.1501	0.0868
317.3613	0.0952
317.5724	0.0864
317.7836	0.1
317.9947	0.09
318.2058	0.0895
318.417	0.0912
318.6281	0.0809
318.8391	0.0893
319.0502	0.0907
319.2613	0.0937
319.4723	0.0869
319.6834	0.0913
319.8944	0.0799
320.1054	0.0962
320.3164	0.0941
320.5274	0.0842
320.7383	0.0847
320.9493	0.0919
321.1602	0.1002
321.3712	0.0847
321.5821	0.0939
321.793	0.0978
322.0039	0.0831
322.2148	0.0878
322.4257	0.0974
322.6365	0.1008
322.8474	0.0851
323.0582	0.0934
323.269	0.103
323.4798	0.1022
323.6906	0.0925
323.9014	0.0832
324.1122	0.0871
324.3229	0.0872
324.5337	0.0916
324.7444	0.0855
324.9551	0.1148
325.1658	0.0959
325.3765	0.0847
325.5872	0.0922
325.7979	0.0856
326.0085	0.0892
326.2192	0.1088
326.4298	0.1027
326.6404	0.0896
326.851	0.0813
327.0616	0.0907
327.2722	0.0981
327.4828	0.0988
327.6933	0.0943
327.9039	0.093
328.1144	0.1048
328.3249	0.1018
328.5354	0.0893
328.7459	0.0939
328.9564	0.0832
329.1669	0.0826
329.3773	0.089
329.5878	0.0998
329.7982	0.0886
330.0086	0.0932
330.219	0.1039
330.4294	0.0981
330.6398	0.0948
330.8502	0.0934
331.0605	0.104
331.2708	0.1041
331.4812	0.111
331.6915	0.0984
331.9018	0.1015
332.1121	0.084
332.3224	0.0958
332.5326	0.1061
332.7429	0.1072
332.9531	0.113
333.1633	0.1084
333.3735	0.1049
333.5837	0.0925
333.7939	0.0983
334.0041	0.1098
334.2143	0.1019
334.4244	0.0961
334.6346	0.0783
334.8447	0.1152
335.0548	0.0915
335.2649	0.0824
335.475	0.1004
335.685	0.092
335.8951	0.1215
336.1051	0.1015
336.3152	0.1117
336.5252	0.1013
336.7352	0.1037
336.9452	0.0988
337.1552	0.1032
337.3652	0.1044
337.5751	0.1072
337.7851	0.1018
337.995	0.0849
338.2049	0.1059
338.4148	0.1018
338.6247	0.1073
338.8346	0.1006
339.0445	0.1014
339.2543	0.1051
339.4642	0.1117
339.674	0.1009
339.8838	0.1089
340.0936	0.1125
340.3034	0.1142
340.5132	0.1095
340.7229	0.1055
340.9327	0.1125
341.1424	0.1019
341.3522	0.1195
341.5619	0.1137
341.7716	0.1134
341.9813	0.1207
342.1909	0.1031
342.4006	0.125
342.6102	0.1205
342.8199	0.1124
343.0295	0.111
343.2391	0.1196
343.4487	0.133
343.6583	0.1131
343.8679	0.1202
344.0774	0.1068
344.287	0.1232
344.4965	0.1147
344.706	0.1243
344.9155	0.1236
345.125	0.1105
345.3345	0.1166
345.544	0.1207
345.7534	0.1264
345.9629	0.1231
346.1723	0.1139
346.3817	0.117
346.5911	0.1339
346.8005	0.1302
347.0099	0.1169
347.2193	0.1473
347.4286	0.1167
347.638	0.132
347.8473	0.1279
348.0566	0.1286
348.2659	0.1236
348.4752	0.1363
348.6845	0.1243
348.8937	0.1238
349.103	0.1423
349.3122	0.1179
349.5214	0.1225
349.7306	0.1235
349.9398	0.1258
350.149	0.1305
350.3582	0.1239
350.5674	0.1524
350.7765	0.1282
350.9856	0.1355
351.1948	0.1365
351.4039	0.1308
351.613	0.1269
351.822	0.1458
352.0311	0.1325
352.2402	0.1415
352.4492	0.1348
352.6582	0.1565
352.8672	0.1391
353.0762	0.1469
353.2852	0.1458
353.4942	0.1243
353.7032	0.1433
353.9121	0.1478
354.1211	0.1332
354.33	0.1452
354.5389	0.1563
354.7478	0.147
354.9567	0.1606
355.1655	0.1458
355.3744	0.1494
355.5833	0.1395
355.7921	0.1648
356.0009	0.1533
356.2097	0.1636
356.4185	0.1657
356.6273	0.1501
356.8361	0.1656
357.0448	0.1499
357.2536	0.1445
357.4623	0.1467
357.671	0.1654
357.8797	0.1533
358.0884	0.1735
358.2971	0.1614
358.5057	0.1647
358.7144	0.1536
358.923	0.1654
359.1316	0.1819
359.3402	0.1597
359.5488	0.1597
359.7574	0.1722
359.966	0.1906
360.1746	0.1729
360.3831	0.1766
360.5916	0.1738
360.8002	0.1595
361.0087	0.1811
361.2172	0.1688
361.4256	0.1797
361.6341	0.1776
361.8426	0.1919
362.051	0.1728
362.2594	0.1818
362.4678	0.1865
362.6762	0.1983
362.8846	0.1845
363.093	0.19
363.3014	0.1908
363.5097	0.1806
363.718	0.2063
363.9264	0.1858
364.1347	0.1796
364.343	0.1988
364.5513	0.2104
364.7595	0.1946
364.9678	0.1955
365.176	0.1891
365.3842	0.2103
365.5925	0.2034
365.8007	0.1898
366.0089	0.1822
366.217	0.1921
366.4252	0.2145
366.6333	0.2204
366.8415	0.2151
367.0496	0.2031
367.2577	0.2181
367.4658	0.2274
367.6739	0.2064
367.882	0.2139
368.09	0.2158
368.2981	0.2073
368.5061	0.2087
368.7141	0.2238
368.9221	0.2279
369.1301	0.2092
369.3381	0.2181
369.5461	0.2007
369.754	0.2247
369.962	0.2245
370.1699	0.2268
370.3778	0.2263
370.5857	0.2236
370.7936	0.2349
371.0015	0.2302
371.2093	0.2285
371.4172	0.2241
371.625	0.2093
371.8328	0.2162
372.0406	0.2262
372.2484	0.2429
372.4562	0.2239
372.664	0.2391
372.8717	0.2492
373.0795	0.2149
373.2872	0.2405
373.4949	0.2338
373.7026	0.2489
373.9103	0.247
374.118	0.242
374.3256	0.2404
374.5333	0.2314
374.7409	0.2329
374.9485	0.257
375.1561	0.2524
375.3637	0.2559
375.5713	0.2558
375.7789	0.2567
375.9864	0.242
376.194	0.2391
376.4015	0.26
376.609	0.266
376.8165	0.2432
377.024	0.2453
377.2315	0.2562
377.4389	0.2561
377.6464	0.2688
377.8538	0.2405
378.0612	0.25
378.2686	0.2535
378.476	0.2606
378.6834	0.2529
378.8908	0.2714
379.0981	0.2777
379.3055	0.2607
379.5128	0.2711
379.7201	0.2581
379.9274	0.2493
380.1347	0.2625
380.342	0.2691
380.5492	0.2523
380.7565	0.2615
380.9637	0.2607
381.1709	0.2639
381.3781	0.2485
381.5853	0.2714
381.7925	0.2717
381.9997	0.2733
382.2068	0.2668
382.4139	0.2875
382.6211	0.2809
382.8282	0.256
383.0353	0.2746
383.2424	0.2629
383.4494	0.2757
383.6565	0.2812
383.8635	0.2671
384.0706	0.2734
384.2776	0.2864
384.4846	0.2612
384.6916	0.2872
384.8986	0.2673
385.1055	0.2687
385.3125	0.2655
385.5194	0.2584
385.7263	0.2793
385.9333	0.2751
386.1402	0.2632
386.347	0.2584
386.5539	0.2657
386.7608	0.2726
386.9676	0.2709
387.1744	0.276
387.3813	0.257
387.5881	0.2757
387.7948	0.2641
388.0016	0.2681
388.2084	0.2659
388.4151	0.2618
388.6219	0.2845
388.8286	0.2461
389.0353	0.2812
389.242	0.2614
389.4487	0.2535
389.6553	0.2462
389.862	0.2394
390.0686	0.2441
390.2753	0.2602
390.4819	0.2675
390.6885	0.2456
390.8951	0.2618
391.1016	0.2478
391.3082	0.2526
391.5147	0.2512
391.7213	0.2623
391.9278	0.2576
392.1343	0.2517
392.3408	0.2589
392.5473	0.2429
392.7537	0.2426
392.9602	0.2462
393.1666	0.2593
393.373	0.24
393.5794	0.2497
393.7858	0.2562
393.9922	0.2374
394.1986	0.2485
394.4049	0.2529
394.6113	0.2257
394.8176	0.2272
395.0239	0.2326
395.2302	0.2484
395.4365	0.2531
395.6428	0.2315
395.8491	0.2263
396.0553	0.2476
396.2615	0.2282
396.4678	0.2365
396.674	0.2221
396.8802	0.2323
397.0863	0.2447
397.2925	0.2251
397.4987	0.2315
397.7048	0.2272
397.9109	0.2372
398.117	0.2306
398.3231	0.2227
398.5292	0.2322
398.7353	0.2358
398.9413	0.235
399.1474	0.2349
399.3534	0.2186
399.5594	0.2064
399.7654	0.2421
399.9714	0.2266
400.1774	0.2322
400.3833	0.2263
400.5893	0.2207
400.7952	0.2387
401.0011	0.2259
401.207	0.258
401.4129	0.2281
401.6188	0.2339
401.8247	0.2404
402.0305	0.2219
402.2364	0.2272
402.4422	0.2473
402.648	0.247
402.8538	0.2421
403.0596	0.2175
403.2654	0.2432
403.4711	0.2321
403.6768	0.2394
403.8826	0.2314
404.0883	0.2342
404.294	0.2356
404.4997	0.2283
404.7054	0.2282
404.911	0.2045
405.1167	0.2181
405.3223	0.2275
405.5279	0.2436
405.7335	0.242
405.9391	0.2418
406.1447	0.2397
406.3502	0.259
406.5558	0.2255
406.7613	0.2307
406.9668	0.2238
407.1724	0.2219
407.3778	0.2183
407.5833	0.2365
407.7888	0.2146
407.9942	0.2326
408.1997	0.2204
408.4051	0.2121
408.6105	0.2333
408.8159	0.2137
409.0213	0.2286
409.2267	0.2351
409.432	0.2189
409.6374	0.2585
409.8427	0.2145
410.048	0.2383
410.2533	0.2429
410.4586	0.2153
410.6639	0.2251
410.8691	0.2361
411.0744	0.2144
411.2796	0.2261
411.4848	0.2307
411.69	0.2167
411.8952	0.2513
412.1004	0.2001
412.3056	0.2492
412.5107	0.2211
412.7158	0.2483
412.921	0.2306
413.1261	0.2169
413.3312	0.2124
413.5362	0.2292
413.7413	0.2383
413.9464	0.2157
414.1514	0.227
414.3564	0.2155
414.5614	0.2011
414.7664	0.231
414.9714	0.2123
415.1764	0.2258
415.3813	0.2413
415.5863	0.2362
415.7912	0.2312
415.9961	0.2233
416.201	0.2224
416.4059	0.2328
416.6108	0.2124
416.8156	0.2377
417.0205	0.2274
417.2253	0.2
417.4301	0.217
417.6349	0.2217
417.8397	0.2139
418.0445	0.2262
418.2492	0.2236
418.454	0.2142
418.6587	0.2329
418.8634	0.2166
419.0681	0.1934
419.2728	0.228
419.4775	0.2251
419.6822	0.1973
419.8868	0.2033
420.0915	0.2243
420.2961	0.216
420.5007	0.2034
420.7053	0.2059
420.9099	0.2139
421.1144	0.2054
421.319	0.2119
421.5235	0.2089
421.728	0.2123
421.9325	0.2019
422.137	0.2088
422.3415	0.2064
422.546	0.2209
422.7504	0.2014
422.9549	0.217
423.1593	0.1985
423.3637	0.2056
423.5681	0.2099
423.7725	0.1996
423.9769	0.2002
424.1812	0.1928
424.3856	0.2058
424.5899	0.1918
424.7942	0.1914
424.9985	0.2071
425.2028	0.1896
425.4071	0.2037
425.6113	0.1914
425.8156	0.1947
426.0198	0.1952
426.224	0.186
426.4282	0.1856
426.6324	0.1813
426.8366	0.1694
427.0407	0.1647
427.2449	0.1698
427.449	0.1718
427.6531	0.1597
427.8572	0.1665
428.0613	0.1631
428.2654	0.1818
428.4694	0.1752
428.6735	0.1582
428.8775	0.1707
429.0815	0.1832
429.2855	0.1678
429.4895	0.1769
429.6935	0.1648
429.8975	0.1647
430.1014	0.1719
430.3053	0.1512
430.5093	0.173
430.7132	0.1522
430.9171	0.154
431.1209	0.1551
431.3248	0.1441
431.5286	0.1604
431.7325	0.1674
431.9363	0.1345
432.1401	0.1718
432.3439	0.135
432.5477	0.1065
432.7514	0.127
432.9552	0.1403
433.1589	0.128
433.3627	0.1278
433.5664	0.1417
433.7701	0.1356
433.9737	0.1238
434.1774	0.1272
434.3811	0.1351
434.5847	0.1292
434.7883	0.1271
434.9919	0.1305
435.1955	0.1274
435.3991	0.1141
435.6027	0.1182
435.8062	0.1117
436.0098	0.1095
436.2133	0.1196
436.4168	0.1129
436.6203	0.1058
436.8238	0.1077
437.0272	0.1046
437.2307	0.1122
437.4341	0.1114
437.6375	0.1081
437.841	0.0921
438.0443	0.1032
438.2477	0.1092
438.4511	0.1042
438.6545	0.1015
438.8578	0.097
439.0611	0.106
439.2644	0.1014
439.4677	0.0747
439.671	0.0959
439.8743	0.0958
440.0775	0.0877
440.2808	0.0805
440.484	0.0799
440.6872	0.077
440.8904	0.0748
441.0936	0.0959
441.2967	0.089
441.4999	0.0686
441.703	0.0653
441.9062	0.066
442.1093	0.0691
442.3124	0.0704
442.5155	0.0563
442.7185	0.061
442.9216	0.0431
443.1246	0.0797
443.3276	0.0599
443.5307	0.0564
443.7337	0.0725
443.9366	0.059
444.1396	0.058
444.3426	0.0667
444.5455	0.0585
444.7484	0.0418
444.9513	0.0439
445.1542	0.0728
445.3571	0.0454
445.56	0.0593
445.7628	0.037
445.9657	0.0537
446.1685	0.0528
446.3713	0.0623
446.5741	0.0435
446.7769	0.0448
446.9797	0.0522
447.1824	0.0548
447.3852	0.0351
447.5879	0.0599
447.7906	0.0514
447.9933	0.0324
448.196	0.035
448.3986	0.0423
448.6013	0.0333
448.8039	0.0191
449.0066	0.0287
449.2092	0.027
449.4118	0.0444
449.6143	0.0277
449.8169	0.038
450.0195	0.0207
450.222	0.0146
450.4245	0.0354
450.627	0.042
450.8295	0.0276
451.032	0.0144
451.2345	0.0223
451.4369	0.0393
451.6394	0.0301
451.8418	0.0005
452.0442	0.0122
452.2466	0.0294
452.449	0.0111
452.6513	0.015
452.8537	0.0138
453.056	0.0118
453.2583	0.0438
453.4607	0.0219
453.663	0.0044
453.8652	0.0305
454.0675	0.007
454.2697	0.0282
454.472	0.0176
454.6742	0.0233
454.8764	0.0122
455.0786	0.0221
455.2808	0.0209
455.4829	0.011
455.6851	0.0213
455.8872	0.0204
456.0893	0.0211
456.2915	-0.0087
456.4935	0.0182
456.6956	0.0214
456.8977	0.0184
457.0997	0.0069
457.3018	0.0088
457.5038	0.0136
457.7058	0.0075
457.9078	0.0057
458.1098	0.0078
458.3117	0.0094
458.5137	0.0096
458.7156	0.0123
458.9175	-0.0094
459.1194	0.0167
459.3213	0.0103
459.5232	-0.0048
459.725	-0.0031
459.9269	0.0087
460.1287	-0.0006
460.3305	0.0016
460.5323	0.0172
460.7341	-0.0031
460.9359	-0.0012
461.1376	-0.0008
461.3394	0.0022
461.5411	0.006
461.7428	-0.0024
461.9445	0.0111
462.1462	0.0129
462.3479	-0.0105
462.5495	0.0097
462.7512	0.0056
462.9528	-0.01
463.1544	-0.0081
463.356	0.0128
463.5576	0.0134
463.7592	0.0034
463.9607	-0.0012
464.1623	0.0086
464.3638	0.0209
464.5653	-0.0104
464.7668	0.0043
464.9683	0.0159
465.1697	0.0122
465.3712	-0.003
465.5726	-0.0072
465.7741	-0.0049
465.9755	0.0025
466.1769	0.007
466.3782	-0.0039
466.5796	-0.0183
466.7809	0.0102
466.9823	-0.0061
467.1836	0.0068
467.3849	-0.0044
467.5862	0.0061
467.7875	-0.0051
467.9887	0.0087
468.19	-0.0087
468.3912	-0.0158
468.5924	0.0005
468.7936	0.0048
468.9948	-0.0016
469.196	0.0089
469.3972	-0.0198
469.5983	-0.0086
469.7994	-0.0164
470.0006	-0.0046
470.2017	-0.0134
470.4027	-0.0108
470.6038	0.007
470.8049	-0.0261
471.0059	-0.0063
471.2069	-0.0161
471.408	0.0087
471.6089	0.004
471.8099	-0.0021
472.0109	0.0108
472.2119	-0.0061
472.4128	-0.0019
472.6137	0.0016
472.8146	-0.0254
473.0155	-0.0067
473.2164	0.0017
473.4173	0.0042
473.6181	-0.004
473.819	0.0108
474.0198	-0.0042
474.2206	-0.017
474.4214	-0.0192
474.6222	-0.0045
474.8229	-0.0116
475.0237	-0.0028
475.2244	-0.0118
475.4251	0.0066
475.6258	-0.0059
475.8265	-0.0117
476.0272	0.001
476.2278	0
476.4285	-0.0069
476.6291	-0.0107
476.8297	-0.012
477.0303	-0.0039
477.2309	-0.0066
477.4315	-0.0131
477.632	-0.0118
477.8326	-0.0088
478.0331	0.0037
478.2336	-0.0005
478.4341	-0.0087
478.6346	-0.0032
478.8351	-0.0002
479.0355	-0.0119
479.236	-0.0086
479.4364	0.0021
479.6368	-0.0027
479.8372	-0.0109
480.0376	-0.0063
480.2379	-0.0244
480.4383	-0.0137
480.6386	-0.0027
480.8389	-0.0121
481.0392	-0.0193
481.2395	-0.0107
481.4398	-0.0025
481.6401	0.0089
481.8403	-0.0146
482.0405	-0.0078
482.2408	-0.0015
482.441	-0.0031
482.6411	-0.0013
482.8413	-0.009
483.0415	-0.0158
483.2416	-0.014
483.4417	-0.0047
483.6419	-0.0013
483.8419	-0.0114
484.042	0.0044
484.2421	-0.0073
484.4422	-0.007
484.6422	0.0016
484.8422	-0.0026
485.0422	-0.025
485.2422	-0.0008
485.4422	-0.0202
485.6422	-0.008
485.8421	-0.0099
486.042	-0.0024
486.242	-0.0022
486.4419	-0.0184
486.6417	-0.0095
486.8416	-0.0043
487.0415	-0.0042
487.2413	0
487.4411	-0.0162
487.641	-0.0131
487.8408	-0.0003
488.0405	-0.0165
488.2403	-0.0162
488.4401	-0.0003
488.6398	0.0029
488.8395	-0.0051
489.0392	-0.0006
489.2389	-0.0097
489.4386	-0.0094
489.6383	-0.0067
489.8379	0.0042
490.0376	0.001
490.2372	-0.0194
490.4368	-0.0124
490.6364	-0.0163
490.836	-0.0137
491.0355	-0.0008
491.2351	-0.0106
491.4346	-0.0027
491.6341	-0.0198
491.8336	-0.0136
492.0331	-0.0156
492.2326	-0.0147
492.432	-0.0045
492.6315	-0.0052
492.8309	-0.0116
493.0303	-0.014
493.2297	-0.0091
493.4291	-0.003
493.6284	-0.0034
493.8278	-0.0061
494.0271	-0.0007
494.2264	0.0042
494.4257	-0.0205
494.625	-0.0026
494.8243	-0.0072
495.0236	-0.0108
495.2228	-0.0074
495.422	-0.0023
495.6213	-0.0118
495.8205	-0.0125
496.0196	-0.0047
496.2188	-0.002
496.418	-0.0149
496.6171	-0.0195
496.8162	-0.0113
497.0153	-0.01
497.2144	-0.0148
497.4135	-0.0053
497.6126	-0.0059
497.8116	-0.0143
498.0107	-0.0083
498.2097	-0.0168
498.4087	-0.0197
498.6077	-0.0012
498.8067	-0.0099
499.0056	-0.0092
499.2046	-0.0054
499.4035	-0.0261
499.6024	-0.0077
499.8013	-0.0089
500.0002	-0.0192
500.199	-0.0053
500.3979	-0.0083
500.5967	-0.0314
500.7956	-0.0044
500.9944	-0.0082
501.1932	-0.0085
501.3919	-0.0085
501.5907	-0.0079
501.7895	-0.0089
501.9882	-0.0166
502.1869	-0.0056
502.3856	-0.0141
502.5843	-0.0152
502.783	-0.0064
502.9816	-0.0045
503.1803	-0.0151
503.3789	-0.0142
503.5775	-0.0003
503.7761	-0.0173
503.9747	-0.0048
504.1732	-0.0127
504.3718	-0.0097
504.5703	-0.0044
504.7689	-0.0224
504.9674	-0.0093
505.1658	-0.0125
505.3643	-0.0132
505.5628	-0.0093
505.7612	0.0002
505.9597	-0.0019
506.1581	-0.0037
506.3565	-0.0005
506.5549	-0.0097
506.7532	-0.0146
506.9516	-0.0187
507.1499	-0.0174
507.3482	-0.014
507.5465	-0.0085
507.7448	-0.0119
507.9431	-0.0031
508.1414	0.0008
508.3396	-0.0091
508.5379	-0.0049
508.7361	-0.0186
508.9343	-0.0087
509.1325	-0.0104
509.3306	-0.013
509.5288	-0.0096
509.7269	-0.0112
509.9251	-0.017
510.1232	-0.0054
510.3213	0
510.5193	0.0036
510.7174	-0.0059
510.9154	-0.01
511.1135	-0.0161
511.3115	-0.0098
511.5095	-0.0098
511.7075	-0.0054
511.9055	-0.0077
512.1034	-0.0173
512.3014	-0.0085
512.4993	-0.0034
512.6972	-0.0051
512.8951	-0.0226
513.093	-0.0138
513.2908	-0.0136
513.4887	-0.0082
513.6865	-0.0101
513.8844	0.0009
514.0822	-0.0131
514.2799	-0.017
514.4777	-0.0148
514.6755	-0.012
514.8732	-0.0073
515.0709	-0.0047
515.2687	-0.0136
515.4664	-0.0058
515.664	-0.0117
515.8617	-0.0059
516.0594	-0.0227
516.257	-0.0098
516.4546	-0.0185
516.6522	-0.0038
516.8498	-0.0024
517.0474	-0.0026
517.2449	0.0012
517.4425	-0.0202
517.64	-0.0109
517.8375	0.0056
518.035	-0.0025
518.2325	-0.01
518.43	-0.0085
518.6274	-0.0121
518.8249	-0.0164
519.0223	0.0028
519.2197	-0.0003
519.4171	-0.0129
519.6145	-0.0101
519.8118	0.0022
520.0092	-0.0095
520.2065	-0.0107
520.4038	-0.0127
520.6011	-0.0056
520.7984	-0.0141
520.9956	-0.0142
521.1929	-0.0067
521.3901	-0.0055
521.5874	-0.0014
521.7846	-0.0103
521.9818	-0.01
522.1789	-0.0167
522.3761	-0.0122
522.5732	-0.0203
522.7704	-0.005
522.9675	-0.0069
523.1646	-0.0047
523.3617	-0.0066
523.5587	-0.0035
523.7558	-0.0145
523.9528	-0.0144
524.1498	-0.0057
524.3468	-0.0125
524.5438	-0.0238
524.7408	-0.0111
524.9378	0.0039
525.1347	-0.01
525.3316	0.0002
525.5285	-0.0222
525.7254	-0.0115
525.9223	-0.0041
526.1192	-0.0037
526.316	-0.0105
526.5129	-0.009
526.7097	-0.0038
526.9065	-0.0094
527.1033	-0.0138
527.3	-0.0063
527.4968	-0.0099
527.6935	0.0016
527.8903	-0.0168
528.087	-0.0066
528.2837	-0.0142
528.4804	-0.0001
528.677	-0.0147
528.8737	0.0069
529.0703	0.0021
529.2669	-0.0006
529.4635	-0.0152
529.6601	0.0019
529.8567	-0.007
530.0532	-0.0105
530.2498	0.0034
530.4463	-0.002
530.6428	-0.005
530.8393	0.0025
531.0358	-0.0108
531.2322	0.0049
531.4287	-0.0089
531.6251	-0.0165
531.8215	0.0015
532.0179	-0.0167
532.2143	0.0066
532.4107	-0.004
532.607	-0.0146
532.8034	0
532.9997	-0.0095
533.196	-0.0099
533.3923	-0.0108
533.5886	-0.0079
533.7848	0.0015
533.9811	-0.0032
534.1773	0.0038
534.3735	0.0063
534.5697	0
534.7659	-0.0028
534.9621	0.0036
535.1582	-0.0119
535.3544	-0.0157
535.5505	-0.0091
535.7466	-0.0129
535.9427	-0.0098
536.1387	-0.0074
536.3348	-0.014
536.5308	-0.0034
536.7269	-0.0224
536.9229	-0.0019
537.1189	0.0002
537.3148	-0.0055
537.5108	-0.0101
537.7068	-0.0076
537.9027	-0.0125
538.0986	-0.0013
538.2945	-0.0151
538.4904	-0.0133
538.6863	-0.0083
538.8821	-0.0089
539.078	-0.0074
539.2738	-0.0045
539.4696	-0.0136
539.6654	-0.0046
539.8611	0.0071
540.0569	-0.0068
540.2526	-0.0018
540.4484	0.0051
540.6441	0.0044
540.8398	-0.0069
541.0355	0.0006
541.2311	-0.0058
541.4268	-0.0117
541.6224	-0.0024
541.818	-0.004
542.0136	-0.0054
542.2092	-0.0097
542.4048	0.0088
542.6003	-0.005
542.7959	-0.0073
542.9914	-0.0082
543.1869	0.0014
543.3824	-0.0132
543.5779	-0.0103
543.7734	-0.0021
543.9688	-0.0037
544.1642	0.0003
544.3596	-0.0008
544.555	-0.0065
544.7504	-0.0081
544.9458	-0.0125
545.1411	-0.0039
545.3365	-0.0111
545.5318	-0.0054
545.7271	-0.005
545.9224	-0.0116
546.1177	-0.0023
546.3129	0
546.5081	-0.0107
546.7034	-0.002
546.8986	-0.0036
547.0938	-0.0065
547.289	-0.0015
547.4841	-0.0111
547.6793	0.0078
547.8744	-0.0086
548.0695	-0.0017
548.2646	-0.0084
548.4597	-0.0028
548.6548	-0.0012
548.8498	0.0022
549.0448	-0.0065
549.2399	0.0007
549.4349	-0.0022
549.6298	0.0014
549.8248	0.0026
550.0198	0.0017
550.2147	0.0008
550.4096	-0.0034
550.6045	-0.0034
550.7994	-0.0009
550.9943	-0.005
551.1892	-0.0026
551.384	0.0058
551.5788	-0.0094
551.7737	-0.0036
551.9685	-0.0112
552.1632	-0.0011
552.358	-0.0059
552.5528	-0.0027
552.7475	0.0042
552.9422	0.0007
553.1369	-0.0059
553.3316	0.0068
553.5263	-0.012
553.7209	-0.0051
553.9156	-0.0097
554.1102	-0.0091
554.3048	-0.0047
554.4994	0.0049
554.694	-0.0046
554.8885	0.0037
555.0831	-0.0097
555.2776	-0.0133
555.4721	-0.0064
555.6666	-0.0032
555.8611	0.0032
556.0555	0.0039
556.25	-0.0033
556.4444	-0.0236
556.6388	0.0001
556.8332	-0.003
557.0276	-0.0071
557.222	-0.0057
557.4163	-0.0022
557.6107	-0.0149
557.805	0.0037
557.9993	-0.0006
558.1936	-0.0033
558.3879	0.0002
558.5821	0.0015
558.7764	-0.0118
558.9706	0.0008
559.1648	0.0036
559.359	-0.01
559.5532	-0.0082
559.7473	0.0013
559.9415	-0.0002
560.1356	-0.0053
560.3297	-0.0041
560.5238	-0.007
560.7179	-0.0017
560.9119	-0.005
561.106	-0.0092
561.3	-0.0112
561.494	-0.0098
561.688	-0.0099
561.882	-0.0121
562.076	-0.0078
562.2699	-0.0005
562.4639	-0.0112
562.6578	-0.0048
562.8517	-0.0068
563.0456	-0.0013
563.2395	-0.0047
563.4333	0.0036
563.6272	0.001
563.821	-0.009
564.0148	-0.0059
564.2086	-0.0146
564.4024	-0.0028
564.5961	-0.0044
564.7899	-0.0056
564.9836	-0.0025
565.1773	0.0008
565.371	0.0125
565.5647	-0.002
565.7584	0.0023
565.952	-0.0002
566.1456	0.0016
566.3393	-0.0023
566.5329	-0.0069
566.7264	-0.0112
566.92	-0.0061
567.1136	-0.0048
567.3071	-0.0048
567.5006	-0.0004
567.6941	0.0014
567.8876	-0.0008
568.0811	-0.0065
568.2745	-0.0033
568.468	0.0007
568.6614	-0.0042
568.8548	0.0044
569.0482	-0.0061
569.2416	-0.0046
569.4349	-0.0011
569.6283	0.0019
569.8216	-0.0059
570.0149	-0.0117
570.2082	0.0079
570.4015	0.0124
570.5947	-0.0003
570.788	-0.0033
570.9812	0.0009
571.1744	-0.005
571.3676	-0.0081
571.5608	-0.0043
571.754	-0.0004
571.9471	-0.0049
572.1402	-0.0055
572.3333	-0.0118
572.5264	-0.0084
572.7195	-0.0087
572.9126	-0.0039
573.1057	-0.0008
573.2987	-0.0083
573.4917	-0.0011
573.6847	-0.0156
573.8777	0.0024
574.0707	0.0049
574.2636	-0.0049
574.4566	-0.0057
574.6495	0.0029
574.8424	-0.0046
575.0353	-0.0047
575.2281	0.0018
575.421	0.0037
575.6138	0.0061
575.8067	-0.0047
575.9995	-0.002
576.1923	-0.0013
576.385	0.0045
576.5778	-0.0012
576.7706	-0.0058
576.9633	-0.0007
577.156	0.0054
577.3487	-0.0062
577.5414	0.0025
577.734	-0.0067
577.9267	0.0041
578.1193	-0.0096
578.3119	-0.0049
578.5045	-0.0013
578.6971	-0.0058
578.8897	-0.0019
579.0822	-0.001
579.2747	0.0047
579.4673	-0.0111
579.6598	-0.006
579.8522	-0.003
580.0447	-0.0045
580.2372	-0.0001
580.4296	0.0034
580.622	-0.0019
580.8144	-0.0023
581.0068	-0.0091
581.1992	-0.0164
581.3915	-0.0081
581.5839	-0.0113
581.7762	-0.0069
581.9685	-0.0065
582.1608	-0.0034
582.353	-0.0053
582.5453	-0.002
582.7375	-0.004
582.9298	-0.0012
583.122	-0.0008
583.3142	0.0042
583.5063	0.0003
583.6985	-0.0038
583.8906	-0
584.0827	-0.0079
584.2749	0.0035
584.4669	-0.0027
584.659	-0.0028
584.8511	-0.0069
585.0431	-0.0072
585.2352	0.0024
585.4272	-0.0069
585.6192	0.0035
585.8111	-0.0004
586.0031	0.0001
586.195	0.0008
586.387	0.0042
586.5789	0.0028
586.7708	-0.0017
586.9627	-0.0024
587.1545	-0.0089
587.3464	0.0015
587.5382	-0.0021
587.73	-0.0041
587.9218	0.0026
588.1136	-0.0093
588.3053	0.0005
588.4971	-0.0022
588.6888	-0.0085
588.8805	-0.0023
589.0722	-0.0007
589.2639	-0.0032
589.4556	-0.0055
589.6472	-0.0053
589.8389	-0.0136
590.0305	-0.0099
590.2221	-0.0046
590.4137	-0.0069
590.6052	-0.0026
590.7968	-0.0072
590.9883	-0.0014
591.1798	-0.0142
591.3713	-0.002
591.5628	-0.0018
591.7543	0.004
591.9458	-0.0078
592.1372	-0.0049
592.3286	0.0053
592.52	0.0001
592.7114	-0.0125
592.9028	-0.0026
593.0941	-0.0002
593.2855	-0.0014
593.4768	-0.0049
593.6681	-0.0017
593.8594	-0.0025
594.0506	-0.0022
594.2419	0.0074
594.4331	0.0013
594.6244	0.0008
594.8156	-0.0105
595.0067	-0.003
595.1979	-0.0013
595.3891	0.0034
595.5802	0.0002
595.7713	-0.0044
595.9624	-0.0068
596.1535	-0.007
596.3446	0
596.5357	-0.0016
596.7267	0.0046
596.9177	-0.0079
597.1087	-0.0151
597.2997	-0.0068
597.4907	-0.0026
597.6817	-0.0115
597.8726	-0.0016
598.0635	-0.01
598.2544	-0.007
598.4453	-0.0032
598.6362	-0.0026
598.827	-0.0039
599.0179	0.0019
599.2087	0.0008
599.3995	0.0032
599.5903	-0.0041
599.7811	-0.0064
599.9718	-0.0057
600.1626	-0.0124
600.3533	-0.0076
600.544	-0.003
600.7347	-0.0067
600.9254	0.0023
601.116	-0.0185
601.3067	-0.0034
601.4973	-0.0067
601.6879	0.0042
601.8785	-0.0031
602.0691	0.001
602.2596	-0.0039
602.4502	-0.0017
602.6407	-0.003
602.8312	-0.0002
603.0217	-0.0132
603.2122	-0.004
603.4027	0.0002
603.5931	-0.0072
603.7835	-0.0065
603.9739	-0.0023
604.1643	-0.0056
604.3547	-0.0033
604.5451	-0.0009
604.7354	-0.0029
604.9257	-0.0035
605.116	-0.0035
605.3063	0.0057
605.4966	-0.005
605.6869	-0.0003
605.8771	0.0067
606.0673	0.0048
606.2575	0.0087
606.4477	0.0067
606.6379	0.0059
606.8281	-0.0018
607.0182	-0.0045
607.2083	0.0057
607.3985	0.0017
607.5885	-0.0012
607.7786	-0.0043
607.9687	-0.0011
608.1587	0.0021
608.3488	0.0014
608.5388	-0.0007
608.7288	-0.0017
608.9187	-0.0092
609.1087	-0.0064
609.2986	-0.008
609.4886	-0.0041
609.6785	-0.003
609.8684	0.0039
610.0582	0.0033
610.2481	0.0002
610.4379	-0.0046
610.6278	-0.0042
610.8176	-0.0023
611.0074	-0.005
611.1971	-0.005
611.3869	-0.0052
611.5766	-0.0008
611.7664	0.0086
611.9561	-0.0015
612.1458	0.0028
612.3354	-0.0068
612.5251	0.0004
612.7147	-0.0005
612.9044	0.0008
613.094	-0.0064
613.2836	-0.0005
613.4731	-0.0014
613.6627	-0.0007
613.8522	0.0026
614.0417	-0.0009
614.2313	-0.0066
614.4207	-0.0087
614.6102	-0.0105
614.7997	-0.0078
614.9891	-0.0042
615.1785	0.0022
615.3679	-0.0106
615.5573	0.0025
615.7467	-0.0054
615.9361	-0.0049
616.1254	-0.0066
616.3147	-0.0042
616.504	0.0062
616.6933	0.0034
616.8826	-0.0014
617.0718	0.0015
617.2611	0.0012
617.4503	-0.0086
617.6395	-0.0074
617.8287	-0.0071
618.0179	-0.0026
618.207	0.0025
618.3961	-0.0046
618.5853	0.0002
618.7744	-0.0033
618.9634	0.0025
619.1525	-0.0041
619.3416	-0.0021
619.5306	0.0022
619.7196	-0.0017
619.9086	-0.0081
620.0976	0.002
620.2866	-0.0059
620.4755	-0.0008
620.6645	-0.0041
620.8534	0.0024
621.0423	0.0053
621.2312	0.0048
621.42	0.0024
621.6089	-0.003
621.7977	0.0012
621.9865	-0.0039
622.1753	-0.0003
622.3641	0.0007
622.5529	0.0046
622.7416	0.0022
622.9303	0.0018
623.1191	0.006
623.3078	-0.0049
623.4964	-0.0009
623.6851	-0.0006
623.8737	-0.0089
624.0624	0.0001
624.251	-0.0112
624.4396	-0.0053
624.6282	-0.0073
624.8167	-0.0066
625.0053	0.0038
625.1938	0.004
625.3823	0.0004
625.5708	-0.0027
625.7593	-0.0147
625.9477	-0.0071
626.1362	-0.0002
626.3246	-0.0069
626.513	0.0018
626.7014	0.0026
626.8898	-0.004
627.0781	0.0011
627.2665	-0.0077
627.4548	0.0031
627.6431	-0.0018
627.8314	0.006
628.0197	0.0037
628.2079	-0.0062
628.3962	-0.0068
628.5844	0.0012
628.7726	0.0029
628.9608	-0.0013
629.1489	-0.0009
629.3371	-0.0003
629.5252	-0.0019
629.7134	0.0044
629.9015	-0.0079
630.0895	-0.0001
630.2776	0.0054
630.4657	0.0024
630.6537	-0.0022
630.8417	-0.0074
631.0297	-0.0017
631.2177	-0.0073
631.4057	-0.0044
631.5936	-0.0008
631.7815	0.0005
631.9695	-0.0043
632.1574	-0.0031
632.3452	0.0019
632.5331	-0.0028
632.7209	0.0028
632.9088	0.0058
633.0966	0.0055
633.2844	-0.0033
633.4722	-0.0043
633.6599	0.0032
633.8477	-0.0007
634.0354	-0.0023
634.2231	-0.0014
634.4108	0.0008
634.5985	0.0019
634.7861	0.0027
634.9738	0.0026
635.1614	0.0025
635.349	-0.0047
635.5366	0.0005
635.7242	-0
635.9117	-0.004
636.0993	-0.0017
636.2868	0.0029
636.4743	-0.0056
636.6618	0.0072
636.8492	-0.0009
637.0367	0.0005
637.2241	-0.0039
637.4115	-0.004
637.5989	-0.006
637.7863	-0.0014
637.9737	0.0023
638.161	0.0008
638.3484	-0.0024
638.5357	0.0079
638.723	0.0009
638.9103	0.0003
639.0975	0.0016
639.2848	0.0009
639.472	0.0006
639.6592	-0.0029
639.8464	0.0051
640.0336	0.0093
640.2208	0.0051
640.4079	-0.0058
640.595	0.0019
640.7821	-0.0017
640.9692	0.0016
641.1563	-0.003
641.3434	-0.0069
641.5304	-0.0047
641.7174	-0.003
641.9044	-0.0053
642.0914	0.0022
642.2784	0.0043
642.4653	0.0028
642.6523	-0.0046
642.8392	-0.0082
643.0261	0.0001
643.213	-0.0048
643.3999	-0.008
643.5867	-0.0055
643.7735	-0.0038
643.9604	-0.0074
644.1472	-0.0014
644.3339	-0.0045
644.5207	0.0046
644.7075	-0.0037
644.8942	0.0006
645.0809	0.0068
645.2676	0.0049
645.4543	0.0004
645.6409	0.0025
645.8276	0.0034
646.0142	0.0023
646.2008	-0.0102
646.3874	-0.0051
646.574	-0.0032
646.7605	-0.0097
646.9471	-0.015
647.1336	-0.0054
647.3201	0.0042
647.5066	-0.0029
647.6931	0.0056
647.8795	-0.003
648.0659	-0.0017
648.2524	-0.0006
648.4388	-0.0074
648.6252	-0.0018
648.8115	0.0016
648.9979	-0.0006
649.1842	0.0031
649.3705	0.001
649.5568	0.0034
649.7431	0.0036
649.9294	-0.0107
650.1156	0.0022
650.3018	-0.0107
650.488	0.0077
650.6742	-0.0025
650.8604	0.0007
651.0466	-0.0084
651.2327	-0.0141
651.4188	-0.0078
651.6049	-0.008
651.791	-0.0079
651.9771	-0
652.1632	-0.0005
652.3492	-0.0033
652.5352	0.0033
652.7212	-0.0034
652.9072	0.0051
653.0932	-0.0083
653.2791	-0.0034
653.465	-0.0076
653.651	-0.0033
653.8369	-0.001
654.0227	-0.0043
654.2086	-0.0053
654.3944	0.0064
654.5803	-0.0053
654.7661	-0.0014
654.9519	0.0027
655.1377	-0.0079
655.3234	-0.003
655.5092	-0.0092
655.6949	-0.0082
655.8806	-0.0058
656.0663	0
656.2519	-0.0043
656.4376	-0.0089
656.6232	0.0059
656.8088	-0.0015
656.9945	0.0001
657.18	-0.0032
657.3656	0.0001
657.5511	-0.0042
657.7367	-0.0091
657.9222	0.0024
658.1077	-0.0052
658.2932	-0.0019
658.4786	-0.0124
658.6641	-0.0084
658.8495	-0.0062
659.0349	-0.0037
659.2203	-0.0014
659.4057	-0.001
659.591	0.0023
659.7764	-0.0132
659.9617	-0.0019
660.147	-0.0062
660.3323	-0.0038
660.5176	0.0029
660.7028	0.0052
660.888	-0.0014
661.0733	-0.0029
661.2585	-0.0037
661.4436	-0.0076
661.6288	-0.0095
661.8139	-0.0022
661.9991	-0.0004
662.1842	-0.0082
662.3693	-0.0012
662.5544	-0.0083
662.7394	-0.0013
662.9245	-0.0015
663.1095	-0.0051
663.2945	-0.0023
663.4795	-0.0026
663.6644	-0.0027
663.8494	-0.0038
664.0343	-0.0018
664.2193	-0.0061
664.4042	-0.0059
664.589	-0.0111
664.7739	-0.0068
664.9587	-0.0089
665.1436	-0.0067
665.3284	-0.0023
665.5132	-0.0061
665.698	-0.0046
665.8827	0.0018
666.0675	-0.0046
666.2522	-0.0121
666.4369	0.0039
666.6216	0.005
666.8063	-0.0015
666.9909	-0.0011
667.1756	-0.0023
667.3602	-0.0019
667.5448	-0.0043
667.7294	0.002
667.9139	0.0023
668.0985	0.0142
668.283	0.004
668.4675	-0.0049
668.652	0.0017
668.8365	-0.0026
669.0209	0.0074
669.2054	0.0073
669.3898	-0.001
669.5742	-0.0021
669.7586	0.0033
669.943	0.004
670.1273	0.0026
670.3117	-0.0026
670.496	-0
670.6803	0.0024
670.8646	0.0014
671.0488	-0.0015
671.2331	0.0065
671.4173	0.0036
671.6015	-0.0029
671.7857	0.0031
671.9699	0.0047
672.1541	0.0041
672.3382	0.0024
672.5223	0.0012
672.7064	0.0068
672.8905	0.0042
673.0746	0.0011
673.2587	-0.0005
673.4427	0.0001
673.6267	0.0066
673.8107	0.0087
673.9947	0.0077
674.1787	0.0071
674.3626	-0.0001
674.5465	0.0033
674.7304	0.0009
674.9143	0.0125
675.0982	0.0074
675.2821	-0.0006
675.4659	0.0022
675.6497	-0.0017
675.8335	0.0012
676.0173	-0.0011
676.2011	-0.0034
676.3849	-0.0008
676.5686	-0.009
676.7523	-0.0078
676.936	0
677.1197	-0.009
677.3034	-0.0093
677.487	0.0008
677.6706	0.0007
677.8542	0.0033
678.0378	-0.0038
678.2214	-0.0025
678.405	-0.0056
678.5885	-0.0115
678.772	0
678.9555	-0.0074
679.139	-0.0091
679.3225	-0.005
679.5059	-0.0044
679.6894	0.0041
679.8728	-0.0032
680.0562	-0.0097
680.2395	-0.0006
680.4229	-0.0051
680.6062	0.0113
680.7896	-0.0048
680.9729	-0.0021
681.1562	0.0064
681.3394	0.0011
681.5227	-0.0091
681.7059	-0.0072
681.8891	0.0035
682.0723	0.0058
682.2555	0.0025
682.4387	0.0055
682.6218	-0.0008
682.805	0.0089
682.9881	0.0072
683.1712	-0.0052
683.3542	0.0024
683.5373	0.0006
683.7203	-0.0043
683.9034	-0.0049
684.0864	-0.0043
684.2694	-0.0027
684.4523	0.0084
684.6353	-0.0007
684.8182	-0.0083
685.0011	-0.0085
685.184	-0.0034
685.3669	-0.0023
685.5498	0.0028
685.7326	-0.0017
685.9154	-0.0114
686.0982	-0.0008
686.281	0.0016
686.4638	-0.0043
686.6465	-0.0027
686.8293	-0.0028
687.012	-0.0055
687.1947	-0.0079
687.3774	-0.0034
687.56	-0.0063
687.7427	0.0038
687.9253	-0.0094
688.1079	-0.0058
688.2905	0.004
688.4731	-0.008
688.6556	-0.0038
688.8382	-0.0104
689.0207	-0.0024
689.2032	-0.0084
689.3857	-0.0085
689.5681	0.0022
689.7506	-0.0066
689.933	-0.0048
690.1154	-0.001
690.2978	-0.0052
690.4802	0.0096
690.6626	-0.0066
690.8449	-0.001
691.0272	0.0015
691.2095	-0.0113
691.3918	-0.0044
691.5741	-0.0029
691.7563	-0.0035
691.9386	0.0016
692.1208	0.0032
692.303	0.0023
692.4852	-0.0071
692.6673	-0.0026
692.8495	-0.0003
693.0316	-0.0038
693.2137	0.0041
693.3958	0.0055
693.5778	0.0024
693.7599	0.0014
693.9419	-0.0053
694.1239	-0.0078
694.3059	-0.0072
694.4879	0.0029
694.6699	0.0068
694.8518	-0.0035
695.0337	-0.0029
695.2157	0.0078
695.3975	-0.0024
695.5794	0.0022
695.7613	-0.0013
695.9431	-0.0011
696.1249	-0.002
696.3067	0.0015
696.4885	0.0066
696.6703	-0.003
696.852	0.0068
697.0337	0.0013
697.2154	0.0033
697.3971	0.0025
697.5788	0.0023
697.7605	-0.0047
697.9421	0.0039
698.1237	-0.0006
698.3053	-0.0003
698.4869	-0.0006
698.6685	-0.007
698.85	0.0053
699.0315	0.0114
699.213	-0.0017
699.3945	-0.0018
699.576	0.0051
699.7575	0.0084
699.9389	0.0074
700.1203	-0.0025
700.3017	-0.0105
700.4831	-0.0101
700.6645	-0.0062
700.8458	-0.0073
701.0271	-0.0085
701.2084	0.0074
701.3897	-0.0043
701.571	0.0012
701.7523	-0.013
701.9335	-0.0047
702.1147	0.001
702.2959	-0.0039
702.4771	-0.0054
702.6583	-0.003
702.8394	-0.0089
703.0205	0.0012
703.2016	-0.0029
703.3827	-0.0041
703.5638	0.0072
703.7449	0.0067
703.9259	0.0115
704.1069	-0.0045
704.2879	-0.0023
704.4689	0.0063
704.6499	0.001
704.8308	0.0052
705.0117	0.0008
705.1927	-0.0019
705.3735	-0.0021
705.5544	-0.0106
705.7353	-0.0055
705.9161	-0.0082
706.0969	-0.0052
706.2777	-0
706.4585	-0.0028
706.6393	-0.0018
706.82	-0.0124
707.0007	-0.0021
707.1815	-0.0033
707.3621	0.0063
707.5428	-0.0015
707.7235	0.001
707.9041	0.0059
708.0847	-0.0164
708.2653	-0.0099
708.4459	-0.0107
708.6265	-0.005
708.807	-0.0048
708.9875	-0.0049
709.168	-0.0023
709.3485	-0.0119
709.529	-0.0054
709.7095	-0.0135
709.8899	-0.005
710.0703	-0.0145
710.2507	-0.006
710.4311	-0.0053
710.6115	-0.0137
710.7918	-0.0065
710.9721	-0.006
711.1524	-0.0085
711.3327	0.0033
711.513	0.0028
711.6932	0.0023
711.8735	0.0082
712.0537	0.0076
712.2339	0.0035
712.4141	-0.0072
712.5942	-0.0036
712.7744	-0.0035
712.9545	-0.0073
713.1346	-0.0069
713.3147	-0.0045
713.4947	-0.0016
713.6748	-0.0024
713.8548	0.0014
714.0348	-0.0033
714.2148	-0.0072
714.3948	0.0089
714.5748	-0.0073
714.7547	-0.0096
714.9346	0.0007
715.1145	-0.0118
715.2944	-0.011
715.4743	-0.0039
715.6541	-0.0108
715.834	-0.0012
716.0138	-0.0078
716.1936	-0.0168
716.3733	-0.0045
716.5531	-0.0027
716.7328	-0.008
716.9126	-0.0097
717.0923	0.0014
717.2719	0.0029
717.4516	0.0036
717.6312	0.0045
717.8109	0.0016
717.9905	0.0056
718.1701	-0.0055
718.3496	-0.0021
718.5292	0.0022
718.7087	0.0031
718.8882	0.0007
719.0677	0.0022
719.2472	0.0071
719.4267	-0.0022
719.6061	0.0026
719.7856	0.0026
719.965	0.0069
720.1443	-0.0064
720.3237	0.0109
720.5031	0.0025
720.6824	0.0071
720.8617	-0.0059
721.041	-0.0043
721.2203	0.0111
721.3995	0.0034
721.5788	0.0022
721.758	-0.0008
721.9372	-0.0042
722.1164	-0.0101
722.2956	-0.0069
722.4747	0.0003
722.6538	-0.0056
722.8329	0.0066
723.012	-0.0061
723.1911	-0.0026
723.3702	-0.0023
723.5492	-0.0028
723.7282	-0.0061
723.9072	-0.0037
724.0862	-0.0108
724.2652	-0.013
724.4441	-0.003
724.623	-0.0018
724.8019	-0.0027
724.9808	-0.0026
725.1597	-0.013
725.3385	0.004
725.5174	-0.0018
725.6962	0.0005
725.875	0.0006
726.0538	0.0105
726.2325	0.0041
726.4112	-0.0004
726.59	-0.0001
726.7687	-0.0003
726.9474	0.0113
727.126	-0.0079
727.3047	0.0009
727.4833	-0.0043
727.6619	0.001
727.8405	-0.01
728.0191	0.0019
728.1976	0.0032
728.3762	-0.0059
728.5547	-0.0043
728.7332	-0.0195
728.9116	0.0021
729.0901	-0.0114
729.2686	-0.0172
729.447	-0.0117
729.6254	-0.0142
729.8038	-0.0001
729.9821	-0.0156
730.1605	-0.007
730.3388	-0.007
730.5171	-0.0075
730.6954	-0.0058
730.8737	0.0032
731.0519	0.0006
731.2302	0.0066
731.4084	0.0045
731.5866	-0.0074
731.7648	-0.0106
731.9429	-0.0089
732.1211	-0.0129
732.2992	-0.0045
732.4773	-0.0029
732.6554	-0.0076
732.8335	0.0025
733.0115	-0.0076
733.1896	0.0092
733.3676	-0.0072
733.5456	0.002
733.7235	0.0038
733.9015	-0.0029
734.0794	0.0011
734.2574	-0.0046
734.4353	-0.0142
734.6131	-0.0006
734.791	0.0002
734.9689	-0.0056
735.1467	-0.0004
735.3245	-0.0041
735.5023	-0.0056
735.68	-0.003
735.8578	-0.0026
736.0355	-0.0182
736.2132	-0.0029
736.3909	-0.0031
736.5686	-0.0061
736.7463	-0.0012
736.9239	-0.0029
737.1015	-0.0096
737.2791	-0.0076
737.4567	-0.0016
737.6343	-0.0109
737.8118	0.0062
737.9894	0.0033
738.1669	-0.0092
738.3444	-0.0118
738.5218	-0.0046
738.6993	-0.0042
738.8767	-0.0073
739.0541	0.0034
739.2315	-0.0081
739.4089	-0.0005
739.5863	0.0014
739.7636	-0.0074
739.9409	-0.0006
740.1182	0.0071
740.2955	-0.0024
740.4728	-0.0019
740.65	0.0014
740.8272	-0.0095
741.0044	-0.0052
741.1816	0.0079
741.3588	-0.0039
741.5359	-0.0036
741.7131	-0.013
741.8902	-0.001
742.0673	-0.0088
742.2444	-0.0147
742.4214	-0.0151
742.5985	-0.0075
742.7755	-0.0092
742.9525	-0.0142
743.1295	0.0035
743.3064	0.0073
743.4834	0.0114
743.6603	0.0012
743.8372	-0.009
744.0141	0.0025
744.191	0.0036
744.3678	-0.0042
744.5446	-0.0046
744.7215	-0.0052
744.8982	-0.0003
745.075	-0.0098
745.2518	-0.0008
745.4285	-0.008
745.6052	-0.0058
745.7819	-0.0146
745.9586	-0.0135
746.1353	-0.0121
746.3119	-0.0176
746.4885	-0.014
746.6651	-0.0129
746.8417	-0.0091
747.0183	-0.0117
747.1948	-0.0076
747.3714	-0.0108
747.5479	-0.0029
747.7244	-0.0058
747.9008	-0.0042
748.0773	-0.0079
748.2537	-0.0105
748.4301	-0.0102
748.6065	0
748.7829	-0.0063
748.9593	-0.0125
749.1356	-0.0134
749.3119	0.0002
749.4882	-0.0185
749.6645	-0.003
749.8408	-0.0141
750.017	-0.0109
750.1933	-0.0047
750.3695	-0.0095
750.5457	-0.0024
750.7218	-0.0114
750.898	0.0079
751.0741	-0.0103
751.2502	0.0009
751.4263	-0.0131
751.6024	-0.0089
751.7784	-0.0078
751.9545	-0.0105
752.1305	0
752.3065	-0.0159
752.4825	0.0034
752.6584	-0.0101
752.8344	-0.0016
753.0103	-0.0086
753.1862	-0.0121
753.3621	-0.0068
753.5379	-0.0102
753.7138	0.0019
753.8896	-0.0065
754.0654	0.0006
754.2412	-0.0067
754.417	-0.0022
754.5927	-0.0059
754.7685	-0.0087
754.9442	0.0028
755.1199	0
755.2956	-0.001
755.4712	0.0081
755.6469	0.0053
755.8225	0.0018
755.9981	-0.0038
756.1736	0.0065
756.3492	-0.0043
756.5248	0.0003
756.7003	0.0052
756.8758	0.0046
757.0513	-0.0083
757.2267	-0.0077
757.4022	0.0054
757.5776	-0.0068
757.753	0.0002
757.9284	-0.0078
758.1038	0.0073
758.2791	-0.0086
758.4545	-0.0142
758.6298	-0.0084
758.8051	-0.0113
758.9803	-0.0094
759.1556	-0.0112
759.3308	-0.0068
759.506	0.001
759.6812	-0.0018
759.8564	0.0032
760.0316	-0.0043
760.2067	0.008
760.3819	0.0048
760.557	0.0167
760.732	-0.0047
760.9071	-0.0082
761.0821	0.0027
761.2572	0.0134
761.4322	0.0009
761.6072	0.0023
761.7821	-0.0134
761.9571	0.0053
762.132	0.0029
762.3069	-0.014
762.4818	-0.0109
762.6567	-0.012
762.8316	-0.0062
763.0064	-0.0001
763.1812	-0.0119
763.356	-0.0071
763.5308	-0.005
763.7055	-0.0028
763.8803	-0.009
764.055	-0.0054
764.2297	-0.0077
764.4044	-0.0088
764.579	-0.0079
764.7537	-0.0212
764.9283	-0.008
765.1029	-0.022
765.2775	-0.0115
765.4521	-0.0153
765.6266	-0.0108
765.8011	-0.0103
765.9756	-0.0119
766.1501	0.0011
766.3246	-0.0105
766.4991	-0.0084
766.6735	-0.0077
766.8479	-0.0084
767.0223	0.0004
767.1967	0.0035
767.371	-0.0055
767.5454	-0.0204
767.7197	-0.0065
767.894	-0.0154
768.0683	-0.0172
768.2425	-0.0148
768.4168	-0.0024
768.591	0.0006
768.7652	-0.0049
768.9394	-0.0167
769.1135	-0.0027
769.2877	0.0079
769.4618	-0.0088
769.6359	-0.0095
769.81	0.0029
769.984	0.005
770.1581	-0.0066
770.3321	0.0036
770.5061	-0.0142
770.6801	0.0016
770.8541	-0.0063
771.028	0.0066
771.202	-0.0067
771.3759	0.0101
771.5498	-0.0075
771.7236	-0.0055
771.8975	-0.0005
772.0713	0.0047
772.2451	0.0005
772.4189	-0.0027
772.5927	0.0018
772.7665	-0.0062
772.9402	-0.0043
773.1139	-0.0133
773.2876	-0.0122
773.4613	-0.0085
773.635	-0.0076
773.8086	-0.0141
773.9822	-0.0064
774.1558	0
774.3294	-0.0241
774.503	0.0012
774.6765	-0.0033
774.8501	-0.0096
775.0236	0.0019
775.1971	0.0055
775.3705	-0.0106
775.544	-0.003
775.7174	-0.0123
775.8908	-0.0083
776.0642	-0.0046
776.2376	0.0024
776.4109	-0.0106
776.5843	-0.0049
776.7576	0.0011
776.9309	0.0048
777.1041	-0.0013
777.2774	0.0069
777.4506	0.0014
777.6238	-0.0096
777.797	-0.009
777.9702	-0.0004
778.1434	-0.0056
778.3165	-0.0249
778.4896	-0.0058
778.6627	0.0051
778.8358	-0.0017
779.0089	0.0039
779.1819	-0.0002
779.3549	-0.001
779.5279	-0.0083
779.7009	-0.0125
779.8739	0.002
780.0468	-0.0199
780.2197	0.0036
780.3926	-0.0017
780.5655	-0.0092
780.7384	-0.0046
780.9112	-0.0017
781.0841	-0.0158
781.2569	-0.0065
781.4297	0.003
781.6024	0.0022
781.7752	-0.0013
781.9479	0.0016
782.1206	-0.0102
782.2933	-0.0153
782.466	0.0028
782.6386	-0.0012
782.8113	-0.0134
782.9839	-0.0015
783.1565	0.0134
783.329	0.0016
783.5016	0.0056
783.6741	-0.0012
783.8466	-0.0107
784.0191	0.014
784.1916	-0.0118
784.3641	-0.0099
784.5365	-0.0107
784.7089	-0.007
784.8813	-0.0061
785.0537	-0.0065
785.2261	-0.0118
785.3984	-0.0133
785.5707	0.0048
785.743	-0.0017
785.9153	-0.0045
786.0876	0.0025
786.2598	-0.0133
786.432	-0.0143
786.6042	-0.0048
786.7764	-0.0188
786.9486	-0.015
787.1207	-0.0196
787.2928	-0.0064
787.4649	-0.005
787.637	-0.0016
787.8091	-0.016
787.9811	0.0006
788.1532	-0.0143
788.3252	0.0026
788.4972	-0.0222
788.6691	-0.0136
788.8411	-0.0116
789.013	-0.0192
789.1849	-0.0026
789.3568	-0.0083
789.5287	-0.013
789.7005	-0.0192
789.8723	-0.0053
790.0442	0.0042
790.2159	0.0008
790.3877	-0.0099
790.5595	-0.009
790.7312	-0.0092
790.9029	-0.005
791.0746	-0.0197
791.2463	-0.0007
791.4179	0.0059
791.5896	-0.0136
791.7612	-0.006
791.9328	-0.0018
792.1044	-0.0185
792.2759	-0.0217
792.4474	-0.0122
792.619	-0.0128
792.7905	-0.0034
792.9619	0.0024
793.1334	0.0024
793.3048	0.0005
793.4762	-0.0006
793.6476	-0.0009
793.819	-0.0042
793.9904	-0.0007
794.1617	-0.01
794.333	-0.0067
794.5043	-0.0154
794.6756	0.0013
794.8469	-0.0217
795.0181	-0.0093
795.1893	-0.0092
795.3605	0.0115
795.5317	-0.0072
795.7029	-0.0042
795.874	0.0023
796.0452	-0.0058
796.2163	0.0066
796.3873	0.0063
796.5584	0.0073
796.7294	-0.0067
796.9005	0.0028
797.0715	-0.0024
797.2425	-0.0044
797.4134	-0.0143
797.5844	0.0104
797.7553	-0.0026
797.9262	-0.005
798.0971	-0.0126
798.2679	-0.0154
798.4388	-0.0215
798.6096	-0.0103
798.7804	-0.0005
798.9512	-0.0173
799.122	0.0046
799.2927	0.0027
799.4635	0.013
799.6342	-0.0374
799.8049	-0.0126
799.9755	-0.013
800.1462	-0.0121
800.3168	-0.0057
800.4874	-0.0068
800.658	0.0014
800.8286	0.0059
800.9991	-0.0032
801.1696	0.0109
801.3402	0.0105
801.5106	-0.0239
801.6811	-0.0138
801.8516	0.0118
802.022	0.0027
802.1924	-0.0022
802.3628	-0.0046
802.5332	0.0009
802.7035	0.011
802.8739	-0.0033
803.0442	-0.0012
803.2145	-0.0028
803.3847	-0.0284
803.555	-0.0082
803.7252	-0.0108
803.8954	-0.0171
804.0656	-0.036
804.2358	-0.0034
804.4059	0.0154
804.5761	0.0024
804.7462	-0.0004
804.9163	-0.0197
805.0864	-0.0046
805.2564	-0.0246
805.4264	-0.0024
805.5965	-0.0218
805.7665	0.0046
805.9364	0.0025
806.1064	0.0134
806.2763	0.0039
806.4462	0.006
806.6161	-0.0038
806.786	0.0104
806.9559	-0.0179
807.1257	-0.0059
807.2955	0.0005
807.4653	-0.0101
807.6351	-0.0068
807.8048	-0.0099
807.9746	0.0065
808.1443	0.0051
808.314	-0.0153
808.4837	0.0069
808.6533	0.002
808.8229	0.0262
808.9926	0.0006
809.1622	-0.0101
809.3317	-0.0116
809.5013	-0.0086
809.6708	0.0172
809.8403	0.005
810.0098	-0.0124
810.1793	0.0057
810.3488	0.0056
810.5182	-0.0134
810.6876	-0.002
810.857	-0.0087
811.0264	0.0151
811.1958	0.0039
811.3651	0.0006
811.5344	-0.0036
811.7037	0.004
811.873	-0.0048
812.0422	-0.0121
812.2115	0.0036
812.3807	0.0166
812.5499	0.0085
812.7191	0.021
812.8882	-0.0188
813.0574	-0.0119
813.2265	-0.0069
813.3956	-0.0119
813.5646	-0.01
813.7337	-0.0286
813.9027	0.0066
814.0718	0.0139
814.2407	0.0224
814.4097	-0.0046
814.5787	-0.0221
814.7476	-0.0212
814.9165	0.0034
815.0854	-0.0235
815.2543	-0.0177
815.4232	-0.0038
815.592	-0.0042
815.7608	-0.004
815.9296	-0.0043
816.0984	-0.0081
816.2671	-0.009
816.4359	-0.0142
816.6046	-0.003
816.7733	-0.0024
816.942	-0.0258
817.1106	-0.0065
817.2793	-0.0049
817.4479	0.0028
817.6165	0.017
817.785	-0.023
817.9536	-0.0412
818.1221	-0.0194
818.2906	-0.0125
818.4591	-0.02
818.6276	-0.0165
818.7961	0.0104
818.9645	-0.0127
819.1329	-0.0214
819.3013	0.0008
819.4697	0.0157
819.638	0.0046
819.8064	0.0153
819.9747	0.0193
820.143	-0.0049
820.3113	-0.0257
820.4795	0.0114
820.6477	0.0119
820.816	0.0219
820.9842	0.0341
821.1523	-0.0109
821.3205	-0.0337
821.4886	-0.0162
821.6567	-0.0154
821.8248	0.0138
821.9929	0.0293
822.1609	0.01
822.329	0.018
822.497	0.0382
822.665	-0.0003
822.833	-0.033
823.0009	0.0023
823.1688	0.0054
823.3367	0.0055
823.5046	0.0153
823.6725	0.0131
823.8404	-0.0085
824.0082	-0.019
824.176	0.0174
824.3438	0.0069
824.5116	-0.0159
824.6793	-0.0015
824.847	-0.0113
825.0147	0.0171
825.1824	-0.0121
825.3501	0.027
825.5177	-0.0169
825.6854	-0.0303
825.853	0.015
826.0206	-0.0068
826.1881	-0.0097
826.3557	-0.049
826.5232	0.004
826.6907	-0.0512
826.8582	-0.027
827.0257	-0.0328
827.1931	-0.0176
827.3605	-0.0088
827.528	-0.0247
827.6953	-0.0071
827.8627	0.0246
828.03	0.0144
828.1974	-0.0036
828.3647	-0.0131
828.532	-0.0135
828.6992	-0.0497
828.8665	0.0054
829.0337	-0.0084
829.2009	-0.0284
829.3681	0.0011
829.5352	0.0373
829.7024	-0.0295
829.8695	-0.0147
830.0366	0.0316
830.2037	-0.0104
830.3707	0.0335
830.5378	-0.0025
830.7048	-0.0117
830.8718	-0.0053
831.0388	-0.0249
831.2057	0.0186
831.3727	0.0187
831.5396	-0.0066
831.7065	-0.0078
831.8734	0.0274
832.0402	-0.0331
832.2071	0.0007
832.3739	-0.0244
832.5407	-0.0046
832.7075	0.0014
832.8742	-0.0289
833.041	-0.0453
833.2077	-0.0107
833.3744	0.0176
833.541	-0.039
833.7077	-0.0283
833.8743	-0.0284
834.0409	0.002
834.2075	-0.0245
834.3741	-0.025
834.5407	0.004
834.7072	-0.0251
834.8737	-0.0287
835.0402	-0.0322
835.2067	0.0434
835.3731	-0.0083
835.5395	0.0467
835.706	0.0193
835.8723	-0.0084
836.0387	0.0209
836.2051	-0.006
836.3714	-0.0026
836.5377	-0.0026
836.704	-0.0034
836.8703	0.057
837.0365	0.0158
837.2027	-0.011
837.3689	0.0303
837.5351	-0.0474
837.7013	-0.0495
837.8674	-0.0462
838.0335	-0.0406
838.1997	0.0168
838.3657	-0.0666
838.5318	-0.0239
838.6978	0.0126
838.8639	0.0309
839.0299	-0.0175
839.1958	0.021
839.3618	0.0037
839.5277	-0.0359
839.6937	-0.0176
839.8596	0.0011
840.0254	-0.0072
840.1913	0.0651
840.3571	0.0172
840.523	0.0124
840.6888	-0.0163
840.8545	-0.0393
841.0203	0.0163
841.186	0.024
841.3517	0.002
841.5174	-0.0024
841.6831	0.0098
841.8488	0.0195
842.0144	-0.0025
842.18	-0.0077
842.3456	-0.0392
842.5112	-0.0395
842.6767	-0.0463
842.8422	-0.0267
843.0077	-0.0493
843.1732	0.005
843.3387	-0.0697
843.5042	0.0003
843.6696	-0.0411
843.835	0.0179
844.0004	0.0336
844.1657	-0.0077
844.3311	-0.0712
844.4964	-0.0884
844.6617	-0.0204
844.827	-0.0223
844.9923	-0.011
845.1575	0.0198
845.3227	0.0003
845.4879	0.0187
845.6531	-0.0116
845.8183	-0.0327
845.9834	-0.0492
846.1485	0.0238
846.3136	0.0515
846.4787	-0.1006
846.6438	0.0261
846.8088	-0.0513
846.9738	-0.0516
847.1388	-0.027
847.3038	-0.0883
847.4687	-0.073
847.6337	0.0705
847.7986	-0.0192
847.9635	0.0723
848.1284	0.0449
848.2932	0.0564
848.458	-0.0494
848.6228	0.0411
848.7876	0.051
848.9524	-0.0013
849.1172	-0.072
849.2819	-0.0422
849.4466	-0.0953
849.6113	-0.0545
849.7759	-0.036
849.9406	-0.0374
850.1052	0.0107
850.2698	0.0219
850.4344	-0.0073
850.599	0.0143
850.7635	0.0747
850.928	0.0286
851.0925	-0.0554
851.257	0.0279
851.4215	0.0671
851.5859	-0.0081
851.7503	0.0491
851.9147	-0.0094
852.0791	-0.0798
852.2434	0.0402
852.4078	0.0331
852.5721	0.0288
852.7364	-0.0271
852.9007	0.036
853.0649	-0.0929
853.2291	0.0031
853.3934	-0.0597
853.5575	0.0689
853.7217	-0.0753
853.8859	-0.147
854.05	-0.0942
854.2141	-0.0947
854.3782	-0.0425
854.5423	-0.0884
854.7063	0.1157
854.8703	0.0119
855.0343	-0.0497
855.1983	-0.0947
855.3623	0.2001
855.5262	-0.0362
855.6901	0.0309
855.854	-0.0557
856.0179	0.0624
856.1818	0.0667
856.3456	-0.0158
856.5094	-0.0938
856.6732	-0.1445
856.837	0.0553
857.0008	0.0547
857.1645	-0.0845
857.3282	-0.1839
857.4919	0.0775
857.6556	0.194
857.8192	0.1303
857.9828	-0.0049
858.1465	-0.124
858.31	-0.2165
858.4736	0.0364
858.6372	-0.2956
858.8007	0.1098
858.9642	-0.0626
859.1277	0.0512
859.2911	0.1111
859.4546	0.1413
859.618	-0.2946
859.7814	-0.0378
859.9448	0.0517
860.1081	0.0231
860.2715	0.1873
860.4348	-0.0332
860.5981	0.1326
860.7614	0.0946
860.9246	-0.1477
861.0879	0.2562
861.2511	0.0601
861.4143	-0.2423
861.5774	0.2987
861.7406	-0.3101
861.9037	0.1935
862.0668	-0.1446
862.2299	-0.0125
862.393	-0.656
862.556	0.0716
862.7191	-0.1452
862.8821	-0.0593
863.0451	1.9363
863.208	0.0939
863.371	0.0102
863.5339	-0.1959
863.6968	-0.0181
863.8597	0.6831
864.0225	-0.1038
864.1854	-0.0067
864.3482	-0.0536
864.511	0.1708
864.6737	-0.1521
864.8365	0.5114
864.9992	-0.0186
865.1619	-0
865.3246	-0.3328
865.4873	0.1465
865.65	-0.2122
865.8126	0.0434
865.9752	0.085
866.1378	0.2175
866.3004	-0.0237
866.4629	0.1488
866.6254	-0.0714
866.7879	-0.0346
866.9504	-0.2265
867.1129	-0
867.2753	0.9537
867.4377	0.1994
867.6001	-0.1448
867.7625	0.3176
867.9249	-0.9567
868.0872	-0.1624
868.2495	0.0264
868.4118	-0.3822
868.5741	-0.214
868.7363	-0.0525
868.8986	-0.3834
869.0608	-0.1312
869.223	0.3731
869.3851	-0.438
869.5473	-0
869.7094	0.1651
869.8715	-0.2935
870.0336	-0
870.1957	-0.2211
870.3577	-0.4429
870.5197	-0.1379
870.6817	-0.0345
870.8437	-0.1899
871.0057	-0.5781
871.1676	-0.353
871.3295	-0.4027
871.4914	-0.4943
871.6533	-0.211
871.8151	-0.3344
871.977	-0
872.1388	-0
872.3006	0.3242
872.4623	0.0829
872.6241	0.0764
872.7858	-0
872.9475	-0.3048
873.1092	-0.291
873.2709	-0
873.4325	0.7062
873.5941	-0.1257
873.7557	-0
873.9173	-0.2548
874.0789	-0
874.2404	-0.0949
874.4019	-0.1752
874.5634	-0.2292
874.7249	0.0023
874.8863	-0.0691
875.0478	-0
875.2092	-0
875.3706	0.4432
875.5319	-0.6073
875.6933	-0
875.8546	-0.3186
876.0159	-0.1662
876.1772	0.8489
876.3385	-0
876.4997	0.6786
876.6609	-0.3478
876.8221	-0
876.9833	0.3217
877.1445	-0
877.3056	0.4343
877.4667	-0.1789
877.6278	-0
877.7889	-0.6279
877.9499	-0
878.111	-0
878.272	-0
878.433	0.3436
878.5939	-0
878.7549	0.003
878.9158	-0.5151
879.0767	-0
879.2376	-0
879.3984	-0
879.5593	-0
879.7201	0.0824
879.8809	-0.2697
880.0417	0.0072
880.2024	0.9532
880.3632	-1.0429
880.5239	0.3497
880.6846	0.1735
880.8452	-2.6165
881.0059	-0
881.1665	0.2515
881.3271	-0.2788
881.4877	-0.5102
881.6483	-0.1338
881.8088	-0.4591
881.9693	0.4704
882.1298	0.4704
882.2903	0.4704
