Data from MonoPyChalIsomerACN10uM350nmA_Absorbance_14-35-35-015.txt Node
Date: Fri Jul 05 14:35:35 BST 2024
User: LASERRRRR
Spectrometer: FLMT03099
Trigger mode: 0
Integration Time (sec): 1.000000E-1
Scans to average: 1
Electric dark correction enabled: true
Nonlinearity correction enabled: false
Boxcar width: 0
XAxis mode: Wavelengths
Number of Pixels in Spectrum: 3648
>>>>>Begin Spectral Data<<<<<
179.3399	-0.3531
179.5586	-0.3531
179.7771	-0.3531
179.9957	-0
180.2143	-0
180.4329	-0
180.6514	-0
180.8699	-0
181.0885	-0.0338
181.307	0.0172
181.5255	-0.3887
181.744	-0
181.9625	-0.4617
182.181	-0
182.3994	0.3411
182.6179	-0.1669
182.8363	-0.1166
183.0547	-0.1558
183.2732	-0.0142
183.4916	-0.0113
183.71	0.0929
183.9284	0.2172
184.1467	-0.049
184.3651	-0.1824
184.5835	-0.033
184.8018	0.014
185.0201	0.0944
185.2385	0.1687
185.4568	0.1467
185.6751	0.107
185.8934	0.213
186.1117	0.0533
186.3299	0.0052
186.5482	0.0645
186.7664	-0.0685
186.9847	-0.0248
187.2029	0.0354
187.4211	-0.0381
187.6393	0.2267
187.8575	-0.1123
188.0757	0.6113
188.2939	0.0493
188.512	-0.0842
188.7302	0.059
188.9483	0.1281
189.1665	-0.0744
189.3846	0.3096
189.6027	0.1479
189.8208	0.0395
190.0389	-0.051
190.257	0.2524
190.475	0.3989
190.6931	0.0641
190.9111	0.3653
191.1292	0.0962
191.3472	0.3185
191.5652	0.2414
191.7832	0.212
192.0012	0.3025
192.2192	0.2471
192.4371	0.3508
192.6551	0.4548
192.873	0.4844
193.091	0.5075
193.3089	0.5243
193.5268	0.6279
193.7447	0.686
193.9626	0.4174
194.1805	0.6896
194.3984	0.6969
194.6162	0.6446
194.8341	0.5787
195.0519	0.567
195.2697	1.0884
195.4875	0.6293
195.7054	0.5928
195.9231	0.6286
196.1409	0.3837
196.3587	0.5593
196.5765	0.5819
196.7942	0.5466
197.012	0.5473
197.2297	0.5216
197.4474	0.5734
197.6651	0.5151
197.8828	0.6161
198.1005	0.5707
198.3182	0.5395
198.5358	0.5854
198.7535	0.5649
198.9711	0.5455
199.1888	0.6127
199.4064	0.7171
199.624	0.5278
199.8416	0.5416
200.0592	0.6652
200.2767	0.5934
200.4943	0.6336
200.7119	0.8071
200.9294	0.6357
201.1469	0.4771
201.3645	0.5747
201.582	0.5495
201.7995	0.5698
202.017	0.5553
202.2344	0.6488
202.4519	0.6272
202.6694	0.6296
202.8868	0.6928
203.1042	0.6679
203.3217	0.6022
203.5391	0.5972
203.7565	0.5545
203.9739	0.6661
204.1913	0.5918
204.4086	0.6247
204.626	0.6868
204.8433	0.6946
205.0607	0.6088
205.278	0.6126
205.4953	0.5894
205.7126	0.7088
205.9299	0.7473
206.1472	0.7141
206.3644	0.6432
206.5817	0.7147
206.7989	0.6901
207.0162	0.645
207.2334	0.6278
207.4506	0.6075
207.6678	0.6395
207.885	0.5699
208.1022	0.655
208.3194	0.6835
208.5365	0.6389
208.7537	0.5965
208.9708	0.5886
209.1879	0.6874
209.405	0.6792
209.6222	0.6746
209.8392	0.5962
210.0563	0.585
210.2734	0.6387
210.4905	0.6631
210.7075	0.5852
210.9245	0.5744
211.1416	0.6706
211.3586	0.6219
211.5756	0.5828
211.7926	0.6456
212.0096	0.6143
212.2265	0.5659
212.4435	0.5859
212.6604	0.5793
212.8774	0.5799
213.0943	0.5958
213.3112	0.5231
213.5281	0.5102
213.745	0.5107
213.9619	0.4822
214.1788	0.5085
214.3956	0.4331
214.6125	0.4579
214.8293	0.4401
215.0461	0.4753
215.2629	0.4638
215.4798	0.4518
215.6965	0.4336
215.9133	0.441
216.1301	0.4243
216.3469	0.4147
216.5636	0.4038
216.7803	0.3702
216.9971	0.4177
217.2138	0.3807
217.4305	0.4136
217.6472	0.3435
217.8639	0.3724
218.0805	0.3322
218.2972	0.3268
218.5138	0.3134
218.7305	0.3313
218.9471	0.3005
219.1637	0.2753
219.3803	0.2679
219.5969	0.2793
219.8135	0.263
220.0301	0.2507
220.2466	0.2675
220.4632	0.2739
220.6797	0.2335
220.8962	0.2476
221.1127	0.2604
221.3292	0.2838
221.5457	0.2376
221.7622	0.216
221.9787	0.2493
222.1951	0.2332
222.4116	0.2659
222.628	0.2637
222.8444	0.2507
223.0608	0.249
223.2772	0.2387
223.4936	0.2667
223.71	0.2576
223.9264	0.2655
224.1427	0.2467
224.3591	0.2515
224.5754	0.2598
224.7917	0.272
225.008	0.2668
225.2243	0.2691
225.4406	0.2801
225.6569	0.2797
225.8732	0.2373
226.0894	0.2868
226.3057	0.2649
226.5219	0.2763
226.7381	0.2736
226.9543	0.2719
227.1705	0.2873
227.3867	0.2778
227.6029	0.2816
227.8191	0.2762
228.0352	0.2843
228.2513	0.33
228.4675	0.3117
228.6836	0.298
228.8997	0.2852
229.1158	0.3052
229.3319	0.3138
229.548	0.3017
229.764	0.3125
229.9801	0.3129
230.1961	0.3335
230.4121	0.3452
230.6282	0.3351
230.8442	0.3118
231.0602	0.3441
231.2761	0.3406
231.4921	0.343
231.7081	0.3261
231.924	0.3306
232.14	0.3579
232.3559	0.3152
232.5718	0.3586
232.7877	0.3588
233.0036	0.3367
233.2195	0.3474
233.4353	0.3364
233.6512	0.366
233.867	0.3684
234.0829	0.3549
234.2987	0.3576
234.5145	0.3697
234.7303	0.377
234.9461	0.3926
235.1619	0.38
235.3776	0.3698
235.5934	0.3839
235.8091	0.3606
236.0249	0.378
236.2406	0.3804
236.4563	0.382
236.672	0.389
236.8877	0.421
237.1034	0.3854
237.319	0.3783
237.5347	0.4112
237.7503	0.3995
237.966	0.4097
238.1816	0.4005
238.3972	0.3939
238.6128	0.3836
238.8284	0.3912
239.0439	0.4197
239.2595	0.4041
239.475	0.4128
239.6906	0.4151
239.9061	0.3995
240.1216	0.4063
240.3371	0.4099
240.5526	0.3931
240.7681	0.4133
240.9836	0.4044
241.199	0.4027
241.4145	0.3942
241.6299	0.3726
241.8453	0.3887
242.0607	0.3707
242.2761	0.364
242.4915	0.3707
242.7069	0.3663
242.9223	0.354
243.1376	0.3436
243.353	0.3478
243.5683	0.3438
243.7836	0.3334
243.9989	0.3301
244.2142	0.3147
244.4295	0.3093
244.6448	0.3161
244.86	0.2828
245.0753	0.2906
245.2905	0.2894
245.5057	0.2625
245.721	0.2693
245.9362	0.2713
246.1514	0.2695
246.3665	0.2468
246.5817	0.242
246.7969	0.2466
247.012	0.2415
247.2271	0.2402
247.4423	0.2405
247.6574	0.2379
247.8725	0.2391
248.0876	0.2227
248.3026	0.2268
248.5177	0.2164
248.7328	0.2009
248.9478	0.2007
249.1628	0.2096
249.3779	0.2076
249.5929	0.2016
249.8079	0.2121
250.0228	0.2042
250.2378	0.2071
250.4528	0.203
250.6677	0.183
250.8827	0.189
251.0976	0.1873
251.3125	0.1927
251.5274	0.1753
251.7423	0.1911
251.9572	0.1923
252.172	0.1819
252.3869	0.1827
252.6017	0.1847
252.8166	0.1696
253.0314	0.1657
253.2462	0.1701
253.461	0.187
253.6758	0.1675
253.8906	0.1879
254.1053	0.1622
254.3201	0.1682
254.5348	0.1844
254.7496	0.1777
254.9643	0.171
255.179	0.1604
255.3937	0.1606
255.6083	0.1747
255.823	0.1762
256.0377	0.1709
256.2523	0.1765
256.467	0.1601
256.6816	0.1728
256.8962	0.166
257.1108	0.1594
257.3254	0.1601
257.54	0.1594
257.7545	0.1814
257.9691	0.1691
258.1836	0.1584
258.3981	0.1753
258.6127	0.1715
258.8272	0.1597
259.0417	0.1649
259.2561	0.1548
259.4706	0.1576
259.6851	0.1715
259.8995	0.1616
260.114	0.1655
260.3284	0.1582
260.5428	0.1563
260.7572	0.1627
260.9716	0.1719
261.186	0.162
261.4003	0.1575
261.6147	0.1655
261.829	0.1728
262.0433	0.1637
262.2577	0.1611
262.472	0.1595
262.6863	0.1511
262.9005	0.1619
263.1148	0.1736
263.3291	0.155
263.5433	0.1593
263.7576	0.1683
263.9718	0.1679
264.186	0.1544
264.4002	0.1588
264.6144	0.1636
264.8286	0.1614
265.0427	0.1671
265.2569	0.1632
265.471	0.1628
265.6851	0.1508
265.8993	0.153
266.1134	0.1541
266.3275	0.1596
266.5415	0.1467
266.7556	0.1721
266.9697	0.1535
267.1837	0.1626
267.3978	0.1579
267.6118	0.1702
267.8258	0.1643
268.0398	0.1607
268.2538	0.1678
268.4677	0.1592
268.6817	0.154
268.8957	0.1616
269.1096	0.1573
269.3235	0.1632
269.5374	0.1587
269.7514	0.1523
269.9652	0.1474
270.1791	0.1507
270.393	0.1386
270.6068	0.1517
270.8207	0.1511
271.0345	0.1442
271.2483	0.1481
271.4622	0.1429
271.676	0.142
271.8897	0.1373
272.1035	0.1398
272.3173	0.1429
272.531	0.1495
272.7448	0.1436
272.9585	0.1335
273.1722	0.1396
273.3859	0.1467
273.5996	0.1446
273.8133	0.1482
274.0269	0.1333
274.2406	0.1418
274.4542	0.1454
274.6679	0.1288
274.8815	0.1474
275.0951	0.1482
275.3087	0.1406
275.5223	0.1416
275.7358	0.1358
275.9494	0.1527
276.1629	0.1297
276.3765	0.1385
276.59	0.1424
276.8035	0.1423
277.017	0.1393
277.2305	0.1361
277.444	0.1515
277.6574	0.1498
277.8709	0.1546
278.0843	0.1391
278.2978	0.1523
278.5112	0.1402
278.7246	0.1426
278.938	0.1497
279.1513	0.1489
279.3647	0.1583
279.5781	0.1439
279.7914	0.1408
280.0047	0.1557
280.2181	0.1558
280.4314	0.1515
280.6447	0.149
280.8579	0.1411
281.0712	0.1525
281.2845	0.1551
281.4977	0.151
281.711	0.1475
281.9242	0.1538
282.1374	0.1552
282.3506	0.1447
282.5638	0.1539
282.7769	0.1448
282.9901	0.1621
283.2033	0.1615
283.4164	0.1551
283.6295	0.1419
283.8426	0.1528
284.0557	0.1667
284.2688	0.1595
284.4819	0.1539
284.695	0.1547
284.908	0.1597
285.1211	0.1447
285.3341	0.1517
285.5471	0.1637
285.7601	0.1589
285.9731	0.1523
286.1861	0.155
286.3991	0.1684
286.612	0.1645
286.825	0.16
287.0379	0.1642
287.2508	0.156
287.4637	0.1647
287.6766	0.1518
287.8895	0.1717
288.1024	0.1658
288.3152	0.1758
288.5281	0.1502
288.7409	0.1646
288.9538	0.1634
289.1666	0.1643
289.3794	0.1596
289.5922	0.1606
289.8049	0.1749
290.0177	0.1628
290.2304	0.1718
290.4432	0.1662
290.6559	0.175
290.8686	0.1753
291.0813	0.1657
291.294	0.1545
291.5067	0.1735
291.7194	0.1641
291.932	0.1851
292.1447	0.1522
292.3573	0.166
292.5699	0.1677
292.7825	0.1742
292.9951	0.1641
293.2077	0.168
293.4203	0.1671
293.6328	0.1538
293.8454	0.1768
294.0579	0.162
294.2704	0.1624
294.4829	0.1601
294.6954	0.1663
294.9079	0.1727
295.1204	0.1659
295.3328	0.1688
295.5453	0.1649
295.7577	0.1716
295.9701	0.1486
296.1825	0.1731
296.3949	0.1515
296.6073	0.1725
296.8197	0.1589
297.0321	0.1648
297.2444	0.1574
297.4567	0.1686
297.6691	0.1742
297.8814	0.1582
298.0937	0.1624
298.306	0.17
298.5182	0.172
298.7305	0.1765
298.9428	0.1645
299.155	0.1647
299.3672	0.1676
299.5794	0.1583
299.7916	0.1644
300.0038	0.1624
300.216	0.1701
300.4282	0.1645
300.6403	0.1532
300.8525	0.1625
301.0646	0.1593
301.2767	0.1633
301.4888	0.1628
301.7009	0.1767
301.913	0.1654
302.125	0.1681
302.3371	0.1712
302.5491	0.1674
302.7612	0.1747
302.9732	0.1779
303.1852	0.164
303.3972	0.1604
303.6092	0.155
303.8211	0.1556
304.0331	0.1645
304.245	0.1685
304.457	0.1603
304.6689	0.1547
304.8808	0.1646
305.0927	0.1479
305.3046	0.1516
305.5164	0.1588
305.7283	0.151
305.9401	0.1563
306.152	0.1562
306.3638	0.1544
306.5756	0.1463
306.7874	0.1528
306.9992	0.1557
307.2109	0.1448
307.4227	0.1262
307.6344	0.1436
307.8462	0.1389
308.0579	0.1405
308.2696	0.134
308.4813	0.1284
308.693	0.1325
308.9046	0.1411
309.1163	0.1318
309.328	0.1211
309.5396	0.1202
309.7512	0.1176
309.9628	0.1061
310.1744	0.1228
310.386	0.1138
310.5976	0.127
310.8091	0.1214
311.0207	0.1195
311.2322	0.1293
311.4437	0.116
311.6552	0.1072
311.8667	0.1255
312.0782	0.1001
312.2897	0.0962
312.5012	0.108
312.7126	0.1037
312.924	0.1
313.1355	0.1116
313.3469	0.1146
313.5583	0.1178
313.7696	0.1043
313.981	0.0996
314.1924	0.1029
314.4037	0.1021
314.6151	0.11
314.8264	0.1043
315.0377	0.0972
315.249	0.1122
315.4603	0.1105
315.6716	0.1109
315.8828	0.0934
316.0941	0.0965
316.3053	0.0929
316.5165	0.0832
316.7277	0.0873
316.9389	0.1041
317.1501	0.1014
317.3613	0.1013
317.5724	0.0938
317.7836	0.1018
317.9947	0.0991
318.2058	0.1016
318.417	0.0863
318.6281	0.0867
318.8391	0.0995
319.0502	0.0989
319.2613	0.0914
319.4723	0.093
319.6834	0.1066
319.8944	0.0935
320.1054	0.098
320.3164	0.0911
320.5274	0.1027
320.7383	0.0928
320.9493	0.0898
321.1602	0.1088
321.3712	0.0882
321.5821	0.102
321.793	0.0902
322.0039	0.0948
322.2148	0.0958
322.4257	0.0984
322.6365	0.1095
322.8474	0.0992
323.0582	0.1025
323.269	0.0951
323.4798	0.105
323.6906	0.0975
323.9014	0.1089
324.1122	0.0987
324.3229	0.0918
324.5337	0.0943
324.7444	0.0868
324.9551	0.0983
325.1658	0.1052
325.3765	0.1057
325.5872	0.1087
325.7979	0.1014
326.0085	0.0967
326.2192	0.1038
326.4298	0.105
326.6404	0.0968
326.851	0.0923
327.0616	0.1008
327.2722	0.1008
327.4828	0.1051
327.6933	0.1038
327.9039	0.1077
328.1144	0.1071
328.3249	0.1104
328.5354	0.0954
328.7459	0.1016
328.9564	0.0932
329.1669	0.0949
329.3773	0.1046
329.5878	0.1095
329.7982	0.1067
330.0086	0.0962
330.219	0.1121
330.4294	0.0994
330.6398	0.1001
330.8502	0.1068
331.0605	0.1062
331.2708	0.0977
331.4812	0.1152
331.6915	0.1128
331.9018	0.1072
332.1121	0.1061
332.3224	0.1005
332.5326	0.105
332.7429	0.1023
332.9531	0.1186
333.1633	0.1002
333.3735	0.1075
333.5837	0.1081
333.7939	0.1065
334.0041	0.1253
334.2143	0.1015
334.4244	0.1166
334.6346	0.0964
334.8447	0.1152
335.0548	0.0994
335.2649	0.1115
335.475	0.1181
335.685	0.1066
335.8951	0.0963
336.1051	0.1121
336.3152	0.1203
336.5252	0.1035
336.7352	0.1163
336.9452	0.111
337.1552	0.1127
337.3652	0.1037
337.5751	0.1088
337.7851	0.108
337.995	0.1003
338.2049	0.1044
338.4148	0.1097
338.6247	0.1129
338.8346	0.1055
339.0445	0.1156
339.2543	0.1127
339.4642	0.1111
339.674	0.0994
339.8838	0.1136
340.0936	0.1035
340.3034	0.1317
340.5132	0.1144
340.7229	0.1174
340.9327	0.1225
341.1424	0.1032
341.3522	0.1264
341.5619	0.1136
341.7716	0.1163
341.9813	0.1056
342.1909	0.1144
342.4006	0.1275
342.6102	0.1371
342.8199	0.1247
343.0295	0.1156
343.2391	0.1265
343.4487	0.1238
343.6583	0.1342
343.8679	0.1211
344.0774	0.121
344.287	0.1274
344.4965	0.1163
344.706	0.1207
344.9155	0.1241
345.125	0.1166
345.3345	0.1296
345.544	0.1307
345.7534	0.1271
345.9629	0.1268
346.1723	0.1206
346.3817	0.1191
346.5911	0.1356
346.8005	0.1301
347.0099	0.1232
347.2193	0.1404
347.4286	0.1285
347.638	0.1432
347.8473	0.1371
348.0566	0.1279
348.2659	0.1372
348.4752	0.1271
348.6845	0.1237
348.8937	0.1278
349.103	0.1313
349.3122	0.1313
349.5214	0.129
349.7306	0.1313
349.9398	0.1264
350.149	0.1397
350.3582	0.1308
350.5674	0.144
350.7765	0.1372
350.9856	0.1451
351.1948	0.1483
351.4039	0.1319
351.613	0.135
351.822	0.1532
352.0311	0.1451
352.2402	0.1472
352.4492	0.1452
352.6582	0.1416
352.8672	0.1426
353.0762	0.1672
353.2852	0.1455
353.4942	0.1326
353.7032	0.1483
353.9121	0.1576
354.1211	0.1588
354.33	0.1416
354.5389	0.1529
354.7478	0.1523
354.9567	0.1533
355.1655	0.1397
355.3744	0.1692
355.5833	0.1534
355.7921	0.1752
356.0009	0.1623
356.2097	0.16
356.4185	0.161
356.6273	0.1683
356.8361	0.1719
357.0448	0.1684
357.2536	0.1397
357.4623	0.1567
357.671	0.163
357.8797	0.1637
358.0884	0.167
358.2971	0.1663
358.5057	0.1496
358.7144	0.1702
358.923	0.1789
359.1316	0.1629
359.3402	0.1643
359.5488	0.1788
359.7574	0.1646
359.966	0.1676
360.1746	0.1806
360.3831	0.1784
360.5916	0.1674
360.8002	0.1602
361.0087	0.1819
361.2172	0.1842
361.4256	0.1643
361.6341	0.1998
361.8426	0.1755
362.051	0.184
362.2594	0.1768
362.4678	0.1689
362.6762	0.1957
362.8846	0.1923
363.093	0.1741
363.3014	0.1867
363.5097	0.171
363.718	0.1843
363.9264	0.1923
364.1347	0.1941
364.343	0.1899
364.5513	0.1891
364.7595	0.2094
364.9678	0.1925
365.176	0.1998
365.3842	0.194
365.5925	0.1891
365.8007	0.192
366.0089	0.1909
366.217	0.1913
366.4252	0.2196
366.6333	0.2314
366.8415	0.1959
367.0496	0.2066
367.2577	0.2069
367.4658	0.217
367.6739	0.2025
367.882	0.2149
368.09	0.2019
368.2981	0.2026
368.5061	0.21
368.7141	0.219
368.9221	0.2194
369.1301	0.1951
369.3381	0.2099
369.5461	0.2104
369.754	0.2187
369.962	0.2239
370.1699	0.2168
370.3778	0.2257
370.5857	0.2065
370.7936	0.2205
371.0015	0.2229
371.2093	0.2191
371.4172	0.2172
371.625	0.2145
371.8328	0.2131
372.0406	0.2256
372.2484	0.2194
372.4562	0.2264
372.664	0.2289
372.8717	0.2397
373.0795	0.2053
373.2872	0.2371
373.4949	0.2178
373.7026	0.2312
373.9103	0.2172
374.118	0.2228
374.3256	0.2326
374.5333	0.2359
374.7409	0.2265
374.9485	0.2377
375.1561	0.2349
375.3637	0.2461
375.5713	0.2437
375.7789	0.2397
375.9864	0.2463
376.194	0.2298
376.4015	0.2376
376.609	0.2447
376.8165	0.2189
377.024	0.2427
377.2315	0.2294
377.4389	0.253
377.6464	0.2538
377.8538	0.2449
378.0612	0.2402
378.2686	0.2438
378.476	0.2611
378.6834	0.2466
378.8908	0.2428
379.0981	0.2483
379.3055	0.2564
379.5128	0.2283
379.7201	0.2613
379.9274	0.245
380.1347	0.2533
380.342	0.2792
380.5492	0.251
380.7565	0.2497
380.9637	0.2591
381.1709	0.244
381.3781	0.2666
381.5853	0.253
381.7925	0.264
381.9997	0.2699
382.2068	0.2584
382.4139	0.241
382.6211	0.2407
382.8282	0.2507
383.0353	0.2462
383.2424	0.2547
383.4494	0.2613
383.6565	0.2468
383.8635	0.2582
384.0706	0.2628
384.2776	0.2813
384.4846	0.2504
384.6916	0.2706
384.8986	0.2692
385.1055	0.2626
385.3125	0.2651
385.5194	0.2304
385.7263	0.2589
385.9333	0.262
386.1402	0.2623
386.347	0.2544
386.5539	0.2508
386.7608	0.2681
386.9676	0.2341
387.1744	0.2601
387.3813	0.2556
387.5881	0.2604
387.7948	0.2487
388.0016	0.2626
388.2084	0.2523
388.4151	0.259
388.6219	0.2535
388.8286	0.2358
389.0353	0.2625
389.242	0.2703
389.4487	0.243
389.6553	0.247
389.862	0.2566
390.0686	0.2408
390.2753	0.2569
390.4819	0.2358
390.6885	0.2471
390.8951	0.2576
391.1016	0.2547
391.3082	0.2396
391.5147	0.2461
391.7213	0.2412
391.9278	0.2339
392.1343	0.2331
392.3408	0.2428
392.5473	0.2429
392.7537	0.24
392.9602	0.2361
393.1666	0.2336
393.373	0.2306
393.5794	0.2368
393.7858	0.2332
393.9922	0.2326
394.1986	0.2397
394.4049	0.2352
394.6113	0.2386
394.8176	0.2168
395.0239	0.2143
395.2302	0.2249
395.4365	0.237
395.6428	0.2277
395.8491	0.2169
396.0553	0.2285
396.2615	0.2376
396.4678	0.2201
396.674	0.2212
396.8802	0.2398
397.0863	0.2466
397.2925	0.2275
397.4987	0.2123
397.7048	0.222
397.9109	0.2156
398.117	0.2122
398.3231	0.2088
398.5292	0.2368
398.7353	0.2157
398.9413	0.2109
399.1474	0.2194
399.3534	0.2265
399.5594	0.2127
399.7654	0.223
399.9714	0.2214
400.1774	0.22
400.3833	0.1973
400.5893	0.2206
400.7952	0.21
401.0011	0.203
401.207	0.2322
401.4129	0.2174
401.6188	0.2315
401.8247	0.2275
402.0305	0.2238
402.2364	0.2085
402.4422	0.2351
402.648	0.225
402.8538	0.2236
403.0596	0.2129
403.2654	0.224
403.4711	0.2245
403.6768	0.223
403.8826	0.2155
404.0883	0.2199
404.294	0.2237
404.4997	0.2276
404.7054	0.2153
404.911	0.2041
405.1167	0.2024
405.3223	0.2228
405.5279	0.2308
405.7335	0.2195
405.9391	0.2198
406.1447	0.2077
406.3502	0.2431
406.5558	0.2141
406.7613	0.2232
406.9668	0.2113
407.1724	0.2076
407.3778	0.2018
407.5833	0.2264
407.7888	0.2012
407.9942	0.2287
408.1997	0.2197
408.4051	0.2097
408.6105	0.2072
408.8159	0.21
409.0213	0.2043
409.2267	0.2364
409.432	0.2097
409.6374	0.2246
409.8427	0.2177
410.048	0.21
410.2533	0.2192
410.4586	0.2108
410.6639	0.2153
410.8691	0.209
411.0744	0.217
411.2796	0.2029
411.4848	0.2082
411.69	0.1953
411.8952	0.2391
412.1004	0.188
412.3056	0.2169
412.5107	0.2023
412.7158	0.226
412.921	0.2205
413.1261	0.1951
413.3312	0.2057
413.5362	0.2007
413.7413	0.2114
413.9464	0.2133
414.1514	0.2119
414.3564	0.2323
414.5614	0.1882
414.7664	0.2227
414.9714	0.217
415.1764	0.2061
415.3813	0.2216
415.5863	0.2183
415.7912	0.2032
415.9961	0.2088
416.201	0.2049
416.4059	0.2154
416.6108	0.2055
416.8156	0.2014
417.0205	0.2074
417.2253	0.1968
417.4301	0.2131
417.6349	0.1891
417.8397	0.2056
418.0445	0.2037
418.2492	0.2022
418.454	0.2183
418.6587	0.1946
418.8634	0.2195
419.0681	0.1963
419.2728	0.1732
419.4775	0.1934
419.6822	0.1878
419.8868	0.1859
420.0915	0.1901
420.2961	0.1904
420.5007	0.1997
420.7053	0.1975
420.9099	0.2075
421.1144	0.1913
421.319	0.1994
421.5235	0.1935
421.728	0.1969
421.9325	0.1947
422.137	0.2
422.3415	0.1982
422.546	0.1962
422.7504	0.1855
422.9549	0.1921
423.1593	0.1891
423.3637	0.1962
423.5681	0.196
423.7725	0.1881
423.9769	0.1757
424.1812	0.1766
424.3856	0.1902
424.5899	0.1794
424.7942	0.1785
424.9985	0.1684
425.2028	0.179
425.4071	0.203
425.6113	0.1596
425.8156	0.1905
426.0198	0.1743
426.224	0.1677
426.4282	0.1647
426.6324	0.1732
426.8366	0.159
427.0407	0.1636
427.2449	0.1707
427.449	0.1795
427.6531	0.1491
427.8572	0.1464
428.0613	0.1622
428.2654	0.1917
428.4694	0.1496
428.6735	0.1759
428.8775	0.1871
429.0815	0.168
429.2855	0.158
429.4895	0.1595
429.6935	0.1664
429.8975	0.1557
430.1014	0.1668
430.3053	0.1442
430.5093	0.163
430.7132	0.1428
430.9171	0.1406
431.1209	0.1477
431.3248	0.139
431.5286	0.1312
431.7325	0.1368
431.9363	0.1309
432.1401	0.1311
432.3439	0.1309
432.5477	0.1159
432.7514	0.1321
432.9552	0.1376
433.1589	0.1294
433.3627	0.1263
433.5664	0.1208
433.7701	0.1195
433.9737	0.1131
434.1774	0.1103
434.3811	0.108
434.5847	0.1425
434.7883	0.1155
434.9919	0.1168
435.1955	0.1227
435.3991	0.1089
435.6027	0.0997
435.8062	0.1045
436.0098	0.1027
436.2133	0.1164
436.4168	0.1025
436.6203	0.097
436.8238	0.1129
437.0272	0.0925
437.2307	0.1098
437.4341	0.1118
437.6375	0.1087
437.841	0.0956
438.0443	0.105
438.2477	0.1066
438.4511	0.0808
438.6545	0.0989
438.8578	0.0996
439.0611	0.098
439.2644	0.0925
439.4677	0.0807
439.671	0.0636
439.8743	0.0976
440.0775	0.0839
440.2808	0.0662
440.484	0.0689
440.6872	0.0676
440.8904	0.0667
441.0936	0.0833
441.2967	0.0707
441.4999	0.0757
441.703	0.0636
441.9062	0.0644
442.1093	0.0706
442.3124	0.0668
442.5155	0.0654
442.7185	0.0651
442.9216	0.0434
443.1246	0.0767
443.3276	0.059
443.5307	0.0599
443.7337	0.0682
443.9366	0.0577
444.1396	0.0541
444.3426	0.0558
444.5455	0.0473
444.7484	0.047
444.9513	0.0455
445.1542	0.0558
445.3571	0.0505
445.56	0.0573
445.7628	0.0463
445.9657	0.042
446.1685	0.053
446.3713	0.0526
446.5741	0.0491
446.7769	0.0344
446.9797	0.0386
447.1824	0.0501
447.3852	0.0278
447.5879	0.0535
447.7906	0.0331
447.9933	0.0426
448.196	0.0229
448.3986	0.034
448.6013	0.0343
448.8039	0.0236
449.0066	0.0334
449.2092	0.0395
449.4118	0.0349
449.6143	0.0368
449.8169	0.0392
450.0195	0.0258
450.222	0.0081
450.4245	0.0271
450.627	0.0293
450.8295	0.02
451.032	0.021
451.2345	0.0249
451.4369	0.0389
451.6394	0.0324
451.8418	0.0161
452.0442	0.0222
452.2466	0.0336
452.449	0.0071
452.6513	0.0187
452.8537	0.0078
453.056	0.0058
453.2583	0.0205
453.4607	0.0146
453.663	0.0116
453.8652	0.0201
454.0675	0.0129
454.2697	0.0315
454.472	-0.0015
454.6742	0.0266
454.8764	0.0084
455.0786	0.023
455.2808	0.0143
455.4829	0.0084
455.6851	0.0163
455.8872	0.032
456.0893	0.0214
456.2915	-0.0087
456.4935	0.0307
456.6956	0.0062
456.8977	0.0128
457.0997	-0.0001
457.3018	0.0007
457.5038	0.0243
457.7058	0.0108
457.9078	0.0027
458.1098	0.0149
458.3117	0.0239
458.5137	0.0173
458.7156	0.0115
458.9175	-0.0028
459.1194	0.0074
459.3213	0.0058
459.5232	0.0155
459.725	0.0023
459.9269	-0.0034
460.1287	-0.0095
460.3305	0.0115
460.5323	-0.0002
460.7341	0.0045
460.9359	0.009
461.1376	0.0193
461.3394	-0.0011
461.5411	0.0074
461.7428	-0.0076
461.9445	0.0099
462.1462	0.0212
462.3479	0.0008
462.5495	0.0027
462.7512	0.0225
462.9528	0.002
463.1544	-0.0128
463.356	0.0087
463.5576	0.0075
463.7592	-0.0021
463.9607	0.0088
464.1623	0.0047
464.3638	0.0195
464.5653	-0.0065
464.7668	0.0095
464.9683	0.014
465.1697	0.0128
465.3712	0.0042
465.5726	0.0022
465.7741	-0.0024
465.9755	-0.0001
466.1769	-0.0043
466.3782	-0.0042
466.5796	-0.0041
466.7809	0.0044
466.9823	-0.0045
467.1836	0.0106
467.3849	0.0012
467.5862	-0.0082
467.7875	-0.0083
467.9887	0.0063
468.19	0.0038
468.3912	-0.0141
468.5924	-0.0216
468.7936	0.0011
468.9948	-0.0011
469.196	0.0153
469.3972	-0.0177
469.5983	0.0006
469.7994	-0.0172
470.0006	0.0064
470.2017	-0.0181
470.4027	0.0001
470.6038	-0.0102
470.8049	-0.0318
471.0059	-0.0011
471.2069	-0.0169
471.408	0.0053
471.6089	0.0012
471.8099	0.0006
472.0109	-0.0042
472.2119	0.0056
472.4128	-0.0127
472.6137	0.0105
472.8146	-0.0112
473.0155	-0.0116
473.2164	0.0002
473.4173	-0.0103
473.6181	0.0128
473.819	0.0071
474.0198	-0.0089
474.2206	-0.0095
474.4214	-0.0074
474.6222	-0.0032
474.8229	-0.0086
475.0237	-0.0231
475.2244	-0.0161
475.4251	-0.008
475.6258	0.0016
475.8265	-0.0029
476.0272	0.0055
476.2278	-0.0054
476.4285	-0.0039
476.6291	0.0015
476.8297	-0.0121
477.0303	-0.0088
477.2309	-0.006
477.4315	-0.009
477.632	-0.0063
477.8326	-0.0046
478.0331	0.012
478.2336	0.007
478.4341	-0.0053
478.6346	-0.0051
478.8351	-0.0047
479.0355	0.0073
479.236	-0.0041
479.4364	0.0008
479.6368	0.0066
479.8372	0.0076
480.0376	-0.0055
480.2379	-0.017
480.4383	-0.0053
480.6386	-0.0001
480.8389	0.0005
481.0392	-0.0191
481.2395	-0.0157
481.4398	0.0079
481.6401	-0.0091
481.8403	-0.0039
482.0405	-0.013
482.2408	-0.007
482.441	0.0045
482.6411	-0.0053
482.8413	-0.0017
483.0415	-0.0113
483.2416	-0.014
483.4417	-0.0037
483.6419	-0.0072
483.8419	-0.0028
484.042	0.0026
484.2421	0.0005
484.4422	0.0064
484.6422	-0.0089
484.8422	-0.0046
485.0422	-0.0014
485.2422	-0.0053
485.4422	-0.0077
485.6422	-0.0111
485.8421	-0.0071
486.042	-0.0001
486.242	-0.0062
486.4419	-0.015
486.6417	-0.0064
486.8416	0.0026
487.0415	-0.0093
487.2413	-0.0039
487.4411	-0.0064
487.641	-0.0081
487.8408	0.0062
488.0405	-0.0019
488.2403	-0.0094
488.4401	0.0022
488.6398	-0.008
488.8395	-0.0089
489.0392	-0.0041
489.2389	-0.0055
489.4386	-0.0003
489.6383	-0.0078
489.8379	-0.0014
490.0376	-0.0085
490.2372	-0.0052
490.4368	-0.0133
490.6364	-0.01
490.836	-0.0222
491.0355	-0.0026
491.2351	-0.0009
491.4346	-0.0069
491.6341	-0.0138
491.8336	-0.0014
492.0331	-0.0177
492.2326	-0.0145
492.432	-0.0054
492.6315	-0.0122
492.8309	-0.012
493.0303	-0.0083
493.2297	-0.0106
493.4291	-0.0078
493.6284	-0.0014
493.8278	0.0075
494.0271	0.0054
494.2264	0.0075
494.4257	-0.0148
494.625	0.0009
494.8243	-0.0144
495.0236	-0.0053
495.2228	-0.0098
495.422	-0.0026
495.6213	-0.0109
495.8205	-0.0024
496.0196	0.0022
496.2188	0.007
496.418	-0.0078
496.6171	-0.0145
496.8162	-0.0201
497.0153	0
497.2144	-0.016
497.4135	0.0046
497.6126	-0.0142
497.8116	-0.0146
498.0107	-0.0048
498.2097	-0.0172
498.4087	-0.0097
498.6077	0.0087
498.8067	-0.0119
499.0056	-0.0059
499.2046	-0.0046
499.4035	-0.0173
499.6024	-0.0095
499.8013	-0.0062
500.0002	-0.0117
500.199	-0.0004
500.3979	-0.005
500.5967	-0.0234
500.7956	0.0016
500.9944	-0.0133
501.1932	-0.0139
501.3919	-0.0061
501.5907	-0.0082
501.7895	-0.0091
501.9882	-0.0192
502.1869	-0.0148
502.3856	-0.0122
502.5843	0.0043
502.783	-0.0108
502.9816	-0.0015
503.1803	-0.0113
503.3789	-0.009
503.5775	0.0028
503.7761	-0.0076
503.9747	-0.0031
504.1732	-0.0038
504.3718	-0.0038
504.5703	-0.0146
504.7689	-0.0113
504.9674	-0.0063
505.1658	-0.0096
505.3643	-0.006
505.5628	-0.0102
505.7612	-0.0107
505.9597	0.0019
506.1581	-0.0128
506.3565	0.0113
506.5549	-0.0094
506.7532	-0.0122
506.9516	-0.0045
507.1499	-0.0054
507.3482	-0.0137
507.5465	-0.0107
507.7448	0.0004
507.9431	-0.0079
508.1414	-0.0036
508.3396	-0.0105
508.5379	-0.0069
508.7361	-0.0079
508.9343	-0.0036
509.1325	0.0034
509.3306	0.0003
509.5288	-0.0122
509.7269	-0.0098
509.9251	-0.0092
510.1232	-0.014
510.3213	-0.0046
510.5193	-0.0044
510.7174	-0.0218
510.9154	-0.008
511.1135	-0.0133
511.3115	-0.0083
511.5095	0.0001
511.7075	0.002
511.9055	-0.0034
512.1034	-0.0091
512.3014	-0.0023
512.4993	-0.0019
512.6972	-0.0111
512.8951	-0.0174
513.093	-0.0054
513.2908	-0.0052
513.4887	-0.0035
513.6865	-0.0006
513.8844	-0.0097
514.0822	-0.011
514.2799	-0.0124
514.4777	-0.0131
514.6755	-0.0059
514.8732	-0.0108
515.0709	-0.002
515.2687	-0.0032
515.4664	-0.0079
515.664	-0.0039
515.8617	-0.0101
516.0594	-0.0157
516.257	0.0064
516.4546	-0.0216
516.6522	-0.003
516.8498	-0.0022
517.0474	0.0041
517.2449	-0.0031
517.4425	-0.0053
517.64	-0.0115
517.8375	0.0025
518.035	-0.0063
518.2325	-0.0119
518.43	-0.0073
518.6274	-0.0054
518.8249	-0.0218
519.0223	-0.0025
519.2197	-0.0042
519.4171	-0.0173
519.6145	-0.0077
519.8118	0.0061
520.0092	-0.008
520.2065	-0.0039
520.4038	-0.0142
520.6011	-0.0046
520.7984	-0.0115
520.9956	-0.0093
521.1929	-0.0222
521.3901	-0.0023
521.5874	-0.0027
521.7846	0.0005
521.9818	-0.0022
522.1789	-0.0122
522.3761	-0.0052
522.5732	-0.0129
522.7704	-0.0054
522.9675	-0.0027
523.1646	-0.0127
523.3617	-0.0117
523.5587	-0.0072
523.7558	-0.0059
523.9528	-0.0087
524.1498	-0.0009
524.3468	-0.0039
524.5438	-0.0062
524.7408	0.0082
524.9378	-0.0011
525.1347	-0.0074
525.3316	0.0016
525.5285	-0.013
525.7254	-0.0001
525.9223	-0.0011
526.1192	-0.0029
526.316	-0.005
526.5129	0.0038
526.7097	0.0036
526.9065	-0.0082
527.1033	0.0028
527.3	-0.0077
527.4968	-0.0045
527.6935	0.0039
527.8903	-0.0169
528.087	-0.0037
528.2837	-0.0068
528.4804	-0.0057
528.677	-0.0044
528.8737	0.0021
529.0703	-0.0017
529.2669	-0.0001
529.4635	-0.007
529.6601	-0.0044
529.8567	0.0001
530.0532	-0.01
530.2498	0.0052
530.4463	-0.0001
530.6428	-0.0051
530.8393	0.005
531.0358	0.0061
531.2322	-0.0041
531.4287	0.0003
531.6251	-0.0119
531.8215	-0.0042
532.0179	-0.0003
532.2143	0.0073
532.4107	0.0001
532.607	-0.0112
532.8034	-0.0024
532.9997	-0.0045
533.196	-0.0028
533.3923	-0.012
533.5886	0.0035
533.7848	-0.0003
533.9811	-0.002
534.1773	0.0029
534.3735	0.0001
534.5697	-0.0041
534.7659	0.005
534.9621	-0.0029
535.1582	-0.0081
535.3544	-0.0123
535.5505	-0.0119
535.7466	-0.0035
535.9427	-0.0157
536.1387	-0.0142
536.3348	-0.0069
536.5308	-0.0015
536.7269	-0.0174
536.9229	-0.0025
537.1189	-0.0007
537.3148	-0.0045
537.5108	-0.0074
537.7068	-0.0028
537.9027	-0.0018
538.0986	-0.0024
538.2945	-0.0084
538.4904	-0.0044
538.6863	-0.0045
538.8821	-0.008
539.078	-0.0008
539.2738	0.0097
539.4696	-0.0019
539.6654	-0.0045
539.8611	0.0132
540.0569	0.0035
540.2526	-0.0105
540.4484	0.0091
540.6441	0.0064
540.8398	-0.0053
541.0355	-0.0034
541.2311	-0.0016
541.4268	-0.0114
541.6224	0.0036
541.818	-0.0014
542.0136	-0.0098
542.2092	0.0008
542.4048	0.0031
542.6003	0.0012
542.7959	-0.0102
542.9914	-0.0043
543.1869	-0.0102
543.3824	-0.0025
543.5779	-0.0028
543.7734	-0.0065
543.9688	-0.0019
544.1642	-0.0015
544.3596	-0.0067
544.555	-0.0038
544.7504	-0.003
544.9458	-0.0119
545.1411	-0.0043
545.3365	-0.0056
545.5318	-0.0079
545.7271	0.0022
545.9224	-0.0014
546.1177	-0.001
546.3129	0.0016
546.5081	-0.0124
546.7034	-0.0003
546.8986	-0.0077
547.0938	-0.0033
547.289	-0.011
547.4841	0.0055
547.6793	0.0094
547.8744	-0.0069
548.0695	-0.0033
548.2646	-0.007
548.4597	-0.0011
548.6548	-0.0079
548.8498	0.0019
549.0448	0.0088
549.2399	0.0029
549.4349	0.0051
549.6298	-0.0027
549.8248	0.009
550.0198	-0.0052
550.2147	-0.0095
550.4096	-0.0125
550.6045	-0.0042
550.7994	0.0036
550.9943	0.0041
551.1892	-0.0001
551.384	0.0057
551.5788	-0.0067
551.7737	0.0073
551.9685	0.0008
552.1632	0.0069
552.358	-0.0036
552.5528	0.0038
552.7475	-0.0029
552.9422	-0.0038
553.1369	-0.0016
553.3316	0.0076
553.5263	-0.0105
553.7209	0.006
553.9156	-0.001
554.1102	-0.0035
554.3048	-0.0117
554.4994	0.0017
554.694	-0.0019
554.8885	0.0054
555.0831	-0.0018
555.2776	-0.012
555.4721	-0.0045
555.6666	-0.0016
555.8611	0.0132
556.0555	-0.0032
556.25	0.0008
556.4444	-0.0046
556.6388	-0.0006
556.8332	-0.007
557.0276	-0.0058
557.222	-0.0039
557.4163	-0.0022
557.6107	-0.0078
557.805	0.0008
557.9993	0.0006
558.1936	-0.0056
558.3879	0.0016
558.5821	-0.0046
558.7764	0.0001
558.9706	0.0037
559.1648	0.0018
559.359	0.0021
559.5532	-0.0036
559.7473	-0.0012
559.9415	-0.0067
560.1356	-0.0094
560.3297	-0.0074
560.5238	-0.0095
560.7179	-0.0053
560.9119	-0.0038
561.106	-0.0026
561.3	-0.0089
561.494	-0.0025
561.688	0.0009
561.882	-0.0076
562.076	-0.0099
562.2699	0.0002
562.4639	0.0075
562.6578	0.0057
562.8517	0.001
563.0456	-0.0012
563.2395	0.0012
563.4333	-0.002
563.6272	0.0068
563.821	0.0012
564.0148	-0.0008
564.2086	-0.0079
564.4024	-0.0002
564.5961	-0.0052
564.7899	0.0071
564.9836	-0.0015
565.1773	0.0054
565.371	0.0055
565.5647	0.0113
565.7584	0.0044
565.952	0.0092
566.1456	-0.0012
566.3393	0.0063
566.5329	-0.0026
566.7264	0.0057
566.92	0.0011
567.1136	0.009
567.3071	-0.0032
567.5006	0.0092
567.6941	0.0003
567.8876	0.0043
568.0811	-0.0053
568.2745	0.0054
568.468	0.009
568.6614	0.0015
568.8548	0.0025
569.0482	0.0023
569.2416	0.0054
569.4349	0.0004
569.6283	0.0028
569.8216	0.0032
570.0149	-0.0033
570.2082	0.0046
570.4015	0.0002
570.5947	0.0009
570.788	0.0048
570.9812	0.0107
571.1744	-0.0046
571.3676	-0.0022
571.5608	-0.0021
571.754	0.004
571.9471	-0.0037
572.1402	0.0033
572.3333	0.0015
572.5264	0.0033
572.7195	0
572.9126	-0.0018
573.1057	-0.0009
573.2987	-0.0038
573.4917	0.0056
573.6847	-0.0089
573.8777	0.0036
574.0707	0.0082
574.2636	-0.0033
574.4566	0.0013
574.6495	0.0091
574.8424	-0.0028
575.0353	-0.0046
575.2281	0.0072
575.421	0.0031
575.6138	-0.0006
575.8067	-0.0004
575.9995	-0.0038
576.1923	0.0084
576.385	0.0045
576.5778	0.0029
576.7706	-0.0004
576.9633	0.003
577.156	0.0019
577.3487	-0.0012
577.5414	-0.0051
577.734	0.0066
577.9267	0.0012
578.1193	-0.0081
578.3119	-0.0052
578.5045	0.0028
578.6971	0.0011
578.8897	0.0058
579.0822	-0.0013
579.2747	0.0018
579.4673	-0.0051
579.6598	0.0003
579.8522	-0.0046
580.0447	-0.0031
580.2372	0.0019
580.4296	0.0091
580.622	0.0003
580.8144	-0.0023
581.0068	-0.0061
581.1992	-0.0099
581.3915	-0.0042
581.5839	-0.0018
581.7762	-0.0062
581.9685	0.0037
582.1608	0.0006
582.353	-0.0019
582.5453	-0.0015
582.7375	0.0049
582.9298	0.0031
583.122	0.001
583.3142	-0.0018
583.5063	0.0037
583.6985	0.0078
583.8906	-0.004
584.0827	-0.0032
584.2749	0.0055
584.4669	-0.0015
584.659	0.0025
584.8511	0.001
585.0431	-0.0006
585.2352	-0.0016
585.4272	0.0045
585.6192	0.0054
585.8111	-0.0036
586.0031	-0.0014
586.195	0.0028
586.387	0.0085
586.5789	-0.001
586.7708	-0.0029
586.9627	0.0016
587.1545	-0.0029
587.3464	0.0025
587.5382	0.0105
587.73	0.0004
587.9218	0.0097
588.1136	-0.0018
588.3053	0.0074
588.4971	-0.0063
588.6888	-0.0055
588.8805	0.0004
589.0722	-0.0039
589.2639	0.0003
589.4556	0.0005
589.6472	0.0004
589.8389	-0.005
590.0305	-0.0085
590.2221	0.0084
590.4137	0.0018
590.6052	0.0005
590.7968	0.0043
590.9883	0.0036
591.1798	0.0002
591.3713	0
591.5628	0.0043
591.7543	0.0014
591.9458	0.0011
592.1372	0.0064
592.3286	0.0033
592.52	0.0002
592.7114	0.0006
592.9028	0.0013
593.0941	-0.0045
593.2855	0.0028
593.4768	-0.0068
593.6681	-0.0044
593.8594	-0.0059
594.0506	0.0058
594.2419	0.0088
594.4331	0.007
594.6244	0.0057
594.8156	-0.0073
595.0067	0.005
595.1979	0.0012
595.3891	-0.004
595.5802	0.001
595.7713	0.0003
595.9624	-0.0028
596.1535	0.0025
596.3446	-0.0015
596.5357	0.0022
596.7267	0.0056
596.9177	0.0009
597.1087	-0.0043
597.2997	-0.0094
597.4907	0.0089
597.6817	-0.0091
597.8726	-0.0051
598.0635	0.0009
598.2544	-0.0019
598.4453	-0.0054
598.6362	-0.0024
598.827	-0.0024
599.0179	0.0002
599.2087	0.0065
599.3995	0.0023
599.5903	0.0007
599.7811	-0.0009
599.9718	0.0046
600.1626	-0.0061
600.3533	-0.0063
600.544	0.0044
600.7347	-0.0046
600.9254	-0.0007
601.116	-0.0096
601.3067	-0.0036
601.4973	-0.0049
601.6879	0.0024
601.8785	-0.0048
602.0691	0.0058
602.2596	0.0014
602.4502	0.0083
602.6407	-0.001
602.8312	-0.0015
603.0217	-0.0122
603.2122	-0
603.4027	0.0005
603.5931	-0.0035
603.7835	0.0037
603.9739	0.0036
604.1643	-0.0004
604.3547	-0.0073
604.5451	0.0039
604.7354	-0.0036
604.9257	0.0032
605.116	-0.0042
605.3063	-0.0011
605.4966	0.0059
605.6869	0.0041
605.8771	0.0069
606.0673	0.0097
606.2575	0.0077
606.4477	0.0105
606.6379	0.0061
606.8281	0.0033
607.0182	0.0041
607.2083	0.0096
607.3985	0.0001
607.5885	0.005
607.7786	0.0086
607.9687	0.0009
608.1587	0.0056
608.3488	0.003
608.5388	0.0092
608.7288	-0.0029
608.9187	-0.0052
609.1087	-0.005
609.2986	-0.0076
609.4886	-0.0015
609.6785	-0.0009
609.8684	0.0072
610.0582	-0.0014
610.2481	0.0098
610.4379	0.0011
610.6278	-0.0047
610.8176	-0.0066
611.0074	0.0013
611.1971	0.0056
611.3869	-0.0014
611.5766	-0.0085
611.7664	0.0056
611.9561	0.0062
612.1458	0.0017
612.3354	-0.006
612.5251	0.0014
612.7147	-0.0024
612.9044	0.0078
613.094	-0.0034
613.2836	0.0009
613.4731	-0.0013
613.6627	-0.0024
613.8522	-0.0021
614.0417	0.0081
614.2313	-0.0032
614.4207	-0.0069
614.6102	0.0013
614.7997	-0.004
614.9891	-0.0027
615.1785	-0.0021
615.3679	-0.0069
615.5573	0.007
615.7467	-0.0038
615.9361	-0.0008
616.1254	-0.0002
616.3147	0.0052
616.504	0.0013
616.6933	0.0057
616.8826	0.0096
617.0718	0.0054
617.2611	-0.0007
617.4503	0.0025
617.6395	0.0011
617.8287	0.0055
618.0179	0.0007
618.207	0.0055
618.3961	-0.001
618.5853	-0.0025
618.7744	0
618.9634	-0.0008
619.1525	0.0058
619.3416	0.0027
619.5306	0.0068
619.7196	0.0041
619.9086	-0.0072
620.0976	0.0015
620.2866	0.0039
620.4755	0.004
620.6645	0.0013
620.8534	0.003
621.0423	-0.0003
621.2312	0.0055
621.42	-0.0012
621.6089	0.0046
621.7977	0.0088
621.9865	-0.0065
622.1753	0.0081
622.3641	0.0077
622.5529	0.006
622.7416	0.0063
622.9303	-0.0017
623.1191	0.0005
623.3078	0.0001
623.4964	0
623.6851	0.0018
623.8737	-0.0019
624.0624	0.0074
624.251	-0.0034
624.4396	-0.0015
624.6282	-0.0071
624.8167	0.0004
625.0053	0.0013
625.1938	0.0048
625.3823	0.0014
625.5708	0.0021
625.7593	-0.0156
625.9477	-0.0015
626.1362	-0.0039
626.3246	-0.0077
626.513	-0.0012
626.7014	0.0085
626.8898	0.0028
627.0781	0.0031
627.2665	-0.0022
627.4548	0.0064
627.6431	0.0073
627.8314	0.0004
628.0197	0.0026
628.2079	-0.0001
628.3962	-0.0023
628.5844	0.0025
628.7726	0.0021
628.9608	0.0063
629.1489	-0.0004
629.3371	0.0058
629.5252	0.0036
629.7134	0.0076
629.9015	0.0044
630.0895	-0.0004
630.2776	0.0126
630.4657	0.0044
630.6537	0.0067
630.8417	0.0005
631.0297	-0.0029
631.2177	0.001
631.4057	-0.0077
631.5936	0.0027
631.7815	0.0102
631.9695	0.0004
632.1574	0.0068
632.3452	0.007
632.5331	-0.0038
632.7209	0.0031
632.9088	0.0107
633.0966	0.01
633.2844	-0.0055
633.4722	0.0047
633.6599	0.0097
633.8477	0.0001
634.0354	0.0033
634.2231	-0.0023
634.4108	0.0054
634.5985	0.0159
634.7861	0.0006
634.9738	0.0066
635.1614	0.0079
635.349	0.0117
635.5366	0.0007
635.7242	0.0086
635.9117	0.0073
636.0993	0.0048
636.2868	0.0044
636.4743	0.0023
636.6618	0.0163
636.8492	0.0022
637.0367	0.0043
637.2241	0.0029
637.4115	-0.0075
637.5989	-0.0011
637.7863	0.001
637.9737	-0.0013
638.161	-0.0007
638.3484	-0.0065
638.5357	0.0094
638.723	-0.0004
638.9103	-0.0034
639.0975	0.0053
639.2848	0.0041
639.472	-0.0027
639.6592	0.0023
639.8464	0.0049
640.0336	0.0068
640.2208	0.0026
640.4079	0.0015
640.595	-0.0024
640.7821	0.0007
640.9692	-0.0007
641.1563	0.0076
641.3434	0.0012
641.5304	-0.0034
641.7174	0.0029
641.9044	-0.0018
642.0914	0.0005
642.2784	0.003
642.4653	0.0077
642.6523	0.0023
642.8392	-0.007
643.0261	-0.0023
643.213	0.0033
643.3999	-0.0049
643.5867	-0.0025
643.7735	-0.0018
643.9604	-0.0082
644.1472	0.0018
644.3339	-0.0033
644.5207	0.0036
644.7075	-0.0027
644.8942	0.002
645.0809	0.0101
645.2676	0.0064
645.4543	0.0053
645.6409	0.0097
645.8276	-0.0023
646.0142	0.0079
646.2008	0.0005
646.3874	-0.0071
646.574	0.002
646.7605	-0.0002
646.9471	-0.0056
647.1336	-0.0093
647.3201	0.0012
647.5066	-0.0045
647.6931	0.0063
647.8795	0.0036
648.0659	0.0029
648.2524	0.007
648.4388	-0.0001
648.6252	0.0005
648.8115	0.0037
648.9979	-0.0002
649.1842	0.0074
649.3705	0.0047
649.5568	0.0038
649.7431	0.0087
649.9294	0.0006
650.1156	0.0098
650.3018	-0.0068
650.488	0.0044
650.6742	0.0011
650.8604	0.0055
651.0466	0.0005
651.2327	-0.0001
651.4188	-0.001
651.6049	-0.0096
651.791	-0.0017
651.9771	0.0038
652.1632	0.002
652.3492	0.008
652.5352	0.0006
652.7212	-0.0077
652.9072	0.0067
653.0932	0.0009
653.2791	-0.0003
653.465	0.0052
653.651	0.0011
653.8369	-0.0033
654.0227	0.0006
654.2086	0.0001
654.3944	0.0114
654.5803	0.0056
654.7661	0.0038
654.9519	-0.0063
655.1377	-0.0024
655.3234	0.0007
655.5092	-0.0058
655.6949	-0.0066
655.8806	-0.0043
656.0663	0.0024
656.2519	-0.0046
656.4376	-0.0029
656.6232	0.0035
656.8088	-0.001
656.9945	0.0002
657.18	0.0092
657.3656	0.0013
657.5511	-0.0059
657.7367	-0.0084
657.9222	0.0061
658.1077	0.0056
658.2932	0.0094
658.4786	-0.0108
658.6641	-0.0067
658.8495	0.0034
659.0349	-0.0092
659.2203	0.0029
659.4057	-0.0048
659.591	0.003
659.7764	-0.0048
659.9617	-0.0039
660.147	0.002
660.3323	-0.0015
660.5176	0.0067
660.7028	0.005
660.888	0.002
661.0733	0.0026
661.2585	-0.0023
661.4436	-0.0014
661.6288	-0.0027
661.8139	0.0017
661.9991	0.0022
662.1842	-0.0065
662.3693	0.0051
662.5544	-0.0022
662.7394	0.0016
662.9245	-0.0053
663.1095	-0.0069
663.2945	-0.001
663.4795	-0.0041
663.6644	0.0051
663.8494	0.0054
664.0343	0.0019
664.2193	-0.0016
664.4042	0.0031
664.589	-0.0027
664.7739	-0.004
664.9587	-0.0023
665.1436	0
665.3284	-0.001
665.5132	-0.0031
665.698	0.0007
665.8827	0.0017
666.0675	-0.0012
666.2522	-0.0069
666.4369	-0.0041
666.6216	0.0021
666.8063	-0.0001
666.9909	-0.0028
667.1756	-0.0022
667.3602	-0.001
667.5448	0.001
667.7294	0.0121
667.9139	0.0052
668.0985	0.0152
668.283	0.0045
668.4675	0.0047
668.652	0.009
668.8365	-0.0004
669.0209	0.0116
669.2054	0.0101
669.3898	-0.0006
669.5742	0.0071
669.7586	0.0103
669.943	0.0131
670.1273	0.0049
670.3117	0.0019
670.496	0.0021
670.6803	0.0109
670.8646	0.0031
671.0488	0.0006
671.2331	0.0044
671.4173	0.0075
671.6015	-0.0016
671.7857	0.0069
671.9699	0.0055
672.1541	0.0073
672.3382	0.0033
672.5223	0.0102
672.7064	0.0052
672.8905	0.004
673.0746	-0.0121
673.2587	0.0034
673.4427	0.0029
673.6267	0.0114
673.8107	0.0129
673.9947	0.0053
674.1787	0.0083
674.3626	-0.0058
674.5465	0.001
674.7304	0.0085
674.9143	0.0118
675.0982	0.0167
675.2821	-0.0081
675.4659	0.0063
675.6497	0.0024
675.8335	-0.0025
676.0173	0.0022
676.2011	-0.003
676.3849	-0.0017
676.5686	-0.0141
676.7523	-0.0034
676.936	-0.0073
677.1197	-0.0043
677.3034	-0.0096
677.487	0.0045
677.6706	0.003
677.8542	0.0102
678.0378	0.0001
678.2214	-0.004
678.405	0.0026
678.5885	-0.005
678.772	-0.0037
678.9555	-0.0066
679.139	-0.005
679.3225	-0.0022
679.5059	-0.0066
679.6894	-0.0002
679.8728	-0.0042
680.0562	-0.0087
680.2395	-0.0038
680.4229	0.0042
680.6062	0.0131
680.7896	0.0001
680.9729	-0.0064
681.1562	0.0086
681.3394	0.0078
681.5227	-0.003
681.7059	-0.0015
681.8891	0.0038
682.0723	0.0112
682.2555	0.0053
682.4387	-0.0043
682.6218	-0.0025
682.805	0.0108
682.9881	0.0112
683.1712	0.0021
683.3542	0.0041
683.5373	0.0139
683.7203	-0.003
683.9034	-0.0046
684.0864	-0.0052
684.2694	-0.0001
684.4523	0.0033
684.6353	-0.0017
684.8182	-0.0024
685.0011	-0.008
685.184	0.001
685.3669	-0.0025
685.5498	0.0031
685.7326	0.0044
685.9154	-0.0019
686.0982	0.0011
686.281	0.0011
686.4638	0.0016
686.6465	0.0026
686.8293	-0.005
687.012	-0.0001
687.1947	-0.0068
687.3774	-0.0008
687.56	-0.0033
687.7427	0.0012
687.9253	-0.0012
688.1079	-0.0014
688.2905	0.0064
688.4731	-0.001
688.6556	0.0019
688.8382	-0.0025
689.0207	0.0027
689.2032	-0.0085
689.3857	-0.0026
689.5681	0.0041
689.7506	0.0001
689.933	-0.0055
690.1154	0.0057
690.2978	0.0035
690.4802	0.0081
690.6626	-0.0043
690.8449	-0.0064
691.0272	0.0016
691.2095	-0.01
691.3918	-0.003
691.5741	0.002
691.7563	0.0003
691.9386	0.0029
692.1208	0.0003
692.303	-0.0013
692.4852	0.0031
692.6673	0.0047
692.8495	-0.0007
693.0316	0.0071
693.2137	0.0047
693.3958	0.0106
693.5778	0.0019
693.7599	0.0114
693.9419	-0.0038
694.1239	0.0026
694.3059	-0.0086
694.4879	0.0049
694.6699	0.0091
694.8518	0.0049
695.0337	-0.0049
695.2157	0.0055
695.3975	0.0096
695.5794	0.0008
695.7613	0.0069
695.9431	0.0017
696.1249	0.0025
696.3067	0.0054
696.4885	0.0138
696.6703	0.0012
696.852	0.0113
697.0337	0.0091
697.2154	0.007
697.3971	0.0058
697.5788	0.0037
697.7605	0.0033
697.9421	0.0039
698.1237	0.0036
698.3053	0.0062
698.4869	0.002
698.6685	-0.0082
698.85	-0.0026
699.0315	0.0075
699.213	0.006
699.3945	0.0073
699.576	0.0045
699.7575	0.0057
699.9389	0.0121
700.1203	0.0008
700.3017	-0.0054
700.4831	-0.0061
700.6645	-0.0023
700.8458	0.004
701.0271	-0.001
701.2084	0.009
701.3897	-0.0048
701.571	0.0027
701.7523	-0.012
701.9335	0.0053
702.1147	0.0016
702.2959	0.0033
702.4771	0.0069
702.6583	0.0012
702.8394	-0.0048
703.0205	0.002
703.2016	-0.0006
703.3827	0.0013
703.5638	0.0124
703.7449	0.0048
703.9259	0.0166
704.1069	-0.001
704.2879	0.0031
704.4689	-0.0008
704.6499	0.0033
704.8308	-0.0035
705.0117	-0.0027
705.1927	-0.0033
705.3735	-0.0036
705.5544	-0.0082
705.7353	0.0004
705.9161	-0.0046
706.0969	-0.0063
706.2777	-0.0019
706.4585	-0.006
706.6393	-0.0023
706.82	-0.0001
707.0007	0.0045
707.1815	-0.0065
707.3621	0.0104
707.5428	0.0103
707.7235	0.0057
707.9041	0.0054
708.0847	-0.0127
708.2653	-0.0031
708.4459	-0.0136
708.6265	-0.0049
708.807	-0.0017
708.9875	-0.008
709.168	-0.0066
709.3485	-0.0076
709.529	-0.0049
709.7095	-0.0066
709.8899	0.0062
710.0703	-0.009
710.2507	0.0013
710.4311	-0.0053
710.6115	-0.0144
710.7918	-0.0054
710.9721	0.0007
711.1524	-0.0033
711.3327	0.0051
711.513	0.0016
711.6932	0.004
711.8735	0.0119
712.0537	0.0093
712.2339	0.0079
712.4141	-0.002
712.5942	-0.0035
712.7744	0.0009
712.9545	-0.0035
713.1346	-0.0026
713.3147	-0.006
713.4947	-0.0054
713.6748	0.0025
713.8548	0.0023
714.0348	-0.0014
714.2148	-0.001
714.3948	0.0049
714.5748	-0.0056
714.7547	0.0026
714.9346	0.0017
715.1145	-0.0148
715.2944	-0.0068
715.4743	0.0001
715.6541	0.0024
715.834	0.0004
716.0138	-0.0014
716.1936	-0.0153
716.3733	-0.0075
716.5531	0.0064
716.7328	-0.001
716.9126	-0.0009
717.0923	0.0133
717.2719	0.0056
717.4516	0.0025
717.6312	0.0065
717.8109	-0.0009
717.9905	0.0118
718.1701	0.0076
718.3496	-0.0008
718.5292	0.0105
718.7087	0.0081
718.8882	0.0063
719.0677	0.0111
719.2472	0.0037
719.4267	0.0058
719.6061	0.0074
719.7856	0.0091
719.965	0.0087
720.1443	-0.0019
720.3237	0.0163
720.5031	0.0065
720.6824	0.0022
720.8617	0.002
721.041	0.0018
721.2203	0.0106
721.3995	0.01
721.5788	-0.0029
721.758	0.0043
721.9372	0.0034
722.1164	0.0032
722.2956	-0.0041
722.4747	0.0029
722.6538	-0.0022
722.8329	0.0111
723.012	0.0048
723.1911	-0.0036
723.3702	-0.0006
723.5492	-0.0007
723.7282	0.0047
723.9072	0.0002
724.0862	-0.0047
724.2652	-0.0052
724.4441	-0.0086
724.623	-0.0024
724.8019	-0.0028
724.9808	-0.0017
725.1597	-0.0066
725.3385	0.004
725.5174	0.0007
725.6962	-0.0021
725.875	0.0041
726.0538	0.0055
726.2325	-0.0039
726.4112	0.0059
726.59	-0.0048
726.7687	-0.0079
726.9474	0.0128
727.126	0.0056
727.3047	-0.0016
727.4833	0.002
727.6619	0.001
727.8405	-0.0061
728.0191	0.0038
728.1976	0.0024
728.3762	-0.0111
728.5547	0.0045
728.7332	-0.0141
728.9116	-0.0093
729.0901	0.0039
729.2686	-0.0107
729.447	-0.0138
729.6254	0.0023
729.8038	0.0018
729.9821	-0.0123
730.1605	-0
730.3388	0.0036
730.5171	-0.006
730.6954	-0.0083
730.8737	0.007
731.0519	0.001
731.2302	0.0061
731.4084	0.0108
731.5866	0.0008
731.7648	-0.0035
731.9429	-0.0033
732.1211	-0.0077
732.2992	-0.0043
732.4773	-0.0086
732.6554	-0.0034
732.8335	0.0001
733.0115	0.0012
733.1896	0.0066
733.3676	-0.0156
733.5456	0.0068
733.7235	0.0091
733.9015	-0.0024
734.0794	-0.0018
734.2574	-0.0091
734.4353	0.0013
734.6131	0.0088
734.791	0.009
734.9689	-0.0043
735.1467	0.0026
735.3245	-0.0087
735.5023	-0.0083
735.68	-0.0002
735.8578	0.001
736.0355	-0.0166
736.2132	-0.001
736.3909	-0.0082
736.5686	-0.0059
736.7463	0.004
736.9239	-0.0099
737.1015	-0.0036
737.2791	0.0071
737.4567	-0.0027
737.6343	-0.0087
737.8118	0.0061
737.9894	0.0014
738.1669	-0.0049
738.3444	-0.0064
738.5218	0.0047
738.6993	0.0046
738.8767	-0.0013
739.0541	0.0016
739.2315	-0.0106
739.4089	0.0064
739.5863	0.0086
739.7636	0.0018
739.9409	-0.0011
740.1182	0.0027
740.2955	0.0091
740.4728	-0.0082
740.65	-0.0066
740.8272	0.0008
741.0044	-0.0029
741.1816	0.0038
741.3588	-0.0044
741.5359	-0.0054
741.7131	-0.0045
741.8902	-0.0043
742.0673	0.0005
742.2444	-0.0059
742.4214	-0.015
742.5985	-0.0071
742.7755	-0.0054
742.9525	-0.0089
743.1295	0.003
743.3064	0.0096
743.4834	0.0049
743.6603	0.0015
743.8372	-0.0037
744.0141	0.0032
744.191	0.0087
744.3678	-0.0069
744.5446	-0.0001
744.7215	-0.0005
744.8982	0.0036
745.075	-0.0096
745.2518	-0.0007
745.4285	-0.0041
745.6052	-0.0089
745.7819	-0.0059
745.9586	-0.0116
746.1353	-0.0015
746.3119	-0.0214
746.4885	-0.0207
746.6651	-0.005
746.8417	-0.0108
747.0183	-0.0136
747.1948	-0.0159
747.3714	-0.0138
747.5479	-0.0012
747.7244	-0.0123
747.9008	-0.0111
748.0773	-0.0037
748.2537	-0.0094
748.4301	-0.0164
748.6065	-0.0098
748.7829	0.0008
748.9593	-0.0103
749.1356	-0.001
749.3119	0.0073
749.4882	-0.0111
749.6645	-0.001
749.8408	-0.004
750.017	-0.0038
750.1933	0.0032
750.3695	-0.0037
750.5457	0.006
750.7218	-0.0059
750.898	0.0025
751.0741	0.0006
751.2502	-0.0034
751.4263	-0.0045
751.6024	-0.0033
751.7784	-0.0021
751.9545	-0.0046
752.1305	0.0076
752.3065	-0.0043
752.4825	-0.0021
752.6584	-0.0069
752.8344	-0.0102
753.0103	-0.0091
753.1862	-0.0046
753.3621	-0.0073
753.5379	-0.0059
753.7138	-0.0035
753.8896	0.0011
754.0654	0.0034
754.2412	0.0065
754.417	-0.0043
754.5927	-0.0099
754.7685	-0.0025
754.9442	0.0017
755.1199	0.0109
755.2956	0.0062
755.4712	0.011
755.6469	0.0072
755.8225	-0.0011
755.9981	-0.0013
756.1736	0.013
756.3492	0.0051
756.5248	-0.006
756.7003	0.0092
756.8758	0.0197
757.0513	-0.0003
757.2267	0.0057
757.4022	0.0096
757.5776	-0.0068
757.753	-0.0032
757.9284	0.002
758.1038	0.0119
758.2791	0.0004
758.4545	-0.0184
758.6298	-0.0041
758.8051	-0.003
758.9803	-0.0036
759.1556	-0.0039
759.3308	-0.0129
759.506	0.0028
759.6812	-0.0015
759.8564	0.016
760.0316	-0.0004
760.2067	0.0139
760.3819	0.0096
760.557	0.022
760.732	-0.0036
760.9071	-0.0069
761.0821	0.0099
761.2572	0.0096
761.4322	0.0048
761.6072	0.0016
761.7821	0.001
761.9571	0.0073
762.132	0.0023
762.3069	-0.0167
762.4818	-0.007
762.6567	-0.001
762.8316	-0.0046
763.0064	-0.0017
763.1812	-0.0051
763.356	-0.0089
763.5308	-0.0079
763.7055	-0.005
763.8803	-0.0099
764.055	-0.0096
764.2297	-0.0036
764.4044	-0.0098
764.579	0.0052
764.7537	-0.0087
764.9283	0.0008
765.1029	-0.007
765.2775	-0.0119
765.4521	-0.0066
765.6266	-0.0085
765.8011	-0.0197
765.9756	-0.008
766.1501	-0.0071
766.3246	-0.0036
766.4991	-0.0075
766.6735	0.0034
766.8479	-0.0202
767.0223	0.0011
767.1967	-0.0111
767.371	-0.009
767.5454	-0.0079
767.7197	-0.0081
767.894	-0.0143
768.0683	-0.0122
768.2425	-0.0028
768.4168	-0.0111
768.591	-0.002
768.7652	-0.0011
768.9394	0
769.1135	0.0053
769.2877	0.0009
769.4618	-0.0036
769.6359	-0.01
769.81	-0.0013
769.984	-0.0078
770.1581	-0.0072
770.3321	0.0055
770.5061	-0.0043
770.6801	-0.0056
770.8541	-0.0023
771.028	-0.0073
771.202	-0.0073
771.3759	0.0008
771.5498	-0.0093
771.7236	0.0031
771.8975	-0.0069
772.0713	0.0021
772.2451	0.0048
772.4189	0.0093
772.5927	0.0107
772.7665	-0.0002
772.9402	-0.0104
773.1139	0.001
773.2876	-0.0045
773.4613	-0.0006
773.635	-0.0015
773.8086	-0.0184
773.9822	-0.0153
774.1558	-0.0044
774.3294	-0.0106
774.503	-0.0118
774.6765	-0.0052
774.8501	0.008
775.0236	0.0079
775.1971	-0.0007
775.3705	-0.011
775.544	-0.0108
775.7174	-0.0022
775.8908	-0.0032
776.0642	-0.0123
776.2376	-0.0006
776.4109	-0.0237
776.5843	-0.0018
776.7576	0.0154
776.9309	0.003
777.1041	-0.0028
777.2774	0.0085
777.4506	-0.0141
777.6238	-0.0148
777.797	-0.0041
777.9702	0.0093
778.1434	-0.0074
778.3165	-0.0006
778.4896	-0.0093
778.6627	0.0077
778.8358	0.0037
779.0089	-0.0076
779.1819	0.0019
779.3549	0.0032
779.5279	0.0085
779.7009	-0.0004
779.8739	-0.0031
780.0468	0.0067
780.2197	-0.0038
780.3926	-0.0157
780.5655	-0.0119
780.7384	-0.0044
780.9112	-0.0039
781.0841	-0.0184
781.2569	-0.0023
781.4297	0.0013
781.6024	-0.0084
781.7752	-0.0048
781.9479	0.003
782.1206	-0.0029
782.2933	-0.0097
782.466	0.0031
782.6386	-0.0007
782.8113	-0.0028
782.9839	0.0059
783.1565	0.0061
783.329	0.0016
783.5016	0.002
783.6741	-0.0054
783.8466	-0.0033
784.0191	0.0143
784.1916	0.0025
784.3641	0.0068
784.5365	0.0053
784.7089	0.0018
784.8813	0.0044
785.0537	-0.0017
785.2261	-0.0063
785.3984	-0.0039
785.5707	-0.0016
785.743	-0.0076
785.9153	-0.0138
786.0876	-0.0014
786.2598	-0.0122
786.432	-0.0213
786.6042	-0.0031
786.7764	-0.0148
786.9486	-0.007
787.1207	-0.0211
787.2928	0.007
787.4649	-0.0026
787.637	-0.0012
787.8091	-0.0118
787.9811	-0.0004
788.1532	0.0016
788.3252	0.005
788.4972	-0.0071
788.6691	0.0043
788.8411	-0.0034
789.013	-0.0125
789.1849	0.0152
789.3568	-0.0161
789.5287	-0.0049
789.7005	-0.0041
789.8723	-0.0042
790.0442	0.0098
790.2159	-0.0052
790.3877	-0.0063
790.5595	-0.0187
790.7312	0.0129
790.9029	-0.0105
791.0746	-0.0098
791.2463	0.0046
791.4179	0.0089
791.5896	-0.0147
791.7612	0.0016
791.9328	0.0016
792.1044	-0.0099
792.2759	-0.0134
792.4474	-0.0004
792.619	0.0154
792.7905	-0.0041
792.9619	0.0102
793.1334	0.0154
793.3048	0.0082
793.4762	0.0113
793.6476	0.0004
793.819	-0.0042
793.9904	-0.0034
794.1617	-0.0128
794.333	-0.0099
794.5043	-0.0121
794.6756	-0.0072
794.8469	-0.0004
795.0181	-0.0034
795.1893	0.0027
795.3605	0.0022
795.5317	0.0043
795.7029	0.0058
795.874	0.0021
796.0452	-0.0054
796.2163	0.0009
796.3873	0.0104
796.5584	0.0045
796.7294	-0.0006
796.9005	0.015
797.0715	-0.0044
797.2425	-0.0063
797.4134	-0.0044
797.5844	0.0044
797.7553	0.0012
797.9262	0.0003
798.0971	-0.0136
798.2679	-0.0168
798.4388	-0.0203
798.6096	-0.0095
798.7804	-0.0048
798.9512	-0.0093
799.122	-0.0119
799.2927	0.0035
799.4635	-0.0016
799.6342	-0.0217
799.8049	-0.0225
799.9755	-0.0128
800.1462	-0.0074
800.3168	0.0003
800.4874	0.0014
800.658	0.0223
800.8286	0.0014
800.9991	0.0028
801.1696	-0.0005
801.3402	0.0106
801.5106	-0.004
801.6811	0.0081
801.8516	0.0097
802.022	0.0046
802.1924	0.0119
802.3628	0.0025
802.5332	0.0087
802.7035	0.0232
802.8739	0.002
803.0442	-0.0102
803.2145	0.0101
803.3847	-0.0096
803.555	-0.0052
803.7252	-0.0131
803.8954	-0.0091
804.0656	-0.0122
804.2358	0.0104
804.4059	-0.0033
804.5761	0.0101
804.7462	0.0043
804.9163	-0.0034
805.0864	-0.0255
805.2564	0.0023
805.4264	-0.008
805.5965	-0.0168
805.7665	-0.0113
805.9364	-0.0019
806.1064	0.0248
806.2763	0.0105
806.4462	0.0383
806.6161	0.009
806.786	0.0111
806.9559	-0.0109
807.1257	-0.0054
807.2955	0.0003
807.4653	-0.0006
807.6351	0.0022
807.8048	0.0084
807.9746	0.0082
808.1443	0.0015
808.314	-0.008
808.4837	-0.0018
808.6533	-0.0231
808.8229	0.0339
808.9926	-0.0016
809.1622	-0.0058
809.3317	-0.0063
809.5013	0.0001
809.6708	-0.0038
809.8403	0.0086
810.0098	0.0078
810.1793	0.009
810.3488	0.0082
810.5182	-0.0087
810.6876	0.0059
810.857	-0.0179
811.0264	0.0073
811.1958	0.0006
811.3651	0.0158
811.5344	-0.0134
811.7037	-0.0017
811.873	-0.0213
812.0422	0.0057
812.2115	-0.0132
812.3807	-0.015
812.5499	0.0085
812.7191	0.0113
812.8882	-0.0036
813.0574	-0.0116
813.2265	0.0031
813.3956	-0.0087
813.5646	0.0102
813.7337	-0.0187
813.9027	0.0009
814.0718	0.0338
814.2407	0.0256
814.4097	-0.0114
814.5787	-0.0088
814.7476	-0.0075
814.9165	-0.0203
815.0854	-0.0121
815.2543	-0.0025
815.4232	-0.0097
815.592	-0.0039
815.7608	0.001
815.9296	-0.0123
816.0984	0.0028
816.2671	-0.0046
816.4359	-0.0044
816.6046	-0.007
816.7733	-0.0143
816.942	-0.0207
817.1106	-0.0035
817.2793	0.0017
817.4479	-0.014
817.6165	0.0183
817.785	-0.0068
817.9536	-0.021
818.1221	-0.0078
818.2906	0.0024
818.4591	-0.006
818.6276	-0.0036
818.7961	-0.0074
818.9645	-0.0149
819.1329	-0.0019
819.3013	0.0339
819.4697	0.0278
819.638	-0.0186
819.8064	0.0005
819.9747	0.0061
820.143	0.0081
820.3113	-0.0177
820.4795	0.0187
820.6477	-0.0002
820.816	0.0205
820.9842	-0.0045
821.1523	-0.0002
821.3205	-0.0145
821.4886	0.0041
821.6567	0.0218
821.8248	-0.0111
821.9929	0.0203
822.1609	0.0058
822.329	0.0016
822.497	0.0277
822.665	-0.0018
822.833	0.0029
823.0009	0.0066
823.1688	0.0116
823.3367	-0.0006
823.5046	0.0146
823.6725	0.0232
823.8404	0.001
824.0082	0.0117
824.176	0.0085
824.3438	-0.0081
824.5116	0.0006
824.6793	0.008
824.847	-0.0031
825.0147	-0.0045
825.1824	0.0144
825.3501	-0.0022
825.5177	-0.0244
825.6854	0.0045
825.853	0.0181
826.0206	-0.0158
826.1881	-0.0105
826.3557	-0.0255
826.5232	0.0147
826.6907	-0.0414
826.8582	-0.0136
827.0257	-0.0305
827.1931	-0.0025
827.3605	0.0107
827.528	-0.0286
827.6953	-0.0218
827.8627	0.0021
828.03	0.021
828.1974	0.0002
828.3647	-0.043
828.532	-0.0233
828.6992	-0.0134
828.8665	-0.0097
829.0337	-0.0068
829.2009	0.0228
829.3681	-0.0139
829.5352	0.0155
829.7024	-0.0339
829.8695	-0.019
830.0366	0.0226
830.2037	0.0168
830.3707	-0.0105
830.5378	-0.0014
830.7048	0.0013
830.8718	-0.0068
831.0388	-0.0088
831.2057	0.0072
831.3727	0.0194
831.5396	0.0065
831.7065	-0.027
831.8734	0.0079
832.0402	-0.0274
832.2071	0.0105
832.3739	-0.0186
832.5407	-0.0314
832.7075	-0.0223
832.8742	-0.0189
833.041	-0.0199
833.2077	-0.0106
833.3744	0.0014
833.541	0.027
833.7077	-0.0414
833.8743	-0.0362
834.0409	-0.0088
834.2075	0.0034
834.3741	0.014
834.5407	0.0047
834.7072	-0.0079
834.8737	-0.0286
835.0402	-0.0265
835.2067	0.011
835.3731	0.0043
835.5395	0.0119
835.706	0.0088
835.8723	-0.0187
836.0387	-0.0221
836.2051	-0.0576
836.3714	0.0037
836.5377	0.0114
836.704	-0.0192
836.8703	-0.0215
837.0365	-0.0348
837.2027	-0.0057
837.3689	0.0223
837.5351	-0.0425
837.7013	-0.0244
837.8674	-0.0699
838.0335	-0.0451
838.1997	-0.0445
838.3657	-0.0573
838.5318	-0.0048
838.6978	0.0105
838.8639	0.0185
839.0299	-0.0256
839.1958	-0.0005
839.3618	-0.0294
839.5277	-0.0005
839.6937	-0.0222
839.8596	-0.0541
840.0254	0.0384
840.1913	-0.0361
840.3571	0.021
840.523	-0.0191
840.6888	-0.0509
840.8545	0.0004
841.0203	0.003
841.186	0.0232
841.3517	-0.0189
841.5174	-0.0057
841.6831	-0.0323
841.8488	0.0188
842.0144	0.0068
842.18	0.0084
842.3456	0.0118
842.5112	-0.0136
842.6767	-0.0112
842.8422	0.0037
843.0077	0.0004
843.1732	-0.0459
843.3387	-0.0437
843.5042	-0.0354
843.6696	0.0241
843.835	-0.0308
844.0004	0.0509
844.1657	0.0126
844.3311	-0.0666
844.4964	-0.0187
844.6617	-0.0244
844.827	-0.0041
844.9923	0.0028
845.1575	0.0456
845.3227	-0.0329
845.4879	-0.0525
845.6531	-0.028
845.8183	-0.0263
845.9834	-0.0142
846.1485	-0.005
846.3136	-0.0278
846.4787	-0.1077
846.6438	0.0703
846.8088	0.0366
846.9738	-0.0565
847.1388	-0.0372
847.3038	-0.0548
847.4687	-0.1776
847.6337	0.0427
847.7986	0.0182
847.9635	-0.0967
848.1284	0.0173
848.2932	0.0446
848.458	-0.0567
848.6228	0.0779
848.7876	0.0282
848.9524	-0.0837
849.1172	-0.1208
849.2819	-0.0022
849.4466	-0.1436
849.6113	-0.0891
849.7759	-0.0357
849.9406	-0.0387
850.1052	0.0256
850.2698	-0.0477
850.4344	-0.024
850.599	-0.0956
850.7635	0.0145
850.928	-0.0703
851.0925	-0.0413
851.257	0.0061
851.4215	0.0223
851.5859	-0.0699
851.7503	0.0442
851.9147	0.004
852.0791	-0.0815
852.2434	-0.0577
852.4078	0.0498
852.5721	0.0594
852.7364	-0.0437
852.9007	-0.2199
853.0649	-0.0165
853.2291	-0.0595
853.3934	-0.0409
853.5575	-0.0015
853.7217	-0.0679
853.8859	-0.1608
854.05	-0.1002
854.2141	-0.1208
854.3782	-0.0838
854.5423	-0.1475
854.7063	0.0418
854.8703	-0.0178
855.0343	-0.1401
855.1983	-0.1725
855.3623	0.0492
855.5262	0.06
855.6901	-0.0729
855.854	-0.0194
856.0179	0.0054
856.1818	-0.0325
856.3456	-0.012
856.5094	-0.1261
856.6732	-0.1245
856.837	-0.1737
857.0008	0.0304
857.1645	0.0074
857.3282	-0.0916
857.4919	-0.0442
857.6556	-0.0595
857.8192	-0.0395
857.9828	0.0098
858.1465	0.0056
858.31	-0.216
858.4736	-0.1232
858.6372	-0.1336
858.8007	-0.2283
858.9642	-0.173
859.1277	0.0084
859.2911	0.0561
859.4546	-0.0265
859.618	-0.5671
859.7814	-0.0086
859.9448	0.1828
860.1081	-0.1526
860.2715	0.0472
860.4348	0.0327
860.5981	0.0067
860.7614	0.0953
860.9246	-0.0121
861.0879	-0.0662
861.2511	0.0751
861.4143	-0.4219
861.5774	0.1727
861.7406	-0.0812
861.9037	-0.0683
862.0668	-0.2184
862.2299	-0.0642
862.393	-0.4464
862.556	-0.1079
862.7191	-0.358
862.8821	-0.1333
863.0451	-0.0545
863.208	0.1
863.371	-0.1484
863.5339	-0.039
863.6968	0.0491
863.8597	-0.039
864.0225	-0.0789
864.1854	0.0038
864.3482	-0.0623
864.511	0.0531
864.6737	-0.1226
864.8365	-0.0466
864.9992	-0.5037
865.1619	-0.4443
865.3246	0.0209
865.4873	0.0172
865.65	-0.3615
865.8126	-0.2484
865.9752	0.0189
866.1378	-0.2596
866.3004	0.1767
866.4629	0.2024
866.6254	-0.2689
866.7879	-0.2359
866.9504	-0.0609
867.1129	-0
867.2753	0.0968
867.4377	0.0569
867.6001	-0.2069
867.7625	0.0713
867.9249	-0.8183
868.0872	-0.0611
868.2495	0.0677
868.4118	-0.3875
868.5741	-0.1878
868.7363	-0.112
868.8986	-0.0363
869.0608	0.0467
869.223	0.1427
869.3851	1.2981
869.5473	-0
869.7094	0.1241
869.8715	-0.1878
870.0336	-0
870.1957	-0.5461
870.3577	-1.3079
870.5197	-0.2013
870.6817	0.0301
870.8437	-0.1579
871.0057	-0
871.1676	0.4331
871.3295	-0.0577
871.4914	-0
871.6533	-0.2556
871.8151	-0.4015
871.977	-0
872.1388	-0
872.3006	-0
872.4623	-0
872.6241	0.392
872.7858	-0
872.9475	-0.329
873.1092	-0.0832
873.2709	-0
873.4325	-0.3216
873.5941	-0.6905
873.7557	-0
873.9173	-0
874.0789	-0
874.2404	-0.3939
874.4019	1.211
874.5634	-0.1718
874.7249	-0.0232
874.8863	-0.1125
875.0478	0.1497
875.2092	-0
875.3706	0.0682
875.5319	-0.7301
875.6933	-0
875.8546	0.0585
876.0159	-0.0873
876.1772	0.249
876.3385	-0
876.4997	0.409
876.6609	-0.569
876.8221	-0.0164
876.9833	0.2269
877.1445	-0
877.3056	0.3234
877.4667	-0.1028
877.6278	-0
877.7889	-0.553
877.9499	-0
878.111	-0.3568
878.272	-0
878.433	-0
878.5939	-0
878.7549	0.3091
878.9158	-0.9177
879.0767	1.1225
879.2376	0.773
879.3984	1.4506
879.5593	-0
879.7201	0.2013
879.8809	0.2475
880.0417	-0.1566
880.2024	-0.0421
880.3632	-0.7342
880.5239	0.4463
880.6846	-0.2427
880.8452	-2.3551
881.0059	-1.2014
881.1665	0.6939
881.3271	-0
881.4877	-0.5581
881.6483	-0.3238
881.8088	-0.4579
881.9693	0.3065
882.1298	0.3065
882.2903	0.3065
