Data from MonoPyChalIsomerACN10uM350nmA_Absorbance_14-35-34-118.txt Node
Date: Fri Jul 05 14:35:34 BST 2024
User: LASERRRRR
Spectrometer: FLMT03099
Trigger mode: 0
Integration Time (sec): 1.000000E-1
Scans to average: 1
Electric dark correction enabled: true
Nonlinearity correction enabled: false
Boxcar width: 0
XAxis mode: Wavelengths
Number of Pixels in Spectrum: 3648
>>>>>Begin Spectral Data<<<<<
179.3399	-0.0709
179.5586	-0.0709
179.7771	-0.0709
179.9957	0.0061
180.2143	-0
180.4329	-0.2385
180.6514	-0
180.8699	0.2257
181.0885	0.5008
181.307	0.081
181.5255	-0
181.744	-0
181.9625	-0
182.181	-0
182.3994	0.3127
182.6179	-0
182.8363	0.7956
183.0547	0.4011
183.2732	0.1333
183.4916	0.1311
183.71	0.1618
183.9284	0.3715
184.1467	-0.2282
184.3651	-0.0555
184.5835	0.0072
184.8018	0.015
185.0201	0.2212
185.2385	-0.1546
185.4568	0.2355
185.6751	0.0659
185.8934	0.2326
186.1117	0.0374
186.3299	0.266
186.5482	0.1267
186.7664	0.2228
186.9847	0.0361
187.2029	0.2236
187.4211	-0.0685
187.6393	0.1776
187.8575	0.2454
188.0757	0.3341
188.2939	0.1471
188.512	0.4202
188.7302	0.3069
188.9483	0.0102
189.1665	0.0238
189.3846	0.4006
189.6027	0.3115
189.8208	0.2982
190.0389	0.1979
190.257	0.1331
190.475	0.1641
190.6931	0.0762
190.9111	0.5902
191.1292	0.2373
191.3472	0.3359
191.5652	0.4455
191.7832	0.3666
192.0012	0.7424
192.2192	0.3619
192.4371	0.4688
192.6551	0.3514
192.873	0.6338
193.091	0.4709
193.3089	0.6038
193.5268	0.5577
193.7447	0.4752
193.9626	0.5804
194.1805	0.917
194.3984	1.0652
194.6162	0.5865
194.8341	0.5615
195.0519	0.639
195.2697	0.683
195.4875	0.6103
195.7054	0.6192
195.9231	0.5998
196.1409	0.5166
196.3587	0.6695
196.5765	0.6703
196.7942	0.7294
197.012	0.9165
197.2297	0.6828
197.4474	0.5664
197.6651	0.4367
197.8828	0.5208
198.1005	0.7964
198.3182	0.7226
198.5358	0.8241
198.7535	0.6106
198.9711	0.5226
199.1888	0.5376
199.4064	0.7411
199.624	0.7132
199.8416	0.5521
200.0592	0.7154
200.2767	0.633
200.4943	0.7196
200.7119	0.776
200.9294	0.6991
201.1469	0.6539
201.3645	0.5794
201.582	0.5566
201.7995	0.6249
202.017	0.6301
202.2344	0.6341
202.4519	0.6276
202.6694	0.7099
202.8868	0.6625
203.1042	0.7359
203.3217	0.7401
203.5391	0.627
203.7565	0.6065
203.9739	0.5856
204.1913	0.558
204.4086	0.6956
204.626	0.708
204.8433	0.616
205.0607	0.615
205.278	0.6421
205.4953	0.554
205.7126	0.6268
205.9299	0.6991
206.1472	0.7058
206.3644	0.6285
206.5817	0.6999
206.7989	0.8009
207.0162	0.589
207.2334	0.7269
207.4506	0.6124
207.6678	0.6679
207.885	0.7318
208.1022	0.6605
208.3194	0.616
208.5365	0.6576
208.7537	0.7384
208.9708	0.5996
209.1879	0.5963
209.405	0.7133
209.6222	0.6206
209.8392	0.622
210.0563	0.5812
210.2734	0.6572
210.4905	0.6369
210.7075	0.6361
210.9245	0.6404
211.1416	0.6882
211.3586	0.6155
211.5756	0.6491
211.7926	0.5993
212.0096	0.5504
212.2265	0.5437
212.4435	0.5941
212.6604	0.6381
212.8774	0.5424
213.0943	0.5697
213.3112	0.6173
213.5281	0.5194
213.745	0.5296
213.9619	0.5484
214.1788	0.5403
214.3956	0.4854
214.6125	0.4623
214.8293	0.4353
215.0461	0.4731
215.2629	0.4457
215.4798	0.4946
215.6965	0.4209
215.9133	0.4672
216.1301	0.4435
216.3469	0.4589
216.5636	0.411
216.7803	0.3732
216.9971	0.3851
217.2138	0.3639
217.4305	0.3488
217.6472	0.3184
217.8639	0.3641
218.0805	0.3751
218.2972	0.3306
218.5138	0.3073
218.7305	0.3125
218.9471	0.3195
219.1637	0.2947
219.3803	0.2852
219.5969	0.2809
219.8135	0.2563
220.0301	0.2803
220.2466	0.2646
220.4632	0.2581
220.6797	0.2498
220.8962	0.2623
221.1127	0.2584
221.3292	0.2539
221.5457	0.2317
221.7622	0.2461
221.9787	0.2481
222.1951	0.2425
222.4116	0.2489
222.628	0.2563
222.8444	0.2516
223.0608	0.2512
223.2772	0.262
223.4936	0.2624
223.71	0.238
223.9264	0.2824
224.1427	0.2704
224.3591	0.2556
224.5754	0.2713
224.7917	0.2676
225.008	0.2807
225.2243	0.2953
225.4406	0.3033
225.6569	0.2906
225.8732	0.2682
226.0894	0.269
226.3057	0.2679
226.5219	0.2733
226.7381	0.2495
226.9543	0.266
227.1705	0.2758
227.3867	0.2946
227.6029	0.3012
227.8191	0.296
228.0352	0.2959
228.2513	0.3292
228.4675	0.2991
228.6836	0.3057
228.8997	0.3048
229.1158	0.3126
229.3319	0.3167
229.548	0.3131
229.764	0.3184
229.9801	0.3352
230.1961	0.3307
230.4121	0.3475
230.6282	0.3189
230.8442	0.319
231.0602	0.3573
231.2761	0.3541
231.4921	0.3416
231.7081	0.345
231.924	0.3464
232.14	0.3715
232.3559	0.3245
232.5718	0.3504
232.7877	0.354
233.0036	0.3394
233.2195	0.353
233.4353	0.3678
233.6512	0.3466
233.867	0.3756
234.0829	0.3475
234.2987	0.3542
234.5145	0.3728
234.7303	0.379
234.9461	0.3899
235.1619	0.3559
235.3776	0.3929
235.5934	0.3996
235.8091	0.3686
236.0249	0.3824
236.2406	0.382
236.4563	0.3853
236.672	0.3923
236.8877	0.4098
237.1034	0.3917
237.319	0.3903
237.5347	0.3928
237.7503	0.4048
237.966	0.4031
238.1816	0.4059
238.3972	0.3889
238.6128	0.3834
238.8284	0.399
239.0439	0.4136
239.2595	0.3972
239.475	0.4099
239.6906	0.4028
239.9061	0.3906
240.1216	0.41
240.3371	0.3962
240.5526	0.3827
240.7681	0.4079
240.9836	0.393
241.199	0.4048
241.4145	0.3607
241.6299	0.3726
241.8453	0.3776
242.0607	0.3745
242.2761	0.3509
242.4915	0.3528
242.7069	0.3608
242.9223	0.3479
243.1376	0.3318
243.353	0.3369
243.5683	0.3396
243.7836	0.3199
243.9989	0.3239
244.2142	0.3063
244.4295	0.3093
244.6448	0.3151
244.86	0.2878
245.0753	0.2748
245.2905	0.2751
245.5057	0.2726
245.721	0.2655
245.9362	0.2632
246.1514	0.2799
246.3665	0.2676
246.5817	0.2383
246.7969	0.2426
247.012	0.2488
247.2271	0.2424
247.4423	0.2407
247.6574	0.2274
247.8725	0.2192
248.0876	0.2219
248.3026	0.2167
248.5177	0.2209
248.7328	0.2109
248.9478	0.2012
249.1628	0.2141
249.3779	0.2114
249.5929	0.1947
249.8079	0.2112
250.0228	0.1923
250.2378	0.193
250.4528	0.1968
250.6677	0.1792
250.8827	0.2068
251.0976	0.1919
251.3125	0.1816
251.5274	0.1682
251.7423	0.1834
251.9572	0.1963
252.172	0.1935
252.3869	0.1808
252.6017	0.1743
252.8166	0.1719
253.0314	0.1703
253.2462	0.1672
253.461	0.1714
253.6758	0.167
253.8906	0.1718
254.1053	0.1659
254.3201	0.1867
254.5348	0.1678
254.7496	0.1819
254.9643	0.168
255.179	0.1668
255.3937	0.16
255.6083	0.1647
255.823	0.1769
256.0377	0.1618
256.2523	0.164
256.467	0.1523
256.6816	0.1639
256.8962	0.1585
257.1108	0.1655
257.3254	0.1746
257.54	0.1489
257.7545	0.173
257.9691	0.1685
258.1836	0.174
258.3981	0.172
258.6127	0.1683
258.8272	0.1672
259.0417	0.1689
259.2561	0.1658
259.4706	0.1581
259.6851	0.1616
259.8995	0.1736
260.114	0.1648
260.3284	0.1569
260.5428	0.1589
260.7572	0.1593
260.9716	0.1626
261.186	0.1511
261.4003	0.1647
261.6147	0.17
261.829	0.167
262.0433	0.1637
262.2577	0.1675
262.472	0.1706
262.6863	0.1589
262.9005	0.1542
263.1148	0.164
263.3291	0.1511
263.5433	0.1695
263.7576	0.1678
263.9718	0.1712
264.186	0.1698
264.4002	0.1676
264.6144	0.1676
264.8286	0.1764
265.0427	0.1697
265.2569	0.1614
265.471	0.1595
265.6851	0.1536
265.8993	0.1632
266.1134	0.1563
266.3275	0.1542
266.5415	0.1514
266.7556	0.1643
266.9697	0.1548
267.1837	0.1606
267.3978	0.1645
267.6118	0.1666
267.8258	0.1681
268.0398	0.1545
268.2538	0.1639
268.4677	0.1533
268.6817	0.1507
268.8957	0.1589
269.1096	0.1629
269.3235	0.1644
269.5374	0.1578
269.7514	0.1486
269.9652	0.139
270.1791	0.145
270.393	0.145
270.6068	0.1485
270.8207	0.1456
271.0345	0.1405
271.2483	0.1462
271.4622	0.141
271.676	0.1435
271.8897	0.135
272.1035	0.1394
272.3173	0.1423
272.531	0.1463
272.7448	0.1382
272.9585	0.1388
273.1722	0.1397
273.3859	0.1426
273.5996	0.1398
273.8133	0.1473
274.0269	0.1423
274.2406	0.138
274.4542	0.1441
274.6679	0.1388
274.8815	0.1402
275.0951	0.1395
275.3087	0.1488
275.5223	0.1502
275.7358	0.1478
275.9494	0.1482
276.1629	0.1369
276.3765	0.1399
276.59	0.1395
276.8035	0.1319
277.017	0.1512
277.2305	0.134
277.444	0.1459
277.6574	0.1353
277.8709	0.1408
278.0843	0.1413
278.2978	0.1447
278.5112	0.1378
278.7246	0.1341
278.938	0.1375
279.1513	0.1487
279.3647	0.1541
279.5781	0.1443
279.7914	0.1482
280.0047	0.1492
280.2181	0.1338
280.4314	0.1483
280.6447	0.1444
280.8579	0.1519
281.0712	0.1365
281.2845	0.168
281.4977	0.1418
281.711	0.1571
281.9242	0.1519
282.1374	0.159
282.3506	0.1404
282.5638	0.1512
282.7769	0.1474
282.9901	0.1426
283.2033	0.1543
283.4164	0.149
283.6295	0.148
283.8426	0.1413
284.0557	0.1522
284.2688	0.167
284.4819	0.1608
284.695	0.1622
284.908	0.1649
285.1211	0.1511
285.3341	0.1548
285.5471	0.1549
285.7601	0.158
285.9731	0.1587
286.1861	0.14
286.3991	0.1698
286.612	0.1751
286.825	0.1594
287.0379	0.1633
287.2508	0.158
287.4637	0.1677
287.6766	0.1599
287.8895	0.167
288.1024	0.1841
288.3152	0.1672
288.5281	0.1566
288.7409	0.1615
288.9538	0.1636
289.1666	0.1565
289.3794	0.16
289.5922	0.1686
289.8049	0.1582
290.0177	0.1588
290.2304	0.157
290.4432	0.1811
290.6559	0.1607
290.8686	0.1705
291.0813	0.1678
291.294	0.1807
291.5067	0.186
291.7194	0.1757
291.932	0.1742
292.1447	0.1768
292.3573	0.1588
292.5699	0.1753
292.7825	0.1749
292.9951	0.165
293.2077	0.1625
293.4203	0.1726
293.6328	0.1579
293.8454	0.1704
294.0579	0.1725
294.2704	0.1529
294.4829	0.1605
294.6954	0.1734
294.9079	0.1664
295.1204	0.1677
295.3328	0.1659
295.5453	0.17
295.7577	0.1738
295.9701	0.1594
296.1825	0.175
296.3949	0.1579
296.6073	0.1584
296.8197	0.1579
297.0321	0.1838
297.2444	0.1594
297.4567	0.1601
297.6691	0.158
297.8814	0.1565
298.0937	0.164
298.306	0.1763
298.5182	0.1626
298.7305	0.1754
298.9428	0.1595
299.155	0.1658
299.3672	0.1574
299.5794	0.163
299.7916	0.1629
300.0038	0.1732
300.216	0.1748
300.4282	0.1794
300.6403	0.1658
300.8525	0.1747
301.0646	0.162
301.2767	0.1666
301.4888	0.1688
301.7009	0.1712
301.913	0.1672
302.125	0.1709
302.3371	0.1654
302.5491	0.1657
302.7612	0.1673
302.9732	0.1681
303.1852	0.1567
303.3972	0.1566
303.6092	0.1725
303.8211	0.1615
304.0331	0.1512
304.245	0.1516
304.457	0.1597
304.6689	0.1568
304.8808	0.1652
305.0927	0.146
305.3046	0.1543
305.5164	0.1656
305.7283	0.1545
305.9401	0.1564
306.152	0.153
306.3638	0.1584
306.5756	0.1433
306.7874	0.1493
306.9992	0.1598
307.2109	0.1441
307.4227	0.1355
307.6344	0.1465
307.8462	0.1412
308.0579	0.1336
308.2696	0.1254
308.4813	0.1271
308.693	0.1303
308.9046	0.1375
309.1163	0.1197
309.328	0.1187
309.5396	0.1329
309.7512	0.115
309.9628	0.1163
310.1744	0.1263
310.386	0.1235
310.5976	0.1222
310.8091	0.1122
311.0207	0.1243
311.2322	0.1249
311.4437	0.112
311.6552	0.1079
311.8667	0.1243
312.0782	0.1013
312.2897	0.1043
312.5012	0.1041
312.7126	0.0924
312.924	0.0926
313.1355	0.1157
313.3469	0.1116
313.5583	0.1128
313.7696	0.1043
313.981	0.105
314.1924	0.1028
314.4037	0.094
314.6151	0.1087
314.8264	0.0989
315.0377	0.0992
315.249	0.1017
315.4603	0.109
315.6716	0.1024
315.8828	0.0979
316.0941	0.0966
316.3053	0.0924
316.5165	0.0918
316.7277	0.1029
316.9389	0.1045
317.1501	0.1026
317.3613	0.1
317.5724	0.0893
317.7836	0.1014
317.9947	0.0893
318.2058	0.1044
318.417	0.0857
318.6281	0.0856
318.8391	0.0893
319.0502	0.0934
319.2613	0.1001
319.4723	0.0969
319.6834	0.1019
319.8944	0.0954
320.1054	0.1043
320.3164	0.1035
320.5274	0.0834
320.7383	0.0959
320.9493	0.1006
321.1602	0.1081
321.3712	0.0894
321.5821	0.0987
321.793	0.0951
322.0039	0.0963
322.2148	0.0887
322.4257	0.0991
322.6365	0.0981
322.8474	0.1007
323.0582	0.0985
323.269	0.0936
323.4798	0.1117
323.6906	0.094
323.9014	0.1098
324.1122	0.1024
324.3229	0.0939
324.5337	0.0949
324.7444	0.083
324.9551	0.1027
325.1658	0.102
325.3765	0.1052
325.5872	0.0999
325.7979	0.0982
326.0085	0.1038
326.2192	0.1081
326.4298	0.1056
326.6404	0.0925
326.851	0.0861
327.0616	0.0987
327.2722	0.1045
327.4828	0.1052
327.6933	0.0967
327.9039	0.1039
328.1144	0.1123
328.3249	0.113
328.5354	0.0896
328.7459	0.0947
328.9564	0.0845
329.1669	0.0969
329.3773	0.1107
329.5878	0.1022
329.7982	0.0887
330.0086	0.1019
330.219	0.1048
330.4294	0.0924
330.6398	0.0983
330.8502	0.0906
331.0605	0.1016
331.2708	0.098
331.4812	0.1053
331.6915	0.1046
331.9018	0.0983
332.1121	0.101
332.3224	0.1019
332.5326	0.1123
332.7429	0.1
332.9531	0.1284
333.1633	0.1088
333.3735	0.1052
333.5837	0.1005
333.7939	0.1064
334.0041	0.112
334.2143	0.1194
334.4244	0.0982
334.6346	0.0935
334.8447	0.1179
335.0548	0.1008
335.2649	0.0991
335.475	0.1103
335.685	0.0999
335.8951	0.1093
336.1051	0.1059
336.3152	0.115
336.5252	0.0963
336.7352	0.1107
336.9452	0.1038
337.1552	0.1164
337.3652	0.1113
337.5751	0.1101
337.7851	0.1099
337.995	0.0998
338.2049	0.1057
338.4148	0.1158
338.6247	0.1174
338.8346	0.1026
339.0445	0.1145
339.2543	0.106
339.4642	0.1054
339.674	0.0984
339.8838	0.094
340.0936	0.1152
340.3034	0.1191
340.5132	0.1104
340.7229	0.1141
340.9327	0.1244
341.1424	0.116
341.3522	0.1344
341.5619	0.1216
341.7716	0.1301
341.9813	0.118
342.1909	0.1118
342.4006	0.1056
342.6102	0.1286
342.8199	0.1135
343.0295	0.1156
343.2391	0.1238
343.4487	0.1275
343.6583	0.1214
343.8679	0.1359
344.0774	0.1233
344.287	0.1202
344.4965	0.112
344.706	0.1273
344.9155	0.1177
345.125	0.1272
345.3345	0.1305
345.544	0.1294
345.7534	0.1315
345.9629	0.1259
346.1723	0.1331
346.3817	0.1253
346.5911	0.1264
346.8005	0.1349
347.0099	0.1271
347.2193	0.1323
347.4286	0.1298
347.638	0.1255
347.8473	0.1366
348.0566	0.1358
348.2659	0.1327
348.4752	0.1346
348.6845	0.1284
348.8937	0.1204
349.103	0.1288
349.3122	0.1131
349.5214	0.122
349.7306	0.1312
349.9398	0.142
350.149	0.142
350.3582	0.1168
350.5674	0.1508
350.7765	0.1415
350.9856	0.1436
351.1948	0.1463
351.4039	0.1221
351.613	0.1432
351.822	0.1503
352.0311	0.1394
352.2402	0.1315
352.4492	0.1471
352.6582	0.1492
352.8672	0.1449
353.0762	0.1429
353.2852	0.145
353.4942	0.1435
353.7032	0.1558
353.9121	0.1643
354.1211	0.1423
354.33	0.1498
354.5389	0.1465
354.7478	0.1491
354.9567	0.1434
355.1655	0.1363
355.3744	0.1652
355.5833	0.1649
355.7921	0.1835
356.0009	0.1611
356.2097	0.1785
356.4185	0.1608
356.6273	0.1654
356.8361	0.1626
357.0448	0.1574
357.2536	0.1687
357.4623	0.1608
357.671	0.1641
357.8797	0.1669
358.0884	0.1737
358.2971	0.1637
358.5057	0.1546
358.7144	0.1657
358.923	0.1611
359.1316	0.1692
359.3402	0.1666
359.5488	0.179
359.7574	0.1673
359.966	0.1825
360.1746	0.174
360.3831	0.1764
360.5916	0.1779
360.8002	0.1559
361.0087	0.1797
361.2172	0.1808
361.4256	0.1815
361.6341	0.1909
361.8426	0.1863
362.051	0.1832
362.2594	0.1795
362.4678	0.1952
362.6762	0.1968
362.8846	0.186
363.093	0.1738
363.3014	0.1769
363.5097	0.1672
363.718	0.1876
363.9264	0.1929
364.1347	0.1792
364.343	0.2037
364.5513	0.2055
364.7595	0.206
364.9678	0.2036
365.176	0.1928
365.3842	0.2013
365.5925	0.1941
365.8007	0.2008
366.0089	0.2171
366.217	0.1842
366.4252	0.2088
366.6333	0.2151
366.8415	0.2112
367.0496	0.1925
367.2577	0.2119
367.4658	0.2301
367.6739	0.2171
367.882	0.211
368.09	0.1952
368.2981	0.219
368.5061	0.1974
368.7141	0.2249
368.9221	0.2308
369.1301	0.2171
369.3381	0.1972
369.5461	0.2194
369.754	0.2235
369.962	0.2326
370.1699	0.2226
370.3778	0.2451
370.5857	0.2243
370.7936	0.212
371.0015	0.2131
371.2093	0.2225
371.4172	0.2214
371.625	0.2325
371.8328	0.215
372.0406	0.2117
372.2484	0.2279
372.4562	0.2401
372.664	0.2099
372.8717	0.2484
373.0795	0.2137
373.2872	0.2363
373.4949	0.2168
373.7026	0.2401
373.9103	0.238
374.118	0.2267
374.3256	0.2261
374.5333	0.217
374.7409	0.2311
374.9485	0.2343
375.1561	0.2354
375.3637	0.2642
375.5713	0.2552
375.7789	0.238
375.9864	0.2336
376.194	0.2213
376.4015	0.2396
376.609	0.2441
376.8165	0.2504
377.024	0.2467
377.2315	0.2412
377.4389	0.245
377.6464	0.2529
377.8538	0.2432
378.0612	0.2455
378.2686	0.241
378.476	0.2609
378.6834	0.2609
378.8908	0.253
379.0981	0.2533
379.3055	0.2476
379.5128	0.2548
379.7201	0.2573
379.9274	0.2476
380.1347	0.2579
380.342	0.2616
380.5492	0.2576
380.7565	0.2539
380.9637	0.2575
381.1709	0.2675
381.3781	0.2475
381.5853	0.2736
381.7925	0.264
381.9997	0.278
382.2068	0.2712
382.4139	0.2708
382.6211	0.2513
382.8282	0.2536
383.0353	0.2675
383.2424	0.2584
383.4494	0.2683
383.6565	0.2589
383.8635	0.2806
384.0706	0.2696
384.2776	0.27
384.4846	0.2522
384.6916	0.259
384.8986	0.2626
385.1055	0.252
385.3125	0.2686
385.5194	0.2619
385.7263	0.2654
385.9333	0.2708
386.1402	0.2544
386.347	0.2507
386.5539	0.2514
386.7608	0.2709
386.9676	0.2524
387.1744	0.2604
387.3813	0.2457
387.5881	0.2707
387.7948	0.2581
388.0016	0.2539
388.2084	0.2745
388.4151	0.2487
388.6219	0.2619
388.8286	0.2614
389.0353	0.2609
389.242	0.2536
389.4487	0.2568
389.6553	0.2513
389.862	0.2462
390.0686	0.2386
390.2753	0.2589
390.4819	0.2578
390.6885	0.2281
390.8951	0.2522
391.1016	0.255
391.3082	0.2404
391.5147	0.2535
391.7213	0.2494
391.9278	0.2401
392.1343	0.2409
392.3408	0.2568
392.5473	0.2438
392.7537	0.2428
392.9602	0.2388
393.1666	0.2462
393.373	0.2515
393.5794	0.2415
393.7858	0.2443
393.9922	0.2457
394.1986	0.2393
394.4049	0.2523
394.6113	0.2282
394.8176	0.2161
395.0239	0.2315
395.2302	0.2168
395.4365	0.2177
395.6428	0.2309
395.8491	0.2273
396.0553	0.2226
396.2615	0.2276
396.4678	0.2199
396.674	0.2059
396.8802	0.2149
397.0863	0.2443
397.2925	0.2225
397.4987	0.236
397.7048	0.2174
397.9109	0.2263
398.117	0.2208
398.3231	0.212
398.5292	0.2381
398.7353	0.2236
398.9413	0.2246
399.1474	0.2141
399.3534	0.2129
399.5594	0.211
399.7654	0.2375
399.9714	0.232
400.1774	0.2232
400.3833	0.218
400.5893	0.2151
400.7952	0.2366
401.0011	0.2309
401.207	0.2207
401.4129	0.2294
401.6188	0.2153
401.8247	0.2402
402.0305	0.2119
402.2364	0.223
402.4422	0.2335
402.648	0.2323
402.8538	0.2304
403.0596	0.2084
403.2654	0.228
403.4711	0.2243
403.6768	0.2413
403.8826	0.2326
404.0883	0.2128
404.294	0.2002
404.4997	0.2317
404.7054	0.2135
404.911	0.2069
405.1167	0.2216
405.3223	0.2251
405.5279	0.239
405.7335	0.2347
405.9391	0.2529
406.1447	0.2214
406.3502	0.2437
406.5558	0.2246
406.7613	0.2338
406.9668	0.2381
407.1724	0.2094
407.3778	0.2189
407.5833	0.2219
407.7888	0.229
407.9942	0.2211
408.1997	0.2219
408.4051	0.2209
408.6105	0.2265
408.8159	0.2058
409.0213	0.2103
409.2267	0.2258
409.432	0.2088
409.6374	0.2287
409.8427	0.2101
410.048	0.2093
410.2533	0.2356
410.4586	0.2141
410.6639	0.229
410.8691	0.2015
411.0744	0.207
411.2796	0.205
411.4848	0.213
411.69	0.2132
411.8952	0.2279
412.1004	0.212
412.3056	0.2294
412.5107	0.2086
412.7158	0.2244
412.921	0.2026
413.1261	0.2299
413.3312	0.1992
413.5362	0.2055
413.7413	0.2142
413.9464	0.2083
414.1514	0.219
414.3564	0.2237
414.5614	0.1908
414.7664	0.2186
414.9714	0.2178
415.1764	0.2106
415.3813	0.2256
415.5863	0.2166
415.7912	0.203
415.9961	0.2143
416.201	0.2263
416.4059	0.2254
416.6108	0.1977
416.8156	0.1964
417.0205	0.2105
417.2253	0.2147
417.4301	0.2248
417.6349	0.1969
417.8397	0.2082
418.0445	0.2
418.2492	0.198
418.454	0.2202
418.6587	0.21
418.8634	0.2072
419.0681	0.1945
419.2728	0.2075
419.4775	0.1974
419.6822	0.19
419.8868	0.176
420.0915	0.2086
420.2961	0.1832
420.5007	0.1963
420.7053	0.2032
420.9099	0.1963
421.1144	0.2032
421.319	0.176
421.5235	0.2116
421.728	0.1961
421.9325	0.2009
422.137	0.222
422.3415	0.1973
422.546	0.196
422.7504	0.2005
422.9549	0.2084
423.1593	0.2069
423.3637	0.2041
423.5681	0.1886
423.7725	0.194
423.9769	0.1779
424.1812	0.1846
424.3856	0.1879
424.5899	0.1846
424.7942	0.1853
424.9985	0.1922
425.2028	0.1789
425.4071	0.2026
425.6113	0.1741
425.8156	0.1837
426.0198	0.1791
426.224	0.1658
426.4282	0.1567
426.6324	0.1797
426.8366	0.1622
427.0407	0.1655
427.2449	0.1902
427.449	0.1641
427.6531	0.1676
427.8572	0.1647
428.0613	0.1507
428.2654	0.1791
428.4694	0.152
428.6735	0.1539
428.8775	0.1911
429.0815	0.1546
429.2855	0.1507
429.4895	0.1742
429.6935	0.1552
429.8975	0.1824
430.1014	0.1525
430.3053	0.1362
430.5093	0.1485
430.7132	0.13
430.9171	0.1429
431.1209	0.1468
431.3248	0.1406
431.5286	0.1598
431.7325	0.1504
431.9363	0.1468
432.1401	0.1426
432.3439	0.1269
432.5477	0.1041
432.7514	0.1345
432.9552	0.1383
433.1589	0.1301
433.3627	0.1215
433.5664	0.1285
433.7701	0.1191
433.9737	0.1246
434.1774	0.1136
434.3811	0.1209
434.5847	0.1207
434.7883	0.1082
434.9919	0.1103
435.1955	0.1155
435.3991	0.1206
435.6027	0.1121
435.8062	0.1089
436.0098	0.1042
436.2133	0.1085
436.4168	0.091
436.6203	0.1125
436.8238	0.1042
437.0272	0.1052
437.2307	0.0972
437.4341	0.1099
437.6375	0.1262
437.841	0.0737
438.0443	0.0989
438.2477	0.094
438.4511	0.0899
438.6545	0.1064
438.8578	0.0904
439.0611	0.0898
439.2644	0.081
439.4677	0.0833
439.671	0.0856
439.8743	0.0907
440.0775	0.0838
440.2808	0.0776
440.484	0.0706
440.6872	0.0608
440.8904	0.0698
441.0936	0.0825
441.2967	0.078
441.4999	0.0834
441.703	0.0691
441.9062	0.0593
442.1093	0.0745
442.3124	0.0732
442.5155	0.0448
442.7185	0.0644
442.9216	0.0515
443.1246	0.0629
443.3276	0.0548
443.5307	0.0628
443.7337	0.0719
443.9366	0.065
444.1396	0.0438
444.3426	0.0512
444.5455	0.0587
444.7484	0.0543
444.9513	0.0689
445.1542	0.056
445.3571	0.0549
445.56	0.059
445.7628	0.0421
445.9657	0.0527
446.1685	0.056
446.3713	0.0571
446.5741	0.0542
446.7769	0.0377
446.9797	0.0456
447.1824	0.0469
447.3852	0.0223
447.5879	0.0521
447.7906	0.0541
447.9933	0.0498
448.196	0.0283
448.3986	0.0297
448.6013	0.0352
448.8039	0.0254
449.0066	0.0198
449.2092	0.0317
449.4118	0.041
449.6143	0.0333
449.8169	0.0423
450.0195	0.0192
450.222	0.0102
450.4245	0.0292
450.627	0.0297
450.8295	0.0327
451.032	0.0227
451.2345	0.0256
451.4369	0.0266
451.6394	0.0228
451.8418	0.0021
452.0442	0.0261
452.2466	0.0338
452.449	0.0123
452.6513	0.0176
452.8537	0.0135
453.056	0.006
453.2583	0.015
453.4607	0.0121
453.663	0.0205
453.8652	0.023
454.0675	0.0083
454.2697	0.0255
454.472	0.0138
454.6742	0.0183
454.8764	0.0123
455.0786	0.0326
455.2808	0.0163
455.4829	0.0242
455.6851	0.0219
455.8872	0.0245
456.0893	0.0363
456.2915	-0.0031
456.4935	0.0244
456.6956	0.0026
456.8977	0.0091
457.0997	0.0035
457.3018	-0.0099
457.5038	0.0136
457.7058	0.0119
457.9078	0.0068
458.1098	0.0132
458.3117	0.0198
458.5137	0.0121
458.7156	0.0148
458.9175	-0.0007
459.1194	0.0058
459.3213	0.0039
459.5232	0.0029
459.725	-0.0075
459.9269	-0.0035
460.1287	0.0102
460.3305	-0.0005
460.5323	0.0104
460.7341	-0.0012
460.9359	0.002
461.1376	0.0123
461.3394	0.0039
461.5411	0.0038
461.7428	-0.0036
461.9445	0.007
462.1462	0.0113
462.3479	0.0012
462.5495	0.0008
462.7512	0.0138
462.9528	0.0019
463.1544	-0.0121
463.356	0.0042
463.5576	-0.0014
463.7592	-0.0095
463.9607	0.0155
464.1623	0.0163
464.3638	0.0214
464.5653	-0.0099
464.7668	0.0019
464.9683	0.0106
465.1697	0.0114
465.3712	-0.0087
465.5726	0.0058
465.7741	-0.0064
465.9755	0.0001
466.1769	-0.0069
466.3782	-0.0089
466.5796	0.0006
466.7809	0.0068
466.9823	-0.0029
467.1836	0.0028
467.3849	-0.0029
467.5862	-0.0002
467.7875	-0.0025
467.9887	0.0128
468.19	-0.0044
468.3912	-0.0054
468.5924	0.0046
468.7936	-0.0046
468.9948	-0.006
469.196	0.0192
469.3972	0.0026
469.5983	0.014
469.7994	-0.0194
470.0006	-0.0052
470.2017	-0.012
470.4027	-0.0065
470.6038	0.0196
470.8049	-0.0047
471.0059	-0.007
471.2069	-0.0194
471.408	0.0111
471.6089	-0.0009
471.8099	0.0013
472.0109	0.0053
472.2119	0.0039
472.4128	-0.0122
472.6137	0.0093
472.8146	-0.0092
473.0155	-0.0043
473.2164	-0.0024
473.4173	0.0142
473.6181	0.0178
473.819	0.0088
474.0198	-0.011
474.2206	0.0014
474.4214	-0.0038
474.6222	0.0082
474.8229	-0.0124
475.0237	-0.0144
475.2244	-0.008
475.4251	-0.0088
475.6258	-0.0059
475.8265	-0.0109
476.0272	0.0098
476.2278	0.0047
476.4285	-0.0139
476.6291	-0.007
476.8297	0.0128
477.0303	-0.0068
477.2309	-0.0027
477.4315	-0.0116
477.632	-0.0003
477.8326	-0.001
478.0331	-0.0104
478.2336	-0.001
478.4341	-0.0033
478.6346	-0.0092
478.8351	0.0037
479.0355	0.0045
479.236	0.002
479.4364	-0.0007
479.6368	0.003
479.8372	-0.0104
480.0376	-0.0086
480.2379	-0.0154
480.4383	-0.0108
480.6386	0.0035
480.8389	-0.003
481.0392	-0.0092
481.2395	-0.0199
481.4398	0.0085
481.6401	0.0033
481.8403	-0.0073
482.0405	-0.0016
482.2408	-0.0049
482.441	0.0195
482.6411	-0.0019
482.8413	0.0066
483.0415	-0.0056
483.2416	-0.0057
483.4417	-0
483.6419	-0.0056
483.8419	-0.0066
484.042	0.0022
484.2421	0.0051
484.4422	-0.0026
484.6422	-0.0025
484.8422	0.0029
485.0422	0.0026
485.2422	0.0008
485.4422	-0.0124
485.6422	-0.0022
485.8421	-0.0068
486.042	0.0022
486.242	0.002
486.4419	-0.0123
486.6417	-0.0134
486.8416	0.0049
487.0415	-0.0062
487.2413	-0.0043
487.4411	0.0032
487.641	-0.0104
487.8408	0.0005
488.0405	-0.0037
488.2403	-0.0093
488.4401	0.0085
488.6398	-0.0055
488.8395	-0.0181
489.0392	-0.0041
489.2389	-0.0094
489.4386	0.0018
489.6383	-0.0016
489.8379	0.0006
490.0376	-0.0067
490.2372	-0.0062
490.4368	-0.0174
490.6364	-0.0126
490.836	-0.0124
491.0355	-0.0116
491.2351	-0.0044
491.4346	-0.0016
491.6341	-0.0152
491.8336	0.0021
492.0331	-0.0113
492.2326	-0.0173
492.432	0.0006
492.6315	-0.008
492.8309	-0.0167
493.0303	-0.0148
493.2297	-0.0089
493.4291	-0.0106
493.6284	-0.0101
493.8278	0.0029
494.0271	-0.0046
494.2264	0.0034
494.4257	-0.0109
494.625	-0.0049
494.8243	-0.0103
495.0236	-0.003
495.2228	-0.0087
495.422	-0.0034
495.6213	-0.0048
495.8205	0.0044
496.0196	-0.0146
496.2188	-0.0008
496.418	-0.0102
496.6171	0.0001
496.8162	-0.002
497.0153	0.0028
497.2144	-0.0047
497.4135	0.0038
497.6126	-0.0095
497.8116	-0.0161
498.0107	-0.0069
498.2097	-0.0107
498.4087	-0.0084
498.6077	-0.0059
498.8067	-0.0001
499.0056	0.002
499.2046	-0.0118
499.4035	-0.0239
499.6024	-0.012
499.8013	0.0028
500.0002	-0.019
500.199	0.0026
500.3979	-0.0093
500.5967	-0.0071
500.7956	-0.0034
500.9944	-0.0002
501.1932	-0.0148
501.3919	-0.0099
501.5907	-0.0172
501.7895	-0.0061
501.9882	-0.0116
502.1869	-0.0018
502.3856	-0.0104
502.5843	-0.0109
502.783	-0.0084
502.9816	-0.0017
503.1803	-0.0129
503.3789	-0.0129
503.5775	-0.0009
503.7761	-0.0188
503.9747	-0.0109
504.1732	-0.0117
504.3718	-0.0037
504.5703	-0.0109
504.7689	-0.0093
504.9674	-0.0009
505.1658	-0.0126
505.3643	-0.0072
505.5628	-0.0063
505.7612	-0.0054
505.9597	0.0065
506.1581	-0.0074
506.3565	0.0077
506.5549	-0.0125
506.7532	-0.0139
506.9516	-0.0033
507.1499	-0.0033
507.3482	-0.0116
507.5465	-0.0013
507.7448	-0.006
507.9431	-0.0085
508.1414	0.0007
508.3396	-0.0077
508.5379	-0.0033
508.7361	-0.0094
508.9343	-0.0123
509.1325	-0.0013
509.3306	-0.0004
509.5288	-0.0026
509.7269	0.003
509.9251	-0.004
510.1232	-0.0073
510.3213	-0.0009
510.5193	-0.0008
510.7174	-0.0161
510.9154	-0.0074
511.1135	-0.0046
511.3115	-0.0038
511.5095	-0.0042
511.7075	-0.0103
511.9055	-0.0067
512.1034	-0.0052
512.3014	-0.0116
512.4993	-0.0067
512.6972	-0.0065
512.8951	-0.018
513.093	-0.0088
513.2908	0.0019
513.4887	-0.0025
513.6865	-0.0015
513.8844	0.0035
514.0822	-0.0176
514.2799	-0.0163
514.4777	-0.0095
514.6755	-0.0125
514.8732	-0.0103
515.0709	0.0066
515.2687	-0.0073
515.4664	-0.002
515.664	-0.0042
515.8617	-0.0138
516.0594	-0.0068
516.257	-0.0064
516.4546	-0.0178
516.6522	-0.0121
516.8498	-0.0091
517.0474	-0.0019
517.2449	-0.0055
517.4425	-0.0219
517.64	-0.0096
517.8375	0.0084
518.035	-0.004
518.2325	-0.0068
518.43	-0.0021
518.6274	-0.0067
518.8249	-0.0167
519.0223	-0.0065
519.2197	-0.0119
519.4171	-0.0063
519.6145	-0.0087
519.8118	-0.0045
520.0092	0.0016
520.2065	-0.0096
520.4038	-0.0195
520.6011	-0.0036
520.7984	-0.0127
520.9956	-0.0102
521.1929	-0.0151
521.3901	0.0052
521.5874	0.0019
521.7846	0.0002
521.9818	-0.0103
522.1789	-0.003
522.3761	0.0001
522.5732	-0.0113
522.7704	-0.0092
522.9675	-0.0007
523.1646	-0.0074
523.3617	-0.0035
523.5587	-0.004
523.7558	-0.0065
523.9528	-0.0048
524.1498	0.0063
524.3468	-0.0027
524.5438	-0.0019
524.7408	-0.0028
524.9378	0.0129
525.1347	-0.0089
525.3316	0.0044
525.5285	-0.0143
525.7254	-0.0058
525.9223	-0.0021
526.1192	-0.0096
526.316	-0.0112
526.5129	0.008
526.7097	0.0001
526.9065	-0.0024
527.1033	-0.0108
527.3	0.0055
527.4968	-0.0036
527.6935	0.0049
527.8903	-0.0104
528.087	-0.0021
528.2837	-0.0049
528.4804	-0.011
528.677	-0.0094
528.8737	-0.005
529.0703	0.0062
529.2669	-0.0005
529.4635	-0.0063
529.6601	-0.0024
529.8567	-0.0112
530.0532	-0.014
530.2498	0.0024
530.4463	0.0018
530.6428	-0.0022
530.8393	-0.002
531.0358	-0.0031
531.2322	-0.0038
531.4287	-0.0015
531.6251	-0.0032
531.8215	0.0053
532.0179	-0.0017
532.2143	0.0024
532.4107	0.0016
532.607	-0
532.8034	0.0001
532.9997	0.0068
533.196	-0.0102
533.3923	-0.0148
533.5886	0.0044
533.7848	-0.0015
533.9811	-0.0007
534.1773	-0.0065
534.3735	0.0034
534.5697	-0.0078
534.7659	0.0012
534.9621	-0.003
535.1582	-0.0083
535.3544	-0.0044
535.5505	-0.004
535.7466	-0.0047
535.9427	-0.0021
536.1387	-0.0021
536.3348	-0.0084
536.5308	-0.0032
536.7269	-0.0155
536.9229	-0.0088
537.1189	-0.0083
537.3148	-0.0002
537.5108	-0.0074
537.7068	0.0014
537.9027	-0.0003
538.0986	-0.0049
538.2945	-0.0102
538.4904	-0.0091
538.6863	-0.0057
538.8821	-0.0092
539.078	-0.0126
539.2738	-0.0001
539.4696	-0.0101
539.6654	0.0043
539.8611	0.0021
540.0569	-0.0033
540.2526	-0.0027
540.4484	0.0035
540.6441	0.0015
540.8398	-0.0063
541.0355	0.0054
541.2311	-0.0047
541.4268	-0.0133
541.6224	0.0065
541.818	0.0006
542.0136	-0.0032
542.2092	-0.0034
542.4048	0.0095
542.6003	-0.0007
542.7959	-0.0114
542.9914	-0.0025
543.1869	-0.007
543.3824	-0.0073
543.5779	-0.0124
543.7734	0.0008
543.9688	-0.0035
544.1642	0.0008
544.3596	-0.0016
544.555	-0.0054
544.7504	-0.0055
544.9458	-0.0096
545.1411	-0.0049
545.3365	-0.0004
545.5318	-0.0082
545.7271	-0.0008
545.9224	-0.0084
546.1177	0.0012
546.3129	0.0057
546.5081	-0.0072
546.7034	-0.0103
546.8986	-0.0047
547.0938	-0.011
547.289	-0.0065
547.4841	0.0008
547.6793	0.0112
547.8744	-0.01
548.0695	-0.0021
548.2646	-0.0091
548.4597	0.0024
548.6548	-0.0046
548.8498	0.0028
549.0448	-0.0009
549.2399	-0.0038
549.4349	0.0113
549.6298	-0.0033
549.8248	-0.006
550.0198	-0.0028
550.2147	-0.0058
550.4096	-0.0089
550.6045	-0.0086
550.7994	-0.0013
550.9943	-0.0038
551.1892	0.001
551.384	-0.0053
551.5788	-0.0057
551.7737	0.0017
551.9685	0.0019
552.1632	0.0092
552.358	-0.0137
552.5528	0.0002
552.7475	-0.0049
552.9422	-0.0004
553.1369	-0.0025
553.3316	0.0048
553.5263	-0.0176
553.7209	0.0067
553.9156	-0.0028
554.1102	-0.0081
554.3048	-0.0024
554.4994	0.0079
554.694	-0.0007
554.8885	0.0028
555.0831	-0.007
555.2776	-0.0048
555.4721	-0.0061
555.6666	-0.0084
555.8611	0.0044
556.0555	-0.0064
556.25	0.0073
556.4444	-0.0149
556.6388	0.001
556.8332	0.0005
557.0276	-0.002
557.222	-0.0048
557.4163	0.0039
557.6107	-0.0033
557.805	0.0058
557.9993	-0.005
558.1936	0.0043
558.3879	0.0033
558.5821	-0.007
558.7764	-0.0064
558.9706	-0.0046
559.1648	0
559.359	-0.0053
559.5532	-0.0046
559.7473	-0.0049
559.9415	0.0017
560.1356	-0.0055
560.3297	-0.01
560.5238	-0.0041
560.7179	-0.0052
560.9119	-0.0092
561.106	0.0002
561.3	-0.0055
561.494	-0.0004
561.688	-0.0059
561.882	-0.0121
562.076	-0.0031
562.2699	0.011
562.4639	-0.0089
562.6578	0.0027
562.8517	0.0024
563.0456	-0.0065
563.2395	0.001
563.4333	-0.0095
563.6272	0.0046
563.821	-0.0038
564.0148	0.0022
564.2086	-0.0056
564.4024	-0.0045
564.5961	-0.0098
564.7899	0.0026
564.9836	-0.0016
565.1773	-0.0076
565.371	0.0083
565.5647	0.0033
565.7584	-0.0067
565.952	-0.0033
566.1456	-0
566.3393	-0.0015
566.5329	0.0012
566.7264	-0.0059
566.92	-0.0038
567.1136	-0.0004
567.3071	-0.0058
567.5006	0.005
567.6941	0.0095
567.8876	0.001
568.0811	-0.0026
568.2745	0.0005
568.468	0.0018
568.6614	0.0051
568.8548	-0.0035
569.0482	-0.0057
569.2416	0.0006
569.4349	0.0034
569.6283	0.0012
569.8216	0.0004
570.0149	0.0032
570.2082	0.0092
570.4015	0.0116
570.5947	0.0101
570.788	0.0009
570.9812	0.0016
571.1744	-0.003
571.3676	-0.0044
571.5608	-0.0029
571.754	-0.0002
571.9471	0.0069
572.1402	-0.0085
572.3333	-0.0015
572.5264	-0.0034
572.7195	0.0041
572.9126	0.0004
573.1057	-0.0026
573.2987	-0.0026
573.4917	-0.0044
573.6847	-0.0061
573.8777	0.0048
574.0707	0.0066
574.2636	-0.0062
574.4566	-0.0019
574.6495	0.01
574.8424	-0.0019
575.0353	0.0005
575.2281	0.0076
575.421	-0.0011
575.6138	0.0021
575.8067	-0.0023
575.9995	0.0068
576.1923	-0.0013
576.385	-0
576.5778	0.0008
576.7706	-0.0013
576.9633	0.0051
577.156	0.002
577.3487	0.001
577.5414	0.0001
577.734	-0.0045
577.9267	0.0072
578.1193	-0.013
578.3119	-0.0023
578.5045	0.0002
578.6971	0.0038
578.8897	0.0046
579.0822	0.0007
579.2747	-0.003
579.4673	0.0014
579.6598	-0.0039
579.8522	0.0002
580.0447	-0.0054
580.2372	-0.0051
580.4296	0.011
580.622	-0.0006
580.8144	-0.0007
581.0068	-0.0038
581.1992	-0.014
581.3915	-0.0017
581.5839	-0.0065
581.7762	-0.0087
581.9685	0.0004
582.1608	-0.0006
582.353	0.0028
582.5453	-0.0005
582.7375	0.0053
582.9298	0.0037
583.122	0.0002
583.3142	0.0026
583.5063	-0
583.6985	-0.0023
583.8906	-0.0034
584.0827	-0.0078
584.2749	0.0051
584.4669	0.0011
584.659	0.0001
584.8511	-0.0028
585.0431	-0.001
585.2352	0.0016
585.4272	-0.0016
585.6192	-0.0018
585.8111	-0.001
586.0031	0.001
586.195	-0.004
586.387	0.0023
586.5789	0.0008
586.7708	0
586.9627	-0.0015
587.1545	-0.0061
587.3464	-0.002
587.5382	0.0025
587.73	0.0012
587.9218	0.0124
588.1136	-0.0048
588.3053	0.0089
588.4971	-0.0021
588.6888	-0.0144
588.8805	-0.0036
589.0722	0.0054
589.2639	-0.003
589.4556	-0.0008
589.6472	-0.0049
589.8389	-0.0045
590.0305	-0.0033
590.2221	0.0067
590.4137	-0.0001
590.6052	0.0084
590.7968	0.0005
590.9883	0.0035
591.1798	-0.0001
591.3713	0.004
591.5628	0.0012
591.7543	0.0063
591.9458	0.0025
592.1372	0.0063
592.3286	0.0076
592.52	0.005
592.7114	-0.0027
592.9028	-0.0027
593.0941	-0.0024
593.2855	0.0017
593.4768	-0.0072
593.6681	-0.0047
593.8594	0.0039
594.0506	0.0009
594.2419	0.0041
594.4331	0.001
594.6244	-0.0004
594.8156	-0.007
595.0067	0.0007
595.1979	0.0041
595.3891	0.007
595.5802	-0.0015
595.7713	0.0005
595.9624	0.0017
596.1535	0.0023
596.3446	-0.0036
596.5357	-0.001
596.7267	0.0043
596.9177	0.0019
597.1087	-0.0004
597.2997	0.0016
597.4907	0.0036
597.6817	-0.0113
597.8726	0.0001
598.0635	-0.0064
598.2544	0.002
598.4453	-0.0039
598.6362	-0.0036
598.827	-0.0079
599.0179	0.0069
599.2087	0.0014
599.3995	0.0015
599.5903	0.0034
599.7811	0.0038
599.9718	0.0015
600.1626	-0.0037
600.3533	-0.0078
600.544	-0.0012
600.7347	0.0017
600.9254	-0.0018
601.116	-0.0088
601.3067	-0.0029
601.4973	-0.004
601.6879	0.0057
601.8785	-0.002
602.0691	0.0022
602.2596	0.0002
602.4502	0.0021
602.6407	0.005
602.8312	0.0036
603.0217	-0.0096
603.2122	-0.0008
603.4027	0.0008
603.5931	-0.0029
603.7835	0.0004
603.9739	-0.0028
604.1643	-0.0023
604.3547	-0.0015
604.5451	0.0048
604.7354	0.0031
604.9257	0.0047
605.116	-0.0003
605.3063	0.0011
605.4966	0.0049
605.6869	0.0038
605.8771	0.0068
606.0673	0.0039
606.2575	0.0064
606.4477	0.0165
606.6379	0.0056
606.8281	-0.0013
607.0182	0.0005
607.2083	0.0067
607.3985	-0.0056
607.5885	0.0041
607.7786	0.0047
607.9687	-0.0037
608.1587	0.0076
608.3488	0.0067
608.5388	-0.0019
608.7288	-0.0015
608.9187	-0.0037
609.1087	-0.0046
609.2986	-0.0003
609.4886	-0.0072
609.6785	0.0041
609.8684	0.0044
610.0582	-0.0009
610.2481	0.0052
610.4379	-0.0018
610.6278	-0.0012
610.8176	-0
611.0074	-0.0085
611.1971	-0.003
611.3869	0.0022
611.5766	-0.0056
611.7664	0.0046
611.9561	0.0026
612.1458	0.0045
612.3354	-0.0037
612.5251	0.0013
612.7147	0.005
612.9044	0.0069
613.094	-0.0072
613.2836	-0.0026
613.4731	-0.0064
613.6627	-0.0025
613.8522	0.0026
614.0417	0.0046
614.2313	-0.0011
614.4207	-0.0041
614.6102	0.0005
614.7997	-0.0032
614.9891	-0.0083
615.1785	0.0034
615.3679	-0.0031
615.5573	0.0056
615.7467	-0.0028
615.9361	0.0034
616.1254	-0.0006
616.3147	0.0036
616.504	0.0087
616.6933	0.0014
616.8826	0.0066
617.0718	0.0022
617.2611	0.0047
617.4503	-0.0003
617.6395	-0.0019
617.8287	-0.0057
618.0179	0.0005
618.207	0.0069
618.3961	0.0027
618.5853	0.0034
618.7744	0.0006
618.9634	0.0023
619.1525	0.0044
619.3416	0.0054
619.5306	0.0015
619.7196	-0.002
619.9086	-0.0012
620.0976	0.0039
620.2866	-0.0025
620.4755	0.0094
620.6645	0.0071
620.8534	0.002
621.0423	0.0062
621.2312	0.0091
621.42	-0.0041
621.6089	-0.0029
621.7977	0.0049
621.9865	-0.0002
622.1753	0.0117
622.3641	0.0065
622.5529	0.0076
622.7416	0.0071
622.9303	0.0008
623.1191	0.0067
623.3078	0.0011
623.4964	0.0046
623.6851	-0.0045
623.8737	-0.0072
624.0624	0.0045
624.251	-0.0045
624.4396	-0.0094
624.6282	0.0001
624.8167	-0.0032
625.0053	0.0041
625.1938	0.0029
625.3823	0.0045
625.5708	0.0031
625.7593	0.0005
625.9477	-0.0016
626.1362	-0.0042
626.3246	-0.0062
626.513	0.0028
626.7014	0.0033
626.8898	0.0064
627.0781	-0.0022
627.2665	-0.0039
627.4548	0.0045
627.6431	0
627.8314	0.0058
628.0197	0.0089
628.2079	-0.0052
628.3962	-0.0001
628.5844	0.0029
628.7726	0.0054
628.9608	0.0098
629.1489	-0.0042
629.3371	0.0004
629.5252	-0.0012
629.7134	0.0037
629.9015	-0.0005
630.0895	0.0033
630.2776	0.0103
630.4657	0.0024
630.6537	0.0047
630.8417	-0.0065
631.0297	0.0001
631.2177	-0.0034
631.4057	-0.0075
631.5936	0.0014
631.7815	-0.0021
631.9695	0.0025
632.1574	0.0032
632.3452	0.0139
632.5331	0.0083
632.7209	-0.0006
632.9088	0.0046
633.0966	0.0054
633.2844	-0.008
633.4722	-0.0002
633.6599	0.0108
633.8477	-0.0025
634.0354	0.0066
634.2231	0.004
634.4108	-0.0008
634.5985	0.0074
634.7861	0.0014
634.9738	0.0002
635.1614	0.0013
635.349	0.006
635.5366	-0.0004
635.7242	0.0069
635.9117	0.0062
636.0993	0.0032
636.2868	0.0061
636.4743	-0.0035
636.6618	0.0083
636.8492	0.0024
637.0367	-0.0019
637.2241	-0.0021
637.4115	0.0024
637.5989	-0.005
637.7863	-0.0032
637.9737	-0.005
638.161	0.0028
638.3484	0.0044
638.5357	0.0068
638.723	-0.0055
638.9103	-0.0007
639.0975	0.0069
639.2848	0.0006
639.472	-0.0012
639.6592	0.0063
639.8464	0.0108
640.0336	0.0002
640.2208	-0.005
640.4079	0.0057
640.595	-0.0021
640.7821	-0.005
640.9692	-0.0018
641.1563	0.0006
641.3434	0.0091
641.5304	-0.0071
641.7174	-0.0018
641.9044	-0.006
642.0914	0.0046
642.2784	0.0027
642.4653	0.007
642.6523	-0.0019
642.8392	-0.0017
643.0261	0.0019
643.213	-0.0025
643.3999	-0.0066
643.5867	-0.0076
643.7735	-0.0039
643.9604	-0.006
644.1472	0.0002
644.3339	0.0035
644.5207	-0.004
644.7075	-0.0013
644.8942	0.003
645.0809	0.0049
645.2676	0.0095
645.4543	0.0046
645.6409	0.0057
645.8276	0.0066
646.0142	0.0053
646.2008	-0.0083
646.3874	-0.005
646.574	-0.0037
646.7605	-0.002
646.9471	-0.0133
647.1336	0.002
647.3201	0.0078
647.5066	-0.0024
647.6931	0.0055
647.8795	0.0087
648.0659	0.0096
648.2524	0.0091
648.4388	0.0045
648.6252	0.0042
648.8115	0.0046
648.9979	0.0025
649.1842	0.006
649.3705	0.0013
649.5568	-0.0007
649.7431	0.0049
649.9294	-0.004
650.1156	0.0013
650.3018	-0.0018
650.488	0.0076
650.6742	0.0046
650.8604	0.0002
651.0466	-0.0056
651.2327	0.0012
651.4188	0.0059
651.6049	-0.0028
651.791	-0.0017
651.9771	0.005
652.1632	0.0034
652.3492	-0.0015
652.5352	-0.006
652.7212	0.0003
652.9072	0.0053
653.0932	-0.0015
653.2791	-0.0065
653.465	-0.0041
653.651	-0.0048
653.8369	-0.0043
654.0227	0.0049
654.2086	0.0034
654.3944	0.0034
654.5803	-0
654.7661	0
654.9519	0.0071
655.1377	-0.0052
655.3234	-0.0053
655.5092	-0.004
655.6949	-0.0064
655.8806	-0.003
656.0663	-0.002
656.2519	-0.0009
656.4376	-0.0035
656.6232	0.0017
656.8088	-0.0004
656.9945	-0.0004
657.18	0.0033
657.3656	-0.0022
657.5511	-0.0035
657.7367	-0.0055
657.9222	0.0024
658.1077	0.0046
658.2932	0.0028
658.4786	-0.0183
658.6641	-0.0043
658.8495	0.0003
659.0349	-0.0039
659.2203	0.0047
659.4057	-0.0016
659.591	0.0027
659.7764	-0.0031
659.9617	-0.0003
660.147	0.0055
660.3323	-0.0018
660.5176	0.0019
660.7028	0.0053
660.888	0.0013
661.0733	0.0064
661.2585	0.0009
661.4436	-0.0004
661.6288	-0.0022
661.8139	-0.0035
661.9991	0.0038
662.1842	-0.0089
662.3693	0.0033
662.5544	-0.0022
662.7394	0.0025
662.9245	-0.0021
663.1095	0.0029
663.2945	-0.0012
663.4795	-0.0022
663.6644	0.0039
663.8494	0.0074
664.0343	-0.0042
664.2193	-0.0061
664.4042	0.0043
664.589	-0.0073
664.7739	-0.0032
664.9587	-0.0091
665.1436	-0.0113
665.3284	0.0051
665.5132	0.0031
665.698	-0.0105
665.8827	0.0018
666.0675	-0.0081
666.2522	-0.0032
666.4369	-0.0031
666.6216	0.0035
666.8063	0.0002
666.9909	-0.0008
667.1756	-0.0011
667.3602	-0.0009
667.5448	-0.0018
667.7294	0.008
667.9139	0.0062
668.0985	0.0132
668.283	-0.0032
668.4675	0.0016
668.652	0.0022
668.8365	0.0039
669.0209	0.005
669.2054	0.0048
669.3898	-0.0002
669.5742	0.0023
669.7586	0.0004
669.943	0.0102
670.1273	0.0089
670.3117	0.0056
670.496	0.0046
670.6803	0.0114
670.8646	0.0019
671.0488	-0.0034
671.2331	0.0041
671.4173	0.0039
671.6015	0
671.7857	-0.001
671.9699	0.0012
672.1541	0.0026
672.3382	0.0021
672.5223	0.0087
672.7064	0.0032
672.8905	0.0068
673.0746	0.0106
673.2587	-0.0018
673.4427	0.0047
673.6267	0.0103
673.8107	0.0047
673.9947	0.003
674.1787	0.0012
674.3626	-0.0095
674.5465	0.014
674.7304	0.0032
674.9143	0.0114
675.0982	0.005
675.2821	0.0054
675.4659	0.0023
675.6497	0.001
675.8335	-0.0023
676.0173	-0.0027
676.2011	-0.0033
676.3849	-0.0072
676.5686	-0.0095
676.7523	-0.0001
676.936	-0.0058
677.1197	-0.002
677.3034	-0.0048
677.487	-0.0019
677.6706	0.0057
677.8542	0.0037
678.0378	0.0012
678.2214	-0.0057
678.405	-0.0031
678.5885	-0.0107
678.772	0.0039
678.9555	-0.0002
679.139	-0.0077
679.3225	0.0033
679.5059	-0.0004
679.6894	-0.0016
679.8728	-0.0067
680.0562	-0.0082
680.2395	-0.0041
680.4229	-0.0034
680.6062	0.0107
680.7896	0.0003
680.9729	-0.0058
681.1562	0.0026
681.3394	0.0087
681.5227	-0.0072
681.7059	0.0043
681.8891	0.0015
682.0723	0.0097
682.2555	0.0095
682.4387	0.0013
682.6218	0.0027
682.805	0.0112
682.9881	0.0081
683.1712	0.0032
683.3542	-0.0002
683.5373	0.0069
683.7203	-0.0097
683.9034	0.0001
684.0864	-0.0114
684.2694	0.0031
684.4523	0.0031
684.6353	-0.007
684.8182	-0.0042
685.0011	-0.0077
685.184	0.0012
685.3669	0.0011
685.5498	0.0025
685.7326	0.0001
685.9154	-0.0027
686.0982	0.0054
686.281	0.0073
686.4638	0.0034
686.6465	-0.0011
686.8293	-0.0034
687.012	-0.0015
687.1947	-0.0047
687.3774	-0.0062
687.56	-0.0073
687.7427	0.006
687.9253	-0.006
688.1079	0.0004
688.2905	0.0084
688.4731	0.0091
688.6556	-0.0043
688.8382	-0.0017
689.0207	0.0094
689.2032	-0.0031
689.3857	-0.0082
689.5681	-0.0018
689.7506	0.0012
689.933	0.0008
690.1154	-0.0001
690.2978	0.0043
690.4802	0.0004
690.6626	-0.0009
690.8449	-0.002
691.0272	0.0007
691.2095	-0.0076
691.3918	-0.0019
691.5741	0.0049
691.7563	-0.0026
691.9386	0.0029
692.1208	0.0046
692.303	0.0017
692.4852	0.0043
692.6673	0.0069
692.8495	-0.0027
693.0316	0.0062
693.2137	0.002
693.3958	0.0049
693.5778	0.0001
693.7599	0.0011
693.9419	0.0008
694.1239	0.0001
694.3059	-0.001
694.4879	0.0083
694.6699	0.0091
694.8518	0.0092
695.0337	-0.0023
695.2157	0.0063
695.3975	0.0052
695.5794	0.0071
695.7613	0.0044
695.9431	-0.0004
696.1249	0.0057
696.3067	0.0119
696.4885	0.0096
696.6703	-0.0036
696.852	0.0032
697.0337	0.0051
697.2154	0.0099
697.3971	0.0015
697.5788	0.0099
697.7605	-0.0008
697.9421	-0.0037
698.1237	-0.0019
698.3053	0.0062
698.4869	0.0042
698.6685	-0.0093
698.85	0.0059
699.0315	0.01
699.213	0.0021
699.3945	0.0018
699.576	0.0053
699.7575	0.0039
699.9389	0.0091
700.1203	0.0053
700.3017	-0.0031
700.4831	-0.0079
700.6645	-0.0071
700.8458	0.0082
701.0271	-0.0012
701.2084	0.0017
701.3897	-0.0022
701.571	0.0007
701.7523	-0.0023
701.9335	0.0012
702.1147	-0.0014
702.2959	0.004
702.4771	0.0047
702.6583	-0.0016
702.8394	-0.0096
703.0205	0.0032
703.2016	-0.0043
703.3827	-0.0074
703.5638	0.007
703.7449	0.0073
703.9259	0.0161
704.1069	-0.0004
704.2879	0.0061
704.4689	-0.0007
704.6499	0.0009
704.8308	-0.0029
705.0117	-0.0003
705.1927	0.0041
705.3735	0.0051
705.5544	-0.0009
705.7353	-0.0066
705.9161	-0.0046
706.0969	-0.0104
706.2777	-0.0028
706.4585	0.0011
706.6393	0.0033
706.82	0.0022
707.0007	0.0064
707.1815	0.0043
707.3621	0.0042
707.5428	0.0025
707.7235	0.0057
707.9041	-0.0081
708.0847	-0.0036
708.2653	-0.0048
708.4459	-0.0069
708.6265	-0.0049
708.807	-0.0034
708.9875	0.0055
709.168	-0.0066
709.3485	-0.0036
709.529	-0.007
709.7095	-0.0168
709.8899	-0.0003
710.0703	-0.01
710.2507	-0.0047
710.4311	-0.0101
710.6115	-0.0172
710.7918	-0.0112
710.9721	0.004
711.1524	-0.0077
711.3327	-0
711.513	0.008
711.6932	0.0112
711.8735	0.0075
712.0537	0.0119
712.2339	0.0048
712.4141	-0.0045
712.5942	0.0015
712.7744	-0.0076
712.9545	-0.0056
713.1346	-0.0034
713.3147	-0.0027
713.4947	-0.0076
713.6748	-0.0091
713.8548	0.0052
714.0348	-0.0064
714.2148	-0.0006
714.3948	0.01
714.5748	-0.0032
714.7547	0.0008
714.9346	-0.0003
715.1145	-0.0021
715.2944	-0.0068
715.4743	-0.0002
715.6541	-0.0052
715.834	-0.0029
716.0138	-0.0061
716.1936	-0.0101
716.3733	-0.0074
716.5531	0.0002
716.7328	-0.0048
716.9126	-0.0035
717.0923	0.0046
717.2719	-0.0003
717.4516	0.006
717.6312	0.0023
717.8109	0.0016
717.9905	0.0086
718.1701	-0.003
718.3496	-0.0058
718.5292	0.0058
718.7087	0.0033
718.8882	0.0024
719.0677	0.008
719.2472	-0.0046
719.4267	0.0024
719.6061	-0.0064
719.7856	0.0043
719.965	0.0057
720.1443	-0.0024
720.3237	0.012
720.5031	0.0029
720.6824	0.0015
720.8617	-0.0029
721.041	0.0018
721.2203	0.0106
721.3995	0.0093
721.5788	0.0058
721.758	0.0124
721.9372	0.0001
722.1164	0.004
722.2956	0.0002
722.4747	-0.0087
722.6538	-0.0035
722.8329	0.004
723.012	0.0072
723.1911	-0.0012
723.3702	-0.0021
723.5492	0.0042
723.7282	-0.0008
723.9072	-0.005
724.0862	-0.0069
724.2652	-0.0031
724.4441	-0.0026
724.623	0.0005
724.8019	-0.0065
724.9808	-0.0036
725.1597	-0.0116
725.3385	0.0063
725.5174	-0.0001
725.6962	-0.0025
725.875	-0.0028
726.0538	0.0004
726.2325	0.0015
726.4112	-0.0005
726.59	-0.0049
726.7687	-0.0057
726.9474	0.0042
727.126	0.0042
727.3047	0.0019
727.4833	-0.0048
727.6619	0.002
727.8405	-0.0041
728.0191	-0.0084
728.1976	0.0015
728.3762	-0.0058
728.5547	0.0012
728.7332	-0.0142
728.9116	-0.0075
729.0901	-0.0026
729.2686	0.0006
729.447	-0.0019
729.6254	-0.0045
729.8038	-0.0044
729.9821	-0.0116
730.1605	-0.0005
730.3388	0.0038
730.5171	-0.0069
730.6954	-0.0091
730.8737	0.0086
731.0519	0.006
731.2302	-0.0016
731.4084	0.0115
731.5866	0.0069
731.7648	0.0003
731.9429	-0.007
732.1211	-0.011
732.2992	-0.0019
732.4773	-0.0062
732.6554	-0.0008
732.8335	-0.0023
733.0115	0.0012
733.1896	0.0027
733.3676	-0.0117
733.5456	0.0001
733.7235	0.0055
733.9015	-0.0014
734.0794	0.0006
734.2574	-0.0056
734.4353	-0.0001
734.6131	-0.0024
734.791	0.0043
734.9689	0.004
735.1467	-0.0004
735.3245	-0.0059
735.5023	-0.0051
735.68	-0.0007
735.8578	0.0044
736.0355	-0.0133
736.2132	-0.0073
736.3909	-0.0024
736.5686	-0.0077
736.7463	0.0065
736.9239	-0.0094
737.1015	-0.0033
737.2791	0.0046
737.4567	0.0047
737.6343	0.0041
737.8118	-0.0033
737.9894	-0.0009
738.1669	-0.0044
738.3444	-0.0057
738.5218	0.0027
738.6993	0.0031
738.8767	-0.0063
739.0541	0.0142
739.2315	-0.0124
739.4089	-0.0071
739.5863	0.0117
739.7636	-0.002
739.9409	0.0029
740.1182	0.0067
740.2955	0.0049
740.4728	0.0022
740.65	-0.0074
740.8272	0.0059
741.0044	-0.0072
741.1816	0.0021
741.3588	-0.0066
741.5359	0.0029
741.7131	-0.0077
741.8902	0.0028
742.0673	0.0027
742.2444	-0.0134
742.4214	-0.011
742.5985	-0.006
742.7755	0.0003
742.9525	-0.0135
743.1295	0.007
743.3064	0.0023
743.4834	0.0076
743.6603	-0.011
743.8372	-0.0061
744.0141	0.0016
744.191	0.0013
744.3678	0.0053
744.5446	0.008
744.7215	0.0107
744.8982	0.0027
745.075	-0.008
745.2518	-0.0041
745.4285	0.0029
745.6052	-0.0102
745.7819	-0.0087
745.9586	-0.0074
746.1353	-0.008
746.3119	-0.0171
746.4885	-0.0113
746.6651	-0.0142
746.8417	-0.0126
747.0183	-0.0113
747.1948	-0.0156
747.3714	-0.0085
747.5479	-0.0079
747.7244	-0.0054
747.9008	-0.0025
748.0773	-0.0122
748.2537	-0.0088
748.4301	-0.0199
748.6065	-0.0068
748.7829	0.0031
748.9593	-0.0104
749.1356	-0.0058
749.3119	0.0083
749.4882	-0.0118
749.6645	0.004
749.8408	-0.0157
750.017	-0.0049
750.1933	0.0019
750.3695	-0.0078
750.5457	-0.0026
750.7218	-0.0021
750.898	-0
751.0741	-0.0069
751.2502	-0.0075
751.4263	-0.0061
751.6024	-0.0048
751.7784	0.0021
751.9545	-0.0094
752.1305	-0.0013
752.3065	-0.0118
752.4825	0.0085
752.6584	-0.0066
752.8344	-0.0106
753.0103	-0.0059
753.1862	-0.0001
753.3621	-0.0006
753.5379	-0.0122
753.7138	-0.0005
753.8896	-0.0075
754.0654	0.0012
754.2412	0.015
754.417	0.003
754.5927	-0.0019
754.7685	-0.0024
754.9442	0.0053
755.1199	0.0093
755.2956	0.0003
755.4712	0.0111
755.6469	0.0058
755.8225	0.0012
755.9981	-0.0039
756.1736	0.0095
756.3492	0.006
756.5248	0.0036
756.7003	0.0082
756.8758	0.0099
757.0513	-0.0064
757.2267	-0.0006
757.4022	0.0045
757.5776	0.0034
757.753	0.003
757.9284	-0.0028
758.1038	0.0049
758.2791	0.0021
758.4545	-0.0159
758.6298	0.0032
758.8051	0.0022
758.9803	-0.0061
759.1556	-0.0054
759.3308	-0.0128
759.506	0.0087
759.6812	0.0036
759.8564	0.0058
760.0316	-0.0039
760.2067	0.0086
760.3819	0.0083
760.557	0.0157
760.732	-0.0014
760.9071	-0.0037
761.0821	-0.0034
761.2572	0.0033
761.4322	0.0027
761.6072	-0.0088
761.7821	-0.0117
761.9571	0.0059
762.132	-0.0051
762.3069	-0.0112
762.4818	-0.012
762.6567	-0.0016
762.8316	-0.0042
763.0064	-0.0022
763.1812	0.0051
763.356	-0.0032
763.5308	-0.012
763.7055	-0.0074
763.8803	-0.0024
764.055	-0.0041
764.2297	0.0046
764.4044	-0.0129
764.579	-0.0097
764.7537	-0.0107
764.9283	-0.0027
765.1029	-0.0133
765.2775	-0.0101
765.4521	-0.0144
765.6266	-0.0079
765.8011	-0.0113
765.9756	-0.0023
766.1501	0.002
766.3246	-0.0168
766.4991	0.0013
766.6735	-0.0023
766.8479	-0.0038
767.0223	0.0023
767.1967	-0.002
767.371	-0.0072
767.5454	-0.0067
767.7197	-0.0043
767.894	-0.0089
768.0683	-0.0119
768.2425	-0.0075
768.4168	0.0033
768.591	-0.0042
768.7652	-0.0036
768.9394	-0.0074
769.1135	-0.0027
769.2877	0.0108
769.4618	-0.0072
769.6359	-0.0035
769.81	0.0086
769.984	-0.0121
770.1581	0.002
770.3321	0.0003
770.5061	-0.0119
770.6801	-0.0015
770.8541	0.003
771.028	0.0129
771.202	-0.0069
771.3759	0.0011
771.5498	-0.0013
771.7236	-0.0113
771.8975	-0.0055
772.0713	0.0059
772.2451	-0.0001
772.4189	0.0112
772.5927	-0.0023
772.7665	0.0084
772.9402	-0.0033
773.1139	-0.0048
773.2876	-0.0145
773.4613	-0.0078
773.635	-0.0019
773.8086	-0.0233
773.9822	-0.0152
774.1558	0.0116
774.3294	-0.021
774.503	-0.0072
774.6765	-0.0119
774.8501	0.0017
775.0236	0.0021
775.1971	-0.0038
775.3705	-0.0191
775.544	-0.0043
775.7174	-0.0092
775.8908	-0.0073
776.0642	-0.0005
776.2376	-0.0054
776.4109	-0.0092
776.5843	-0.0082
776.7576	-0.0025
776.9309	0.0091
777.1041	0.0055
777.2774	0.0112
777.4506	-0.0052
777.6238	-0.0144
777.797	-0.0012
777.9702	-0.0054
778.1434	-0.0147
778.3165	-0.0071
778.4896	-0.0043
778.6627	-0.0046
778.8358	-0.0069
779.0089	-0.0119
779.1819	-0.0088
779.3549	0.0092
779.5279	-0.0034
779.7009	-0.0011
779.8739	0.002
780.0468	-0.0014
780.2197	0.0015
780.3926	-0.0085
780.5655	0.0001
780.7384	-0.0034
780.9112	-0.0151
781.0841	-0.012
781.2569	0.0037
781.4297	0.0033
781.6024	0.0086
781.7752	-0.005
781.9479	-0.0085
782.1206	-0.0019
782.2933	-0.0172
782.466	-0.0014
782.6386	0.0021
782.8113	-0.0044
782.9839	0.0007
783.1565	0.0105
783.329	0.0023
783.5016	0.0085
783.6741	0.0041
783.8466	-0.0059
784.0191	0.0032
784.1916	0.0043
784.3641	0.0036
784.5365	0.0024
784.7089	-0.0097
784.8813	-0.0065
785.0537	-0.0027
785.2261	-0.011
785.3984	-0.0117
785.5707	-0.0007
785.743	-0.0056
785.9153	-0.006
786.0876	0.0031
786.2598	-0.0179
786.432	-0.0036
786.6042	0.001
786.7764	-0.0141
786.9486	0.0035
787.1207	-0.0133
787.2928	-0.0016
787.4649	0.0113
787.637	-0.0027
787.8091	-0.0095
787.9811	-0.0143
788.1532	-0.006
788.3252	0.0229
788.4972	-0.0134
788.6691	0.0031
788.8411	-0.0051
789.013	-0.0137
789.1849	-0.0075
789.3568	-0.0092
789.5287	-0.0031
789.7005	-0.0004
789.8723	-0.0014
790.0442	0.0091
790.2159	0.0001
790.3877	-0.0049
790.5595	-0.0069
790.7312	0.0136
790.9029	0.0062
791.0746	-0.0193
791.2463	-0.0081
791.4179	0.0025
791.5896	-0.0176
791.7612	-0.0062
791.9328	0.0068
792.1044	0.004
792.2759	-0.0138
792.4474	-0.0062
792.619	0.0164
792.7905	0.0072
792.9619	0.0122
793.1334	-0.0062
793.3048	-0.0004
793.4762	-0.0019
793.6476	-0.0056
793.819	-0.0084
793.9904	0.0063
794.1617	-0.001
794.333	-0.0018
794.5043	-0.0135
794.6756	-0.0067
794.8469	0.0007
795.0181	0.0039
795.1893	-0.0017
795.3605	0.0027
795.5317	0.0015
795.7029	-0.0092
795.874	0.0013
796.0452	0.0167
796.2163	-0.0063
796.3873	0.0173
796.5584	0.0033
796.7294	0.0042
796.9005	0.0204
797.0715	0.0061
797.2425	-0.0186
797.4134	0.006
797.5844	0.0146
797.7553	-0.0099
797.9262	-0.0071
798.0971	-0.0181
798.2679	-0.0115
798.4388	-0.0194
798.6096	-0.0033
798.7804	0.0037
798.9512	0.004
799.122	-0.0033
799.2927	-0.0114
799.4635	0.0207
799.6342	-0.0314
799.8049	-0.0076
799.9755	-0.0073
800.1462	0.0017
800.3168	0.0083
800.4874	-0.0053
800.658	0.0124
800.8286	0.0005
800.9991	0.0069
801.1696	-0.0007
801.3402	0.0015
801.5106	-0.0194
801.6811	-0.0058
801.8516	0.0024
802.022	-0.0017
802.1924	0.009
802.3628	0.0209
802.5332	0.0084
802.7035	0.009
802.8739	0.0187
803.0442	-0.0059
803.2145	0.0087
803.3847	-0.0304
803.555	0.0146
803.7252	-0.0201
803.8954	-0.0354
804.0656	-0.0258
804.2358	-0.0136
804.4059	0.008
804.5761	0.004
804.7462	-0.0027
804.9163	-0.0023
805.0864	-0.0164
805.2564	-0.0121
805.4264	0.0054
805.5965	-0.0034
805.7665	0.0125
805.9364	0.0121
806.1064	0.0288
806.2763	0.0029
806.4462	0.0093
806.6161	-0.0007
806.786	0.0165
806.9559	0.0013
807.1257	-0.0107
807.2955	-0.0134
807.4653	-0.0118
807.6351	-0.0139
807.8048	0.0118
807.9746	0.0145
808.1443	0.0089
808.314	-0.0065
808.4837	0.0013
808.6533	-0.0097
808.8229	0.0159
808.9926	-0.0028
809.1622	0.014
809.3317	-0.0035
809.5013	-0.0088
809.6708	0.0133
809.8403	0.0216
810.0098	0.0022
810.1793	0.0001
810.3488	-0.0036
810.5182	-0.0084
810.6876	-0.0014
810.857	-0.0215
811.0264	0.0385
811.1958	0.0053
811.3651	0.003
811.5344	0.0017
811.7037	0.0009
811.873	0.0023
812.0422	-0.0053
812.2115	0.0026
812.3807	-0.0061
812.5499	0.0254
812.7191	0.0086
812.8882	-0.0163
813.0574	-0.0182
813.2265	0.0007
813.3956	0.0167
813.5646	-0.0188
813.7337	-0.0096
813.9027	0.0131
814.0718	0.0017
814.2407	0.0152
814.4097	-0.013
814.5787	-0.0214
814.7476	0.0013
814.9165	-0.0076
815.0854	-0.0257
815.2543	-0.0193
815.4232	-0.0067
815.592	-0.0132
815.7608	0.0064
815.9296	-0.0126
816.0984	-0.0033
816.2671	-0.0045
816.4359	-0.0123
816.6046	-0.0155
816.7733	-0.0227
816.942	-0.0107
817.1106	-0.0229
817.2793	0.0002
817.4479	0.0107
817.6165	0.0073
817.785	-0.0104
817.9536	-0.0378
818.1221	0.0024
818.2906	0.0079
818.4591	0.0005
818.6276	-0.0254
818.7961	0.0095
818.9645	0.0251
819.1329	0.0045
819.3013	-0.0028
819.4697	0.0184
819.638	-0.0001
819.8064	0.0309
819.9747	0.0076
820.143	-0.0027
820.3113	0.0028
820.4795	0.0041
820.6477	0.004
820.816	0.0016
820.9842	0.016
821.1523	0.0013
821.3205	-0.0075
821.4886	0.009
821.6567	0.0107
821.8248	0.0037
821.9929	0.0058
822.1609	-0.0072
822.329	0.0219
822.497	0.0123
822.665	-0.0176
822.833	-0.0336
823.0009	0.0253
823.1688	0.0326
823.3367	0.0279
823.5046	-0.0043
823.6725	0.0382
823.8404	-0.0217
824.0082	0.0137
824.176	0.0204
824.3438	0.0095
824.5116	-0.0198
824.6793	0.0213
824.847	0.0061
825.0147	0.0071
825.1824	0.0322
825.3501	0.0155
825.5177	0.0029
825.6854	0.0098
825.853	-0.0018
826.0206	-0.0411
826.1881	-0.0015
826.3557	-0.0164
826.5232	0.0299
826.6907	-0.0264
826.8582	0.0053
827.0257	0.0035
827.1931	-0.0205
827.3605	-0.0122
827.528	-0.0298
827.6953	-0.0122
827.8627	-0.0103
828.03	0.0475
828.1974	-0.0204
828.3647	-0.0549
828.532	-0.0398
828.6992	-0.0352
828.8665	0.0075
829.0337	-0.0224
829.2009	0.0166
829.3681	-0.0043
829.5352	0.0421
829.7024	-0.0343
829.8695	-0.0342
830.0366	0.0426
830.2037	0.0153
830.3707	0.0252
830.5378	-0.0301
830.7048	0.0325
830.8718	-0.0146
831.0388	-0.0182
831.2057	0.0155
831.3727	0.0244
831.5396	0.0078
831.7065	-0.0014
831.8734	0.0334
832.0402	-0.056
832.2071	-0.0047
832.3739	-0.0068
832.5407	0.0009
832.7075	0.001
832.8742	-0.0015
833.041	-0.0317
833.2077	-0.0003
833.3744	0.0105
833.541	0.001
833.7077	0.0131
833.8743	-0.0385
834.0409	-0.017
834.2075	-0.0195
834.3741	-0.0317
834.5407	0.0396
834.7072	0.012
834.8737	-0.0107
835.0402	0.0161
835.2067	0.0619
835.3731	-0.0003
835.5395	-0.0034
835.706	0.0004
835.8723	0.0004
836.0387	0.0261
836.2051	-0.0037
836.3714	0.0375
836.5377	-0.027
836.704	-0.0501
836.8703	-0.0072
837.0365	-0.0039
837.2027	-0.0108
837.3689	-0.0094
837.5351	-0.0525
837.7013	-0.0657
837.8674	-0.015
838.0335	-0.0277
838.1997	-0.0171
838.3657	-0.0679
838.5318	-0.0312
838.6978	0.0241
838.8639	0.0034
839.0299	-0.0246
839.1958	0.014
839.3618	-0.0277
839.5277	-0.0221
839.6937	0.0097
839.8596	-0.0377
840.0254	0.0122
840.1913	0.0139
840.3571	-0.0004
840.523	-0.0302
840.6888	-0.0398
840.8545	-0.0434
841.0203	-0.0158
841.186	0.0261
841.3517	0.0409
841.5174	0.0476
841.6831	-0.0242
841.8488	0.0227
842.0144	-0.0031
842.18	0.0068
842.3456	-0.0069
842.5112	-0.0055
842.6767	-0.0158
842.8422	-0.0233
843.0077	0.0174
843.1732	0.021
843.3387	-0.0321
843.5042	-0.0309
843.6696	-0.0352
843.835	0.0285
844.0004	0.0403
844.1657	-0.0229
844.3311	-0.0609
844.4964	-0.0728
844.6617	-0.0114
844.827	-0.0039
844.9923	0.0134
845.1575	0.038
845.3227	0.022
845.4879	0.0202
845.6531	-0.0809
845.8183	-0.042
845.9834	0.0291
846.1485	-0.0369
846.3136	0.0136
846.4787	-0.1026
846.6438	0.0202
846.8088	-0.0352
846.9738	-0.0499
847.1388	0.0037
847.3038	-0.0792
847.4687	-0.1033
847.6337	0.0373
847.7986	0.024
847.9635	-0.0165
848.1284	-0.0334
848.2932	0.0995
848.458	0.0061
848.6228	0.0266
848.7876	0.0225
848.9524	0.0295
849.1172	0.0045
849.2819	0.0342
849.4466	-0.0903
849.6113	-0.1277
849.7759	0.0455
849.9406	-0.0415
850.1052	0.0597
850.2698	-0.091
850.4344	0.0254
850.599	-0.08
850.7635	0.085
850.928	-0.1025
851.0925	-0.0393
851.257	0.1117
851.4215	0.0404
851.5859	-0.0096
851.7503	0.0181
851.9147	0.0763
852.0791	-0.0711
852.2434	-0.0101
852.4078	0.0284
852.5721	0.0293
852.7364	0.0396
852.9007	-0.2035
853.0649	0.0424
853.2291	-0.0699
853.3934	-0.0078
853.5575	0.0169
853.7217	-0.0147
853.8859	-0.1401
854.05	-0.0671
854.2141	0.0483
854.3782	-0.0618
854.5423	-0.1204
854.7063	0.0875
854.8703	0.0772
855.0343	-0.0812
855.1983	-0.2022
855.3623	0.0714
855.5262	0.0637
855.6901	-0.0315
855.854	-0.0403
856.0179	0.1355
856.1818	-0.0266
856.3456	-0.1416
856.5094	-0.0856
856.6732	-0.1434
856.837	-0.0561
857.0008	0.0249
857.1645	0.0269
857.3282	-0.0338
857.4919	0.06
857.6556	0.0024
857.8192	-0.0791
857.9828	0.0594
858.1465	0.2226
858.31	-0.1277
858.4736	0.1449
858.6372	-0.3277
858.8007	-0.2366
858.9642	-0.1204
859.1277	0.0534
859.2911	0.1252
859.4546	-0.0124
859.618	-0.3022
859.7814	-0.0891
859.9448	-0.027
860.1081	0.2372
860.2715	0.0199
860.4348	0.5406
860.5981	-0.0422
860.7614	0.1723
860.9246	0.0907
861.0879	-0.2675
861.2511	-0.0043
861.4143	-0.2917
861.5774	0.1842
861.7406	0.0495
861.9037	0.2019
862.0668	-0.1234
862.2299	-0.3019
862.393	-0.6289
862.556	-0.1481
862.7191	-0.0692
862.8821	-0.2254
863.0451	0.1615
863.208	0.0803
863.371	-0.0278
863.5339	-0.0958
863.6968	-0.1772
863.8597	0.4819
864.0225	0.1778
864.1854	0.1566
864.3482	-0.1191
864.511	0.0345
864.6737	0.0836
864.8365	0.012
864.9992	-0.4145
865.1619	-0.206
865.3246	-0.3503
865.4873	0.0555
865.65	0.0418
865.8126	0.0642
865.9752	0.1145
866.1378	1.004
866.3004	-0
866.4629	0.2933
866.6254	-0.1879
866.7879	0.2302
866.9504	-0.4241
867.1129	-0
867.2753	0.0645
867.4377	-0.0144
867.6001	-0.0514
867.7625	0.0258
867.9249	-0.0216
868.0872	-0.096
868.2495	0.0482
868.4118	-0.1586
868.5741	0.0605
868.7363	-0.0206
868.8986	-0.1968
869.0608	0.0392
869.223	1.1935
869.3851	1.7752
869.5473	-0
869.7094	0.2765
869.8715	-0.4537
870.0336	-0.7887
870.1957	-0.5189
870.3577	-0.8308
870.5197	0.6758
870.6817	1.5597
870.8437	-0.1133
871.0057	-0.758
871.1676	0.1273
871.3295	-0.1314
871.4914	1.0645
871.6533	-0.4014
871.8151	-0.164
871.977	-0
872.1388	-0
872.3006	0.0906
872.4623	0.5545
872.6241	0.134
872.7858	0.4076
872.9475	-0.0182
873.1092	-0.2103
873.2709	0.7283
873.4325	-0.0622
873.5941	1.282
873.7557	-0.5686
873.9173	-0
874.0789	-0.7272
874.2404	0.1941
874.4019	-0
874.5634	-0.0853
874.7249	0.249
874.8863	0.0935
875.0478	0.7745
875.2092	-0
875.3706	0.1596
875.5319	-0.8129
875.6933	0.3408
875.8546	-0.3364
876.0159	-0.2871
876.1772	0.3659
876.3385	-0
876.4997	0.4985
876.6609	-0.5055
876.8221	0.5012
876.9833	-0
877.1445	1.5798
877.3056	0.4917
877.4667	-0.206
877.6278	-0.0369
877.7889	-0.3069
877.9499	-0
878.111	-0.8618
878.272	-0
878.433	-0
878.5939	0.2481
878.7549	0.2448
878.9158	-0.8257
879.0767	0.0696
879.2376	0.0418
879.3984	-0
879.5593	-0
879.7201	0.0873
879.8809	-0.4783
880.0417	-0.2437
880.2024	0.3823
880.3632	-0
880.5239	0.1907
880.6846	0.0481
880.8452	-2.317
881.0059	-0
881.1665	0.0857
881.3271	-0
881.4877	0.8076
881.6483	-0.1002
881.8088	-0
881.9693	0.8951
882.1298	0.8951
882.2903	0.8951
