Data from MonoPyChalIsomerACN10uM350nmA_Absorbance_14-35-34-015.txt Node
Date: Fri Jul 05 14:35:34 BST 2024
User: LASERRRRR
Spectrometer: FLMT03099
Trigger mode: 0
Integration Time (sec): 1.000000E-1
Scans to average: 1
Electric dark correction enabled: true
Nonlinearity correction enabled: false
Boxcar width: 0
XAxis mode: Wavelengths
Number of Pixels in Spectrum: 3648
>>>>>Begin Spectral Data<<<<<
179.3399	-0
179.5586	-0
179.7771	-0
179.9957	-0
180.2143	-0
180.4329	-0.1199
180.6514	0.5187
180.8699	-0
181.0885	-0.0915
181.307	-0.105
181.5255	-0
181.744	-0.3063
181.9625	-0
182.181	0
182.3994	0.3783
182.6179	-0
182.8363	-0.0369
183.0547	-0.4705
183.2732	0.1356
183.4916	0.0467
183.71	0.0767
183.9284	0.1484
184.1467	0.0768
184.3651	0.0195
184.5835	-0.0089
184.8018	0
185.0201	0.2165
185.2385	0.0542
185.4568	0.0885
185.6751	0.1844
185.8934	0.2105
186.1117	-0.0254
186.3299	-0.0072
186.5482	0
186.7664	0.0195
186.9847	-0.0714
187.2029	0.0099
187.4211	0.0129
187.6393	0.0504
187.8575	-0.1277
188.0757	0.1588
188.2939	0.1799
188.512	-0.1423
188.7302	0.2059
188.9483	0.1599
189.1665	0.0383
189.3846	-0.1754
189.6027	0.0959
189.8208	0.0905
190.0389	0.1436
190.257	0.2346
190.475	0.6274
190.6931	0.2402
190.9111	0.3064
191.1292	0.1814
191.3472	0.4667
191.5652	0.3499
191.7832	0.2017
192.0012	0.8717
192.2192	0.4466
192.4371	0.4551
192.6551	0.3048
192.873	0.44
193.091	0.3113
193.3089	0.3028
193.5268	0.6539
193.7447	0.5588
193.9626	0.3572
194.1805	0.8066
194.3984	0.742
194.6162	0.4478
194.8341	0.4277
195.0519	0.3977
195.2697	0.8866
195.4875	0.505
195.7054	0.6628
195.9231	0.5816
196.1409	0.5328
196.3587	0.6345
196.5765	0.6513
196.7942	0.508
197.012	0.5759
197.2297	0.5301
197.4474	0.8534
197.6651	0.5675
197.8828	0.4693
198.1005	0.5971
198.3182	0.6582
198.5358	0.7926
198.7535	0.4808
198.9711	0.519
199.1888	0.6889
199.4064	0.6759
199.624	0.7321
199.8416	0.65
200.0592	0.7095
200.2767	0.6342
200.4943	0.6108
200.7119	0.583
200.9294	0.5872
201.1469	0.5171
201.3645	0.6443
201.582	0.5332
201.7995	0.6151
202.017	0.6563
202.2344	0.5458
202.4519	0.6409
202.6694	0.6818
202.8868	0.6056
203.1042	0.58
203.3217	0.6127
203.5391	0.628
203.7565	0.6304
203.9739	0.6861
204.1913	0.5401
204.4086	0.6942
204.626	0.6511
204.8433	0.5821
205.0607	0.6337
205.278	0.6561
205.4953	0.6611
205.7126	0.6257
205.9299	0.8218
206.1472	0.7198
206.3644	0.5902
206.5817	0.67
206.7989	0.6971
207.0162	0.5747
207.2334	0.6447
207.4506	0.6421
207.6678	0.6046
207.885	0.5986
208.1022	0.6595
208.3194	0.5696
208.5365	0.7408
208.7537	0.6521
208.9708	0.5136
209.1879	0.6012
209.405	0.6695
209.6222	0.6517
209.8392	0.5794
210.0563	0.623
210.2734	0.6235
210.4905	0.6006
210.7075	0.6413
210.9245	0.6154
211.1416	0.6607
211.3586	0.6109
211.5756	0.5979
211.7926	0.5732
212.0096	0.5552
212.2265	0.6019
212.4435	0.6099
212.6604	0.5609
212.8774	0.6171
213.0943	0.5943
213.3112	0.504
213.5281	0.531
213.745	0.5201
213.9619	0.5779
214.1788	0.4549
214.3956	0.4357
214.6125	0.4438
214.8293	0.4216
215.0461	0.4836
215.2629	0.4345
215.4798	0.472
215.6965	0.4433
215.9133	0.4272
216.1301	0.4152
216.3469	0.4359
216.5636	0.4223
216.7803	0.3705
216.9971	0.3894
217.2138	0.3839
217.4305	0.3648
217.6472	0.3284
217.8639	0.3995
218.0805	0.3629
218.2972	0.3407
218.5138	0.3258
218.7305	0.3144
218.9471	0.3099
219.1637	0.2698
219.3803	0.2654
219.5969	0.296
219.8135	0.2403
220.0301	0.2763
220.2466	0.2799
220.4632	0.2678
220.6797	0.2444
220.8962	0.2499
221.1127	0.2592
221.3292	0.2481
221.5457	0.228
221.7622	0.2244
221.9787	0.2671
222.1951	0.2297
222.4116	0.2395
222.628	0.2408
222.8444	0.2505
223.0608	0.2522
223.2772	0.2494
223.4936	0.2669
223.71	0.2447
223.9264	0.2762
224.1427	0.2375
224.3591	0.2535
224.5754	0.2509
224.7917	0.2612
225.008	0.2572
225.2243	0.2664
225.4406	0.277
225.6569	0.2627
225.8732	0.2492
226.0894	0.2366
226.3057	0.2777
226.5219	0.2642
226.7381	0.2611
226.9543	0.2812
227.1705	0.2824
227.3867	0.2802
227.6029	0.2846
227.8191	0.2909
228.0352	0.2907
228.2513	0.3073
228.4675	0.3031
228.6836	0.3216
228.8997	0.3004
229.1158	0.3144
229.3319	0.3111
229.548	0.2991
229.764	0.3376
229.9801	0.3214
230.1961	0.3232
230.4121	0.3439
230.6282	0.3177
230.8442	0.3227
231.0602	0.3462
231.2761	0.3347
231.4921	0.3528
231.7081	0.3554
231.924	0.334
232.14	0.3575
232.3559	0.3423
232.5718	0.3653
232.7877	0.3378
233.0036	0.3456
233.2195	0.3646
233.4353	0.3579
233.6512	0.3803
233.867	0.3596
234.0829	0.3745
234.2987	0.3583
234.5145	0.3784
234.7303	0.3819
234.9461	0.3829
235.1619	0.362
235.3776	0.3817
235.5934	0.3617
235.8091	0.3579
236.0249	0.3879
236.2406	0.3772
236.4563	0.3867
236.672	0.3836
236.8877	0.3864
237.1034	0.3883
237.319	0.3857
237.5347	0.4149
237.7503	0.4063
237.966	0.4027
238.1816	0.4161
238.3972	0.4019
238.6128	0.388
238.8284	0.3929
239.0439	0.4037
239.2595	0.4035
239.475	0.4149
239.6906	0.4175
239.9061	0.3927
240.1216	0.3765
240.3371	0.4098
240.5526	0.4246
240.7681	0.408
240.9836	0.3834
241.199	0.4031
241.4145	0.377
241.6299	0.3783
241.8453	0.3903
242.0607	0.3876
242.2761	0.3563
242.4915	0.3559
242.7069	0.3589
242.9223	0.3418
243.1376	0.3435
243.353	0.3342
243.5683	0.341
243.7836	0.3214
243.9989	0.3313
244.2142	0.3025
244.4295	0.31
244.6448	0.2949
244.86	0.2921
245.0753	0.274
245.2905	0.3082
245.5057	0.2826
245.721	0.2677
245.9362	0.2671
246.1514	0.2693
246.3665	0.2492
246.5817	0.2523
246.7969	0.2343
247.012	0.2421
247.2271	0.2423
247.4423	0.2443
247.6574	0.2324
247.8725	0.2299
248.0876	0.2218
248.3026	0.225
248.5177	0.2111
248.7328	0.2109
248.9478	0.2018
249.1628	0.2164
249.3779	0.2104
249.5929	0.2033
249.8079	0.2019
250.0228	0.1998
250.2378	0.1969
250.4528	0.1932
250.6677	0.1886
250.8827	0.1875
251.0976	0.1847
251.3125	0.1859
251.5274	0.1601
251.7423	0.1751
251.9572	0.1877
252.172	0.1639
252.3869	0.1924
252.6017	0.1702
252.8166	0.1722
253.0314	0.1758
253.2462	0.1719
253.461	0.1791
253.6758	0.1761
253.8906	0.1727
254.1053	0.1612
254.3201	0.1641
254.5348	0.1893
254.7496	0.1815
254.9643	0.176
255.179	0.169
255.3937	0.1703
255.6083	0.1855
255.823	0.176
256.0377	0.1548
256.2523	0.1669
256.467	0.1507
256.6816	0.1716
256.8962	0.1642
257.1108	0.163
257.3254	0.1644
257.54	0.1614
257.7545	0.1685
257.9691	0.1735
258.1836	0.1659
258.3981	0.1753
258.6127	0.1792
258.8272	0.1615
259.0417	0.1556
259.2561	0.1621
259.4706	0.1738
259.6851	0.1682
259.8995	0.1637
260.114	0.1678
260.3284	0.1645
260.5428	0.1614
260.7572	0.1609
260.9716	0.1671
261.186	0.1684
261.4003	0.16
261.6147	0.1618
261.829	0.1623
262.0433	0.1531
262.2577	0.173
262.472	0.1597
262.6863	0.1662
262.9005	0.1668
263.1148	0.1594
263.3291	0.1486
263.5433	0.1699
263.7576	0.1582
263.9718	0.1719
264.186	0.1663
264.4002	0.1657
264.6144	0.1648
264.8286	0.1739
265.0427	0.1522
265.2569	0.1653
265.471	0.1516
265.6851	0.1519
265.8993	0.1506
266.1134	0.1434
266.3275	0.1589
266.5415	0.1561
266.7556	0.1576
266.9697	0.1642
267.1837	0.1594
267.3978	0.1512
267.6118	0.1735
267.8258	0.1853
268.0398	0.1486
268.2538	0.1559
268.4677	0.1568
268.6817	0.1473
268.8957	0.1561
269.1096	0.1507
269.3235	0.1546
269.5374	0.1408
269.7514	0.1449
269.9652	0.1412
270.1791	0.1488
270.393	0.1448
270.6068	0.1471
270.8207	0.1353
271.0345	0.1445
271.2483	0.1551
271.4622	0.134
271.676	0.1506
271.8897	0.1457
272.1035	0.1531
272.3173	0.13
272.531	0.1503
272.7448	0.1444
272.9585	0.1382
273.1722	0.1439
273.3859	0.1471
273.5996	0.1336
273.8133	0.1383
274.0269	0.133
274.2406	0.1361
274.4542	0.1395
274.6679	0.1312
274.8815	0.1354
275.0951	0.1578
275.3087	0.1394
275.5223	0.1383
275.7358	0.1386
275.9494	0.136
276.1629	0.1298
276.3765	0.1448
276.59	0.1375
276.8035	0.1474
277.017	0.1472
277.2305	0.1323
277.444	0.1398
277.6574	0.1322
277.8709	0.1367
278.0843	0.138
278.2978	0.1378
278.5112	0.1376
278.7246	0.1453
278.938	0.1342
279.1513	0.1519
279.3647	0.1465
279.5781	0.1353
279.7914	0.1468
280.0047	0.1538
280.2181	0.1468
280.4314	0.1481
280.6447	0.1469
280.8579	0.1415
281.0712	0.1584
281.2845	0.1488
281.4977	0.1487
281.711	0.1395
281.9242	0.1514
282.1374	0.1601
282.3506	0.1446
282.5638	0.1472
282.7769	0.1573
282.9901	0.1497
283.2033	0.1537
283.4164	0.153
283.6295	0.1419
283.8426	0.1467
284.0557	0.1469
284.2688	0.1587
284.4819	0.1586
284.695	0.1589
284.908	0.1669
285.1211	0.1499
285.3341	0.1564
285.5471	0.1602
285.7601	0.1585
285.9731	0.1512
286.1861	0.1595
286.3991	0.159
286.612	0.1722
286.825	0.1537
287.0379	0.1684
287.2508	0.1645
287.4637	0.1589
287.6766	0.143
287.8895	0.1756
288.1024	0.1723
288.3152	0.1609
288.5281	0.1597
288.7409	0.1628
288.9538	0.169
289.1666	0.1638
289.3794	0.1642
289.5922	0.1601
289.8049	0.1577
290.0177	0.1667
290.2304	0.1625
290.4432	0.1613
290.6559	0.1605
290.8686	0.1603
291.0813	0.1631
291.294	0.1738
291.5067	0.176
291.7194	0.1565
291.932	0.1842
292.1447	0.1639
292.3573	0.1671
292.5699	0.1727
292.7825	0.1625
292.9951	0.1556
293.2077	0.1692
293.4203	0.1558
293.6328	0.1548
293.8454	0.1704
294.0579	0.1654
294.2704	0.1682
294.4829	0.1632
294.6954	0.1703
294.9079	0.1687
295.1204	0.1666
295.3328	0.1571
295.5453	0.1697
295.7577	0.1638
295.9701	0.1497
296.1825	0.1606
296.3949	0.165
296.6073	0.1665
296.8197	0.1533
297.0321	0.1885
297.2444	0.1577
297.4567	0.1592
297.6691	0.1613
297.8814	0.164
298.0937	0.1662
298.306	0.1676
298.5182	0.1612
298.7305	0.1641
298.9428	0.1589
299.155	0.1626
299.3672	0.1569
299.5794	0.1556
299.7916	0.1621
300.0038	0.1679
300.216	0.1637
300.4282	0.1663
300.6403	0.163
300.8525	0.1721
301.0646	0.1569
301.2767	0.1707
301.4888	0.163
301.7009	0.1706
301.913	0.1622
302.125	0.1685
302.3371	0.1488
302.5491	0.1643
302.7612	0.1702
302.9732	0.1696
303.1852	0.1604
303.3972	0.1645
303.6092	0.1615
303.8211	0.1628
304.0331	0.1582
304.245	0.1512
304.457	0.1504
304.6689	0.1554
304.8808	0.1662
305.0927	0.1543
305.3046	0.1472
305.5164	0.1593
305.7283	0.156
305.9401	0.147
306.152	0.1454
306.3638	0.1576
306.5756	0.1452
306.7874	0.145
306.9992	0.1517
307.2109	0.1424
307.4227	0.1317
307.6344	0.14
307.8462	0.1317
308.0579	0.138
308.2696	0.1379
308.4813	0.1194
308.693	0.1283
308.9046	0.1357
309.1163	0.1196
309.328	0.1273
309.5396	0.1246
309.7512	0.114
309.9628	0.121
310.1744	0.1307
310.386	0.1173
310.5976	0.1211
310.8091	0.1207
311.0207	0.1246
311.2322	0.1082
311.4437	0.1024
311.6552	0.1069
311.8667	0.1204
312.0782	0.1026
312.2897	0.1015
312.5012	0.1145
312.7126	0.1105
312.924	0.1038
313.1355	0.1109
313.3469	0.1095
313.5583	0.1147
313.7696	0.1036
313.981	0.1147
314.1924	0.1021
314.4037	0.1032
314.6151	0.1103
314.8264	0.0955
315.0377	0.1021
315.249	0.1071
315.4603	0.1093
315.6716	0.1026
315.8828	0.094
316.0941	0.0997
316.3053	0.0891
316.5165	0.0919
316.7277	0.082
316.9389	0.0952
317.1501	0.0893
317.3613	0.1028
317.5724	0.0847
317.7836	0.0978
317.9947	0.0858
318.2058	0.0968
318.417	0.0731
318.6281	0.0834
318.8391	0.0915
319.0502	0.0847
319.2613	0.0866
319.4723	0.0998
319.6834	0.1063
319.8944	0.0838
320.1054	0.0875
320.3164	0.0977
320.5274	0.0908
320.7383	0.0985
320.9493	0.099
321.1602	0.108
321.3712	0.0903
321.5821	0.1001
321.793	0.0929
322.0039	0.0919
322.2148	0.0855
322.4257	0.1045
322.6365	0.1052
322.8474	0.098
323.0582	0.089
323.269	0.0915
323.4798	0.1046
323.6906	0.1045
323.9014	0.1029
324.1122	0.0939
324.3229	0.0818
324.5337	0.1066
324.7444	0.089
324.9551	0.1078
325.1658	0.096
325.3765	0.089
325.5872	0.0998
325.7979	0.0944
326.0085	0.1076
326.2192	0.1062
326.4298	0.096
326.6404	0.0926
326.851	0.082
327.0616	0.0848
327.2722	0.0957
327.4828	0.0962
327.6933	0.0977
327.9039	0.1061
328.1144	0.1027
328.3249	0.1048
328.5354	0.0908
328.7459	0.1037
328.9564	0.0851
329.1669	0.1006
329.3773	0.1025
329.5878	0.1004
329.7982	0.096
330.0086	0.1133
330.219	0.1114
330.4294	0.1052
330.6398	0.1076
330.8502	0.0954
331.0605	0.1053
331.2708	0.1058
331.4812	0.1103
331.6915	0.1022
331.9018	0.1038
332.1121	0.0975
332.3224	0.1147
332.5326	0.1083
332.7429	0.1059
332.9531	0.114
333.1633	0.1113
333.3735	0.1007
333.5837	0.0996
333.7939	0.0973
334.0041	0.1189
334.2143	0.1107
334.4244	0.0934
334.6346	0.093
334.8447	0.1064
335.0548	0.1021
335.2649	0.1026
335.475	0.1201
335.685	0.1039
335.8951	0.1139
336.1051	0.1104
336.3152	0.109
336.5252	0.1064
336.7352	0.1058
336.9452	0.1178
337.1552	0.1078
337.3652	0.1057
337.5751	0.1042
337.7851	0.1164
337.995	0.0975
338.2049	0.1042
338.4148	0.1016
338.6247	0.1145
338.8346	0.1016
339.0445	0.1059
339.2543	0.0968
339.4642	0.1092
339.674	0.0993
339.8838	0.1133
340.0936	0.1035
340.3034	0.1238
340.5132	0.1033
340.7229	0.1135
340.9327	0.1198
341.1424	0.1054
341.3522	0.1207
341.5619	0.1187
341.7716	0.1164
341.9813	0.1213
342.1909	0.1106
342.4006	0.1157
342.6102	0.1134
342.8199	0.1185
343.0295	0.1182
343.2391	0.1195
343.4487	0.1194
343.6583	0.1162
343.8679	0.114
344.0774	0.1164
344.287	0.1251
344.4965	0.118
344.706	0.1175
344.9155	0.1308
345.125	0.1157
345.3345	0.128
345.544	0.1176
345.7534	0.1263
345.9629	0.1216
346.1723	0.1213
346.3817	0.1337
346.5911	0.1245
346.8005	0.1303
347.0099	0.1213
347.2193	0.1389
347.4286	0.1283
347.638	0.13
347.8473	0.1328
348.0566	0.1269
348.2659	0.1324
348.4752	0.1266
348.6845	0.1331
348.8937	0.1317
349.103	0.1346
349.3122	0.1259
349.5214	0.1288
349.7306	0.1254
349.9398	0.1293
350.149	0.1318
350.3582	0.1287
350.5674	0.1461
350.7765	0.1358
350.9856	0.1364
351.1948	0.1457
351.4039	0.1303
351.613	0.13
351.822	0.1324
352.0311	0.144
352.2402	0.1288
352.4492	0.1546
352.6582	0.1534
352.8672	0.1309
353.0762	0.1562
353.2852	0.1408
353.4942	0.1396
353.7032	0.1524
353.9121	0.1404
354.1211	0.1605
354.33	0.1577
354.5389	0.162
354.7478	0.1457
354.9567	0.1481
355.1655	0.1406
355.3744	0.1516
355.5833	0.1565
355.7921	0.1573
356.0009	0.1401
356.2097	0.1646
356.4185	0.1555
356.6273	0.1577
356.8361	0.1585
357.0448	0.1497
357.2536	0.1426
357.4623	0.1496
357.671	0.1541
357.8797	0.1699
358.0884	0.1713
358.2971	0.1564
358.5057	0.1576
358.7144	0.1641
358.923	0.1692
359.1316	0.1713
359.3402	0.1725
359.5488	0.1658
359.7574	0.1655
359.966	0.1777
360.1746	0.172
360.3831	0.1876
360.5916	0.1663
360.8002	0.176
361.0087	0.1914
361.2172	0.1777
361.4256	0.1736
361.6341	0.1983
361.8426	0.1857
362.051	0.1831
362.2594	0.1871
362.4678	0.1766
362.6762	0.1947
362.8846	0.1887
363.093	0.1831
363.3014	0.1872
363.5097	0.1715
363.718	0.1868
363.9264	0.1969
364.1347	0.1863
364.343	0.2102
364.5513	0.2014
364.7595	0.2089
364.9678	0.1889
365.176	0.1858
365.3842	0.2028
365.5925	0.1957
365.8007	0.1853
366.0089	0.1901
366.217	0.1921
366.4252	0.2187
366.6333	0.2039
366.8415	0.209
367.0496	0.19
367.2577	0.2192
367.4658	0.2212
367.6739	0.2155
367.882	0.2265
368.09	0.2028
368.2981	0.2074
368.5061	0.1956
368.7141	0.2088
368.9221	0.2277
369.1301	0.2076
369.3381	0.2181
369.5461	0.2035
369.754	0.2132
369.962	0.23
370.1699	0.2197
370.3778	0.2219
370.5857	0.2072
370.7936	0.2194
371.0015	0.2257
371.2093	0.2176
371.4172	0.2318
371.625	0.2267
371.8328	0.2068
372.0406	0.2226
372.2484	0.2415
372.4562	0.2317
372.664	0.2288
372.8717	0.2249
373.0795	0.2199
373.2872	0.2203
373.4949	0.226
373.7026	0.2276
373.9103	0.2344
374.118	0.2591
374.3256	0.2336
374.5333	0.2317
374.7409	0.224
374.9485	0.2393
375.1561	0.2392
375.3637	0.2291
375.5713	0.2203
375.7789	0.2334
375.9864	0.2428
376.194	0.2291
376.4015	0.2471
376.609	0.2523
376.8165	0.2374
377.024	0.2377
377.2315	0.2302
377.4389	0.246
377.6464	0.2582
377.8538	0.2506
378.0612	0.246
378.2686	0.243
378.476	0.2624
378.6834	0.2455
378.8908	0.2481
379.0981	0.2514
379.3055	0.26
379.5128	0.2583
379.7201	0.255
379.9274	0.2298
380.1347	0.2507
380.342	0.2723
380.5492	0.2639
380.7565	0.2676
380.9637	0.2514
381.1709	0.2555
381.3781	0.2632
381.5853	0.2669
381.7925	0.2483
381.9997	0.2571
382.2068	0.2764
382.4139	0.2613
382.6211	0.2548
382.8282	0.2659
383.0353	0.2546
383.2424	0.2604
383.4494	0.2592
383.6565	0.2634
383.8635	0.262
384.0706	0.2524
384.2776	0.2751
384.4846	0.2437
384.6916	0.2612
384.8986	0.253
385.1055	0.28
385.3125	0.2637
385.5194	0.2605
385.7263	0.2758
385.9333	0.2742
386.1402	0.2607
386.347	0.2598
386.5539	0.2676
386.7608	0.2858
386.9676	0.2506
387.1744	0.2551
387.3813	0.2569
387.5881	0.2714
387.7948	0.255
388.0016	0.28
388.2084	0.2524
388.4151	0.2444
388.6219	0.2641
388.8286	0.2558
389.0353	0.2762
389.242	0.2784
389.4487	0.2559
389.6553	0.2544
389.862	0.2269
390.0686	0.2482
390.2753	0.2438
390.4819	0.2507
390.6885	0.2389
390.8951	0.2447
391.1016	0.2482
391.3082	0.2498
391.5147	0.263
391.7213	0.2528
391.9278	0.2342
392.1343	0.2236
392.3408	0.234
392.5473	0.2376
392.7537	0.2403
392.9602	0.2385
393.1666	0.2403
393.373	0.2292
393.5794	0.2365
393.7858	0.2439
393.9922	0.2137
394.1986	0.2353
394.4049	0.2391
394.6113	0.2301
394.8176	0.2123
395.0239	0.2248
395.2302	0.226
395.4365	0.2242
395.6428	0.2328
395.8491	0.2127
396.0553	0.2224
396.2615	0.2155
396.4678	0.2159
396.674	0.2167
396.8802	0.2208
397.0863	0.2206
397.2925	0.2194
397.4987	0.2131
397.7048	0.2241
397.9109	0.2294
398.117	0.2218
398.3231	0.2091
398.5292	0.2229
398.7353	0.2177
398.9413	0.21
399.1474	0.2226
399.3534	0.2211
399.5594	0.2069
399.7654	0.2268
399.9714	0.2392
400.1774	0.2298
400.3833	0.2059
400.5893	0.2316
400.7952	0.2237
401.0011	0.2296
401.207	0.2173
401.4129	0.2108
401.6188	0.2145
401.8247	0.2224
402.0305	0.2135
402.2364	0.2278
402.4422	0.2395
402.648	0.2168
402.8538	0.2249
403.0596	0.2097
403.2654	0.2084
403.4711	0.2293
403.6768	0.2155
403.8826	0.2236
404.0883	0.2189
404.294	0.2327
404.4997	0.2183
404.7054	0.2254
404.911	0.2107
405.1167	0.2161
405.3223	0.2288
405.5279	0.2213
405.7335	0.2367
405.9391	0.2255
406.1447	0.2105
406.3502	0.2079
406.5558	0.21
406.7613	0.2052
406.9668	0.2117
407.1724	0.2088
407.3778	0.2027
407.5833	0.2088
407.7888	0.2031
407.9942	0.2335
408.1997	0.1982
408.4051	0.2103
408.6105	0.2284
408.8159	0.2288
409.0213	0.2068
409.2267	0.2462
409.432	0.2265
409.6374	0.2167
409.8427	0.2245
410.048	0.2253
410.2533	0.2214
410.4586	0.2269
410.6639	0.1955
410.8691	0.2161
411.0744	0.2154
411.2796	0.2048
411.4848	0.2169
411.69	0.2045
411.8952	0.2318
412.1004	0.1953
412.3056	0.2353
412.5107	0.2233
412.7158	0.2297
412.921	0.2325
413.1261	0.2073
413.3312	0.1981
413.5362	0.2161
413.7413	0.2136
413.9464	0.2167
414.1514	0.2121
414.3564	0.2109
414.5614	0.1979
414.7664	0.208
414.9714	0.2226
415.1764	0.2092
415.3813	0.2263
415.5863	0.2202
415.7912	0.2058
415.9961	0.2142
416.201	0.2073
416.4059	0.2127
416.6108	0.1958
416.8156	0.2207
417.0205	0.2135
417.2253	0.2166
417.4301	0.2258
417.6349	0.2149
417.8397	0.2167
418.0445	0.216
418.2492	0.2106
418.454	0.1972
418.6587	0.2301
418.8634	0.2111
419.0681	0.1985
419.2728	0.2092
419.4775	0.1916
419.6822	0.199
419.8868	0.1875
420.0915	0.2003
420.2961	0.1763
420.5007	0.1828
420.7053	0.2038
420.9099	0.2139
421.1144	0.2045
421.319	0.1919
421.5235	0.2002
421.728	0.2012
421.9325	0.197
422.137	0.2128
422.3415	0.2009
422.546	0.1932
422.7504	0.1891
422.9549	0.1912
423.1593	0.1801
423.3637	0.1981
423.5681	0.1841
423.7725	0.1816
423.9769	0.1847
424.1812	0.1838
424.3856	0.1662
424.5899	0.1838
424.7942	0.1766
424.9985	0.1869
425.2028	0.1821
425.4071	0.2143
425.6113	0.1787
425.8156	0.1743
426.0198	0.1827
426.224	0.1666
426.4282	0.1792
426.6324	0.174
426.8366	0.1705
427.0407	0.1735
427.2449	0.1667
427.449	0.1916
427.6531	0.1469
427.8572	0.1692
428.0613	0.1728
428.2654	0.1727
428.4694	0.1586
428.6735	0.1523
428.8775	0.1879
429.0815	0.17
429.2855	0.1528
429.4895	0.1493
429.6935	0.1499
429.8975	0.158
430.1014	0.1522
430.3053	0.1368
430.5093	0.1563
430.7132	0.1448
430.9171	0.1351
431.1209	0.1466
431.3248	0.1397
431.5286	0.14
431.7325	0.1464
431.9363	0.134
432.1401	0.1425
432.3439	0.1214
432.5477	0.1109
432.7514	0.1376
432.9552	0.1284
433.1589	0.1236
433.3627	0.1142
433.5664	0.1336
433.7701	0.1068
433.9737	0.1113
434.1774	0.1139
434.3811	0.1186
434.5847	0.1276
434.7883	0.1106
434.9919	0.1047
435.1955	0.1135
435.3991	0.1088
435.6027	0.1177
435.8062	0.1065
436.0098	0.0916
436.2133	0.1036
436.4168	0.1062
436.6203	0.102
436.8238	0.1049
437.0272	0.106
437.2307	0.1063
437.4341	0.1092
437.6375	0.097
437.841	0.0872
438.0443	0.1076
438.2477	0.0917
438.4511	0.0805
438.6545	0.0924
438.8578	0.0869
439.0611	0.0802
439.2644	0.0798
439.4677	0.0763
439.671	0.0798
439.8743	0.0916
440.0775	0.0812
440.2808	0.0837
440.484	0.0783
440.6872	0.0523
440.8904	0.0625
441.0936	0.0922
441.2967	0.0754
441.4999	0.0831
441.703	0.0593
441.9062	0.0638
442.1093	0.0648
442.3124	0.075
442.5155	0.0501
442.7185	0.0621
442.9216	0.0493
443.1246	0.0768
443.3276	0.0604
443.5307	0.0537
443.7337	0.0668
443.9366	0.0646
444.1396	0.0605
444.3426	0.0583
444.5455	0.0568
444.7484	0.0526
444.9513	0.0491
445.1542	0.0559
445.3571	0.0517
445.56	0.0523
445.7628	0.048
445.9657	0.0472
446.1685	0.0549
446.3713	0.0392
446.5741	0.0466
446.7769	0.045
446.9797	0.0445
447.1824	0.0402
447.3852	0.0381
447.5879	0.0551
447.7906	0.0433
447.9933	0.0376
448.196	0.0408
448.3986	0.0303
448.6013	0.0404
448.8039	0.0298
449.0066	0.0417
449.2092	0.0471
449.4118	0.0416
449.6143	0.038
449.8169	0.0397
450.0195	0.0332
450.222	0.0039
450.4245	0.0281
450.627	0.0374
450.8295	0.0197
451.032	0.0408
451.2345	0.0349
451.4369	0.0359
451.6394	0.0132
451.8418	0.0049
452.0442	0.0106
452.2466	0.031
452.449	0.0124
452.6513	0.0246
452.8537	0.0139
453.056	0.0073
453.2583	0.0128
453.4607	0.0212
453.663	0.0119
453.8652	0.0229
454.0675	0.0258
454.2697	0.0186
454.472	0.0056
454.6742	0.0309
454.8764	0.0276
455.0786	0.0291
455.2808	0.0182
455.4829	0.0166
455.6851	0.0223
455.8872	0.0207
456.0893	0.0276
456.2915	0.0086
456.4935	0.0242
456.6956	-0.0035
456.8977	0.0149
457.0997	0.0079
457.3018	0.0019
457.5038	0.0162
457.7058	0.0076
457.9078	-0
458.1098	0.0053
458.3117	0.0184
458.5137	0.0153
458.7156	-0.0045
458.9175	-0.0034
459.1194	0.0077
459.3213	-0.0002
459.5232	0.0046
459.725	0.0015
459.9269	-0.0029
460.1287	-0.0046
460.3305	0.0034
460.5323	0.0112
460.7341	0.009
460.9359	-0
461.1376	0.0077
461.3394	0.0086
461.5411	0.0046
461.7428	0.0117
461.9445	0.01
462.1462	0.0119
462.3479	-0.0086
462.5495	0.001
462.7512	0.0112
462.9528	-0.0026
463.1544	0.0031
463.356	0.0062
463.5576	0.0142
463.7592	0.0005
463.9607	0.0046
464.1623	0.009
464.3638	0.0144
464.5653	-0.0117
464.7668	-0.0079
464.9683	0.013
465.1697	0.017
465.3712	0.0011
465.5726	-0.0028
465.7741	-0.0077
465.9755	0.0008
466.1769	-0.0084
466.3782	-0.0061
466.5796	-0.0036
466.7809	-0.002
466.9823	-0.013
467.1836	0.0043
467.3849	-0.0091
467.5862	0.0086
467.7875	-0.0118
467.9887	0.014
468.19	0.0076
468.3912	-0.0069
468.5924	-0.0152
468.7936	-0.0161
468.9948	-0.0048
469.196	-0.0088
469.3972	-0.0042
469.5983	0.0099
469.7994	-0.017
470.0006	-0.0013
470.2017	-0.0149
470.4027	-0.0071
470.6038	0.0093
470.8049	-0.0194
471.0059	-0.0065
471.2069	-0.0261
471.408	0.0052
471.6089	-0.0073
471.8099	-0.0192
472.0109	-0.0015
472.2119	-0.0074
472.4128	-0.0189
472.6137	0.0008
472.8146	-0.0171
473.0155	-0.0122
473.2164	0.0074
473.4173	0.0101
473.6181	0.0013
473.819	0.0052
474.0198	-0.0031
474.2206	-0.0113
474.4214	0.0031
474.6222	-0.0054
474.8229	-0.0099
475.0237	-0.0179
475.2244	-0.0137
475.4251	-0.0011
475.6258	-0.0008
475.8265	0.0024
476.0272	0.0003
476.2278	-0.0041
476.4285	-0.006
476.6291	-0.0031
476.8297	-0.003
477.0303	-0.0125
477.2309	-0.0005
477.4315	-0.0228
477.632	-0.0022
477.8326	-0.0097
478.0331	-0.0107
478.2336	-0.0007
478.4341	-0.0079
478.6346	-0.0154
478.8351	-0.0008
479.0355	-0.0056
479.236	-0.0093
479.4364	-0.0078
479.6368	0.0011
479.8372	-0.0118
480.0376	-0.0093
480.2379	-0.0256
480.4383	-0.0211
480.6386	0.0098
480.8389	-0.0046
481.0392	-0.0126
481.2395	-0.0104
481.4398	-0.0017
481.6401	-0
481.8403	-0.0039
482.0405	0.0005
482.2408	-0.0037
482.441	0.0117
482.6411	-0.0038
482.8413	-0.0157
483.0415	-0.0008
483.2416	-0.0085
483.4417	-0.0051
483.6419	-0.0068
483.8419	-0.003
484.042	0.0042
484.2421	-0.0014
484.4422	0.004
484.6422	-0.0047
484.8422	-0.0018
485.0422	-0.0144
485.2422	-0.0002
485.4422	-0.0144
485.6422	-0.0092
485.8421	-0.0049
486.042	-0.0042
486.242	-0.0088
486.4419	-0.0136
486.6417	-0.0136
486.8416	-0.0096
487.0415	-0.0068
487.2413	-0.0133
487.4411	-0.0124
487.641	-0.0077
487.8408	0.0001
488.0405	-0.0084
488.2403	-0.0043
488.4401	-0.0001
488.6398	-0.0136
488.8395	-0.012
489.0392	-0.0033
489.2389	-0.0098
489.4386	-0.0114
489.6383	-0.0035
489.8379	-0.0033
490.0376	-0.0086
490.2372	-0.0138
490.4368	-0.0203
490.6364	-0.0113
490.836	-0.0169
491.0355	0.0004
491.2351	-0.0054
491.4346	-0.0096
491.6341	-0.0154
491.8336	-0.0112
492.0331	-0.0099
492.2326	-0.0099
492.432	-0.0047
492.6315	-0.0086
492.8309	-0.0174
493.0303	-0.019
493.2297	-0.0126
493.4291	-0.0069
493.6284	-0.0144
493.8278	0.0063
494.0271	0.0012
494.2264	-0.0024
494.4257	-0.0076
494.625	0.0014
494.8243	-0.021
495.0236	-0.0103
495.2228	-0.0108
495.422	0.0046
495.6213	-0.0078
495.8205	-0.0064
496.0196	-0.0047
496.2188	-0.0015
496.418	-0.0144
496.6171	0.0023
496.8162	-0.0114
497.0153	-0.0022
497.2144	-0.0168
497.4135	-0.0095
497.6126	-0.0151
497.8116	-0.0192
498.0107	0.0057
498.2097	-0.0129
498.4087	-0.0204
498.6077	0.0098
498.8067	-0.013
499.0056	0.0019
499.2046	-0.0094
499.4035	-0.0142
499.6024	-0.0118
499.8013	-0.0098
500.0002	-0.0084
500.199	-0.0032
500.3979	-0.014
500.5967	-0.0233
500.7956	-0.0013
500.9944	0.002
501.1932	-0.0108
501.3919	-0.0163
501.5907	-0.0129
501.7895	-0.0128
501.9882	-0.0165
502.1869	-0.0114
502.3856	-0.0073
502.5843	-0.0124
502.783	-0.0058
502.9816	-0.013
503.1803	-0.0206
503.3789	-0.0072
503.5775	-0.0047
503.7761	-0.0052
503.9747	-0.0051
504.1732	-0.0076
504.3718	-0.0025
504.5703	-0.0105
504.7689	-0.0042
504.9674	-0.0051
505.1658	-0.0122
505.3643	-0.0088
505.5628	0.0054
505.7612	-0.0159
505.9597	-0.0001
506.1581	-0.0059
506.3565	0.0043
506.5549	-0.0111
506.7532	-0.0196
506.9516	-0.0088
507.1499	-0.0079
507.3482	-0.014
507.5465	-0.0027
507.7448	-0.0043
507.9431	-0.0024
508.1414	-0.0006
508.3396	-0.0149
508.5379	-0.01
508.7361	-0.0156
508.9343	-0.0101
509.1325	-0.0024
509.3306	-0.0113
509.5288	-0.0114
509.7269	-0.0132
509.9251	-0.0048
510.1232	-0.0195
510.3213	0.0009
510.5193	-0.003
510.7174	-0.0213
510.9154	-0.0078
511.1135	-0.0103
511.3115	-0.0177
511.5095	0.0011
511.7075	-0.0051
511.9055	-0.0064
512.1034	-0.0189
512.3014	-0.0048
512.4993	-0.0116
512.6972	-0.0054
512.8951	-0.0139
513.093	-0.0149
513.2908	-0.0039
513.4887	-0.0067
513.6865	-0.0112
513.8844	-0.0059
514.0822	-0.0079
514.2799	-0.0175
514.4777	-0.0088
514.6755	-0.0093
514.8732	0.0024
515.0709	-0.006
515.2687	-0.0152
515.4664	-0.0053
515.664	-0.0048
515.8617	-0.0092
516.0594	-0.0179
516.257	-0.0067
516.4546	-0.0141
516.6522	0.0034
516.8498	-0.0032
517.0474	0.0123
517.2449	-0.0041
517.4425	-0.0167
517.64	0.001
517.8375	-0.0009
518.035	-0.005
518.2325	-0.0148
518.43	-0.0117
518.6274	-0.0084
518.8249	-0.0171
519.0223	-0.0016
519.2197	-0.0079
519.4171	-0.0098
519.6145	-0.0188
519.8118	0.0016
520.0092	-0.0092
520.2065	-0.0167
520.4038	-0.0171
520.6011	-0.0045
520.7984	-0.0078
520.9956	-0.0096
521.1929	-0.0009
521.3901	-0.0062
521.5874	-0.0099
521.7846	-0.0032
521.9818	-0.0107
522.1789	-0.0141
522.3761	-0.0135
522.5732	-0.0017
522.7704	-0.0172
522.9675	0.0021
523.1646	-0.0076
523.3617	-0.0136
523.5587	-0.0101
523.7558	-0.0067
523.9528	-0.0052
524.1498	0.0024
524.3468	-0.007
524.5438	-0.0089
524.7408	-0.0079
524.9378	-0.0021
525.1347	-0.0026
525.3316	-0.007
525.5285	-0.0091
525.7254	0.0003
525.9223	-0.0077
526.1192	0.001
526.316	-0.0066
526.5129	-0.0036
526.7097	-0.0052
526.9065	-0.0012
527.1033	-0.009
527.3	-0.0006
527.4968	-0.0052
527.6935	-0.0064
527.8903	-0.0122
528.087	-0.0079
528.2837	-0.007
528.4804	-0.0062
528.677	-0.0097
528.8737	0.0096
529.0703	-0.0001
529.2669	-0.0069
529.4635	-0.0036
529.6601	-0.002
529.8567	-0.0122
530.0532	-0.0155
530.2498	-0.0004
530.4463	-0.0004
530.6428	-0.0144
530.8393	0.0016
531.0358	-0.0042
531.2322	-0.0083
531.4287	-0.0123
531.6251	-0.0126
531.8215	0.0078
532.0179	-0.0047
532.2143	0.0118
532.4107	-0.0033
532.607	-0.0067
532.8034	0.0016
532.9997	-0.0072
533.196	-0.0084
533.3923	-0.0118
533.5886	0.0003
533.7848	-0.0032
533.9811	0.0035
534.1773	-0.0032
534.3735	-0.002
534.5697	0.0014
534.7659	-0.0031
534.9621	-0.0008
535.1582	-0.0115
535.3544	-0.0055
535.5505	-0.0093
535.7466	-0.011
535.9427	-0.0069
536.1387	-0.0057
536.3348	-0.0085
536.5308	-0.0033
536.7269	-0.0124
536.9229	-0.0038
537.1189	-0.0042
537.3148	-0.0016
537.5108	-0.002
537.7068	0.002
537.9027	-0.0045
538.0986	-0.0105
538.2945	-0.0069
538.4904	-0.0039
538.6863	-0.0125
538.8821	-0.0058
539.078	-0.0093
539.2738	-0.0055
539.4696	-0.0031
539.6654	-0.0008
539.8611	0.006
540.0569	-0.0027
540.2526	-0.004
540.4484	0.0004
540.6441	0.0058
540.8398	0.0031
541.0355	-0.0006
541.2311	-0.0079
541.4268	-0.0106
541.6224	0.0053
541.818	-0.0031
542.0136	-0.0136
542.2092	0.0017
542.4048	0.0014
542.6003	-0.0006
542.7959	-0.003
542.9914	-0.0035
543.1869	0.0006
543.3824	-0.0003
543.5779	-0.0058
543.7734	-0
543.9688	-0.0076
544.1642	0.003
544.3596	0.0008
544.555	-0.0047
544.7504	0.003
544.9458	-0.0054
545.1411	-0.0016
545.3365	0.0036
545.5318	-0.0149
545.7271	-0.0048
545.9224	-0.0077
546.1177	0.0035
546.3129	-0.002
546.5081	-0.0071
546.7034	-0.0113
546.8986	-0.0117
547.0938	-0.009
547.289	-0.0056
547.4841	-0.0006
547.6793	0.0039
547.8744	-0.0071
548.0695	-0.0061
548.2646	-0.004
548.4597	-0.0056
548.6548	-0.0041
548.8498	-0.0001
549.0448	0.0005
549.2399	-0.0005
549.4349	-0.001
549.6298	0.0008
549.8248	-0.0009
550.0198	-0.0044
550.2147	0.0005
550.4096	-0.0068
550.6045	0.0041
550.7994	0.0058
550.9943	-0.0067
551.1892	-0.0059
551.384	0.0024
551.5788	-0.0081
551.7737	-0.003
551.9685	-0.0048
552.1632	-0.0045
552.358	-0.0091
552.5528	0.0007
552.7475	-0.0059
552.9422	0.0024
553.1369	-0.0091
553.3316	0.0005
553.5263	-0.017
553.7209	0.0106
553.9156	-0.009
554.1102	-0.0069
554.3048	-0.007
554.4994	0.0059
554.694	-0.0086
554.8885	0.0039
555.0831	-0.0096
555.2776	-0.008
555.4721	-0.0045
555.6666	-0.0072
555.8611	0.0103
556.0555	-0.0064
556.25	-0.011
556.4444	-0.0158
556.6388	0.0023
556.8332	-0.0014
557.0276	-0.0071
557.222	0.0012
557.4163	-0.007
557.6107	-0.0052
557.805	0.0039
557.9993	-0.0125
558.1936	-0.001
558.3879	0.0042
558.5821	-0.0001
558.7764	-0.0034
558.9706	-0.0028
559.1648	-0.0002
559.359	-0.0027
559.5532	-0.016
559.7473	-0.0097
559.9415	-0.0026
560.1356	-0.0085
560.3297	-0.0151
560.5238	-0.005
560.7179	0.0008
560.9119	-0.0065
561.106	-0.0115
561.3	-0.0057
561.494	-0.0074
561.688	-0.0018
561.882	-0.0112
562.076	-0.0075
562.2699	-0.002
562.4639	-0.005
562.6578	-0.0063
562.8517	-0.0088
563.0456	-0.0007
563.2395	0.0059
563.4333	0.0029
563.6272	0.0012
563.821	-0.0012
564.0148	-0.0054
564.2086	-0.0021
564.4024	-0.0113
564.5961	-0.0093
564.7899	-0.0023
564.9836	-0.0119
565.1773	0.0038
565.371	0.0076
565.5647	-0.0014
565.7584	-0.0036
565.952	-0.0033
566.1456	-0.0049
566.3393	-0.0005
566.5329	-0.01
566.7264	0.0037
566.92	-0.0066
567.1136	-0.0006
567.3071	-0.0038
567.5006	-0.0026
567.6941	0.0062
567.8876	-0.0073
568.0811	-0.004
568.2745	-0.0041
568.468	0.0082
568.6614	0.001
568.8548	-0.0047
569.0482	0.0001
569.2416	-0.0081
569.4349	0.0009
569.6283	0.002
569.8216	-0.0048
570.0149	-0.0001
570.2082	-0.0009
570.4015	0.0008
570.5947	0.0064
570.788	0.006
570.9812	0.0056
571.1744	-0.0007
571.3676	-0.0078
571.5608	-0.0041
571.754	-0.0053
571.9471	-0.0023
572.1402	-0.0064
572.3333	-0.0023
572.5264	-0.0058
572.7195	-0.0018
572.9126	-0
573.1057	0.0007
573.2987	-0.0031
573.4917	-0.0009
573.6847	-0.0099
573.8777	0.0032
574.0707	0.0016
574.2636	-0.0065
574.4566	0.003
574.6495	0.0035
574.8424	-0.0026
575.0353	-0.0021
575.2281	0.0072
575.421	0.0004
575.6138	0.0019
575.8067	-0.0066
575.9995	0.004
576.1923	0.0083
576.385	-0.0004
576.5778	-0.004
576.7706	-0.0041
576.9633	0.0053
577.156	-0.0006
577.3487	0.001
577.5414	0.0046
577.734	-0.0033
577.9267	-0.0003
578.1193	-0.0078
578.3119	-0.0035
578.5045	-0.002
578.6971	0.0009
578.8897	0.0039
579.0822	-0.0016
579.2747	0.0056
579.4673	-0.005
579.6598	-0.0029
579.8522	-0.0011
580.0447	-0.0086
580.2372	-0.0038
580.4296	0.0052
580.622	-0.0019
580.8144	-0.0001
581.0068	-0.0012
581.1992	-0.0148
581.3915	-0.0053
581.5839	-0.0084
581.7762	-0.0097
581.9685	-0.0027
582.1608	0.0043
582.353	-0.008
582.5453	-0.0059
582.7375	0.0001
582.9298	-0.0011
583.122	-0.0026
583.3142	-0.0009
583.5063	-0.0026
583.6985	-0.004
583.8906	-0.0026
584.0827	-0.0032
584.2749	0.001
584.4669	0.0039
584.659	-0.0015
584.8511	0.0001
585.0431	-0.0018
585.2352	0.0018
585.4272	-0.0008
585.6192	0.0015
585.8111	0.0039
586.0031	0.0012
586.195	-0.0018
586.387	0.0017
586.5789	-0.0009
586.7708	-0.0031
586.9627	-0.002
587.1545	-0.0018
587.3464	0.0012
587.5382	0.008
587.73	0.0001
587.9218	0.0032
588.1136	0.0032
588.3053	0.0009
588.4971	-0.0101
588.6888	-0.0058
588.8805	0.0014
589.0722	-0.0085
589.2639	-0.0008
589.4556	-0.0009
589.6472	-0.0022
589.8389	-0.0016
590.0305	-0.0096
590.2221	-0.0029
590.4137	-0.0105
590.6052	0.0057
590.7968	0.0071
590.9883	0.0014
591.1798	-0.0032
591.3713	-0.0051
591.5628	0.0014
591.7543	-0.0025
591.9458	-0.0042
592.1372	0.0016
592.3286	0.0105
592.52	0.0033
592.7114	-0.0042
592.9028	-0.0069
593.0941	-0.0086
593.2855	-0.0029
593.4768	0.0004
593.6681	0.0032
593.8594	-0.0113
594.0506	0.0022
594.2419	0.0087
594.4331	0.004
594.6244	0.0041
594.8156	-0.0073
595.0067	0.0033
595.1979	-0.001
595.3891	0.0003
595.5802	0.0017
595.7713	0.0009
595.9624	-0.0015
596.1535	0.0068
596.3446	-0.0007
596.5357	0.0004
596.7267	0.0043
596.9177	-0.0002
597.1087	-0.0094
597.2997	-0.0069
597.4907	-0.0009
597.6817	-0.0057
597.8726	-0.0012
598.0635	-0.0026
598.2544	-0.01
598.4453	-0.0029
598.6362	-0.0022
598.827	-0.0031
599.0179	0
599.2087	0.0016
599.3995	0.0024
599.5903	0
599.7811	-0.0022
599.9718	0.0017
600.1626	-0.0092
600.3533	-0.0119
600.544	-0.0014
600.7347	-0.0057
600.9254	0.0022
601.116	-0.0104
601.3067	-0.0029
601.4973	-0.0065
601.6879	0.0036
601.8785	-0.0084
602.0691	0.0053
602.2596	0.0028
602.4502	0.0036
602.6407	-0.0013
602.8312	0.0001
603.0217	-0.0023
603.2122	-0.0008
603.4027	-0.0026
603.5931	-0
603.7835	-0.01
603.9739	-0.0009
604.1643	-0
604.3547	-0.0067
604.5451	0.0024
604.7354	-0.008
604.9257	0.0033
605.116	-0.0038
605.3063	0.0025
605.4966	0.001
605.6869	0.0054
605.8771	0.0108
606.0673	0.0058
606.2575	0.0067
606.4477	0.0062
606.6379	-0.0001
606.8281	-0.0018
607.0182	-0.0003
607.2083	0.013
607.3985	-0.0015
607.5885	0.0025
607.7786	0.0002
607.9687	-0.0032
608.1587	0.0062
608.3488	-0.001
608.5388	0.0052
608.7288	-0.004
608.9187	-0.0061
609.1087	-0.0116
609.2986	-0.0107
609.4886	-0.0021
609.6785	0.0007
609.8684	0.0013
610.0582	0.0087
610.2481	0.0056
610.4379	-0.004
610.6278	-0.0062
610.8176	-0.0011
611.0074	-0.0014
611.1971	-0.0059
611.3869	-0.0078
611.5766	-0.0009
611.7664	0.0065
611.9561	0.0022
612.1458	0.0012
612.3354	-0.0033
612.5251	-0.0009
612.7147	0.0006
612.9044	0.0025
613.094	-0.0081
613.2836	0.0035
613.4731	-0.0032
613.6627	0.001
613.8522	0.0005
614.0417	-0.0043
614.2313	-0.0059
614.4207	-0.0034
614.6102	0.0026
614.7997	-0.0062
614.9891	-0.0071
615.1785	-0.0047
615.3679	0.0031
615.5573	0.0019
615.7467	0.0008
615.9361	-0.0017
616.1254	-0.0036
616.3147	-0.0044
616.504	-0
616.6933	-0.0001
616.8826	0.0077
617.0718	0.0051
617.2611	0.0035
617.4503	-0.0011
617.6395	-0.0037
617.8287	-0.0099
618.0179	-0.0013
618.207	0.0015
618.3961	-0.0017
618.5853	0.003
618.7744	0.0072
618.9634	0.0031
619.1525	0.0009
619.3416	0.0042
619.5306	-0.0018
619.7196	0.0036
619.9086	-0.0003
620.0976	0.0046
620.2866	-0.005
620.4755	0.0011
620.6645	0.005
620.8534	0.0002
621.0423	0.0101
621.2312	0.0008
621.42	-0.0025
621.6089	-0.0002
621.7977	0.0048
621.9865	-0.0038
622.1753	0.0091
622.3641	-0.0005
622.5529	0.0021
622.7416	0.006
622.9303	-0.0021
623.1191	0.0074
623.3078	-0.0033
623.4964	-0.0026
623.6851	0.0008
623.8737	-0.0081
624.0624	0.0017
624.251	-0.0031
624.4396	0.001
624.6282	-0.0077
624.8167	-0.0018
625.0053	0.0046
625.1938	0.0056
625.3823	-0.0058
625.5708	0.0056
625.7593	-0.0106
625.9477	-0.0031
626.1362	-0.0065
626.3246	0.0011
626.513	0.0018
626.7014	0.0076
626.8898	-0.003
627.0781	0.003
627.2665	-0.0033
627.4548	0.0053
627.6431	-0.0002
627.8314	0.0004
628.0197	0.0104
628.2079	-0.0072
628.3962	-0.0004
628.5844	-0.0002
628.7726	-0.0003
628.9608	0.002
629.1489	0.0013
629.3371	0.0016
629.5252	0.0027
629.7134	0.0065
629.9015	0.0005
630.0895	0.0014
630.2776	0.007
630.4657	0.0008
630.6537	-0.0004
630.8417	-0.0021
631.0297	-0.0035
631.2177	-0.0008
631.4057	-0.0067
631.5936	-0.0028
631.7815	0.001
631.9695	-0.0003
632.1574	0.0042
632.3452	0.009
632.5331	0.0007
632.7209	-0.0007
632.9088	0.005
633.0966	0.0088
633.2844	-0.0038
633.4722	-0.0038
633.6599	0.0072
633.8477	0.0024
634.0354	-0.0033
634.2231	-0.0044
634.4108	0.0041
634.5985	0.0056
634.7861	0.0045
634.9738	-0.0027
635.1614	-0.006
635.349	0.0092
635.5366	-0.0029
635.7242	0.0022
635.9117	0.003
636.0993	-0.0016
636.2868	0.0041
636.4743	-0.0044
636.6618	0.0142
636.8492	0.0004
637.0367	0.0076
637.2241	-0.0038
637.4115	0.0016
637.5989	0.0018
637.7863	0.0025
637.9737	-0.0033
638.161	0.0017
638.3484	0.0005
638.5357	-0.004
638.723	0.0029
638.9103	-0.0038
639.0975	-0.002
639.2848	-0.0015
639.472	-0.0018
639.6592	0.005
639.8464	0.0096
640.0336	0.0072
640.2208	0.0006
640.4079	-0.0047
640.595	0.0082
640.7821	-0.0006
640.9692	0.0039
641.1563	0.0037
641.3434	0.002
641.5304	-0.0081
641.7174	-0.0074
641.9044	0.0048
642.0914	0.003
642.2784	-0.0016
642.4653	0.0009
642.6523	0.0032
642.8392	-0.0086
643.0261	0.003
643.213	-0.0017
643.3999	-0.001
643.5867	-0.0027
643.7735	-0.0002
643.9604	-0.0056
644.1472	0.007
644.3339	0.0024
644.5207	-0.0043
644.7075	-0.0022
644.8942	0.0086
645.0809	0.0045
645.2676	0.0046
645.4543	0.0079
645.6409	0.0045
645.8276	0.0014
646.0142	0.0075
646.2008	0.0002
646.3874	-0.0078
646.574	-0.0019
646.7605	-0.0024
646.9471	-0.0125
647.1336	-0.0041
647.3201	-0.0013
647.5066	-0.0051
647.6931	0.0052
647.8795	-0.0046
648.0659	0.0064
648.2524	0.0075
648.4388	-0.0039
648.6252	0.0017
648.8115	0.0011
648.9979	0.0029
649.1842	0.0047
649.3705	-0.0024
649.5568	0.0054
649.7431	0.0014
649.9294	-0.0055
650.1156	0.0103
650.3018	-0.0118
650.488	0.0048
650.6742	0.0032
650.8604	-0.0045
651.0466	-0.005
651.2327	0.0043
651.4188	-0.0041
651.6049	-0.0031
651.791	-0.0002
651.9771	-0.0015
652.1632	0.0015
652.3492	0.0028
652.5352	0.0011
652.7212	0.0044
652.9072	-0.0032
653.0932	-0.0008
653.2791	-0.0037
653.465	0.0048
653.651	-0.0026
653.8369	-0.0042
654.0227	-0.0049
654.2086	0.0093
654.3944	0.0013
654.5803	0.0046
654.7661	-0.0003
654.9519	0.0002
655.1377	-0.0079
655.3234	0.0009
655.5092	-0.0059
655.6949	-0.0078
655.8806	-0.0039
656.0663	0.0012
656.2519	0.0039
656.4376	-0.0067
656.6232	0.0025
656.8088	-0.001
656.9945	0.0026
657.18	-0.0013
657.3656	-0.0018
657.5511	0.0025
657.7367	-0.0027
657.9222	-0.0007
658.1077	-0.0039
658.2932	0.0014
658.4786	-0.0098
658.6641	-0.0099
658.8495	-0.003
659.0349	-0.0057
659.2203	0.0021
659.4057	0.0016
659.591	0.0017
659.7764	-0.0015
659.9617	0.001
660.147	0.0016
660.3323	-0.0023
660.5176	0.0022
660.7028	0.0057
660.888	-0.0029
661.0733	-0.0053
661.2585	-0.0037
661.4436	-0.0024
661.6288	-0.0061
661.8139	-0.001
661.9991	0.0065
662.1842	-0.0076
662.3693	-0.0024
662.5544	0.0029
662.7394	0.0025
662.9245	-0.0023
663.1095	-0.0037
663.2945	-0.0062
663.4795	-0.0026
663.6644	0.0102
663.8494	0.0001
664.0343	0.0102
664.2193	-0.0024
664.4042	-0.0045
664.589	-0.0033
664.7739	-0.0033
664.9587	-0.0097
665.1436	-0.0043
665.3284	-0.004
665.5132	-0.0028
665.698	-0.0075
665.8827	0.0067
666.0675	-0.0019
666.2522	-0.0117
666.4369	-0.0072
666.6216	0.0051
666.8063	-0.0013
666.9909	0.0039
667.1756	-0.0081
667.3602	-0.0001
667.5448	-0.0025
667.7294	0.0033
667.9139	-0.0019
668.0985	0.0165
668.283	-0.0006
668.4675	0.0006
668.652	0.0052
668.8365	0.0037
669.0209	0.0081
669.2054	0.0032
669.3898	-0.0055
669.5742	0.0001
669.7586	0.0051
669.943	0.0093
670.1273	0.0064
670.3117	-0.0026
670.496	0.0024
670.6803	0.0069
670.8646	0.0027
671.0488	-0.0038
671.2331	0.0006
671.4173	-0.0004
671.6015	0.0025
671.7857	0.0043
671.9699	0.0037
672.1541	0.0107
672.3382	0.0044
672.5223	0.0029
672.7064	0.0077
672.8905	0.0045
673.0746	-0.0029
673.2587	-0.0067
673.4427	0.0021
673.6267	0.0033
673.8107	0.0086
673.9947	0.007
674.1787	0.0072
674.3626	0.0001
674.5465	0.0102
674.7304	0.0038
674.9143	0.0091
675.0982	0.0046
675.2821	0.003
675.4659	0.0077
675.6497	0.0018
675.8335	-0.003
676.0173	-0.0062
676.2011	0.0053
676.3849	-0.005
676.5686	-0.0025
676.7523	-0.0056
676.936	-0.0025
677.1197	-0.0057
677.3034	-0.0114
677.487	-0.0014
677.6706	-0.0017
677.8542	0.0051
678.0378	-0.0025
678.2214	-0.0054
678.405	-0.005
678.5885	-0.0103
678.772	0.0041
678.9555	-0.0022
679.139	-0.0004
679.3225	0.0007
679.5059	0.0001
679.6894	0.0026
679.8728	-0.0005
680.0562	-0.0052
680.2395	-0.0032
680.4229	0.0003
680.6062	0.001
680.7896	-0.0045
680.9729	-0.0042
681.1562	0.004
681.3394	-0.0023
681.5227	-0.0023
681.7059	0.0047
681.8891	0.003
682.0723	0.0037
682.2555	0.0025
682.4387	0.0015
682.6218	-0.0064
682.805	0.0098
682.9881	-0.0044
683.1712	0.0056
683.3542	-0.0025
683.5373	0.0107
683.7203	-0.004
683.9034	-0.005
684.0864	-0.0047
684.2694	-0.0008
684.4523	0.0048
684.6353	-0.0146
684.8182	-0.0049
685.0011	-0.0065
685.184	0.0023
685.3669	-0.0021
685.5498	-0.0031
685.7326	0.0001
685.9154	-0.0036
686.0982	0.0102
686.281	0.0035
686.4638	0.0033
686.6465	0.0012
686.8293	0.0002
687.012	0.0038
687.1947	-0.01
687.3774	0.0015
687.56	-0.0009
687.7427	-0.0034
687.9253	-0.0105
688.1079	0.0003
688.2905	0.0059
688.4731	-0.0016
688.6556	-0.0038
688.8382	-0.0001
689.0207	0.0015
689.2032	-0.0092
689.3857	-0.005
689.5681	-0.0013
689.7506	0.0011
689.933	-0.0006
690.1154	-0.0033
690.2978	-0.0042
690.4802	0.0104
690.6626	-0.0138
690.8449	-0.0049
691.0272	0.0065
691.2095	-0.0054
691.3918	-0.0014
691.5741	0.0017
691.7563	0.0011
691.9386	-0.0022
692.1208	0.0007
692.303	-0.0013
692.4852	0.006
692.6673	0.006
692.8495	-0.0039
693.0316	0.0039
693.2137	-0.0017
693.3958	-0.0024
693.5778	-0.0021
693.7599	0.0014
693.9419	0.0047
694.1239	0.0013
694.3059	-0.0017
694.4879	0.0073
694.6699	0.0008
694.8518	0.0004
695.0337	-0.001
695.2157	0.0036
695.3975	0.0039
695.5794	0.0075
695.7613	0.0086
695.9431	-0.0023
696.1249	0.0058
696.3067	0.0043
696.4885	0.0033
696.6703	0.0004
696.852	0.0095
697.0337	0.0082
697.2154	0.0047
697.3971	0.0028
697.5788	-0.0015
697.7605	0.0047
697.9421	0.0056
698.1237	0.0021
698.3053	0.0031
698.4869	-0.0031
698.6685	-0.0077
698.85	0.006
699.0315	0.0142
699.213	-0.0015
699.3945	0.0025
699.576	0.0149
699.7575	0.0107
699.9389	0.0122
700.1203	0.0009
700.3017	-0.0116
700.4831	-0.0031
700.6645	-0.0016
700.8458	0.0004
701.0271	-0.0032
701.2084	-0.0003
701.3897	0.0044
701.571	0.0017
701.7523	-0.0031
701.9335	0.0055
702.1147	-0.0037
702.2959	0.0017
702.4771	-0.0037
702.6583	-0.0011
702.8394	-0.013
703.0205	-0.0015
703.2016	-0.0048
703.3827	-0.0014
703.5638	0.0068
703.7449	0.0028
703.9259	0.0129
704.1069	-0.0053
704.2879	0.0059
704.4689	-0
704.6499	-0.001
704.8308	0.0012
705.0117	0.0077
705.1927	-0.0043
705.3735	0.0004
705.5544	-0.0057
705.7353	-0.0045
705.9161	-0.008
706.0969	-0.0056
706.2777	0.0001
706.4585	-0.0038
706.6393	0.0035
706.82	-0.0036
707.0007	0.0032
707.1815	-0.0003
707.3621	0.0005
707.5428	0.0038
707.7235	-0.0001
707.9041	0.0014
708.0847	-0.0141
708.2653	-0.0072
708.4459	-0.0136
708.6265	0.0017
708.807	0.0016
708.9875	-0.0005
709.168	-0.004
709.3485	-0.0067
709.529	-0.0055
709.7095	-0.0094
709.8899	-0.005
710.0703	-0.0121
710.2507	-0.0039
710.4311	-0.0057
710.6115	-0.0099
710.7918	-0.0134
710.9721	-0.0041
711.1524	-0.006
711.3327	0.0014
711.513	0.0001
711.6932	0.0005
711.8735	0.0142
712.0537	0.0091
712.2339	0.0013
712.4141	-0.003
712.5942	-0.0016
712.7744	0.0007
712.9545	-0.0081
713.1346	-0.0064
713.3147	0.0007
713.4947	-0.0064
713.6748	-0.002
713.8548	0.0025
714.0348	-0.0059
714.2148	-0.0056
714.3948	0.0083
714.5748	-0.0013
714.7547	-0.0023
714.9346	0.0051
715.1145	-0.0057
715.2944	-0.0042
715.4743	0.0002
715.6541	-0.01
715.834	0.0085
716.0138	0.0006
716.1936	-0.0078
716.3733	-0.0057
716.5531	0.0051
716.7328	-0.0062
716.9126	-0.0005
717.0923	0.004
717.2719	0.0023
717.4516	0.005
717.6312	0.0067
717.8109	-0.0078
717.9905	0.0101
718.1701	-0.0076
718.3496	-0.0056
718.5292	0.0042
718.7087	0.0041
718.8882	-0.0013
719.0677	0.0074
719.2472	0.0023
719.4267	0.0016
719.6061	0.0027
719.7856	0.0006
719.965	0.0058
720.1443	0.0038
720.3237	0.0118
720.5031	0.0093
720.6824	0.0108
720.8617	-0.0046
721.041	-0.0043
721.2203	0.0044
721.3995	0.0015
721.5788	-0.0003
721.758	0.0104
721.9372	-0.0067
722.1164	0.0034
722.2956	0.0021
722.4747	-0.0081
722.6538	-0.0052
722.8329	0.0059
723.012	0.0032
723.1911	-0.0016
723.3702	-0.0029
723.5492	-0.0005
723.7282	-0.0043
723.9072	-0.0051
724.0862	-0.0109
724.2652	-0.0062
724.4441	-0.0017
724.623	0.001
724.8019	-0.0053
724.9808	-0.0108
725.1597	-0.0081
725.3385	0.0001
725.5174	0.002
725.6962	-0.0033
725.875	-0.0006
726.0538	0.0033
726.2325	-0.0058
726.4112	-0.0016
726.59	-0.0115
726.7687	-0.0019
726.9474	0.0057
727.126	0.0033
727.3047	-0.0057
727.4833	0.004
727.6619	-0.01
727.8405	-0.0139
728.0191	-0.0036
728.1976	0.0004
728.3762	0.0009
728.5547	0.0004
728.7332	-0.0067
728.9116	0.0014
729.0901	-0.0065
729.2686	-0.0082
729.447	-0.0051
729.6254	-0.0092
729.8038	-0.0042
729.9821	-0.0106
730.1605	-0.0004
730.3388	-0.0058
730.5171	0.0009
730.6954	-0.0066
730.8737	0.0023
731.0519	0.0049
731.2302	-0.0033
731.4084	0.0102
731.5866	0.0024
731.7648	-0.0074
731.9429	-0.0037
732.1211	-0.013
732.2992	0.0023
732.4773	-0.0077
732.6554	-0.009
732.8335	-0.0014
733.0115	-0.0039
733.1896	0.0036
733.3676	-0.0094
733.5456	-0.0026
733.7235	0.0081
733.9015	-0.0025
734.0794	0.0024
734.2574	-0.0019
734.4353	-0.0045
734.6131	0.0011
734.791	-0.0046
734.9689	0.0018
735.1467	0.0075
735.3245	-0.0046
735.5023	-0.0129
735.68	-0.0038
735.8578	-0.0008
736.0355	-0.0285
736.2132	-0.0001
736.3909	-0.0045
736.5686	-0.0101
736.7463	0.0032
736.9239	-0.0074
737.1015	-0.0069
737.2791	0.0001
737.4567	0.0004
737.6343	-0.0014
737.8118	-0.0018
737.9894	-0.0001
738.1669	-0.0047
738.3444	-0.0091
738.5218	0.0034
738.6993	0.0032
738.8767	0.001
739.0541	0.007
739.2315	-0.0025
739.4089	0.003
739.5863	0.0056
739.7636	-0.0057
739.9409	0.0088
740.1182	0.0073
740.2955	0.0067
740.4728	0.0009
740.65	-0.0053
740.8272	-0.007
741.0044	-0.0075
741.1816	-0.0085
741.3588	-0.0007
741.5359	-0
741.7131	-0.0209
741.8902	-0.0006
742.0673	0.0065
742.2444	-0.0064
742.4214	-0.0097
742.5985	-0.003
742.7755	-0.0072
742.9525	-0.0131
743.1295	0.0015
743.3064	-0.0028
743.4834	0.004
743.6603	-0.0015
743.8372	-0.0072
744.0141	0.0083
744.191	0.0032
744.3678	0.0023
744.5446	-0.0057
744.7215	0.0033
744.8982	-0.0097
745.075	-0.0092
745.2518	0.0005
745.4285	0.0019
745.6052	-0.007
745.7819	-0.0109
745.9586	-0.0119
746.1353	-0.0051
746.3119	-0.0156
746.4885	-0.0181
746.6651	-0.02
746.8417	-0.0114
747.0183	-0.0177
747.1948	-0.0099
747.3714	-0.0112
747.5479	-0.0103
747.7244	-0.0162
747.9008	0.0009
748.0773	-0.0138
748.2537	-0.0048
748.4301	-0.0161
748.6065	-0.002
748.7829	-0.0087
748.9593	-0.0118
749.1356	-0.0035
749.3119	0.003
749.4882	-0.0156
749.6645	0.0068
749.8408	-0.0143
750.017	-0.009
750.1933	-0.0059
750.3695	-0.0131
750.5457	0.0058
750.7218	-0.0031
750.898	0.0033
751.0741	-0.0098
751.2502	-0.0058
751.4263	-0.0108
751.6024	-0.0038
751.7784	-0.0088
751.9545	-0.0096
752.1305	-0.0009
752.3065	-0.0079
752.4825	-0.0036
752.6584	-0.0138
752.8344	-0.0044
753.0103	-0.0064
753.1862	-0.0104
753.3621	-0.0066
753.5379	-0.0063
753.7138	0.0001
753.8896	-0.0024
754.0654	-0.004
754.2412	-0.0013
754.417	0.0082
754.5927	-0.0136
754.7685	0.0039
754.9442	-0.0027
755.1199	0.0031
755.2956	-0.0041
755.4712	0.0027
755.6469	0.0025
755.8225	-0.0008
755.9981	-0.0046
756.1736	0.0097
756.3492	0.0026
756.5248	-0.0035
756.7003	0.0025
756.8758	0.0113
757.0513	-0.0007
757.2267	-0.0088
757.4022	0.0041
757.5776	-0.0049
757.753	-0.0005
757.9284	0.0033
758.1038	0.0018
758.2791	0.0066
758.4545	-0.0152
758.6298	-0.0109
758.8051	0.0007
758.9803	-0.0056
759.1556	-0.0112
759.3308	-0.0052
759.506	0.0055
759.6812	-0.0049
759.8564	-0.0009
760.0316	-0.0102
760.2067	0.0079
760.3819	0.0131
760.557	0.0108
760.732	0.0004
760.9071	0.0039
761.0821	-0.0005
761.2572	0.0089
761.4322	-0.0024
761.6072	-0.0093
761.7821	-0.0065
761.9571	-0.0003
762.132	-0.0007
762.3069	-0.0057
762.4818	-0.0089
762.6567	-0.0065
762.8316	-0.0065
763.0064	-0.0021
763.1812	-0.0103
763.356	-0.0061
763.5308	-0.0034
763.7055	-0.0044
763.8803	-0.0122
764.055	0.0016
764.2297	-0.0051
764.4044	-0.0074
764.579	-0.0109
764.7537	-0.022
764.9283	-0.003
765.1029	-0.0069
765.2775	-0.0129
765.4521	-0.0192
765.6266	-0.0174
765.8011	-0.0111
765.9756	-0.007
766.1501	-0.0008
766.3246	-0.0009
766.4991	-0.0067
766.6735	-0.0133
766.8479	-0.0099
767.0223	-0.003
767.1967	-0.0121
767.371	-0.0044
767.5454	-0.0082
767.7197	0.0014
767.894	-0.0132
768.0683	-0.0123
768.2425	-0.0029
768.4168	0.0004
768.591	-0.0115
768.7652	-0.0038
768.9394	-0.0109
769.1135	-0.0009
769.2877	0.0038
769.4618	-0.0094
769.6359	-0.0019
769.81	-0.0024
769.984	0.0051
770.1581	-0.0075
770.3321	-0.0006
770.5061	-0.0074
770.6801	-0.0086
770.8541	-0.0108
771.028	0.0091
771.202	-0.008
771.3759	0.0004
771.5498	-0.0109
771.7236	-0.0049
771.8975	-0.0136
772.0713	0.0022
772.2451	-0.0028
772.4189	-0.0003
772.5927	0.0053
772.7665	-0.0109
772.9402	-0.0067
773.1139	-0.0033
773.2876	-0.0015
773.4613	0.0076
773.635	0.005
773.8086	-0.0175
773.9822	-0.0026
774.1558	-0.0017
774.3294	-0.0219
774.503	-0.0121
774.6765	0.0046
774.8501	-0.0003
775.0236	-0.0017
775.1971	0.0086
775.3705	-0.0135
775.544	-0.0004
775.7174	-0.0089
775.8908	-0.01
776.0642	-0.0054
776.2376	0.0037
776.4109	-0.0128
776.5843	-0.0131
776.7576	-0.0013
776.9309	-0.0034
777.1041	-0.0033
777.2774	0.0108
777.4506	-0.0095
777.6238	0.0008
777.797	-0.0059
777.9702	0.0025
778.1434	-0.0073
778.3165	-0.0226
778.4896	-0.0044
778.6627	0.0078
778.8358	-0.0153
779.0089	-0.0155
779.1819	-0.0033
779.3549	0.0077
779.5279	0.0091
779.7009	-0.0058
779.8739	0.011
780.0468	-0.0064
780.2197	-0
780.3926	-0.0105
780.5655	-0.013
780.7384	-0.0138
780.9112	-0.004
781.0841	-0.0204
781.2569	0.0031
781.4297	-0.0055
781.6024	0.0114
781.7752	0.0004
781.9479	-0.0066
782.1206	-0.0061
782.2933	-0.0083
782.466	-0.0052
782.6386	-0.0068
782.8113	-0.0068
782.9839	-0.0005
783.1565	-0.0072
783.329	0.0029
783.5016	-0.0038
783.6741	0.013
783.8466	0.0036
784.0191	0.0081
784.1916	-0
784.3641	0.0032
784.5365	0.0039
784.7089	-0.0053
784.8813	-0.0059
785.0537	-0.0012
785.2261	0.0026
785.3984	-0.0179
785.5707	-0.012
785.743	-0.0004
785.9153	-0.0025
786.0876	-0.0122
786.2598	-0.0208
786.432	-0.0266
786.6042	0.0024
786.7764	-0.0141
786.9486	-0.001
787.1207	-0.0076
787.2928	0.0126
787.4649	-0.01
787.637	0.001
787.8091	-0.0092
787.9811	-0.0122
788.1532	-0.0069
788.3252	0.0001
788.4972	-0.0053
788.6691	-0.0087
788.8411	-0
789.013	-0.0185
789.1849	-0.0066
789.3568	-0.0157
789.5287	-0.0015
789.7005	-0.0117
789.8723	-0.0132
790.0442	0.0122
790.2159	-0.0041
790.3877	-0.0054
790.5595	-0.0113
790.7312	0.0039
790.9029	-0.004
791.0746	-0.0088
791.2463	-0.0042
791.4179	0.0028
791.5896	-0.0107
791.7612	-0.008
791.9328	0.0177
792.1044	-0.0179
792.2759	-0.0173
792.4474	-0.0071
792.619	0.0024
792.7905	-0.0033
792.9619	-0.0065
793.1334	0.0003
793.3048	0.0081
793.4762	-0.0036
793.6476	-0.0043
793.819	-0.0116
793.9904	-0.0042
794.1617	-0.0139
794.333	-0.007
794.5043	-0.0147
794.6756	-0.0197
794.8469	0.0181
795.0181	-0.0156
795.1893	-0.0003
795.3605	0.0045
795.5317	-0.0112
795.7029	-0.0108
795.874	-0.0046
796.0452	0.0056
796.2163	-0.0023
796.3873	0.0035
796.5584	0.0002
796.7294	0.0093
796.9005	0.0151
797.0715	0.0081
797.2425	-0.0218
797.4134	-0.0051
797.5844	0.0038
797.7553	-0.0323
797.9262	-0.0126
798.0971	-0.0072
798.2679	-0.0156
798.4388	-0.0215
798.6096	-0.0057
798.7804	0.006
798.9512	-0.0089
799.122	-0.0147
799.2927	-0.0106
799.4635	-0.0007
799.6342	-0.0045
799.8049	-0.0087
799.9755	-0.0057
800.1462	-0.0021
800.3168	0.006
800.4874	-0.0025
800.658	0.0182
800.8286	0.0057
800.9991	-0.009
801.1696	-0.0014
801.3402	-0.0021
801.5106	0.0088
801.6811	0.0008
801.8516	0.0086
802.022	0.0085
802.1924	-0.0012
802.3628	0.0006
802.5332	-0.0075
802.7035	0.0081
802.8739	-0.0086
803.0442	-0.0115
803.2145	-0.015
803.3847	-0.02
803.555	-0.0181
803.7252	-0.0033
803.8954	-0.0271
804.0656	-0.0145
804.2358	-0.0039
804.4059	0.0176
804.5761	-0.0043
804.7462	-0.0104
804.9163	0.0013
805.0864	-0.0283
805.2564	-0.0054
805.4264	0.021
805.5965	-0.0139
805.7665	-0.0021
805.9364	-0.008
806.1064	0.0229
806.2763	0.0034
806.4462	0.0094
806.6161	-0.0009
806.786	0.0037
806.9559	-0.0099
807.1257	-0.0103
807.2955	-0.0056
807.4653	-0.0083
807.6351	-0.0208
807.8048	-0.01
807.9746	0.0012
808.1443	-0.0059
808.314	-0.0067
808.4837	-0.0148
808.6533	-0.0182
808.8229	0.0174
808.9926	-0.0015
809.1622	-0.0017
809.3317	0.0042
809.5013	0.002
809.6708	0.0161
809.8403	0.0015
810.0098	-0.007
810.1793	0.0036
810.3488	0.0109
810.5182	-0.0217
810.6876	0.0025
810.857	-0.016
811.0264	0.0166
811.1958	0.0075
811.3651	0.0029
811.5344	-0.0221
811.7037	-0.0269
811.873	-0.0164
812.0422	0.0008
812.2115	-0.0109
812.3807	-0.014
812.5499	0.0093
812.7191	0.0011
812.8882	-0.0065
813.0574	0.0053
813.2265	-0.0022
813.3956	0.0011
813.5646	-0.0025
813.7337	-0.0029
813.9027	-0.0008
814.0718	0.0075
814.2407	0.0008
814.4097	-0.0265
814.5787	-0.0171
814.7476	-0.0109
814.9165	-0.0069
815.0854	-0.0264
815.2543	-0.0086
815.4232	-0.0157
815.592	-0.0014
815.7608	-0.0102
815.9296	-0.002
816.0984	0.0065
816.2671	-0.0267
816.4359	-0.014
816.6046	-0.0034
816.7733	-0.0263
816.942	-0.0142
817.1106	0.0137
817.2793	-0.0148
817.4479	0.0037
817.6165	-0.0118
817.785	-0.0173
817.9536	-0.0195
818.1221	-0.008
818.2906	-0.0098
818.4591	-0.0154
818.6276	-0.0272
818.7961	-0.0137
818.9645	0.003
819.1329	-0.0046
819.3013	0.019
819.4697	-0.006
819.638	-0.0102
819.8064	0.001
819.9747	0.0163
820.143	-0.0114
820.3113	-0.0083
820.4795	0.0007
820.6477	0.0266
820.816	0.0142
820.9842	0.004
821.1523	0.0014
821.3205	-0.0084
821.4886	-0.0065
821.6567	0.0054
821.8248	0.0014
821.9929	0.0281
822.1609	-0.0056
822.329	-0.0148
822.497	0.0176
822.665	-0.0159
822.833	-0.0118
823.0009	-0.0034
823.1688	0.0099
823.3367	0.0359
823.5046	-0
823.6725	0.0316
823.8404	-0.017
824.0082	-0
824.176	-0.0055
824.3438	0.0076
824.5116	-0.0144
824.6793	-0.0053
824.847	-0.0078
825.0147	-0.0009
825.1824	0.007
825.3501	0.0004
825.5177	-0.0183
825.6854	-0.0198
825.853	0.0267
826.0206	-0.0392
826.1881	-0.0068
826.3557	-0.0415
826.5232	-0.0022
826.6907	-0.0485
826.8582	-0.0076
827.0257	-0.0324
827.1931	-0.0216
827.3605	-0.0198
827.528	-0.0182
827.6953	-0.0186
827.8627	-0.0178
828.03	0.0208
828.1974	-0.0242
828.3647	-0.0408
828.532	-0.001
828.6992	-0.0409
828.8665	0.0067
829.0337	-0.0236
829.2009	0.0194
829.3681	0.0062
829.5352	0.0071
829.7024	-0.041
829.8695	-0.0452
830.0366	0.0523
830.2037	-0.0394
830.3707	0.0285
830.5378	0.0005
830.7048	-0.0139
830.8718	-0.0309
831.0388	-0.031
831.2057	-0.0193
831.3727	0.0329
831.5396	-0.0297
831.7065	-0.004
831.8734	-0.0328
832.0402	-0.0232
832.2071	0.0202
832.3739	-0.0188
832.5407	-0.0077
832.7075	-0.0123
832.8742	-0.0244
833.041	-0.0233
833.2077	-0.049
833.3744	0.0024
833.541	0.0116
833.7077	-0.0272
833.8743	0.0007
834.0409	-0.0126
834.2075	-0.0264
834.3741	-0.0103
834.5407	-0.0069
834.7072	0.0058
834.8737	-0.0338
835.0402	-0.0543
835.2067	-0.0242
835.3731	0.0358
835.5395	0.0183
835.706	0.0239
835.8723	-0.0359
836.0387	0.0075
836.2051	0.0049
836.3714	-0.0075
836.5377	0.0119
836.704	-0.0133
836.8703	0.0039
837.0365	0.0022
837.2027	0.0225
837.3689	-0.0195
837.5351	-0.014
837.7013	-0.0646
837.8674	-0.0768
838.0335	-0.0361
838.1997	-0.0065
838.3657	-0.0355
838.5318	-0.0157
838.6978	0.0184
838.8639	0.0113
839.0299	0.0294
839.1958	-0.0123
839.3618	-0.0314
839.5277	-0.0217
839.6937	-0.0295
839.8596	-0.0169
840.0254	-0.0233
840.1913	0.0067
840.3571	0.0461
840.523	0.0204
840.6888	-0.0512
840.8545	-0.0404
841.0203	0.0115
841.186	-0.0118
841.3517	-0.0269
841.5174	-0.0238
841.6831	-0.037
841.8488	-0.0211
842.0144	0.0586
842.18	0.037
842.3456	-0.012
842.5112	-0.001
842.6767	-0.0367
842.8422	-0.0239
843.0077	-0.0586
843.1732	-0.0597
843.3387	-0.0232
843.5042	-0.0599
843.6696	-0.0154
843.835	-0.0032
844.0004	0.0069
844.1657	-0.0206
844.3311	-0.0203
844.4964	-0.1065
844.6617	-0.0332
844.827	-0.0115
844.9923	-0.0858
845.1575	0.0182
845.3227	0.0501
845.4879	-0.0187
845.6531	-0.0715
845.8183	-0.0671
845.9834	-0.0037
846.1485	-0.0483
846.3136	-0.0211
846.4787	-0.1398
846.6438	0.022
846.8088	-0.0773
846.9738	-0.1317
847.1388	-0.0378
847.3038	-0.0566
847.4687	-0.0991
847.6337	-0.0178
847.7986	0.0053
847.9635	-0.0487
848.1284	-0.0095
848.2932	0.0703
848.458	0.0354
848.6228	-0.0014
848.7876	0.0766
848.9524	-0.1389
849.1172	-0.0855
849.2819	-0.0538
849.4466	-0.1234
849.6113	-0.1205
849.7759	-0.058
849.9406	-0.1166
850.1052	-0.0163
850.2698	-0.0747
850.4344	-0.1119
850.599	-0.1214
850.7635	0.0167
850.928	0.1031
851.0925	0.0278
851.257	0.0447
851.4215	-0.0148
851.5859	-0.1029
851.7503	0.0109
851.9147	0.0487
852.0791	-0.1072
852.2434	0
852.4078	-0.0588
852.5721	0.0081
852.7364	-0.0219
852.9007	-0.2071
853.0649	-0.0285
853.2291	0.0204
853.3934	-0.0521
853.5575	-0.074
853.7217	-0.0496
853.8859	-0.1207
854.05	-0.0926
854.2141	-0.0605
854.3782	-0.1536
854.5423	-0.161
854.7063	0.0985
854.8703	0.0528
855.0343	-0.1295
855.1983	-0.2035
855.3623	0.1619
855.5262	0.1122
855.6901	-0.1333
855.854	-0.0739
856.0179	-0.0656
856.1818	0.2862
856.3456	-0.1406
856.5094	-0.0944
856.6732	-0.2016
856.837	-0.0642
857.0008	-0.0934
857.1645	-0.0594
857.3282	-0.216
857.4919	-0.0126
857.6556	-0.0041
857.8192	0.0271
857.9828	-0.0657
858.1465	-0.0584
858.31	-0.1878
858.4736	-0.1283
858.6372	-0.168
858.8007	0.0368
858.9642	0.0046
859.1277	0.3119
859.2911	0.0645
859.4546	0.0547
859.618	-0.3897
859.7814	-0.0683
859.9448	-0.017
860.1081	-0.0257
860.2715	0.0911
860.4348	-0.1907
860.5981	-0.1152
860.7614	0.1258
860.9246	-0.3445
861.0879	-0.2961
861.2511	0.0592
861.4143	-0.3405
861.5774	0.0985
861.7406	-0.2395
861.9037	0.0735
862.0668	-0.1995
862.2299	-0.2968
862.393	-0.6402
862.556	-0.1501
862.7191	-0.3944
862.8821	-0.271
863.0451	0.0402
863.208	-0.1351
863.371	0.0136
863.5339	-0.2119
863.6968	-0.0682
863.8597	-0.1187
864.0225	-0.1576
864.1854	0.0476
864.3482	-0.1988
864.511	0
864.6737	0.1117
864.8365	-0.0074
864.9992	-0.5589
865.1619	-0.5518
865.3246	-0.1134
865.4873	-0.1122
865.65	-0.2419
865.8126	-0.2182
865.9752	0.1319
866.1378	-0.1912
866.3004	0
866.4629	0.2739
866.6254	-0.402
866.7879	0.1753
866.9504	2.0128
867.1129	-0
867.2753	0.0215
867.4377	0.2556
867.6001	-0.4303
867.7625	-0.1803
867.9249	-0.522
868.0872	-0.3003
868.2495	-0.0668
868.4118	-0.2997
868.5741	-0.7153
868.7363	0.2056
868.8986	-0.1585
869.0608	-0.1995
869.223	0.1909
869.3851	-0.0797
869.5473	-0
869.7094	-0.0522
869.8715	0.7494
870.0336	-0
870.1957	-0.5135
870.3577	-0
870.5197	0.0268
870.6817	-0.168
870.8437	-0.1995
871.0057	-0
871.1676	-0.1737
871.3295	-0.2344
871.4914	-0
871.6533	-0.3316
871.8151	0.8728
871.977	-0
872.1388	-0
872.3006	-0
872.4623	-0
872.6241	0.1629
872.7858	0.0897
872.9475	-0.3611
873.1092	-0.1799
873.2709	1.2156
873.4325	-0.2612
873.5941	-0.4982
873.7557	-0
873.9173	-0
874.0789	-0
874.2404	-0.6242
874.4019	0.2783
874.5634	-0.0125
874.7249	-0.2717
874.8863	-0.0898
875.0478	-0.2594
875.2092	-0
875.3706	0.2802
875.5319	-0.7365
875.6933	-0
875.8546	-0.4669
876.0159	0.6131
876.1772	-0
876.3385	-0
876.4997	0.1519
876.6609	-0.6873
876.8221	1.1139
876.9833	-0
877.1445	-0
877.3056	-0.0231
877.4667	0.7341
877.6278	-0
877.7889	-0.4875
877.9499	-0
878.111	-0
878.272	-0
878.433	-0
878.5939	-0
878.7549	-0.3119
878.9158	-0.7208
879.0767	-0
879.2376	0.4426
879.3984	-0
879.5593	-0
879.7201	-0.221
879.8809	-0.8001
880.0417	-0.4337
880.2024	-0.1876
880.3632	-0
880.5239	0.3604
880.6846	2.3118
880.8452	-2.6365
881.0059	-0
881.1665	0.1421
881.3271	-0.1541
881.4877	-0.4426
881.6483	-0.4622
881.8088	-0.256
881.9693	-0
882.1298	-0
882.2903	-0
