Data from MonoPyChalIsomerACN10uM350nmA_Absorbance_14-35-33-618.txt Node
Date: Fri Jul 05 14:35:33 BST 2024
User: LASERRRRR
Spectrometer: FLMT03099
Trigger mode: 0
Integration Time (sec): 1.000000E-1
Scans to average: 1
Electric dark correction enabled: true
Nonlinearity correction enabled: false
Boxcar width: 0
XAxis mode: Wavelengths
Number of Pixels in Spectrum: 3648
>>>>>Begin Spectral Data<<<<<
179.3399	-0.1997
179.5586	-0.1997
179.7771	-0.1997
179.9957	0.1146
180.2143	1.1461
180.4329	-0
180.6514	0.1875
180.8699	-0
181.0885	0.3312
181.307	0.1395
181.5255	-1.0057
181.744	-0.5619
181.9625	-0
182.181	-0
182.3994	0.1814
182.6179	-0
182.8363	-0.1511
183.0547	0.6146
183.2732	0.1306
183.4916	0.1107
183.71	0.1942
183.9284	0.0365
184.1467	0.0462
184.3651	0.3791
184.5835	0.0095
184.8018	0.1103
185.0201	0.3695
185.2385	0.2136
185.4568	0.2917
185.6751	0.222
185.8934	0.2973
186.1117	0.1895
186.3299	0.112
186.5482	0.3739
186.7664	0.0004
186.9847	-0.0087
187.2029	0.0449
187.4211	0.1546
187.6393	0.301
187.8575	0.2613
188.0757	0.1509
188.2939	-0.0156
188.512	0.0702
188.7302	0.0915
188.9483	0.2306
189.1665	0.0222
189.3846	-0.1995
189.6027	0.1138
189.8208	0.6307
190.0389	0.2388
190.257	0.1475
190.475	0.0755
190.6931	0.4736
190.9111	0.513
191.1292	0.1944
191.3472	0.536
191.5652	0.3029
191.7832	0.3283
192.0012	0.301
192.2192	0.3258
192.4371	0.5963
192.6551	0.3052
192.873	0.6003
193.091	0.5465
193.3089	0.7271
193.5268	0.4837
193.7447	0.7087
193.9626	0.6176
194.1805	0.6346
194.3984	0.7803
194.6162	0.7105
194.8341	0.7765
195.0519	0.6614
195.2697	0.5628
195.4875	0.6869
195.7054	0.82
195.9231	0.5858
196.1409	0.5682
196.3587	0.5848
196.5765	0.6092
196.7942	0.5455
197.012	0.4539
197.2297	0.5474
197.4474	0.812
197.6651	0.4995
197.8828	0.5022
198.1005	0.8875
198.3182	0.5911
198.5358	0.8266
198.7535	0.7163
198.9711	0.6116
199.1888	0.751
199.4064	0.7512
199.624	0.6713
199.8416	0.5383
200.0592	0.6078
200.2767	0.62
200.4943	0.8072
200.7119	0.8719
200.9294	0.6756
201.1469	0.6525
201.3645	0.6394
201.582	0.5465
201.7995	0.7156
202.017	0.6077
202.2344	0.6329
202.4519	0.664
202.6694	0.7461
202.8868	0.6687
203.1042	0.6418
203.3217	0.764
203.5391	0.728
203.7565	0.563
203.9739	0.6325
204.1913	0.682
204.4086	0.7412
204.626	0.7734
204.8433	0.6527
205.0607	0.7046
205.278	0.6563
205.4953	0.602
205.7126	0.7952
205.9299	0.8012
206.1472	0.7865
206.3644	0.587
206.5817	0.7577
206.7989	0.7477
207.0162	0.6195
207.2334	0.6413
207.4506	0.6242
207.6678	0.5833
207.885	0.6719
208.1022	0.646
208.3194	0.6779
208.5365	0.6115
208.7537	0.6476
208.9708	0.5548
209.1879	0.663
209.405	0.7084
209.6222	0.642
209.8392	0.5822
210.0563	0.689
210.2734	0.6689
210.4905	0.6434
210.7075	0.6399
210.9245	0.6424
211.1416	0.7573
211.3586	0.6123
211.5756	0.6079
211.7926	0.612
212.0096	0.6029
212.2265	0.5845
212.4435	0.5528
212.6604	0.59
212.8774	0.5929
213.0943	0.6459
213.3112	0.4779
213.5281	0.5046
213.745	0.4925
213.9619	0.4951
214.1788	0.5161
214.3956	0.472
214.6125	0.4853
214.8293	0.4385
215.0461	0.4774
215.2629	0.5016
215.4798	0.472
215.6965	0.4117
215.9133	0.4286
216.1301	0.4228
216.3469	0.4647
216.5636	0.4054
216.7803	0.4071
216.9971	0.3752
217.2138	0.4077
217.4305	0.3532
217.6472	0.3679
217.8639	0.3851
218.0805	0.3275
218.2972	0.3103
218.5138	0.3128
218.7305	0.2997
218.9471	0.3183
219.1637	0.3023
219.3803	0.2916
219.5969	0.2858
219.8135	0.2393
220.0301	0.242
220.2466	0.2799
220.4632	0.2637
220.6797	0.2249
220.8962	0.2444
221.1127	0.2558
221.3292	0.2629
221.5457	0.2395
221.7622	0.2581
221.9787	0.2501
222.1951	0.2331
222.4116	0.246
222.628	0.2487
222.8444	0.2701
223.0608	0.2628
223.2772	0.2615
223.4936	0.2476
223.71	0.2603
223.9264	0.2614
224.1427	0.2814
224.3591	0.2472
224.5754	0.252
224.7917	0.2689
225.008	0.2532
225.2243	0.2401
225.4406	0.2736
225.6569	0.2767
225.8732	0.2845
226.0894	0.273
226.3057	0.2611
226.5219	0.2942
226.7381	0.2718
226.9543	0.2886
227.1705	0.2749
227.3867	0.3153
227.6029	0.2796
227.8191	0.2896
228.0352	0.3061
228.2513	0.3365
228.4675	0.3012
228.6836	0.3017
228.8997	0.284
229.1158	0.3167
229.3319	0.3056
229.548	0.3157
229.764	0.3185
229.9801	0.322
230.1961	0.3216
230.4121	0.3201
230.6282	0.3382
230.8442	0.3208
231.0602	0.3422
231.2761	0.375
231.4921	0.3446
231.7081	0.3585
231.924	0.3496
232.14	0.3675
232.3559	0.339
232.5718	0.3687
232.7877	0.3491
233.0036	0.358
233.2195	0.3586
233.4353	0.3641
233.6512	0.3701
233.867	0.3642
234.0829	0.3632
234.2987	0.3644
234.5145	0.3721
234.7303	0.3545
234.9461	0.3827
235.1619	0.3826
235.3776	0.4054
235.5934	0.3701
235.8091	0.3872
236.0249	0.383
236.2406	0.4153
236.4563	0.3841
236.672	0.3879
236.8877	0.4172
237.1034	0.3962
237.319	0.3865
237.5347	0.4174
237.7503	0.3949
237.966	0.4193
238.1816	0.4012
238.3972	0.4098
238.6128	0.3878
238.8284	0.4057
239.0439	0.4103
239.2595	0.4035
239.475	0.4174
239.6906	0.4049
239.9061	0.3922
240.1216	0.4156
240.3371	0.4151
240.5526	0.41
240.7681	0.4083
240.9836	0.4048
241.199	0.4018
241.4145	0.3814
241.6299	0.389
241.8453	0.3824
242.0607	0.3749
242.2761	0.3712
242.4915	0.3625
242.7069	0.3604
242.9223	0.3584
243.1376	0.3444
243.353	0.3471
243.5683	0.3479
243.7836	0.3275
243.9989	0.3236
244.2142	0.3017
244.4295	0.3235
244.6448	0.3054
244.86	0.291
245.0753	0.2879
245.2905	0.2834
245.5057	0.2696
245.721	0.27
245.9362	0.2793
246.1514	0.2599
246.3665	0.2616
246.5817	0.262
246.7969	0.268
247.012	0.2569
247.2271	0.2464
247.4423	0.2453
247.6574	0.2369
247.8725	0.2294
248.0876	0.2269
248.3026	0.2241
248.5177	0.2196
248.7328	0.2099
248.9478	0.2
249.1628	0.2026
249.3779	0.2061
249.5929	0.2018
249.8079	0.2286
250.0228	0.2061
250.2378	0.2023
250.4528	0.1917
250.6677	0.185
250.8827	0.2007
251.0976	0.193
251.3125	0.1846
251.5274	0.1823
251.7423	0.1882
251.9572	0.1832
252.172	0.1875
252.3869	0.1871
252.6017	0.1712
252.8166	0.1653
253.0314	0.1739
253.2462	0.1619
253.461	0.176
253.6758	0.1803
253.8906	0.1681
254.1053	0.1665
254.3201	0.1628
254.5348	0.181
254.7496	0.183
254.9643	0.1726
255.179	0.1785
255.3937	0.1663
255.6083	0.1693
255.823	0.1735
256.0377	0.1654
256.2523	0.1735
256.467	0.1601
256.6816	0.1653
256.8962	0.1802
257.1108	0.1554
257.3254	0.1656
257.54	0.1717
257.7545	0.1678
257.9691	0.1761
258.1836	0.1747
258.3981	0.1785
258.6127	0.1766
258.8272	0.1603
259.0417	0.1615
259.2561	0.1502
259.4706	0.1738
259.6851	0.1755
259.8995	0.1719
260.114	0.15
260.3284	0.1479
260.5428	0.1565
260.7572	0.18
260.9716	0.1687
261.186	0.153
261.4003	0.1641
261.6147	0.1735
261.829	0.1545
262.0433	0.1624
262.2577	0.1697
262.472	0.17
262.6863	0.1618
262.9005	0.1629
263.1148	0.1705
263.3291	0.1464
263.5433	0.1623
263.7576	0.1567
263.9718	0.1672
264.186	0.1496
264.4002	0.1557
264.6144	0.1622
264.8286	0.1739
265.0427	0.1631
265.2569	0.1712
265.471	0.1636
265.6851	0.1528
265.8993	0.1501
266.1134	0.1573
266.3275	0.1508
266.5415	0.1563
266.7556	0.1673
266.9697	0.1653
267.1837	0.1748
267.3978	0.1567
267.6118	0.1688
267.8258	0.1742
268.0398	0.1518
268.2538	0.166
268.4677	0.165
268.6817	0.1478
268.8957	0.1488
269.1096	0.169
269.3235	0.1551
269.5374	0.1572
269.7514	0.1505
269.9652	0.153
270.1791	0.1466
270.393	0.1471
270.6068	0.1607
270.8207	0.1404
271.0345	0.1389
271.2483	0.1631
271.4622	0.1463
271.676	0.1441
271.8897	0.1468
272.1035	0.1356
272.3173	0.1375
272.531	0.1402
272.7448	0.1457
272.9585	0.1394
273.1722	0.1418
273.3859	0.1405
273.5996	0.1332
273.8133	0.1354
274.0269	0.147
274.2406	0.1405
274.4542	0.1389
274.6679	0.1335
274.8815	0.1405
275.0951	0.1439
275.3087	0.1515
275.5223	0.1429
275.7358	0.1297
275.9494	0.1487
276.1629	0.1303
276.3765	0.1341
276.59	0.1306
276.8035	0.1465
277.017	0.1406
277.2305	0.1331
277.444	0.1389
277.6574	0.1377
277.8709	0.1336
278.0843	0.1352
278.2978	0.1389
278.5112	0.1393
278.7246	0.1478
278.938	0.1393
279.1513	0.1545
279.3647	0.1452
279.5781	0.1419
279.7914	0.1497
280.0047	0.1583
280.2181	0.1454
280.4314	0.1476
280.6447	0.1573
280.8579	0.1538
281.0712	0.1481
281.2845	0.1458
281.4977	0.1412
281.711	0.1385
281.9242	0.1521
282.1374	0.1622
282.3506	0.1432
282.5638	0.1472
282.7769	0.1578
282.9901	0.1476
283.2033	0.1551
283.4164	0.1597
283.6295	0.1444
283.8426	0.1399
284.0557	0.1456
284.2688	0.1718
284.4819	0.1629
284.695	0.1517
284.908	0.1559
285.1211	0.1387
285.3341	0.1438
285.5471	0.1647
285.7601	0.1513
285.9731	0.1463
286.1861	0.1529
286.3991	0.1611
286.612	0.17
286.825	0.1597
287.0379	0.1557
287.2508	0.1629
287.4637	0.168
287.6766	0.155
287.8895	0.1622
288.1024	0.1837
288.3152	0.1643
288.5281	0.1501
288.7409	0.172
288.9538	0.1583
289.1666	0.1721
289.3794	0.1666
289.5922	0.1645
289.8049	0.1627
290.0177	0.1606
290.2304	0.1708
290.4432	0.1663
290.6559	0.1709
290.8686	0.1576
291.0813	0.1659
291.294	0.1616
291.5067	0.1781
291.7194	0.1601
291.932	0.1849
292.1447	0.1649
292.3573	0.1635
292.5699	0.1763
292.7825	0.1701
292.9951	0.1621
293.2077	0.1635
293.4203	0.1559
293.6328	0.1657
293.8454	0.1637
294.0579	0.1646
294.2704	0.17
294.4829	0.1675
294.6954	0.1736
294.9079	0.1622
295.1204	0.1619
295.3328	0.1649
295.5453	0.1705
295.7577	0.1831
295.9701	0.1601
296.1825	0.17
296.3949	0.1681
296.6073	0.1581
296.8197	0.1635
297.0321	0.1801
297.2444	0.1609
297.4567	0.1705
297.6691	0.176
297.8814	0.1659
298.0937	0.169
298.306	0.177
298.5182	0.1667
298.7305	0.1803
298.9428	0.1667
299.155	0.1701
299.3672	0.1622
299.5794	0.1584
299.7916	0.1608
300.0038	0.1756
300.216	0.1638
300.4282	0.1847
300.6403	0.1637
300.8525	0.1734
301.0646	0.1638
301.2767	0.1706
301.4888	0.1661
301.7009	0.1676
301.913	0.1703
302.125	0.1817
302.3371	0.1666
302.5491	0.1648
302.7612	0.1723
302.9732	0.1632
303.1852	0.164
303.3972	0.1655
303.6092	0.1613
303.8211	0.1611
304.0331	0.1627
304.245	0.1518
304.457	0.1498
304.6689	0.1599
304.8808	0.17
305.0927	0.1543
305.3046	0.1497
305.5164	0.1636
305.7283	0.1414
305.9401	0.1592
306.152	0.1488
306.3638	0.1494
306.5756	0.1514
306.7874	0.1501
306.9992	0.1531
307.2109	0.1501
307.4227	0.1328
307.6344	0.1395
307.8462	0.1348
308.0579	0.133
308.2696	0.1346
308.4813	0.1368
308.693	0.1312
308.9046	0.1341
309.1163	0.1397
309.328	0.1301
309.5396	0.1268
309.7512	0.1273
309.9628	0.1232
310.1744	0.1277
310.386	0.1228
310.5976	0.1174
310.8091	0.1137
311.0207	0.1102
311.2322	0.1109
311.4437	0.1039
311.6552	0.0981
311.8667	0.1077
312.0782	0.0994
312.2897	0.1072
312.5012	0.1136
312.7126	0.1082
312.924	0.0982
313.1355	0.1129
313.3469	0.1059
313.5583	0.1146
313.7696	0.1111
313.981	0.1011
314.1924	0.0969
314.4037	0.1045
314.6151	0.1117
314.8264	0.0925
315.0377	0.1018
315.249	0.1088
315.4603	0.1025
315.6716	0.0943
315.8828	0.0991
316.0941	0.0976
316.3053	0.102
316.5165	0.0928
316.7277	0.0916
316.9389	0.1089
317.1501	0.0927
317.3613	0.108
317.5724	0.0838
317.7836	0.1
317.9947	0.0964
318.2058	0.0972
318.417	0.0804
318.6281	0.0737
318.8391	0.0926
319.0502	0.0881
319.2613	0.094
319.4723	0.0909
319.6834	0.1003
319.8944	0.0949
320.1054	0.0933
320.3164	0.1052
320.5274	0.0953
320.7383	0.0962
320.9493	0.0923
321.1602	0.1065
321.3712	0.073
321.5821	0.094
321.793	0.1085
322.0039	0.0984
322.2148	0.0922
322.4257	0.0984
322.6365	0.1113
322.8474	0.1022
323.0582	0.0998
323.269	0.0963
323.4798	0.1095
323.6906	0.0838
323.9014	0.1
324.1122	0.094
324.3229	0.0846
324.5337	0.1035
324.7444	0.0953
324.9551	0.1146
325.1658	0.1037
325.3765	0.0965
325.5872	0.103
325.7979	0.0897
326.0085	0.1039
326.2192	0.1011
326.4298	0.1048
326.6404	0.0964
326.851	0.0939
327.0616	0.0936
327.2722	0.1047
327.4828	0.1016
327.6933	0.105
327.9039	0.1092
328.1144	0.1118
328.3249	0.1123
328.5354	0.0879
328.7459	0.1048
328.9564	0.0977
329.1669	0.1012
329.3773	0.1067
329.5878	0.0968
329.7982	0.1037
330.0086	0.0928
330.219	0.1037
330.4294	0.1006
330.6398	0.0987
330.8502	0.088
331.0605	0.1006
331.2708	0.1057
331.4812	0.1043
331.6915	0.1099
331.9018	0.103
332.1121	0.1118
332.3224	0.1031
332.5326	0.1091
332.7429	0.109
332.9531	0.1192
333.1633	0.0998
333.3735	0.1119
333.5837	0.1079
333.7939	0.0995
334.0041	0.1138
334.2143	0.1054
334.4244	0.1054
334.6346	0.0858
334.8447	0.1035
335.0548	0.1003
335.2649	0.1009
335.475	0.1068
335.685	0.103
335.8951	0.1065
336.1051	0.1028
336.3152	0.1104
336.5252	0.1033
336.7352	0.112
336.9452	0.1122
337.1552	0.1169
337.3652	0.1044
337.5751	0.107
337.7851	0.1088
337.995	0.1018
338.2049	0.1145
338.4148	0.1117
338.6247	0.1126
338.8346	0.0944
339.0445	0.0983
339.2543	0.0992
339.4642	0.1177
339.674	0.1004
339.8838	0.1088
340.0936	0.1101
340.3034	0.123
340.5132	0.121
340.7229	0.1084
340.9327	0.1107
341.1424	0.1114
341.3522	0.1206
341.5619	0.1323
341.7716	0.1162
341.9813	0.1157
342.1909	0.1035
342.4006	0.1263
342.6102	0.1197
342.8199	0.1205
343.0295	0.103
343.2391	0.1254
343.4487	0.118
343.6583	0.1123
343.8679	0.1319
344.0774	0.1284
344.287	0.1142
344.4965	0.1279
344.706	0.125
344.9155	0.1228
345.125	0.1166
345.3345	0.1234
345.544	0.1216
345.7534	0.1228
345.9629	0.1232
346.1723	0.1298
346.3817	0.1083
346.5911	0.1238
346.8005	0.1412
347.0099	0.1298
347.2193	0.1288
347.4286	0.1153
347.638	0.134
347.8473	0.134
348.0566	0.1366
348.2659	0.1387
348.4752	0.129
348.6845	0.132
348.8937	0.1326
349.103	0.1391
349.3122	0.1365
349.5214	0.1189
349.7306	0.1407
349.9398	0.1411
350.149	0.1359
350.3582	0.1396
350.5674	0.1305
350.7765	0.1375
350.9856	0.1311
351.1948	0.1369
351.4039	0.1411
351.613	0.1285
351.822	0.1437
352.0311	0.1516
352.2402	0.1422
352.4492	0.1423
352.6582	0.1505
352.8672	0.1425
353.0762	0.1385
353.2852	0.147
353.4942	0.1573
353.7032	0.1407
353.9121	0.1501
354.1211	0.1556
354.33	0.1437
354.5389	0.1435
354.7478	0.151
354.9567	0.151
355.1655	0.1389
355.3744	0.1546
355.5833	0.1573
355.7921	0.1814
356.0009	0.1655
356.2097	0.1575
356.4185	0.1669
356.6273	0.1697
356.8361	0.1625
357.0448	0.1593
357.2536	0.157
357.4623	0.1607
357.671	0.1631
357.8797	0.1728
358.0884	0.1643
358.2971	0.1658
358.5057	0.1647
358.7144	0.1667
358.923	0.1724
359.1316	0.1698
359.3402	0.1885
359.5488	0.1763
359.7574	0.1583
359.966	0.1662
360.1746	0.1752
360.3831	0.1794
360.5916	0.1811
360.8002	0.1671
361.0087	0.205
361.2172	0.1804
361.4256	0.1812
361.6341	0.1746
361.8426	0.1855
362.051	0.1866
362.2594	0.1757
362.4678	0.177
362.6762	0.2046
362.8846	0.1834
363.093	0.1864
363.3014	0.1935
363.5097	0.1832
363.718	0.1879
363.9264	0.2104
364.1347	0.1839
364.343	0.1986
364.5513	0.2018
364.7595	0.1981
364.9678	0.1972
365.176	0.1949
365.3842	0.198
365.5925	0.2011
365.8007	0.1982
366.0089	0.1979
366.217	0.1934
366.4252	0.2121
366.6333	0.2221
366.8415	0.2158
367.0496	0.1949
367.2577	0.2232
367.4658	0.2158
367.6739	0.2155
367.882	0.2314
368.09	0.2014
368.2981	0.209
368.5061	0.2069
368.7141	0.2167
368.9221	0.2245
369.1301	0.2093
369.3381	0.2129
369.5461	0.2024
369.754	0.2226
369.962	0.2222
370.1699	0.2313
370.3778	0.2229
370.5857	0.2227
370.7936	0.2148
371.0015	0.2088
371.2093	0.2123
371.4172	0.2407
371.625	0.2198
371.8328	0.2189
372.0406	0.2203
372.2484	0.2375
372.4562	0.2336
372.664	0.2181
372.8717	0.2394
373.0795	0.2155
373.2872	0.2197
373.4949	0.2286
373.7026	0.2473
373.9103	0.2621
374.118	0.2522
374.3256	0.243
374.5333	0.2444
374.7409	0.2254
374.9485	0.2374
375.1561	0.247
375.3637	0.2436
375.5713	0.2476
375.7789	0.2302
375.9864	0.2545
376.194	0.2435
376.4015	0.2351
376.609	0.2437
376.8165	0.2378
377.024	0.2482
377.2315	0.2353
377.4389	0.2516
377.6464	0.2704
377.8538	0.2585
378.0612	0.2478
378.2686	0.2537
378.476	0.2668
378.6834	0.2493
378.8908	0.2497
379.0981	0.2579
379.3055	0.2641
379.5128	0.2483
379.7201	0.2718
379.9274	0.2458
380.1347	0.2497
380.342	0.2677
380.5492	0.2634
380.7565	0.2691
380.9637	0.2565
381.1709	0.2646
381.3781	0.2485
381.5853	0.2583
381.7925	0.2572
381.9997	0.2779
382.2068	0.2743
382.4139	0.2756
382.6211	0.257
382.8282	0.2682
383.0353	0.264
383.2424	0.2649
383.4494	0.2636
383.6565	0.2618
383.8635	0.2754
384.0706	0.2515
384.2776	0.2607
384.4846	0.2619
384.6916	0.2753
384.8986	0.2691
385.1055	0.2795
385.3125	0.265
385.5194	0.2503
385.7263	0.2776
385.9333	0.2647
386.1402	0.2624
386.347	0.2718
386.5539	0.2694
386.7608	0.2781
386.9676	0.2701
387.1744	0.2888
387.3813	0.2587
387.5881	0.2739
387.7948	0.2674
388.0016	0.2739
388.2084	0.2698
388.4151	0.2497
388.6219	0.2652
388.8286	0.2659
389.0353	0.2718
389.242	0.2725
389.4487	0.2515
389.6553	0.2442
389.862	0.2434
390.0686	0.25
390.2753	0.2607
390.4819	0.2582
390.6885	0.2575
390.8951	0.267
391.1016	0.2475
391.3082	0.2597
391.5147	0.2465
391.7213	0.2512
391.9278	0.2511
392.1343	0.2441
392.3408	0.2429
392.5473	0.2407
392.7537	0.2414
392.9602	0.2522
393.1666	0.2257
393.373	0.2382
393.5794	0.2561
393.7858	0.2485
393.9922	0.2356
394.1986	0.2315
394.4049	0.246
394.6113	0.2268
394.8176	0.2217
395.0239	0.2232
395.2302	0.2388
395.4365	0.2298
395.6428	0.2374
395.8491	0.2412
396.0553	0.2257
396.2615	0.2267
396.4678	0.2218
396.674	0.2187
396.8802	0.2327
397.0863	0.2417
397.2925	0.2212
397.4987	0.2133
397.7048	0.206
397.9109	0.2114
398.117	0.2253
398.3231	0.2159
398.5292	0.2255
398.7353	0.2397
398.9413	0.2258
399.1474	0.222
399.3534	0.228
399.5594	0.2227
399.7654	0.248
399.9714	0.2348
400.1774	0.2077
400.3833	0.2214
400.5893	0.2285
400.7952	0.22
401.0011	0.2218
401.207	0.2321
401.4129	0.2263
401.6188	0.2341
401.8247	0.2224
402.0305	0.1981
402.2364	0.2187
402.4422	0.2381
402.648	0.2237
402.8538	0.2226
403.0596	0.2177
403.2654	0.2253
403.4711	0.215
403.6768	0.2404
403.8826	0.2327
404.0883	0.2285
404.294	0.2249
404.4997	0.2246
404.7054	0.2303
404.911	0.2162
405.1167	0.2201
405.3223	0.22
405.5279	0.2291
405.7335	0.2395
405.9391	0.233
406.1447	0.2176
406.3502	0.2433
406.5558	0.2169
406.7613	0.2172
406.9668	0.2235
407.1724	0.2154
407.3778	0.2232
407.5833	0.22
407.7888	0.2245
407.9942	0.2308
408.1997	0.217
408.4051	0.2278
408.6105	0.2189
408.8159	0.2259
409.0213	0.2207
409.2267	0.2442
409.432	0.2009
409.6374	0.2273
409.8427	0.208
410.048	0.2246
410.2533	0.2272
410.4586	0.2334
410.6639	0.2189
410.8691	0.2028
411.0744	0.2126
411.2796	0.2087
411.4848	0.2283
411.69	0.2136
411.8952	0.2356
412.1004	0.2114
412.3056	0.2122
412.5107	0.2174
412.7158	0.2298
412.921	0.2175
413.1261	0.2113
413.3312	0.2314
413.5362	0.2201
413.7413	0.2141
413.9464	0.2154
414.1514	0.2264
414.3564	0.2293
414.5614	0.2086
414.7664	0.2205
414.9714	0.2198
415.1764	0.2087
415.3813	0.2221
415.5863	0.2047
415.7912	0.2266
415.9961	0.2289
416.201	0.229
416.4059	0.2122
416.6108	0.2054
416.8156	0.2274
417.0205	0.1991
417.2253	0.2113
417.4301	0.2039
417.6349	0.2152
417.8397	0.2186
418.0445	0.2214
418.2492	0.2214
418.454	0.1988
418.6587	0.215
418.8634	0.2148
419.0681	0.2044
419.2728	0.2167
419.4775	0.1978
419.6822	0.2086
419.8868	0.1937
420.0915	0.1866
420.2961	0.1889
420.5007	0.2118
420.7053	0.2054
420.9099	0.2153
421.1144	0.1908
421.319	0.1867
421.5235	0.2121
421.728	0.2081
421.9325	0.2023
422.137	0.2321
422.3415	0.2101
422.546	0.2099
422.7504	0.1986
422.9549	0.2172
423.1593	0.2087
423.3637	0.1957
423.5681	0.1868
423.7725	0.184
423.9769	0.1997
424.1812	0.1939
424.3856	0.1892
424.5899	0.2149
424.7942	0.1793
424.9985	0.1962
425.2028	0.1956
425.4071	0.2133
425.6113	0.1904
425.8156	0.1788
426.0198	0.1797
426.224	0.1886
426.4282	0.1779
426.6324	0.1817
426.8366	0.1855
427.0407	0.1738
427.2449	0.1598
427.449	0.1865
427.6531	0.1578
427.8572	0.1685
428.0613	0.177
428.2654	0.1644
428.4694	0.1517
428.6735	0.1607
428.8775	0.1723
429.0815	0.172
429.2855	0.1538
429.4895	0.1709
429.6935	0.1688
429.8975	0.1669
430.1014	0.1455
430.3053	0.1455
430.5093	0.1596
430.7132	0.1407
430.9171	0.1438
431.1209	0.1394
431.3248	0.1336
431.5286	0.1565
431.7325	0.1558
431.9363	0.1282
432.1401	0.1444
432.3439	0.1416
432.5477	0.1271
432.7514	0.128
432.9552	0.1463
433.1589	0.1359
433.3627	0.114
433.5664	0.133
433.7701	0.1221
433.9737	0.1205
434.1774	0.1154
434.3811	0.121
434.5847	0.1323
434.7883	0.12
434.9919	0.1112
435.1955	0.114
435.3991	0.1137
435.6027	0.1321
435.8062	0.1109
436.0098	0.1168
436.2133	0.112
436.4168	0.1054
436.6203	0.1107
436.8238	0.1089
437.0272	0.106
437.2307	0.1068
437.4341	0.1058
437.6375	0.0995
437.841	0.0895
438.0443	0.1178
438.2477	0.0883
438.4511	0.0845
438.6545	0.105
438.8578	0.0914
439.0611	0.0892
439.2644	0.1002
439.4677	0.0874
439.671	0.0806
439.8743	0.0904
440.0775	0.0953
440.2808	0.094
440.484	0.0637
440.6872	0.0704
440.8904	0.0798
441.0936	0.1022
441.2967	0.0734
441.4999	0.0743
441.703	0.0699
441.9062	0.0489
442.1093	0.0753
442.3124	0.0589
442.5155	0.0519
442.7185	0.0618
442.9216	0.0488
443.1246	0.07
443.3276	0.0646
443.5307	0.0639
443.7337	0.0711
443.9366	0.0711
444.1396	0.0592
444.3426	0.0494
444.5455	0.0562
444.7484	0.0445
444.9513	0.0423
445.1542	0.0701
445.3571	0.0488
445.56	0.0368
445.7628	0.0452
445.9657	0.0545
446.1685	0.0554
446.3713	0.0505
446.5741	0.0331
446.7769	0.035
446.9797	0.0573
447.1824	0.0497
447.3852	0.0481
447.5879	0.0452
447.7906	0.054
447.9933	0.0447
448.196	0.0333
448.3986	0.0358
448.6013	0.0374
448.8039	0.0231
449.0066	0.0347
449.2092	0.044
449.4118	0.0345
449.6143	0.0284
449.8169	0.0491
450.0195	0.0221
450.222	0.0104
450.4245	0.0254
450.627	0.0296
450.8295	0.0193
451.032	0.0297
451.2345	0.027
451.4369	0.0398
451.6394	0.0192
451.8418	0.0207
452.0442	0.0084
452.2466	0.0267
452.449	0.0281
452.6513	0.0183
452.8537	0.0195
453.056	0.0048
453.2583	0.0109
453.4607	0.0186
453.663	0.013
453.8652	0.0354
454.0675	0.0107
454.2697	0.019
454.472	0.0058
454.6742	0.0241
454.8764	0.0129
455.0786	0.0414
455.2808	0.0249
455.4829	0.0204
455.6851	0.0328
455.8872	0.0262
456.0893	0.0189
456.2915	-0.0061
456.4935	0.0097
456.6956	0.0066
456.8977	0.0072
457.0997	0.0036
457.3018	0.0043
457.5038	0.0147
457.7058	0.0031
457.9078	0.0151
458.1098	0.0237
458.3117	0.0239
458.5137	0.0236
458.7156	0.0139
458.9175	0.0007
459.1194	0.0185
459.3213	0.0168
459.5232	-0.0001
459.725	0.0022
459.9269	-0.0037
460.1287	-0.0027
460.3305	0.0116
460.5323	0.0054
460.7341	0.011
460.9359	0.0006
461.1376	0.0125
461.3394	-0.001
461.5411	0.0125
461.7428	-0.0042
461.9445	0.0155
462.1462	0.0231
462.3479	-0.0102
462.5495	0.0072
462.7512	0.0068
462.9528	0.0166
463.1544	0.0002
463.356	0.0122
463.5576	0.0057
463.7592	-0.0147
463.9607	0.0021
464.1623	0.0039
464.3638	0.0215
464.5653	-0.0072
464.7668	-0.0097
464.9683	0.0136
465.1697	0.0118
465.3712	-0.0006
465.5726	-0.0075
465.7741	-0.0062
465.9755	-0.0117
466.1769	0.0135
466.3782	-0.0051
466.5796	-0.0149
466.7809	0.0031
466.9823	-0.0138
467.1836	0.006
467.3849	-0.0076
467.5862	0.0032
467.7875	0.008
467.9887	0.0091
468.19	0.0114
468.3912	-0.0135
468.5924	0.0086
468.7936	0.0008
468.9948	-0.0024
469.196	0.0052
469.3972	-0.0064
469.5983	0.0068
469.7994	-0.0107
470.0006	0.0042
470.2017	-0.0159
470.4027	-0.0094
470.6038	0.001
470.8049	-0.0187
471.0059	-0.0135
471.2069	-0.0232
471.408	0.0094
471.6089	0.001
471.8099	-0.0087
472.0109	0.0077
472.2119	-0.0066
472.4128	-0.0175
472.6137	0.0193
472.8146	-0.0151
473.0155	-0.0127
473.2164	0.0083
473.4173	0.004
473.6181	0.004
473.819	0.0101
474.0198	-0.0019
474.2206	0.0048
474.4214	0.0062
474.6222	-0.0015
474.8229	-0.0043
475.0237	-0.0119
475.2244	-0.008
475.4251	0.0047
475.6258	0.0019
475.8265	-0.0028
476.0272	0.0101
476.2278	0.0021
476.4285	-0.0017
476.6291	-0.0115
476.8297	-0.0122
477.0303	-0.0038
477.2309	-0.0016
477.4315	-0.01
477.632	-0.0058
477.8326	-0.0081
478.0331	0.0075
478.2336	0.0091
478.4341	-0.013
478.6346	0.0106
478.8351	0.0043
479.0355	-0.0015
479.236	-0.0112
479.4364	-0.0106
479.6368	-0.0063
479.8372	-0.006
480.0376	0.0057
480.2379	-0.0175
480.4383	-0.0151
480.6386	0.0049
480.8389	-0.0062
481.0392	-0.0057
481.2395	-0.0118
481.4398	-0.0019
481.6401	0.003
481.8403	-0.0088
482.0405	0.0011
482.2408	-0.006
482.441	-0.0015
482.6411	-0.0079
482.8413	0.001
483.0415	-0.0103
483.2416	-0.0089
483.4417	-0.0015
483.6419	-0.0099
483.8419	-0.0064
484.042	0.0044
484.2421	0.0099
484.4422	-0.0074
484.6422	-0.0086
484.8422	-0.0008
485.0422	-0.0187
485.2422	0.0077
485.4422	-0.0134
485.6422	-0.0143
485.8421	-0.0008
486.042	-0.0084
486.242	-0.0037
486.4419	-0.0057
486.6417	-0.0186
486.8416	-0.0084
487.0415	-0.0032
487.2413	0.0007
487.4411	-0.0094
487.641	0.0013
487.8408	-0.0016
488.0405	-0.01
488.2403	-0.0031
488.4401	-0.0043
488.6398	0.0092
488.8395	-0.0154
489.0392	0.0045
489.2389	-0.0063
489.4386	-0.0187
489.6383	-0.0059
489.8379	-0.0026
490.0376	-0.0082
490.2372	-0.0078
490.4368	-0.0084
490.6364	0
490.836	-0.0113
491.0355	-0.0105
491.2351	-0.0181
491.4346	-0.0105
491.6341	-0.0179
491.8336	-0.0058
492.0331	-0.0194
492.2326	-0.0205
492.432	-0.0062
492.6315	0.0009
492.8309	-0.0149
493.0303	-0.0043
493.2297	-0.0035
493.4291	-0.0051
493.6284	-0.0134
493.8278	-0.0027
494.0271	0.0084
494.2264	0.0023
494.4257	-0.0117
494.625	-0.0019
494.8243	-0.0098
495.0236	-0.0065
495.2228	-0.0147
495.422	0.0041
495.6213	-0.011
495.8205	-0.0106
496.0196	-0.0044
496.2188	0.0041
496.418	-0.016
496.6171	-0.0152
496.8162	-0.0123
497.0153	-0.0033
497.2144	-0.012
497.4135	-0.0066
497.6126	-0.0146
497.8116	-0.0149
498.0107	0.0043
498.2097	-0.0102
498.4087	-0.013
498.6077	0
498.8067	-0.0016
499.0056	-0.0033
499.2046	-0.0103
499.4035	-0.0222
499.6024	-0.0131
499.8013	0.0084
500.0002	-0.0156
500.199	-0.0043
500.3979	-0.0017
500.5967	-0.0219
500.7956	-0.0006
500.9944	-0.0155
501.1932	-0.0034
501.3919	-0.0099
501.5907	-0.014
501.7895	-0.0048
501.9882	-0.0091
502.1869	-0.0127
502.3856	-0.0154
502.5843	-0.0128
502.783	-0.0087
502.9816	-0.0076
503.1803	-0.0068
503.3789	-0.007
503.5775	0.001
503.7761	-0.0079
503.9747	-0.0037
504.1732	-0.0082
504.3718	-0.0084
504.5703	-0.01
504.7689	-0.0061
504.9674	-0.0051
505.1658	-0.014
505.3643	-0.0147
505.5628	-0.0089
505.7612	-0.0038
505.9597	0.0052
506.1581	-0.0007
506.3565	0.0046
506.5549	-0.0091
506.7532	-0.0144
506.9516	-0.0036
507.1499	-0.0016
507.3482	-0.0202
507.5465	-0.0004
507.7448	-0.0067
507.9431	-0.0052
508.1414	0.0037
508.3396	-0.0171
508.5379	-0.0094
508.7361	-0.01
508.9343	-0.0042
509.1325	-0.0088
509.3306	-0.0088
509.5288	-0.004
509.7269	-0.0116
509.9251	-0.0025
510.1232	-0.0104
510.3213	-0.0041
510.5193	-0.0006
510.7174	-0.0162
510.9154	-0.0053
511.1135	-0.0089
511.3115	-0.0027
511.5095	-0.0025
511.7075	-0.0077
511.9055	-0.0107
512.1034	-0.0116
512.3014	-0.0054
512.4993	-0.0056
512.6972	-0.0071
512.8951	-0.0188
513.093	-0.0065
513.2908	-0.0063
513.4887	-0.0083
513.6865	-0.0093
513.8844	-0.0172
514.0822	-0.0178
514.2799	-0.0187
514.4777	-0.0085
514.6755	-0.012
514.8732	-0.006
515.0709	-0.0096
515.2687	-0.0068
515.4664	-0.0039
515.664	-0.003
515.8617	-0.019
516.0594	-0.0175
516.257	-0.0001
516.4546	-0.0178
516.6522	0.0014
516.8498	-0.0075
517.0474	-0.0001
517.2449	-0.0017
517.4425	-0.0096
517.64	-0.0023
517.8375	-0.0011
518.035	0.0019
518.2325	-0.006
518.43	-0.0109
518.6274	-0.0056
518.8249	-0.0113
519.0223	-0.0109
519.2197	-0.0041
519.4171	-0.0146
519.6145	-0.0121
519.8118	-0.0005
520.0092	-0.0069
520.2065	-0.0175
520.4038	-0.018
520.6011	-0.008
520.7984	-0.0174
520.9956	-0.0078
521.1929	-0.0174
521.3901	-0.0017
521.5874	-0.0155
521.7846	0.0001
521.9818	-0.0073
522.1789	-0.0084
522.3761	-0.0117
522.5732	0.0006
522.7704	-0.006
522.9675	-0.0075
523.1646	-0.0158
523.3617	-0.018
523.5587	-0.0064
523.7558	-0.003
523.9528	-0.0206
524.1498	-0.0031
524.3468	-0.008
524.5438	-0.0049
524.7408	-0.0027
524.9378	0.0062
525.1347	-0.0037
525.3316	-0.0129
525.5285	-0.0172
525.7254	-0.0173
525.9223	-0.0036
526.1192	-0.0036
526.316	-0.008
526.5129	-0.0006
526.7097	-0.0044
526.9065	-0.0082
527.1033	-0.0111
527.3	-0.0068
527.4968	0.0018
527.6935	0.008
527.8903	-0.0067
528.087	-0.0054
528.2837	-0.0124
528.4804	-0.0068
528.677	-0.0079
528.8737	0.0009
529.0703	0.0017
529.2669	-0.002
529.4635	-0.0037
529.6601	-0.0025
529.8567	-0.0058
530.0532	-0.0059
530.2498	0.003
530.4463	-0.0068
530.6428	-0.0076
530.8393	-0.0016
531.0358	-0.0098
531.2322	-0.0023
531.4287	-0.0039
531.6251	-0.0108
531.8215	0.0057
532.0179	-0.0118
532.2143	0.0139
532.4107	-0.0029
532.607	-0.0085
532.8034	0.0006
532.9997	-0.0056
533.196	-0.0037
533.3923	-0.0152
533.5886	-0.0036
533.7848	-0.0005
533.9811	-0.0063
534.1773	-0.0004
534.3735	0.0105
534.5697	-0.0002
534.7659	-0.0041
534.9621	-0.0022
535.1582	-0.0082
535.3544	-0.0022
535.5505	-0.0111
535.7466	-0.0084
535.9427	-0.0027
536.1387	-0.0088
536.3348	-0.0104
536.5308	0.0075
536.7269	-0.0214
536.9229	0.007
537.1189	-0.0026
537.3148	-0.0059
537.5108	-0.016
537.7068	0.0023
537.9027	-0.0038
538.0986	-0.007
538.2945	-0.018
538.4904	-0.0132
538.6863	-0.0116
538.8821	-0.0148
539.078	-0.0078
539.2738	-0.0011
539.4696	-0.012
539.6654	0.0011
539.8611	0.0034
540.0569	-0.0032
540.2526	-0.0064
540.4484	0.0025
540.6441	0.0022
540.8398	-0.0046
541.0355	-0.0074
541.2311	0.0057
541.4268	-0.0088
541.6224	0.0023
541.818	-0.002
542.0136	-0.0046
542.2092	-0.0007
542.4048	-0.0097
542.6003	-0.0085
542.7959	-0.0038
542.9914	0.0006
543.1869	0.0007
543.3824	-0.0008
543.5779	-0.0135
543.7734	-0.0085
543.9688	-0.0053
544.1642	0.0121
544.3596	0.0006
544.555	-0.0055
544.7504	-0.0065
544.9458	-0.0036
545.1411	-0.0105
545.3365	-0.0048
545.5318	-0.0005
545.7271	-0.0077
545.9224	-0.0086
546.1177	-0.0036
546.3129	-0.0047
546.5081	-0.0114
546.7034	0.001
546.8986	-0.0068
547.0938	0.0007
547.289	0.0029
547.4841	-0.0033
547.6793	-0.0008
547.8744	-0.0058
548.0695	-0.0061
548.2646	-0.0093
548.4597	0.0046
548.6548	0.0089
548.8498	-0.0022
549.0448	0.0055
549.2399	-0.0088
549.4349	0.0041
549.6298	-0.0049
549.8248	-0.0017
550.0198	-0.0025
550.2147	-0.0055
550.4096	-0.0071
550.6045	-0.0065
550.7994	0.0048
550.9943	-0.0039
551.1892	0.0002
551.384	0.0023
551.5788	-0.0088
551.7737	-0.0065
551.9685	-0.0048
552.1632	-0.0059
552.358	-0.0048
552.5528	-0.0018
552.7475	-0.0029
552.9422	-0.0031
553.1369	-0.0029
553.3316	0.0066
553.5263	-0.0161
553.7209	0.0051
553.9156	-0.0101
554.1102	-0.0076
554.3048	-0.0033
554.4994	0.0053
554.694	-0.0054
554.8885	-0.0052
555.0831	-0.004
555.2776	-0.0072
555.4721	-0.002
555.6666	-0.0045
555.8611	0.0029
556.0555	-0.0019
556.25	-0.0055
556.4444	-0.0076
556.6388	-0.0051
556.8332	-0.0055
557.0276	-0.0041
557.222	-0.0048
557.4163	0.002
557.6107	-0.0091
557.805	0.0089
557.9993	-0.0117
558.1936	-0.0038
558.3879	-0.0002
558.5821	-0.0061
558.7764	-0.0075
558.9706	0.0045
559.1648	-0.0011
559.359	-0.0054
559.5532	-0.0029
559.7473	-0.0072
559.9415	0.0052
560.1356	-0.0059
560.3297	-0.0019
560.5238	0.0049
560.7179	-0.0059
560.9119	-0.0045
561.106	-0.0009
561.3	-0.0076
561.494	-0.0056
561.688	-0.0123
561.882	-0.0197
562.076	-0.0063
562.2699	0.0034
562.4639	0.0008
562.6578	-0.0051
562.8517	-0.0056
563.0456	0.0037
563.2395	-0.0038
563.4333	-0.0029
563.6272	0.0032
563.821	-0.008
564.0148	-0.0003
564.2086	-0.0038
564.4024	-0.0024
564.5961	-0.0087
564.7899	0.0063
564.9836	0.0012
565.1773	-0.0043
565.371	0.0118
565.5647	0.0066
565.7584	0.0012
565.952	0.0042
566.1456	-0.0003
566.3393	0.0035
566.5329	-0.007
566.7264	-0.006
566.92	-0.0097
567.1136	0.0052
567.3071	-0.0102
567.5006	0.0029
567.6941	0.0032
567.8876	-0.0001
568.0811	-0.0093
568.2745	-0.0004
568.468	0.0052
568.6614	-0.0081
568.8548	-0.0074
569.0482	-0.0046
569.2416	-0.001
569.4349	0.0043
569.6283	0.0079
569.8216	-0.0028
570.0149	-0.0016
570.2082	0.0063
570.4015	0.0074
570.5947	-0.0002
570.788	0.0054
570.9812	0.0021
571.1744	-0.001
571.3676	-0.0093
571.5608	-0.0011
571.754	0.0054
571.9471	-0.0069
572.1402	0.0018
572.3333	-0.0073
572.5264	-0.0048
572.7195	-0.0022
572.9126	0.0005
573.1057	0.0029
573.2987	0.001
573.4917	0.0052
573.6847	-0.0104
573.8777	0.0059
574.0707	-0.0023
574.2636	-0.0069
574.4566	-0.0044
574.6495	0.0047
574.8424	-0.0084
575.0353	-0.0057
575.2281	0.0107
575.421	-0.0022
575.6138	0.0035
575.8067	0.0031
575.9995	0.0005
576.1923	0.0038
576.385	0.0055
576.5778	-0.0033
576.7706	0.0019
576.9633	0.0028
577.156	0.0005
577.3487	0.0024
577.5414	0.0029
577.734	0.0028
577.9267	0.0038
578.1193	-0.0126
578.3119	-0.0003
578.5045	0.0033
578.6971	-0.0009
578.8897	0.0025
579.0822	-0.001
579.2747	-0.0014
579.4673	-0.007
579.6598	0.0002
579.8522	-0.0065
580.0447	-0.0025
580.2372	0.0012
580.4296	0.0014
580.622	-0.0027
580.8144	0
581.0068	-0.0019
581.1992	-0.0122
581.3915	-0.0072
581.5839	-0.0048
581.7762	-0.0053
581.9685	0.0008
582.1608	0.0011
582.353	-0.0002
582.5453	-0.0034
582.7375	0.0005
582.9298	0.0038
583.122	0.0007
583.3142	0.0023
583.5063	0.0045
583.6985	-0.0094
583.8906	-0.0051
584.0827	-0.0038
584.2749	-0.0011
584.4669	-0.0025
584.659	-0.0001
584.8511	0.001
585.0431	-0.0015
585.2352	0.004
585.4272	0.0003
585.6192	0.0008
585.8111	-0.0008
586.0031	-0.0039
586.195	-0.0008
586.387	0.0009
586.5789	-0.0033
586.7708	-0.0046
586.9627	-0.0027
587.1545	-0.0104
587.3464	-0.0026
587.5382	-0.0013
587.73	-0.0047
587.9218	0.002
588.1136	-0.0018
588.3053	0
588.4971	-0.0095
588.6888	-0.0114
588.8805	-0.0049
589.0722	0.004
589.2639	0.0038
589.4556	-0.0066
589.6472	-0.0037
589.8389	-0.0091
590.0305	-0.0097
590.2221	0.0036
590.4137	-0.0081
590.6052	0.006
590.7968	-0.0006
590.9883	-0.0008
591.1798	-0.0061
591.3713	-0.003
591.5628	0.0002
591.7543	0.0034
591.9458	-0.0054
592.1372	0.0065
592.3286	0.0065
592.52	0.0008
592.7114	-0.0053
592.9028	-0.0062
593.0941	-0.0021
593.2855	0.0008
593.4768	-0.001
593.6681	-0.008
593.8594	-0.0039
594.0506	-0.0002
594.2419	0.0072
594.4331	0.0046
594.6244	0.0045
594.8156	-0.0067
595.0067	0.0002
595.1979	-0.0024
595.3891	0.0027
595.5802	-0.0008
595.7713	-0.0017
595.9624	-0.0093
596.1535	0.0053
596.3446	-0.0044
596.5357	0.0017
596.7267	0.0058
596.9177	-0.0012
597.1087	-0.011
597.2997	-0.0072
597.4907	0.0022
597.6817	-0.0043
597.8726	-0.0012
598.0635	-0.0046
598.2544	0.0026
598.4453	0.0005
598.6362	-0.002
598.827	-0.0051
599.0179	0.0019
599.2087	0.0008
599.3995	0.003
599.5903	-0.0003
599.7811	0.0034
599.9718	-0.001
600.1626	-0.0052
600.3533	-0.0088
600.544	-0.004
600.7347	0.0005
600.9254	-0.0059
601.116	-0.0096
601.3067	-0.0025
601.4973	-0.0046
601.6879	-0.0001
601.8785	-0.0021
602.0691	-0.0003
602.2596	0.0041
602.4502	0.0029
602.6407	0.0004
602.8312	0
603.0217	-0.0091
603.2122	-0.0007
603.4027	-0.0015
603.5931	-0.0011
603.7835	0.0007
603.9739	-0.0035
604.1643	-0.0061
604.3547	-0.0058
604.5451	0.0029
604.7354	-0.0042
604.9257	-0.0005
605.116	0.0032
605.3063	0.0034
605.4966	0.0045
605.6869	0.0075
605.8771	0.0082
606.0673	0.0044
606.2575	0.0036
606.4477	0.0088
606.6379	0.0031
606.8281	0.001
607.0182	0.0031
607.2083	0.0064
607.3985	-0.0032
607.5885	-0.0008
607.7786	0.0039
607.9687	-0.0006
608.1587	0.0046
608.3488	-0.0026
608.5388	-0.0017
608.7288	0.0033
608.9187	-0.0039
609.1087	-0.0026
609.2986	-0.0069
609.4886	-0.0033
609.6785	0.0004
609.8684	0.0008
610.0582	0.0002
610.2481	0.0044
610.4379	0.0005
610.6278	0.0008
610.8176	-0.0006
611.0074	-0.0006
611.1971	-0.0027
611.3869	0.0048
611.5766	-0.0084
611.7664	0.0079
611.9561	0.0032
612.1458	0.0041
612.3354	-0.01
612.5251	0.0019
612.7147	-0
612.9044	0.0078
613.094	-0.0051
613.2836	0.0051
613.4731	-0.0087
613.6627	-0.0049
613.8522	0.0007
614.0417	0.0047
614.2313	-0.0009
614.4207	-0.0018
614.6102	0.0031
614.7997	-0.006
614.9891	-0.0048
615.1785	0.0035
615.3679	-0.0069
615.5573	0.0077
615.7467	-0.0026
615.9361	0.002
616.1254	0.0025
616.3147	-0.0012
616.504	0.0043
616.6933	0.0036
616.8826	0.0089
617.0718	0.0016
617.2611	0.0021
617.4503	-0.005
617.6395	-0.0012
617.8287	0.0021
618.0179	-0.0044
618.207	0.0053
618.3961	-0.0023
618.5853	-0.0024
618.7744	0.0048
618.9634	0.0034
619.1525	0.0019
619.3416	0.0014
619.5306	0.0019
619.7196	0.0045
619.9086	-0.005
620.0976	0.0031
620.2866	0.0027
620.4755	0.0093
620.6645	-0.0021
620.8534	0.0055
621.0423	0.0024
621.2312	0.001
621.42	-0.0014
621.6089	0.0013
621.7977	0.0139
621.9865	-0.0086
622.1753	0.0059
622.3641	0.0006
622.5529	0.0134
622.7416	0.0031
622.9303	-0.0083
623.1191	0.0094
623.3078	0.0014
623.4964	0.0024
623.6851	-0.0038
623.8737	0.0034
624.0624	-0.0008
624.251	-0.0008
624.4396	0.0038
624.6282	-0.0096
624.8167	-0.0029
625.0053	0.0054
625.1938	0.0051
625.3823	0.0018
625.5708	-0.0005
625.7593	-0.0063
625.9477	-0.0082
626.1362	-0.0062
626.3246	-0.0015
626.513	0.0035
626.7014	0.0013
626.8898	0.0017
627.0781	-0.0031
627.2665	-0.0041
627.4548	0.0029
627.6431	0.0058
627.8314	0.0073
628.0197	0.0049
628.2079	-0.0076
628.3962	-0.0021
628.5844	0.0095
628.7726	0.003
628.9608	0.0084
629.1489	0.0021
629.3371	0.0035
629.5252	-0.0046
629.7134	0.011
629.9015	-0.0025
630.0895	0.0063
630.2776	0.004
630.4657	0.0029
630.6537	0.0069
630.8417	0.0017
631.0297	-0.0065
631.2177	-0.0011
631.4057	-0.0047
631.5936	-0.0004
631.7815	0.0023
631.9695	0.002
632.1574	0.0021
632.3452	0.0018
632.5331	0.0048
632.7209	-0.0041
632.9088	0.0098
633.0966	0.003
633.2844	-0.0046
633.4722	-0.0014
633.6599	0.007
633.8477	-0.0044
634.0354	0.004
634.2231	-0.0015
634.4108	0.0034
634.5985	0.0064
634.7861	0.0053
634.9738	0.0032
635.1614	-0.0019
635.349	0.0083
635.5366	0.0055
635.7242	0.0051
635.9117	0.0029
636.0993	-0.0007
636.2868	0.0079
636.4743	-0.0013
636.6618	0.0141
636.8492	0.006
637.0367	0.0048
637.2241	-0.006
637.4115	-0.0037
637.5989	0.0011
637.7863	-0.0017
637.9737	-0.0052
638.161	-0.0043
638.3484	0.0037
638.5357	0.0055
638.723	-0.0049
638.9103	0.0047
639.0975	0.0005
639.2848	0.0011
639.472	-0.0006
639.6592	-0.0005
639.8464	0.0067
640.0336	0.0008
640.2208	-0.0037
640.4079	-0.001
640.595	0.0008
640.7821	-0.0016
640.9692	0.0004
641.1563	-0.0013
641.3434	0.0059
641.5304	0.0029
641.7174	-0.0013
641.9044	-0.0091
642.0914	0.0072
642.2784	0.0032
642.4653	0.0042
642.6523	-0.002
642.8392	-0.0023
643.0261	-0.0037
643.213	-0.0017
643.3999	-0.0064
643.5867	-0.0102
643.7735	-0.0034
643.9604	-0.0138
644.1472	-0.0046
644.3339	-0.0029
644.5207	0.0053
644.7075	0.0001
644.8942	0.0083
645.0809	0.0046
645.2676	0.0036
645.4543	-0.0018
645.6409	0.0061
645.8276	0.0041
646.0142	0.005
646.2008	0.0025
646.3874	-0.0032
646.574	0.002
646.7605	-0.0079
646.9471	-0.0057
647.1336	0.0001
647.3201	0.0036
647.5066	-0.0065
647.6931	0.0007
647.8795	-0.0002
648.0659	-0.0006
648.2524	0.0035
648.4388	0.0009
648.6252	-0.0017
648.8115	-0.0035
648.9979	-0.0036
649.1842	0.0029
649.3705	0.0041
649.5568	0.0102
649.7431	0.0013
649.9294	0.0064
650.1156	0.014
650.3018	-0.0091
650.488	0.0046
650.6742	0.0058
650.8604	0.0066
651.0466	-0.0057
651.2327	-0.0029
651.4188	0.0006
651.6049	-0.0014
651.791	-0.0032
651.9771	-0.0025
652.1632	0.0028
652.3492	0.0006
652.5352	-0.0041
652.7212	-0.0075
652.9072	0.0084
653.0932	0.0032
653.2791	0.0003
653.465	0.0017
653.651	-0.0101
653.8369	0.0007
654.0227	0.0017
654.2086	0.0038
654.3944	0.0123
654.5803	0.0012
654.7661	0.0017
654.9519	0.0046
655.1377	-0.0001
655.3234	-0.0035
655.5092	-0.0038
655.6949	-0.0098
655.8806	-0.0078
656.0663	-0.0037
656.2519	-0.0021
656.4376	-0.0033
656.6232	0.0019
656.8088	0.0019
656.9945	0.0064
657.18	-0.0035
657.3656	-0.0008
657.5511	-0.008
657.7367	-0.004
657.9222	0.0024
658.1077	0.0017
658.2932	-0.005
658.4786	-0.0061
658.6641	-0.0048
658.8495	-0.0056
659.0349	-0.0076
659.2203	0.0052
659.4057	0.0006
659.591	0.0043
659.7764	0.0015
659.9617	-0.0039
660.147	-0.0043
660.3323	0.0052
660.5176	0.0086
660.7028	0.0059
660.888	0.0055
661.0733	0.0011
661.2585	-0.0067
661.4436	-0.0005
661.6288	-0.003
661.8139	0.0011
661.9991	0.0007
662.1842	-0.0066
662.3693	-0.0012
662.5544	-0.0046
662.7394	-0.0028
662.9245	-0.0049
663.1095	0.0004
663.2945	-0.0042
663.4795	-0.0102
663.6644	0.0031
663.8494	0.0026
664.0343	-0.0022
664.2193	-0.0001
664.4042	-0.0014
664.589	0.0006
664.7739	-0.0026
664.9587	-0.0075
665.1436	0.006
665.3284	0.0017
665.5132	-0.0027
665.698	-0.0039
665.8827	0.0017
666.0675	-0.0015
666.2522	-0.0024
666.4369	-0.002
666.6216	0.0054
666.8063	-0.0028
666.9909	0.0034
667.1756	0.0034
667.3602	0.0004
667.5448	-0.0033
667.7294	0.0093
667.9139	0.0024
668.0985	0.0095
668.283	-0.005
668.4675	0.0037
668.652	-0.0026
668.8365	0.0016
669.0209	-0.0018
669.2054	0.0101
669.3898	0.0024
669.5742	0.0009
669.7586	0.0092
669.943	0.012
670.1273	0.0115
670.3117	0.0065
670.496	-0.0087
670.6803	0.0086
670.8646	-0.0016
671.0488	0.0016
671.2331	0.0076
671.4173	0.002
671.6015	0.0005
671.7857	0.0064
671.9699	0.0044
672.1541	0.0075
672.3382	0.0023
672.5223	0.0095
672.7064	0.0018
672.8905	0.0008
673.0746	0.0011
673.2587	0.001
673.4427	0.0014
673.6267	0.007
673.8107	0.016
673.9947	0.0047
674.1787	0.0034
674.3626	0.0012
674.5465	0.0022
674.7304	0.006
674.9143	0.0097
675.0982	0.0103
675.2821	0.0053
675.4659	0.0105
675.6497	0.0012
675.8335	0.0009
676.0173	-0.0007
676.2011	0.0046
676.3849	0.0026
676.5686	-0.0044
676.7523	-0.0003
676.936	0.001
677.1197	-0.0039
677.3034	-0.0056
677.487	-0.0021
677.6706	-0.0011
677.8542	0.0003
678.0378	-0.0031
678.2214	-0.0035
678.405	0.0006
678.5885	-0.0059
678.772	-0.0024
678.9555	-0.0112
679.139	0.0017
679.3225	-0.0037
679.5059	-0.0024
679.6894	0.003
679.8728	-0.0037
680.0562	-0.011
680.2395	-0.0054
680.4229	-0.0006
680.6062	0.0068
680.7896	-0.0042
680.9729	-0.0031
681.1562	0.0045
681.3394	0.0043
681.5227	-0.0045
681.7059	0.0053
681.8891	-0.0009
682.0723	0.0011
682.2555	0.0069
682.4387	0.0013
682.6218	0.0001
682.805	0.0166
682.9881	0.0088
683.1712	-0.0048
683.3542	0.0006
683.5373	0.0086
683.7203	-0.0059
683.9034	0.0014
684.0864	-0.0096
684.2694	-0.0056
684.4523	0.0003
684.6353	-0.0052
684.8182	0.0001
685.0011	-0.0071
685.184	0.0053
685.3669	0.0007
685.5498	0.0027
685.7326	0.0028
685.9154	-0.0044
686.0982	0.0065
686.281	-0.0074
686.4638	0.0039
686.6465	-0.0062
686.8293	-0.0018
687.012	-0.0009
687.1947	-0.0122
687.3774	0.0003
687.56	-0.0091
687.7427	0.0033
687.9253	0.0004
688.1079	-0.0008
688.2905	0.0083
688.4731	0.0002
688.6556	-0.0005
688.8382	-0.0011
689.0207	0.0023
689.2032	-0.0105
689.3857	-0.0043
689.5681	0.0044
689.7506	-0.0042
689.933	0.0019
690.1154	-0.0032
690.2978	-0.0038
690.4802	0.0041
690.6626	-0.0077
690.8449	-0.0056
691.0272	0.0031
691.2095	-0.0057
691.3918	-0.0043
691.5741	0.0012
691.7563	0.0003
691.9386	0.0033
692.1208	0.0023
692.303	0.0011
692.4852	-0.004
692.6673	0.0056
692.8495	0.0025
693.0316	0.0013
693.2137	-0.0038
693.3958	0.0065
693.5778	-0.0009
693.7599	-0.0026
693.9419	-0.0003
694.1239	0.0044
694.3059	0.0032
694.4879	0.0034
694.6699	0.0062
694.8518	0.003
695.0337	-0.0073
695.2157	0.0063
695.3975	0.0017
695.5794	0.0055
695.7613	0.0037
695.9431	-0.0047
696.1249	0.0052
696.3067	0.0101
696.4885	0.0032
696.6703	-0.0018
696.852	0.0087
697.0337	0.0026
697.2154	0.0034
697.3971	0.0105
697.5788	0.0042
697.7605	0.0031
697.9421	0.0071
698.1237	0.0045
698.3053	0.0055
698.4869	-0.0016
698.6685	-0.0029
698.85	0.006
699.0315	0.0093
699.213	-0.0027
699.3945	0.0023
699.576	0.0103
699.7575	0.0077
699.9389	-0.0015
700.1203	-0.0027
700.3017	-0.0097
700.4831	-0.0098
700.6645	-0.0069
700.8458	0.0062
701.0271	-0.0108
701.2084	0.003
701.3897	-0.0025
701.571	0.0031
701.7523	-0.0044
701.9335	-0.0056
702.1147	-0.0018
702.2959	-0.0014
702.4771	0.0037
702.6583	0.001
702.8394	-0.0005
703.0205	0.0025
703.2016	-0.0049
703.3827	0.0025
703.5638	0.0119
703.7449	-0.0045
703.9259	0.0111
704.1069	0.002
704.2879	0.0027
704.4689	0.0048
704.6499	0.0002
704.8308	0.0037
705.0117	-0.0003
705.1927	0.0005
705.3735	0.0013
705.5544	-0.0078
705.7353	-0.0031
705.9161	-0.0066
706.0969	-0.0044
706.2777	-0.0046
706.4585	-0.0077
706.6393	0.0082
706.82	-0.0038
707.0007	0.0011
707.1815	0.0019
707.3621	0.0066
707.5428	0.0022
707.7235	0.0038
707.9041	-0.0005
708.0847	-0.0092
708.2653	-0.0038
708.4459	-0.0071
708.6265	-0.0048
708.807	-0.0018
708.9875	-0.0032
709.168	-0.0053
709.3485	-0.0026
709.529	-0.0041
709.7095	-0.0063
709.8899	-0.0009
710.0703	-0.0241
710.2507	-0.0065
710.4311	-0.0045
710.6115	-0.0111
710.7918	-0.0133
710.9721	0.0017
711.1524	-0.0049
711.3327	0.0031
711.513	0.0032
711.6932	0.0076
711.8735	0.0101
712.0537	0.0059
712.2339	-0.0017
712.4141	-0.0097
712.5942	-0.0005
712.7744	-0.0026
712.9545	-0.0058
713.1346	-0.0075
713.3147	-0.004
713.4947	-0.0127
713.6748	-0.0017
713.8548	-0.0055
714.0348	-0.0005
714.2148	-0.0081
714.3948	0.0033
714.5748	-0.0079
714.7547	0.0018
714.9346	0.0084
715.1145	-0.0036
715.2944	0.0013
715.4743	-0.0026
715.6541	-0.0073
715.834	0.0044
716.0138	-0.0097
716.1936	-0.0093
716.3733	-0.0069
716.5531	0.0014
716.7328	0.0003
716.9126	-0.0099
717.0923	0.0058
717.2719	-0.0005
717.4516	0.0076
717.6312	-0.0039
717.8109	0.0039
717.9905	0.0069
718.1701	-0.0002
718.3496	-0.0042
718.5292	0.004
718.7087	0.0017
718.8882	0.0036
719.0677	0.0039
719.2472	0.0009
719.4267	0.0049
719.6061	0.002
719.7856	-0.0052
719.965	0.0018
720.1443	0.0014
720.3237	0.0158
720.5031	0.0072
720.6824	0.0118
720.8617	-0.001
721.041	-0.0052
721.2203	0.0055
721.3995	0.0066
721.5788	0.0005
721.758	0.0106
721.9372	0.0016
722.1164	-0.0037
722.2956	-0.0047
722.4747	-0.005
722.6538	0.0003
722.8329	0.0027
723.012	0.0022
723.1911	-0.0011
723.3702	0
723.5492	0.0043
723.7282	-0.0104
723.9072	0.0003
724.0862	-0.0074
724.2652	-0.0076
724.4441	-0.0068
724.623	-0.0063
724.8019	-0.002
724.9808	-0.0033
725.1597	-0.0129
725.3385	-0.0022
725.5174	-0.0029
725.6962	-0.0045
725.875	0.0007
726.0538	0.003
726.2325	-0.0044
726.4112	0.0074
726.59	-0.0019
726.7687	-0.0051
726.9474	0.003
727.126	0.013
727.3047	-0.0111
727.4833	0.0031
727.6619	-0.0069
727.8405	-0.0082
728.0191	-0.0017
728.1976	0.008
728.3762	-0.0027
728.5547	0.0012
728.7332	-0.0099
728.9116	0.0031
729.0901	0.0015
729.2686	-0.0084
729.447	-0.0018
729.6254	-0.0079
729.8038	-0.0018
729.9821	-0.0175
730.1605	-0.0038
730.3388	-0.0026
730.5171	-0.0036
730.6954	-0.0102
730.8737	-0.0031
731.0519	0.0035
731.2302	-0.0002
731.4084	0.0026
731.5866	0.0008
731.7648	-0.0047
731.9429	-0.0065
732.1211	-0.0119
732.2992	-0.0005
732.4773	-0.0072
732.6554	0.0024
732.8335	0.0012
733.0115	-0.0003
733.1896	0.0013
733.3676	-0.0092
733.5456	0.0057
733.7235	0.0027
733.9015	-0.0001
734.0794	-0.0005
734.2574	-0.0085
734.4353	-0.0028
734.6131	0.0043
734.791	0.009
734.9689	-0.002
735.1467	-0.0039
735.3245	-0.0058
735.5023	-0.0118
735.68	-0.0036
735.8578	0.0134
736.0355	-0.0136
736.2132	0.0032
736.3909	-0.0023
736.5686	-0.0011
736.7463	-0.0012
736.9239	0.0007
737.1015	-0.0059
737.2791	-0.0017
737.4567	-0.0047
737.6343	-0.0013
737.8118	0.0016
737.9894	0.0016
738.1669	-0.0023
738.3444	-0.0025
738.5218	0.0064
738.6993	0.0048
738.8767	-0.0074
739.0541	0.0087
739.2315	-0.0091
739.4089	0.0015
739.5863	0.0015
739.7636	-0.0026
739.9409	-0.0026
740.1182	0.0056
740.2955	0.0043
740.4728	0.0049
740.65	-0.0012
740.8272	-0.0009
741.0044	-0.006
741.1816	-0.0045
741.3588	-0.0004
741.5359	0.0078
741.7131	-0.0025
741.8902	-0.0072
742.0673	-0.0065
742.2444	-0.0116
742.4214	-0.0143
742.5985	-0.0032
742.7755	-0.0064
742.9525	-0.0169
743.1295	0.0057
743.3064	0.0004
743.4834	0.0001
743.6603	-0.0072
743.8372	0.0003
744.0141	-0.0048
744.191	0.0015
744.3678	0.004
744.5446	-0.0025
744.7215	0.008
744.8982	-0.0049
745.075	-0.017
745.2518	0.0081
745.4285	-0.006
745.6052	-0.0094
745.7819	-0.0139
745.9586	-0.0133
746.1353	-0.0119
746.3119	-0.0191
746.4885	-0.0172
746.6651	-0.0165
746.8417	-0.0044
747.0183	-0.0163
747.1948	-0.0114
747.3714	-0.0083
747.5479	0.0006
747.7244	-0.0079
747.9008	0.0066
748.0773	-0.0077
748.2537	-0.0081
748.4301	-0.0091
748.6065	-0.0025
748.7829	0.0009
748.9593	-0.0069
749.1356	-0.0103
749.3119	0.0018
749.4882	-0.0138
749.6645	0.0057
749.8408	-0.013
750.017	-0.0048
750.1933	-0.0005
750.3695	-0.0072
750.5457	0.0039
750.7218	-0.0066
750.898	0.0032
751.0741	-0.0102
751.2502	0.0005
751.4263	-0.0098
751.6024	-0.0055
751.7784	0.0072
751.9545	-0.0109
752.1305	0.0031
752.3065	-0.0066
752.4825	0.0047
752.6584	-0.0155
752.8344	-0.0146
753.0103	-0.0033
753.1862	-0.0052
753.3621	-0.005
753.5379	-0.0092
753.7138	0.0003
753.8896	-0.0032
754.0654	0.0033
754.2412	-0.003
754.417	0.0044
754.5927	-0.0066
754.7685	-0.0083
754.9442	-0.0043
755.1199	0.0089
755.2956	0.0012
755.4712	0.0116
755.6469	0.0095
755.8225	0.0086
755.9981	-0.0004
756.1736	0.0103
756.3492	0.0114
756.5248	-0.0042
756.7003	0.007
756.8758	0.0103
757.0513	-0.0041
757.2267	-0.0054
757.4022	0.0049
757.5776	-0.0023
757.753	0.0048
757.9284	-0.0001
758.1038	0.0077
758.2791	-0.0076
758.4545	-0.0161
758.6298	-0.0064
758.8051	-0.0022
758.9803	-0.0045
759.1556	-0.0064
759.3308	-0.0054
759.506	0.0015
759.6812	0.0017
759.8564	0.0053
760.0316	-0.006
760.2067	0.0126
760.3819	0.0067
760.557	0.013
760.732	0.0045
760.9071	-0.0081
761.0821	0.0017
761.2572	0.0077
761.4322	0.0008
761.6072	-0.0013
761.7821	-0.0128
761.9571	-0.0025
762.132	0.0035
762.3069	-0.0159
762.4818	-0.0064
762.6567	-0.007
762.8316	0.0011
763.0064	-0.0099
763.1812	-0.0106
763.356	-0.004
763.5308	0.0018
763.7055	-0.0078
763.8803	-0.0032
764.055	-0.0128
764.2297	0.004
764.4044	-0.0124
764.579	-0.0115
764.7537	-0.0129
764.9283	0.004
765.1029	-0.0124
765.2775	-0.0116
765.4521	-0.011
765.6266	-0.0102
765.8011	-0.0126
765.9756	-0.0191
766.1501	0.0081
766.3246	-0.0002
766.4991	-0.0012
766.6735	-0.0059
766.8479	-0.0072
767.0223	0.0009
767.1967	-0.0045
767.371	-0.0081
767.5454	-0.0065
767.7197	0.0012
767.894	-0.0087
768.0683	-0.0133
768.2425	0.0031
768.4168	0.002
768.591	-0.0097
768.7652	-0.0094
768.9394	-0.0101
769.1135	-0.0032
769.2877	-0.0021
769.4618	0.0038
769.6359	-0.002
769.81	-0.0004
769.984	-0.0115
770.1581	-0.02
770.3321	-0.0037
770.5061	0.0008
770.6801	-0.0105
770.8541	-0.0071
771.028	-0.0011
771.202	-0.0083
771.3759	0.0009
771.5498	-0.004
771.7236	0.0052
771.8975	-0.0023
772.0713	-0.0008
772.2451	-0.0025
772.4189	0.0052
772.5927	0.0062
772.7665	-0.0051
772.9402	-0.0066
773.1139	-0.005
773.2876	-0.0083
773.4613	0.0049
773.635	-0.0025
773.8086	-0.0121
773.9822	0.0025
774.1558	-0.0047
774.3294	-0.0115
774.503	-0.006
774.6765	0.0017
774.8501	0.0014
775.0236	0.001
775.1971	-0.0011
775.3705	-0.0109
775.544	0.0117
775.7174	-0.0105
775.8908	0.0019
776.0642	0.0009
776.2376	-0.0017
776.4109	-0.0126
776.5843	-0.0125
776.7576	0.008
776.9309	0.0109
777.1041	0.0048
777.2774	0.0024
777.4506	-0.0072
777.6238	-0.0011
777.797	0.0052
777.9702	-0.0049
778.1434	-0.0117
778.3165	-0.0015
778.4896	-0.0112
778.6627	0.006
778.8358	-0.0061
779.0089	-0.0053
779.1819	-0.0051
779.3549	0.015
779.5279	-0.002
779.7009	0.0036
779.8739	0.0014
780.0468	-0.0032
780.2197	-0.0029
780.3926	-0.0117
780.5655	-0.0025
780.7384	-0.0097
780.9112	-0.0117
781.0841	-0.005
781.2569	-0.0051
781.4297	0.0019
781.6024	-0.0043
781.7752	0.0061
781.9479	-0.0063
782.1206	-0.0058
782.2933	-0.0075
782.466	0.0004
782.6386	0.0083
782.8113	-0.0087
782.9839	-0.0099
783.1565	0.0148
783.329	0.0003
783.5016	0
783.6741	0.0001
783.8466	-0.0009
784.0191	0.0217
784.1916	0.0065
784.3641	-0.0015
784.5365	0.0076
784.7089	0.0083
784.8813	-0.0168
785.0537	0.0012
785.2261	-0.0145
785.3984	-0.0085
785.5707	-0.0061
785.743	-0.0104
785.9153	-0.0144
786.0876	-0.0135
786.2598	0.0037
786.432	-0.0282
786.6042	0.0043
786.7764	-0.0106
786.9486	0.0017
787.1207	-0.0176
787.2928	-0.0008
787.4649	-0.0018
787.637	-0.0097
787.8091	-0.0013
787.9811	-0.0027
788.1532	-0.0006
788.3252	0.0081
788.4972	-0.0072
788.6691	0.0024
788.8411	0.0069
789.013	-0.0162
789.1849	-0.0028
789.3568	-0.0131
789.5287	0.0014
789.7005	-0.0059
789.8723	0.0042
790.0442	0.0205
790.2159	-0.0024
790.3877	-0.0072
790.5595	-0.0092
790.7312	-0.0031
790.9029	0.0014
791.0746	-0.0032
791.2463	-0.0196
791.4179	-0.008
791.5896	-0.0087
791.7612	-0.0003
791.9328	0.0033
792.1044	-0.0156
792.2759	-0.0183
792.4474	-0.0074
792.619	-0.0063
792.7905	-0.0003
792.9619	-0.0079
793.1334	0.0058
793.3048	0.017
793.4762	0.0091
793.6476	-0.0025
793.819	0.0013
793.9904	0.0095
794.1617	-0.0086
794.333	0.0073
794.5043	-0.0128
794.6756	-0.0024
794.8469	0.0043
795.0181	0.0033
795.1893	0.0023
795.3605	0.0029
795.5317	-0.0065
795.7029	-0.0058
795.874	0.0053
796.0452	0.0042
796.2163	0.0032
796.3873	0.0105
796.5584	-0.0028
796.7294	-0.0083
796.9005	0.0005
797.0715	-0.0024
797.2425	-0.0271
797.4134	-0.0031
797.5844	0.0015
797.7553	-0.0247
797.9262	-0.0065
798.0971	-0.0139
798.2679	-0.0013
798.4388	-0.0224
798.6096	-0.0011
798.7804	0.0135
798.9512	-0.0068
799.122	-0.0056
799.2927	-0.0074
799.4635	-0.0011
799.6342	-0.0092
799.8049	-0.0025
799.9755	-0.0051
800.1462	-0.0009
800.3168	0.0058
800.4874	-0.009
800.658	0.0283
800.8286	0.0135
800.9991	-0.0027
801.1696	0.0028
801.3402	0.0117
801.5106	0.0012
801.6811	0.018
801.8516	0.002
802.022	-0.0028
802.1924	0.019
802.3628	0.0082
802.5332	0.0025
802.7035	0.0209
802.8739	-0.0054
803.0442	-0.0021
803.2145	0.0132
803.3847	-0.016
803.555	-0.0105
803.7252	-0.0235
803.8954	-0.0079
804.0656	-0.0189
804.2358	-0.0045
804.4059	0.0013
804.5761	0.0131
804.7462	-0.0002
804.9163	0.0007
805.0864	-0.0031
805.2564	-0.0093
805.4264	-0.0067
805.5965	-0.0115
805.7665	0.0004
805.9364	-0.0031
806.1064	0.0267
806.2763	0.013
806.4462	0.0227
806.6161	0.0026
806.786	0.0035
806.9559	0.0012
807.1257	-0.0103
807.2955	-0.0164
807.4653	0.0076
807.6351	-0.0059
807.8048	-0.0104
807.9746	0.0206
808.1443	-0.0009
808.314	-0.0144
808.4837	-0.0098
808.6533	0.0036
808.8229	0.0125
808.9926	-0.0071
809.1622	0.0141
809.3317	-0.0145
809.5013	0.0158
809.6708	0.0218
809.8403	-0.0024
810.0098	-0.001
810.1793	-0.0062
810.3488	0.018
810.5182	0.0144
810.6876	0.0133
810.857	-0.0129
811.0264	0.01
811.1958	-0.0086
811.3651	0.0011
811.5344	0.004
811.7037	-0.0083
811.873	-0.0219
812.0422	0.0128
812.2115	0.0025
812.3807	-0.023
812.5499	0.0068
812.7191	-0.0045
812.8882	-0.0065
813.0574	-0.0005
813.2265	-0.0199
813.3956	-0.0019
813.5646	-0.0109
813.7337	-0.0193
813.9027	0.0183
814.0718	0.0078
814.2407	0.0266
814.4097	-0.0047
814.5787	-0.0078
814.7476	-0.0133
814.9165	-0.0121
815.0854	-0.021
815.2543	-0.0227
815.4232	-0.0212
815.592	-0.0066
815.7608	0.0069
815.9296	0.0098
816.0984	-0.0087
816.2671	-0.0216
816.4359	-0.0054
816.6046	-0.0012
816.7733	-0.0286
816.942	-0.0081
817.1106	-0.0054
817.2793	0.0063
817.4479	-0.0003
817.6165	-0.0033
817.785	-0.0012
817.9536	-0.031
818.1221	-0.0192
818.2906	0.035
818.4591	-0.0019
818.6276	-0.0175
818.7961	-0.0091
818.9645	-0.0114
819.1329	0.002
819.3013	0.0237
819.4697	0.0352
819.638	-0.0105
819.8064	0.0114
819.9747	0.0192
820.143	-0.0103
820.3113	0.0015
820.4795	0.0014
820.6477	0.0063
820.816	0.0142
820.9842	0.0128
821.1523	0.0047
821.3205	0.0032
821.4886	0.0155
821.6567	0.0172
821.8248	0.0155
821.9929	0.008
822.1609	0.0008
822.329	0.0043
822.497	0.0198
822.665	-0.0059
822.833	-0.017
823.0009	0.0038
823.1688	0.0126
823.3367	0.0257
823.5046	0.0012
823.6725	0.0142
823.8404	-0.0078
824.0082	0.0329
824.176	0.0112
824.3438	0.0109
824.5116	0.0042
824.6793	0.0241
824.847	0.0038
825.0147	0.0126
825.1824	0.0347
825.3501	0.0203
825.5177	-0.0109
825.6854	0.0327
825.853	0.0013
826.0206	-0.0349
826.1881	0.0009
826.3557	-0.0341
826.5232	0.0031
826.6907	-0.0146
826.8582	0.0213
827.0257	-0.0294
827.1931	0.0124
827.3605	0.0014
827.528	-0.0132
827.6953	-0.0237
827.8627	-0.0358
828.03	0.035
828.1974	-0.0014
828.3647	-0.0274
828.532	-0.0295
828.6992	-0.0263
828.8665	0
829.0337	-0.0104
829.2009	0.0071
829.3681	0.0296
829.5352	0.0522
829.7024	-0.0163
829.8695	-0.0462
830.0366	0.0665
830.2037	-0.0174
830.3707	0.026
830.5378	0.0158
830.7048	0.0276
830.8718	0.0189
831.0388	-0.0229
831.2057	0.007
831.3727	0.0375
831.5396	-0.0062
831.7065	0.0261
831.8734	0.0331
832.0402	-0.0214
832.2071	-0.016
832.3739	0.0013
832.5407	0.0128
832.7075	-0.0213
832.8742	-0.0244
833.041	-0.0394
833.2077	0.0037
833.3744	0.0262
833.541	0.0055
833.7077	-0.0104
833.8743	-0.009
834.0409	-0.0155
834.2075	-0.018
834.3741	-0.0109
834.5407	-0.0229
834.7072	-0.0137
834.8737	-0.0294
835.0402	-0.0379
835.2067	0.0076
835.3731	0.0617
835.5395	0.0416
835.706	0.0026
835.8723	-0.0049
836.0387	0.0159
836.2051	0.0071
836.3714	0.0111
836.5377	0.0307
836.704	-0.0401
836.8703	0.0182
837.0365	-0.0129
837.2027	-0.0397
837.3689	0.0294
837.5351	0.0146
837.7013	-0.0239
837.8674	-0.0154
838.0335	-0.0344
838.1997	-0.0395
838.3657	-0.0395
838.5318	-0.0268
838.6978	0.0192
838.8639	-0.0088
839.0299	0.0204
839.1958	-0.0161
839.3618	0.0052
839.5277	-0.0297
839.6937	-0.031
839.8596	-0.0177
840.0254	-0.0138
840.1913	0.0326
840.3571	0.0672
840.523	-0.0371
840.6888	0.0029
840.8545	0.0079
841.0203	0.0581
841.186	0.0348
841.3517	0.0595
841.5174	0.0152
841.6831	-0.0229
841.8488	0.0416
842.0144	0.0393
842.18	0.009
842.3456	-0.0083
842.5112	0.0177
842.6767	-0.0275
842.8422	0.0658
843.0077	-0.0081
843.1732	-0.0215
843.3387	0.021
843.5042	-0.0357
843.6696	0.0985
843.835	-0.02
844.0004	0.0527
844.1657	0.0766
844.3311	-0.0164
844.4964	-0.0216
844.6617	-0.0227
844.827	0.0415
844.9923	0.0802
845.1575	0.0545
845.3227	0.0515
845.4879	0.0092
845.6531	0.0082
845.8183	-0.0462
845.9834	0.0271
846.1485	-0.0085
846.3136	-0.0258
846.4787	0.0033
846.6438	0.031
846.8088	-0.0061
846.9738	-0.0853
847.1388	0.0087
847.3038	-0.0147
847.4687	-0.1042
847.6337	0.0598
847.7986	-0.0065
847.9635	-0.0577
848.1284	0.0254
848.2932	0.1225
848.458	-0.0214
848.6228	0.0611
848.7876	0.0476
848.9524	-0.0233
849.1172	-0.1023
849.2819	0.0043
849.4466	-0.0643
849.6113	-0.1253
849.7759	0.0249
849.9406	-0.0265
850.1052	0.0532
850.2698	-0.0344
850.4344	0.1626
850.599	-0.0559
850.7635	0.0728
850.928	-0.0081
851.0925	0.1187
851.257	0.0926
851.4215	0.0564
851.5859	-0.1197
851.7503	0.079
851.9147	0.0273
852.0791	0.0324
852.2434	-0.0414
852.4078	0.0018
852.5721	0.0607
852.7364	-0.0255
852.9007	-0.2296
853.0649	-0.0247
853.2291	-0.0311
853.3934	0.0568
853.5575	-0.076
853.7217	-0.0615
853.8859	-0.1474
854.05	-0.0749
854.2141	0.0002
854.3782	-0.0531
854.5423	-0.0781
854.7063	0.043
854.8703	0.0408
855.0343	-0.0091
855.1983	-0.1513
855.3623	0.1379
855.5262	0.0142
855.6901	-0.1222
855.854	0.0671
856.0179	0.131
856.1818	0.0304
856.3456	-0.1229
856.5094	-0.2068
856.6732	-0.1155
856.837	-0.0733
857.0008	0.1085
857.1645	-0.0347
857.3282	-0.0364
857.4919	0.1699
857.6556	-0.0677
857.8192	-0.0552
857.9828	0.2816
858.1465	0.321
858.31	0.0164
858.4736	0.0625
858.6372	-0.2389
858.8007	-0.3104
858.9642	0.0696
859.1277	0.1214
859.2911	-0.0946
859.4546	0.0549
859.618	-0.2908
859.7814	0.0501
859.9448	-0.1135
860.1081	-0.0151
860.2715	0.1673
860.4348	0.4411
860.5981	-0.0181
860.7614	0.2036
860.9246	-0.1023
861.0879	0.1144
861.2511	0.112
861.4143	-0.0674
861.5774	0.187
861.7406	0.0782
861.9037	0.1238
862.0668	0.1143
862.2299	-0.0904
862.393	-0.5598
862.556	0.1689
862.7191	-0.1381
862.8821	-0.1216
863.0451	0.1126
863.208	0.1035
863.371	0.2545
863.5339	0.0754
863.6968	0.1594
863.8597	-0
864.0225	-0.0338
864.1854	-0.0082
864.3482	-0.1905
864.511	0.2176
864.6737	0.1039
864.8365	0.048
864.9992	-0.1286
865.1619	-0.5441
865.3246	-0.1446
865.4873	0.031
865.65	0.1925
865.8126	1.7069
865.9752	0.5599
866.1378	0.8522
866.3004	-0
866.4629	0.3731
866.6254	-0
866.7879	0.1623
866.9504	-0
867.1129	-0
867.2753	0.037
867.4377	0.0701
867.6001	-0.3519
867.7625	0.6449
867.9249	-0
868.0872	0.1808
868.2495	0.1334
868.4118	0.2434
868.5741	-0.1474
868.7363	-0.0924
868.8986	-0.1571
869.0608	-0.0743
869.223	0.3162
869.3851	-0
869.5473	-0
869.7094	0.1354
869.8715	-0.3312
870.0336	-0.5858
870.1957	-0
870.3577	-1.3379
870.5197	-0.1921
870.6817	-0.138
870.8437	0.3077
871.0057	-0.9738
871.1676	-0
871.3295	-0.0647
871.4914	0.4017
871.6533	-0.4435
871.8151	-0
871.977	-0
872.1388	-0
872.3006	0.2684
872.4623	-0
872.6241	-0
872.7858	0.3587
872.9475	-0
873.1092	0.1698
873.2709	-0
873.4325	-0.1621
873.5941	-0
873.7557	-0
873.9173	-0
874.0789	-0
874.2404	-0
874.4019	-0.1574
874.5634	-0.0801
874.7249	0.2409
874.8863	-0
875.0478	-0
875.2092	0.0913
875.3706	2.7243
875.5319	-0.2904
875.6933	-0.055
875.8546	-0.0615
876.0159	-0.0434
876.1772	0.1607
876.3385	-0
876.4997	0.5283
876.6609	-0.2405
876.8221	-0.3617
876.9833	0.0503
877.1445	-0
877.3056	0.5404
877.4667	-0.6742
877.6278	-0
877.7889	-0.6821
877.9499	-0
878.111	-0
878.272	-1.0969
878.433	0.301
878.5939	-0
878.7549	-0.0109
878.9158	-0.4653
879.0767	0.0136
879.2376	-0
879.3984	-0
879.5593	-0
879.7201	-0.2057
879.8809	-0.5848
880.0417	-0.143
880.2024	-0
880.3632	1.415
880.5239	0.3203
880.6846	0.4169
880.8452	-1.9845
881.0059	-1.5092
881.1665	-0.2647
881.3271	0.0157
881.4877	-0.6271
881.6483	0.5085
881.8088	0.1472
881.9693	0.1518
882.1298	0.1518
882.2903	0.1518
