Data from MonoPyChalIsomerACN10uM350nmA_Absorbance_14-35-32-118.txt Node
Date: Fri Jul 05 14:35:32 BST 2024
User: LASERRRRR
Spectrometer: FLMT03099
Trigger mode: 0
Integration Time (sec): 1.000000E-1
Scans to average: 1
Electric dark correction enabled: true
Nonlinearity correction enabled: false
Boxcar width: 0
XAxis mode: Wavelengths
Number of Pixels in Spectrum: 3648
>>>>>Begin Spectral Data<<<<<
179.3399	-0.3269
179.5586	-0.3269
179.7771	-0.3269
179.9957	-0
180.2143	-0.3945
180.4329	-0.1575
180.6514	-0
180.8699	-0
181.0885	-0.1671
181.307	0.4287
181.5255	0.4337
181.744	-0
181.9625	-0
182.181	-1.1579
182.3994	-0
182.6179	-0.2603
182.8363	0.1902
183.0547	-0.3072
183.2732	-0.0493
183.4916	0.0934
183.71	0.0159
183.9284	0.1305
184.1467	-0.1341
184.3651	0.0399
184.5835	-0.0305
184.8018	-0.2459
185.0201	0.1429
185.2385	-0.039
185.4568	0.2818
185.6751	0.1933
185.8934	0.2752
186.1117	0.0958
186.3299	0.1163
186.5482	0.0676
186.7664	-0.1235
186.9847	0.0431
187.2029	0.0593
187.4211	0.0684
187.6393	0.1576
187.8575	-0.0287
188.0757	0.2215
188.2939	0.2407
188.512	0.0886
188.7302	0.0059
188.9483	0.1692
189.1665	0.0803
189.3846	-0.0125
189.6027	0.181
189.8208	0.2187
190.0389	0.1238
190.257	-0.0059
190.475	0.1292
190.6931	0.3556
190.9111	0.4849
191.1292	0.1303
191.3472	0.4125
191.5652	0.3757
191.7832	0.1616
192.0012	0.3364
192.2192	0.4278
192.4371	0.5746
192.6551	0.2885
192.873	0.3939
193.091	0.3889
193.3089	0.4261
193.5268	0.8257
193.7447	0.5454
193.9626	0.4746
194.1805	0.7009
194.3984	0.657
194.6162	0.5189
194.8341	0.4865
195.0519	0.5224
195.2697	0.7177
195.4875	0.6982
195.7054	0.4694
195.9231	0.6057
196.1409	0.4969
196.3587	0.6215
196.5765	0.6315
196.7942	0.489
197.012	0.5899
197.2297	0.4918
197.4474	0.647
197.6651	0.5743
197.8828	0.4924
198.1005	0.5401
198.3182	0.6179
198.5358	0.753
198.7535	0.5254
198.9711	0.5469
199.1888	0.5557
199.4064	0.8266
199.624	0.5053
199.8416	0.5795
200.0592	0.5474
200.2767	0.5792
200.4943	0.7563
200.7119	0.7815
200.9294	0.6155
201.1469	0.5713
201.3645	0.6468
201.582	0.593
201.7995	0.646
202.017	0.5344
202.2344	0.5972
202.4519	0.6717
202.6694	0.6186
202.8868	0.6586
203.1042	0.7721
203.3217	0.7321
203.5391	0.6856
203.7565	0.5061
203.9739	0.626
204.1913	0.5417
204.4086	0.7092
204.626	0.6267
204.8433	0.6149
205.0607	0.6138
205.278	0.596
205.4953	0.5107
205.7126	0.6897
205.9299	0.7593
206.1472	0.6941
206.3644	0.6386
206.5817	0.6622
206.7989	0.7133
207.0162	0.6512
207.2334	0.7256
207.4506	0.5757
207.6678	0.6388
207.885	0.6587
208.1022	0.6577
208.3194	0.6694
208.5365	0.6007
208.7537	0.596
208.9708	0.5762
209.1879	0.6482
209.405	0.7044
209.6222	0.6845
209.8392	0.6096
210.0563	0.59
210.2734	0.6501
210.4905	0.6347
210.7075	0.6551
210.9245	0.5865
211.1416	0.7191
211.3586	0.6661
211.5756	0.6256
211.7926	0.6424
212.0096	0.5584
212.2265	0.5431
212.4435	0.5107
212.6604	0.5586
212.8774	0.6077
213.0943	0.5701
213.3112	0.5508
213.5281	0.5153
213.745	0.4941
213.9619	0.5206
214.1788	0.4995
214.3956	0.4703
214.6125	0.4683
214.8293	0.4619
215.0461	0.486
215.2629	0.4656
215.4798	0.4749
215.6965	0.4406
215.9133	0.4386
216.1301	0.4058
216.3469	0.4157
216.5636	0.3965
216.7803	0.4235
216.9971	0.3763
217.2138	0.3658
217.4305	0.3806
217.6472	0.3582
217.8639	0.3873
218.0805	0.372
218.2972	0.3298
218.5138	0.3146
218.7305	0.3153
218.9471	0.3143
219.1637	0.2842
219.3803	0.2995
219.5969	0.2996
219.8135	0.2389
220.0301	0.2625
220.2466	0.273
220.4632	0.2681
220.6797	0.2252
220.8962	0.242
221.1127	0.2613
221.3292	0.253
221.5457	0.2486
221.7622	0.2234
221.9787	0.2576
222.1951	0.2483
222.4116	0.2506
222.628	0.2255
222.8444	0.2549
223.0608	0.2395
223.2772	0.2248
223.4936	0.261
223.71	0.2498
223.9264	0.27
224.1427	0.2386
224.3591	0.2551
224.5754	0.2813
224.7917	0.2659
225.008	0.2748
225.2243	0.2615
225.4406	0.2747
225.6569	0.2682
225.8732	0.2533
226.0894	0.2576
226.3057	0.2554
226.5219	0.2671
226.7381	0.2686
226.9543	0.2702
227.1705	0.2715
227.3867	0.2577
227.6029	0.3051
227.8191	0.2898
228.0352	0.2965
228.2513	0.3065
228.4675	0.3189
228.6836	0.3106
228.8997	0.2908
229.1158	0.315
229.3319	0.2981
229.548	0.2912
229.764	0.3177
229.9801	0.3242
230.1961	0.3283
230.4121	0.3371
230.6282	0.3199
230.8442	0.3093
231.0602	0.3533
231.2761	0.3452
231.4921	0.3356
231.7081	0.3551
231.924	0.3471
232.14	0.3575
232.3559	0.3519
232.5718	0.3434
232.7877	0.3441
233.0036	0.34
233.2195	0.3616
233.4353	0.3696
233.6512	0.3634
233.867	0.3729
234.0829	0.3673
234.2987	0.3687
234.5145	0.3734
234.7303	0.3685
234.9461	0.3856
235.1619	0.3747
235.3776	0.3647
235.5934	0.3807
235.8091	0.3466
236.0249	0.3913
236.2406	0.3724
236.4563	0.3706
236.672	0.3954
236.8877	0.3904
237.1034	0.3951
237.319	0.3917
237.5347	0.4111
237.7503	0.3756
237.966	0.3974
238.1816	0.3999
238.3972	0.4155
238.6128	0.3942
238.8284	0.3965
239.0439	0.4087
239.2595	0.3703
239.475	0.3996
239.6906	0.4036
239.9061	0.4037
240.1216	0.4047
240.3371	0.3979
240.5526	0.4005
240.7681	0.4004
240.9836	0.3686
241.199	0.3927
241.4145	0.3795
241.6299	0.3764
241.8453	0.3784
242.0607	0.3613
242.2761	0.3469
242.4915	0.3482
242.7069	0.3578
242.9223	0.3409
243.1376	0.3383
243.353	0.3278
243.5683	0.3333
243.7836	0.3227
243.9989	0.3146
244.2142	0.3048
244.4295	0.2948
244.6448	0.2818
244.86	0.2928
245.0753	0.2639
245.2905	0.282
245.5057	0.2673
245.721	0.2675
245.9362	0.2516
246.1514	0.2703
246.3665	0.2328
246.5817	0.249
246.7969	0.2508
247.012	0.2354
247.2271	0.2241
247.4423	0.2375
247.6574	0.2237
247.8725	0.2224
248.0876	0.2248
248.3026	0.2133
248.5177	0.2034
248.7328	0.2058
248.9478	0.2062
249.1628	0.2079
249.3779	0.193
249.5929	0.1956
249.8079	0.1983
250.0228	0.1858
250.2378	0.1919
250.4528	0.2028
250.6677	0.1739
250.8827	0.1868
251.0976	0.1842
251.3125	0.1856
251.5274	0.1644
251.7423	0.1706
251.9572	0.172
252.172	0.1867
252.3869	0.1688
252.6017	0.1763
252.8166	0.1635
253.0314	0.1656
253.2462	0.1622
253.461	0.1774
253.6758	0.1705
253.8906	0.1745
254.1053	0.166
254.3201	0.166
254.5348	0.1652
254.7496	0.1671
254.9643	0.1616
255.179	0.1702
255.3937	0.17
255.6083	0.176
255.823	0.1751
256.0377	0.1594
256.2523	0.1653
256.467	0.158
256.6816	0.1819
256.8962	0.1602
257.1108	0.1501
257.3254	0.1691
257.54	0.1463
257.7545	0.1713
257.9691	0.1674
258.1836	0.1709
258.3981	0.165
258.6127	0.1665
258.8272	0.1662
259.0417	0.1587
259.2561	0.1606
259.4706	0.1675
259.6851	0.1656
259.8995	0.1672
260.114	0.1571
260.3284	0.1547
260.5428	0.1534
260.7572	0.1658
260.9716	0.1593
261.186	0.1532
261.4003	0.1475
261.6147	0.1746
261.829	0.159
262.0433	0.1494
262.2577	0.1496
262.472	0.1657
262.6863	0.1563
262.9005	0.1605
263.1148	0.1617
263.3291	0.1437
263.5433	0.154
263.7576	0.1602
263.9718	0.1581
264.186	0.1588
264.4002	0.1601
264.6144	0.1519
264.8286	0.1627
265.0427	0.1592
265.2569	0.1558
265.471	0.1529
265.6851	0.1596
265.8993	0.1554
266.1134	0.1555
266.3275	0.1578
266.5415	0.1561
266.7556	0.1547
266.9697	0.1579
267.1837	0.1574
267.3978	0.1515
267.6118	0.1628
267.8258	0.166
268.0398	0.1454
268.2538	0.1563
268.4677	0.1576
268.6817	0.1421
268.8957	0.1415
269.1096	0.1549
269.3235	0.144
269.5374	0.1395
269.7514	0.1502
269.9652	0.1364
270.1791	0.1436
270.393	0.1392
270.6068	0.1545
270.8207	0.1446
271.0345	0.1393
271.2483	0.1446
271.4622	0.1366
271.676	0.1399
271.8897	0.1262
272.1035	0.1427
272.3173	0.1324
272.531	0.1306
272.7448	0.14
272.9585	0.118
273.1722	0.1289
273.3859	0.1476
273.5996	0.1314
273.8133	0.1343
274.0269	0.1311
274.2406	0.1165
274.4542	0.1361
274.6679	0.133
274.8815	0.132
275.0951	0.1333
275.3087	0.1378
275.5223	0.1361
275.7358	0.1388
275.9494	0.1425
276.1629	0.1248
276.3765	0.1258
276.59	0.1269
276.8035	0.142
277.017	0.1338
277.2305	0.1268
277.444	0.1339
277.6574	0.1326
277.8709	0.1263
278.0843	0.1167
278.2978	0.1269
278.5112	0.1324
278.7246	0.1418
278.938	0.1499
279.1513	0.141
279.3647	0.1447
279.5781	0.1291
279.7914	0.1357
280.0047	0.1512
280.2181	0.1395
280.4314	0.1497
280.6447	0.146
280.8579	0.1422
281.0712	0.139
281.2845	0.1561
281.4977	0.1314
281.711	0.136
281.9242	0.1405
282.1374	0.1398
282.3506	0.1388
282.5638	0.15
282.7769	0.1426
282.9901	0.15
283.2033	0.1512
283.4164	0.1564
283.6295	0.1366
283.8426	0.1461
284.0557	0.1473
284.2688	0.1605
284.4819	0.148
284.695	0.1423
284.908	0.1683
285.1211	0.1613
285.3341	0.1401
285.5471	0.1589
285.7601	0.1467
285.9731	0.1461
286.1861	0.1551
286.3991	0.1586
286.612	0.1494
286.825	0.1469
287.0379	0.1599
287.2508	0.1485
287.4637	0.154
287.6766	0.1563
287.8895	0.1624
288.1024	0.1721
288.3152	0.1684
288.5281	0.1628
288.7409	0.1532
288.9538	0.164
289.1666	0.1608
289.3794	0.1585
289.5922	0.153
289.8049	0.1581
290.0177	0.1459
290.2304	0.1569
290.4432	0.1618
290.6559	0.156
290.8686	0.1678
291.0813	0.172
291.294	0.1702
291.5067	0.1812
291.7194	0.1722
291.932	0.1682
292.1447	0.1604
292.3573	0.1573
292.5699	0.1639
292.7825	0.1663
292.9951	0.1608
293.2077	0.1603
293.4203	0.1709
293.6328	0.1584
293.8454	0.1785
294.0579	0.1738
294.2704	0.1734
294.4829	0.1596
294.6954	0.1633
294.9079	0.1716
295.1204	0.1695
295.3328	0.1661
295.5453	0.1653
295.7577	0.168
295.9701	0.1538
296.1825	0.1677
296.3949	0.154
296.6073	0.1736
296.8197	0.1593
297.0321	0.1692
297.2444	0.1506
297.4567	0.1684
297.6691	0.1586
297.8814	0.1643
298.0937	0.1753
298.306	0.1697
298.5182	0.172
298.7305	0.1714
298.9428	0.1612
299.155	0.1768
299.3672	0.1555
299.5794	0.1556
299.7916	0.1587
300.0038	0.1651
300.216	0.1671
300.4282	0.1805
300.6403	0.1622
300.8525	0.1669
301.0646	0.1604
301.2767	0.1715
301.4888	0.1584
301.7009	0.1598
301.913	0.1751
302.125	0.1742
302.3371	0.1572
302.5491	0.1678
302.7612	0.1695
302.9732	0.1641
303.1852	0.175
303.3972	0.1638
303.6092	0.1666
303.8211	0.1581
304.0331	0.1576
304.245	0.1568
304.457	0.1614
304.6689	0.1582
304.8808	0.1787
305.0927	0.157
305.3046	0.1496
305.5164	0.1514
305.7283	0.1424
305.9401	0.1496
306.152	0.1518
306.3638	0.1611
306.5756	0.1483
306.7874	0.1388
306.9992	0.1511
307.2109	0.1373
307.4227	0.1368
307.6344	0.1409
307.8462	0.1461
308.0579	0.1399
308.2696	0.1353
308.4813	0.1362
308.693	0.1257
308.9046	0.1358
309.1163	0.1315
309.328	0.1237
309.5396	0.1266
309.7512	0.1205
309.9628	0.1225
310.1744	0.1256
310.386	0.1207
310.5976	0.1152
310.8091	0.1155
311.0207	0.1032
311.2322	0.1154
311.4437	0.1151
311.6552	0.104
311.8667	0.1082
312.0782	0.0914
312.2897	0.0964
312.5012	0.1032
312.7126	0.1004
312.924	0.092
313.1355	0.1139
313.3469	0.1004
313.5583	0.1072
313.7696	0.1154
313.981	0.1059
314.1924	0.0901
314.4037	0.1014
314.6151	0.1024
314.8264	0.0838
315.0377	0.1021
315.249	0.1062
315.4603	0.1074
315.6716	0.0908
315.8828	0.0927
316.0941	0.0873
316.3053	0.0924
316.5165	0.0884
316.7277	0.0812
316.9389	0.101
317.1501	0.0972
317.3613	0.0998
317.5724	0.0815
317.7836	0.1034
317.9947	0.084
318.2058	0.0942
318.417	0.0859
318.6281	0.0788
318.8391	0.0908
319.0502	0.0946
319.2613	0.0823
319.4723	0.0854
319.6834	0.0957
319.8944	0.0817
320.1054	0.0956
320.3164	0.0943
320.5274	0.079
320.7383	0.1004
320.9493	0.0857
321.1602	0.0945
321.3712	0.0865
321.5821	0.0961
321.793	0.0918
322.0039	0.0938
322.2148	0.0826
322.4257	0.0907
322.6365	0.105
322.8474	0.0911
323.0582	0.0871
323.269	0.0941
323.4798	0.0939
323.6906	0.0831
323.9014	0.0962
324.1122	0.0916
324.3229	0.085
324.5337	0.0952
324.7444	0.0853
324.9551	0.0953
325.1658	0.0934
325.3765	0.099
325.5872	0.0892
325.7979	0.0854
326.0085	0.0922
326.2192	0.096
326.4298	0.0996
326.6404	0.0882
326.851	0.0907
327.0616	0.0815
327.2722	0.0946
327.4828	0.0838
327.6933	0.0973
327.9039	0.0993
328.1144	0.105
328.3249	0.1046
328.5354	0.0917
328.7459	0.0887
328.9564	0.0754
329.1669	0.0905
329.3773	0.0904
329.5878	0.0899
329.7982	0.0876
330.0086	0.094
330.219	0.0943
330.4294	0.0933
330.6398	0.0902
330.8502	0.1008
331.0605	0.0867
331.2708	0.0908
331.4812	0.0994
331.6915	0.1004
331.9018	0.0913
332.1121	0.1011
332.3224	0.1019
332.5326	0.1026
332.7429	0.0943
332.9531	0.1072
333.1633	0.1021
333.3735	0.0972
333.5837	0.0959
333.7939	0.1004
334.0041	0.0956
334.2143	0.1019
334.4244	0.0906
334.6346	0.0906
334.8447	0.0951
335.0548	0.0976
335.2649	0.0935
335.475	0.1067
335.685	0.0944
335.8951	0.1074
336.1051	0.1035
336.3152	0.1115
336.5252	0.0926
336.7352	0.1111
336.9452	0.1073
337.1552	0.1042
337.3652	0.1079
337.5751	0.1089
337.7851	0.0963
337.995	0.0812
338.2049	0.0955
338.4148	0.0975
338.6247	0.113
338.8346	0.1012
339.0445	0.0987
339.2543	0.1087
339.4642	0.1118
339.674	0.0901
339.8838	0.098
340.0936	0.1101
340.3034	0.1115
340.5132	0.1213
340.7229	0.1019
340.9327	0.1048
341.1424	0.1031
341.3522	0.1096
341.5619	0.1063
341.7716	0.1044
341.9813	0.1153
342.1909	0.1213
342.4006	0.1105
342.6102	0.114
342.8199	0.1194
343.0295	0.1058
343.2391	0.1133
343.4487	0.1193
343.6583	0.1033
343.8679	0.1071
344.0774	0.1155
344.287	0.1169
344.4965	0.0988
344.706	0.1238
344.9155	0.1113
345.125	0.1058
345.3345	0.1186
345.544	0.1134
345.7534	0.1106
345.9629	0.114
346.1723	0.111
346.3817	0.1195
346.5911	0.1182
346.8005	0.1167
347.0099	0.1256
347.2193	0.122
347.4286	0.1137
347.638	0.1344
347.8473	0.1305
348.0566	0.1308
348.2659	0.125
348.4752	0.122
348.6845	0.1218
348.8937	0.1193
349.103	0.1356
349.3122	0.1151
349.5214	0.1294
349.7306	0.1317
349.9398	0.1312
350.149	0.1293
350.3582	0.1237
350.5674	0.1407
350.7765	0.1342
350.9856	0.1271
351.1948	0.1393
351.4039	0.1308
351.613	0.1312
351.822	0.1353
352.0311	0.1338
352.2402	0.1377
352.4492	0.1518
352.6582	0.1292
352.8672	0.1421
353.0762	0.1449
353.2852	0.1433
353.4942	0.1433
353.7032	0.146
353.9121	0.1429
354.1211	0.1589
354.33	0.138
354.5389	0.148
354.7478	0.1419
354.9567	0.1435
355.1655	0.1378
355.3744	0.1386
355.5833	0.1573
355.7921	0.1679
356.0009	0.1605
356.2097	0.176
356.4185	0.1659
356.6273	0.1575
356.8361	0.1611
357.0448	0.1446
357.2536	0.154
357.4623	0.1547
357.671	0.1613
357.8797	0.1681
358.0884	0.1625
358.2971	0.1438
358.5057	0.1599
358.7144	0.1731
358.923	0.157
359.1316	0.163
359.3402	0.169
359.5488	0.1529
359.7574	0.1664
359.966	0.1838
360.1746	0.174
360.3831	0.1945
360.5916	0.1594
360.8002	0.1655
361.0087	0.1749
361.2172	0.1765
361.4256	0.1871
361.6341	0.1964
361.8426	0.1807
362.051	0.1815
362.2594	0.1891
362.4678	0.184
362.6762	0.2011
362.8846	0.195
363.093	0.1903
363.3014	0.1845
363.5097	0.1789
363.718	0.184
363.9264	0.176
364.1347	0.1674
364.343	0.1931
364.5513	0.2093
364.7595	0.1994
364.9678	0.1874
365.176	0.1982
365.3842	0.2073
365.5925	0.1927
365.8007	0.2056
366.0089	0.203
366.217	0.1866
366.4252	0.2096
366.6333	0.2029
366.8415	0.2006
367.0496	0.1871
367.2577	0.2205
367.4658	0.2227
367.6739	0.2141
367.882	0.2083
368.09	0.2026
368.2981	0.2201
368.5061	0.206
368.7141	0.2223
368.9221	0.2259
369.1301	0.2125
369.3381	0.209
369.5461	0.2031
369.754	0.2281
369.962	0.2208
370.1699	0.2331
370.3778	0.235
370.5857	0.204
370.7936	0.2166
371.0015	0.2416
371.2093	0.2251
371.4172	0.2435
371.625	0.2248
371.8328	0.2308
372.0406	0.236
372.2484	0.2163
372.4562	0.2284
372.664	0.2217
372.8717	0.2427
373.0795	0.2252
373.2872	0.2339
373.4949	0.2324
373.7026	0.2398
373.9103	0.2554
374.118	0.2433
374.3256	0.2557
374.5333	0.2419
374.7409	0.2368
374.9485	0.25
375.1561	0.251
375.3637	0.2366
375.5713	0.2434
375.7789	0.2504
375.9864	0.2467
376.194	0.2278
376.4015	0.2397
376.609	0.2525
376.8165	0.2481
377.024	0.263
377.2315	0.2522
377.4389	0.2659
377.6464	0.2515
377.8538	0.2318
378.0612	0.2584
378.2686	0.2482
378.476	0.2831
378.6834	0.2629
378.8908	0.2572
379.0981	0.262
379.3055	0.2615
379.5128	0.2499
379.7201	0.2612
379.9274	0.2481
380.1347	0.2706
380.342	0.2886
380.5492	0.2426
380.7565	0.2603
380.9637	0.2706
381.1709	0.2578
381.3781	0.2675
381.5853	0.2702
381.7925	0.2707
381.9997	0.2688
382.2068	0.2741
382.4139	0.2967
382.6211	0.2572
382.8282	0.2468
383.0353	0.2656
383.2424	0.2634
383.4494	0.2716
383.6565	0.254
383.8635	0.2759
384.0706	0.2793
384.2776	0.2773
384.4846	0.2537
384.6916	0.2724
384.8986	0.2672
385.1055	0.2713
385.3125	0.267
385.5194	0.2524
385.7263	0.2955
385.9333	0.2849
386.1402	0.2965
386.347	0.2696
386.5539	0.2616
386.7608	0.2936
386.9676	0.2427
387.1744	0.2739
387.3813	0.2749
387.5881	0.2827
387.7948	0.2615
388.0016	0.287
388.2084	0.2746
388.4151	0.2721
388.6219	0.2791
388.8286	0.26
389.0353	0.2976
389.242	0.2732
389.4487	0.2506
389.6553	0.2618
389.862	0.2429
390.0686	0.2706
390.2753	0.2784
390.4819	0.2512
390.6885	0.2468
390.8951	0.2518
391.1016	0.2456
391.3082	0.2523
391.5147	0.2704
391.7213	0.262
391.9278	0.2476
392.1343	0.2521
392.3408	0.2729
392.5473	0.2573
392.7537	0.2395
392.9602	0.2468
393.1666	0.2539
393.373	0.2546
393.5794	0.2577
393.7858	0.232
393.9922	0.2259
394.1986	0.2555
394.4049	0.2494
394.6113	0.2373
394.8176	0.2322
395.0239	0.238
395.2302	0.2248
395.4365	0.234
395.6428	0.2285
395.8491	0.225
396.0553	0.2375
396.2615	0.237
396.4678	0.2159
396.674	0.2285
396.8802	0.2425
397.0863	0.2374
397.2925	0.2162
397.4987	0.2275
397.7048	0.2217
397.9109	0.2251
398.117	0.2308
398.3231	0.2282
398.5292	0.235
398.7353	0.2271
398.9413	0.2305
399.1474	0.2351
399.3534	0.219
399.5594	0.2104
399.7654	0.2296
399.9714	0.233
400.1774	0.2212
400.3833	0.2214
400.5893	0.2283
400.7952	0.2288
401.0011	0.2509
401.207	0.2466
401.4129	0.2305
401.6188	0.2456
401.8247	0.2378
402.0305	0.2296
402.2364	0.2276
402.4422	0.2264
402.648	0.2241
402.8538	0.2492
403.0596	0.2201
403.2654	0.2402
403.4711	0.2149
403.6768	0.2349
403.8826	0.219
404.0883	0.2266
404.294	0.2217
404.4997	0.2136
404.7054	0.2458
404.911	0.2133
405.1167	0.2239
405.3223	0.2309
405.5279	0.2256
405.7335	0.2272
405.9391	0.2308
406.1447	0.2171
406.3502	0.239
406.5558	0.2244
406.7613	0.2298
406.9668	0.2329
407.1724	0.2361
407.3778	0.2127
407.5833	0.2245
407.7888	0.2158
407.9942	0.247
408.1997	0.2137
408.4051	0.2185
408.6105	0.246
408.8159	0.2254
409.0213	0.2276
409.2267	0.236
409.432	0.2257
409.6374	0.2394
409.8427	0.2285
410.048	0.2163
410.2533	0.2447
410.4586	0.2228
410.6639	0.2181
410.8691	0.2065
411.0744	0.2182
411.2796	0.2135
411.4848	0.2213
411.69	0.221
411.8952	0.2502
412.1004	0.2103
412.3056	0.2323
412.5107	0.2223
412.7158	0.2341
412.921	0.2246
413.1261	0.2399
413.3312	0.2178
413.5362	0.2218
413.7413	0.2273
413.9464	0.2307
414.1514	0.2217
414.3564	0.2134
414.5614	0.1904
414.7664	0.2025
414.9714	0.2392
415.1764	0.2312
415.3813	0.2349
415.5863	0.2256
415.7912	0.2406
415.9961	0.2152
416.201	0.2323
416.4059	0.2182
416.6108	0.2163
416.8156	0.2235
417.0205	0.2252
417.2253	0.2053
417.4301	0.2263
417.6349	0.2238
417.8397	0.2107
418.0445	0.2142
418.2492	0.2222
418.454	0.2179
418.6587	0.2083
418.8634	0.2147
419.0681	0.2216
419.2728	0.2042
419.4775	0.2091
419.6822	0.2023
419.8868	0.1758
420.0915	0.2092
420.2961	0.2067
420.5007	0.1978
420.7053	0.21
420.9099	0.2209
421.1144	0.2172
421.319	0.1989
421.5235	0.2045
421.728	0.2092
421.9325	0.1901
422.137	0.2072
422.3415	0.2172
422.546	0.2237
422.7504	0.2082
422.9549	0.1918
423.1593	0.2127
423.3637	0.2081
423.5681	0.204
423.7725	0.1876
423.9769	0.1762
424.1812	0.1989
424.3856	0.193
424.5899	0.1902
424.7942	0.1909
424.9985	0.1807
425.2028	0.1886
425.4071	0.201
425.6113	0.1584
425.8156	0.1925
426.0198	0.1975
426.224	0.1896
426.4282	0.1709
426.6324	0.1784
426.8366	0.1779
427.0407	0.1892
427.2449	0.1739
427.449	0.172
427.6531	0.155
427.8572	0.1724
428.0613	0.1763
428.2654	0.1723
428.4694	0.1744
428.6735	0.153
428.8775	0.1848
429.0815	0.1891
429.2855	0.1598
429.4895	0.1902
429.6935	0.1717
429.8975	0.1613
430.1014	0.1726
430.3053	0.1387
430.5093	0.159
430.7132	0.1401
430.9171	0.1553
431.1209	0.1517
431.3248	0.1421
431.5286	0.1631
431.7325	0.1494
431.9363	0.1494
432.1401	0.1412
432.3439	0.1495
432.5477	0.1194
432.7514	0.1324
432.9552	0.1398
433.1589	0.135
433.3627	0.1224
433.5664	0.1254
433.7701	0.1122
433.9737	0.1224
434.1774	0.1069
434.3811	0.126
434.5847	0.1291
434.7883	0.126
434.9919	0.1035
435.1955	0.1226
435.3991	0.1317
435.6027	0.1213
435.8062	0.1086
436.0098	0.1032
436.2133	0.1069
436.4168	0.103
436.6203	0.1049
436.8238	0.1094
437.0272	0.1016
437.2307	0.1024
437.4341	0.1026
437.6375	0.1158
437.841	0.1012
438.0443	0.1207
438.2477	0.102
438.4511	0.0972
438.6545	0.084
438.8578	0.1032
439.0611	0.0828
439.2644	0.0909
439.4677	0.0782
439.671	0.0878
439.8743	0.093
440.0775	0.0915
440.2808	0.0761
440.484	0.0742
440.6872	0.0631
440.8904	0.0682
441.0936	0.0783
441.2967	0.084
441.4999	0.0842
441.703	0.0649
441.9062	0.0712
442.1093	0.0694
442.3124	0.0803
442.5155	0.0586
442.7185	0.0562
442.9216	0.0435
443.1246	0.0737
443.3276	0.0607
443.5307	0.0608
443.7337	0.0671
443.9366	0.061
444.1396	0.0764
444.3426	0.0536
444.5455	0.0611
444.7484	0.0471
444.9513	0.0532
445.1542	0.0562
445.3571	0.0434
445.56	0.054
445.7628	0.0385
445.9657	0.04
446.1685	0.0634
446.3713	0.0549
446.5741	0.0319
446.7769	0.0321
446.9797	0.0376
447.1824	0.0407
447.3852	0.0322
447.5879	0.0483
447.7906	0.0451
447.9933	0.0453
448.196	0.0252
448.3986	0.0345
448.6013	0.0325
448.8039	0.0189
449.0066	0.0269
449.2092	0.0478
449.4118	0.0319
449.6143	0.0404
449.8169	0.0411
450.0195	0.0285
450.222	0.0079
450.4245	0.0179
450.627	0.0374
450.8295	0.0229
451.032	0.0123
451.2345	0.0258
451.4369	0.0268
451.6394	0.0219
451.8418	-0.0096
452.0442	-0.0031
452.2466	0.0187
452.449	0.0077
452.6513	0.0246
452.8537	0.0098
453.056	0.0102
453.2583	0.0269
453.4607	0.0111
453.663	0.0278
453.8652	0.0363
454.0675	0.0014
454.2697	0.0174
454.472	-0.0108
454.6742	0.0194
454.8764	0.0152
455.0786	0.025
455.2808	0.0021
455.4829	0.0103
455.6851	0.023
455.8872	0.0272
456.0893	0.0216
456.2915	-0.0057
456.4935	0.0127
456.6956	0.0024
456.8977	0.0038
457.0997	0.0209
457.3018	0.0073
457.5038	0.0087
457.7058	0.004
457.9078	-0.0046
458.1098	0.0197
458.3117	0.0248
458.5137	0.0104
458.7156	0.0224
458.9175	-0.0084
459.1194	0.0077
459.3213	0.0234
459.5232	0.0061
459.725	-0.015
459.9269	-0.0013
460.1287	0.0016
460.3305	0.0028
460.5323	0.0096
460.7341	0.006
460.9359	0.006
461.1376	0.0094
461.3394	0.0051
461.5411	0.0157
461.7428	0.0033
461.9445	0.0218
462.1462	0.0232
462.3479	0.0002
462.5495	0.0067
462.7512	-0.0047
462.9528	-0.0128
463.1544	-0.0068
463.356	-0.0031
463.5576	-0.0008
463.7592	-0.0032
463.9607	0.0175
464.1623	0.0144
464.3638	0.0084
464.5653	-0.0108
464.7668	-0.004
464.9683	0.0056
465.1697	0.0298
465.3712	-0.0051
465.5726	-0.0102
465.7741	-0.0025
465.9755	-0.0034
466.1769	-0.0095
466.3782	-0.0127
466.5796	-0.0239
466.7809	0.0097
466.9823	-0.0127
467.1836	-0.0091
467.3849	-0.0067
467.5862	-0.0016
467.7875	-0.0107
467.9887	0.0065
468.19	0.0047
468.3912	-0.0176
468.5924	-0.0075
468.7936	-0.0126
468.9948	-0.0162
469.196	-0.0027
469.3972	-0.0092
469.5983	-0.0034
469.7994	-0.0107
470.0006	-0.0091
470.2017	-0.0322
470.4027	-0.023
470.6038	0.0002
470.8049	-0.0263
471.0059	-0.0035
471.2069	-0.0306
471.408	0.0077
471.6089	0.0002
471.8099	-0.0083
472.0109	-0.0028
472.2119	-0.0123
472.4128	-0.023
472.6137	-0.0071
472.8146	-0.0199
473.0155	0.0003
473.2164	0.0004
473.4173	0.0079
473.6181	0.0041
473.819	-0.0023
474.0198	0.0005
474.2206	-0.0224
474.4214	-0.0102
474.6222	-0.0081
474.8229	-0.0092
475.0237	-0.0156
475.2244	-0.0127
475.4251	-0.0023
475.6258	-0.0071
475.8265	-0.0146
476.0272	0.0022
476.2278	-0.0067
476.4285	-0.0106
476.6291	-0.0265
476.8297	-0.0051
477.0303	-0.0096
477.2309	0.0012
477.4315	-0.0084
477.632	-0.0043
477.8326	-0.0065
478.0331	-0.0041
478.2336	0.0039
478.4341	0.0021
478.6346	-0.0158
478.8351	-0.0085
479.0355	-0.018
479.236	-0.0084
479.4364	-0.0084
479.6368	-0.0078
479.8372	-0.003
480.0376	-0.0051
480.2379	-0.0223
480.4383	-0.0219
480.6386	-0.0049
480.8389	0.0022
481.0392	-0.017
481.2395	-0.0245
481.4398	0.0078
481.6401	0.0066
481.8403	-0.0031
482.0405	-0.0052
482.2408	-0.0139
482.441	0.0049
482.6411	-0.0035
482.8413	-0.0118
483.0415	-0.0093
483.2416	-0.0094
483.4417	-0.0015
483.6419	-0.0123
483.8419	0.0006
484.042	-0.0049
484.2421	-0.0038
484.4422	-0.0097
484.6422	-0.0078
484.8422	-0.007
485.0422	-0.0089
485.2422	-0.0005
485.4422	-0.0122
485.6422	-0.0183
485.8421	-0.0146
486.042	-0.0092
486.242	-0.0178
486.4419	-0.0081
486.6417	-0.0131
486.8416	-0.0078
487.0415	-0.0078
487.2413	-0.0086
487.4411	-0.002
487.641	-0.0174
487.8408	0.0012
488.0405	-0.0044
488.2403	-0.0113
488.4401	0.002
488.6398	0.0004
488.8395	-0.0155
489.0392	0.0001
489.2389	-0.0145
489.4386	-0.0143
489.6383	-0.0148
489.8379	-0.0045
490.0376	-0.0129
490.2372	-0.0185
490.4368	-0.0097
490.6364	-0.0179
490.836	-0.0158
491.0355	-0.0072
491.2351	-0.0154
491.4346	-0.0152
491.6341	-0.0137
491.8336	-0.002
492.0331	-0.0209
492.2326	-0.0128
492.432	-0.009
492.6315	-0.013
492.8309	-0.0148
493.0303	-0.0297
493.2297	-0.0136
493.4291	-0.0045
493.6284	-0.0036
493.8278	-0.0028
494.0271	-0.0064
494.2264	0.0008
494.4257	-0.0259
494.625	-0.0034
494.8243	-0.0222
495.0236	-0.0202
495.2228	-0.0168
495.422	-0.0013
495.6213	-0.0103
495.8205	-0.0058
496.0196	-0.0061
496.2188	0.0066
496.418	-0.0132
496.6171	-0.009
496.8162	-0.013
497.0153	-0.0093
497.2144	-0.0142
497.4135	-0.0122
497.6126	-0.0268
497.8116	-0.0154
498.0107	0.0042
498.2097	-0.0164
498.4087	-0.0084
498.6077	-0.0125
498.8067	-0.0125
499.0056	-0.0014
499.2046	-0.0085
499.4035	-0.0151
499.6024	-0.0074
499.8013	-0.0064
500.0002	-0.0074
500.199	-0.0135
500.3979	-0.0072
500.5967	-0.0321
500.7956	-0.0029
500.9944	-0.0128
501.1932	-0.0135
501.3919	-0.01
501.5907	-0.018
501.7895	-0.0142
501.9882	-0.0103
502.1869	-0.016
502.3856	-0.0083
502.5843	-0.0157
502.783	-0.0121
502.9816	-0.0086
503.1803	-0.0162
503.3789	-0.0155
503.5775	0.0004
503.7761	-0.0133
503.9747	-0.0079
504.1732	-0.0143
504.3718	-0.0124
504.5703	-0.0108
504.7689	-0.0127
504.9674	-0.0123
505.1658	-0.0073
505.3643	-0.0078
505.5628	-0.0099
505.7612	-0.0109
505.9597	-0.0099
506.1581	-0.0167
506.3565	-0.0007
506.5549	-0.014
506.7532	-0.0212
506.9516	-0.0095
507.1499	-0.0137
507.3482	-0.0185
507.5465	-0.0204
507.7448	-0.0077
507.9431	-0.0167
508.1414	0.0027
508.3396	-0.0109
508.5379	-0.0121
508.7361	-0.0204
508.9343	-0.0082
509.1325	0.0013
509.3306	-0.0131
509.5288	-0.015
509.7269	-0.0115
509.9251	-0.0057
510.1232	-0.0173
510.3213	-0.0054
510.5193	-0.0002
510.7174	-0.02
510.9154	-0.019
511.1135	-0.015
511.3115	-0.0028
511.5095	-0.0043
511.7075	-0.0183
511.9055	-0.0069
512.1034	-0.0166
512.3014	-0.0077
512.4993	-0.0063
512.6972	-0.0155
512.8951	-0.0197
513.093	-0.0122
513.2908	-0.0101
513.4887	-0.0074
513.6865	-0.0161
513.8844	-0.0109
514.0822	-0.0193
514.2799	-0.0174
514.4777	-0.0142
514.6755	-0.0026
514.8732	-0.0154
515.0709	-0.0065
515.2687	-0.0226
515.4664	-0.0109
515.664	-0.0034
515.8617	-0.0104
516.0594	-0.0198
516.257	-0.0077
516.4546	-0.024
516.6522	-0.0043
516.8498	-0.0108
517.0474	0.0001
517.2449	-0.0069
517.4425	-0.0174
517.64	-0.0128
517.8375	-0.0091
518.035	-0.007
518.2325	-0.0132
518.43	-0.0105
518.6274	-0.011
518.8249	-0.0192
519.0223	-0.0038
519.2197	-0.0076
519.4171	-0.0135
519.6145	-0.0162
519.8118	-0.0045
520.0092	-0.0126
520.2065	-0.0142
520.4038	-0.0238
520.6011	-0.0121
520.7984	-0.0131
520.9956	-0.0137
521.1929	-0.014
521.3901	-0.0038
521.5874	-0.0026
521.7846	-0.0136
521.9818	-0.0095
522.1789	-0.0185
522.3761	-0.0121
522.5732	-0.0137
522.7704	-0.0094
522.9675	-0.0081
523.1646	-0.0169
523.3617	-0.0104
523.5587	-0.01
523.7558	-0.0029
523.9528	-0.0208
524.1498	-0.0034
524.3468	-0.0093
524.5438	-0.011
524.7408	-0.0122
524.9378	0.003
525.1347	-0.0099
525.3316	0.0005
525.5285	-0.0163
525.7254	-0.0085
525.9223	-0.0144
526.1192	-0.0111
526.316	-0.0105
526.5129	-0.0023
526.7097	0.0001
526.9065	-0.0134
527.1033	-0.0084
527.3	-0.0089
527.4968	-0.0123
527.6935	-0.0074
527.8903	-0.0155
528.087	-0.0083
528.2837	0.0001
528.4804	-0.0025
528.677	-0.0127
528.8737	-0.0038
529.0703	-0.0018
529.2669	-0.0065
529.4635	-0.0139
529.6601	0.0068
529.8567	-0.0032
530.0532	-0.0156
530.2498	-0.0006
530.4463	-0.0006
530.6428	-0.0076
530.8393	0.0044
531.0358	-0.0118
531.2322	-0.0038
531.4287	-0.0124
531.6251	-0.0181
531.8215	-0.0017
532.0179	-0.0044
532.2143	0.001
532.4107	-0.0078
532.607	-0.019
532.8034	0.0023
532.9997	-0.0103
533.196	-0.0135
533.3923	-0.0097
533.5886	0.0031
533.7848	-0.0056
533.9811	-0.0001
534.1773	-0.0029
534.3735	-0.0013
534.5697	-0.0151
534.7659	-0.0067
534.9621	0.0023
535.1582	-0.0136
535.3544	-0.006
535.5505	-0.009
535.7466	-0.011
535.9427	-0.0097
536.1387	-0.0169
536.3348	-0.0017
536.5308	-0.0023
536.7269	-0.0131
536.9229	0.0015
537.1189	-0.0081
537.3148	-0.0083
537.5108	-0.0057
537.7068	-0.0106
537.9027	-0.0035
538.0986	-0.0141
538.2945	-0.0117
538.4904	-0.0065
538.6863	-0.0059
538.8821	-0.0039
539.078	-0.0118
539.2738	-0.0025
539.4696	-0.0039
539.6654	-0.0062
539.8611	0.0115
540.0569	-0.0063
540.2526	-0.0134
540.4484	-0.0063
540.6441	0.0073
540.8398	-0.0082
541.0355	-0.0107
541.2311	-0.0021
541.4268	-0.0149
541.6224	-0.0006
541.818	-0.01
542.0136	-0.0124
542.2092	-0.0067
542.4048	-0.0007
542.6003	-0.0101
542.7959	-0.0101
542.9914	-0.0083
543.1869	0.0002
543.3824	-0.0047
543.5779	-0.0199
543.7734	-0.008
543.9688	-0.0122
544.1642	0.0005
544.3596	-0.002
544.555	-0.0121
544.7504	-0.0083
544.9458	-0.0035
545.1411	-0.0044
545.3365	-0.003
545.5318	-0.0071
545.7271	-0.0113
545.9224	-0.0092
546.1177	0.0023
546.3129	-0.0022
546.5081	-0.0065
546.7034	-0.005
546.8986	-0.0036
547.0938	-0.013
547.289	-0.0076
547.4841	-0.0088
547.6793	0.0008
547.8744	-0.0042
548.0695	-0.007
548.2646	-0.0129
548.4597	-0.0071
548.6548	-0.0105
548.8498	-0.0017
549.0448	0.0001
549.2399	-0.0053
549.4349	-0.0005
549.6298	0.0027
549.8248	-0.0059
550.0198	-0.0086
550.2147	0.0012
550.4096	-0.0153
550.6045	-0.0096
550.7994	-0.0088
550.9943	-0.0106
551.1892	-0.0054
551.384	-0.0032
551.5788	-0.0028
551.7737	-0.0044
551.9685	-0.0075
552.1632	0.0049
552.358	-0.006
552.5528	-0.0116
552.7475	-0.0087
552.9422	-0.0046
553.1369	-0
553.3316	-0.0092
553.5263	-0.0142
553.7209	0.0002
553.9156	-0.0049
554.1102	-0.0106
554.3048	-0.0169
554.4994	0.003
554.694	-0.0107
554.8885	0.0033
555.0831	-0.0085
555.2776	-0.0131
555.4721	-0.0134
555.6666	-0.012
555.8611	-0.0061
556.0555	-0.0039
556.25	-0.004
556.4444	-0.0153
556.6388	-0.0047
556.8332	-0.0073
557.0276	0.0002
557.222	-0.0126
557.4163	0.0012
557.6107	-0.0134
557.805	-0.0011
557.9993	-0.0092
558.1936	-0.0039
558.3879	0.0032
558.5821	-0.013
558.7764	-0.0048
558.9706	-0.004
559.1648	0.002
559.359	-0.0037
559.5532	-0.0107
559.7473	-0.0007
559.9415	-0.0059
560.1356	-0.0034
560.3297	-0.0134
560.5238	-0.008
560.7179	-0.0076
560.9119	-0.0083
561.106	-0.014
561.3	-0.0093
561.494	-0.0069
561.688	-0.0063
561.882	-0.0167
562.076	-0.0119
562.2699	0.0043
562.4639	-0.0059
562.6578	-0.008
562.8517	-0.0068
563.0456	-0.0031
563.2395	-0.0067
563.4333	-0.0069
563.6272	0.0038
563.821	-0.0024
564.0148	-0.002
564.2086	-0.0083
564.4024	-0.0097
564.5961	-0.0117
564.7899	-0.002
564.9836	-0.0034
565.1773	0.0017
565.371	0.0038
565.5647	-0.0003
565.7584	0.0013
565.952	-0.0041
566.1456	-0.0094
566.3393	-0.003
566.5329	-0.0093
566.7264	-0.0007
566.92	-0.0047
567.1136	0.0024
567.3071	-0.0037
567.5006	-0.0027
567.6941	0.0019
567.8876	-0.0053
568.0811	-0.0074
568.2745	-0.0041
568.468	0.0027
568.6614	-0.0053
568.8548	-0.0067
569.0482	-0.0036
569.2416	-0.0012
569.4349	-0.006
569.6283	0.0077
569.8216	-0.0068
570.0149	-0.0066
570.2082	0.0022
570.4015	0.0058
570.5947	-0.0015
570.788	-0.0059
570.9812	0.0071
571.1744	-0.008
571.3676	-0.014
571.5608	-0.0064
571.754	-0.0085
571.9471	-0.0006
572.1402	-0.009
572.3333	-0.0112
572.5264	-0.0018
572.7195	-0.0004
572.9126	-0.0027
573.1057	-0.0034
573.2987	-0.0033
573.4917	-0.0013
573.6847	-0.0143
573.8777	0.005
574.0707	0.0056
574.2636	-0.0062
574.4566	-0.003
574.6495	0.0018
574.8424	-0.0032
575.0353	-0.0019
575.2281	0.0038
575.421	-0.0001
575.6138	0.005
575.8067	-0.0015
575.9995	-0.0042
576.1923	-0.0018
576.385	0.0004
576.5778	0.0017
576.7706	-0.0013
576.9633	-0.0014
577.156	-0.0015
577.3487	0.0031
577.5414	-0.0041
577.734	-0.0081
577.9267	-0.0028
578.1193	-0.0115
578.3119	-0.0085
578.5045	-0.0064
578.6971	-0.0035
578.8897	0.0024
579.0822	0.0023
579.2747	-0.0008
579.4673	-0.004
579.6598	-0.0103
579.8522	-0.0036
580.0447	-0.0059
580.2372	-0.0054
580.4296	0.0024
580.622	-0.0072
580.8144	-0.0035
581.0068	-0.0025
581.1992	-0.0102
581.3915	-0.0103
581.5839	-0.0085
581.7762	-0.0078
581.9685	-0.0035
582.1608	0.0019
582.353	-0.0073
582.5453	-0.0034
582.7375	-0.0068
582.9298	-0.0044
583.122	-0.0042
583.3142	-0.0056
583.5063	-0.0065
583.6985	0.0011
583.8906	-0.0037
584.0827	-0.0081
584.2749	-0.0063
584.4669	-0.0009
584.659	0.0025
584.8511	-0.0081
585.0431	-0.0057
585.2352	-0.0021
585.4272	-0.004
585.6192	-0.0019
585.8111	-0.0034
586.0031	-0.0018
586.195	-0.0045
586.387	0.0014
586.5789	-0.0019
586.7708	-0.0005
586.9627	-0.0036
587.1545	-0.0103
587.3464	-0.0036
587.5382	-0.003
587.73	-0.0012
587.9218	0.0054
588.1136	-0.0045
588.3053	0.005
588.4971	-0.0123
588.6888	-0.0114
588.8805	-0.0007
589.0722	0.0011
589.2639	-0.0018
589.4556	-0.0058
589.6472	-0.0025
589.8389	-0.0135
590.0305	-0.0097
590.2221	-0.0051
590.4137	-0.0081
590.6052	0.002
590.7968	-0.0118
590.9883	-0.0039
591.1798	-0.0074
591.3713	-0.0134
591.5628	-0.0086
591.7543	0.0027
591.9458	-0.0015
592.1372	0.0029
592.3286	0.0006
592.52	0.0054
592.7114	-0.0054
592.9028	-0.0056
593.0941	-0.0025
593.2855	-0.0016
593.4768	-0.008
593.6681	-0.0066
593.8594	-0.0023
594.0506	-0.0059
594.2419	0.0039
594.4331	-0.0008
594.6244	0.0031
594.8156	-0.0079
595.0067	-0.0005
595.1979	-0.0013
595.3891	-0.0065
595.5802	-0.0051
595.7713	-0.0047
595.9624	-0.0074
596.1535	-0.0018
596.3446	-0.0028
596.5357	-0.0016
596.7267	0.0026
596.9177	0.0004
597.1087	-0.0055
597.2997	-0.0118
597.4907	0.001
597.6817	-0.003
597.8726	-0.0046
598.0635	-0.0076
598.2544	-0.0049
598.4453	-0.0046
598.6362	-0.0045
598.827	-0.007
599.0179	0.0014
599.2087	0.0011
599.3995	-0.0066
599.5903	-0.0011
599.7811	0.0063
599.9718	-0.0016
600.1626	-0.0115
600.3533	-0.0096
600.544	-0.0029
600.7347	-0.0001
600.9254	-0.0063
601.116	-0.0172
601.3067	-0.0026
601.4973	0.0026
601.6879	-0.0004
601.8785	-0.0109
602.0691	-0.0083
602.2596	-0.0004
602.4502	0.0028
602.6407	-0.0027
602.8312	-0.0017
603.0217	-0.008
603.2122	-0.0039
603.4027	0.0014
603.5931	-0.0016
603.7835	-0.0093
603.9739	-0.0022
604.1643	-0.009
604.3547	-0.0012
604.5451	-0.004
604.7354	0.0007
604.9257	-0.0019
605.116	-0.0034
605.3063	0.0036
605.4966	-0.0001
605.6869	-0.0009
605.8771	0.0013
606.0673	0.0061
606.2575	0.0054
606.4477	0.0029
606.6379	0.0024
606.8281	-0.0047
607.0182	-0.0055
607.2083	0.0026
607.3985	-0.007
607.5885	0.0003
607.7786	-0.0023
607.9687	-0.008
608.1587	0.0023
608.3488	0.0028
608.5388	0.0035
608.7288	-0.0085
608.9187	-0.0085
609.1087	-0.0135
609.2986	-0.0119
609.4886	-0.0048
609.6785	-0.0057
609.8684	-0.0061
610.0582	-0.0036
610.2481	0.0043
610.4379	-0.0056
610.6278	-0.0076
610.8176	-0.0022
611.0074	-0.0088
611.1971	-0.0097
611.3869	-0.0088
611.5766	-0.0047
611.7664	0.0005
611.9561	0.0052
612.1458	-0.0058
612.3354	-0.0109
612.5251	0.0051
612.7147	-0.0009
612.9044	0.0015
613.094	-0.0118
613.2836	-0.0005
613.4731	-0.0109
613.6627	-0.0057
613.8522	0.0035
614.0417	0.0019
614.2313	-0.0078
614.4207	-0.0089
614.6102	0.0019
614.7997	-0.0028
614.9891	-0.0053
615.1785	-0.0033
615.3679	-0.0089
615.5573	0.0097
615.7467	-0.0056
615.9361	-0.0081
616.1254	-0.0052
616.3147	-0.0005
616.504	0
616.6933	-0.0004
616.8826	0.0023
617.0718	0.0081
617.2611	0.0024
617.4503	-0.0098
617.6395	-0.0058
617.8287	-0.0085
618.0179	0.0009
618.207	0.0032
618.3961	-0.0049
618.5853	-0.0011
618.7744	-0.0008
618.9634	0.0041
619.1525	0.0019
619.3416	-0.0026
619.5306	-0.0029
619.7196	-0.0036
619.9086	-0.0006
620.0976	-0.0006
620.2866	-0.0049
620.4755	-0.0064
620.6645	0.0002
620.8534	0.0038
621.0423	0.0031
621.2312	0.0034
621.42	0.0016
621.6089	-0.0056
621.7977	-0.0017
621.9865	-0.009
622.1753	0.001
622.3641	-0.0044
622.5529	0.0096
622.7416	0.0075
622.9303	-0.0038
623.1191	0.0024
623.3078	-0.0035
623.4964	-0.0061
623.6851	-0.0036
623.8737	-0.0055
624.0624	-0.0031
624.251	-0.002
624.4396	-0.0037
624.6282	-0.0115
624.8167	-0.0045
625.0053	-0.0031
625.1938	0.0035
625.3823	0.0027
625.5708	-0.0061
625.7593	-0.0081
625.9477	-0.0079
626.1362	-0.0054
626.3246	-0.0059
626.513	0.0032
626.7014	0.0083
626.8898	-0.0057
627.0781	-0.0054
627.2665	0.0008
627.4548	0.0006
627.6431	-0.002
627.8314	0.0012
628.0197	0.0024
628.2079	-0.0058
628.3962	-0.0067
628.5844	0.0047
628.7726	-0.0017
628.9608	0.0059
629.1489	-0.0032
629.3371	-0.0006
629.5252	-0.0016
629.7134	0.005
629.9015	-0.0017
630.0895	-0.0049
630.2776	0.0001
630.4657	0.0037
630.6537	-0.0006
630.8417	-0.0015
631.0297	-0.0041
631.2177	0.0005
631.4057	-0.0065
631.5936	-0.0028
631.7815	-0.0035
631.9695	-0.0051
632.1574	-0.0033
632.3452	0.0013
632.5331	-0.0074
632.7209	-0.01
632.9088	0.0027
633.0966	0.0005
633.2844	-0.0086
633.4722	-0.0012
633.6599	0.0041
633.8477	-0.0018
634.0354	-0.0005
634.2231	-0.0036
634.4108	-0.0056
634.5985	0.0038
634.7861	0.005
634.9738	-0.0034
635.1614	-0.0029
635.349	0.0069
635.5366	-0.0067
635.7242	0.0073
635.9117	0.0004
636.0993	-0.0014
636.2868	0.0045
636.4743	-0.0072
636.6618	0.0002
636.8492	-0.0031
637.0367	-0.0029
637.2241	-0.0018
637.4115	-0.0081
637.5989	-0.0106
637.7863	-0.0026
637.9737	-0.0074
638.161	-0.003
638.3484	-0.0066
638.5357	-0.0011
638.723	-0.0083
638.9103	0.0016
639.0975	-0.0039
639.2848	0.0012
639.472	-0.0009
639.6592	-0.0048
639.8464	0.005
640.0336	0.0073
640.2208	-0.0065
640.4079	-0.0014
640.595	-0.0021
640.7821	-0.0014
640.9692	-0.0019
641.1563	-0.0044
641.3434	0.0036
641.5304	-0.0024
641.7174	-0.0045
641.9044	-0.0083
642.0914	-0.0048
642.2784	-0.0018
642.4653	-0.002
642.6523	-0.0041
642.8392	-0.0026
643.0261	0.0028
643.213	-0.009
643.3999	-0.0063
643.5867	-0.0077
643.7735	-0.0062
643.9604	-0.009
644.1472	-0.0027
644.3339	-0.0056
644.5207	-0.0053
644.7075	-0.0024
644.8942	0.0035
645.0809	0.0061
645.2676	0.0006
645.4543	-0.0079
645.6409	-0.0011
645.8276	-0.0074
646.0142	0.0002
646.2008	-0.006
646.3874	-0.001
646.574	-0.0042
646.7605	-0.0012
646.9471	-0.0112
647.1336	-0.0066
647.3201	0.0021
647.5066	-0.0129
647.6931	0.0033
647.8795	-0.0005
648.0659	0.0059
648.2524	0.0012
648.4388	-0.0026
648.6252	-0.0039
648.8115	-0.0022
648.9979	0.002
649.1842	0.0012
649.3705	0.002
649.5568	0.003
649.7431	0.0015
649.9294	-0.0054
650.1156	0.0059
650.3018	-0.005
650.488	-0.0038
650.6742	0.0024
650.8604	-0.0002
651.0466	-0.0126
651.2327	-0.0074
651.4188	-0.0053
651.6049	-0.0045
651.791	-0.0105
651.9771	-0.0006
652.1632	-0.0024
652.3492	-0.0007
652.5352	0.0053
652.7212	-0.0049
652.9072	0.0043
653.0932	-0.0038
653.2791	-0.0036
653.465	-0.0033
653.651	-0.0101
653.8369	-0.0017
654.0227	-0.0047
654.2086	-0.0012
654.3944	0.004
654.5803	0.001
654.7661	-0.0035
654.9519	0.0023
655.1377	-0.0043
655.3234	-0.0036
655.5092	-0.0053
655.6949	-0.0124
655.8806	-0.0066
656.0663	-0.0039
656.2519	-0.0043
656.4376	-0.0023
656.6232	-0.0017
656.8088	0.0003
656.9945	0.0011
657.18	-0.0037
657.3656	-0.0061
657.5511	-0.0039
657.7367	-0.0114
657.9222	-0.0029
658.1077	-0.0022
658.2932	-0.0018
658.4786	-0.016
658.6641	-0.014
658.8495	-0.0055
659.0349	-0.0016
659.2203	0.0065
659.4057	0.0018
659.591	0.0035
659.7764	-0.0021
659.9617	-0.005
660.147	-0.0024
660.3323	-0.0009
660.5176	0.0092
660.7028	0.0009
660.888	-0.0021
661.0733	0.0003
661.2585	-0.0113
661.4436	-0.0036
661.6288	-0.0072
661.8139	-0.0069
661.9991	0.0018
662.1842	-0.0021
662.3693	0.0015
662.5544	-0.0054
662.7394	-0.0047
662.9245	-0.0007
663.1095	-0.0025
663.2945	-0.0043
663.4795	-0.0043
663.6644	0.0018
663.8494	-0.0073
664.0343	-0.0081
664.2193	-0.0108
664.4042	0.0032
664.589	-0.0096
664.7739	-0.0041
664.9587	-0.011
665.1436	-0.0065
665.3284	-0.0033
665.5132	-0.0071
665.698	-0.0087
665.8827	0.0012
666.0675	-0.006
666.2522	-0.0135
666.4369	-0.009
666.6216	0.0013
666.8063	-0.0024
666.9909	0.0059
667.1756	-0.0012
667.3602	-0.0042
667.5448	-0.0058
667.7294	0.0045
667.9139	-0.0006
668.0985	0.0093
668.283	-0.0015
668.4675	0.001
668.652	0.0005
668.8365	0.0001
669.0209	0.0034
669.2054	0.0083
669.3898	-0.0006
669.5742	0.0037
669.7586	0.004
669.943	0.0048
670.1273	0.0044
670.3117	0.0027
670.496	0.0019
670.6803	0.0049
670.8646	0.0031
671.0488	-0.0108
671.2331	0.0068
671.4173	0.0022
671.6015	0.0033
671.7857	0.0003
671.9699	0.0078
672.1541	0.0007
672.3382	0.0014
672.5223	0.005
672.7064	0.003
672.8905	0.0061
673.0746	0.0041
673.2587	0.0014
673.4427	0.0047
673.6267	0.0032
673.8107	0.0097
673.9947	0.0048
674.1787	0.0044
674.3626	-0.0002
674.5465	0.0029
674.7304	0.0057
674.9143	0.0064
675.0982	0.0059
675.2821	-0.0028
675.4659	0.0051
675.6497	0.0028
675.8335	0.0008
676.0173	-0.0008
676.2011	0.0009
676.3849	-0.013
676.5686	-0.0083
676.7523	-0.0024
676.936	-0.0077
677.1197	-0.0039
677.3034	-0.0095
677.487	0.0009
677.6706	-0.0022
677.8542	-0.0029
678.0378	0.0026
678.2214	-0.0059
678.405	-0.0032
678.5885	-0.0044
678.772	-0.0034
678.9555	-0.007
679.139	-0.0044
679.3225	-0.0039
679.5059	0.002
679.6894	0.0038
679.8728	-0.0066
680.0562	-0.0099
680.2395	-0.0082
680.4229	-0.0063
680.6062	0.004
680.7896	-0.0092
680.9729	-0.01
681.1562	0.0019
681.3394	0.0007
681.5227	-0.0141
681.7059	0.0003
681.8891	0.0018
682.0723	0.0048
682.2555	0.0058
682.4387	-0.0001
682.6218	0.0021
682.805	0.0053
682.9881	0.0045
683.1712	0.0008
683.3542	-0.0012
683.5373	-0.0077
683.7203	-0.0093
683.9034	-0.0041
684.0864	-0.0112
684.2694	-0.002
684.4523	-0.0018
684.6353	-0.0054
684.8182	-0.0016
685.0011	-0.0118
685.184	0.0054
685.3669	-0.0063
685.5498	0.0063
685.7326	0.0036
685.9154	-0.0071
686.0982	0.0028
686.281	-0.0016
686.4638	-0.0025
686.6465	-0.0096
686.8293	-0.005
687.012	-0.0039
687.1947	-0.0104
687.3774	-0.0009
687.56	-0.0105
687.7427	0.0065
687.9253	-0.0063
688.1079	0.0036
688.2905	0.0015
688.4731	-0.0023
688.6556	-0.0059
688.8382	-0.0049
689.0207	0.0028
689.2032	-0.0131
689.3857	-0.0082
689.5681	-0.0024
689.7506	-0.0037
689.933	-0.008
690.1154	0.0015
690.2978	-0.0065
690.4802	-0.0005
690.6626	-0.0098
690.8449	-0.0124
691.0272	0.0051
691.2095	-0.0097
691.3918	-0.0044
691.5741	0.0007
691.7563	-0.0092
691.9386	-0.0048
692.1208	-0.0026
692.303	-0.0032
692.4852	-0.0056
692.6673	-0.0009
692.8495	-0.0039
693.0316	0.0002
693.2137	-0.0109
693.3958	0.002
693.5778	0.0002
693.7599	-0.003
693.9419	0.0003
694.1239	-0.0021
694.3059	-0.0079
694.4879	0.0003
694.6699	0.0014
694.8518	0.0042
695.0337	-0.0064
695.2157	-0.0029
695.3975	-0.0056
695.5794	0.0021
695.7613	0.0013
695.9431	-0.0077
696.1249	0.0059
696.3067	0.0048
696.4885	0.0033
696.6703	-0.0069
696.852	0.0071
697.0337	0.0054
697.2154	-0.0013
697.3971	0.0047
697.5788	-0.0007
697.7605	0.0017
697.9421	0.0039
698.1237	-0.0008
698.3053	-0.0006
698.4869	0.0001
698.6685	-0.0066
698.85	-0.0036
699.0315	0.0093
699.213	0.001
699.3945	0.0017
699.576	0.0002
699.7575	-0.0046
699.9389	0.0054
700.1203	-0.009
700.3017	-0.0083
700.4831	-0.007
700.6645	-0.0021
700.8458	-0.0026
701.0271	-0.0043
701.2084	0.0069
701.3897	-0.0014
701.571	0.0011
701.7523	-0.0026
701.9335	-0.0016
702.1147	0.0001
702.2959	-0.005
702.4771	-0.0011
702.6583	-0.003
702.8394	-0.0171
703.0205	-0.0063
703.2016	-0.0021
703.3827	0.0017
703.5638	0.0042
703.7449	0.004
703.9259	0.0092
704.1069	0.0006
704.2879	0.0022
704.4689	0.0005
704.6499	-0.0046
704.8308	-0.0003
705.0117	-0.0063
705.1927	-0.0052
705.3735	-0.0096
705.5544	-0.0028
705.7353	-0.0031
705.9161	-0.0114
706.0969	-0.0003
706.2777	-0.0061
706.4585	-0.0064
706.6393	-0.0053
706.82	-0.0083
707.0007	-0.0004
707.1815	0.0023
707.3621	0.0044
707.5428	-0.0014
707.7235	0.0092
707.9041	0.0037
708.0847	-0.0067
708.2653	-0.008
708.4459	-0.0178
708.6265	-0.0027
708.807	-0.0023
708.9875	-0.0158
709.168	0.0002
709.3485	-0.0146
709.529	-0.0044
709.7095	-0.0138
709.8899	-0.0072
710.0703	-0.0153
710.2507	-0.0135
710.4311	-0.011
710.6115	-0.0164
710.7918	-0.0154
710.9721	-0.0083
711.1524	-0.0098
711.3327	0.0007
711.513	0.0041
711.6932	-0.0005
711.8735	0.0142
712.0537	0.0034
712.2339	-0.0005
712.4141	-0.0072
712.5942	-0.0068
712.7744	-0.0052
712.9545	-0.0127
713.1346	-0.0074
713.3147	-0.0044
713.4947	-0.0102
713.6748	-0.0019
713.8548	-0.0028
714.0348	-0.0073
714.2148	-0.0072
714.3948	-0.0028
714.5748	-0.0086
714.7547	-0.0016
714.9346	-0.0044
715.1145	-0.006
715.2944	-0.0099
715.4743	-0.0038
715.6541	-0.0065
715.834	-0.0007
716.0138	-0.0076
716.1936	-0.0141
716.3733	-0.014
716.5531	0.0016
716.7328	-0.0049
716.9126	-0.0068
717.0923	0.0062
717.2719	-0.0033
717.4516	0.0097
717.6312	-0.0007
717.8109	-0.0018
717.9905	0.0075
718.1701	-0.0038
718.3496	-0.0042
718.5292	0.0078
718.7087	-0.0081
718.8882	0.0067
719.0677	0.0023
719.2472	-0.0035
719.4267	0.0019
719.6061	-0.0043
719.7856	0.0041
719.965	0.006
720.1443	-0.0047
720.3237	0.0071
720.5031	0
720.6824	0.0072
720.8617	-0.0095
721.041	-0.0045
721.2203	0.008
721.3995	-0.0001
721.5788	0.0016
721.758	0.0018
721.9372	-0.0055
722.1164	-0.0021
722.2956	-0.0038
722.4747	-0.0063
722.6538	-0.0101
722.8329	0.0048
723.012	-0.0088
723.1911	-0.005
723.3702	-0.0098
723.5492	-0.0021
723.7282	-0.0068
723.9072	-0.0142
724.0862	-0.0093
724.2652	-0.013
724.4441	-0.008
724.623	-0.0082
724.8019	-0.0074
724.9808	-0.0064
725.1597	-0.0168
725.3385	-0.0065
725.5174	0.0007
725.6962	-0.0011
725.875	-0.0035
726.0538	-0.0029
726.2325	-0.0004
726.4112	-0.0019
726.59	-0.0078
726.7687	-0.0086
726.9474	0.0048
727.126	-0.0019
727.3047	-0.0066
727.4833	-0.0049
727.6619	-0.0106
727.8405	-0.0125
728.0191	-0.0099
728.1976	-0.0039
728.3762	-0.0007
728.5547	-0.0025
728.7332	-0.0107
728.9116	-0.0058
729.0901	0.0028
729.2686	-0.0112
729.447	-0.0096
729.6254	-0.0168
729.8038	0.0007
729.9821	-0.013
730.1605	-0.005
730.3388	-0.0088
730.5171	-0.0094
730.6954	-0.0051
730.8737	-0.0085
731.0519	0.0033
731.2302	-0.002
731.4084	0.0054
731.5866	-0.0032
731.7648	-0.0129
731.9429	-0.009
732.1211	-0.0183
732.2992	-0.0023
732.4773	-0.0137
732.6554	-0.0109
732.8335	-0.0022
733.0115	0.0075
733.1896	0.0043
733.3676	-0.0107
733.5456	0.0058
733.7235	0.0034
733.9015	-0.004
734.0794	-0.0036
734.2574	-0.0082
734.4353	-0.0024
734.6131	0.0098
734.791	0.0066
734.9689	0.0027
735.1467	0.0071
735.3245	-0.0016
735.5023	-0.0003
735.68	-0.0025
735.8578	0.0076
736.0355	-0.0183
736.2132	-0.005
736.3909	-0.0089
736.5686	-0.0153
736.7463	0.0058
736.9239	-0.0116
737.1015	-0.0047
737.2791	0.0035
737.4567	-0.0097
737.6343	-0.0081
737.8118	-0.0022
737.9894	0.0016
738.1669	-0.0099
738.3444	-0.0054
738.5218	-0.0015
738.6993	-0.003
738.8767	-0.0003
739.0541	0.0081
739.2315	-0.0162
739.4089	0.0005
739.5863	0.0022
739.7636	-0.0077
739.9409	0.0053
740.1182	-0.0028
740.2955	0.0106
740.4728	-0.0069
740.65	-0.0105
740.8272	-0.003
741.0044	-0.0026
741.1816	-0.0003
741.3588	-0.0087
741.5359	-0.0033
741.7131	-0.0139
741.8902	0.0009
742.0673	-0.0063
742.2444	-0.006
742.4214	-0.0149
742.5985	-0.0124
742.7755	-0.0099
742.9525	-0.0166
743.1295	-0.0035
743.3064	-0.0057
743.4834	0.0018
743.6603	-0.0067
743.8372	-0.0023
744.0141	0.0078
744.191	0.0059
744.3678	-0.0004
744.5446	-0.0019
744.7215	-0.0064
744.8982	-0.009
745.075	-0.0104
745.2518	-0.0006
745.4285	-0.0099
745.6052	-0.0118
745.7819	-0.0068
745.9586	-0.0136
746.1353	-0.0132
746.3119	-0.013
746.4885	-0.0218
746.6651	-0.0179
746.8417	-0.0092
747.0183	-0.0165
747.1948	-0.0147
747.3714	-0.0087
747.5479	-0.0116
747.7244	-0.0147
747.9008	-0.011
748.0773	-0.0073
748.2537	-0.0023
748.4301	-0.0115
748.6065	-0.0055
748.7829	-0.0109
748.9593	-0.014
749.1356	-0.0062
749.3119	-0.0043
749.4882	-0.0165
749.6645	0.0002
749.8408	-0.0165
750.017	-0.0073
750.1933	-0.0014
750.3695	-0.0067
750.5457	-0.0039
750.7218	-0.0057
750.898	-0.0033
751.0741	-0.0127
751.2502	-0.0084
751.4263	-0.0118
751.6024	-0.0042
751.7784	-0.0032
751.9545	-0.0115
752.1305	-0.0043
752.3065	-0.0148
752.4825	0.0015
752.6584	-0.0077
752.8344	-0.0084
753.0103	-0.0135
753.1862	-0.0104
753.3621	-0.0017
753.5379	-0.0131
753.7138	-0.0029
753.8896	-0.0023
754.0654	-0.0088
754.2412	0.0032
754.417	-0.0035
754.5927	-0.0244
754.7685	-0.0062
754.9442	-0.0063
755.1199	0.0076
755.2956	0.0025
755.4712	0.006
755.6469	0.0049
755.8225	-0.0026
755.9981	-0.0049
756.1736	0.0015
756.3492	0.001
756.5248	-0.002
756.7003	-0.0025
756.8758	0.0095
757.0513	-0.0103
757.2267	-0.0023
757.4022	0.0052
757.5776	-0.0083
757.753	0.0023
757.9284	-0.0038
758.1038	0.0005
758.2791	-0.0025
758.4545	-0.0169
758.6298	-0.0022
758.8051	-0.0117
758.9803	-0.0124
759.1556	-0.0005
759.3308	-0.0178
759.506	-0.0043
759.6812	-0.0004
759.8564	0.0047
760.0316	0.002
760.2067	0.0037
760.3819	0.0039
760.557	0.0165
760.732	-0.0004
760.9071	-0.0113
761.0821	-0.0035
761.2572	0.0051
761.4322	-0.0003
761.6072	-0.0007
761.7821	-0.0065
761.9571	-0.0028
762.132	-0.0024
762.3069	-0.0183
762.4818	-0.0155
762.6567	-0.0084
762.8316	-0.0045
763.0064	-0.0089
763.1812	-0.0095
763.356	-0.0195
763.5308	-0.005
763.7055	-0.0008
763.8803	-0.0052
764.055	-0.0032
764.2297	-0.0055
764.4044	-0.0132
764.579	-0.0164
764.7537	-0.024
764.9283	-0.006
765.1029	-0.0118
765.2775	-0.0056
765.4521	-0.0187
765.6266	-0.0166
765.8011	-0.0178
765.9756	-0.0134
766.1501	0.0055
766.3246	-0.0108
766.4991	-0.0091
766.6735	-0.004
766.8479	-0.0156
767.0223	-0
767.1967	-0.0097
767.371	-0.0068
767.5454	-0.0098
767.7197	-0.0068
767.894	-0.0131
768.0683	-0.019
768.2425	0.0012
768.4168	-0.0002
768.591	-0.0131
768.7652	-0.0022
768.9394	-0.0082
769.1135	-0.0079
769.2877	-0.0058
769.4618	-0.0094
769.6359	-0.0079
769.81	0.0007
769.984	-0.0042
770.1581	-0.0097
770.3321	-0.0042
770.5061	-0.0033
770.6801	-0.0176
770.8541	0.0116
771.028	-0.0024
771.202	-0.0276
771.3759	-0.0048
771.5498	-0.0112
771.7236	-0.0042
771.8975	-0.0125
772.0713	0.0029
772.2451	0.005
772.4189	0.0073
772.5927	-0.0054
772.7665	-0.0188
772.9402	-0.0142
773.1139	-0.0109
773.2876	-0.0084
773.4613	-0.01
773.635	-0.0004
773.8086	-0.0153
773.9822	-0.0111
774.1558	-0.0041
774.3294	-0.0205
774.503	-0.0115
774.6765	-0.0023
774.8501	-0.0061
775.0236	-0.0036
775.1971	0.0011
775.3705	-0.0108
775.544	-0.0029
775.7174	-0.0075
775.8908	-0.0051
776.0642	-0.0195
776.2376	0.0054
776.4109	-0.0036
776.5843	-0.0082
776.7576	-0.0119
776.9309	0.0106
777.1041	0.0045
777.2774	0.0133
777.4506	-0.0023
777.6238	-0.0174
777.797	-0.0047
777.9702	0.0054
778.1434	-0.0225
778.3165	-0.0075
778.4896	-0.0191
778.6627	-0.0093
778.8358	0.0018
779.0089	-0.014
779.1819	0.0001
779.3549	0.0084
779.5279	-0.0038
779.7009	-0.007
779.8739	-0.0021
780.0468	-0.0064
780.2197	-0.0012
780.3926	-0.0115
780.5655	-0.004
780.7384	-0.0039
780.9112	-0.0072
781.0841	-0.0089
781.2569	-0.0043
781.4297	-0.003
781.6024	-0.0028
781.7752	-0.0084
781.9479	0.0024
782.1206	-0.0047
782.2933	-0.0206
782.466	0.0028
782.6386	0.0006
782.8113	-0.0097
782.9839	0.0054
783.1565	0.0133
783.329	-0.0063
783.5016	0.0004
783.6741	0.0028
783.8466	-0.0182
784.0191	-0.0036
784.1916	-0.0152
784.3641	-0.0019
784.5365	0.0017
784.7089	-0.0032
784.8813	-0.0098
785.0537	-0.0001
785.2261	-0.0053
785.3984	-0.023
785.5707	-0.0131
785.743	-0.022
785.9153	-0.0119
786.0876	-0.0066
786.2598	-0.0164
786.432	-0.0247
786.6042	-0.0078
786.7764	-0.015
786.9486	-0.016
787.1207	-0.0155
787.2928	-0.0053
787.4649	0.002
787.637	-0.0058
787.8091	-0.0178
787.9811	-0.0265
788.1532	-0.0225
788.3252	-0.0026
788.4972	-0.0154
788.6691	-0.0045
788.8411	-0.0055
789.013	-0.0162
789.1849	-0.005
789.3568	-0.0147
789.5287	-0.0054
789.7005	-0.0126
789.8723	0.0041
790.0442	0.0054
790.2159	-0.0003
790.3877	-0.0128
790.5595	-0.0198
790.7312	-0.0128
790.9029	-0.0101
791.0746	-0.0196
791.2463	-0.0187
791.4179	-0.0011
791.5896	-0.0102
791.7612	0.0045
791.9328	-0.0142
792.1044	0.0006
792.2759	-0.0167
792.4474	-0.0068
792.619	0.0088
792.7905	-0.0068
792.9619	-0.0022
793.1334	0.0052
793.3048	0.0191
793.4762	-0.01
793.6476	0.0056
793.819	-0.0021
793.9904	0.0029
794.1617	-0.0221
794.333	-0.0022
794.5043	-0.0243
794.6756	-0.0159
794.8469	-0.0084
795.0181	-0.0209
795.1893	0.0008
795.3605	0.0006
795.5317	0.0092
795.7029	-0.0061
795.874	-0.0059
796.0452	-0.0121
796.2163	-0.0182
796.3873	-0.0012
796.5584	0.0004
796.7294	-0.0037
796.9005	-0.0042
797.0715	-0.005
797.2425	-0.0178
797.4134	-0.0099
797.5844	0.0033
797.7553	-0.0075
797.9262	-0.0031
798.0971	-0.0108
798.2679	-0.022
798.4388	-0.0287
798.6096	-0.0146
798.7804	-0.0021
798.9512	-0.0173
799.122	-0.0075
799.2927	0.0056
799.4635	-0.0016
799.6342	-0.027
799.8049	-0.024
799.9755	-0.0012
800.1462	-0.0137
800.3168	0.0088
800.4874	-0.0075
800.658	0.0068
800.8286	0.0077
800.9991	-0.0126
801.1696	0.0037
801.3402	-0.004
801.5106	-0.0103
801.6811	-0.0032
801.8516	0.0002
802.022	-0.0127
802.1924	0.0074
802.3628	-0.0126
802.5332	-0.0037
802.7035	0.0246
802.8739	-0.0121
803.0442	-0.0123
803.2145	0.0025
803.3847	-0.0239
803.555	-0.0122
803.7252	-0.0166
803.8954	-0.0133
804.0656	-0.0166
804.2358	-0.0007
804.4059	0.0023
804.5761	-0.0047
804.7462	-0.0024
804.9163	-0.0086
805.0864	-0.0279
805.2564	-0.0122
805.4264	-0.0204
805.5965	-0.0184
805.7665	-0.0064
805.9364	-0.0062
806.1064	0.0144
806.2763	0.0041
806.4462	0.0207
806.6161	-0.0109
806.786	0.0106
806.9559	-0
807.1257	-0.0202
807.2955	0.0156
807.4653	0.0039
807.6351	-0.0231
807.8048	-0.0061
807.9746	0.0038
808.1443	-0.01
808.314	-0.009
808.4837	-0.0112
808.6533	-0.005
808.8229	0.0043
808.9926	-0.0155
809.1622	-0.0007
809.3317	-0.0098
809.5013	0.0002
809.6708	-0.007
809.8403	0.002
810.0098	-0.022
810.1793	-0.0129
810.3488	-0.0018
810.5182	-0.0182
810.6876	-0.0236
810.857	-0.0214
811.0264	0.001
811.1958	-0.0038
811.3651	0.0061
811.5344	0.0112
811.7037	-0.0227
811.873	-0.0064
812.0422	-0.0124
812.2115	-0.0075
812.3807	-0.0214
812.5499	0.0043
812.7191	0.0054
812.8882	-0.0221
813.0574	-0.0283
813.2265	-0.0019
813.3956	-0.0086
813.5646	-0.0055
813.7337	0.0006
813.9027	0.0129
814.0718	0.0176
814.2407	0.0237
814.4097	-0.0132
814.5787	-0.0382
814.7476	-0.0234
814.9165	-0.0134
815.0854	-0.0021
815.2543	-0.0086
815.4232	-0.0447
815.592	-0.0195
815.7608	-0.0168
815.9296	-0.0009
816.0984	-0.0026
816.2671	-0.0117
816.4359	-0.0096
816.6046	-0.0071
816.7733	-0.0185
816.942	-0.0347
817.1106	-0.0024
817.2793	-0.0117
817.4479	-0.0241
817.6165	-0.035
817.785	-0.0224
817.9536	-0.0304
818.1221	0.0016
818.2906	0.0071
818.4591	-0.0151
818.6276	-0.009
818.7961	-0.0349
818.9645	0.007
819.1329	-0.0115
819.3013	-0.006
819.4697	0.0276
819.638	-0.0031
819.8064	0.0048
819.9747	0.0063
820.143	-0.0103
820.3113	-0.0043
820.4795	0.0106
820.6477	-0.0045
820.816	0.016
820.9842	-0
821.1523	-0.0135
821.3205	-0.0136
821.4886	0.0234
821.6567	0.0216
821.8248	0.0184
821.9929	-0.0179
822.1609	-0.0011
822.329	0.0183
822.497	0.0336
822.665	-0.0261
822.833	-0.0399
823.0009	-0.0205
823.1688	0.0235
823.3367	0.0093
823.5046	0.0236
823.6725	0.0296
823.8404	-0.0063
824.0082	0.0184
824.176	0.0048
824.3438	0.0204
824.5116	-0.0358
824.6793	0.0041
824.847	-0.0078
825.0147	-0.02
825.1824	0.0355
825.3501	-0.0105
825.5177	-0.0136
825.6854	-0.0283
825.853	0.0034
826.0206	-0.0065
826.1881	-0.0214
826.3557	-0.0341
826.5232	0.0079
826.6907	-0.0362
826.8582	0.0041
827.0257	-0.0371
827.1931	-0.0018
827.3605	-0.0137
827.528	-0.0322
827.6953	-0.0305
827.8627	-0.0298
828.03	0.0282
828.1974	-0.0215
828.3647	-0.0515
828.532	0.0005
828.6992	-0.0235
828.8665	-0.0201
829.0337	-0.011
829.2009	0.0381
829.3681	-0.045
829.5352	0.0052
829.7024	-0.0122
829.8695	-0.0462
830.0366	0.033
830.2037	-0.0314
830.3707	-0.0025
830.5378	-0.0106
830.7048	0.0033
830.8718	-0.0274
831.0388	-0.0321
831.2057	0.0219
831.3727	0.0202
831.5396	0.0063
831.7065	-0.0278
831.8734	-0.0164
832.0402	-0.062
832.2071	0.0028
832.3739	-0.0153
832.5407	0.0103
832.7075	-0.0354
832.8742	-0.0215
833.041	-0.0092
833.2077	-0.003
833.3744	0.023
833.541	-0.0669
833.7077	-0.0111
833.8743	-0.0273
834.0409	-0.0073
834.2075	-0.0082
834.3741	-0.0587
834.5407	-0.0057
834.7072	0.0116
834.8737	-0.0441
835.0402	0.0123
835.2067	-0.0201
835.3731	0.0231
835.5395	-0.035
835.706	0.0165
835.8723	-0.0231
836.0387	0.0186
836.2051	0.0021
836.3714	-0.0081
836.5377	-0.0122
836.704	-0.0175
836.8703	-0.0152
837.0365	-0.0101
837.2027	-0.0307
837.3689	0.0309
837.5351	-0.0082
837.7013	-0.0421
837.8674	-0.0377
838.0335	-0.0305
838.1997	-0.0214
838.3657	-0.0867
838.5318	-0.0521
838.6978	0.0626
838.8639	0.0396
839.0299	0.0248
839.1958	0.0008
839.3618	0.0157
839.5277	0.0113
839.6937	-0.0256
839.8596	0.0223
840.0254	-0.0074
840.1913	0.0229
840.3571	0.0234
840.523	-0.0525
840.6888	-0.036
840.8545	-0.0307
841.0203	-0.0197
841.186	-0.011
841.3517	0.0512
841.5174	-0.0171
841.6831	-0.0075
841.8488	-0.0304
842.0144	0.0303
842.18	-0.0114
842.3456	0.0372
842.5112	-0.0369
842.6767	-0.0303
842.8422	-0.0523
843.0077	-0.0675
843.1732	-0.0597
843.3387	-0.0543
843.5042	-0.0588
843.6696	0.0073
843.835	-0.0011
844.0004	0.0832
844.1657	0.0216
844.3311	-0.0704
844.4964	-0.0599
844.6617	-0.0353
844.827	0.0012
844.9923	-0.0362
845.1575	-0.0129
845.3227	-0.0034
845.4879	-0.0377
845.6531	-0.031
845.8183	-0.0716
845.9834	-0.0231
846.1485	0.02
846.3136	-0.1044
846.4787	-0.0387
846.6438	0.0465
846.8088	-0.0404
846.9738	-0.1018
847.1388	0.0492
847.3038	0.0046
847.4687	-0.1298
847.6337	0.0267
847.7986	0.0149
847.9635	-0.0229
848.1284	0.0537
848.2932	0.0888
848.458	0.0863
848.6228	0.053
848.7876	-0.0272
848.9524	-0.058
849.1172	-0.1214
849.2819	-0.0042
849.4466	-0.0912
849.6113	-0.0334
849.7759	0.0739
849.9406	-0.0456
850.1052	0.017
850.2698	-0.0551
850.4344	-0.0039
850.599	-0.0794
850.7635	0.0055
850.928	-0.0123
851.0925	-0.0658
851.257	-0.0018
851.4215	0.003
851.5859	-0
851.7503	-0.0311
851.9147	0.058
852.0791	-0.0901
852.2434	-0.0415
852.4078	0.0417
852.5721	0.0972
852.7364	-0.0747
852.9007	-0.0847
853.0649	-0.034
853.2291	0.0204
853.3934	0.0117
853.5575	0.0154
853.7217	-0.1464
853.8859	-0.2416
854.05	-0.0546
854.2141	0.0324
854.3782	-0.1332
854.5423	-0.0761
854.7063	0.0166
854.8703	-0.0828
855.0343	0.0679
855.1983	-0.1149
855.3623	0.0235
855.5262	-0.0493
855.6901	-0.0329
855.854	0.0344
856.0179	-0.0237
856.1818	-0.0648
856.3456	-0.0886
856.5094	-0.0992
856.6732	-0.1729
856.837	-0.1146
857.0008	0.0291
857.1645	0.038
857.3282	-0.2481
857.4919	-0.0595
857.6556	-0.0161
857.8192	-0.0697
857.9828	0.0293
858.1465	-0.1038
858.31	-0.0303
858.4736	0.0299
858.6372	-0.2809
858.8007	-0.261
858.9642	0.0139
859.1277	-0.1911
859.2911	-0.0136
859.4546	0.0357
859.618	-0.3748
859.7814	-0.0324
859.9448	-0.0453
860.1081	0.0107
860.2715	0.0664
860.4348	0.369
860.5981	-0.0655
860.7614	0.1472
860.9246	-0.037
861.0879	-0.1528
861.2511	0.0809
861.4143	-0.1426
861.5774	0.0071
861.7406	-0.2435
861.9037	0.1234
862.0668	-0.0954
862.2299	0.1977
862.393	-0.7002
862.556	0.0257
862.7191	-0.1126
862.8821	-0.3276
863.0451	0.105
863.208	0.0485
863.371	-0.0923
863.5339	-0.3169
863.6968	-0.0724
863.8597	0.2771
864.0225	0.2498
864.1854	-0.1038
864.3482	-0.0868
864.511	-0.0172
864.6737	0.079
864.8365	0.1397
864.9992	-0.4104
865.1619	-0.4201
865.3246	-0.4245
865.4873	-0.1007
865.65	0.104
865.8126	0.1955
865.9752	-0
866.1378	-0.2282
866.3004	0.2851
866.4629	-0.0191
866.6254	-0.0262
866.7879	0.1087
866.9504	-0.4827
867.1129	-0
867.2753	0.0364
867.4377	0.05
867.6001	-0.3306
867.7625	0.179
867.9249	-0.4337
868.0872	-0.1202
868.2495	-0.1424
868.4118	-0.0577
868.5741	-0.8552
868.7363	-0.3934
868.8986	-0.0454
869.0608	-0.1504
869.223	0.1263
869.3851	-0
869.5473	-0
869.7094	0.2097
869.8715	-0.672
870.0336	-0
870.1957	-0.7018
870.3577	-0
870.5197	0.1668
870.6817	-0.348
870.8437	0.3345
871.0057	-0.128
871.1676	-0.3577
871.3295	-0.2481
871.4914	-0.3085
871.6533	-0.5213
871.8151	-0.5331
871.977	-0
872.1388	-0
872.3006	-0.1429
872.4623	-0
872.6241	0.0086
872.7858	0.1425
872.9475	-0.2364
873.1092	-0.2067
873.2709	-0
873.4325	-0.1876
873.5941	-0
873.7557	-0
873.9173	0.128
874.0789	0.0407
874.2404	-0.404
874.4019	0.1119
874.5634	-0.3247
874.7249	-0.147
874.8863	-0.0522
875.0478	0.2883
875.2092	-0
875.3706	-0.1821
875.5319	-0.1988
875.6933	-0
875.8546	-0.5179
876.0159	0.2243
876.1772	-0
876.3385	0.1504
876.4997	0.6176
876.6609	-0.46
876.8221	1.1139
876.9833	-0
877.1445	-0
877.3056	0.1306
877.4667	-0.4657
877.6278	-0
877.7889	-0.5714
877.9499	-0
878.111	0.0934
878.272	-0
878.433	-0
878.5939	1.2258
878.7549	-0.2688
878.9158	0.6463
879.0767	-0
879.2376	-0
879.3984	-0
879.5593	-0
879.7201	-0.0667
879.8809	-0.8512
880.0417	-0.1448
880.2024	-0.1629
880.3632	-0.9235
880.5239	0.3063
880.6846	1.033
880.8452	-1.8976
881.0059	-0
881.1665	-0.3369
881.3271	-0
881.4877	-0.0407
881.6483	-0.3146
881.8088	-0.5205
881.9693	-0
882.1298	-0
882.2903	-0
