Data from MonoPyChalIsomerACN10uM350nmA_Absorbance_14-35-34-315.txt Node
Date: Fri Jul 05 14:35:34 BST 2024
User: LASERRRRR
Spectrometer: FLMT03099
Trigger mode: 0
Integration Time (sec): 1.000000E-1
Scans to average: 1
Electric dark correction enabled: true
Nonlinearity correction enabled: false
Boxcar width: 0
XAxis mode: Wavelengths
Number of Pixels in Spectrum: 3648
>>>>>Begin Spectral Data<<<<<
179.3399	0.0714
179.5586	0.0714
179.7771	0.0714
179.9957	1.5125
180.2143	-0
180.4329	-0.2335
180.6514	-0
180.8699	-0
181.0885	0.3636
181.307	0.1207
181.5255	-0.6161
181.744	-0.1156
181.9625	-0
182.181	-0
182.3994	0.3496
182.6179	-0
182.8363	-0.0379
183.0547	-0.1381
183.2732	-0.1215
183.4916	-0.004
183.71	0.0865
183.9284	-0.0751
184.1467	0.0839
184.3651	0.0509
184.5835	-0.224
184.8018	0.2475
185.0201	-0.0187
185.2385	-0.0146
185.4568	0.2826
185.6751	0.5732
185.8934	0.0556
186.1117	-0.0751
186.3299	0.0003
186.5482	0.1357
186.7664	-0.0897
186.9847	-0.0087
187.2029	-0.0312
187.4211	0.0131
187.6393	0.1737
187.8575	-0.0604
188.0757	0.1428
188.2939	0.0544
188.512	0.034
188.7302	0.0184
188.9483	0.0406
189.1665	0.223
189.3846	-0.0801
189.6027	0.3521
189.8208	0.1121
190.0389	0.1089
190.257	0.0927
190.475	0.0639
190.6931	0.1541
190.9111	0.1156
191.1292	0.1988
191.3472	0.4447
191.5652	0.1827
191.7832	0.1938
192.0012	0.5342
192.2192	0.3295
192.4371	0.8059
192.6551	0.4895
192.873	0.3979
193.091	0.2941
193.3089	0.3484
193.5268	0.3179
193.7447	0.4922
193.9626	0.4882
194.1805	0.4931
194.3984	0.7499
194.6162	0.5742
194.8341	0.4758
195.0519	0.5697
195.2697	0.9744
195.4875	0.6127
195.7054	0.5055
195.9231	0.5741
196.1409	0.6943
196.3587	0.5888
196.5765	0.6319
196.7942	0.4681
197.012	0.4311
197.2297	0.5544
197.4474	0.5318
197.6651	0.4937
197.8828	0.5818
198.1005	0.5938
198.3182	0.575
198.5358	0.8024
198.7535	0.5362
198.9711	0.4393
199.1888	0.6565
199.4064	0.6693
199.624	0.6011
199.8416	0.5559
200.0592	0.5527
200.2767	0.6172
200.4943	0.5685
200.7119	0.7307
200.9294	0.6635
201.1469	0.5903
201.3645	0.5286
201.582	0.5421
201.7995	0.5098
202.017	0.5852
202.2344	0.5731
202.4519	0.5745
202.6694	0.6091
202.8868	0.5744
203.1042	0.6467
203.3217	0.588
203.5391	0.6376
203.7565	0.5857
203.9739	0.568
204.1913	0.5911
204.4086	0.624
204.626	0.7598
204.8433	0.6424
205.0607	0.5912
205.278	0.6241
205.4953	0.5944
205.7126	0.6015
205.9299	0.6034
206.1472	0.7156
206.3644	0.6095
206.5817	0.6662
206.7989	0.7176
207.0162	0.6377
207.2334	0.6203
207.4506	0.5548
207.6678	0.6527
207.885	0.6303
208.1022	0.6361
208.3194	0.6052
208.5365	0.5691
208.7537	0.6145
208.9708	0.5511
209.1879	0.631
209.405	0.7027
209.6222	0.6016
209.8392	0.6547
210.0563	0.6113
210.2734	0.6533
210.4905	0.5752
210.7075	0.5887
210.9245	0.5487
211.1416	0.6329
211.3586	0.6405
211.5756	0.5778
211.7926	0.6308
212.0096	0.5585
212.2265	0.5515
212.4435	0.4985
212.6604	0.5472
212.8774	0.5818
213.0943	0.6031
213.3112	0.5883
213.5281	0.4915
213.745	0.5393
213.9619	0.5077
214.1788	0.4549
214.3956	0.4752
214.6125	0.4641
214.8293	0.4265
215.0461	0.4551
215.2629	0.453
215.4798	0.4564
215.6965	0.3852
215.9133	0.4286
216.1301	0.4004
216.3469	0.4219
216.5636	0.4089
216.7803	0.3834
216.9971	0.397
217.2138	0.3479
217.4305	0.3279
217.6472	0.3612
217.8639	0.3934
218.0805	0.3508
218.2972	0.2971
218.5138	0.3249
218.7305	0.3279
218.9471	0.3104
219.1637	0.2793
219.3803	0.2899
219.5969	0.2811
219.8135	0.2783
220.0301	0.2849
220.2466	0.2908
220.4632	0.2696
220.6797	0.2507
220.8962	0.2454
221.1127	0.2579
221.3292	0.2403
221.5457	0.2231
221.7622	0.2581
221.9787	0.2387
222.1951	0.2455
222.4116	0.2503
222.628	0.2442
222.8444	0.2633
223.0608	0.2318
223.2772	0.2494
223.4936	0.2714
223.71	0.2247
223.9264	0.27
224.1427	0.241
224.3591	0.2591
224.5754	0.266
224.7917	0.2814
225.008	0.2748
225.2243	0.2542
225.4406	0.2661
225.6569	0.2656
225.8732	0.2619
226.0894	0.2571
226.3057	0.2704
226.5219	0.2672
226.7381	0.2803
226.9543	0.271
227.1705	0.2819
227.3867	0.278
227.6029	0.2976
227.8191	0.2953
228.0352	0.2929
228.2513	0.3192
228.4675	0.3083
228.6836	0.2903
228.8997	0.2974
229.1158	0.304
229.3319	0.2824
229.548	0.3226
229.764	0.3183
229.9801	0.3167
230.1961	0.3221
230.4121	0.3394
230.6282	0.3543
230.8442	0.3127
231.0602	0.3446
231.2761	0.3402
231.4921	0.3384
231.7081	0.3446
231.924	0.3572
232.14	0.3705
232.3559	0.3255
232.5718	0.3555
232.7877	0.3443
233.0036	0.3382
233.2195	0.3559
233.4353	0.3536
233.6512	0.3534
233.867	0.3556
234.0829	0.3522
234.2987	0.3799
234.5145	0.3659
234.7303	0.3587
234.9461	0.3876
235.1619	0.3718
235.3776	0.3905
235.5934	0.3824
235.8091	0.3634
236.0249	0.3779
236.2406	0.3991
236.4563	0.3663
236.672	0.386
236.8877	0.4
237.1034	0.402
237.319	0.3904
237.5347	0.4146
237.7503	0.3989
237.966	0.4053
238.1816	0.4107
238.3972	0.4201
238.6128	0.4021
238.8284	0.3968
239.0439	0.4196
239.2595	0.3953
239.475	0.4012
239.6906	0.3911
239.9061	0.3962
240.1216	0.4093
240.3371	0.3958
240.5526	0.3818
240.7681	0.4142
240.9836	0.3948
241.199	0.396
241.4145	0.3729
241.6299	0.3747
241.8453	0.3694
242.0607	0.3756
242.2761	0.3434
242.4915	0.3568
242.7069	0.3583
242.9223	0.348
243.1376	0.3388
243.353	0.3362
243.5683	0.344
243.7836	0.3079
243.9989	0.3216
244.2142	0.2999
244.4295	0.2999
244.6448	0.299
244.86	0.2853
245.0753	0.2903
245.2905	0.2953
245.5057	0.2736
245.721	0.2703
245.9362	0.2617
246.1514	0.2784
246.3665	0.2571
246.5817	0.2516
246.7969	0.2406
247.012	0.235
247.2271	0.2257
247.4423	0.2336
247.6574	0.2391
247.8725	0.2341
248.0876	0.234
248.3026	0.2338
248.5177	0.2096
248.7328	0.2061
248.9478	0.1994
249.1628	0.2072
249.3779	0.2166
249.5929	0.1879
249.8079	0.2178
250.0228	0.1895
250.2378	0.1952
250.4528	0.1928
250.6677	0.1791
250.8827	0.1917
251.0976	0.2031
251.3125	0.1922
251.5274	0.1847
251.7423	0.1762
251.9572	0.1927
252.172	0.1958
252.3869	0.1786
252.6017	0.184
252.8166	0.1544
253.0314	0.1592
253.2462	0.1592
253.461	0.181
253.6758	0.1617
253.8906	0.1748
254.1053	0.1603
254.3201	0.1732
254.5348	0.1665
254.7496	0.1715
254.9643	0.1749
255.179	0.1633
255.3937	0.1654
255.6083	0.1796
255.823	0.1652
256.0377	0.1677
256.2523	0.1808
256.467	0.1586
256.6816	0.1712
256.8962	0.1595
257.1108	0.165
257.3254	0.1871
257.54	0.1644
257.7545	0.1617
257.9691	0.1692
258.1836	0.16
258.3981	0.1773
258.6127	0.1772
258.8272	0.1459
259.0417	0.1627
259.2561	0.1584
259.4706	0.1685
259.6851	0.166
259.8995	0.1625
260.114	0.1608
260.3284	0.1706
260.5428	0.157
260.7572	0.1651
260.9716	0.1728
261.186	0.1645
261.4003	0.1709
261.6147	0.1585
261.829	0.1602
262.0433	0.1654
262.2577	0.1599
262.472	0.1649
262.6863	0.1522
262.9005	0.157
263.1148	0.163
263.3291	0.1503
263.5433	0.1715
263.7576	0.1602
263.9718	0.1785
264.186	0.1614
264.4002	0.1596
264.6144	0.1558
264.8286	0.1764
265.0427	0.1661
265.2569	0.157
265.471	0.1518
265.6851	0.1524
265.8993	0.1547
266.1134	0.1447
266.3275	0.1546
266.5415	0.1505
266.7556	0.1578
266.9697	0.1687
267.1837	0.156
267.3978	0.1582
267.6118	0.157
267.8258	0.1629
268.0398	0.1526
268.2538	0.1556
268.4677	0.1618
268.6817	0.1525
268.8957	0.1616
269.1096	0.154
269.3235	0.1493
269.5374	0.1567
269.7514	0.1581
269.9652	0.1518
270.1791	0.1472
270.393	0.1461
270.6068	0.1556
270.8207	0.1401
271.0345	0.1402
271.2483	0.1503
271.4622	0.142
271.676	0.144
271.8897	0.1355
272.1035	0.1304
272.3173	0.1342
272.531	0.1338
272.7448	0.1395
272.9585	0.1326
273.1722	0.1395
273.3859	0.1472
273.5996	0.1319
273.8133	0.1542
274.0269	0.133
274.2406	0.1261
274.4542	0.1426
274.6679	0.1386
274.8815	0.1438
275.0951	0.1575
275.3087	0.1426
275.5223	0.1399
275.7358	0.1438
275.9494	0.1415
276.1629	0.1414
276.3765	0.1424
276.59	0.1455
276.8035	0.1363
277.017	0.1456
277.2305	0.128
277.444	0.1526
277.6574	0.1346
277.8709	0.1529
278.0843	0.1397
278.2978	0.1356
278.5112	0.1343
278.7246	0.1502
278.938	0.1457
279.1513	0.1466
279.3647	0.1615
279.5781	0.1385
279.7914	0.1439
280.0047	0.1557
280.2181	0.1436
280.4314	0.1495
280.6447	0.1551
280.8579	0.1452
281.0712	0.1427
281.2845	0.1476
281.4977	0.1461
281.711	0.1375
281.9242	0.1389
282.1374	0.152
282.3506	0.1365
282.5638	0.1463
282.7769	0.1475
282.9901	0.1456
283.2033	0.1474
283.4164	0.1594
283.6295	0.1494
283.8426	0.1502
284.0557	0.1477
284.2688	0.1731
284.4819	0.167
284.695	0.1544
284.908	0.1576
285.1211	0.1396
285.3341	0.1621
285.5471	0.1605
285.7601	0.1647
285.9731	0.1588
286.1861	0.1563
286.3991	0.1646
286.612	0.1516
286.825	0.1607
287.0379	0.1567
287.2508	0.159
287.4637	0.1613
287.6766	0.1588
287.8895	0.1594
288.1024	0.1709
288.3152	0.1609
288.5281	0.1429
288.7409	0.16
288.9538	0.1683
289.1666	0.1647
289.3794	0.1602
289.5922	0.1504
289.8049	0.1644
290.0177	0.1559
290.2304	0.1598
290.4432	0.1683
290.6559	0.1715
290.8686	0.1721
291.0813	0.1596
291.294	0.1636
291.5067	0.1835
291.7194	0.1632
291.932	0.184
292.1447	0.162
292.3573	0.1561
292.5699	0.1711
292.7825	0.171
292.9951	0.161
293.2077	0.1741
293.4203	0.1599
293.6328	0.1504
293.8454	0.1739
294.0579	0.1714
294.2704	0.1645
294.4829	0.1643
294.6954	0.1746
294.9079	0.1829
295.1204	0.1814
295.3328	0.1658
295.5453	0.1675
295.7577	0.1731
295.9701	0.1595
296.1825	0.1673
296.3949	0.1666
296.6073	0.1663
296.8197	0.1639
297.0321	0.1904
297.2444	0.1546
297.4567	0.1571
297.6691	0.1744
297.8814	0.1567
298.0937	0.1672
298.306	0.1665
298.5182	0.1659
298.7305	0.1624
298.9428	0.1524
299.155	0.1774
299.3672	0.1622
299.5794	0.1519
299.7916	0.1574
300.0038	0.1638
300.216	0.1664
300.4282	0.1705
300.6403	0.162
300.8525	0.1745
301.0646	0.1681
301.2767	0.1742
301.4888	0.1683
301.7009	0.1646
301.913	0.166
302.125	0.1651
302.3371	0.1617
302.5491	0.1567
302.7612	0.1702
302.9732	0.171
303.1852	0.1695
303.3972	0.16
303.6092	0.1601
303.8211	0.1477
304.0331	0.1534
304.245	0.1508
304.457	0.1412
304.6689	0.1712
304.8808	0.1702
305.0927	0.1541
305.3046	0.1516
305.5164	0.1606
305.7283	0.1512
305.9401	0.1489
306.152	0.1418
306.3638	0.1588
306.5756	0.1523
306.7874	0.156
306.9992	0.1557
307.2109	0.1499
307.4227	0.1246
307.6344	0.1485
307.8462	0.1474
308.0579	0.1396
308.2696	0.1337
308.4813	0.1295
308.693	0.1301
308.9046	0.1323
309.1163	0.1348
309.328	0.1224
309.5396	0.1233
309.7512	0.1228
309.9628	0.1365
310.1744	0.126
310.386	0.12
310.5976	0.1181
310.8091	0.125
311.0207	0.1093
311.2322	0.119
311.4437	0.1065
311.6552	0.1048
311.8667	0.1092
312.0782	0.0933
312.2897	0.1037
312.5012	0.1147
312.7126	0.1124
312.924	0.1052
313.1355	0.1083
313.3469	0.1086
313.5583	0.1082
313.7696	0.1012
313.981	0.1079
314.1924	0.1034
314.4037	0.1043
314.6151	0.1106
314.8264	0.0992
315.0377	0.0903
315.249	0.1123
315.4603	0.1062
315.6716	0.1007
315.8828	0.0896
316.0941	0.105
316.3053	0.0883
316.5165	0.0979
316.7277	0.0865
316.9389	0.0955
317.1501	0.0927
317.3613	0.1039
317.5724	0.0901
317.7836	0.1171
317.9947	0.0972
318.2058	0.0901
318.417	0.0832
318.6281	0.0871
318.8391	0.0978
319.0502	0.0805
319.2613	0.0946
319.4723	0.0952
319.6834	0.1036
319.8944	0.0887
320.1054	0.099
320.3164	0.0966
320.5274	0.0982
320.7383	0.0942
320.9493	0.1022
321.1602	0.1061
321.3712	0.0883
321.5821	0.1042
321.793	0.1007
322.0039	0.1027
322.2148	0.0865
322.4257	0.1033
322.6365	0.1144
322.8474	0.1003
323.0582	0.0944
323.269	0.103
323.4798	0.1067
323.6906	0.0942
323.9014	0.0953
324.1122	0.095
324.3229	0.0959
324.5337	0.0942
324.7444	0.0891
324.9551	0.1089
325.1658	0.0986
325.3765	0.1013
325.5872	0.0898
325.7979	0.0863
326.0085	0.1009
326.2192	0.1034
326.4298	0.1081
326.6404	0.0927
326.851	0.097
327.0616	0.1012
327.2722	0.0996
327.4828	0.1068
327.6933	0.0954
327.9039	0.1015
328.1144	0.1129
328.3249	0.1062
328.5354	0.0935
328.7459	0.094
328.9564	0.0931
329.1669	0.1013
329.3773	0.1086
329.5878	0.1027
329.7982	0.1014
330.0086	0.1056
330.219	0.0881
330.4294	0.0992
330.6398	0.0979
330.8502	0.0971
331.0605	0.1074
331.2708	0.1051
331.4812	0.116
331.6915	0.1051
331.9018	0.0944
332.1121	0.1053
332.3224	0.1027
332.5326	0.1136
332.7429	0.1157
332.9531	0.1147
333.1633	0.1087
333.3735	0.0971
333.5837	0.1113
333.7939	0.1038
334.0041	0.1101
334.2143	0.1019
334.4244	0.1084
334.6346	0.0909
334.8447	0.1204
335.0548	0.104
335.2649	0.0924
335.475	0.1064
335.685	0.0947
335.8951	0.1212
336.1051	0.1119
336.3152	0.1102
336.5252	0.0951
336.7352	0.1047
336.9452	0.1194
337.1552	0.1017
337.3652	0.1176
337.5751	0.1088
337.7851	0.1139
337.995	0.1013
338.2049	0.1127
338.4148	0.1123
338.6247	0.1171
338.8346	0.1092
339.0445	0.1073
339.2543	0.1161
339.4642	0.1157
339.674	0.1087
339.8838	0.1184
340.0936	0.1045
340.3034	0.1194
340.5132	0.1071
340.7229	0.1137
340.9327	0.1257
341.1424	0.1127
341.3522	0.1265
341.5619	0.112
341.7716	0.1269
341.9813	0.1121
342.1909	0.1147
342.4006	0.123
342.6102	0.1319
342.8199	0.1207
343.0295	0.1218
343.2391	0.1233
343.4487	0.1282
343.6583	0.1229
343.8679	0.1076
344.0774	0.1305
344.287	0.1246
344.4965	0.1233
344.706	0.1289
344.9155	0.1269
345.125	0.1136
345.3345	0.1314
345.544	0.1225
345.7534	0.1235
345.9629	0.1189
346.1723	0.1324
346.3817	0.1144
346.5911	0.1307
346.8005	0.1315
347.0099	0.1192
347.2193	0.1254
347.4286	0.1221
347.638	0.1453
347.8473	0.1283
348.0566	0.1229
348.2659	0.1383
348.4752	0.1384
348.6845	0.1305
348.8937	0.1213
349.103	0.1326
349.3122	0.127
349.5214	0.1216
349.7306	0.13
349.9398	0.1262
350.149	0.1343
350.3582	0.1309
350.5674	0.1486
350.7765	0.1394
350.9856	0.1343
351.1948	0.1444
351.4039	0.1118
351.613	0.1314
351.822	0.1472
352.0311	0.1481
352.2402	0.1412
352.4492	0.1515
352.6582	0.1483
352.8672	0.1425
353.0762	0.1486
353.2852	0.1431
353.4942	0.1287
353.7032	0.1476
353.9121	0.1605
354.1211	0.1392
354.33	0.1464
354.5389	0.1558
354.7478	0.1535
354.9567	0.1554
355.1655	0.1318
355.3744	0.1605
355.5833	0.1495
355.7921	0.1656
356.0009	0.1517
356.2097	0.1699
356.4185	0.1581
356.6273	0.1597
356.8361	0.1604
357.0448	0.1462
357.2536	0.153
357.4623	0.1491
357.671	0.162
357.8797	0.1582
358.0884	0.1733
358.2971	0.1629
358.5057	0.168
358.7144	0.1759
358.923	0.1665
359.1316	0.1763
359.3402	0.168
359.5488	0.1658
359.7574	0.1724
359.966	0.1847
360.1746	0.1773
360.3831	0.1802
360.5916	0.1828
360.8002	0.1587
361.0087	0.1919
361.2172	0.1714
361.4256	0.1821
361.6341	0.1846
361.8426	0.1786
362.051	0.1866
362.2594	0.1864
362.4678	0.1768
362.6762	0.194
362.8846	0.1882
363.093	0.1852
363.3014	0.1751
363.5097	0.171
363.718	0.1866
363.9264	0.1808
364.1347	0.1748
364.343	0.1859
364.5513	0.2122
364.7595	0.2055
364.9678	0.191
365.176	0.2018
365.3842	0.1823
365.5925	0.1987
365.8007	0.1982
366.0089	0.1934
366.217	0.1832
366.4252	0.2001
366.6333	0.2175
366.8415	0.1962
367.0496	0.2082
367.2577	0.2248
367.4658	0.2137
367.6739	0.2077
367.882	0.2176
368.09	0.1885
368.2981	0.2207
368.5061	0.1925
368.7141	0.2203
368.9221	0.2245
369.1301	0.2137
369.3381	0.2159
369.5461	0.2063
369.754	0.2189
369.962	0.2412
370.1699	0.2193
370.3778	0.2234
370.5857	0.203
370.7936	0.2217
371.0015	0.2189
371.2093	0.2291
371.4172	0.2374
371.625	0.2171
371.8328	0.2092
372.0406	0.226
372.2484	0.2049
372.4562	0.2284
372.664	0.2258
372.8717	0.2171
373.0795	0.2133
373.2872	0.2294
373.4949	0.2326
373.7026	0.243
373.9103	0.2145
374.118	0.242
374.3256	0.2266
374.5333	0.2188
374.7409	0.2283
374.9485	0.2408
375.1561	0.2542
375.3637	0.2447
375.5713	0.2382
375.7789	0.2268
375.9864	0.2419
376.194	0.2278
376.4015	0.2294
376.609	0.2453
376.8165	0.2462
377.024	0.2453
377.2315	0.2292
377.4389	0.2549
377.6464	0.2535
377.8538	0.258
378.0612	0.24
378.2686	0.2553
378.476	0.2552
378.6834	0.2548
378.8908	0.2446
379.0981	0.2339
379.3055	0.2384
379.5128	0.2405
379.7201	0.2628
379.9274	0.2398
380.1347	0.2407
380.342	0.2647
380.5492	0.2446
380.7565	0.2739
380.9637	0.2735
381.1709	0.2569
381.3781	0.2572
381.5853	0.2627
381.7925	0.2562
381.9997	0.2698
382.2068	0.2539
382.4139	0.2503
382.6211	0.2275
382.8282	0.2664
383.0353	0.2465
383.2424	0.2593
383.4494	0.2675
383.6565	0.2376
383.8635	0.2529
384.0706	0.2579
384.2776	0.281
384.4846	0.2542
384.6916	0.2508
384.8986	0.2663
385.1055	0.2604
385.3125	0.2638
385.5194	0.2435
385.7263	0.2656
385.9333	0.2565
386.1402	0.2585
386.347	0.2546
386.5539	0.251
386.7608	0.2705
386.9676	0.2441
387.1744	0.2571
387.3813	0.2502
387.5881	0.2822
387.7948	0.247
388.0016	0.2618
388.2084	0.2538
388.4151	0.2542
388.6219	0.2726
388.8286	0.2596
389.0353	0.273
389.242	0.2564
389.4487	0.2628
389.6553	0.2452
389.862	0.2339
390.0686	0.2468
390.2753	0.2774
390.4819	0.2584
390.6885	0.2489
390.8951	0.2656
391.1016	0.2466
391.3082	0.2343
391.5147	0.2472
391.7213	0.2412
391.9278	0.2492
392.1343	0.2491
392.3408	0.2482
392.5473	0.2372
392.7537	0.2369
392.9602	0.2483
393.1666	0.2348
393.373	0.2401
393.5794	0.2449
393.7858	0.2381
393.9922	0.2248
394.1986	0.2374
394.4049	0.2346
394.6113	0.2141
394.8176	0.2172
395.0239	0.2283
395.2302	0.2395
395.4365	0.2249
395.6428	0.227
395.8491	0.2166
396.0553	0.2247
396.2615	0.2334
396.4678	0.2195
396.674	0.2063
396.8802	0.213
397.0863	0.2525
397.2925	0.2208
397.4987	0.2158
397.7048	0.2109
397.9109	0.2153
398.117	0.206
398.3231	0.2078
398.5292	0.2179
398.7353	0.2254
398.9413	0.2161
399.1474	0.2181
399.3534	0.2231
399.5594	0.198
399.7654	0.227
399.9714	0.2257
400.1774	0.2115
400.3833	0.2202
400.5893	0.2192
400.7952	0.2305
401.0011	0.2291
401.207	0.2209
401.4129	0.2103
401.6188	0.2307
401.8247	0.216
402.0305	0.2249
402.2364	0.2044
402.4422	0.231
402.648	0.2274
402.8538	0.2219
403.0596	0.1991
403.2654	0.2241
403.4711	0.2102
403.6768	0.2241
403.8826	0.225
404.0883	0.2359
404.294	0.2084
404.4997	0.2181
404.7054	0.227
404.911	0.2162
405.1167	0.2219
405.3223	0.2413
405.5279	0.2332
405.7335	0.2277
405.9391	0.2464
406.1447	0.2038
406.3502	0.2345
406.5558	0.2289
406.7613	0.247
406.9668	0.2458
407.1724	0.2076
407.3778	0.2132
407.5833	0.2268
407.7888	0.2075
407.9942	0.2236
408.1997	0.2254
408.4051	0.218
408.6105	0.234
408.8159	0.2122
409.0213	0.2073
409.2267	0.2406
409.432	0.2045
409.6374	0.2162
409.8427	0.2177
410.048	0.2253
410.2533	0.2023
410.4586	0.2085
410.6639	0.2147
410.8691	0.1999
411.0744	0.2036
411.2796	0.2138
411.4848	0.2103
411.69	0.2125
411.8952	0.2429
412.1004	0.2001
412.3056	0.2195
412.5107	0.2037
412.7158	0.2339
412.921	0.2149
413.1261	0.2338
413.3312	0.1944
413.5362	0.2122
413.7413	0.2184
413.9464	0.2167
414.1514	0.2201
414.3564	0.2107
414.5614	0.1962
414.7664	0.2075
414.9714	0.2077
415.1764	0.2053
415.3813	0.2355
415.5863	0.199
415.7912	0.2133
415.9961	0.211
416.201	0.2318
416.4059	0.2171
416.6108	0.2105
416.8156	0.2123
417.0205	0.2079
417.2253	0.1878
417.4301	0.2164
417.6349	0.2209
417.8397	0.1921
418.0445	0.2066
418.2492	0.2265
418.454	0.2171
418.6587	0.218
418.8634	0.2023
419.0681	0.2016
419.2728	0.191
419.4775	0.1858
419.6822	0.204
419.8868	0.1666
420.0915	0.1849
420.2961	0.1884
420.5007	0.2052
420.7053	0.1898
420.9099	0.2026
421.1144	0.2113
421.319	0.2034
421.5235	0.2011
421.728	0.1957
421.9325	0.201
422.137	0.2034
422.3415	0.186
422.546	0.1886
422.7504	0.1982
422.9549	0.2015
423.1593	0.1899
423.3637	0.2004
423.5681	0.1999
423.7725	0.1809
423.9769	0.1754
424.1812	0.1735
424.3856	0.1833
424.5899	0.1858
424.7942	0.1822
424.9985	0.2001
425.2028	0.1715
425.4071	0.1975
425.6113	0.1595
425.8156	0.1763
426.0198	0.1859
426.224	0.1659
426.4282	0.1751
426.6324	0.161
426.8366	0.1823
427.0407	0.1558
427.2449	0.1509
427.449	0.1804
427.6531	0.1416
427.8572	0.1589
428.0613	0.1435
428.2654	0.1686
428.4694	0.1468
428.6735	0.1499
428.8775	0.1664
429.0815	0.17
429.2855	0.1394
429.4895	0.1592
429.6935	0.1561
429.8975	0.165
430.1014	0.1507
430.3053	0.1385
430.5093	0.1401
430.7132	0.1353
430.9171	0.1499
431.1209	0.1397
431.3248	0.1383
431.5286	0.1546
431.7325	0.1509
431.9363	0.1274
432.1401	0.1476
432.3439	0.1343
432.5477	0.1115
432.7514	0.1264
432.9552	0.1343
433.1589	0.1228
433.3627	0.1352
433.5664	0.1395
433.7701	0.119
433.9737	0.1236
434.1774	0.1205
434.3811	0.1286
434.5847	0.1234
434.7883	0.1165
434.9919	0.1068
435.1955	0.1177
435.3991	0.11
435.6027	0.1185
435.8062	0.1083
436.0098	0.0962
436.2133	0.1044
436.4168	0.093
436.6203	0.085
436.8238	0.1163
437.0272	0.0962
437.2307	0.0981
437.4341	0.1106
437.6375	0.0951
437.841	0.089
438.0443	0.1011
438.2477	0.0945
438.4511	0.0847
438.6545	0.0956
438.8578	0.0913
439.0611	0.0871
439.2644	0.0866
439.4677	0.0861
439.671	0.0687
439.8743	0.0854
440.0775	0.0967
440.2808	0.0728
440.484	0.0683
440.6872	0.0749
440.8904	0.0759
441.0936	0.0899
441.2967	0.071
441.4999	0.0706
441.703	0.0628
441.9062	0.0643
442.1093	0.0561
442.3124	0.0677
442.5155	0.0522
442.7185	0.0591
442.9216	0.0366
443.1246	0.0548
443.3276	0.0613
443.5307	0.062
443.7337	0.0597
443.9366	0.05
444.1396	0.0667
444.3426	0.0671
444.5455	0.0508
444.7484	0.0488
444.9513	0.0458
445.1542	0.0585
445.3571	0.055
445.56	0.0517
445.7628	0.048
445.9657	0.0439
446.1685	0.0591
446.3713	0.0496
446.5741	0.0462
446.7769	0.0244
446.9797	0.0395
447.1824	0.0379
447.3852	0.0389
447.5879	0.0577
447.7906	0.0427
447.9933	0.0384
448.196	0.0274
448.3986	0.0345
448.6013	0.0241
448.8039	0.0256
449.0066	0.0191
449.2092	0.0362
449.4118	0.0293
449.6143	0.0295
449.8169	0.0417
450.0195	0.0264
450.222	0.0119
450.4245	0.0278
450.627	0.0359
450.8295	0.0217
451.032	0.0125
451.2345	0.0349
451.4369	0.0375
451.6394	0.0236
451.8418	0.0142
452.0442	0.0147
452.2466	0.0324
452.449	0.0093
452.6513	0.018
452.8537	0.0266
453.056	-0.0012
453.2583	0.0142
453.4607	0.0106
453.663	0.0248
453.8652	0.0298
454.0675	0.0014
454.2697	0.0324
454.472	0.0122
454.6742	0.0218
454.8764	0.0277
455.0786	0.011
455.2808	0.0277
455.4829	0.0191
455.6851	0.007
455.8872	0.0057
456.0893	0.019
456.2915	-0.0071
456.4935	0.0211
456.6956	0.0065
456.8977	0.0161
457.0997	-0.0104
457.3018	0.011
457.5038	0.0166
457.7058	0.0145
457.9078	0.0088
458.1098	0.015
458.3117	0.0179
458.5137	-0.004
458.7156	0.0146
458.9175	-0.0023
459.1194	0.012
459.3213	0.0084
459.5232	0.0041
459.725	-0.0089
459.9269	-0.011
460.1287	0.0026
460.3305	-0.0031
460.5323	-0.0041
460.7341	0.0105
460.9359	0.0057
461.1376	0.0137
461.3394	-0.0046
461.5411	0.0116
461.7428	-0.0012
461.9445	0.0204
462.1462	0.0238
462.3479	-0.0044
462.5495	0.0093
462.7512	-0.0024
462.9528	-0.0116
463.1544	-0.012
463.356	-0.0022
463.5576	0.0098
463.7592	0.0107
463.9607	-0.0069
464.1623	0.027
464.3638	0.021
464.5653	-0.0091
464.7668	-0.0079
464.9683	0.0139
465.1697	0.0189
465.3712	0.0036
465.5726	-0.0089
465.7741	0.0111
465.9755	-0.0135
466.1769	-0.0001
466.3782	-0.0109
466.5796	0.0031
466.7809	0.0173
466.9823	-0.013
467.1836	-0.0027
467.3849	-0.0011
467.5862	0.0005
467.7875	0.0059
467.9887	0.0077
468.19	-0.0125
468.3912	-0.0035
468.5924	-0.0144
468.7936	-0.0047
468.9948	0.0067
469.196	0.0052
469.3972	-0.0036
469.5983	0.0094
469.7994	-0.0048
470.0006	0.001
470.2017	-0.0085
470.4027	-0.0084
470.6038	0.003
470.8049	-0.0105
471.0059	-0.0035
471.2069	-0.0275
471.408	0.0007
471.6089	-0.0021
471.8099	-0.0028
472.0109	0.0136
472.2119	-0.0102
472.4128	-0.0099
472.6137	0.002
472.8146	-0.0113
473.0155	-0.0043
473.2164	-0.0022
473.4173	-0.0073
473.6181	0.0059
473.819	0.0017
474.0198	-0.0145
474.2206	-0.0071
474.4214	-0.0099
474.6222	0.0098
474.8229	-0.0103
475.0237	-0.0222
475.2244	-0.0082
475.4251	-0.0083
475.6258	-0.0096
475.8265	-0.0116
476.0272	-0.0028
476.2278	-0.0054
476.4285	-0.0037
476.6291	-0.0137
476.8297	-0.008
477.0303	-0.0108
477.2309	-0.0031
477.4315	-0.0123
477.632	0.001
477.8326	-0.0097
478.0331	-0.0034
478.2336	-0.003
478.4341	0.0023
478.6346	0.0026
478.8351	-0.0003
479.0355	-0.003
479.236	-0.0098
479.4364	0
479.6368	-0.0028
479.8372	-0.0077
480.0376	-0.0089
480.2379	-0.031
480.4383	-0.0147
480.6386	-0.0059
480.8389	-0.009
481.0392	-0.0046
481.2395	0.0009
481.4398	-0.0025
481.6401	0.0017
481.8403	-0.016
482.0405	-0.0063
482.2408	-0.0054
482.441	-0.0029
482.6411	-0.0022
482.8413	-0.0041
483.0415	-0.0042
483.2416	0.0023
483.4417	-0.0152
483.6419	-0.0038
483.8419	-0.0049
484.042	0.0037
484.2421	-0.0031
484.4422	0.0022
484.6422	-0.0025
484.8422	-0.0044
485.0422	-0.0095
485.2422	0.0034
485.4422	-0.0118
485.6422	-0.0104
485.8421	0.0046
486.042	-0.0134
486.242	0.0023
486.4419	-0.0169
486.6417	-0.014
486.8416	0.0002
487.0415	-0.0061
487.2413	-0.0025
487.4411	-0.0025
487.641	-0.0148
487.8408	-0.0083
488.0405	-0.0074
488.2403	-0.0022
488.4401	-0.0093
488.6398	0.0055
488.8395	-0.0093
489.0392	-0.0002
489.2389	-0.0127
489.4386	-0.0018
489.6383	-0.0194
489.8379	0.0008
490.0376	-0.0195
490.2372	0.0022
490.4368	-0.0146
490.6364	-0.0024
490.836	-0.0114
491.0355	-0.0135
491.2351	-0.0113
491.4346	0.0019
491.6341	-0.0193
491.8336	-0.0002
492.0331	-0.0152
492.2326	-0.0144
492.432	0.005
492.6315	-0.0081
492.8309	-0.0126
493.0303	-0.0087
493.2297	-0.0172
493.4291	0.0037
493.6284	-0.0062
493.8278	-0.0035
494.0271	0.0023
494.2264	0.0021
494.4257	-0.0141
494.625	0.0112
494.8243	-0.0224
495.0236	-0.0013
495.2228	-0.0105
495.422	-0.0051
495.6213	-0.0082
495.8205	-0.0052
496.0196	0.0016
496.2188	-0.0056
496.418	-0.0124
496.6171	-0.0166
496.8162	-0.0163
497.0153	0.0033
497.2144	-0.0084
497.4135	-0.0022
497.6126	-0.0146
497.8116	-0.0114
498.0107	0.004
498.2097	-0.0122
498.4087	-0.0239
498.6077	-0.0031
498.8067	-0.0063
499.0056	0.0004
499.2046	-0.013
499.4035	-0.0234
499.6024	-0.0081
499.8013	-0.0059
500.0002	-0.0083
500.199	-0.0125
500.3979	-0.0075
500.5967	-0.0228
500.7956	-0.002
500.9944	-0.008
501.1932	-0.008
501.3919	-0.0179
501.5907	-0.0102
501.7895	-0.0062
501.9882	-0.0124
502.1869	-0.0112
502.3856	-0.0048
502.5843	-0.0103
502.783	-0.0022
502.9816	-0.0091
503.1803	-0.0093
503.3789	-0.0102
503.5775	-0.0024
503.7761	-0.0082
503.9747	-0.0007
504.1732	-0.011
504.3718	0.0013
504.5703	-0.0018
504.7689	-0.0107
504.9674	-0.0075
505.1658	-0.014
505.3643	-0.0062
505.5628	-0.0152
505.7612	-0.0026
505.9597	-0.0011
506.1581	-0.0156
506.3565	0.0061
506.5549	-0.0172
506.7532	-0.0158
506.9516	-0.001
507.1499	-0.012
507.3482	-0.0141
507.5465	-0.0182
507.7448	-0.0057
507.9431	-0.002
508.1414	0.0019
508.3396	-0.0058
508.5379	-0.0023
508.7361	-0.0184
508.9343	-0.0025
509.1325	0.0041
509.3306	0.0004
509.5288	-0.0087
509.7269	-0.0145
509.9251	-0.0037
510.1232	-0.0096
510.3213	-0.0086
510.5193	0.0002
510.7174	-0.0154
510.9154	-0.0084
511.1135	-0.0133
511.3115	-0.0013
511.5095	0.0002
511.7075	-0.0015
511.9055	-0.008
512.1034	-0.0056
512.3014	-0.0068
512.4993	-0.0028
512.6972	-0.0154
512.8951	-0.0189
513.093	-0.0072
513.2908	0.0069
513.4887	-0.0072
513.6865	-0.0063
513.8844	-0.0084
514.0822	-0.0112
514.2799	-0.0042
514.4777	-0.0084
514.6755	-0.0106
514.8732	-0.0149
515.0709	-0.0103
515.2687	0.0047
515.4664	0.0006
515.664	-0.0002
515.8617	-0.0126
516.0594	-0.0152
516.257	-0.0138
516.4546	-0.0223
516.6522	-0.0076
516.8498	-0.0006
517.0474	0.0008
517.2449	-0.0051
517.4425	-0.0097
517.64	-0.0121
517.8375	0.0052
518.035	-0.0094
518.2325	-0.0153
518.43	-0.0038
518.6274	-0.0062
518.8249	-0.017
519.0223	-0.0031
519.2197	-0.007
519.4171	-0.009
519.6145	-0.0124
519.8118	0.0038
520.0092	-0.0028
520.2065	-0.0102
520.4038	-0.0162
520.6011	0.0017
520.7984	-0.0053
520.9956	-0.0012
521.1929	-0.0166
521.3901	-0.0013
521.5874	-0.004
521.7846	-0.0083
521.9818	-0.0151
522.1789	-0.0171
522.3761	-0.0044
522.5732	-0.0091
522.7704	0.0002
522.9675	0.0044
523.1646	-0.0129
523.3617	-0.0103
523.5587	-0.0083
523.7558	-0.0076
523.9528	-0.006
524.1498	-0.0043
524.3468	0.0032
524.5438	-0.0091
524.7408	-0.0117
524.9378	0.0083
525.1347	-0.0049
525.3316	0.003
525.5285	-0.0083
525.7254	-0.005
525.9223	0.0004
526.1192	-0.0063
526.316	-0.0142
526.5129	-0.0017
526.7097	-0.0084
526.9065	-0.0129
527.1033	-0.0069
527.3	0.0016
527.4968	-0.0132
527.6935	-0.0014
527.8903	-0.0149
528.087	-0.0009
528.2837	-0.0057
528.4804	-0.0025
528.677	-0.0128
528.8737	0.0021
529.0703	-0.0017
529.2669	-0.0037
529.4635	-0.0029
529.6601	-0.0113
529.8567	-0.0101
530.0532	-0.013
530.2498	0.0072
530.4463	-0.0018
530.6428	-0.0016
530.8393	0.0016
531.0358	-0.0098
531.2322	-0.0026
531.4287	-0.0078
531.6251	-0.0092
531.8215	-0.0039
532.0179	-0.0053
532.2143	-0.0018
532.4107	-0.0017
532.607	-0.0067
532.8034	-0.0063
532.9997	-0.0006
533.196	-0.0053
533.3923	-0.0073
533.5886	0.0061
533.7848	0.0022
533.9811	-0.0061
534.1773	0.0105
534.3735	0.0015
534.5697	0.0013
534.7659	-0.0117
534.9621	-0.0011
535.1582	-0.0083
535.3544	-0.0091
535.5505	-0.0108
535.7466	-0.0122
535.9427	-0.0073
536.1387	-0.0101
536.3348	-0.0133
536.5308	0.0024
536.7269	-0.0113
536.9229	0.0018
537.1189	-0.004
537.3148	-0.0027
537.5108	-0.0162
537.7068	-0.0037
537.9027	-0.0045
538.0986	-0.0018
538.2945	-0.005
538.4904	-0.0061
538.6863	0.0001
538.8821	-0.0019
539.078	-0.0153
539.2738	0.0035
539.4696	-0.0048
539.6654	0.0043
539.8611	0.007
540.0569	-0.0053
540.2526	-0.0098
540.4484	-0.0013
540.6441	0.0074
540.8398	-0.0038
541.0355	0.0043
541.2311	0.003
541.4268	-0.0086
541.6224	0.0019
541.818	0.0004
542.0136	-0.0067
542.2092	-0.0031
542.4048	0.0062
542.6003	0.0045
542.7959	-0.0059
542.9914	0.0002
543.1869	0.0002
543.3824	0.0026
543.5779	-0.0112
543.7734	-0.0077
543.9688	0.0006
544.1642	0.0014
544.3596	-0.0006
544.555	-0.0068
544.7504	0.0023
544.9458	-0.0062
545.1411	-0.0037
545.3365	-0.0043
545.5318	-0.0002
545.7271	-0.0022
545.9224	-0.0024
546.1177	-0.0065
546.3129	0.0054
546.5081	-0.007
546.7034	-0.0056
546.8986	-0.0098
547.0938	-0.0098
547.289	-0.0004
547.4841	-0.0098
547.6793	0.0156
547.8744	-0.0128
548.0695	-0.0073
548.2646	-0.0038
548.4597	0.0014
548.6548	0.0076
548.8498	0.0002
549.0448	0.0066
549.2399	-0.0075
549.4349	-0.0014
549.6298	-0.0052
549.8248	-0.0002
550.0198	-0.0059
550.2147	-0.0118
550.4096	-0.0079
550.6045	-0.0037
550.7994	-0.0029
550.9943	-0.0011
551.1892	-0.0074
551.384	0.0027
551.5788	-0.0079
551.7737	0.0002
551.9685	-0.0053
552.1632	0.0088
552.358	0.0021
552.5528	-0.0007
552.7475	-0.0027
552.9422	-0.0027
553.1369	-0.0096
553.3316	-0.0057
553.5263	-0.0165
553.7209	0.0111
553.9156	-0.0044
554.1102	-0.0074
554.3048	-0.0101
554.4994	0.0117
554.694	-0.0068
554.8885	0.0062
555.0831	-0.0071
555.2776	-0.0077
555.4721	-0.0054
555.6666	-0.0028
555.8611	0.0035
556.0555	0.0004
556.25	-0.0079
556.4444	-0.0035
556.6388	-0.0029
556.8332	-0.0013
557.0276	0.0009
557.222	-0.0022
557.4163	-0.0028
557.6107	-0.0105
557.805	0.0059
557.9993	-0.012
558.1936	0.0007
558.3879	-0.0013
558.5821	-0.0087
558.7764	-0.0068
558.9706	0.001
559.1648	-0.005
559.359	-0.0058
559.5532	-0.0063
559.7473	-0.0001
559.9415	0.0034
560.1356	-0.0021
560.3297	-0.0091
560.5238	-0.009
560.7179	-0.007
560.9119	-0.0049
561.106	-0.0081
561.3	-0.0121
561.494	0.001
561.688	-0.0075
561.882	-0.0196
562.076	-0.0085
562.2699	0.0073
562.4639	-0.0051
562.6578	-0.0074
562.8517	-0.0079
563.0456	0.0015
563.2395	-0.0007
563.4333	0.0039
563.6272	0.0063
563.821	-0.003
564.0148	-0.0036
564.2086	-0.0085
564.4024	-0.0027
564.5961	-0.0101
564.7899	0.006
564.9836	-0.0055
565.1773	-0.0001
565.371	0.0027
565.5647	0
565.7584	0.0038
565.952	0.0003
566.1456	-0.001
566.3393	0.0037
566.5329	-0.0065
566.7264	0.0027
566.92	-0.0053
567.1136	0.0046
567.3071	-0.005
567.5006	0.0021
567.6941	0.0043
567.8876	-0.0008
568.0811	-0.0004
568.2745	-0.0047
568.468	0.0044
568.6614	0.0051
568.8548	-0.0029
569.0482	0.0029
569.2416	0.0015
569.4349	0.0058
569.6283	0.0067
569.8216	-0.0065
570.0149	0.0035
570.2082	-0.0003
570.4015	-0.0004
570.5947	0.0043
570.788	0.0053
570.9812	-0.0006
571.1744	-0.0077
571.3676	-0.0111
571.5608	-0.0011
571.754	0.0057
571.9471	-0.001
572.1402	0.0006
572.3333	0.0023
572.5264	-0.0061
572.7195	0.001
572.9126	0.0071
573.1057	-0.0008
573.2987	-0.0088
573.4917	0.0044
573.6847	-0.0059
573.8777	0.0039
574.0707	0.0095
574.2636	-0.0048
574.4566	-0.0055
574.6495	0.0046
574.8424	0.0028
575.0353	-0.0012
575.2281	0.0064
575.421	-0.004
575.6138	0.0081
575.8067	-0.0024
575.9995	-0.0028
576.1923	0.0049
576.385	0.0018
576.5778	0.0007
576.7706	0.0007
576.9633	0.0021
577.156	0.0053
577.3487	0
577.5414	-0.0013
577.734	-0.0052
577.9267	0.0125
578.1193	-0.0119
578.3119	-0.009
578.5045	-0.0004
578.6971	-0.0043
578.8897	0.0016
579.0822	0.0018
579.2747	0.0022
579.4673	-0.0066
579.6598	-0.0039
579.8522	0.0002
580.0447	-0.0032
580.2372	-0.0062
580.4296	0.0028
580.622	0.0007
580.8144	0.0004
581.0068	-0.0023
581.1992	-0.0105
581.3915	-0.0031
581.5839	-0.0132
581.7762	-0.0069
581.9685	-0.0035
582.1608	0.0041
582.353	-0.0007
582.5453	0.0038
582.7375	0.0008
582.9298	0.0007
583.122	-0.0024
583.3142	0.0053
583.5063	-0.004
583.6985	-0.0038
583.8906	-0.0019
584.0827	-0.0048
584.2749	0.0036
584.4669	-0.0031
584.659	0.002
584.8511	-0.0052
585.0431	-0.0013
585.2352	0.0042
585.4272	-0.0006
585.6192	0.0036
585.8111	-0.0053
586.0031	-0.0022
586.195	0.0003
586.387	0.0053
586.5789	-0.0041
586.7708	-0.0031
586.9627	-0.0061
587.1545	-0.0035
587.3464	0.0056
587.5382	0.0017
587.73	0.0023
587.9218	0.0016
588.1136	0.0008
588.3053	0.0005
588.4971	-0.003
588.6888	-0.0118
588.8805	0.0005
589.0722	0.0062
589.2639	0.0008
589.4556	0.0008
589.6472	-0.0033
589.8389	-0.0015
590.0305	-0.0155
590.2221	0.0002
590.4137	-0.0089
590.6052	-0.0004
590.7968	0.0052
590.9883	0.0025
591.1798	-0.0017
591.3713	-0.0019
591.5628	0.0033
591.7543	0.0047
591.9458	-0.0037
592.1372	0.0093
592.3286	0.0054
592.52	0.0104
592.7114	-0.0081
592.9028	-0.0005
593.0941	0.0018
593.2855	-0.0001
593.4768	-0.0007
593.6681	-0.0023
593.8594	-0.003
594.0506	0.0048
594.2419	0.009
594.4331	0.006
594.6244	0.0015
594.8156	-0.0036
595.0067	0.0009
595.1979	-0.0016
595.3891	-0.0006
595.5802	-0.0028
595.7713	-0.0077
595.9624	-0.0049
596.1535	0.0045
596.3446	-0.0013
596.5357	-0.0047
596.7267	0.0022
596.9177	-0.0063
597.1087	-0.0006
597.2997	-0.0028
597.4907	0.0013
597.6817	-0.0063
597.8726	0.0013
598.0635	-0.0017
598.2544	0.0003
598.4453	-0.0038
598.6362	-0.0107
598.827	-0.0065
599.0179	0.0002
599.2087	0.0051
599.3995	0.0017
599.5903	-0.0047
599.7811	-0.0024
599.9718	0.0036
600.1626	-0.0047
600.3533	-0.0064
600.544	0.0025
600.7347	-0.0017
600.9254	-0.0004
601.116	-0.0043
601.3067	-0.0023
601.4973	-0.008
601.6879	0.0111
601.8785	-0.0067
602.0691	0.0059
602.2596	0.0033
602.4502	-0.0026
602.6407	-0.0015
602.8312	0.0017
603.0217	-0.0094
603.2122	0.003
603.4027	0.0014
603.5931	-0.0031
603.7835	-0.0025
603.9739	-0.006
604.1643	0
604.3547	-0.0006
604.5451	0.0063
604.7354	-0.0013
604.9257	0.0011
605.116	-0.0027
605.3063	0.0034
605.4966	0.0009
605.6869	0.0034
605.8771	0.0044
606.0673	0.0074
606.2575	0.0065
606.4477	0.0116
606.6379	0.0032
606.8281	0.0046
607.0182	-0
607.2083	0.0084
607.3985	-0.004
607.5885	0.0035
607.7786	0.0026
607.9687	-0.0028
608.1587	0.0033
608.3488	0.0091
608.5388	0.0012
608.7288	0.001
608.9187	-0.0041
609.1087	0.0001
609.2986	-0.0097
609.4886	-0.0024
609.6785	-0.0018
609.8684	0.0004
610.0582	0.0009
610.2481	0.001
610.4379	0.0001
610.6278	-0.008
610.8176	0.0005
611.0074	-0.0027
611.1971	-0.002
611.3869	-0
611.5766	-0.0062
611.7664	0.0034
611.9561	0.0014
612.1458	-0.0031
612.3354	-0.006
612.5251	-0.0066
612.7147	0.0016
612.9044	0.0034
613.094	-0.0076
613.2836	0.0007
613.4731	-0.0093
613.6627	-0.0042
613.8522	0.0043
614.0417	0.0013
614.2313	0.0014
614.4207	-0.0007
614.6102	0.0045
614.7997	0.0009
614.9891	-0.0059
615.1785	-0.0036
615.3679	-0.0009
615.5573	0.004
615.7467	-0.0016
615.9361	-0.0033
616.1254	-0.001
616.3147	0.0031
616.504	0.0076
616.6933	0.0084
616.8826	0.0036
617.0718	0.0052
617.2611	0.0027
617.4503	-0.0034
617.6395	-0.0025
617.8287	0.0016
618.0179	-0.0026
618.207	0.0096
618.3961	-0.0025
618.5853	0.0018
618.7744	-0.0027
618.9634	0.0028
619.1525	0.0001
619.3416	0.0036
619.5306	-0.0011
619.7196	0.0051
619.9086	-0.005
620.0976	0.0045
620.2866	-0.0027
620.4755	0.006
620.6645	0.0019
620.8534	0.0085
621.0423	-0.003
621.2312	-0.0013
621.42	-0.0036
621.6089	-0.0014
621.7977	0.0045
621.9865	-0.0001
622.1753	0.0112
622.3641	-0.0008
622.5529	0.0054
622.7416	0.0052
622.9303	-0.0076
623.1191	0.0034
623.3078	-0.0008
623.4964	0.0012
623.6851	0.0016
623.8737	-0.0054
624.0624	0.0028
624.251	-0.0036
624.4396	0.0004
624.6282	0.0014
624.8167	0.0012
625.0053	0.0037
625.1938	0.0108
625.3823	0.0051
625.5708	-0.0022
625.7593	-0.0046
625.9477	-0.0073
626.1362	-0.0033
626.3246	0.0025
626.513	-0.0027
626.7014	0.0026
626.8898	-0.0042
627.0781	0.0039
627.2665	-0.0015
627.4548	0.0089
627.6431	0.0074
627.8314	0.0036
628.0197	0.0077
628.2079	-0.0024
628.3962	0.0014
628.5844	-0.0013
628.7726	0.0035
628.9608	0.0044
629.1489	0.0013
629.3371	0.0011
629.5252	-0.0031
629.7134	0.0119
629.9015	0.0057
630.0895	0.0082
630.2776	0.0098
630.4657	-0.0019
630.6537	-0.0044
630.8417	-0.0035
631.0297	-0.004
631.2177	-0.0053
631.4057	-0.0142
631.5936	0
631.7815	-0.0018
631.9695	-0.0024
632.1574	0.0096
632.3452	0.0092
632.5331	0.0042
632.7209	0.0076
632.9088	0.0057
633.0966	0.0064
633.2844	-0.0099
633.4722	-0.0041
633.6599	0.0022
633.8477	0.0014
634.0354	-0.0007
634.2231	0.0043
634.4108	0.0023
634.5985	0.0101
634.7861	0.004
634.9738	0.0052
635.1614	0.0019
635.349	0.0047
635.5366	0.0024
635.7242	0.0049
635.9117	0.0081
636.0993	0.0003
636.2868	0.0042
636.4743	-0.0035
636.6618	0.0046
636.8492	-0.0012
637.0367	-0.0017
637.2241	-0.0024
637.4115	0.0019
637.5989	-0
637.7863	-0.001
637.9737	-0.0082
638.161	0.0022
638.3484	-0.0029
638.5357	0.0009
638.723	-0.0011
638.9103	-0.0014
639.0975	0.0044
639.2848	-0.0083
639.472	-0.0014
639.6592	0.008
639.8464	0.0065
640.0336	0.0074
640.2208	-0.0055
640.4079	0.0013
640.595	-0.0046
640.7821	-0.0025
640.9692	-0.0036
641.1563	-0.0028
641.3434	-0.0049
641.5304	-0.0007
641.7174	0.0069
641.9044	0.0017
642.0914	0.0013
642.2784	0.004
642.4653	0.009
642.6523	0.0023
642.8392	-0.0057
643.0261	-0.001
643.213	-0.0013
643.3999	-0.0058
643.5867	-0.0065
643.7735	0.0055
643.9604	0.0033
644.1472	0.0035
644.3339	0.0039
644.5207	0
644.7075	-0.0017
644.8942	0.0029
645.0809	0.0005
645.2676	0.0072
645.4543	0.0011
645.6409	0.0088
645.8276	0.0021
646.0142	0.0086
646.2008	-0.008
646.3874	0.0023
646.574	-0.0032
646.7605	-0.0058
646.9471	-0.0118
647.1336	-0.0005
647.3201	0.0004
647.5066	-0.002
647.6931	0.0099
647.8795	0.0031
648.0659	0.0082
648.2524	0.01
648.4388	-0.0021
648.6252	0.0044
648.8115	0
648.9979	0.0065
649.1842	0.0084
649.3705	0.0077
649.5568	0.0048
649.7431	0.0059
649.9294	0.0013
650.1156	0.0044
650.3018	0.0009
650.488	-0.001
650.6742	0.0047
650.8604	0.0013
651.0466	-0.0044
651.2327	-0.0027
651.4188	-0.0022
651.6049	-0.0126
651.791	0.0023
651.9771	-0.0021
652.1632	0.0076
652.3492	0.001
652.5352	0.0011
652.7212	0.0011
652.9072	0.0066
653.0932	0.0061
653.2791	0.001
653.465	0.0032
653.651	-0.0056
653.8369	-0.0063
654.0227	-0.0006
654.2086	0.0005
654.3944	0.0099
654.5803	-0.0027
654.7661	-0.0034
654.9519	0.0039
655.1377	-0.0053
655.3234	-0.002
655.5092	-0.0066
655.6949	-0.006
655.8806	-0.0032
656.0663	0.0001
656.2519	-0.0037
656.4376	-0.0027
656.6232	0.0052
656.8088	-0.0018
656.9945	0.0008
657.18	0.0012
657.3656	-0.0001
657.5511	-0.0055
657.7367	-0.0047
657.9222	0.0018
658.1077	0.0008
658.2932	0.0063
658.4786	-0.0128
658.6641	-0.0027
658.8495	0.0018
659.0349	-0.0043
659.2203	-0.0035
659.4057	0.0012
659.591	-0.003
659.7764	0.0007
659.9617	0.0037
660.147	0.0029
660.3323	0.003
660.5176	0.0065
660.7028	0.0001
660.888	-0.0012
661.0733	0.0025
661.2585	-0.0071
661.4436	0.0017
661.6288	-0.0031
661.8139	-0.0072
661.9991	0.0055
662.1842	-0.0077
662.3693	0.0006
662.5544	-0.0034
662.7394	-0.0041
662.9245	-0.0039
663.1095	0.0005
663.2945	0.0002
663.4795	-0.0038
663.6644	0.0088
663.8494	0.0028
664.0343	-0.0027
664.2193	-0.0085
664.4042	0.0024
664.589	-0.0026
664.7739	-0.0019
664.9587	-0.0077
665.1436	0.0001
665.3284	-0.0043
665.5132	0
665.698	-0.0054
665.8827	0.0076
666.0675	-0.0094
666.2522	-0.0067
666.4369	-0.0037
666.6216	0.0028
666.8063	-0.0028
666.9909	0.0051
667.1756	-0.0057
667.3602	0.0012
667.5448	0.0004
667.7294	0.0017
667.9139	0.0023
668.0985	0.0093
668.283	0.0028
668.4675	0.004
668.652	-0.0002
668.8365	-0.0046
669.0209	0.0131
669.2054	0.0034
669.3898	-0.0051
669.5742	0.0042
669.7586	0.0058
669.943	0.0014
670.1273	0.0052
670.3117	0.0056
670.496	0.0101
670.6803	0.009
670.8646	0.0003
671.0488	0.0035
671.2331	0.0025
671.4173	-0.0014
671.6015	-0.0005
671.7857	0.0026
671.9699	0.0002
672.1541	0.0084
672.3382	-0.0033
672.5223	0.0028
672.7064	0.009
672.8905	0.004
673.0746	-0.0001
673.2587	0.0011
673.4427	0.005
673.6267	0.0059
673.8107	0.0069
673.9947	0.0066
674.1787	0.0012
674.3626	0.0016
674.5465	0.0105
674.7304	0.0063
674.9143	0.0065
675.0982	0.009
675.2821	-0.0023
675.4659	0.0021
675.6497	0.0049
675.8335	-0.0026
676.0173	-0.0038
676.2011	-0.0019
676.3849	0.0067
676.5686	-0.0074
676.7523	-0.0061
676.936	-0.0055
677.1197	-0.0027
677.3034	-0.0131
677.487	-0.0003
677.6706	0.0007
677.8542	0.0016
678.0378	0.0069
678.2214	-0.0078
678.405	-0.0053
678.5885	-0.0112
678.772	0.0011
678.9555	-0.0027
679.139	0.0017
679.3225	0.0081
679.5059	-0.0027
679.6894	-0.0087
679.8728	-0.0026
680.0562	-0.0101
680.2395	-0.0065
680.4229	-0.0054
680.6062	0.0038
680.7896	0.0005
680.9729	-0.0041
681.1562	0.0083
681.3394	-0.0026
681.5227	-0.0092
681.7059	-0.0014
681.8891	0.0006
682.0723	0.0111
682.2555	0.0029
682.4387	-0.005
682.6218	-0.0066
682.805	0.0038
682.9881	0.0141
683.1712	0.0071
683.3542	-0.0009
683.5373	0.0017
683.7203	-0.0024
683.9034	0.0053
684.0864	-0.0045
684.2694	-0.0013
684.4523	-0.0046
684.6353	-0.0065
684.8182	0.0051
685.0011	-0.014
685.184	0.001
685.3669	0.0024
685.5498	-0.004
685.7326	0.004
685.9154	-0.007
686.0982	0.005
686.281	0.0036
686.4638	0.0013
686.6465	-0.0031
686.8293	-0.0004
687.012	0.0012
687.1947	-0.0122
687.3774	-0.0015
687.56	-0.0073
687.7427	0.0046
687.9253	-0.0041
688.1079	-0.0017
688.2905	-0.0003
688.4731	-0.0021
688.6556	-0.0043
688.8382	-0.0057
689.0207	0.0017
689.2032	-0.0061
689.3857	-0.0064
689.5681	-0.0057
689.7506	-0.0025
689.933	-0.007
690.1154	-0.0039
690.2978	-0.0027
690.4802	0.0068
690.6626	-0.0068
690.8449	-0.0034
691.0272	0.0084
691.2095	-0.0077
691.3918	0.0034
691.5741	0.0045
691.7563	-0.0067
691.9386	-0.0036
692.1208	-0.0023
692.303	0.0084
692.4852	-0.0042
692.6673	-0.0021
692.8495	-0.0054
693.0316	0.0053
693.2137	0.0057
693.3958	0.0039
693.5778	0.0051
693.7599	0.0006
693.9419	0.0002
694.1239	0.0076
694.3059	-0.0041
694.4879	0.003
694.6699	0.0075
694.8518	0.0018
695.0337	0.0023
695.2157	0.0031
695.3975	0.0052
695.5794	0.0033
695.7613	0.007
695.9431	-0.007
696.1249	0.0075
696.3067	0.0171
696.4885	0.0151
696.6703	-0.0036
696.852	0.01
697.0337	0.0104
697.2154	0.004
697.3971	0.0014
697.5788	-0.0012
697.7605	0.0053
697.9421	0.0076
698.1237	0.0042
698.3053	0.0078
698.4869	-0.0021
698.6685	0.0043
698.85	-0.0015
699.0315	0.0065
699.213	0.001
699.3945	0.0007
699.576	0.0009
699.7575	0.01
699.9389	0.006
700.1203	0.003
700.3017	-0.0023
700.4831	-0.0109
700.6645	-0.0071
700.8458	0.0009
701.0271	-0.0083
701.2084	0.0075
701.3897	-0.0041
701.571	0.0012
701.7523	-0.0042
701.9335	-0.0023
702.1147	-0.0051
702.2959	-0.0017
702.4771	-0.0006
702.6583	0.0018
702.8394	-0.0042
703.0205	0.0007
703.2016	-0.0132
703.3827	0.0074
703.5638	0.0167
703.7449	0.0015
703.9259	0.0128
704.1069	-0.0094
704.2879	0.0002
704.4689	0.003
704.6499	-0.0016
704.8308	0.0037
705.0117	-0.0023
705.1927	0.0065
705.3735	-0.0023
705.5544	-0.0021
705.7353	-0.0009
705.9161	-0.006
706.0969	-0.0092
706.2777	-0.0062
706.4585	0.0011
706.6393	-0.0017
706.82	-0.0012
707.0007	-0.0009
707.1815	0.0017
707.3621	0.0028
707.5428	0.0053
707.7235	0.008
707.9041	0.0015
708.0847	-0.0123
708.2653	0.002
708.4459	-0.012
708.6265	-0.0007
708.807	0.0016
708.9875	-0.0016
709.168	-0.0073
709.3485	-0.0123
709.529	-0.0094
709.7095	-0.0127
709.8899	-0.0049
710.0703	-0.0097
710.2507	0.0022
710.4311	-0.0016
710.6115	-0.0112
710.7918	-0.0082
710.9721	0.001
711.1524	-0.0029
711.3327	0.004
711.513	0.0057
711.6932	0.0038
711.8735	0.014
712.0537	0.008
712.2339	0.0153
712.4141	0.0035
712.5942	-0.0024
712.7744	-0.0071
712.9545	-0.0096
713.1346	-0.0092
713.3147	-0.0098
713.4947	-0.0073
713.6748	-0.0033
713.8548	-0.0046
714.0348	-0.0053
714.2148	-0.0006
714.3948	0.0109
714.5748	0.0005
714.7547	-0.0045
714.9346	0.004
715.1145	-0.0092
715.2944	-0.0046
715.4743	-0.005
715.6541	-0.0041
715.834	0.0064
716.0138	-0.0023
716.1936	-0.0175
716.3733	-0.0064
716.5531	0.0089
716.7328	-0.0051
716.9126	-0.0035
717.0923	-0.0035
717.2719	0.0033
717.4516	0.0057
717.6312	0.0056
717.8109	-0.0009
717.9905	-0.0014
718.1701	0.0014
718.3496	-0.0095
718.5292	0.0093
718.7087	-0.0109
718.8882	0.0041
719.0677	0.0099
719.2472	0.0012
719.4267	0
719.6061	-0.0007
719.7856	0.0031
719.965	0.0051
720.1443	-0.0069
720.3237	0.0092
720.5031	-0.002
720.6824	0.0069
720.8617	-0.0026
721.041	-0.0003
721.2203	0.0137
721.3995	0.0075
721.5788	0.0033
721.758	0.0157
721.9372	-0.002
722.1164	-0.0028
722.2956	-0.0018
722.4747	0.0018
722.6538	-0.0043
722.8329	0.0097
723.012	0.006
723.1911	-0.0064
723.3702	-0.001
723.5492	-0.0032
723.7282	-0.0029
723.9072	-0.0007
724.0862	-0.0091
724.2652	-0.0046
724.4441	-0.0054
724.623	-0.0065
724.8019	0.0001
724.9808	-0.0028
725.1597	-0.0047
725.3385	-0.0005
725.5174	-0.0006
725.6962	-0.0034
725.875	0.0021
726.0538	0.0062
726.2325	-0.0038
726.4112	0.0049
726.59	-0.0032
726.7687	-0.008
726.9474	0.0083
727.126	0.0025
727.3047	-0.0039
727.4833	0.0042
727.6619	-0.005
727.8405	-0.0005
728.0191	-0.0072
728.1976	0.0007
728.3762	-0.0098
728.5547	0.0055
728.7332	-0.0126
728.9116	-0.0024
729.0901	0.0019
729.2686	-0.0034
729.447	-0.0023
729.6254	-0.0022
729.8038	-0.0008
729.9821	-0.0102
730.1605	0.0005
730.3388	-0.0044
730.5171	-0.002
730.6954	-0.0058
730.8737	-0.0041
731.0519	0.0078
731.2302	0.0004
731.4084	0.0087
731.5866	-0.0068
731.7648	-0.0031
731.9429	0.0028
732.1211	-0.0149
732.2992	0
732.4773	-0.0093
732.6554	-0.0031
732.8335	0.0005
733.0115	-0.0038
733.1896	-0.0053
733.3676	-0.0097
733.5456	0.0003
733.7235	0.0104
733.9015	0.0034
734.0794	-0.0044
734.2574	-0.0053
734.4353	-0.004
734.6131	-0.0022
734.791	0.0014
734.9689	-0.002
735.1467	-0.0055
735.3245	-0.0077
735.5023	-0.0117
735.68	0.002
735.8578	0.0023
736.0355	-0.0177
736.2132	0.0007
736.3909	0.003
736.5686	-0.0138
736.7463	0.0095
736.9239	0.0024
737.1015	-0.0111
737.2791	-0.0004
737.4567	-0.0014
737.6343	0.0008
737.8118	0.009
737.9894	0.0045
738.1669	-0.0083
738.3444	-0.0088
738.5218	0.0041
738.6993	-0.0051
738.8767	0.0046
739.0541	0.0096
739.2315	-0.0166
739.4089	-0.0094
739.5863	0.0105
739.7636	-0.0111
739.9409	-0.0053
740.1182	0.0036
740.2955	0.0031
740.4728	-0.0041
740.65	-0.0027
740.8272	-0.0043
741.0044	-0.0083
741.1816	0.0052
741.3588	-0.0021
741.5359	-0.0005
741.7131	-0.0077
741.8902	0.0037
742.0673	0.0056
742.2444	0.0007
742.4214	-0.002
742.5985	-0.0084
742.7755	-0.0054
742.9525	-0.009
743.1295	0.001
743.3064	-0.0009
743.4834	-0.0052
743.6603	-0.0036
743.8372	-0.0068
744.0141	0.0043
744.191	0.0111
744.3678	-0.0034
744.5446	-0.0024
744.7215	0.0045
744.8982	-0.0121
745.075	-0.0163
745.2518	0.0016
745.4285	-0.0061
745.6052	-0.0102
745.7819	-0.0139
745.9586	-0.012
746.1353	-0.0099
746.3119	-0.0147
746.4885	-0.011
746.6651	-0.0111
746.8417	-0.0111
747.0183	-0.0112
747.1948	-0.0181
747.3714	-0.0141
747.5479	-0.0034
747.7244	-0.0186
747.9008	-0.0028
748.0773	-0.0036
748.2537	-0.0138
748.4301	-0.026
748.6065	-0.0009
748.7829	-0.0021
748.9593	-0.0066
749.1356	-0.0131
749.3119	0.0041
749.4882	-0.0128
749.6645	0.0014
749.8408	-0.0104
750.017	-0.0024
750.1933	0.0016
750.3695	-0.0042
750.5457	0.0008
750.7218	0.0008
750.898	-0.0056
751.0741	-0.0066
751.2502	-0.0041
751.4263	-0.0065
751.6024	-0.0005
751.7784	-0.0078
751.9545	-0.0132
752.1305	-0.0003
752.3065	-0.0106
752.4825	0.0022
752.6584	-0.0139
752.8344	-0.0015
753.0103	-0.0057
753.1862	-0.0186
753.3621	-0.0125
753.5379	0.0005
753.7138	-0.0088
753.8896	-0.0008
754.0654	-0.0034
754.2412	0.0013
754.417	0.0048
754.5927	-0.0049
754.7685	-0.0059
754.9442	-0.0006
755.1199	0.0052
755.2956	-0.0094
755.4712	0.0024
755.6469	0.0031
755.8225	-0.0011
755.9981	0.0008
756.1736	0.0079
756.3492	0.0027
756.5248	0.0023
756.7003	0.0016
756.8758	0.0134
757.0513	-0.0045
757.2267	0.0004
757.4022	0.0111
757.5776	-0.0088
757.753	0.004
757.9284	0.0025
758.1038	0.0076
758.2791	-0.0064
758.4545	-0.0161
758.6298	-0.0031
758.8051	-0.0058
758.9803	-0.0079
759.1556	-0.0155
759.3308	-0.0031
759.506	0.003
759.6812	0.0016
759.8564	0.0055
760.0316	-0.0085
760.2067	0.0126
760.3819	0.0043
760.557	0.0144
760.732	0.0014
760.9071	-0.006
761.0821	-0.001
761.2572	0.0077
761.4322	0.0035
761.6072	-0.0061
761.7821	-0.004
761.9571	0.0059
762.132	0.0047
762.3069	-0.0074
762.4818	-0.0076
762.6567	-0.0018
762.8316	-0.0008
763.0064	-0.006
763.1812	-0.0027
763.356	-0.0083
763.5308	-0.0071
763.7055	0.0045
763.8803	-0.013
764.055	-0.0089
764.2297	0.0019
764.4044	-0.0133
764.579	-0.0097
764.7537	-0.0109
764.9283	-0.0069
765.1029	-0.0129
765.2775	-0.0073
765.4521	-0.0147
765.6266	-0.0179
765.8011	-0.01
765.9756	-0.0084
766.1501	-0.0038
766.3246	-0.0001
766.4991	-0.0093
766.6735	-0.0033
766.8479	-0.0129
767.0223	-0.0012
767.1967	-0.0083
767.371	0.0017
767.5454	-0.0051
767.7197	-0.0011
767.894	-0.0175
768.0683	-0.0122
768.2425	-0.0141
768.4168	-0.0016
768.591	-0.0022
768.7652	0.0052
768.9394	-0.0123
769.1135	0
769.2877	-0.001
769.4618	-0.0027
769.6359	-0.0021
769.81	-0.0086
769.984	-0.0103
770.1581	-0.0144
770.3321	-0.0089
770.5061	-0.0071
770.6801	-0.0132
770.8541	-0.0054
771.028	0.0068
771.202	-0.0205
771.3759	-0.006
771.5498	-0.0116
771.7236	-0.0034
771.8975	-0.0021
772.0713	0.0032
772.2451	0.0038
772.4189	0.0043
772.5927	-0.0009
772.7665	-0.0037
772.9402	-0.0016
773.1139	-0.0036
773.2876	-0.0052
773.4613	0.0043
773.635	0.0091
773.8086	-0.014
773.9822	-0.0076
774.1558	-0.005
774.3294	-0.0237
774.503	-0.0121
774.6765	-0.0046
774.8501	0.0018
775.0236	-0.0068
775.1971	0.0118
775.3705	-0.0053
775.544	0.0035
775.7174	-0.0191
775.8908	-0.0081
776.0642	-0.006
776.2376	-0.0062
776.4109	-0.0198
776.5843	-0.0085
776.7576	-0.0067
776.9309	0.0122
777.1041	0.0039
777.2774	0.0017
777.4506	-0.0014
777.6238	-0.0019
777.797	-0.0053
777.9702	-0.0089
778.1434	-0.0013
778.3165	-0.0049
778.4896	-0.0043
778.6627	0.0084
778.8358	0.008
779.0089	-0.0104
779.1819	-0.0035
779.3549	0.0071
779.5279	-0.0011
779.7009	-0.0023
779.8739	0.0017
780.0468	-0.0055
780.2197	0.0022
780.3926	-0.0164
780.5655	-0.0101
780.7384	-0.0057
780.9112	-0.0104
781.0841	-0.0108
781.2569	-0.008
781.4297	0.0006
781.6024	-0.0001
781.7752	0.0015
781.9479	-0.0067
782.1206	-0.01
782.2933	-0.0165
782.466	-0.0038
782.6386	0.0003
782.8113	-0.0011
782.9839	0.008
783.1565	0.0043
783.329	0.0018
783.5016	0.0064
783.6741	0.0076
783.8466	-0.0086
784.0191	0.0175
784.1916	0.0038
784.3641	0.0111
784.5365	0.0088
784.7089	-0.0115
784.8813	-0.0131
785.0537	-0.0088
785.2261	0.0032
785.3984	-0.0193
785.5707	-0.0105
785.743	-0.0029
785.9153	-0.0272
786.0876	-0.0039
786.2598	0.0048
786.432	-0.026
786.6042	0.0039
786.7764	-0.0178
786.9486	-0.0138
787.1207	-0.0145
787.2928	-0.0202
787.4649	-0.0011
787.637	-0.0074
787.8091	-0.0111
787.9811	-0.0144
788.1532	-0.0014
788.3252	-0.0064
788.4972	-0.0092
788.6691	-0.0114
788.8411	0.0012
789.013	-0.0156
789.1849	0.0024
789.3568	-0.0028
789.5287	-0.0048
789.7005	-0.0034
789.8723	0.0003
790.0442	0.0093
790.2159	-0.0117
790.3877	0.0006
790.5595	-0.0166
790.7312	0.0032
790.9029	-0.0045
791.0746	-0.0062
791.2463	-0.0128
791.4179	-0.0056
791.5896	-0.0175
791.7612	0.0005
791.9328	0.0039
792.1044	-0.0021
792.2759	-0.013
792.4474	-0.0099
792.619	-0.0024
792.7905	0.0053
792.9619	-0.0049
793.1334	0.0006
793.3048	0.0102
793.4762	0.0052
793.6476	-0.004
793.819	-0.0075
793.9904	0
794.1617	-0.0175
794.333	-0.0025
794.5043	0.0003
794.6756	-0.0087
794.8469	0.003
795.0181	0.0053
795.1893	-0.0126
795.3605	0.0062
795.5317	0.0099
795.7029	-0.01
795.874	-0.0017
796.0452	-0.0067
796.2163	-0.0009
796.3873	0.0107
796.5584	0.0103
796.7294	-0.0086
796.9005	0.006
797.0715	0.0224
797.2425	-0.0104
797.4134	0.0094
797.5844	0.0045
797.7553	-0.012
797.9262	-0.0094
798.0971	-0.0264
798.2679	-0.0192
798.4388	-0.0219
798.6096	0.0021
798.7804	-0.0076
798.9512	-0.0161
799.122	-0.0114
799.2927	0.0087
799.4635	0.0076
799.6342	-0.0195
799.8049	-0.019
799.9755	0.001
800.1462	-0.0125
800.3168	0.0149
800.4874	-0.0116
800.658	0.0224
800.8286	0.0031
800.9991	-0.0027
801.1696	0.0119
801.3402	-0.0032
801.5106	-0.0052
801.6811	-0.0004
801.8516	0.0072
802.022	-0.0026
802.1924	0.0031
802.3628	0.0018
802.5332	0.0122
802.7035	0.0018
802.8739	0.0101
803.0442	-0.0192
803.2145	0.0198
803.3847	-0.0063
803.555	0.0004
803.7252	-0.0242
803.8954	-0.041
804.0656	-0.0261
804.2358	-0.0058
804.4059	0.0015
804.5761	-0.0028
804.7462	-0.0129
804.9163	-0.0169
805.0864	-0.0155
805.2564	-0.002
805.4264	0.0114
805.5965	-0.0064
805.7665	0.0117
805.9364	-0.0119
806.1064	0.0296
806.2763	-0.0002
806.4462	0.0062
806.6161	0.0037
806.786	0.0002
806.9559	-0.0234
807.1257	0.0035
807.2955	-0.0137
807.4653	-0.0099
807.6351	-0.0042
807.8048	0.0071
807.9746	-0.0026
808.1443	-0.0004
808.314	-0.004
808.4837	-0.0088
808.6533	-0.0054
808.8229	0.018
808.9926	-0.0088
809.1622	0.009
809.3317	-0.0126
809.5013	-0.0015
809.6708	0.0099
809.8403	0.0133
810.0098	-0.0005
810.1793	0.0066
810.3488	-0.0042
810.5182	-0.0182
810.6876	-0.0114
810.857	-0.0144
811.0264	0.0135
811.1958	0.0065
811.3651	0.0085
811.5344	0.0078
811.7037	-0.0062
811.873	-0.0213
812.0422	-0.0036
812.2115	-0.0037
812.3807	-0.0023
812.5499	0.025
812.7191	-0.0029
812.8882	-0.0003
813.0574	-0.0068
813.2265	-0.0099
813.3956	-0.0021
813.5646	-0.0055
813.7337	-0.0196
813.9027	0.0113
814.0718	0.0034
814.2407	0.0082
814.4097	-0.0129
814.5787	-0.0112
814.7476	0.0006
814.9165	0
815.0854	-0.0088
815.2543	-0.0085
815.4232	-0.0263
815.592	-0.0023
815.7608	-0.0064
815.9296	-0.0214
816.0984	-0.0092
816.2671	-0.0205
816.4359	-0.0177
816.6046	0.0082
816.7733	-0.0249
816.942	-0.0461
817.1106	0.0006
817.2793	0.0044
817.4479	-0.0124
817.6165	-0.0006
817.785	-0.0251
817.9536	-0.0211
818.1221	0.001
818.2906	-0.0129
818.4591	-0.0342
818.6276	-0.0067
818.7961	-0.0136
818.9645	0.0173
819.1329	-0.0141
819.3013	0.01
819.4697	0.0355
819.638	-0.0135
819.8064	-0.0064
819.9747	0.012
820.143	-0.012
820.3113	0.013
820.4795	-0.0041
820.6477	0.0056
820.816	0.006
820.9842	0.0226
821.1523	-0.0039
821.3205	0.0047
821.4886	-0.0011
821.6567	-0.014
821.8248	-0.0027
821.9929	-0.0027
822.1609	0.0038
822.329	0.0065
822.497	-0.0014
822.665	-0.041
822.833	-0.0306
823.0009	-0.003
823.1688	0.0042
823.3367	0.0228
823.5046	0.0074
823.6725	0.0082
823.8404	0.0068
824.0082	0.0147
824.176	0.0239
824.3438	0.0292
824.5116	-0.0303
824.6793	0.0025
824.847	-0.0154
825.0147	-0.0072
825.1824	0.0215
825.3501	0.004
825.5177	-0.0275
825.6854	-0.0085
825.853	-0.0135
826.0206	-0.0133
826.1881	0.0013
826.3557	-0.0248
826.5232	-0.0098
826.6907	-0.0308
826.8582	-0.0076
827.0257	-0.0333
827.1931	0.0064
827.3605	-0.0168
827.528	-0.0128
827.6953	0.0041
827.8627	-0.0147
828.03	0.0174
828.1974	-0.0433
828.3647	-0.0542
828.532	-0.0155
828.6992	-0.0263
828.8665	0
829.0337	-0.0231
829.2009	-0.0039
829.3681	-0.011
829.5352	0.0251
829.7024	-0.0137
829.8695	-0.0197
830.0366	0.0214
830.2037	-0.0135
830.3707	-0.015
830.5378	-0.0053
830.7048	-0.0005
830.8718	-0.0117
831.0388	-0.0256
831.2057	0.013
831.3727	0.0053
831.5396	-0.0269
831.7065	-0.0113
831.8734	0.0006
832.0402	-0.0064
832.2071	-0.0155
832.3739	-0.0228
832.5407	0.0115
832.7075	-0.0242
832.8742	-0.0296
833.041	-0.04
833.2077	0.0001
833.3744	-0.0029
833.541	0.0192
833.7077	-0.0489
833.8743	-0.0179
834.0409	-0.0237
834.2075	0.0392
834.3741	-0.028
834.5407	0.0039
834.7072	0.0007
834.8737	-0.0428
835.0402	-0.0292
835.2067	0.0101
835.3731	-0.0262
835.5395	0.0013
835.706	0.0138
835.8723	-0.0007
836.0387	-0.0086
836.2051	-0.0048
836.3714	-0.0114
836.5377	-0.0027
836.704	-0.0077
836.8703	-0.0173
837.0365	-0.0255
837.2027	-0.0313
837.3689	0.0031
837.5351	-0.0275
837.7013	-0.0466
837.8674	-0.076
838.0335	-0.0499
838.1997	-0.0275
838.3657	-0.0553
838.5318	-0.0403
838.6978	0.0192
838.8639	-0.0202
839.0299	-0.0457
839.1958	-0.0015
839.3618	-0.0151
839.5277	-0.0042
839.6937	0.0135
839.8596	-0.008
840.0254	0.0161
840.1913	0.0186
840.3571	0.0511
840.523	-0.0822
840.6888	-0.0316
840.8545	-0.0233
841.0203	0.0143
841.186	-0.0208
841.3517	-0.026
841.5174	0.0308
841.6831	-0.0386
841.8488	-0.0141
842.0144	-0.0116
842.18	-0.0043
842.3456	0.0076
842.5112	-0.0139
842.6767	-0.0257
842.8422	-0.0338
843.0077	-0.0288
843.1732	0.0191
843.3387	-0.0522
843.5042	-0.0484
843.6696	-0.0011
843.835	-0.02
844.0004	-0.0047
844.1657	0.0217
844.3311	-0.0177
844.4964	-0.0412
844.6617	-0.0216
844.827	-0.0125
844.9923	0.0284
845.1575	-0.0375
845.3227	0.03
845.4879	-0.0314
845.6531	-0.0759
845.8183	-0.0933
845.9834	-0.0415
846.1485	-0.0021
846.3136	-0.0422
846.4787	-0.0688
846.6438	0.0726
846.8088	-0.0927
846.9738	-0.0401
847.1388	-0.0402
847.3038	-0.0512
847.4687	-0.128
847.6337	0.0001
847.7986	-0.0392
847.9635	-0.0228
848.1284	-0.0173
848.2932	0.0001
848.458	-0.0389
848.6228	0.0348
848.7876	0.0144
848.9524	-0.0712
849.1172	-0.0911
849.2819	0.035
849.4466	-0.1413
849.6113	-0.0392
849.7759	-0.0915
849.9406	-0.0991
850.1052	-0.005
850.2698	-0.0649
850.4344	-0.0446
850.599	-0.0835
850.7635	0.024
850.928	0.0107
851.0925	-0.0349
851.257	0.0671
851.4215	0.0186
851.5859	0.0368
851.7503	-0.0464
851.9147	-0.0495
852.0791	-0.0472
852.2434	-0.0147
852.4078	0.0662
852.5721	0.0001
852.7364	-0.0407
852.9007	-0.234
853.0649	-0.1296
853.2291	-0.0287
853.3934	0.0388
853.5575	-0.0122
853.7217	-0.1822
853.8859	-0.2414
854.05	-0.0902
854.2141	-0.0371
854.3782	-0.1413
854.5423	-0.1732
854.7063	0.0709
854.8703	0.1169
855.0343	-0.0851
855.1983	-0.1874
855.3623	0.1175
855.5262	-0.0491
855.6901	-0.0957
855.854	-0.022
856.0179	-0.0042
856.1818	0.1359
856.3456	-0.1126
856.5094	-0.1857
856.6732	-0.1901
856.837	-0.0973
857.0008	0.0416
857.1645	-0.0028
857.3282	-0.209
857.4919	0.1606
857.6556	-0.0236
857.8192	-0.1146
857.9828	0.0845
858.1465	0.0043
858.31	-0.2535
858.4736	0.0795
858.6372	-0.1878
858.8007	-0.1024
858.9642	-0.0749
859.1277	-0.1302
859.2911	0.0869
859.4546	-0.0874
859.618	-0.3894
859.7814	-0.0594
859.9448	-0.1756
860.1081	-0.1027
860.2715	0.0758
860.4348	-0.0261
860.5981	-0.0444
860.7614	0.1303
860.9246	-0.2147
861.0879	-0.2515
861.2511	0.0525
861.4143	-0.2835
861.5774	0.0773
861.7406	-0.4467
861.9037	0.0043
862.0668	-0.0061
862.2299	-0.2078
862.393	-0.6808
862.556	-0.0468
862.7191	-0.3494
862.8821	-0.1874
863.0451	0.2543
863.208	0.0583
863.371	-0.1888
863.5339	-0.1748
863.6968	-0.0328
863.8597	0.118
864.0225	-0.2259
864.1854	0.3588
864.3482	-0.0658
864.511	0.0983
864.6737	-0.1041
864.8365	-0.1223
864.9992	-0.5721
865.1619	-0.4903
865.3246	-0.3598
865.4873	0.064
865.65	-0.2138
865.8126	0.0507
865.9752	0.0839
866.1378	-0.3866
866.3004	-0
866.4629	0.0163
866.6254	0.0291
866.7879	-0.018
866.9504	-0.4289
867.1129	-0
867.2753	-0.0331
867.4377	0.1983
867.6001	-0.5348
867.7625	0.037
867.9249	0.0045
868.0872	-0.071
868.2495	0.1253
868.4118	0.301
868.5741	-0.4474
868.7363	-0.1592
868.8986	-0.4817
869.0608	-0.2525
869.223	0.0825
869.3851	0.2839
869.5473	0.6474
869.7094	0.1219
869.8715	-0
870.0336	-0
870.1957	-0.3561
870.3577	-0
870.5197	-0.1809
870.6817	-0.3087
870.8437	-0.0841
871.0057	-0.074
871.1676	-0
871.3295	-0.4317
871.4914	-0
871.6533	-0.5008
871.8151	-0.3239
871.977	-0
872.1388	-0
872.3006	-0
872.4623	-0
872.6241	-0.0241
872.7858	0.2748
872.9475	-0.2203
873.1092	-0.1792
873.2709	-0
873.4325	-0.0882
873.5941	0.7292
873.7557	-0
873.9173	-0
874.0789	-0
874.2404	-0.4253
874.4019	0.4461
874.5634	-0.3807
874.7249	-0.281
874.8863	0.1293
875.0478	0.4762
875.2092	-0
875.3706	-0.0546
875.5319	-0.137
875.6933	0.5865
875.8546	-0.4815
876.0159	-0
876.1772	0.1394
876.3385	-0
876.4997	0.208
876.6609	-0.6595
876.8221	-0
876.9833	-0
877.1445	-0
877.3056	0.0442
877.4667	-0.229
877.6278	-0
877.7889	-0.5574
877.9499	-0
878.111	-0.2904
878.272	-0
878.433	-0
878.5939	0.4129
878.7549	-0
878.9158	-0.9311
879.0767	-0
879.2376	0.4051
879.3984	-0
879.5593	-0
879.7201	0.1766
879.8809	-0.5501
880.0417	-0.3642
880.2024	0.5425
880.3632	-0.4483
880.5239	-0.0848
880.6846	-0.0115
880.8452	-2.3233
881.0059	-0
881.1665	0.326
881.3271	0.1589
881.4877	-0
881.6483	-0.1131
881.8088	-0.52
881.9693	-0
882.1298	-0
882.2903	-0
