Data from MonoPyChalIsomerACN10uM350nmA_Absorbance_14-35-40-215.txt Node
Date: Fri Jul 05 14:35:40 BST 2024
User: LASERRRRR
Spectrometer: FLMT03099
Trigger mode: 0
Integration Time (sec): 1.000000E-1
Scans to average: 1
Electric dark correction enabled: true
Nonlinearity correction enabled: false
Boxcar width: 0
XAxis mode: Wavelengths
Number of Pixels in Spectrum: 3648
>>>>>Begin Spectral Data<<<<<
179.3399	0.023
179.5586	0.023
179.7771	0.023
179.9957	-0.0372
180.2143	0.0872
180.4329	-0.2572
180.6514	-0
180.8699	-0
181.0885	-0.3212
181.307	-0.1435
181.5255	-0
181.744	0.6585
181.9625	-0
182.181	-1.1191
182.3994	-0
182.6179	-0.1715
182.8363	1.1314
183.0547	-0.0194
183.2732	0.0496
183.4916	0.1027
183.71	0.1402
183.9284	0.1404
184.1467	0.0497
184.3651	0.1305
184.5835	-0.1259
184.8018	-0.1655
185.0201	0.0033
185.2385	-0.0405
185.4568	0.27
185.6751	0.3258
185.8934	0.1471
186.1117	0.0139
186.3299	-0.012
186.5482	0.1272
186.7664	-0.203
186.9847	-0.1404
187.2029	0.149
187.4211	0.1572
187.6393	0.1329
187.8575	0.0161
188.0757	0.1065
188.2939	0.1045
188.512	0.4437
188.7302	0.0282
188.9483	0.0173
189.1665	0.1961
189.3846	-0.0844
189.6027	0.1589
189.8208	0.1606
190.0389	0.1225
190.257	0.0265
190.475	0.0401
190.6931	0.5096
190.9111	0.4564
191.1292	0.0333
191.3472	0.4706
191.5652	0.3243
191.7832	0.0931
192.0012	0.6111
192.2192	0.303
192.4371	0.5522
192.6551	0.3247
192.873	0.3446
193.091	0.2568
193.3089	0.4475
193.5268	0.6158
193.7447	0.6098
193.9626	0.4605
194.1805	0.6259
194.3984	0.5894
194.6162	0.4845
194.8341	0.5041
195.0519	0.5848
195.2697	0.61
195.4875	0.7397
195.7054	0.6563
195.9231	0.5725
196.1409	0.6317
196.3587	0.7972
196.5765	0.5897
196.7942	0.6002
197.012	0.4607
197.2297	0.6297
197.4474	0.7835
197.6651	0.6473
197.8828	0.6363
198.1005	0.5583
198.3182	0.5612
198.5358	0.8004
198.7535	0.7146
198.9711	0.5319
199.1888	0.5832
199.4064	0.8932
199.624	0.6196
199.8416	0.4426
200.0592	0.539
200.2767	0.5509
200.4943	0.6343
200.7119	0.7763
200.9294	0.6254
201.1469	0.5798
201.3645	0.6564
201.582	0.7473
201.7995	0.5779
202.017	0.633
202.2344	0.5159
202.4519	0.6425
202.6694	0.6642
202.8868	0.5443
203.1042	0.6818
203.3217	1.0246
203.5391	0.5848
203.7565	0.5907
203.9739	0.6666
204.1913	0.648
204.4086	0.638
204.626	0.6965
204.8433	0.6518
205.0607	0.5998
205.278	0.7148
205.4953	0.6852
205.7126	0.6466
205.9299	0.7773
206.1472	0.7416
206.3644	0.5914
206.5817	0.6315
206.7989	0.6925
207.0162	0.6286
207.2334	0.6625
207.4506	0.6638
207.6678	0.6332
207.885	0.6885
208.1022	0.6836
208.3194	0.7067
208.5365	0.656
208.7537	0.6912
208.9708	0.6108
209.1879	0.6213
209.405	0.7057
209.6222	0.6715
209.8392	0.6355
210.0563	0.5525
210.2734	0.6763
210.4905	0.6457
210.7075	0.6546
210.9245	0.544
211.1416	0.6587
211.3586	0.6183
211.5756	0.5502
211.7926	0.707
212.0096	0.6412
212.2265	0.5875
212.4435	0.5908
212.6604	0.5559
212.8774	0.5673
213.0943	0.5739
213.3112	0.5563
213.5281	0.5354
213.745	0.4946
213.9619	0.4697
214.1788	0.4539
214.3956	0.4637
214.6125	0.4652
214.8293	0.4632
215.0461	0.4723
215.2629	0.441
215.4798	0.4555
215.6965	0.4121
215.9133	0.4425
216.1301	0.3917
216.3469	0.3997
216.5636	0.4129
216.7803	0.3891
216.9971	0.4057
217.2138	0.3612
217.4305	0.3765
217.6472	0.349
217.8639	0.3585
218.0805	0.3659
218.2972	0.303
218.5138	0.3289
218.7305	0.3341
218.9471	0.3006
219.1637	0.2791
219.3803	0.27
219.5969	0.2749
219.8135	0.2504
220.0301	0.2703
220.2466	0.2543
220.4632	0.2861
220.6797	0.2318
220.8962	0.2375
221.1127	0.2471
221.3292	0.2368
221.5457	0.2217
221.7622	0.2349
221.9787	0.2591
222.1951	0.2354
222.4116	0.2517
222.628	0.2613
222.8444	0.2299
223.0608	0.2394
223.2772	0.2469
223.4936	0.2603
223.71	0.2374
223.9264	0.2702
224.1427	0.2501
224.3591	0.2414
224.5754	0.262
224.7917	0.2626
225.008	0.2592
225.2243	0.2465
225.4406	0.2891
225.6569	0.2681
225.8732	0.2615
226.0894	0.2673
226.3057	0.27
226.5219	0.283
226.7381	0.2474
226.9543	0.2922
227.1705	0.2932
227.3867	0.2813
227.6029	0.3106
227.8191	0.3056
228.0352	0.2863
228.2513	0.3157
228.4675	0.2956
228.6836	0.2932
228.8997	0.2874
229.1158	0.3123
229.3319	0.311
229.548	0.3139
229.764	0.3077
229.9801	0.3289
230.1961	0.319
230.4121	0.3464
230.6282	0.3116
230.8442	0.3188
231.0602	0.3499
231.2761	0.3527
231.4921	0.3479
231.7081	0.3317
231.924	0.329
232.14	0.3555
232.3559	0.3493
232.5718	0.3474
232.7877	0.3559
233.0036	0.3554
233.2195	0.367
233.4353	0.3565
233.6512	0.3609
233.867	0.3641
234.0829	0.3653
234.2987	0.3506
234.5145	0.3636
234.7303	0.3741
234.9461	0.3858
235.1619	0.3768
235.3776	0.3822
235.5934	0.3851
235.8091	0.3683
236.0249	0.3807
236.2406	0.3705
236.4563	0.3763
236.672	0.3787
236.8877	0.3967
237.1034	0.386
237.319	0.3964
237.5347	0.4096
237.7503	0.3828
237.966	0.3974
238.1816	0.407
238.3972	0.4047
238.6128	0.3923
238.8284	0.4046
239.0439	0.4198
239.2595	0.3763
239.475	0.4208
239.6906	0.3986
239.9061	0.41
240.1216	0.3879
240.3371	0.4029
240.5526	0.3714
240.7681	0.3887
240.9836	0.389
241.199	0.38
241.4145	0.3955
241.6299	0.3812
241.8453	0.397
242.0607	0.3769
242.2761	0.3569
242.4915	0.359
242.7069	0.3646
242.9223	0.3549
243.1376	0.3582
243.353	0.3459
243.5683	0.3441
243.7836	0.3431
243.9989	0.3325
244.2142	0.3169
244.4295	0.3179
244.6448	0.2914
244.86	0.3049
245.0753	0.2859
245.2905	0.2973
245.5057	0.2705
245.721	0.2829
245.9362	0.2699
246.1514	0.2736
246.3665	0.2727
246.5817	0.2635
246.7969	0.255
247.012	0.2428
247.2271	0.2445
247.4423	0.2471
247.6574	0.2514
247.8725	0.2198
248.0876	0.2301
248.3026	0.2161
248.5177	0.2306
248.7328	0.2144
248.9478	0.206
249.1628	0.2162
249.3779	0.2099
249.5929	0.2038
249.8079	0.217
250.0228	0.1926
250.2378	0.2105
250.4528	0.1992
250.6677	0.1889
250.8827	0.191
251.0976	0.2003
251.3125	0.183
251.5274	0.1751
251.7423	0.1757
251.9572	0.1827
252.172	0.1891
252.3869	0.1791
252.6017	0.1666
252.8166	0.1718
253.0314	0.1709
253.2462	0.1663
253.461	0.1835
253.6758	0.1681
253.8906	0.1917
254.1053	0.1803
254.3201	0.1659
254.5348	0.18
254.7496	0.1664
254.9643	0.1709
255.179	0.1714
255.3937	0.1644
255.6083	0.1587
255.823	0.1623
256.0377	0.1668
256.2523	0.1687
256.467	0.1515
256.6816	0.1675
256.8962	0.1643
257.1108	0.1559
257.3254	0.1697
257.54	0.163
257.7545	0.1613
257.9691	0.1708
258.1836	0.1609
258.3981	0.172
258.6127	0.1713
258.8272	0.1702
259.0417	0.1597
259.2561	0.1562
259.4706	0.1546
259.6851	0.1673
259.8995	0.1569
260.114	0.1522
260.3284	0.1654
260.5428	0.145
260.7572	0.1612
260.9716	0.1596
261.186	0.1484
261.4003	0.1567
261.6147	0.1665
261.829	0.1517
262.0433	0.172
262.2577	0.165
262.472	0.163
262.6863	0.1669
262.9005	0.1526
263.1148	0.1694
263.3291	0.1458
263.5433	0.1643
263.7576	0.1488
263.9718	0.1596
264.186	0.1614
264.4002	0.1683
264.6144	0.1544
264.8286	0.1803
265.0427	0.1688
265.2569	0.1629
265.471	0.1602
265.6851	0.1646
265.8993	0.1558
266.1134	0.1527
266.3275	0.1543
266.5415	0.1534
266.7556	0.1723
266.9697	0.1685
267.1837	0.1663
267.3978	0.164
267.6118	0.1803
267.8258	0.1829
268.0398	0.1537
268.2538	0.1719
268.4677	0.1618
268.6817	0.1438
268.8957	0.1501
269.1096	0.1679
269.3235	0.1712
269.5374	0.157
269.7514	0.1581
269.9652	0.1541
270.1791	0.155
270.393	0.1521
270.6068	0.1531
270.8207	0.1433
271.0345	0.1393
271.2483	0.1516
271.4622	0.1427
271.676	0.1638
271.8897	0.1354
272.1035	0.1498
272.3173	0.1369
272.531	0.1427
272.7448	0.1477
272.9585	0.1407
273.1722	0.1619
273.3859	0.168
273.5996	0.127
273.8133	0.15
274.0269	0.1341
274.2406	0.1332
274.4542	0.1447
274.6679	0.1277
274.8815	0.1467
275.0951	0.1543
275.3087	0.141
275.5223	0.1518
275.7358	0.1455
275.9494	0.1487
276.1629	0.1418
276.3765	0.1411
276.59	0.1427
276.8035	0.1401
277.017	0.1494
277.2305	0.146
277.444	0.1534
277.6574	0.1389
277.8709	0.1502
278.0843	0.1536
278.2978	0.1409
278.5112	0.1457
278.7246	0.1477
278.938	0.1513
279.1513	0.1527
279.3647	0.1673
279.5781	0.151
279.7914	0.146
280.0047	0.1586
280.2181	0.1512
280.4314	0.1649
280.6447	0.1477
280.8579	0.1504
281.0712	0.1555
281.2845	0.1546
281.4977	0.1577
281.711	0.1363
281.9242	0.1538
282.1374	0.165
282.3506	0.1503
282.5638	0.1595
282.7769	0.1658
282.9901	0.1488
283.2033	0.1575
283.4164	0.1583
283.6295	0.1482
283.8426	0.1582
284.0557	0.158
284.2688	0.1709
284.4819	0.1634
284.695	0.1585
284.908	0.1741
285.1211	0.1483
285.3341	0.1575
285.5471	0.1677
285.7601	0.1608
285.9731	0.1506
286.1861	0.1428
286.3991	0.1695
286.612	0.1748
286.825	0.1641
287.0379	0.1653
287.2508	0.1619
287.4637	0.155
287.6766	0.147
287.8895	0.173
288.1024	0.1775
288.3152	0.1754
288.5281	0.1494
288.7409	0.1535
288.9538	0.1566
289.1666	0.1609
289.3794	0.1564
289.5922	0.1636
289.8049	0.1607
290.0177	0.1541
290.2304	0.1601
290.4432	0.16
290.6559	0.1575
290.8686	0.1693
291.0813	0.1662
291.294	0.1558
291.5067	0.1714
291.7194	0.1615
291.932	0.1654
292.1447	0.1559
292.3573	0.1654
292.5699	0.1547
292.7825	0.1677
292.9951	0.164
293.2077	0.1598
293.4203	0.1741
293.6328	0.1556
293.8454	0.1713
294.0579	0.1624
294.2704	0.1624
294.4829	0.1552
294.6954	0.1641
294.9079	0.1532
295.1204	0.1638
295.3328	0.1654
295.5453	0.1721
295.7577	0.1641
295.9701	0.1519
296.1825	0.1599
296.3949	0.1612
296.6073	0.1583
296.8197	0.1588
297.0321	0.1686
297.2444	0.1554
297.4567	0.1771
297.6691	0.172
297.8814	0.1524
298.0937	0.1593
298.306	0.1553
298.5182	0.1652
298.7305	0.1773
298.9428	0.1561
299.155	0.1679
299.3672	0.1552
299.5794	0.1668
299.7916	0.1615
300.0038	0.1565
300.216	0.1677
300.4282	0.1656
300.6403	0.1516
300.8525	0.1709
301.0646	0.154
301.2767	0.1599
301.4888	0.1556
301.7009	0.1626
301.913	0.1619
302.125	0.1627
302.3371	0.1538
302.5491	0.1598
302.7612	0.1678
302.9732	0.1472
303.1852	0.1591
303.3972	0.1547
303.6092	0.1544
303.8211	0.1584
304.0331	0.1496
304.245	0.1456
304.457	0.147
304.6689	0.1504
304.8808	0.1577
305.0927	0.1498
305.3046	0.1411
305.5164	0.1518
305.7283	0.1496
305.9401	0.1534
306.152	0.1505
306.3638	0.1499
306.5756	0.1452
306.7874	0.1583
306.9992	0.156
307.2109	0.1415
307.4227	0.1306
307.6344	0.141
307.8462	0.1361
308.0579	0.1342
308.2696	0.1406
308.4813	0.14
308.693	0.1328
308.9046	0.1348
309.1163	0.1194
309.328	0.1275
309.5396	0.1167
309.7512	0.1211
309.9628	0.1251
310.1744	0.1259
310.386	0.1201
310.5976	0.1163
310.8091	0.1154
311.0207	0.114
311.2322	0.1264
311.4437	0.1038
311.6552	0.1147
311.8667	0.1127
312.0782	0.0987
312.2897	0.1102
312.5012	0.1094
312.7126	0.1088
312.924	0.1035
313.1355	0.1163
313.3469	0.1123
313.5583	0.108
313.7696	0.1087
313.981	0.0994
314.1924	0.1037
314.4037	0.1083
314.6151	0.113
314.8264	0.0869
315.0377	0.0881
315.249	0.1034
315.4603	0.1045
315.6716	0.1058
315.8828	0.0922
316.0941	0.0892
316.3053	0.0951
316.5165	0.097
316.7277	0.0893
316.9389	0.0988
317.1501	0.0942
317.3613	0.103
317.5724	0.0818
317.7836	0.0973
317.9947	0.0941
318.2058	0.0971
318.417	0.0919
318.6281	0.0896
318.8391	0.0966
319.0502	0.0936
319.2613	0.093
319.4723	0.1039
319.6834	0.0948
319.8944	0.09
320.1054	0.1098
320.3164	0.1054
320.5274	0.1007
320.7383	0.0915
320.9493	0.0956
321.1602	0.1059
321.3712	0.0958
321.5821	0.0986
321.793	0.1049
322.0039	0.0977
322.2148	0.0944
322.4257	0.0976
322.6365	0.1114
322.8474	0.1048
323.0582	0.1036
323.269	0.1036
323.4798	0.1147
323.6906	0.1055
323.9014	0.1076
324.1122	0.1052
324.3229	0.1056
324.5337	0.1156
324.7444	0.0993
324.9551	0.1242
325.1658	0.1073
325.3765	0.122
325.5872	0.1046
325.7979	0.0948
326.0085	0.1017
326.2192	0.1184
326.4298	0.1031
326.6404	0.0853
326.851	0.0894
327.0616	0.0981
327.2722	0.0989
327.4828	0.1173
327.6933	0.1019
327.9039	0.1065
328.1144	0.1073
328.3249	0.1103
328.5354	0.1023
328.7459	0.116
328.9564	0.0902
329.1669	0.099
329.3773	0.1023
329.5878	0.1036
329.7982	0.1076
330.0086	0.0933
330.219	0.1073
330.4294	0.1041
330.6398	0.1072
330.8502	0.1044
331.0605	0.121
331.2708	0.1066
331.4812	0.1088
331.6915	0.1094
331.9018	0.1023
332.1121	0.0951
332.3224	0.1009
332.5326	0.1064
332.7429	0.106
332.9531	0.122
333.1633	0.1064
333.3735	0.1122
333.5837	0.1058
333.7939	0.1077
334.0041	0.1222
334.2143	0.1123
334.4244	0.1091
334.6346	0.0918
334.8447	0.1247
335.0548	0.1108
335.2649	0.1017
335.475	0.1212
335.685	0.1048
335.8951	0.1192
336.1051	0.1121
336.3152	0.1245
336.5252	0.1086
336.7352	0.1099
336.9452	0.1137
337.1552	0.1073
337.3652	0.1153
337.5751	0.1107
337.7851	0.1038
337.995	0.0957
338.2049	0.1164
338.4148	0.1103
338.6247	0.1031
338.8346	0.1068
339.0445	0.1128
339.2543	0.1071
339.4642	0.1197
339.674	0.1006
339.8838	0.1142
340.0936	0.1077
340.3034	0.1263
340.5132	0.117
340.7229	0.1145
340.9327	0.1133
341.1424	0.1225
341.3522	0.1254
341.5619	0.1218
341.7716	0.1187
341.9813	0.1195
342.1909	0.1074
342.4006	0.1309
342.6102	0.1283
342.8199	0.1327
343.0295	0.1231
343.2391	0.1253
343.4487	0.1271
343.6583	0.1121
343.8679	0.1201
344.0774	0.1387
344.287	0.1367
344.4965	0.126
344.706	0.1304
344.9155	0.1216
345.125	0.1273
345.3345	0.1347
345.544	0.1274
345.7534	0.1215
345.9629	0.1217
346.1723	0.1261
346.3817	0.1185
346.5911	0.125
346.8005	0.1319
347.0099	0.1289
347.2193	0.1322
347.4286	0.1247
347.638	0.1403
347.8473	0.1415
348.0566	0.1294
348.2659	0.1424
348.4752	0.1332
348.6845	0.1256
348.8937	0.1272
349.103	0.1438
349.3122	0.1278
349.5214	0.1292
349.7306	0.1414
349.9398	0.1338
350.149	0.1339
350.3582	0.1316
350.5674	0.1514
350.7765	0.1364
350.9856	0.147
351.1948	0.1377
351.4039	0.1341
351.613	0.1393
351.822	0.1462
352.0311	0.1489
352.2402	0.1459
352.4492	0.1462
352.6582	0.1424
352.8672	0.1408
353.0762	0.1361
353.2852	0.1383
353.4942	0.1266
353.7032	0.1531
353.9121	0.141
354.1211	0.1571
354.33	0.1627
354.5389	0.1434
354.7478	0.1561
354.9567	0.1359
355.1655	0.1485
355.3744	0.1481
355.5833	0.1624
355.7921	0.1701
356.0009	0.1481
356.2097	0.15
356.4185	0.1628
356.6273	0.1487
356.8361	0.1584
357.0448	0.1628
357.2536	0.1636
357.4623	0.1471
357.671	0.1656
357.8797	0.1697
358.0884	0.1589
358.2971	0.1679
358.5057	0.1659
358.7144	0.1628
358.923	0.1617
359.1316	0.1663
359.3402	0.1674
359.5488	0.173
359.7574	0.1539
359.966	0.1746
360.1746	0.172
360.3831	0.1648
360.5916	0.1742
360.8002	0.1642
361.0087	0.1857
361.2172	0.1689
361.4256	0.1763
361.6341	0.1949
361.8426	0.1792
362.051	0.1816
362.2594	0.1749
362.4678	0.1882
362.6762	0.2063
362.8846	0.1755
363.093	0.1731
363.3014	0.1774
363.5097	0.1667
363.718	0.1951
363.9264	0.1996
364.1347	0.1731
364.343	0.1962
364.5513	0.2025
364.7595	0.1928
364.9678	0.176
365.176	0.1945
365.3842	0.1869
365.5925	0.1869
365.8007	0.1994
366.0089	0.1917
366.217	0.194
366.4252	0.2012
366.6333	0.221
366.8415	0.2044
367.0496	0.1897
367.2577	0.2016
367.4658	0.2198
367.6739	0.2
367.882	0.2185
368.09	0.1992
368.2981	0.2206
368.5061	0.1961
368.7141	0.2123
368.9221	0.2206
369.1301	0.2158
369.3381	0.2002
369.5461	0.2085
369.754	0.201
369.962	0.2248
370.1699	0.199
370.3778	0.2199
370.5857	0.2082
370.7936	0.2017
371.0015	0.2057
371.2093	0.2206
371.4172	0.2425
371.625	0.2098
371.8328	0.1999
372.0406	0.2246
372.2484	0.202
372.4562	0.2296
372.664	0.2142
372.8717	0.2248
373.0795	0.189
373.2872	0.2308
373.4949	0.2244
373.7026	0.2088
373.9103	0.2268
374.118	0.2224
374.3256	0.2276
374.5333	0.2288
374.7409	0.2136
374.9485	0.2364
375.1561	0.2337
375.3637	0.2172
375.5713	0.2315
375.7789	0.2288
375.9864	0.2277
376.194	0.2434
376.4015	0.2348
376.609	0.2493
376.8165	0.228
377.024	0.2297
377.2315	0.2162
377.4389	0.2353
377.6464	0.26
377.8538	0.2541
378.0612	0.2416
378.2686	0.2374
378.476	0.2566
378.6834	0.2429
378.8908	0.2404
379.0981	0.2408
379.3055	0.2472
379.5128	0.2267
379.7201	0.2296
379.9274	0.2389
380.1347	0.2408
380.342	0.2498
380.5492	0.2472
380.7565	0.2427
380.9637	0.262
381.1709	0.2527
381.3781	0.2348
381.5853	0.2566
381.7925	0.2603
381.9997	0.2526
382.2068	0.2689
382.4139	0.2518
382.6211	0.2374
382.8282	0.2523
383.0353	0.2524
383.2424	0.2309
383.4494	0.2506
383.6565	0.2405
383.8635	0.2305
384.0706	0.2481
384.2776	0.2712
384.4846	0.2248
384.6916	0.2685
384.8986	0.2396
385.1055	0.2613
385.3125	0.2646
385.5194	0.2206
385.7263	0.2631
385.9333	0.2443
386.1402	0.2608
386.347	0.264
386.5539	0.2541
386.7608	0.2642
386.9676	0.2372
387.1744	0.2448
387.3813	0.2271
387.5881	0.2561
387.7948	0.2467
388.0016	0.2357
388.2084	0.2413
388.4151	0.2305
388.6219	0.2463
388.8286	0.2435
389.0353	0.2661
389.242	0.2483
389.4487	0.234
389.6553	0.2404
389.862	0.2282
390.0686	0.2345
390.2753	0.2375
390.4819	0.2407
390.6885	0.2383
390.8951	0.2434
391.1016	0.2323
391.3082	0.2217
391.5147	0.2468
391.7213	0.2374
391.9278	0.232
392.1343	0.2207
392.3408	0.2323
392.5473	0.2302
392.7537	0.2243
392.9602	0.2227
393.1666	0.231
393.373	0.2378
393.5794	0.2348
393.7858	0.2348
393.9922	0.2111
394.1986	0.2229
394.4049	0.22
394.6113	0.2144
394.8176	0.2094
395.0239	0.2176
395.2302	0.1963
395.4365	0.2202
395.6428	0.2231
395.8491	0.2182
396.0553	0.206
396.2615	0.2043
396.4678	0.2033
396.674	0.2135
396.8802	0.2165
397.0863	0.2293
397.2925	0.2099
397.4987	0.2128
397.7048	0.2166
397.9109	0.2082
398.117	0.2078
398.3231	0.2007
398.5292	0.2112
398.7353	0.2135
398.9413	0.2137
399.1474	0.2153
399.3534	0.2088
399.5594	0.2037
399.7654	0.2209
399.9714	0.2193
400.1774	0.1984
400.3833	0.1982
400.5893	0.2088
400.7952	0.2105
401.0011	0.194
401.207	0.2165
401.4129	0.1983
401.6188	0.2151
401.8247	0.2115
402.0305	0.191
402.2364	0.2023
402.4422	0.2185
402.648	0.2034
402.8538	0.2123
403.0596	0.1998
403.2654	0.2104
403.4711	0.201
403.6768	0.2289
403.8826	0.2037
404.0883	0.2123
404.294	0.2174
404.4997	0.2177
404.7054	0.2192
404.911	0.1986
405.1167	0.2012
405.3223	0.2045
405.5279	0.2127
405.7335	0.2101
405.9391	0.1961
406.1447	0.2044
406.3502	0.2273
406.5558	0.197
406.7613	0.2116
406.9668	0.2262
407.1724	0.219
407.3778	0.1957
407.5833	0.2099
407.7888	0.1848
407.9942	0.2163
408.1997	0.2155
408.4051	0.2025
408.6105	0.2136
408.8159	0.1966
409.0213	0.2032
409.2267	0.2183
409.432	0.2015
409.6374	0.2011
409.8427	0.2011
410.048	0.2235
410.2533	0.2014
410.4586	0.2184
410.6639	0.1969
410.8691	0.187
411.0744	0.2005
411.2796	0.197
411.4848	0.2163
411.69	0.2074
411.8952	0.2143
412.1004	0.1885
412.3056	0.2066
412.5107	0.2045
412.7158	0.2041
412.921	0.2064
413.1261	0.2055
413.3312	0.2004
413.5362	0.1897
413.7413	0.2012
413.9464	0.1876
414.1514	0.2057
414.3564	0.1985
414.5614	0.1897
414.7664	0.2049
414.9714	0.1944
415.1764	0.1915
415.3813	0.2123
415.5863	0.197
415.7912	0.1918
415.9961	0.1967
416.201	0.1923
416.4059	0.1974
416.6108	0.1962
416.8156	0.1923
417.0205	0.206
417.2253	0.1964
417.4301	0.1961
417.6349	0.1962
417.8397	0.1841
418.0445	0.1964
418.2492	0.1932
418.454	0.1854
418.6587	0.191
418.8634	0.1869
419.0681	0.1788
419.2728	0.1754
419.4775	0.1959
419.6822	0.1879
419.8868	0.1753
420.0915	0.1869
420.2961	0.1765
420.5007	0.1834
420.7053	0.1906
420.9099	0.1985
421.1144	0.2028
421.319	0.1842
421.5235	0.1846
421.728	0.1902
421.9325	0.1795
422.137	0.1891
422.3415	0.1801
422.546	0.18
422.7504	0.171
422.9549	0.1926
423.1593	0.186
423.3637	0.1787
423.5681	0.1799
423.7725	0.1712
423.9769	0.1622
424.1812	0.1715
424.3856	0.1709
424.5899	0.1825
424.7942	0.1554
424.9985	0.1784
425.2028	0.1681
425.4071	0.1996
425.6113	0.1511
425.8156	0.1765
426.0198	0.1849
426.224	0.1607
426.4282	0.1583
426.6324	0.17
426.8366	0.1646
427.0407	0.1708
427.2449	0.156
427.449	0.1662
427.6531	0.138
427.8572	0.1488
428.0613	0.1527
428.2654	0.1661
428.4694	0.1617
428.6735	0.1623
428.8775	0.1759
429.0815	0.1797
429.2855	0.1301
429.4895	0.1552
429.6935	0.1504
429.8975	0.1625
430.1014	0.1386
430.3053	0.1399
430.5093	0.1543
430.7132	0.1262
430.9171	0.1341
431.1209	0.1458
431.3248	0.1422
431.5286	0.1391
431.7325	0.1285
431.9363	0.1199
432.1401	0.1307
432.3439	0.1325
432.5477	0.0971
432.7514	0.1025
432.9552	0.124
433.1589	0.1134
433.3627	0.1165
433.5664	0.1136
433.7701	0.1093
433.9737	0.1018
434.1774	0.0973
434.3811	0.115
434.5847	0.1136
434.7883	0.1127
434.9919	0.1047
435.1955	0.1139
435.3991	0.1085
435.6027	0.1115
435.8062	0.1053
436.0098	0.0993
436.2133	0.0936
436.4168	0.0881
436.6203	0.0981
436.8238	0.0947
437.0272	0.0969
437.2307	0.0821
437.4341	0.0926
437.6375	0.101
437.841	0.0803
438.0443	0.0965
438.2477	0.0917
438.4511	0.0711
438.6545	0.0948
438.8578	0.101
439.0611	0.0837
439.2644	0.0889
439.4677	0.0723
439.671	0.0769
439.8743	0.0794
440.0775	0.0868
440.2808	0.0797
440.484	0.0649
440.6872	0.0644
440.8904	0.0599
441.0936	0.0832
441.2967	0.066
441.4999	0.0743
441.703	0.0747
441.9062	0.0624
442.1093	0.0717
442.3124	0.0767
442.5155	0.0388
442.7185	0.0594
442.9216	0.0438
443.1246	0.0626
443.3276	0.0506
443.5307	0.061
443.7337	0.0575
443.9366	0.0655
444.1396	0.0589
444.3426	0.051
444.5455	0.0385
444.7484	0.0531
444.9513	0.058
445.1542	0.0558
445.3571	0.0411
445.56	0.0441
445.7628	0.0348
445.9657	0.0354
446.1685	0.0542
446.3713	0.0432
446.5741	0.0512
446.7769	0.043
446.9797	0.0462
447.1824	0.0472
447.3852	0.0394
447.5879	0.052
447.7906	0.0462
447.9933	0.0411
448.196	0.0304
448.3986	0.041
448.6013	0.0253
448.8039	0.028
449.0066	0.0301
449.2092	0.0269
449.4118	0.0334
449.6143	0.0258
449.8169	0.0372
450.0195	0.0293
450.222	0.0136
450.4245	0.0294
450.627	0.0337
450.8295	0.0294
451.032	0.011
451.2345	0.0217
451.4369	0.0342
451.6394	0.0331
451.8418	-0.0041
452.0442	0.008
452.2466	0.0254
452.449	0.0038
452.6513	0.0122
452.8537	0.0082
453.056	0.015
453.2583	0.0069
453.4607	0.0149
453.663	0.0205
453.8652	0.0108
454.0675	-0.0018
454.2697	0.0131
454.472	0.0076
454.6742	0.0091
454.8764	0.003
455.0786	0.018
455.2808	0.0168
455.4829	0.0182
455.6851	0.0345
455.8872	0.0249
456.0893	0.0345
456.2915	0.006
456.4935	0.0278
456.6956	0.0078
456.8977	0.0113
457.0997	0.0099
457.3018	-0.0107
457.5038	0.0173
457.7058	0.002
457.9078	0.0023
458.1098	0.0221
458.3117	0.0228
458.5137	0.0105
458.7156	0.0193
458.9175	-0.0079
459.1194	0.0094
459.3213	0.0014
459.5232	0.005
459.725	0.0094
459.9269	-0.0051
460.1287	0.0023
460.3305	0.0154
460.5323	-0.0008
460.7341	0.0029
460.9359	0.0177
461.1376	0.0242
461.3394	0.0131
461.5411	0.0015
461.7428	0.0086
461.9445	-0.0021
462.1462	0.0265
462.3479	0.0037
462.5495	0.0041
462.7512	0.0112
462.9528	-0.0001
463.1544	0.0046
463.356	0.001
463.5576	0.0135
463.7592	-0.0031
463.9607	0.0126
464.1623	0.006
464.3638	0.0159
464.5653	-0.0021
464.7668	-0.005
464.9683	0.0096
465.1697	0.0236
465.3712	-0.005
465.5726	-0.0085
465.7741	-0.0025
465.9755	0.0037
466.1769	-0.0038
466.3782	0.0101
466.5796	-0.0004
466.7809	-0.0045
466.9823	-0.0034
467.1836	-0.0031
467.3849	-0.0063
467.5862	0.0006
467.7875	0.014
467.9887	0.0172
468.19	-0.0055
468.3912	-0.0068
468.5924	-0.0061
468.7936	0.0019
468.9948	0.007
469.196	-0.0186
469.3972	-0.0137
469.5983	0.0033
469.7994	-0.0112
470.0006	-0.0009
470.2017	-0.0133
470.4027	0.0033
470.6038	0.0035
470.8049	-0.0137
471.0059	-0.0085
471.2069	-0.0191
471.408	-0.011
471.6089	0.0016
471.8099	-0.0082
472.0109	0.0059
472.2119	-0.0081
472.4128	-0.0138
472.6137	-0.0154
472.8146	-0.005
473.0155	-0.004
473.2164	-0.0073
473.4173	0.0046
473.6181	0.0079
473.819	-0.0001
474.0198	-0.0109
474.2206	-0.0079
474.4214	0.0007
474.6222	-0.0019
474.8229	-0.0014
475.0237	-0.005
475.2244	-0.0014
475.4251	0.0045
475.6258	-0.0096
475.8265	-0.0109
476.0272	-0.0043
476.2278	0.0064
476.4285	-0.0087
476.6291	-0.0239
476.8297	0.0054
477.0303	-0.003
477.2309	0.0013
477.4315	-0.0186
477.632	-0.0134
477.8326	-0.0083
478.0331	-0.004
478.2336	-0.0019
478.4341	-0.0022
478.6346	-0.0164
478.8351	-0.0003
479.0355	-0.0012
479.236	-0.0093
479.4364	0.005
479.6368	-0.0079
479.8372	-0.0119
480.0376	-0.0056
480.2379	-0.0287
480.4383	-0.0123
480.6386	0.003
480.8389	0.0027
481.0392	-0.0042
481.2395	-0.015
481.4398	0.0043
481.6401	-0.0045
481.8403	-0.0004
482.0405	-0.012
482.2408	-0.0028
482.441	-0.0091
482.6411	-0.0012
482.8413	-0.008
483.0415	-0.0064
483.2416	-0.0152
483.4417	-0.0068
483.6419	-0.009
483.8419	-0.0133
484.042	0.0042
484.2421	-0
484.4422	-0.0059
484.6422	-0.0063
484.8422	-0.0058
485.0422	0.0041
485.2422	0.0054
485.4422	-0.0062
485.6422	-0.0213
485.8421	0.0031
486.042	-0.0117
486.242	-0.0082
486.4419	-0.0102
486.6417	-0.0108
486.8416	-0.0023
487.0415	-0.0097
487.2413	-0.0149
487.4411	0.0008
487.641	-0.0205
487.8408	-0.0003
488.0405	-0.0118
488.2403	-0.0079
488.4401	0.0045
488.6398	-0.0049
488.8395	0.0004
489.0392	-0.0081
489.2389	-0.004
489.4386	-0.0093
489.6383	0.0002
489.8379	0.0072
490.0376	-0.0059
490.2372	-0.0127
490.4368	-0.0169
490.6364	-0.0085
490.836	0.0025
491.0355	0.0012
491.2351	-0.0118
491.4346	-0.0073
491.6341	-0.0089
491.8336	-0.0038
492.0331	-0.0109
492.2326	-0.0187
492.432	-0.0061
492.6315	-0.012
492.8309	-0.0055
493.0303	-0.0142
493.2297	-0.0044
493.4291	0.0032
493.6284	0.0078
493.8278	-0.0132
494.0271	0.0063
494.2264	-0.0065
494.4257	-0.0149
494.625	-0.0096
494.8243	-0.0173
495.0236	-0.003
495.2228	-0.0006
495.422	-0.0042
495.6213	-0.0096
495.8205	-0.0058
496.0196	0.0015
496.2188	0.0068
496.418	-0.0179
496.6171	0.0015
496.8162	-0.0147
497.0153	0.0021
497.2144	-0.0024
497.4135	-0.0026
497.6126	-0.0101
497.8116	-0.0069
498.0107	-0.0076
498.2097	-0.0117
498.4087	-0.0022
498.6077	-0.0088
498.8067	-0.0093
499.0056	0.0055
499.2046	-0.0072
499.4035	-0.0242
499.6024	-0.0091
499.8013	-0.0008
500.0002	-0.0229
500.199	-0.0039
500.3979	-0.0008
500.5967	-0.0155
500.7956	-0.0048
500.9944	-0.0122
501.1932	-0.0149
501.3919	-0.0148
501.5907	-0.0147
501.7895	-0.0078
501.9882	-0.0187
502.1869	-0.0111
502.3856	-0.0052
502.5843	-0.015
502.783	-0.0119
502.9816	-0.0027
503.1803	-0.0153
503.3789	-0.016
503.5775	0.0009
503.7761	-0.0091
503.9747	0.0007
504.1732	-0.003
504.3718	0.0034
504.5703	-0.0074
504.7689	-0.0202
504.9674	-0.0084
505.1658	-0.0102
505.3643	-0.0066
505.5628	-0.0074
505.7612	-0.0114
505.9597	-0.0003
506.1581	-0.0151
506.3565	0.0003
506.5549	-0.0094
506.7532	-0.0161
506.9516	-0.0028
507.1499	-0.0092
507.3482	-0.0152
507.5465	-0.009
507.7448	-0.0146
507.9431	-0.0048
508.1414	0.0043
508.3396	-0.0089
508.5379	-0.0065
508.7361	-0.0028
508.9343	-0.0048
509.1325	0.0018
509.3306	-0.0016
509.5288	-0.0116
509.7269	-0.0051
509.9251	-0.0008
510.1232	-0.0087
510.3213	0.0105
510.5193	-0.002
510.7174	-0.0179
510.9154	-0.0153
511.1135	-0.0055
511.3115	-0.0089
511.5095	-0.0006
511.7075	-0.0085
511.9055	0.0007
512.1034	-0.0056
512.3014	-0.0052
512.4993	-0.0009
512.6972	-0.0132
512.8951	-0.0142
513.093	0.0043
513.2908	0.0012
513.4887	-0.0093
513.6865	-0.0064
513.8844	-0.0135
514.0822	-0.0245
514.2799	-0.0114
514.4777	-0.0082
514.6755	-0.0069
514.8732	-0.0134
515.0709	-0.0115
515.2687	-0.0042
515.4664	-0.0058
515.664	-0.0054
515.8617	-0.0082
516.0594	-0.0147
516.257	-0.0013
516.4546	-0.0103
516.6522	-0.007
516.8498	-0.0083
517.0474	-0.0053
517.2449	-0.0119
517.4425	-0.0143
517.64	-0.0004
517.8375	0.0009
518.035	-0.0045
518.2325	-0.0104
518.43	-0.0014
518.6274	-0.0123
518.8249	-0.0125
519.0223	-0.0001
519.2197	-0.0044
519.4171	-0.004
519.6145	-0.0131
519.8118	0.0068
520.0092	-0.0074
520.2065	-0.0237
520.4038	-0.0167
520.6011	0.0042
520.7984	-0.0144
520.9956	-0.0089
521.1929	-0.0206
521.3901	-0.0042
521.5874	0.0002
521.7846	-0.0073
521.9818	-0.0125
522.1789	-0.0097
522.3761	-0.012
522.5732	-0.011
522.7704	-0.0109
522.9675	-0.0056
523.1646	-0.012
523.3617	-0.0033
523.5587	-0.0003
523.7558	-0.0058
523.9528	-0.0038
524.1498	0.0003
524.3468	-0.0013
524.5438	-0.008
524.7408	-0.0038
524.9378	0.001
525.1347	-0.0051
525.3316	0.0089
525.5285	-0.0158
525.7254	-0.0068
525.9223	-0.0072
526.1192	-0.0086
526.316	-0.0098
526.5129	0.0062
526.7097	-0.0011
526.9065	-0.0063
527.1033	-0.014
527.3	-0.0024
527.4968	-0.013
527.6935	-0.0061
527.8903	-0.0131
528.087	-0.003
528.2837	-0.011
528.4804	-0.0069
528.677	-0.0064
528.8737	0.0003
529.0703	-0.0073
529.2669	-0.0061
529.4635	-0.0131
529.6601	-0.0035
529.8567	-0.008
530.0532	-0.0031
530.2498	0.0017
530.4463	0.0064
530.6428	-0.0072
530.8393	-0.0037
531.0358	-0.0037
531.2322	-0.005
531.4287	-0.0106
531.6251	-0.0072
531.8215	0.0037
532.0179	-0.0038
532.2143	0.0008
532.4107	-0.0031
532.607	-0.0098
532.8034	0.0013
532.9997	-0.0097
533.196	-0.0067
533.3923	-0.0106
533.5886	-0.002
533.7848	-0.0056
533.9811	-0.0076
534.1773	-0.012
534.3735	-0.0025
534.5697	-0.0012
534.7659	-0.0007
534.9621	-0.0038
535.1582	-0.0083
535.3544	-0.0072
535.5505	-0.0107
535.7466	-0.0079
535.9427	0.0001
536.1387	-0.0062
536.3348	-0.0061
536.5308	0.0002
536.7269	-0.0105
536.9229	0.0013
537.1189	-0.0036
537.3148	0.0063
537.5108	-0.0106
537.7068	0.0011
537.9027	-0.0021
538.0986	-0.0102
538.2945	-0.0139
538.4904	-0.0117
538.6863	-0.0052
538.8821	-0.0057
539.078	-0.0052
539.2738	-0.0028
539.4696	0.0007
539.6654	0.0004
539.8611	0.0092
540.0569	-0.0035
540.2526	-0.0085
540.4484	-0.0014
540.6441	0.0047
540.8398	0.0055
541.0355	0.0001
541.2311	-0.0018
541.4268	-0.0123
541.6224	0.0001
541.818	-0.0027
542.0136	-0.0117
542.2092	-0.0077
542.4048	-0.0067
542.6003	-0.0029
542.7959	-0.003
542.9914	-0.0046
543.1869	-0.0051
543.3824	-0.0002
543.5779	-0.003
543.7734	-0.0035
543.9688	-0.009
544.1642	-0.0042
544.3596	-0.0045
544.555	-0.0073
544.7504	-0.0063
544.9458	-0.0051
545.1411	-0.0078
545.3365	-0.0012
545.5318	-0.007
545.7271	-0.0066
545.9224	-0.0107
546.1177	-0.0062
546.3129	-0
546.5081	-0.0079
546.7034	-0.0036
546.8986	-0.0052
547.0938	-0.0092
547.289	-0.0046
547.4841	-0.0052
547.6793	0.0024
547.8744	-0.0098
548.0695	-0.0072
548.2646	-0.0012
548.4597	0.004
548.6548	-0.01
548.8498	-0.0088
549.0448	0.0034
549.2399	-0.0082
549.4349	0.0057
549.6298	-0.0132
549.8248	-0.0019
550.0198	-0.0003
550.2147	-0.0105
550.4096	-0.0109
550.6045	0.0009
550.7994	-0.0027
550.9943	0.0031
551.1892	-0.0026
551.384	0.0066
551.5788	-0.0119
551.7737	0.0072
551.9685	-0.0015
552.1632	-0.0027
552.358	-0.0041
552.5528	-0.0023
552.7475	-0.001
552.9422	-0.002
553.1369	-0.0012
553.3316	0.0072
553.5263	-0.0143
553.7209	0.0024
553.9156	-0.0036
554.1102	-0.0091
554.3048	-0.0049
554.4994	0.0076
554.694	-0.0047
554.8885	-0.0023
555.0831	-0.0031
555.2776	-0.01
555.4721	-0.0037
555.6666	-0.0032
555.8611	0.0012
556.0555	-0.0065
556.25	0.0021
556.4444	-0.0066
556.6388	-0.001
556.8332	-0.0043
557.0276	-0.0094
557.222	-0.0044
557.4163	-0.0098
557.6107	-0.0073
557.805	0.0075
557.9993	-0.0143
558.1936	0.0009
558.3879	0.0036
558.5821	-0.0074
558.7764	-0.0017
558.9706	-0.0015
559.1648	0.0067
559.359	-0.007
559.5532	-0.0086
559.7473	-0.0029
559.9415	-0.0007
560.1356	-0.0158
560.3297	-0.0097
560.5238	-0.0065
560.7179	-0.0035
560.9119	-0.0005
561.106	-0.0017
561.3	-0.0053
561.494	-0.0058
561.688	-0.0099
561.882	-0.0117
562.076	-0.0082
562.2699	-0.0003
562.4639	-0.0021
562.6578	-0.01
562.8517	-0.0052
563.0456	-0.0031
563.2395	-0.0062
563.4333	-0.0094
563.6272	0.0056
563.821	-0.0044
564.0148	-0.0034
564.2086	-0.0074
564.4024	-0.0048
564.5961	-0.0081
564.7899	0.0082
564.9836	-0.0049
565.1773	0.0024
565.371	0.0066
565.5647	0.002
565.7584	-0.0009
565.952	0.0021
566.1456	0.0021
566.3393	0.003
566.5329	-0.0069
566.7264	-0.0004
566.92	-0.0074
567.1136	0.0039
567.3071	-0.0098
567.5006	0.0059
567.6941	0.0021
567.8876	0.0024
568.0811	-0.0079
568.2745	-0.0002
568.468	-0.0028
568.6614	-0.0057
568.8548	-0.0011
569.0482	-0.0033
569.2416	-0.0021
569.4349	-0.0032
569.6283	-0.0004
569.8216	-0.0021
570.0149	0.0062
570.2082	0.0061
570.4015	0.0048
570.5947	0.003
570.788	0.0085
570.9812	0.0021
571.1744	-0.0002
571.3676	-0.0059
571.5608	-0.0013
571.754	-0.0043
571.9471	-0.004
572.1402	-0.0017
572.3333	-0.0068
572.5264	-0.0065
572.7195	-0.0017
572.9126	-0.0007
573.1057	-0.0053
573.2987	-0.0024
573.4917	0.0049
573.6847	-0.0158
573.8777	-0.0029
574.0707	0.0089
574.2636	-0.0051
574.4566	-0.005
574.6495	-0.0045
574.8424	-0.0044
575.0353	-0.0028
575.2281	-0.0001
575.421	0.0008
575.6138	-0.0004
575.8067	-0.0005
575.9995	0.0018
576.1923	-0.0002
576.385	0.0051
576.5778	0.0035
576.7706	0.0012
576.9633	0.0025
577.156	0.0036
577.3487	0.0002
577.5414	0.0013
577.734	-0.0055
577.9267	0.0027
578.1193	-0.0045
578.3119	-0.0088
578.5045	-0.0011
578.6971	-0.0023
578.8897	-0.0001
579.0822	0.0044
579.2747	-0.0064
579.4673	-0.0064
579.6598	-0.0045
579.8522	-0.0041
580.0447	-0.0049
580.2372	-0.0043
580.4296	0.002
580.622	-0.0001
580.8144	0.0002
581.0068	-0.003
581.1992	-0.0103
581.3915	-0.0005
581.5839	-0.0091
581.7762	-0.0089
581.9685	-0.0027
582.1608	0.0039
582.353	-0.0016
582.5453	0.0054
582.7375	0.0034
582.9298	-0.0016
583.122	0.0066
583.3142	0.0006
583.5063	-0.0062
583.6985	-0.0013
583.8906	0.0015
584.0827	-0.0096
584.2749	0.0046
584.4669	-0.0054
584.659	-0.0007
584.8511	-0.0024
585.0431	0.0006
585.2352	0.0009
585.4272	0.001
585.6192	0.0023
585.8111	-0.0026
586.0031	-0.0055
586.195	-0.0018
586.387	0.0031
586.5789	-0.0019
586.7708	0.007
586.9627	-0.0036
587.1545	-0.0053
587.3464	0.0026
587.5382	0.0007
587.73	0.0075
587.9218	0.0061
588.1136	0.0028
588.3053	0.0063
588.4971	-0.0018
588.6888	-0.0074
588.8805	-0.0066
589.0722	0.002
589.2639	-0.0033
589.4556	-0.0076
589.6472	-0.0021
589.8389	-0.008
590.0305	-0.0053
590.2221	-0.0001
590.4137	-0.007
590.6052	0.0067
590.7968	-0.0026
590.9883	0.0042
591.1798	-0.0044
591.3713	-0.0024
591.5628	0.0021
591.7543	0.0041
591.9458	0.002
592.1372	0.0032
592.3286	0.006
592.52	0.0088
592.7114	-0.0074
592.9028	-0.0017
593.0941	-0.0004
593.2855	0.0031
593.4768	-0.0096
593.6681	-0.01
593.8594	-0.0008
594.0506	0.0007
594.2419	0.0042
594.4331	0.0004
594.6244	0.0061
594.8156	-0.0086
595.0067	0.0011
595.1979	-0.0014
595.3891	-0.0033
595.5802	-0.0006
595.7713	0.0008
595.9624	-0.0066
596.1535	0.0045
596.3446	-0.0008
596.5357	-0.0005
596.7267	0.009
596.9177	-0.0039
597.1087	-0.0019
597.2997	-0.0048
597.4907	-0.0023
597.6817	-0.0059
597.8726	0.0031
598.0635	-0.0061
598.2544	-0.0047
598.4453	-0.0011
598.6362	-0.003
598.827	-0.0059
599.0179	0.001
599.2087	-0.0014
599.3995	-0.0043
599.5903	-0.008
599.7811	-0.0025
599.9718	0.0002
600.1626	-0.0031
600.3533	-0.0041
600.544	-0.0027
600.7347	-0.0016
600.9254	-0.004
601.116	-0.0101
601.3067	-0.0011
601.4973	-0.0039
601.6879	0.0043
601.8785	-0.0106
602.0691	0
602.2596	-0.0054
602.4502	-0.0009
602.6407	0.0014
602.8312	-0.0025
603.0217	-0.008
603.2122	-0.0001
603.4027	-0.0011
603.5931	-0.0013
603.7835	-0.001
603.9739	-0.0054
604.1643	-0.0024
604.3547	-0.0052
604.5451	0.0034
604.7354	-0.0042
604.9257	-0.0069
605.116	-0.0028
605.3063	0.0011
605.4966	0.0011
605.6869	0.0043
605.8771	0.0053
606.0673	0.0046
606.2575	0.006
606.4477	0.0008
606.6379	0.0027
606.8281	0.0015
607.0182	0.0015
607.2083	0.0065
607.3985	-0.0004
607.5885	-0.0033
607.7786	0.0044
607.9687	-0.0028
608.1587	0.0005
608.3488	0.0022
608.5388	0.0045
608.7288	-0.005
608.9187	-0.0041
609.1087	-0.0039
609.2986	-0.005
609.4886	-0.0018
609.6785	-0.0055
609.8684	0.0027
610.0582	0.0048
610.2481	0.0011
610.4379	0.0042
610.6278	-0.0029
610.8176	-0.0063
611.0074	-0.0074
611.1971	0
611.3869	-0.0029
611.5766	-0.0057
611.7664	0.0069
611.9561	0.0083
612.1458	-0.0005
612.3354	-0.009
612.5251	-0.0058
612.7147	0.0002
612.9044	0.0089
613.094	-0.0067
613.2836	-0.0005
613.4731	-0.0061
613.6627	-0.0044
613.8522	0.0001
614.0417	-0.0027
614.2313	-0.0078
614.4207	-0.0002
614.6102	-0.0037
614.7997	-0.0041
614.9891	-0.0064
615.1785	0.0008
615.3679	-0.0023
615.5573	0.0067
615.7467	-0.0031
615.9361	-0.0018
616.1254	-0.0053
616.3147	0.0012
616.504	0.0018
616.6933	0.0023
616.8826	0.0063
617.0718	0.0028
617.2611	-0.0031
617.4503	-0.0072
617.6395	-0.0097
617.8287	-0.0021
618.0179	-0.0012
618.207	0.0063
618.3961	-0.0029
618.5853	-0.0025
618.7744	0.0014
618.9634	0.0022
619.1525	0.0016
619.3416	-0.0045
619.5306	-0.0061
619.7196	0.0042
619.9086	-0.003
620.0976	0.0017
620.2866	-0.0075
620.4755	0.0018
620.6645	0.0029
620.8534	0.0041
621.0423	-0.0018
621.2312	0.0072
621.42	-0.0033
621.6089	-0.0114
621.7977	0.0053
621.9865	-0.0108
622.1753	0.0026
622.3641	-0.0039
622.5529	0.0087
622.7416	0.0151
622.9303	-0.0039
623.1191	0.0055
623.3078	-0.0039
623.4964	-0.0005
623.6851	-0.0066
623.8737	-0.0082
624.0624	0.0032
624.251	-0.0035
624.4396	-0.0034
624.6282	-0.0049
624.8167	-0.0069
625.0053	0.0029
625.1938	0.0011
625.3823	-0.002
625.5708	0.0011
625.7593	-0.0092
625.9477	-0.0147
626.1362	0.0024
626.3246	0.0012
626.513	0.0041
626.7014	0.0033
626.8898	-0.0031
627.0781	-0.0036
627.2665	-0.0062
627.4548	0.0036
627.6431	0.002
627.8314	0.0064
628.0197	0.0059
628.2079	-0.0039
628.3962	-0.0058
628.5844	-0.0012
628.7726	0.0046
628.9608	0.0022
629.1489	-0.005
629.3371	0.003
629.5252	-0.0032
629.7134	0.0114
629.9015	-0.0005
630.0895	0.0022
630.2776	0.0077
630.4657	0.0004
630.6537	0.002
630.8417	0.0033
631.0297	-0.0056
631.2177	-0.0001
631.4057	-0.0013
631.5936	0.0009
631.7815	-0.006
631.9695	-0.0018
632.1574	0.0056
632.3452	0.0137
632.5331	0.0047
632.7209	-0.0027
632.9088	0.0117
633.0966	0.0095
633.2844	-0.0069
633.4722	-0.0084
633.6599	0.0031
633.8477	0.0066
634.0354	-0.0022
634.2231	-0.0021
634.4108	0.0029
634.5985	0.0092
634.7861	-0.0006
634.9738	-0.0065
635.1614	-0.0013
635.349	0.0034
635.5366	0.0004
635.7242	-0.0039
635.9117	0.0027
636.0993	-0.0021
636.2868	0.0009
636.4743	0.0012
636.6618	0.0029
636.8492	0.0021
637.0367	0.0027
637.2241	-0.0023
637.4115	-0.0038
637.5989	-0.0011
637.7863	-0.003
637.9737	-0.0023
638.161	-0.0057
638.3484	-0.0018
638.5357	0.0045
638.723	0.0015
638.9103	-0.0014
639.0975	-0.0016
639.2848	0.0006
639.472	-0.0054
639.6592	-0.0056
639.8464	0.0094
640.0336	-0.0034
640.2208	-0.004
640.4079	0.0014
640.595	-0.0032
640.7821	0.0026
640.9692	0.0017
641.1563	0.0081
641.3434	0.0024
641.5304	-0.0002
641.7174	-0.0035
641.9044	0.0038
642.0914	0.0043
642.2784	0.0041
642.4653	0.003
642.6523	-0.0002
642.8392	-0.004
643.0261	0.0023
643.213	0.0048
643.3999	-0.0096
643.5867	0
643.7735	-0.0002
643.9604	-0.0071
644.1472	0.0003
644.3339	0.0018
644.5207	-0.0032
644.7075	-0.0055
644.8942	0.0052
645.0809	0.0058
645.2676	0.0059
645.4543	0.002
645.6409	-0.0023
645.8276	0.0014
646.0142	0.0061
646.2008	-0.0087
646.3874	-0.0051
646.574	-0.0032
646.7605	-0.0043
646.9471	-0.0162
647.1336	-0.0016
647.3201	0.0027
647.5066	-0.0109
647.6931	0.001
647.8795	-0.0055
648.0659	-0.0039
648.2524	0.006
648.4388	-0.0022
648.6252	-0.0001
648.8115	0.0002
648.9979	-0
649.1842	0.0006
649.3705	0.0063
649.5568	0.0114
649.7431	0.0093
649.9294	-0.0044
650.1156	-0.0009
650.3018	-0.0038
650.488	0.0022
650.6742	0.0063
650.8604	-0.0014
651.0466	-0.0056
651.2327	-0.0034
651.4188	-0.0004
651.6049	-0.008
651.791	-0.0013
651.9771	0
652.1632	0.0028
652.3492	-0.0045
652.5352	-0.0005
652.7212	-0.0058
652.9072	0.0048
653.0932	-0.0037
653.2791	0.0002
653.465	0.0055
653.651	0.0004
653.8369	-0.009
654.0227	-0.0014
654.2086	0.0058
654.3944	0.0002
654.5803	-0.0031
654.7661	-0.0046
654.9519	0.002
655.1377	-0.0057
655.3234	-0.0024
655.5092	0.0004
655.6949	-0.0047
655.8806	-0.0069
656.0663	0.0013
656.2519	-0.0048
656.4376	-0.0048
656.6232	0.0032
656.8088	-0.0002
656.9945	0.0006
657.18	0.0032
657.3656	0.0034
657.5511	-0.0019
657.7367	-0.0064
657.9222	0.0072
658.1077	-0.0032
658.2932	0.0017
658.4786	-0.003
658.6641	-0.0131
658.8495	-0.0085
659.0349	-0.0063
659.2203	0.0021
659.4057	0.0013
659.591	0.0043
659.7764	0.004
659.9617	0.0014
660.147	-0.0012
660.3323	0.0023
660.5176	0.0034
660.7028	0.0041
660.888	0.0003
661.0733	0.0021
661.2585	-0.0067
661.4436	-0.0011
661.6288	-0.0031
661.8139	-0.0039
661.9991	0.0037
662.1842	-0.0017
662.3693	-0.0033
662.5544	-0.0053
662.7394	-0.0048
662.9245	-0.0014
663.1095	-0.009
663.2945	-0.0005
663.4795	-0.0075
663.6644	0.0073
663.8494	0.0035
664.0343	0.0023
664.2193	-0.0071
664.4042	-0.0022
664.589	-0.0055
664.7739	-0.0085
664.9587	-0.0037
665.1436	-0.0013
665.3284	0.0017
665.5132	-0.0072
665.698	0.0003
665.8827	0.0031
666.0675	-0.0028
666.2522	-0.0138
666.4369	0.0028
666.6216	0.0079
666.8063	-0.0016
666.9909	0.0062
667.1756	-0.003
667.3602	-0.0022
667.5448	0.0027
667.7294	0.0089
667.9139	0.0028
668.0985	0.0116
668.283	-0.0091
668.4675	0.0075
668.652	0.0071
668.8365	0.0036
669.0209	0.0073
669.2054	0.0135
669.3898	0.0026
669.5742	0.0015
669.7586	0.0116
669.943	0.008
670.1273	0.0074
670.3117	0.0004
670.496	0.0058
670.6803	0.0025
670.8646	0.0079
671.0488	-0.0052
671.2331	0.006
671.4173	0.004
671.6015	-0.0024
671.7857	0.0054
671.9699	-0.0011
672.1541	0.0045
672.3382	0.0036
672.5223	0.0101
672.7064	0.0031
672.8905	0.0058
673.0746	0.0025
673.2587	-0.0005
673.4427	0.0005
673.6267	0.0123
673.8107	0.0087
673.9947	0.0057
674.1787	-0.0007
674.3626	-0.0049
674.5465	0.0048
674.7304	0.0066
674.9143	0.0055
675.0982	0.0064
675.2821	-0.0053
675.4659	0.0046
675.6497	-0.0008
675.8335	-0.0028
676.0173	-0.0012
676.2011	-0.0059
676.3849	-0.0059
676.5686	-0.0019
676.7523	-0.004
676.936	-0.0117
677.1197	-0.0057
677.3034	0.0026
677.487	-0.0046
677.6706	-0.0023
677.8542	-0.0061
678.0378	-0.0071
678.2214	-0.0068
678.405	-0.003
678.5885	-0.0095
678.772	0.0023
678.9555	-0.007
679.139	-0.001
679.3225	0.0053
679.5059	0.0007
679.6894	-0.0046
679.8728	0.0023
680.0562	-0.0078
680.2395	-0.0032
680.4229	-0.0048
680.6062	0.0069
680.7896	-0.0036
680.9729	-0.0031
681.1562	0.001
681.3394	0.0071
681.5227	-0.0048
681.7059	-0.0068
681.8891	0.0008
682.0723	0.0048
682.2555	0.003
682.4387	0.0058
682.6218	0.0004
682.805	0.0026
682.9881	-0.0007
683.1712	0.0067
683.3542	-0.0036
683.5373	0.0039
683.7203	-0.0032
683.9034	-0.0074
684.0864	-0.0091
684.2694	-0.0098
684.4523	-0.0014
684.6353	-0.0069
684.8182	0.0013
685.0011	-0.0091
685.184	0.0001
685.3669	-0.0039
685.5498	-0.0063
685.7326	0.0001
685.9154	-0.0101
686.0982	0.0062
686.281	0.0021
686.4638	0
686.6465	-0.0025
686.8293	0.0011
687.012	0.0018
687.1947	-0.0035
687.3774	0.0031
687.56	-0.0039
687.7427	0.0048
687.9253	-0.0055
688.1079	-0.0065
688.2905	0.0049
688.4731	-0.0035
688.6556	-0.0037
688.8382	-0.0011
689.0207	0.0046
689.2032	-0.0074
689.3857	-0.0015
689.5681	-0.0006
689.7506	-0.0022
689.933	-0.0046
690.1154	-0.0002
690.2978	-0.0008
690.4802	-0.0026
690.6626	-0.0055
690.8449	-0.0089
691.0272	-0.0003
691.2095	-0.0109
691.3918	-0.0049
691.5741	-0.0003
691.7563	-0.0026
691.9386	0.0085
692.1208	-0.0062
692.303	0.0026
692.4852	-0.0085
692.6673	-0.0048
692.8495	0.0049
693.0316	-0.0038
693.2137	-0.0025
693.3958	0.0044
693.5778	0.0047
693.7599	0.0054
693.9419	0.0025
694.1239	0.0023
694.3059	-0.0035
694.4879	-0.0004
694.6699	0.0054
694.8518	0.0039
695.0337	-0.0023
695.2157	0.0048
695.3975	0.0007
695.5794	0.0059
695.7613	0.0029
695.9431	-0.0006
696.1249	0.0013
696.3067	0.0042
696.4885	0.017
696.6703	-0.0051
696.852	0.0019
697.0337	0.0052
697.2154	0.0037
697.3971	0.0078
697.5788	0.0034
697.7605	-0.0009
697.9421	-0.0008
698.1237	0.0074
698.3053	0.0057
698.4869	-0.0026
698.6685	-0.0077
698.85	0.0037
699.0315	0.0049
699.213	0.0041
699.3945	0.0068
699.576	-0.0002
699.7575	0.0015
699.9389	0.0056
700.1203	-0.0037
700.3017	-0.01
700.4831	-0.0051
700.6645	-0.0016
700.8458	0.0035
701.0271	0.001
701.2084	0.0049
701.3897	-0.0026
701.571	0.005
701.7523	-0.007
701.9335	-0.0079
702.1147	-0.002
702.2959	0.0023
702.4771	-0.0088
702.6583	-0.005
702.8394	-0.0099
703.0205	0.0047
703.2016	-0.0038
703.3827	-0.0034
703.5638	0.0068
703.7449	0.0048
703.9259	0.0149
704.1069	-0.0009
704.2879	0.0046
704.4689	-0.0014
704.6499	-0.0025
704.8308	0.0018
705.0117	0.0028
705.1927	0.0012
705.3735	0.0058
705.5544	-0.0036
705.7353	-0.0022
705.9161	-0.0094
706.0969	-0.0069
706.2777	-0.007
706.4585	-0.001
706.6393	0.001
706.82	-0.0063
707.0007	-0.0082
707.1815	-0.0039
707.3621	0.0093
707.5428	0.0039
707.7235	0.0027
707.9041	0.0014
708.0847	-0.0169
708.2653	-0.0069
708.4459	-0.0078
708.6265	-0.0078
708.807	-0.007
708.9875	-0.0084
709.168	-0.0055
709.3485	-0.0051
709.529	-0.0021
709.7095	-0.0206
709.8899	-0.0032
710.0703	-0.0114
710.2507	-0.0016
710.4311	-0.0095
710.6115	-0.0064
710.7918	-0.0086
710.9721	0.0027
711.1524	-0.0082
711.3327	-0.0015
711.513	-0.0012
711.6932	0.0002
711.8735	0.0074
712.0537	0.0066
712.2339	0.0101
712.4141	0.0032
712.5942	-0.0034
712.7744	-0.0027
712.9545	-0.0179
713.1346	-0.0044
713.3147	-0.0018
713.4947	-0.0088
713.6748	-0.0033
713.8548	-0.0048
714.0348	-0.0106
714.2148	-0.0002
714.3948	0.006
714.5748	-0.004
714.7547	-0.004
714.9346	0.0045
715.1145	-0.0045
715.2944	-0.003
715.4743	-0.0003
715.6541	-0.0049
715.834	-0.0013
716.0138	-0.0082
716.1936	-0.0096
716.3733	-0.003
716.5531	0.0024
716.7328	-0.006
716.9126	-0.0044
717.0923	0.0067
717.2719	0.0087
717.4516	0.0079
717.6312	-0.0055
717.8109	0.0037
717.9905	-0.0031
718.1701	-0.0032
718.3496	-0.0061
718.5292	0.0067
718.7087	-0.0003
718.8882	0.0005
719.0677	-0.0014
719.2472	0.0008
719.4267	-0.007
719.6061	0.0041
719.7856	0.0057
719.965	0.0031
720.1443	-0.0062
720.3237	0.015
720.5031	0.0006
720.6824	0.0099
720.8617	-0.0036
721.041	0.0064
721.2203	0.0098
721.3995	0.0069
721.5788	0.0043
721.758	0.0032
721.9372	-0.0033
722.1164	0.0021
722.2956	0.0027
722.4747	0.0024
722.6538	0.004
722.8329	0.0124
723.012	0.0069
723.1911	-0.001
723.3702	-0.0073
723.5492	0.0069
723.7282	-0.0087
723.9072	-0.0067
724.0862	-0.0111
724.2652	-0.011
724.4441	-0.0053
724.623	-0.0059
724.8019	-0.0018
724.9808	0
725.1597	-0.01
725.3385	0.0055
725.5174	0.0025
725.6962	-0.0034
725.875	0.0043
726.0538	0.0038
726.2325	-0.0071
726.4112	0.0066
726.59	-0.0053
726.7687	-0.0018
726.9474	0.0037
727.126	0.0066
727.3047	-0.0018
727.4833	-0.0037
727.6619	0.0033
727.8405	-0.0029
728.0191	-0.007
728.1976	0.0035
728.3762	-0.0004
728.5547	-0.0054
728.7332	-0.0148
728.9116	-0.0066
729.0901	-0.0075
729.2686	-0.0058
729.447	-0.0054
729.6254	-0.0137
729.8038	-0.0067
729.9821	-0.0168
730.1605	0.0042
730.3388	0.0006
730.5171	0.0003
730.6954	-0.0059
730.8737	0.0061
731.0519	0.0024
731.2302	0.0007
731.4084	0.0077
731.5866	0.0038
731.7648	-0.0036
731.9429	-0.0094
732.1211	-0.0149
732.2992	-0.0104
732.4773	-0.0113
732.6554	-0.004
732.8335	-0.0016
733.0115	-0.0061
733.1896	0.0109
733.3676	-0.0076
733.5456	0.0056
733.7235	0.0025
733.9015	-0.0011
734.0794	-0.0019
734.2574	-0.0082
734.4353	-0.0006
734.6131	0.0008
734.791	0.0064
734.9689	0.0043
735.1467	-0.0025
735.3245	-0.005
735.5023	-0.0034
735.68	-0.0016
735.8578	0.0052
736.0355	-0.0135
736.2132	-0.0072
736.3909	-0.0076
736.5686	-0.0103
736.7463	0.0057
736.9239	-0.0065
737.1015	-0.0016
737.2791	-0.0033
737.4567	-0.0031
737.6343	0.0004
737.8118	-0.0102
737.9894	0.0074
738.1669	-0.0003
738.3444	-0.0068
738.5218	0.0023
738.6993	-0.0052
738.8767	-0.0066
739.0541	0.0019
739.2315	-0.0154
739.4089	-0.0024
739.5863	-0.0031
739.7636	-0.0078
739.9409	-0.0031
740.1182	0.0099
740.2955	0.0014
740.4728	-0.0027
740.65	-0.0106
740.8272	-0.0048
741.0044	-0.0039
741.1816	-0.0052
741.3588	0.0019
741.5359	0.0006
741.7131	-0.0118
741.8902	-0.0024
742.0673	0.006
742.2444	-0.0016
742.4214	-0.0042
742.5985	-0.0022
742.7755	-0.0005
742.9525	-0.0055
743.1295	0.0016
743.3064	-0.0033
743.4834	-0.0011
743.6603	-0.0009
743.8372	-0.0073
744.0141	0.0059
744.191	0.0024
744.3678	-0.0109
744.5446	-0.0039
744.7215	-0.0005
744.8982	-0.0106
745.075	-0.0136
745.2518	0.0035
745.4285	-0.0068
745.6052	-0.0002
745.7819	-0.0084
745.9586	-0.0136
746.1353	-0.005
746.3119	-0.0192
746.4885	-0.0159
746.6651	-0.0098
746.8417	-0.0095
747.0183	-0.0106
747.1948	-0.0123
747.3714	0.0017
747.5479	-0.0133
747.7244	-0.007
747.9008	-0.0028
748.0773	-0.0072
748.2537	-0.0065
748.4301	-0.0139
748.6065	-0.0023
748.7829	-0.0015
748.9593	-0.011
749.1356	-0.0056
749.3119	0.0061
749.4882	-0.008
749.6645	0.0015
749.8408	-0.0112
750.017	-0.0056
750.1933	-0.0029
750.3695	-0.0013
750.5457	0.0004
750.7218	-0.0028
750.898	0.0044
751.0741	-0.0112
751.2502	-0.0077
751.4263	-0.0114
751.6024	-0.0036
751.7784	-0.0046
751.9545	-0.0062
752.1305	-0.0065
752.3065	-0.0036
752.4825	0.0002
752.6584	-0.005
752.8344	-0.0023
753.0103	-0.0084
753.1862	-0.0115
753.3621	-0.0127
753.5379	-0.006
753.7138	0.0002
753.8896	-0.0077
754.0654	0.0086
754.2412	0.0003
754.417	-0.0099
754.5927	-0.001
754.7685	-0.007
754.9442	-0.0009
755.1199	0.0179
755.2956	-0.0007
755.4712	0.0155
755.6469	-0.0011
755.8225	-0.0016
755.9981	0.0057
756.1736	0.0104
756.3492	0.0075
756.5248	-0.0026
756.7003	0.0053
756.8758	0.0127
757.0513	-0.0107
757.2267	0.001
757.4022	-0.0033
757.5776	0.0007
757.753	-0.0034
757.9284	-0.0004
758.1038	0.0054
758.2791	-0.006
758.4545	-0.0105
758.6298	0.0036
758.8051	-0.0072
758.9803	-0.0043
759.1556	-0.0053
759.3308	-0.0084
759.506	0.0058
759.6812	0.0096
759.8564	0.0026
760.0316	-0.0026
760.2067	0.0071
760.3819	0.0059
760.557	0.0119
760.732	0.008
760.9071	-0.0068
761.0821	-0.0026
761.2572	0.0059
761.4322	0.0101
761.6072	-0.0027
761.7821	-0.0057
761.9571	0.005
762.132	-0.0061
762.3069	-0.0083
762.4818	-0.0106
762.6567	-0.0055
762.8316	-0.0011
763.0064	-0.0041
763.1812	-0.0012
763.356	-0.0082
763.5308	-0.0095
763.7055	-0.0025
763.8803	-0.0087
764.055	0.0011
764.2297	-0.0002
764.4044	-0.0074
764.579	-0.0139
764.7537	-0.012
764.9283	0.0027
765.1029	-0.0135
765.2775	-0.0192
765.4521	-0.0039
765.6266	-0.0134
765.8011	-0.0016
765.9756	-0.0034
766.1501	-0.0055
766.3246	-0.0085
766.4991	-0.0113
766.6735	-0.0111
766.8479	-0.0173
767.0223	-0.0021
767.1967	-0.0038
767.371	-0.0083
767.5454	-0.0078
767.7197	-0.0087
767.894	-0.0118
768.0683	-0.0176
768.2425	-0.0038
768.4168	-0.0029
768.591	-0.0059
768.7652	-0.0042
768.9394	-0.0052
769.1135	-0.0025
769.2877	0.0081
769.4618	-0.0059
769.6359	-0.0083
769.81	-0.0027
769.984	-0.0048
770.1581	-0.0254
770.3321	0.003
770.5061	-0.0082
770.6801	0.003
770.8541	-0.0043
771.028	-0.003
771.202	-0.0111
771.3759	0.0022
771.5498	-0.0214
771.7236	0.0037
771.8975	-0.0106
772.0713	0.0103
772.2451	-0.0004
772.4189	0.0085
772.5927	-0.0029
772.7665	0.0072
772.9402	-0.0211
773.1139	-0.0075
773.2876	-0.0023
773.4613	-0.0035
773.635	-0.0071
773.8086	-0.0189
773.9822	0.0043
774.1558	0.0031
774.3294	-0.0076
774.503	-0.0023
774.6765	-0.0026
774.8501	-0.0029
775.0236	0.002
775.1971	0.013
775.3705	-0.0169
775.544	0.0067
775.7174	-0.0124
775.8908	-0.0134
776.0642	0.0038
776.2376	-0.004
776.4109	-0.0129
776.5843	-0.0132
776.7576	-0.0021
776.9309	0.0096
777.1041	-0.0014
777.2774	0.0152
777.4506	0.0047
777.6238	-0.005
777.797	-0.0005
777.9702	-0.0068
778.1434	-0.0095
778.3165	-0.0042
778.4896	-0.0021
778.6627	-0.0003
778.8358	-0.0005
779.0089	-0.01
779.1819	-0.0024
779.3549	0.0083
779.5279	-0.0016
779.7009	-0.0085
779.8739	-0.0005
780.0468	-0.0154
780.2197	-0.004
780.3926	-0.0145
780.5655	-0.0096
780.7384	-0.0106
780.9112	-0.0003
781.0841	-0.0066
781.2569	-0.0049
781.4297	0.0025
781.6024	-0.0101
781.7752	-0.0098
781.9479	-0.0066
782.1206	-0.0012
782.2933	-0.0106
782.466	0.0011
782.6386	0.0054
782.8113	0.008
782.9839	-0.0049
783.1565	0.0058
783.329	0.0013
783.5016	0.0171
783.6741	-0.0054
783.8466	-0.0019
784.0191	0.0204
784.1916	-0.0062
784.3641	-0.0036
784.5365	-0.0071
784.7089	-0.008
784.8813	-0.0125
785.0537	-0.0034
785.2261	-0.0038
785.3984	-0.0142
785.5707	-0.012
785.743	-0.0071
785.9153	-0.0079
786.0876	-0.0041
786.2598	-0.0052
786.432	-0.0169
786.6042	0.0009
786.7764	-0.0203
786.9486	-0.0029
787.1207	-0.0172
787.2928	-0.0033
787.4649	-0.0088
787.637	-0.0018
787.8091	-0.0079
787.9811	-0.0181
788.1532	-0.0065
788.3252	-0.0037
788.4972	-0.0114
788.6691	0.0042
788.8411	-0.0031
789.013	-0.0197
789.1849	-0.0036
789.3568	0.0064
789.5287	-0.0054
789.7005	-0.0062
789.8723	0.0029
790.0442	0.0087
790.2159	0.0041
790.3877	-0.0049
790.5595	-0.0033
790.7312	-0.0025
790.9029	-0.0008
791.0746	-0.0126
791.2463	-0.0099
791.4179	0.0041
791.5896	-0.0157
791.7612	0.0026
791.9328	0.0071
792.1044	-0.0111
792.2759	-0.0292
792.4474	-0.0005
792.619	0.0022
792.7905	0.007
792.9619	0.0033
793.1334	0.0067
793.3048	0.0101
793.4762	0.011
793.6476	-0.0059
793.819	-0.0205
793.9904	0.0047
794.1617	-0.0135
794.333	-0.0046
794.5043	-0.0161
794.6756	-0.0138
794.8469	-0.019
795.0181	0.0141
795.1893	-0.012
795.3605	0.0157
795.5317	-0.0074
795.7029	-0.0106
795.874	-0.0004
796.0452	-0.0026
796.2163	0.0052
796.3873	0.0098
796.5584	0.0037
796.7294	-0.0031
796.9005	0.0041
797.0715	-0.0018
797.2425	-0.0145
797.4134	-0.013
797.5844	-0.0013
797.7553	-0.0188
797.9262	-0.0041
798.0971	-0.0132
798.2679	-0.0233
798.4388	-0.0238
798.6096	-0.0171
798.7804	-0.0012
798.9512	0.0052
799.122	0.0022
799.2927	-0.0069
799.4635	0.0133
799.6342	-0.0222
799.8049	-0.002
799.9755	-0.01
800.1462	-0.0106
800.3168	-0.0003
800.4874	0.0069
800.658	0.0177
800.8286	0.0035
800.9991	0.0165
801.1696	-0.0057
801.3402	0.0057
801.5106	0.0059
801.6811	0.0134
801.8516	-0.0033
802.022	0.0067
802.1924	-0.0027
802.3628	0.0098
802.5332	0.0034
802.7035	0.0135
802.8739	0.005
803.0442	-0.0114
803.2145	0.001
803.3847	-0.0308
803.555	-0.0153
803.7252	-0.0207
803.8954	-0.0236
804.0656	-0.0218
804.2358	0.0043
804.4059	-0.0049
804.5761	-0.0111
804.7462	-0.0003
804.9163	0.0041
805.0864	-0.0231
805.2564	-0.0028
805.4264	-0.0012
805.5965	-0.0065
805.7665	0.0208
805.9364	0.006
806.1064	0.0255
806.2763	-0.0187
806.4462	0.0284
806.6161	0.0001
806.786	0.0081
806.9559	-0.0106
807.1257	0.0081
807.2955	-0.003
807.4653	-0.0135
807.6351	-0.0024
807.8048	-0.0089
807.9746	-0.0045
808.1443	0.0132
808.314	-0.0154
808.4837	0.0037
808.6533	-0.0093
808.8229	0.0203
808.9926	-0.0099
809.1622	0.0064
809.3317	0.0007
809.5013	0.0014
809.6708	0.0036
809.8403	-0.0023
810.0098	0.012
810.1793	-0.0064
810.3488	-0.0098
810.5182	-0.0302
810.6876	-0.0038
810.857	-0.0217
811.0264	0.0051
811.1958	-0.0087
811.3651	0.0116
811.5344	-0.0017
811.7037	-0.0334
811.873	-0.0076
812.0422	0.0025
812.2115	0.0064
812.3807	-0.0193
812.5499	0.0053
812.7191	0.004
812.8882	-0.0066
813.0574	-0.005
813.2265	-0.0036
813.3956	-0.0235
813.5646	0.0052
813.7337	0.0093
813.9027	-0.0132
814.0718	0.0181
814.2407	-0.002
814.4097	-0.031
814.5787	-0.0107
814.7476	-0.006
814.9165	-0.0127
815.0854	-0.018
815.2543	-0.0018
815.4232	-0.0181
815.592	0.0072
815.7608	-0.012
815.9296	-0.0074
816.0984	0.0178
816.2671	0.002
816.4359	-0.0085
816.6046	0.0091
816.7733	-0.0112
816.942	-0.0152
817.1106	-0.0093
817.2793	0.0081
817.4479	-0.0104
817.6165	0.0095
817.785	-0.0011
817.9536	-0.0098
818.1221	-0.0199
818.2906	-0.0023
818.4591	-0.0063
818.6276	-0.0062
818.7961	-0.0054
818.9645	-0.0034
819.1329	0.0039
819.3013	0.0171
819.4697	0.0434
819.638	-0.0072
819.8064	-0.0028
819.9747	0.0122
820.143	0.0028
820.3113	-0.0088
820.4795	0.0195
820.6477	-0.0196
820.816	-0.0155
820.9842	0.0266
821.1523	-0.0157
821.3205	-0.011
821.4886	0.0131
821.6567	0.0163
821.8248	0.003
821.9929	0.0051
822.1609	-0.0292
822.329	0.0211
822.497	0.0185
822.665	0.003
822.833	-0.0194
823.0009	0.014
823.1688	0.029
823.3367	0.0037
823.5046	0.0247
823.6725	0.0163
823.8404	-0.0009
824.0082	0.0236
824.176	0.0221
824.3438	-0.0005
824.5116	-0.0142
824.6793	-0.0001
824.847	0.0206
825.0147	0.002
825.1824	0.0153
825.3501	-0.0017
825.5177	-0.0094
825.6854	-0.0244
825.853	0.0015
826.0206	-0.0094
826.1881	0.0274
826.3557	-0.0227
826.5232	0.0033
826.6907	-0.0389
826.8582	-0.0349
827.0257	-0.0287
827.1931	-0.0104
827.3605	-0.0297
827.528	-0.0143
827.6953	-0.0235
827.8627	-0.0157
828.03	0.029
828.1974	-0.0176
828.3647	-0.0386
828.532	-0.0209
828.6992	-0.0232
828.8665	-0.0225
829.0337	-0.0012
829.2009	0.0064
829.3681	0.005
829.5352	0.0165
829.7024	-0.0097
829.8695	-0.0331
830.0366	0.0292
830.2037	0.0034
830.3707	0.0439
830.5378	0.0217
830.7048	0.0081
830.8718	-0.0162
831.0388	-0.0285
831.2057	0.0217
831.3727	0.035
831.5396	-0.0097
831.7065	-0.0418
831.8734	0.022
832.0402	-0.0405
832.2071	-0.0091
832.3739	-0.0207
832.5407	0.0175
832.7075	0.001
832.8742	-0.017
833.041	-0.0279
833.2077	-0.0181
833.3744	0.0154
833.541	0.0083
833.7077	-0.0497
833.8743	-0.0169
834.0409	0.0153
834.2075	-0.0046
834.3741	-0.0339
834.5407	-0.0065
834.7072	0.0101
834.8737	-0.0334
835.0402	-0.0056
835.2067	0.0182
835.3731	0.0018
835.5395	0.0062
835.706	0.0382
835.8723	-0.0178
836.0387	0.0066
836.2051	-0.0146
836.3714	-0.013
836.5377	-0.0282
836.704	-0.0009
836.8703	0.0326
837.0365	-0.0195
837.2027	-0.0434
837.3689	0.0356
837.5351	-0.0285
837.7013	-0.0346
837.8674	-0.0741
838.0335	-0.0087
838.1997	-0.024
838.3657	-0.0891
838.5318	-0.0365
838.6978	0.0319
838.8639	0.0418
839.0299	-0.0302
839.1958	-0.0194
839.3618	-0.0146
839.5277	-0.0434
839.6937	0.0022
839.8596	0.0006
840.0254	0.0006
840.1913	0.0022
840.3571	0.0667
840.523	-0.0465
840.6888	0.0308
840.8545	-0.0545
841.0203	-0.0012
841.186	0.0307
841.3517	0.017
841.5174	0.038
841.6831	-0.045
841.8488	0.0097
842.0144	-0.0084
842.18	0.0338
842.3456	0.0072
842.5112	0.0411
842.6767	-0.0242
842.8422	-0.0222
843.0077	-0.0263
843.1732	-0.0318
843.3387	-0.0362
843.5042	-0.0308
843.6696	-0.0227
843.835	0.0029
844.0004	0.0457
844.1657	-0.0112
844.3311	-0.0493
844.4964	-0.1048
844.6617	-0.0103
844.827	-0.0507
844.9923	0.0019
845.1575	0.0446
845.3227	0.0137
845.4879	0.0215
845.6531	-0.0897
845.8183	-0.0595
845.9834	-0.0736
846.1485	-0.0308
846.3136	0.038
846.4787	-0.0901
846.6438	0.0501
846.8088	-0.0249
846.9738	-0.0562
847.1388	0.0081
847.3038	-0.0269
847.4687	-0.1637
847.6337	0.0532
847.7986	0.0427
847.9635	-0.0808
848.1284	0.0455
848.2932	0.0399
848.458	0.0046
848.6228	0.104
848.7876	0.0794
848.9524	-0.0057
849.1172	-0.1322
849.2819	-0.0235
849.4466	-0.0552
849.6113	-0.0904
849.7759	-0.0603
849.9406	-0.0107
850.1052	0.0584
850.2698	-0.0118
850.4344	-0.0761
850.599	-0.1219
850.7635	0.0721
850.928	-0.0069
851.0925	-0.0321
851.257	0.0287
851.4215	-0.0352
851.5859	-0.0841
851.7503	-0.033
851.9147	-0.0054
852.0791	-0.075
852.2434	-0.0768
852.4078	0.0872
852.5721	0.0562
852.7364	-0.0753
852.9007	-0.1962
853.0649	-0.0103
853.2291	0.0274
853.3934	0.0039
853.5575	0.0584
853.7217	-0.1289
853.8859	-0.0863
854.05	-0.0388
854.2141	-0.0357
854.3782	-0.1442
854.5423	-0.1976
854.7063	0.0817
854.8703	-0.0673
855.0343	-0.0758
855.1983	-0.1695
855.3623	0.114
855.5262	-0.0275
855.6901	-0.0662
855.854	0.0055
856.0179	-0.0051
856.1818	0.0291
856.3456	-0.0368
856.5094	-0.1582
856.6732	-0.1067
856.837	0.0061
857.0008	0.0561
857.1645	-0.0577
857.3282	-0.0815
857.4919	-0.0011
857.6556	-0.0692
857.8192	-0.1281
857.9828	0.0048
858.1465	0.104
858.31	-0.189
858.4736	0.0231
858.6372	-0.2862
858.8007	-0.3187
858.9642	-0.0365
859.1277	0.0409
859.2911	-0.0106
859.4546	0.0377
859.618	-0.2389
859.7814	-0.0078
859.9448	0.1979
860.1081	-0.1441
860.2715	0.0776
860.4348	-0.021
860.5981	-0.2382
860.7614	0.0735
860.9246	-0.2395
861.0879	-0.0922
861.2511	0.2229
861.4143	0.0405
861.5774	0.0714
861.7406	-0.2646
861.9037	-0.0906
862.0668	-0.0523
862.2299	-0.3088
862.393	-0.6197
862.556	-0.0829
862.7191	-0.2527
862.8821	-0.1174
863.0451	0.2601
863.208	0.215
863.371	0.1039
863.5339	-0.2211
863.6968	0.0184
863.8597	-0.1467
864.0225	-0.0677
864.1854	0.1984
864.3482	0.1872
864.511	0.0164
864.6737	-0.0397
864.8365	-0.1518
864.9992	-0.4038
865.1619	-0.2636
865.3246	-0
865.4873	0.0184
865.65	-0.3174
865.8126	0.8666
865.9752	-0.0478
866.1378	-0.0383
866.3004	0.6186
866.4629	-0.1048
866.6254	0.5297
866.7879	0.1429
866.9504	-0.4038
867.1129	-0
867.2753	0.0903
867.4377	-0.0057
867.6001	-0.2606
867.7625	0.0818
867.9249	-0
868.0872	0.0058
868.2495	0.2003
868.4118	-0.1787
868.5741	-0
868.7363	0.1531
868.8986	-0.5079
869.0608	-0.1908
869.223	0.204
869.3851	-0
869.5473	-0
869.7094	0.232
869.8715	0.2101
870.0336	-1.2679
870.1957	0.8311
870.3577	-1.1761
870.5197	0.1754
870.6817	-0.0809
870.8437	-0.0639
871.0057	0.0256
871.1676	-0.1232
871.3295	-0.3891
871.4914	-0
871.6533	-0.5107
871.8151	-0.1238
871.977	-0
872.1388	-0
872.3006	-0
872.4623	-0
872.6241	0.8961
872.7858	-0
872.9475	-0.0868
873.1092	0.0239
873.2709	-0.0885
873.4325	-0.2832
873.5941	-0.2638
873.7557	-0
873.9173	-0
874.0789	-0
874.2404	-0.643
874.4019	-0.0368
874.5634	0.1104
874.7249	-0.0707
874.8863	0.78
875.0478	0.1864
875.2092	-0
875.3706	-0
875.5319	-0.5298
875.6933	-0
875.8546	-0
876.0159	-0.2009
876.1772	0.1275
876.3385	-0
876.4997	0.1321
876.6609	-0.5436
876.8221	-0.5031
876.9833	0.2643
877.1445	-0
877.3056	-0.1945
877.4667	0.4218
877.6278	-0
877.7889	-0.7052
877.9499	-0
878.111	-0
878.272	-0
878.433	-0
878.5939	0.2987
878.7549	0.1518
878.9158	-0.2645
879.0767	0.1629
879.2376	-0
879.3984	-0.3128
879.5593	-0
879.7201	0.3969
879.8809	0.1321
880.0417	-0.5475
880.2024	-0
880.3632	-0.6854
880.5239	-0.0381
880.6846	-0
880.8452	-2.5302
881.0059	-1.1004
881.1665	-0.1659
881.3271	-0
881.4877	-0
881.6483	-0
881.8088	-0.3418
881.9693	-0
882.1298	-0
882.2903	-0
