Data from MonoPyChalIsomerACN10uM350nmA_Absorbance_14-35-37-015.txt Node
Date: Fri Jul 05 14:35:37 BST 2024
User: LASERRRRR
Spectrometer: FLMT03099
Trigger mode: 0
Integration Time (sec): 1.000000E-1
Scans to average: 1
Electric dark correction enabled: true
Nonlinearity correction enabled: false
Boxcar width: 0
XAxis mode: Wavelengths
Number of Pixels in Spectrum: 3648
>>>>>Begin Spectral Data<<<<<
179.3399	-0.0576
179.5586	-0.0576
179.7771	-0.0576
179.9957	0.5996
180.2143	-0
180.4329	-0.0835
180.6514	-0
180.8699	-0
181.0885	0.3133
181.307	-0.0092
181.5255	-0
181.744	-0.5545
181.9625	-0.1659
182.181	-0
182.3994	-0
182.6179	-0.495
182.8363	0.2176
183.0547	0.1127
183.2732	-0.0093
183.4916	0.2399
183.71	0.2642
183.9284	0.0538
184.1467	-0.0527
184.3651	0.033
184.5835	-0.0402
184.8018	-0.0075
185.0201	-0.1484
185.2385	-0.0452
185.4568	0.0866
185.6751	0.0467
185.8934	0.3245
186.1117	-0.0231
186.3299	0.0328
186.5482	0.0406
186.7664	-0.038
186.9847	-0.0322
187.2029	0.1053
187.4211	0.0784
187.6393	0.2029
187.8575	0.5319
188.0757	0.1831
188.2939	0.0717
188.512	-0.0758
188.7302	-0.0767
188.9483	0.1134
189.1665	0.1774
189.3846	-0.1431
189.6027	0.223
189.8208	0.2768
190.0389	0.1937
190.257	0.0985
190.475	0.5137
190.6931	0.0882
190.9111	0.4021
191.1292	0.0423
191.3472	0.5008
191.5652	0.1541
191.7832	0.0264
192.0012	0.5098
192.2192	0.2213
192.4371	0.3518
192.6551	0.3426
192.873	0.3163
193.091	0.3961
193.3089	0.5482
193.5268	0.5582
193.7447	0.59
193.9626	0.3589
194.1805	0.5002
194.3984	0.7186
194.6162	0.592
194.8341	0.5708
195.0519	0.479
195.2697	1.1606
195.4875	0.578
195.7054	0.5735
195.9231	0.5725
196.1409	0.5788
196.3587	0.6604
196.5765	0.5691
196.7942	0.5656
197.012	0.5612
197.2297	0.5
197.4474	0.5066
197.6651	0.58
197.8828	0.5417
198.1005	0.5267
198.3182	0.6928
198.5358	0.7516
198.7535	0.6614
198.9711	0.6077
199.1888	0.6192
199.4064	0.5686
199.624	0.5045
199.8416	0.584
200.0592	0.8725
200.2767	0.616
200.4943	0.7478
200.7119	0.7576
200.9294	0.6994
201.1469	0.6376
201.3645	0.5087
201.582	0.6761
201.7995	0.6364
202.017	0.5605
202.2344	0.5235
202.4519	0.7588
202.6694	0.8479
202.8868	0.6882
203.1042	0.5944
203.3217	0.7191
203.5391	0.5956
203.7565	0.6149
203.9739	0.6012
204.1913	0.5885
204.4086	0.6006
204.626	0.7277
204.8433	0.6665
205.0607	0.5724
205.278	0.6358
205.4953	0.6308
205.7126	0.6912
205.9299	0.7353
206.1472	0.6791
206.3644	0.6052
206.5817	0.6425
206.7989	0.6391
207.0162	0.6907
207.2334	0.6896
207.4506	0.6188
207.6678	0.668
207.885	0.6095
208.1022	0.6322
208.3194	0.6943
208.5365	0.6823
208.7537	0.6548
208.9708	0.5605
209.1879	0.6168
209.405	0.6707
209.6222	0.675
209.8392	0.6178
210.0563	0.5979
210.2734	0.6527
210.4905	0.5924
210.7075	0.6288
210.9245	0.585
211.1416	0.69
211.3586	0.6223
211.5756	0.6074
211.7926	0.5785
212.0096	0.6097
212.2265	0.564
212.4435	0.5576
212.6604	0.6467
212.8774	0.5228
213.0943	0.6264
213.3112	0.5806
213.5281	0.4877
213.745	0.493
213.9619	0.4859
214.1788	0.4585
214.3956	0.4181
214.6125	0.4308
214.8293	0.5028
215.0461	0.4708
215.2629	0.4478
215.4798	0.4445
215.6965	0.4279
215.9133	0.4522
216.1301	0.4143
216.3469	0.4376
216.5636	0.382
216.7803	0.3969
216.9971	0.4075
217.2138	0.365
217.4305	0.3727
217.6472	0.362
217.8639	0.3519
218.0805	0.3123
218.2972	0.3101
218.5138	0.3238
218.7305	0.3152
218.9471	0.293
219.1637	0.311
219.3803	0.2779
219.5969	0.2737
219.8135	0.2482
220.0301	0.2855
220.2466	0.2628
220.4632	0.2408
220.6797	0.2349
220.8962	0.2484
221.1127	0.2668
221.3292	0.2616
221.5457	0.2417
221.7622	0.26
221.9787	0.2542
222.1951	0.232
222.4116	0.2561
222.628	0.248
222.8444	0.242
223.0608	0.2421
223.2772	0.2576
223.4936	0.2389
223.71	0.2395
223.9264	0.2714
224.1427	0.2577
224.3591	0.2408
224.5754	0.2701
224.7917	0.259
225.008	0.2671
225.2243	0.2541
225.4406	0.2846
225.6569	0.2792
225.8732	0.2576
226.0894	0.2627
226.3057	0.2556
226.5219	0.2761
226.7381	0.2655
226.9543	0.28
227.1705	0.2846
227.3867	0.2827
227.6029	0.3035
227.8191	0.309
228.0352	0.3015
228.2513	0.3048
228.4675	0.3163
228.6836	0.3119
228.8997	0.2998
229.1158	0.3022
229.3319	0.3099
229.548	0.3004
229.764	0.3198
229.9801	0.3292
230.1961	0.3179
230.4121	0.3418
230.6282	0.3281
230.8442	0.3113
231.0602	0.364
231.2761	0.3631
231.4921	0.347
231.7081	0.3536
231.924	0.3464
232.14	0.3433
232.3559	0.3648
232.5718	0.3649
232.7877	0.3632
233.0036	0.3397
233.2195	0.3571
233.4353	0.3659
233.6512	0.3614
233.867	0.3555
234.0829	0.3463
234.2987	0.3697
234.5145	0.3671
234.7303	0.3768
234.9461	0.4017
235.1619	0.3638
235.3776	0.3795
235.5934	0.3888
235.8091	0.3726
236.0249	0.3821
236.2406	0.3823
236.4563	0.3711
236.672	0.4078
236.8877	0.3913
237.1034	0.3933
237.319	0.397
237.5347	0.4074
237.7503	0.4004
237.966	0.4031
238.1816	0.3985
238.3972	0.4052
238.6128	0.39
238.8284	0.3956
239.0439	0.4094
239.2595	0.416
239.475	0.4236
239.6906	0.403
239.9061	0.3996
240.1216	0.3972
240.3371	0.4115
240.5526	0.4017
240.7681	0.4123
240.9836	0.3885
241.199	0.4157
241.4145	0.3794
241.6299	0.3925
241.8453	0.3654
242.0607	0.3784
242.2761	0.3461
242.4915	0.3691
242.7069	0.367
242.9223	0.3448
243.1376	0.3504
243.353	0.349
243.5683	0.3588
243.7836	0.322
243.9989	0.3233
244.2142	0.3092
244.4295	0.3101
244.6448	0.3214
244.86	0.3091
245.0753	0.2859
245.2905	0.292
245.5057	0.2794
245.721	0.2624
245.9362	0.275
246.1514	0.2629
246.3665	0.256
246.5817	0.2534
246.7969	0.2699
247.012	0.2548
247.2271	0.2372
247.4423	0.2311
247.6574	0.2417
247.8725	0.2186
248.0876	0.2285
248.3026	0.2351
248.5177	0.2172
248.7328	0.2195
248.9478	0.2086
249.1628	0.2055
249.3779	0.2143
249.5929	0.1962
249.8079	0.2279
250.0228	0.1987
250.2378	0.2136
250.4528	0.2074
250.6677	0.1917
250.8827	0.1978
251.0976	0.1925
251.3125	0.1889
251.5274	0.1767
251.7423	0.1861
251.9572	0.1883
252.172	0.1811
252.3869	0.179
252.6017	0.1808
252.8166	0.165
253.0314	0.1594
253.2462	0.1717
253.461	0.1784
253.6758	0.1666
253.8906	0.1831
254.1053	0.1788
254.3201	0.1697
254.5348	0.1708
254.7496	0.1756
254.9643	0.1564
255.179	0.1786
255.3937	0.1642
255.6083	0.1825
255.823	0.1701
256.0377	0.1534
256.2523	0.1737
256.467	0.1454
256.6816	0.1619
256.8962	0.1625
257.1108	0.1651
257.3254	0.1791
257.54	0.158
257.7545	0.1805
257.9691	0.175
258.1836	0.1663
258.3981	0.1813
258.6127	0.1917
258.8272	0.1587
259.0417	0.1624
259.2561	0.1621
259.4706	0.1776
259.6851	0.1831
259.8995	0.1586
260.114	0.1668
260.3284	0.1556
260.5428	0.1683
260.7572	0.1715
260.9716	0.1785
261.186	0.1607
261.4003	0.1594
261.6147	0.176
261.829	0.1684
262.0433	0.1638
262.2577	0.1652
262.472	0.1775
262.6863	0.1669
262.9005	0.1484
263.1148	0.1676
263.3291	0.1511
263.5433	0.1642
263.7576	0.167
263.9718	0.1654
264.186	0.1646
264.4002	0.1636
264.6144	0.1604
264.8286	0.1676
265.0427	0.1558
265.2569	0.1619
265.471	0.1665
265.6851	0.1616
265.8993	0.1576
266.1134	0.1567
266.3275	0.1587
266.5415	0.1587
266.7556	0.1592
266.9697	0.1673
267.1837	0.1661
267.3978	0.1666
267.6118	0.1617
267.8258	0.1748
268.0398	0.1604
268.2538	0.1619
268.4677	0.1629
268.6817	0.1669
268.8957	0.1636
269.1096	0.1642
269.3235	0.1637
269.5374	0.1563
269.7514	0.1542
269.9652	0.1504
270.1791	0.1541
270.393	0.1499
270.6068	0.1633
270.8207	0.1443
271.0345	0.1411
271.2483	0.1455
271.4622	0.1375
271.676	0.1499
271.8897	0.139
272.1035	0.1515
272.3173	0.1425
272.531	0.1453
272.7448	0.1438
272.9585	0.1473
273.1722	0.1525
273.3859	0.148
273.5996	0.1433
273.8133	0.1399
274.0269	0.1393
274.2406	0.1413
274.4542	0.1461
274.6679	0.1376
274.8815	0.1391
275.0951	0.1479
275.3087	0.1501
275.5223	0.1508
275.7358	0.1622
275.9494	0.1573
276.1629	0.139
276.3765	0.1404
276.59	0.1546
276.8035	0.1523
277.017	0.1361
277.2305	0.1339
277.444	0.1556
277.6574	0.1401
277.8709	0.1518
278.0843	0.147
278.2978	0.1413
278.5112	0.1566
278.7246	0.1484
278.938	0.1475
279.1513	0.1589
279.3647	0.166
279.5781	0.1409
279.7914	0.1566
280.0047	0.1602
280.2181	0.1615
280.4314	0.1619
280.6447	0.1479
280.8579	0.1444
281.0712	0.1461
281.2845	0.159
281.4977	0.1553
281.711	0.1482
281.9242	0.1532
282.1374	0.1604
282.3506	0.147
282.5638	0.163
282.7769	0.1546
282.9901	0.1546
283.2033	0.1608
283.4164	0.1568
283.6295	0.1471
283.8426	0.1581
284.0557	0.1619
284.2688	0.1592
284.4819	0.1678
284.695	0.1643
284.908	0.1701
285.1211	0.1523
285.3341	0.158
285.5471	0.1643
285.7601	0.1615
285.9731	0.1549
286.1861	0.1613
286.3991	0.1737
286.612	0.1674
286.825	0.1608
287.0379	0.1614
287.2508	0.154
287.4637	0.1634
287.6766	0.1655
287.8895	0.1587
288.1024	0.186
288.3152	0.1667
288.5281	0.1475
288.7409	0.1678
288.9538	0.1623
289.1666	0.1576
289.3794	0.1498
289.5922	0.1621
289.8049	0.166
290.0177	0.162
290.2304	0.1595
290.4432	0.1746
290.6559	0.1628
290.8686	0.1736
291.0813	0.1637
291.294	0.1634
291.5067	0.1721
291.7194	0.1602
291.932	0.1763
292.1447	0.1638
292.3573	0.16
292.5699	0.1657
292.7825	0.1683
292.9951	0.1538
293.2077	0.1643
293.4203	0.159
293.6328	0.1539
293.8454	0.1816
294.0579	0.1633
294.2704	0.1549
294.4829	0.159
294.6954	0.1732
294.9079	0.1654
295.1204	0.159
295.3328	0.1607
295.5453	0.1606
295.7577	0.1643
295.9701	0.1522
296.1825	0.1711
296.3949	0.1623
296.6073	0.1621
296.8197	0.1446
297.0321	0.175
297.2444	0.1524
297.4567	0.1645
297.6691	0.1696
297.8814	0.1653
298.0937	0.1601
298.306	0.1649
298.5182	0.1673
298.7305	0.1685
298.9428	0.1656
299.155	0.169
299.3672	0.1574
299.5794	0.1709
299.7916	0.1681
300.0038	0.1714
300.216	0.1646
300.4282	0.1643
300.6403	0.1624
300.8525	0.1636
301.0646	0.1631
301.2767	0.1617
301.4888	0.1545
301.7009	0.1536
301.913	0.1605
302.125	0.1624
302.3371	0.1577
302.5491	0.1607
302.7612	0.1691
302.9732	0.1729
303.1852	0.1641
303.3972	0.1609
303.6092	0.1572
303.8211	0.1565
304.0331	0.1476
304.245	0.1474
304.457	0.1492
304.6689	0.1559
304.8808	0.1623
305.0927	0.14
305.3046	0.1483
305.5164	0.1519
305.7283	0.1482
305.9401	0.1445
306.152	0.1504
306.3638	0.1576
306.5756	0.1433
306.7874	0.1518
306.9992	0.1511
307.2109	0.1409
307.4227	0.132
307.6344	0.1473
307.8462	0.1352
308.0579	0.1301
308.2696	0.1357
308.4813	0.1304
308.693	0.1341
308.9046	0.1427
309.1163	0.1284
309.328	0.119
309.5396	0.1223
309.7512	0.1248
309.9628	0.1237
310.1744	0.1217
310.386	0.1188
310.5976	0.1223
310.8091	0.1227
311.0207	0.1209
311.2322	0.1266
311.4437	0.1164
311.6552	0.1124
311.8667	0.1204
312.0782	0.0937
312.2897	0.0951
312.5012	0.1262
312.7126	0.1159
312.924	0.1085
313.1355	0.1129
313.3469	0.1196
313.5583	0.1134
313.7696	0.1091
313.981	0.1121
314.1924	0.1185
314.4037	0.1072
314.6151	0.1114
314.8264	0.1006
315.0377	0.1088
315.249	0.1087
315.4603	0.1167
315.6716	0.1057
315.8828	0.0917
316.0941	0.0966
316.3053	0.0979
316.5165	0.0951
316.7277	0.1004
316.9389	0.1105
317.1501	0.0931
317.3613	0.1068
317.5724	0.085
317.7836	0.1091
317.9947	0.0999
318.2058	0.0937
318.417	0.0917
318.6281	0.0818
318.8391	0.099
319.0502	0.0891
319.2613	0.0976
319.4723	0.1043
319.6834	0.0992
319.8944	0.0915
320.1054	0.0891
320.3164	0.1052
320.5274	0.0958
320.7383	0.0942
320.9493	0.0943
321.1602	0.1066
321.3712	0.0936
321.5821	0.0981
321.793	0.0976
322.0039	0.1018
322.2148	0.1012
322.4257	0.0989
322.6365	0.1042
322.8474	0.1067
323.0582	0.0964
323.269	0.1023
323.4798	0.1117
323.6906	0.1055
323.9014	0.1145
324.1122	0.1011
324.3229	0.097
324.5337	0.0993
324.7444	0.0916
324.9551	0.1214
325.1658	0.1128
325.3765	0.1063
325.5872	0.104
325.7979	0.0999
326.0085	0.1019
326.2192	0.1089
326.4298	0.1053
326.6404	0.0887
326.851	0.1031
327.0616	0.105
327.2722	0.1007
327.4828	0.1138
327.6933	0.1067
327.9039	0.1009
328.1144	0.1107
328.3249	0.1168
328.5354	0.0933
328.7459	0.1125
328.9564	0.1018
329.1669	0.1087
329.3773	0.099
329.5878	0.0958
329.7982	0.1065
330.0086	0.115
330.219	0.1106
330.4294	0.1068
330.6398	0.101
330.8502	0.1093
331.0605	0.1147
331.2708	0.1109
331.4812	0.119
331.6915	0.1056
331.9018	0.1151
332.1121	0.1009
332.3224	0.1182
332.5326	0.1197
332.7429	0.1049
332.9531	0.1237
333.1633	0.1031
333.3735	0.1159
333.5837	0.11
333.7939	0.0981
334.0041	0.1142
334.2143	0.1149
334.4244	0.1087
334.6346	0.1018
334.8447	0.1236
335.0548	0.1076
335.2649	0.0959
335.475	0.1095
335.685	0.1138
335.8951	0.1225
336.1051	0.108
336.3152	0.1249
336.5252	0.1061
336.7352	0.1141
336.9452	0.1178
337.1552	0.1107
337.3652	0.1028
337.5751	0.1139
337.7851	0.1099
337.995	0.1082
338.2049	0.1118
338.4148	0.1167
338.6247	0.1149
338.8346	0.1107
339.0445	0.1144
339.2543	0.1008
339.4642	0.1227
339.674	0.1084
339.8838	0.1113
340.0936	0.1128
340.3034	0.1098
340.5132	0.1152
340.7229	0.1148
340.9327	0.119
341.1424	0.1171
341.3522	0.1337
341.5619	0.1189
341.7716	0.127
341.9813	0.1195
342.1909	0.127
342.4006	0.1195
342.6102	0.1447
342.8199	0.121
343.0295	0.1189
343.2391	0.1222
343.4487	0.1341
343.6583	0.1103
343.8679	0.1219
344.0774	0.1216
344.287	0.1255
344.4965	0.1175
344.706	0.1267
344.9155	0.1312
345.125	0.1162
345.3345	0.1296
345.544	0.1153
345.7534	0.12
345.9629	0.1196
346.1723	0.1267
346.3817	0.1194
346.5911	0.126
346.8005	0.1375
347.0099	0.1197
347.2193	0.1371
347.4286	0.1353
347.638	0.1326
347.8473	0.1412
348.0566	0.1241
348.2659	0.1372
348.4752	0.1295
348.6845	0.1414
348.8937	0.1309
349.103	0.1396
349.3122	0.1408
349.5214	0.1447
349.7306	0.1464
349.9398	0.1349
350.149	0.1354
350.3582	0.1337
350.5674	0.1419
350.7765	0.1424
350.9856	0.1389
351.1948	0.134
351.4039	0.1226
351.613	0.1416
351.822	0.1574
352.0311	0.1456
352.2402	0.1421
352.4492	0.1444
352.6582	0.1502
352.8672	0.1446
353.0762	0.1481
353.2852	0.1409
353.4942	0.1343
353.7032	0.1577
353.9121	0.1627
354.1211	0.1509
354.33	0.1645
354.5389	0.1487
354.7478	0.142
354.9567	0.1492
355.1655	0.1443
355.3744	0.1605
355.5833	0.1619
355.7921	0.1594
356.0009	0.1506
356.2097	0.1828
356.4185	0.1565
356.6273	0.1633
356.8361	0.1629
357.0448	0.1602
357.2536	0.1579
357.4623	0.1553
357.671	0.1594
357.8797	0.1627
358.0884	0.1639
358.2971	0.1749
358.5057	0.1684
358.7144	0.1781
358.923	0.1608
359.1316	0.1759
359.3402	0.168
359.5488	0.1758
359.7574	0.1802
359.966	0.1898
360.1746	0.1839
360.3831	0.1733
360.5916	0.1754
360.8002	0.1665
361.0087	0.1822
361.2172	0.1777
361.4256	0.1732
361.6341	0.1859
361.8426	0.1902
362.051	0.1892
362.2594	0.1846
362.4678	0.1714
362.6762	0.2081
362.8846	0.1901
363.093	0.1858
363.3014	0.1712
363.5097	0.1781
363.718	0.1936
363.9264	0.1899
364.1347	0.1754
364.343	0.1901
364.5513	0.2048
364.7595	0.2001
364.9678	0.1943
365.176	0.2081
365.3842	0.2002
365.5925	0.1978
365.8007	0.204
366.0089	0.1988
366.217	0.186
366.4252	0.2061
366.6333	0.2088
366.8415	0.2076
367.0496	0.1956
367.2577	0.2075
367.4658	0.2094
367.6739	0.2141
367.882	0.2338
368.09	0.1969
368.2981	0.2224
368.5061	0.2107
368.7141	0.2267
368.9221	0.2202
369.1301	0.2226
369.3381	0.2132
369.5461	0.2087
369.754	0.2057
369.962	0.224
370.1699	0.2291
370.3778	0.2199
370.5857	0.2067
370.7936	0.2159
371.0015	0.2184
371.2093	0.2089
371.4172	0.2194
371.625	0.2216
371.8328	0.2081
372.0406	0.2163
372.2484	0.2209
372.4562	0.2308
372.664	0.2276
372.8717	0.2196
373.0795	0.2124
373.2872	0.2198
373.4949	0.2332
373.7026	0.2246
373.9103	0.2243
374.118	0.2337
374.3256	0.2167
374.5333	0.2235
374.7409	0.2202
374.9485	0.2386
375.1561	0.2469
375.3637	0.2343
375.5713	0.2353
375.7789	0.2432
375.9864	0.2257
376.194	0.2249
376.4015	0.2398
376.609	0.2372
376.8165	0.245
377.024	0.2404
377.2315	0.2352
377.4389	0.2551
377.6464	0.2413
377.8538	0.2579
378.0612	0.2407
378.2686	0.2434
378.476	0.2624
378.6834	0.2481
378.8908	0.2423
379.0981	0.2503
379.3055	0.248
379.5128	0.248
379.7201	0.2488
379.9274	0.2416
380.1347	0.2406
380.342	0.2529
380.5492	0.2262
380.7565	0.2513
380.9637	0.2594
381.1709	0.2591
381.3781	0.2419
381.5853	0.2521
381.7925	0.2532
381.9997	0.2506
382.2068	0.2525
382.4139	0.2625
382.6211	0.2527
382.8282	0.253
383.0353	0.2561
383.2424	0.2392
383.4494	0.2405
383.6565	0.2468
383.8635	0.2341
384.0706	0.2502
384.2776	0.2691
384.4846	0.2474
384.6916	0.2702
384.8986	0.2695
385.1055	0.261
385.3125	0.2671
385.5194	0.2293
385.7263	0.2621
385.9333	0.2527
386.1402	0.2452
386.347	0.2493
386.5539	0.2595
386.7608	0.2618
386.9676	0.233
387.1744	0.2565
387.3813	0.2384
387.5881	0.2607
387.7948	0.2453
388.0016	0.2452
388.2084	0.2514
388.4151	0.2522
388.6219	0.2642
388.8286	0.2513
389.0353	0.2559
389.242	0.2568
389.4487	0.241
389.6553	0.2346
389.862	0.2329
390.0686	0.2267
390.2753	0.2539
390.4819	0.2388
390.6885	0.2438
390.8951	0.2506
391.1016	0.2538
391.3082	0.2366
391.5147	0.2373
391.7213	0.2471
391.9278	0.2242
392.1343	0.2272
392.3408	0.2376
392.5473	0.2421
392.7537	0.2324
392.9602	0.2256
393.1666	0.2434
393.373	0.2423
393.5794	0.2311
393.7858	0.242
393.9922	0.2096
394.1986	0.2375
394.4049	0.2441
394.6113	0.22
394.8176	0.219
395.0239	0.2243
395.2302	0.2178
395.4365	0.2184
395.6428	0.2354
395.8491	0.1957
396.0553	0.2233
396.2615	0.2178
396.4678	0.2181
396.674	0.2008
396.8802	0.2162
397.0863	0.2308
397.2925	0.2148
397.4987	0.2092
397.7048	0.2089
397.9109	0.2058
398.117	0.2118
398.3231	0.2141
398.5292	0.2253
398.7353	0.2127
398.9413	0.227
399.1474	0.2278
399.3534	0.2055
399.5594	0.1973
399.7654	0.2183
399.9714	0.225
400.1774	0.2079
400.3833	0.211
400.5893	0.2067
400.7952	0.2264
401.0011	0.204
401.207	0.2137
401.4129	0.2292
401.6188	0.223
401.8247	0.208
402.0305	0.1939
402.2364	0.2196
402.4422	0.2182
402.648	0.2177
402.8538	0.2171
403.0596	0.2005
403.2654	0.2025
403.4711	0.2061
403.6768	0.2161
403.8826	0.2088
404.0883	0.2179
404.294	0.2194
404.4997	0.2073
404.7054	0.2306
404.911	0.1829
405.1167	0.2145
405.3223	0.2219
405.5279	0.2262
405.7335	0.2295
405.9391	0.2315
406.1447	0.2148
406.3502	0.2392
406.5558	0.2142
406.7613	0.2028
406.9668	0.2197
407.1724	0.221
407.3778	0.2076
407.5833	0.2043
407.7888	0.217
407.9942	0.2352
408.1997	0.2017
408.4051	0.1871
408.6105	0.2109
408.8159	0.2019
409.0213	0.2035
409.2267	0.2109
409.432	0.2088
409.6374	0.234
409.8427	0.2011
410.048	0.2177
410.2533	0.2108
410.4586	0.2171
410.6639	0.1969
410.8691	0.2105
411.0744	0.2057
411.2796	0.1894
411.4848	0.2028
411.69	0.2
411.8952	0.2267
412.1004	0.2263
412.3056	0.2155
412.5107	0.2067
412.7158	0.2173
412.921	0.2238
413.1261	0.2151
413.3312	0.2002
413.5362	0.2056
413.7413	0.1995
413.9464	0.2178
414.1514	0.2084
414.3564	0.2138
414.5614	0.1954
414.7664	0.2178
414.9714	0.1909
415.1764	0.1988
415.3813	0.2185
415.5863	0.1948
415.7912	0.2063
415.9961	0.1974
416.201	0.2067
416.4059	0.2273
416.6108	0.1751
416.8156	0.2045
417.0205	0.1901
417.2253	0.1933
417.4301	0.232
417.6349	0.2118
417.8397	0.1998
418.0445	0.1959
418.2492	0.2064
418.454	0.214
418.6587	0.2006
418.8634	0.1932
419.0681	0.1776
419.2728	0.1896
419.4775	0.1977
419.6822	0.2034
419.8868	0.1724
420.0915	0.181
420.2961	0.1898
420.5007	0.1799
420.7053	0.1845
420.9099	0.1927
421.1144	0.1995
421.319	0.1819
421.5235	0.1965
421.728	0.1957
421.9325	0.1992
422.137	0.2071
422.3415	0.1912
422.546	0.185
422.7504	0.1833
422.9549	0.1842
423.1593	0.2005
423.3637	0.1828
423.5681	0.1823
423.7725	0.1723
423.9769	0.1901
424.1812	0.1813
424.3856	0.1503
424.5899	0.189
424.7942	0.1824
424.9985	0.1848
425.2028	0.1604
425.4071	0.2074
425.6113	0.1713
425.8156	0.1878
426.0198	0.175
426.224	0.1675
426.4282	0.1762
426.6324	0.1661
426.8366	0.1716
427.0407	0.1606
427.2449	0.1687
427.449	0.1726
427.6531	0.1324
427.8572	0.1666
428.0613	0.1557
428.2654	0.1594
428.4694	0.154
428.6735	0.1506
428.8775	0.1772
429.0815	0.1478
429.2855	0.1377
429.4895	0.1658
429.6935	0.1564
429.8975	0.1528
430.1014	0.1366
430.3053	0.1437
430.5093	0.1522
430.7132	0.1345
430.9171	0.142
431.1209	0.1418
431.3248	0.1351
431.5286	0.1357
431.7325	0.1279
431.9363	0.1324
432.1401	0.1353
432.3439	0.1344
432.5477	0.1202
432.7514	0.1184
432.9552	0.1326
433.1589	0.1218
433.3627	0.1132
433.5664	0.1176
433.7701	0.1224
433.9737	0.1246
434.1774	0.1084
434.3811	0.1222
434.5847	0.122
434.7883	0.1142
434.9919	0.1239
435.1955	0.1049
435.3991	0.1223
435.6027	0.1145
435.8062	0.1103
436.0098	0.1027
436.2133	0.0955
436.4168	0.1002
436.6203	0.0985
436.8238	0.105
437.0272	0.1073
437.2307	0.1033
437.4341	0.0941
437.6375	0.1004
437.841	0.0978
438.0443	0.0986
438.2477	0.0842
438.4511	0.0878
438.6545	0.1027
438.8578	0.101
439.0611	0.0878
439.2644	0.0777
439.4677	0.0774
439.671	0.075
439.8743	0.0943
440.0775	0.0847
440.2808	0.0721
440.484	0.0541
440.6872	0.0482
440.8904	0.0756
441.0936	0.0781
441.2967	0.0751
441.4999	0.0792
441.703	0.0691
441.9062	0.0628
442.1093	0.0818
442.3124	0.0771
442.5155	0.0506
442.7185	0.0667
442.9216	0.0404
443.1246	0.0776
443.3276	0.0562
443.5307	0.0616
443.7337	0.0635
443.9366	0.0601
444.1396	0.0558
444.3426	0.0534
444.5455	0.0629
444.7484	0.0575
444.9513	0.062
445.1542	0.067
445.3571	0.0463
445.56	0.0561
445.7628	0.0378
445.9657	0.0432
446.1685	0.0444
446.3713	0.0537
446.5741	0.0462
446.7769	0.0356
446.9797	0.031
447.1824	0.0373
447.3852	0.0313
447.5879	0.054
447.7906	0.0528
447.9933	0.0446
448.196	0.0324
448.3986	0.0277
448.6013	0.0234
448.8039	0.0336
449.0066	0.0268
449.2092	0.0407
449.4118	0.0427
449.6143	0.0404
449.8169	0.0369
450.0195	0.0227
450.222	0.0186
450.4245	0.0317
450.627	0.0324
450.8295	0.0307
451.032	0.0129
451.2345	0.0373
451.4369	0.0302
451.6394	0.0255
451.8418	0.0076
452.0442	0.0159
452.2466	0.0313
452.449	0.0075
452.6513	0.0431
452.8537	0.0106
453.056	0.0107
453.2583	0.0183
453.4607	0.0118
453.663	0.0072
453.8652	0.0292
454.0675	0.0197
454.2697	0.0187
454.472	-0.0002
454.6742	0.0315
454.8764	0.0095
455.0786	0.0087
455.2808	0.014
455.4829	0.0112
455.6851	0.0319
455.8872	0.0194
456.0893	0.026
456.2915	-0.0034
456.4935	0.0224
456.6956	0.0069
456.8977	0.021
457.0997	0.0027
457.3018	-0.0041
457.5038	0.0239
457.7058	0.0141
457.9078	0.0072
458.1098	0.0228
458.3117	0.0111
458.5137	0.0252
458.7156	0.0123
458.9175	0.0091
459.1194	0.0128
459.3213	0.0095
459.5232	0.0144
459.725	0.0132
459.9269	0.0062
460.1287	-0.0002
460.3305	0.0078
460.5323	0.0103
460.7341	-0.0074
460.9359	0.0011
461.1376	0.0081
461.3394	-0.0035
461.5411	0.0145
461.7428	-0.0016
461.9445	0.0089
462.1462	0.0284
462.3479	0.0116
462.5495	0.0034
462.7512	0.0032
462.9528	0.0169
463.1544	-0.0154
463.356	0.0065
463.5576	0.0019
463.7592	0.0033
463.9607	0.0023
464.1623	0.0273
464.3638	0.0206
464.5653	0.0038
464.7668	0.0048
464.9683	0.0187
465.1697	0.0068
465.3712	-0.0036
465.5726	-0.0155
465.7741	0.0076
465.9755	-0.0089
466.1769	-0.0019
466.3782	0.0025
466.5796	0.0042
466.7809	0.0103
466.9823	-0.0189
467.1836	-0.0079
467.3849	0.0009
467.5862	0.0017
467.7875	-0.0028
467.9887	0.0094
468.19	-0.0021
468.3912	0.0011
468.5924	-0.0102
468.7936	0.0011
468.9948	-0.0047
469.196	0.0058
469.3972	-0.0202
469.5983	0.01
469.7994	-0.0041
470.0006	0.0072
470.2017	0.0013
470.4027	-0.0085
470.6038	-0.0007
470.8049	-0.0113
471.0059	-0.0047
471.2069	-0.0165
471.408	0.0053
471.6089	-0.0007
471.8099	0.0059
472.0109	0.0009
472.2119	-0.0055
472.4128	-0.0095
472.6137	0.0135
472.8146	-0.0145
473.0155	0.0001
473.2164	-0.0033
473.4173	0.0172
473.6181	0.0052
473.819	0.0127
474.0198	-0.0059
474.2206	-0.0079
474.4214	0.0004
474.6222	0.0034
474.8229	-0.0051
475.0237	-0.0247
475.2244	-0.0104
475.4251	-0.002
475.6258	0.0013
475.8265	-0.0037
476.0272	0.0048
476.2278	0.0086
476.4285	0.0006
476.6291	-0.0021
476.8297	-0.0173
477.0303	-0.0019
477.2309	0.0004
477.4315	-0.0125
477.632	-0.0036
477.8326	-0.0011
478.0331	0.008
478.2336	-0.0012
478.4341	-0.0141
478.6346	-0.0103
478.8351	0.0002
479.0355	-0.0038
479.236	-0.0015
479.4364	0.0023
479.6368	-0.0069
479.8372	-0.0112
480.0376	-0.0019
480.2379	-0.0157
480.4383	-0.0032
480.6386	0.0019
480.8389	0.0065
481.0392	-0.02
481.2395	0.0008
481.4398	0.0093
481.6401	0.0067
481.8403	-0.0027
482.0405	-0.001
482.2408	-0.0057
482.441	0.0068
482.6411	-0.0144
482.8413	-0.0008
483.0415	-0.0094
483.2416	-0.0074
483.4417	-0.0132
483.6419	-0.0074
483.8419	-0.0035
484.042	0.0153
484.2421	0.0115
484.4422	0.0066
484.6422	-0.014
484.8422	-0.0006
485.0422	-0.01
485.2422	0.0056
485.4422	-0.015
485.6422	-0.0137
485.8421	0.0021
486.042	-0.0063
486.242	-0.0015
486.4419	-0.0073
486.6417	-0.0158
486.8416	0.0082
487.0415	0.0039
487.2413	-0.0048
487.4411	0.0007
487.641	-0.0037
487.8408	0.0099
488.0405	-0.0045
488.2403	0.0001
488.4401	-0.0026
488.6398	-0.0169
488.8395	-0.0142
489.0392	-0.0041
489.2389	0.0025
489.4386	-0.0101
489.6383	-0.0011
489.8379	0.0029
490.0376	-0.0075
490.2372	-0.0083
490.4368	-0.0155
490.6364	-0.0055
490.836	-0.0024
491.0355	-0.0065
491.2351	-0.0077
491.4346	-0.0107
491.6341	-0.0219
491.8336	0.0114
492.0331	-0.0269
492.2326	-0.0181
492.432	-0.0028
492.6315	-0.0057
492.8309	-0.0106
493.0303	-0.0108
493.2297	-0.0029
493.4291	0.0029
493.6284	0.0012
493.8278	-0.0039
494.0271	-0.0018
494.2264	0.008
494.4257	-0.0092
494.625	0.0026
494.8243	-0.0224
495.0236	-0.0127
495.2228	-0.011
495.422	0.0069
495.6213	-0.009
495.8205	0.0044
496.0196	-0.0027
496.2188	0.0033
496.418	-0.0018
496.6171	-0.0054
496.8162	-0.0048
497.0153	-0
497.2144	0.0001
497.4135	0.0001
497.6126	-0.0193
497.8116	-0.0027
498.0107	-0.0031
498.2097	-0.0098
498.4087	-0.0096
498.6077	-0.0031
498.8067	-0.0125
499.0056	0.0011
499.2046	-0.0063
499.4035	-0.0109
499.6024	-0.0059
499.8013	0.0041
500.0002	-0.0228
500.199	0.0025
500.3979	0.0057
500.5967	-0.0093
500.7956	-0.0024
500.9944	-0.0074
501.1932	-0.0131
501.3919	-0.0064
501.5907	-0.0168
501.7895	-0.0018
501.9882	-0.0145
502.1869	-0.0004
502.3856	-0.0101
502.5843	-0.0032
502.783	-0.0022
502.9816	-0.004
503.1803	-0.0101
503.3789	-0.0016
503.5775	0.0088
503.7761	-0.0126
503.9747	0.0021
504.1732	-0.0035
504.3718	-0.0063
504.5703	-0.0048
504.7689	-0.0084
504.9674	-0.0008
505.1658	-0.0064
505.3643	-0.0024
505.5628	-0.0079
505.7612	-0.006
505.9597	0.0085
506.1581	-0.0033
506.3565	0.0085
506.5549	-0.0046
506.7532	-0.0165
506.9516	0.0075
507.1499	-0
507.3482	-0.0144
507.5465	-0.0081
507.7448	0.0017
507.9431	-0.0042
508.1414	0.0013
508.3396	-0.0061
508.5379	-0.0062
508.7361	-0.012
508.9343	-0.0061
509.1325	0.0001
509.3306	-0.0144
509.5288	-0.0112
509.7269	-0.0031
509.9251	0.0017
510.1232	-0.0116
510.3213	-0.0064
510.5193	-0.0041
510.7174	-0.0099
510.9154	-0.0132
511.1135	-0.0097
511.3115	-0.0052
511.5095	0.0029
511.7075	-0.0018
511.9055	-0.0074
512.1034	0.001
512.3014	0.0042
512.4993	0.0009
512.6972	-0.0056
512.8951	-0.017
513.093	-0.0045
513.2908	-0.0089
513.4887	-0.006
513.6865	-0.0092
513.8844	-0.009
514.0822	-0.0169
514.2799	-0.0123
514.4777	-0.011
514.6755	-0.0169
514.8732	-0.0191
515.0709	-0.0065
515.2687	-0.0112
515.4664	-0.0107
515.664	0.0006
515.8617	0.0013
516.0594	-0.0173
516.257	-0.0031
516.4546	-0.0133
516.6522	0.0036
516.8498	-0.0073
517.0474	-0.0035
517.2449	-0.0005
517.4425	-0.0044
517.64	-0.008
517.8375	0.0013
518.035	-0.0034
518.2325	-0.0067
518.43	-0.0069
518.6274	-0.0022
518.8249	-0.0122
519.0223	-0.0058
519.2197	-0.0004
519.4171	-0.0052
519.6145	-0.0146
519.8118	-0.0042
520.0092	-0.0015
520.2065	-0.0113
520.4038	-0.0018
520.6011	-0.0018
520.7984	-0.0181
520.9956	-0.0082
521.1929	-0.014
521.3901	-0.0122
521.5874	0.0009
521.7846	0.0051
521.9818	0.0025
522.1789	-0.0053
522.3761	0.0017
522.5732	-0.012
522.7704	-0.0046
522.9675	-0.0088
523.1646	-0.0121
523.3617	-0.0025
523.5587	-0.0041
523.7558	-0.001
523.9528	-0.0006
524.1498	-0.0077
524.3468	-0.0027
524.5438	-0.008
524.7408	0.0031
524.9378	0.008
525.1347	-0.0002
525.3316	-0.0009
525.5285	0.0017
525.7254	-0.0073
525.9223	0.002
526.1192	0.003
526.316	-0.0089
526.5129	0.007
526.7097	-0.0065
526.9065	0.0008
527.1033	-0.0047
527.3	0.0063
527.4968	-0.0006
527.6935	-0.0079
527.8903	-0.0128
528.087	-0.0077
528.2837	-0.0058
528.4804	-0.0052
528.677	-0.0102
528.8737	0.0005
529.0703	0.0005
529.2669	0.0007
529.4635	-0.0056
529.6601	0.0036
529.8567	-0.0094
530.0532	-0.0017
530.2498	0.0007
530.4463	0.0045
530.6428	0.0009
530.8393	-0.0081
531.0358	0.0042
531.2322	0.0057
531.4287	-0.0015
531.6251	-0.0066
531.8215	0.0031
532.0179	-0.0056
532.2143	0.0008
532.4107	0.0004
532.607	-0.0068
532.8034	-0.0045
532.9997	0.0018
533.196	-0.008
533.3923	-0.0134
533.5886	0.0023
533.7848	0.0006
533.9811	0.0054
534.1773	0.002
534.3735	0.0023
534.5697	-0.0014
534.7659	0.0016
534.9621	0.0068
535.1582	-0.0079
535.3544	-0.0068
535.5505	-0.0085
535.7466	-0.0081
535.9427	0.0039
536.1387	-0.0013
536.3348	0.0016
536.5308	-0.0008
536.7269	-0.0145
536.9229	0.0061
537.1189	-0.0025
537.3148	0.0014
537.5108	-0.0145
537.7068	0.004
537.9027	-0.0024
538.0986	-0.0065
538.2945	-0.0105
538.4904	-0.0103
538.6863	-0.0049
538.8821	-0.0059
539.078	-0.0127
539.2738	0.0009
539.4696	-0.0037
539.6654	0.002
539.8611	0.0072
540.0569	-0.0102
540.2526	-0.0013
540.4484	-0.0003
540.6441	0.0113
540.8398	-0.0014
541.0355	0.0002
541.2311	-0.006
541.4268	-0.0049
541.6224	0.0027
541.818	0.0016
542.0136	-0.0191
542.2092	0.0006
542.4048	0.003
542.6003	0.0026
542.7959	-0.0066
542.9914	-0.012
543.1869	-0.0005
543.3824	0.0001
543.5779	-0.0069
543.7734	0.0015
543.9688	-0.005
544.1642	0.0034
544.3596	0.0021
544.555	-0.0087
544.7504	0.0006
544.9458	-0.0065
545.1411	-0.0051
545.3365	-0.0019
545.5318	-0.0028
545.7271	-0.0016
545.9224	-0.0081
546.1177	-0.001
546.3129	0.0026
546.5081	-0.007
546.7034	0.0015
546.8986	-0.0032
547.0938	-0.0054
547.289	0.0005
547.4841	0.0054
547.6793	0.0105
547.8744	-0.0046
548.0695	0.0001
548.2646	-0.0127
548.4597	-0.0031
548.6548	0.0044
548.8498	0.0008
549.0448	0.0069
549.2399	0.0019
549.4349	0.0089
549.6298	0.0028
549.8248	-0.0007
550.0198	-0.005
550.2147	-0.008
550.4096	0.0006
550.6045	-0.0083
550.7994	0.0044
550.9943	-0.0054
551.1892	0.0036
551.384	0.0108
551.5788	-0.0068
551.7737	-0.0013
551.9685	-0.0033
552.1632	0.003
552.358	-0.0029
552.5528	-0.0026
552.7475	0.0041
552.9422	0.0041
553.1369	0.0054
553.3316	0.0028
553.5263	-0.0084
553.7209	0.005
553.9156	-0.0025
554.1102	-0.0008
554.3048	-0.0074
554.4994	0.012
554.694	-0.0019
554.8885	0.0108
555.0831	-0.0096
555.2776	-0.0099
555.4721	-0.0041
555.6666	-0.006
555.8611	0.0038
556.0555	0.0032
556.25	-0.0037
556.4444	-0.0078
556.6388	-0.0046
556.8332	0.0067
557.0276	-0.0113
557.222	-0.0053
557.4163	0.0023
557.6107	-0.0069
557.805	0.0031
557.9993	0.0022
558.1936	-0.0031
558.3879	-0.0014
558.5821	0.0039
558.7764	-0.0091
558.9706	0.0008
559.1648	0.0055
559.359	-0.0097
559.5532	0.0023
559.7473	-0.0019
559.9415	-0.0035
560.1356	0.0029
560.3297	-0.0086
560.5238	-0.006
560.7179	-0.0071
560.9119	0.0016
561.106	0.0001
561.3	-0.0065
561.494	-0.0086
561.688	-0.0051
561.882	-0.0138
562.076	-0.0086
562.2699	-0.0004
562.4639	-0.008
562.6578	0.0029
562.8517	-0.0026
563.0456	0.0025
563.2395	0.0028
563.4333	-0.0012
563.6272	-0.0035
563.821	-0.0085
564.0148	-0.0078
564.2086	-0.0072
564.4024	-0.0021
564.5961	-0.0024
564.7899	0.0012
564.9836	-0.002
565.1773	0.0035
565.371	0.004
565.5647	0.0096
565.7584	-0.0027
565.952	0.0081
566.1456	0.0006
566.3393	-0.0044
566.5329	-0.0011
566.7264	0.0029
566.92	-0.0063
567.1136	-0.0011
567.3071	0.0004
567.5006	0.0046
567.6941	0.0007
567.8876	-0.0054
568.0811	-0.0065
568.2745	-0.001
568.468	0.0013
568.6614	0.0106
568.8548	0.007
569.0482	-0.0084
569.2416	-0.0034
569.4349	0.0122
569.6283	0.0013
569.8216	0.0024
570.0149	-0.0005
570.2082	0.0089
570.4015	0.006
570.5947	0.007
570.788	0.007
570.9812	0.0061
571.1744	0.0004
571.3676	-0.0062
571.5608	0.0032
571.754	0.0041
571.9471	-0.0034
572.1402	0.0035
572.3333	-0.0021
572.5264	0.0049
572.7195	0.0037
572.9126	-0.0001
573.1057	-0.0001
573.2987	-0.0041
573.4917	0.0057
573.6847	-0.0086
573.8777	0.0053
574.0707	0.0039
574.2636	-0.0039
574.4566	-0.0077
574.6495	-0.0002
574.8424	-0.0018
575.0353	0.007
575.2281	0.007
575.421	0.003
575.6138	0.0051
575.8067	-0.0066
575.9995	0.0033
576.1923	0.0057
576.385	0.0056
576.5778	-0.0019
576.7706	-0.0037
576.9633	0.0013
577.156	-0.0013
577.3487	0.0055
577.5414	0.0028
577.734	-0.0062
577.9267	0.0025
578.1193	-0.0064
578.3119	-0.0001
578.5045	0.0015
578.6971	0.0017
578.8897	0.0058
579.0822	-0.0062
579.2747	0.0007
579.4673	0
579.6598	-0.0095
579.8522	-0.0016
580.0447	-0.0008
580.2372	0.0028
580.4296	0.0055
580.622	0.0038
580.8144	-0.0002
581.0068	-0.0029
581.1992	-0.0135
581.3915	-0.0034
581.5839	-0.0078
581.7762	-0.0048
581.9685	0.0012
582.1608	0.0053
582.353	0.0031
582.5453	0.0008
582.7375	0.0041
582.9298	-0.0006
583.122	-0.0017
583.3142	-0.0036
583.5063	0.0009
583.6985	0.0035
583.8906	0.0032
584.0827	-0.0033
584.2749	0.0082
584.4669	0.0046
584.659	0.0031
584.8511	0.0005
585.0431	-0.005
585.2352	0.005
585.4272	-0.0003
585.6192	0.0007
585.8111	0.0001
586.0031	0.0045
586.195	-0.0037
586.387	0.0069
586.5789	0.0008
586.7708	0.0015
586.9627	-0.0012
587.1545	-0.0064
587.3464	0.0054
587.5382	0.0023
587.73	0.0043
587.9218	0.0026
588.1136	0.0038
588.3053	0.001
588.4971	-0.0003
588.6888	-0.0083
588.8805	0.0027
589.0722	-0.0002
589.2639	-0.0021
589.4556	0
589.6472	0.0047
589.8389	-0.0011
590.0305	-0.0096
590.2221	0.0055
590.4137	-0.008
590.6052	0.0073
590.7968	0.0017
590.9883	0.0014
591.1798	-0.0024
591.3713	0.0043
591.5628	0.0056
591.7543	0.0022
591.9458	0.0049
592.1372	0.0091
592.3286	0.0085
592.52	0.0021
592.7114	-0.0011
592.9028	0.0041
593.0941	0
593.2855	0.004
593.4768	-0.006
593.6681	-0.0028
593.8594	-0.0016
594.0506	-0.001
594.2419	0.0077
594.4331	0.0001
594.6244	-0.0027
594.8156	-0.0026
595.0067	0.0029
595.1979	-0.0012
595.3891	0.0008
595.5802	-0.0015
595.7713	0.0015
595.9624	-0.0003
596.1535	0.0061
596.3446	-0.0012
596.5357	0.0045
596.7267	0.0039
596.9177	0.0021
597.1087	-0.0078
597.2997	-0.0023
597.4907	0.0058
597.6817	-0.0022
597.8726	0.0022
598.0635	-0.006
598.2544	0.0004
598.4453	0.0002
598.6362	-0.0028
598.827	-0.0017
599.0179	0.0113
599.2087	0.002
599.3995	0.0016
599.5903	-0.0007
599.7811	0.0025
599.9718	0.002
600.1626	-0.0017
600.3533	-0.0041
600.544	0.0024
600.7347	-0.0022
600.9254	0.0061
601.116	-0.0079
601.3067	-0.0061
601.4973	0.0009
601.6879	0.0008
601.8785	0.0002
602.0691	0.0044
602.2596	0.0059
602.4502	0.0082
602.6407	0.0073
602.8312	-0.0014
603.0217	-0.0028
603.2122	-0.004
603.4027	-0.0007
603.5931	-0.0018
603.7835	-0.0027
603.9739	0.0042
604.1643	-0.0019
604.3547	-0.0088
604.5451	0.0022
604.7354	-0.0049
604.9257	0.0019
605.116	-0.0041
605.3063	0.0009
605.4966	0.0078
605.6869	0.0023
605.8771	0.006
606.0673	0.0073
606.2575	0.0051
606.4477	0.0021
606.6379	-0.0004
606.8281	0.0043
607.0182	0.0021
607.2083	0.0082
607.3985	-0.0027
607.5885	-0.0022
607.7786	0.0039
607.9687	0.0014
608.1587	0.0069
608.3488	0.004
608.5388	0.0021
608.7288	0.0004
608.9187	0.0008
609.1087	-0.0013
609.2986	-0.0058
609.4886	-0.0029
609.6785	0.0087
609.8684	0.0079
610.0582	0.0113
610.2481	0.0019
610.4379	0.0023
610.6278	0.0005
610.8176	0.0032
611.0074	-0.0044
611.1971	-0.0017
611.3869	-0.0007
611.5766	-0.0059
611.7664	0.0073
611.9561	0.003
612.1458	-0.004
612.3354	0.0019
612.5251	0.0065
612.7147	0.0016
612.9044	0.0063
613.094	-0.0043
613.2836	0.0001
613.4731	0.0034
613.6627	-0.0042
613.8522	0.0082
614.0417	-0.0024
614.2313	-0.0057
614.4207	-0.0095
614.6102	0.0043
614.7997	-0.0014
614.9891	-0.0054
615.1785	0.0004
615.3679	-0.0018
615.5573	0.0114
615.7467	-0.0011
615.9361	0.0029
616.1254	-0.0024
616.3147	0.0012
616.504	0.0103
616.6933	0.0045
616.8826	0.0043
617.0718	0.0017
617.2611	0.0044
617.4503	0.001
617.6395	0.0022
617.8287	-0.0008
618.0179	-0.0032
618.207	0.017
618.3961	-0.0057
618.5853	-0.0004
618.7744	0.0063
618.9634	0.0005
619.1525	-0.0001
619.3416	0.002
619.5306	0.0004
619.7196	0.0056
619.9086	-0.0002
620.0976	-0.0005
620.2866	0.0016
620.4755	0.0054
620.6645	0.0036
620.8534	0.0034
621.0423	0.0098
621.2312	0.0059
621.42	0.0031
621.6089	-0.0005
621.7977	0.0044
621.9865	-0.0092
622.1753	0.0075
622.3641	0.0007
622.5529	0.0069
622.7416	0.0041
622.9303	-0.0003
623.1191	0.0016
623.3078	-0.0038
623.4964	0.0049
623.6851	-0.0046
623.8737	-0.0051
624.0624	0.008
624.251	-0.0077
624.4396	0.0022
624.6282	-0.0108
624.8167	-0.0026
625.0053	0.0079
625.1938	0.0012
625.3823	0.0052
625.5708	0.0032
625.7593	-0.0061
625.9477	-0.0076
626.1362	-0.0026
626.3246	0.0063
626.513	-0.0006
626.7014	0.0107
626.8898	0.0055
627.0781	0.0082
627.2665	-0.0029
627.4548	0.0057
627.6431	0.0091
627.8314	0.0022
628.0197	0.0045
628.2079	0.0005
628.3962	-0.0028
628.5844	0.0046
628.7726	0.0103
628.9608	0.0107
629.1489	0.0022
629.3371	0.0069
629.5252	0.0054
629.7134	0.012
629.9015	-0.0004
630.0895	0.0032
630.2776	0.0016
630.4657	0.001
630.6537	0.006
630.8417	-0.0024
631.0297	-0.0042
631.2177	-0.0001
631.4057	-0.0052
631.5936	-0.0055
631.7815	0.0057
631.9695	-0.0025
632.1574	0.002
632.3452	0.0149
632.5331	0.0017
632.7209	0.0002
632.9088	0.0125
633.0966	0.007
633.2844	0.0008
633.4722	-0.0029
633.6599	0.0054
633.8477	0.0036
634.0354	-0.0052
634.2231	0.0048
634.4108	0.0107
634.5985	0.0125
634.7861	0.0073
634.9738	-0.0002
635.1614	0.0011
635.349	0.0093
635.5366	0.0055
635.7242	0.0026
635.9117	0.0075
636.0993	0.0083
636.2868	0.008
636.4743	-0.0025
636.6618	0.0103
636.8492	0.003
637.0367	0.0055
637.2241	0.0008
637.4115	-0.0036
637.5989	0.0026
637.7863	0.002
637.9737	-0.0022
638.161	0.0054
638.3484	-0.0019
638.5357	0.0096
638.723	0.0061
638.9103	0.0055
639.0975	0.004
639.2848	-0.0001
639.472	-0.0066
639.6592	0.0033
639.8464	0.0084
640.0336	0.0097
640.2208	0.0021
640.4079	-0.0055
640.595	0.0059
640.7821	0.0098
640.9692	-0.0053
641.1563	-0.0002
641.3434	0.0004
641.5304	-0.0008
641.7174	-0.0012
641.9044	0.0067
642.0914	0.002
642.2784	-0.0017
642.4653	0.0059
642.6523	0.003
642.8392	-0.0048
643.0261	0.0086
643.213	0.003
643.3999	0.0008
643.5867	-0.0016
643.7735	0.0084
643.9604	-0.0018
644.1472	-0.0016
644.3339	0.0078
644.5207	0.0045
644.7075	0.0046
644.8942	0.0102
645.0809	0.0073
645.2676	0.0121
645.4543	-0.0003
645.6409	0.0099
645.8276	0.0091
646.0142	0.0118
646.2008	0.0022
646.3874	0.0023
646.574	-0.0043
646.7605	0.0006
646.9471	-0.0138
647.1336	0.0036
647.3201	0.0024
647.5066	-0.004
647.6931	0.0069
647.8795	0.0051
648.0659	0.006
648.2524	0.0117
648.4388	0.0017
648.6252	0.0018
648.8115	-0.0036
648.9979	-0.0028
649.1842	0.0064
649.3705	0.0085
649.5568	0.0028
649.7431	0.0033
649.9294	-0.0037
650.1156	0.0059
650.3018	-0.0041
650.488	0.0082
650.6742	0.0068
650.8604	-0.0002
651.0466	-0.0016
651.2327	0.0051
651.4188	0.0015
651.6049	-0.0039
651.791	-0.0009
651.9771	0.0058
652.1632	0.0035
652.3492	0.0058
652.5352	-0.0008
652.7212	-0.0042
652.9072	0.0047
653.0932	0.004
653.2791	-0.0069
653.465	0.0043
653.651	-0.0028
653.8369	0.0013
654.0227	-0.0007
654.2086	-0.0001
654.3944	0.0039
654.5803	0.0079
654.7661	0.0026
654.9519	0.0045
655.1377	-0.0066
655.3234	-0.0018
655.5092	-0.0044
655.6949	-0.0062
655.8806	-0.0038
656.0663	-0.0004
656.2519	0.0017
656.4376	-0.0029
656.6232	0.0058
656.8088	0.0014
656.9945	0.0017
657.18	-0.0021
657.3656	-0.0002
657.5511	0.0059
657.7367	-0.0058
657.9222	0.0041
658.1077	0.004
658.2932	-0.0007
658.4786	-0.0035
658.6641	-0.0072
658.8495	-0.0014
659.0349	-0.0096
659.2203	0.0015
659.4057	0.0045
659.591	0.0014
659.7764	-0.003
659.9617	0.0016
660.147	0.0035
660.3323	0.001
660.5176	0.0081
660.7028	0.0031
660.888	0.0051
661.0733	0.003
661.2585	-0.0069
661.4436	0.0038
661.6288	0.0022
661.8139	0.0004
661.9991	0.0085
662.1842	-0.0046
662.3693	0.0033
662.5544	-0.008
662.7394	0.0085
662.9245	0.0003
663.1095	-0.0026
663.2945	0.0099
663.4795	0
663.6644	0.0066
663.8494	0.0086
664.0343	0.0085
664.2193	-0.0081
664.4042	-0.0038
664.589	0.0029
664.7739	-0.0023
664.9587	-0.006
665.1436	-0.0014
665.3284	0.0009
665.5132	-0.0073
665.698	-0.0007
665.8827	0.0106
666.0675	-0.0054
666.2522	-0.007
666.4369	0.0042
666.6216	0.0011
666.8063	-0.0012
666.9909	0.0002
667.1756	0.001
667.3602	0.0003
667.5448	-0.0016
667.7294	0.0128
667.9139	0.0055
668.0985	0.0102
668.283	0.0017
668.4675	0.0033
668.652	0.0013
668.8365	-0.0005
669.0209	0.0056
669.2054	0.0046
669.3898	-0.001
669.5742	0.0102
669.7586	0.0065
669.943	0.0172
670.1273	0.0063
670.3117	0.0061
670.496	0.0113
670.6803	0.0058
670.8646	0.0073
671.0488	0.0001
671.2331	0.0016
671.4173	0.0021
671.6015	-0.0016
671.7857	0.0009
671.9699	0.001
672.1541	0.0014
672.3382	0.008
672.5223	0.0117
672.7064	0.0049
672.8905	0.0096
673.0746	0.0042
673.2587	0.0001
673.4427	0.0017
673.6267	0.0077
673.8107	0.0114
673.9947	0.0003
674.1787	0.0073
674.3626	0.0009
674.5465	0.0095
674.7304	0.0103
674.9143	-0.0003
675.0982	0.0064
675.2821	0.0003
675.4659	0.0074
675.6497	0.0062
675.8335	-0.0011
676.0173	0.0018
676.2011	0.0017
676.3849	0.0022
676.5686	-0.0096
676.7523	0.0011
676.936	-0.0041
677.1197	0.0003
677.3034	-0.0039
677.487	0.0091
677.6706	-0.0004
677.8542	-0.002
678.0378	-0.0005
678.2214	-0.0017
678.405	-0.0065
678.5885	-0.0055
678.772	0.0026
678.9555	-0.0021
679.139	0.0051
679.3225	0.0066
679.5059	-0.0012
679.6894	-0.0008
679.8728	-0.0009
680.0562	-0.0063
680.2395	0.0058
680.4229	-0.006
680.6062	0.0063
680.7896	0.0066
680.9729	-0.0006
681.1562	0.0072
681.3394	0.0039
681.5227	0.0025
681.7059	-0.0018
681.8891	0.0076
682.0723	0.0162
682.2555	0.0042
682.4387	-0.0003
682.6218	0.0004
682.805	0.0137
682.9881	0.0124
683.1712	-0.0006
683.3542	0.0015
683.5373	0.0087
683.7203	-0.0074
683.9034	-0.003
684.0864	-0.0094
684.2694	-0.0003
684.4523	-0.0015
684.6353	-0.0078
684.8182	0.0001
685.0011	-0.0026
685.184	0.0017
685.3669	-0.0006
685.5498	0.003
685.7326	-0.0052
685.9154	-0.0093
686.0982	0.0092
686.281	0.0029
686.4638	0.0085
686.6465	-0.0037
686.8293	-0.0011
687.012	0.006
687.1947	-0.0074
687.3774	0.0057
687.56	-0.004
687.7427	0.004
687.9253	-0.0082
688.1079	0.0014
688.2905	0.0122
688.4731	0.002
688.6556	0.0006
688.8382	0.0012
689.0207	0.0053
689.2032	-0.0064
689.3857	-0.007
689.5681	0.0025
689.7506	-0.0022
689.933	0.0021
690.1154	-0.0011
690.2978	-0.0018
690.4802	0.0052
690.6626	-0.0007
690.8449	-0.0052
691.0272	0.0051
691.2095	-0.0057
691.3918	-0.0057
691.5741	0.0075
691.7563	0.0015
691.9386	0.001
692.1208	-0.0055
692.303	0.0034
692.4852	0.0016
692.6673	0.0083
692.8495	-0.0006
693.0316	0.0086
693.2137	0.0069
693.3958	0.0011
693.5778	-0.0052
693.7599	0.0003
693.9419	-0.0021
694.1239	0.0015
694.3059	-0.0027
694.4879	0.0112
694.6699	0.0073
694.8518	0.0025
695.0337	-0.0015
695.2157	0.0069
695.3975	-0.0002
695.5794	0.0055
695.7613	0.0058
695.9431	0.0078
696.1249	0.009
696.3067	0.0098
696.4885	0.0159
696.6703	-0.0041
696.852	0.0061
697.0337	0.0096
697.2154	0.011
697.3971	0.0079
697.5788	0.0022
697.7605	0.0025
697.9421	0.0075
698.1237	0.006
698.3053	0.0066
698.4869	-0.0015
698.6685	-0.0085
698.85	0.0025
699.0315	0.0063
699.213	0.0043
699.3945	0.0028
699.576	0.006
699.7575	0.0087
699.9389	0.008
700.1203	-0.0026
700.3017	-0.0112
700.4831	-0.0029
700.6645	-0.0067
700.8458	0.0076
701.0271	-0.007
701.2084	0.004
701.3897	0.0004
701.571	0.0035
701.7523	-0.0034
701.9335	-0.0051
702.1147	-0.003
702.2959	0.0059
702.4771	0.0022
702.6583	0.0021
702.8394	0.0002
703.0205	0.0005
703.2016	-0.0028
703.3827	0.0058
703.5638	0.0081
703.7449	0.0056
703.9259	0.0064
704.1069	-0.0025
704.2879	0.0011
704.4689	0.0033
704.6499	-0.0003
704.8308	-0.0023
705.0117	0.0046
705.1927	0.0048
705.3735	-0.0042
705.5544	-0.0075
705.7353	0.0024
705.9161	-0.0057
706.0969	0.0018
706.2777	0.0018
706.4585	-0.0022
706.6393	-0.003
706.82	-0.0053
707.0007	-0.0001
707.1815	0.0032
707.3621	0.0127
707.5428	0.0057
707.7235	-0.0005
707.9041	-0.0013
708.0847	-0.0051
708.2653	-0.0055
708.4459	-0.0126
708.6265	0.0017
708.807	0.001
708.9875	-0.0049
709.168	0.0007
709.3485	-0.0017
709.529	-0.0054
709.7095	-0.0118
709.8899	-0.0004
710.0703	-0.0113
710.2507	-0.0046
710.4311	-0.0081
710.6115	-0.0134
710.7918	-0.0079
710.9721	-0.002
711.1524	-0.0047
711.3327	-0.0029
711.513	0.0093
711.6932	0.0084
711.8735	0.0133
712.0537	0.0026
712.2339	0.0045
712.4141	0.0009
712.5942	0.0011
712.7744	-0.0029
712.9545	-0.0077
713.1346	-0.0051
713.3147	0.0016
713.4947	-0.0028
713.6748	0.0015
713.8548	0.0021
714.0348	0.0002
714.2148	-0.0027
714.3948	0.0128
714.5748	-0.0086
714.7547	0.0006
714.9346	0.0049
715.1145	-0.0021
715.2944	-0.0069
715.4743	-0.0022
715.6541	-0.0018
715.834	0.0042
716.0138	0.0039
716.1936	-0.0098
716.3733	-0.0031
716.5531	0.0081
716.7328	0.0035
716.9126	0.0007
717.0923	0.0107
717.2719	0.0017
717.4516	0.0057
717.6312	0.0106
717.8109	-0.0008
717.9905	0.014
718.1701	0.0048
718.3496	-0.0067
718.5292	0.0017
718.7087	0.0121
718.8882	0.0008
719.0677	0.0134
719.2472	-0.0009
719.4267	0.0034
719.6061	0.0059
719.7856	0.0066
719.965	0.0089
720.1443	-0.0031
720.3237	0.0128
720.5031	0.0024
720.6824	0.0063
720.8617	-0.0003
721.041	0.0042
721.2203	0.0079
721.3995	0.0032
721.5788	-0.001
721.758	0.0089
721.9372	0.0004
722.1164	0.004
722.2956	0.0005
722.4747	-0.0022
722.6538	-0.006
722.8329	0.0124
723.012	0.0024
723.1911	0.0023
723.3702	-0.0054
723.5492	0.0071
723.7282	-0.0025
723.9072	-0.0081
724.0862	-0.0055
724.2652	-0.0066
724.4441	-0.0039
724.623	-0.0016
724.8019	0.0044
724.9808	-0.0002
725.1597	-0.006
725.3385	0.0007
725.5174	0.0017
725.6962	0.0066
725.875	-0.0001
726.0538	0.0051
726.2325	-0.0043
726.4112	0.0002
726.59	0.0036
726.7687	-0.0069
726.9474	0.0146
727.126	0.0027
727.3047	-0.0074
727.4833	0.0101
727.6619	-0.0029
727.8405	-0.0077
728.0191	-0.0044
728.1976	-0.0008
728.3762	-0.0044
728.5547	0.0005
728.7332	-0.0136
728.9116	0.0002
729.0901	0.0012
729.2686	-0.0101
729.447	0.0019
729.6254	-0.0071
729.8038	-0.0047
729.9821	-0.0107
730.1605	0.0037
730.3388	-0.0054
730.5171	-0.0016
730.6954	-0.0054
730.8737	-0.0026
731.0519	0.0046
731.2302	0.0075
731.4084	0.0085
731.5866	0.0019
731.7648	-0.0088
731.9429	0.0002
732.1211	-0.0095
732.2992	-0.0039
732.4773	-0.008
732.6554	0.0045
732.8335	-0.0009
733.0115	0.0023
733.1896	0.0069
733.3676	-0.0023
733.5456	0.005
733.7235	0.0043
733.9015	-0.0015
734.0794	-0.0026
734.2574	0.0011
734.4353	-0.0066
734.6131	0.0132
734.791	0.0036
734.9689	0.002
735.1467	0.0142
735.3245	-0.0079
735.5023	-0.0083
735.68	0.0031
735.8578	0.0137
736.0355	-0.0131
736.2132	-0.0005
736.3909	-0.002
736.5686	-0.012
736.7463	0.0063
736.9239	-0.0053
737.1015	-0.0059
737.2791	0.0092
737.4567	0.0018
737.6343	0.0012
737.8118	-0.0002
737.9894	0.0014
738.1669	-0.0065
738.3444	0.0009
738.5218	0.0033
738.6993	0.0077
738.8767	0.0013
739.0541	0.0067
739.2315	-0.0012
739.4089	0.0049
739.5863	0.0012
739.7636	0.0018
739.9409	0.0001
740.1182	0.0058
740.2955	0.005
740.4728	0.0015
740.65	0.0009
740.8272	-0.0051
741.0044	-0.006
741.1816	0.0064
741.3588	-0.0004
741.5359	0.0061
741.7131	-0.0068
741.8902	0.0023
742.0673	0.0046
742.2444	-0.009
742.4214	-0.0057
742.5985	-0.0034
742.7755	-0.0039
742.9525	-0.0104
743.1295	-0.001
743.3064	0.0009
743.4834	0.0042
743.6603	-0.0028
743.8372	-0.0082
744.0141	0.0064
744.191	0.0006
744.3678	0.0017
744.5446	0.0021
744.7215	0.0056
744.8982	-0.0066
745.075	-0.0136
745.2518	-0
745.4285	0.0038
745.6052	0.0018
745.7819	-0.0076
745.9586	-0.0163
746.1353	-0.0048
746.3119	-0.0098
746.4885	-0.0078
746.6651	-0.012
746.8417	-0.0073
747.0183	-0.0164
747.1948	-0.0073
747.3714	-0.008
747.5479	-0.0073
747.7244	-0.0171
747.9008	-0.003
748.0773	-0.0072
748.2537	-0.0191
748.4301	-0.0153
748.6065	-0.0004
748.7829	0.0022
748.9593	-0.0077
749.1356	-0.0007
749.3119	0.0073
749.4882	-0.0106
749.6645	0.0029
749.8408	0.0009
750.017	-0.0005
750.1933	0.0045
750.3695	-0.0107
750.5457	0.0026
750.7218	-0.0003
750.898	0.0019
751.0741	0.0006
751.2502	-0.0039
751.4263	-0.0129
751.6024	-0.0136
751.7784	-0.0019
751.9545	-0.0043
752.1305	0.0031
752.3065	-0.0063
752.4825	0.0052
752.6584	-0.0118
752.8344	-0.007
753.0103	-0.0081
753.1862	-0.0124
753.3621	-0.0079
753.5379	-0.0089
753.7138	-0.0065
753.8896	-0.0033
754.0654	0.0111
754.2412	0.0046
754.417	0.0017
754.5927	-0.0042
754.7685	-0.0032
754.9442	-0.0028
755.1199	0.0099
755.2956	-0.0013
755.4712	0.0056
755.6469	0.0112
755.8225	-0.0037
755.9981	0.0075
756.1736	0.0098
756.3492	0.0096
756.5248	0.005
756.7003	0.0104
756.8758	0.0232
757.0513	-0.0039
757.2267	-0.0011
757.4022	0.0071
757.5776	-0.0048
757.753	-0.0011
757.9284	0.0067
758.1038	0.0115
758.2791	-0.0013
758.4545	-0.0167
758.6298	-0.0136
758.8051	0.0003
758.9803	-0.0123
759.1556	-0.0049
759.3308	-0.0059
759.506	0.0088
759.6812	0.0069
759.8564	-0.0029
760.0316	-0.001
760.2067	0.0048
760.3819	0.0099
760.557	0.0121
760.732	0.0071
760.9071	-0.0068
761.0821	-0.0034
761.2572	0.0066
761.4322	-0.0036
761.6072	-0.0036
761.7821	-0.0029
761.9571	0.0062
762.132	-0.0078
762.3069	-0.0098
762.4818	-0.0131
762.6567	-0.0088
762.8316	-0.0011
763.0064	-0.0079
763.1812	-0.004
763.356	-0.0037
763.5308	-0.0037
763.7055	0.0009
763.8803	-0.0059
764.055	0.0022
764.2297	-0.0088
764.4044	-0.0081
764.579	-0.0119
764.7537	-0.015
764.9283	0.0013
765.1029	-0.0137
765.2775	-0.0105
765.4521	-0.0133
765.6266	-0.0144
765.8011	-0.008
765.9756	-0.0054
766.1501	-0.001
766.3246	-0.0045
766.4991	-0.0117
766.6735	0.007
766.8479	-0.008
767.0223	0.0077
767.1967	-0.0027
767.371	0.0002
767.5454	-0.0054
767.7197	-0.0024
767.894	-0.0133
768.0683	-0.0132
768.2425	-0.0031
768.4168	0.0039
768.591	-0.0035
768.7652	0.0009
768.9394	-0.0011
769.1135	0.0022
769.2877	-0.0017
769.4618	-0.0012
769.6359	-0.0048
769.81	-0.0019
769.984	-0.0109
770.1581	-0.0088
770.3321	-0.0055
770.5061	-0.0005
770.6801	-0.0113
770.8541	-0.0017
771.028	0.0021
771.202	-0.0027
771.3759	0.0072
771.5498	-0.0113
771.7236	-0.0012
771.8975	-0.0045
772.0713	0.0031
772.2451	-0.0006
772.4189	0.0054
772.5927	0.0119
772.7665	0.0046
772.9402	-0.004
773.1139	-0.002
773.2876	0.0005
773.4613	0.0046
773.635	-0.0044
773.8086	-0.019
773.9822	-0.0042
774.1558	0.0029
774.3294	-0.0315
774.503	0.0065
774.6765	0.0068
774.8501	-0.0089
775.0236	0.0047
775.1971	0.003
775.3705	-0.0087
775.544	-0.0015
775.7174	-0.0013
775.8908	-0.0115
776.0642	-0.0079
776.2376	-0.0082
776.4109	-0.012
776.5843	0.0003
776.7576	-0.0105
776.9309	0.0075
777.1041	0.0142
777.2774	0.0113
777.4506	0.0093
777.6238	-0.0066
777.797	-0.0047
777.9702	-0.0046
778.1434	-0.0025
778.3165	-0.0099
778.4896	-0.0015
778.6627	0.0079
778.8358	-0.0012
779.0089	-0.0029
779.1819	-0.0085
779.3549	0.0097
779.5279	-0.0066
779.7009	-0.004
779.8739	-0.0054
780.0468	-0.0148
780.2197	0.0062
780.3926	0.0026
780.5655	-0.01
780.7384	-0.0126
780.9112	-0.0069
781.0841	-0.0092
781.2569	0.0003
781.4297	0.005
781.6024	0.0039
781.7752	0.0078
781.9479	0.004
782.1206	-0.0051
782.2933	-0.0118
782.466	0.0045
782.6386	0.002
782.8113	-0.0127
782.9839	0.0068
783.1565	-0
783.329	-0.0031
783.5016	0.0135
783.6741	0.0075
783.8466	0.0009
784.0191	0.0169
784.1916	0.0133
784.3641	0.0155
784.5365	0.0104
784.7089	0.003
784.8813	0.0018
785.0537	-0.0047
785.2261	-0.0032
785.3984	-0.0025
785.5707	-0.0117
785.743	-0.0023
785.9153	-0.0159
786.0876	0.0034
786.2598	0.0012
786.432	-0.0111
786.6042	0.0004
786.7764	-0.0226
786.9486	-0.004
787.1207	-0.0012
787.2928	0.0048
787.4649	-0.0003
787.637	0.006
787.8091	0.0005
787.9811	-0.0136
788.1532	-0.0086
788.3252	0.004
788.4972	-0.0002
788.6691	0.0039
788.8411	-0.0087
789.013	-0.0083
789.1849	0.0149
789.3568	-0.0068
789.5287	-0.006
789.7005	-0.0045
789.8723	-0.0027
790.0442	0.0133
790.2159	-0.0074
790.3877	0.0054
790.5595	-0.0156
790.7312	0.0004
790.9029	0.0162
791.0746	-0.0151
791.2463	-0.0028
791.4179	0.001
791.5896	0.0015
791.7612	-0.0059
791.9328	0.0173
792.1044	-0.0167
792.2759	-0.0121
792.4474	-0.004
792.619	-0.0049
792.7905	0.0102
792.9619	-0.0057
793.1334	-0.0022
793.3048	0.0153
793.4762	0.0107
793.6476	0.0012
793.819	-0.0042
793.9904	0.0025
794.1617	-0.008
794.333	-0.0055
794.5043	-0.0158
794.6756	0.0021
794.8469	0.0047
795.0181	0.0041
795.1893	-0.0044
795.3605	0.0107
795.5317	-0.0048
795.7029	0.0032
795.874	-0.0066
796.0452	-0.0016
796.2163	0.0125
796.3873	0.0027
796.5584	0.0035
796.7294	0.004
796.9005	0.0043
797.0715	0.0071
797.2425	0.0011
797.4134	-0.0069
797.5844	0.021
797.7553	0.0005
797.9262	0.0003
798.0971	-0.0072
798.2679	-0.0095
798.4388	-0.0033
798.6096	-0.0169
798.7804	0.0162
798.9512	-0.0087
799.122	-0.0029
799.2927	0.0121
799.4635	0.0042
799.6342	-0.0385
799.8049	0.0001
799.9755	0.0043
800.1462	-0.0109
800.3168	0.0032
800.4874	-0.0028
800.658	0.0169
800.8286	-0.001
800.9991	-0.0037
801.1696	0.0064
801.3402	0.0158
801.5106	-0.0079
801.6811	-0.0024
801.8516	0.0167
802.022	-0.0005
802.1924	0.0076
802.3628	0.0042
802.5332	0.0032
802.7035	0.0104
802.8739	-0.0074
803.0442	-0.0095
803.2145	0.0041
803.3847	-0.0197
803.555	0.0103
803.7252	-0.0175
803.8954	-0.0271
804.0656	-0.0098
804.2358	-0.0121
804.4059	0.0179
804.5761	-0.0005
804.7462	0.0037
804.9163	0.0182
805.0864	-0.0121
805.2564	0.0008
805.4264	-0.0047
805.5965	0.0022
805.7665	0.0023
805.9364	-0.0012
806.1064	0.0213
806.2763	-0.0022
806.4462	0.0178
806.6161	0.0126
806.786	0.0034
806.9559	-0.0161
807.1257	-0.0063
807.2955	-0.0081
807.4653	-0.0098
807.6351	-0.0155
807.8048	0.0037
807.9746	-0.0096
808.1443	0.0041
808.314	0.0033
808.4837	-0.0008
808.6533	-0.0081
808.8229	0.0223
808.9926	-0.0116
809.1622	0.0148
809.3317	-0.003
809.5013	0.0017
809.6708	0.0108
809.8403	-0.0016
810.0098	0.0125
810.1793	-0.0011
810.3488	-0.0076
810.5182	-0.0181
810.6876	0.0007
810.857	-0.002
811.0264	0.0119
811.1958	-0.0019
811.3651	-0.0107
811.5344	0.0095
811.7037	-0.0104
811.873	-0.0233
812.0422	0.0111
812.2115	0.0053
812.3807	-0.0114
812.5499	0.007
812.7191	0.0075
812.8882	-0.0071
813.0574	0.0055
813.2265	0.0087
813.3956	0.0002
813.5646	-0.0017
813.7337	-0.0064
813.9027	0.0021
814.0718	0.0243
814.2407	-0.0041
814.4097	-0.0189
814.5787	-0.0181
814.7476	-0.0074
814.9165	0.0216
815.0854	-0.0209
815.2543	0.0151
815.4232	-0.0123
815.592	0.0149
815.7608	-0.01
815.9296	0.0082
816.0984	0.007
816.2671	-0.032
816.4359	0.0035
816.6046	-0.0139
816.7733	-0.0104
816.942	-0.0293
817.1106	-0.0114
817.2793	-0.0045
817.4479	-0.008
817.6165	-0.0022
817.785	0.0018
817.9536	-0.0196
818.1221	0.0087
818.2906	0.0132
818.4591	-0.0158
818.6276	-0.017
818.7961	-0.0096
818.9645	0.01
819.1329	0.0002
819.3013	0.014
819.4697	0.0268
819.638	-0.0032
819.8064	0.0162
819.9747	0.0048
820.143	-0.0115
820.3113	-0.012
820.4795	-0.0008
820.6477	-0.0015
820.816	0.0059
820.9842	-0.0016
821.1523	-0.008
821.3205	-0.0144
821.4886	0.0086
821.6567	-0.0187
821.8248	0.0034
821.9929	-0.0032
822.1609	0.0014
822.329	-0.0044
822.497	0.035
822.665	0.0034
822.833	-0.0123
823.0009	0.0021
823.1688	-0.0031
823.3367	0.0251
823.5046	0.0235
823.6725	0.0103
823.8404	0.0018
824.0082	0.003
824.176	0.0275
824.3438	-0.0127
824.5116	-0.0348
824.6793	0.0023
824.847	-0.0091
825.0147	-0.0027
825.1824	0.0287
825.3501	0.0247
825.5177	-0.0188
825.6854	0.0003
825.853	0.0079
826.0206	-0.0103
826.1881	-0.0049
826.3557	-0.0446
826.5232	-0.0205
826.6907	-0.0305
826.8582	-0.0122
827.0257	-0.0129
827.1931	-0.0187
827.3605	-0.0281
827.528	-0.038
827.6953	-0.0365
827.8627	-0.0308
828.03	0.025
828.1974	-0.003
828.3647	-0.0443
828.532	-0.0424
828.6992	-0.0195
828.8665	0.0085
829.0337	-0.0107
829.2009	0.0218
829.3681	-0.0186
829.5352	0.0259
829.7024	-0.0247
829.8695	-0.0134
830.0366	0.0272
830.2037	0.0348
830.3707	-0.0114
830.5378	0.0041
830.7048	0.0244
830.8718	0.0221
831.0388	0.0062
831.2057	0.0004
831.3727	0.02
831.5396	-0.0266
831.7065	0.0258
831.8734	0.0489
832.0402	-0.0507
832.2071	-0.0227
832.3739	-0.0178
832.5407	-0.0189
832.7075	-0.0155
832.8742	-0.0361
833.041	-0.0341
833.2077	0.0004
833.3744	-0.0187
833.541	-0.015
833.7077	-0.0257
833.8743	-0.0263
834.0409	0.0078
834.2075	-0.0127
834.3741	-0.0345
834.5407	0.0004
834.7072	-0.0158
834.8737	-0.0228
835.0402	-0.0375
835.2067	-0.0119
835.3731	-0.0074
835.5395	0.0049
835.706	0.0196
835.8723	-0.0095
836.0387	0.008
836.2051	-0.0682
836.3714	0.0165
836.5377	-0.0288
836.704	-0.0468
836.8703	0.0251
837.0365	-0.0518
837.2027	-0.0195
837.3689	0.0423
837.5351	-0.0424
837.7013	-0.0314
837.8674	0.0015
838.0335	-0.0387
838.1997	-0.0376
838.3657	-0.0268
838.5318	-0.0236
838.6978	0.0227
838.8639	0.0305
839.0299	-0.0334
839.1958	0.0013
839.3618	0.0057
839.5277	-0.0348
839.6937	-0.0036
839.8596	-0.0317
840.0254	0.0261
840.1913	0.0513
840.3571	0.0167
840.523	0.0242
840.6888	-0.0482
840.8545	-0.0237
841.0203	-0.0216
841.186	-0.022
841.3517	-0.038
841.5174	0.0203
841.6831	-0.0096
841.8488	-0.0021
842.0144	-0.0048
842.18	-0.0194
842.3456	0.0063
842.5112	-0.0211
842.6767	-0.0352
842.8422	-0.0263
843.0077	-0.0194
843.1732	-0.0164
843.3387	-0.0655
843.5042	-0.0642
843.6696	-0.0088
843.835	-0.0183
844.0004	0.0414
844.1657	-0.0073
844.3311	-0.0596
844.4964	-0.0985
844.6617	-0.021
844.827	-0.0096
844.9923	-0.0215
845.1575	0.0635
845.3227	0.0484
845.4879	0.0156
845.6531	-0.0509
845.8183	-0.0863
845.9834	-0.0091
846.1485	-0.0153
846.3136	-0.0906
846.4787	-0.1218
846.6438	0.0117
846.8088	-0.0631
846.9738	-0.0077
847.1388	0.0227
847.3038	-0.0637
847.4687	-0.1757
847.6337	-0.028
847.7986	0.0298
847.9635	-0.0832
848.1284	0.0292
848.2932	0.1075
848.458	0.0115
848.6228	0.0122
848.7876	0.0548
848.9524	-0.0273
849.1172	-0.0516
849.2819	-0.0088
849.4466	-0.1125
849.6113	-0.0632
849.7759	-0.084
849.9406	-0.0223
850.1052	-0.0042
850.2698	0.0148
850.4344	0.0073
850.599	-0.0595
850.7635	-0.0345
850.928	-0.0663
851.0925	-0.0157
851.257	0.0402
851.4215	-0.002
851.5859	0.0334
851.7503	-0.0456
851.9147	-0.0383
852.0791	-0.073
852.2434	-0.0299
852.4078	-0.0309
852.5721	0.0453
852.7364	-0.0506
852.9007	-0.1484
853.0649	-0.0007
853.2291	0.0692
853.3934	0.0584
853.5575	-0.0277
853.7217	-0.1568
853.8859	-0.055
854.05	-0.1379
854.2141	-0.1598
854.3782	-0.0878
854.5423	-0.13
854.7063	0.0682
854.8703	-0.0812
855.0343	-0.1463
855.1983	-0.1371
855.3623	0.0583
855.5262	0.1217
855.6901	-0.1267
855.854	0.0359
856.0179	0.0483
856.1818	0.0963
856.3456	-0.1031
856.5094	-0.1164
856.6732	-0.0313
856.837	-0.1043
857.0008	-0.0308
857.1645	-0.1375
857.3282	-0.1247
857.4919	-0.0318
857.6556	-0.1849
857.8192	0.2047
857.9828	0.0105
858.1465	-0.0277
858.31	-0.0908
858.4736	-0.1672
858.6372	-0.2536
858.8007	-0.2185
858.9642	0.0516
859.1277	0.0606
859.2911	0.1711
859.4546	0.0409
859.618	-0.4124
859.7814	-0.0693
859.9448	0.1464
860.1081	-0.0743
860.2715	0.0806
860.4348	-0.1683
860.5981	0.0866
860.7614	0.2015
860.9246	-0.244
861.0879	-0.1719
861.2511	-0.0335
861.4143	-0.4555
861.5774	0.1015
861.7406	-0.2242
861.9037	0.1659
862.0668	-0.0639
862.2299	-0.2314
862.393	-0.6939
862.556	0.0455
862.7191	-0.3356
862.8821	-0.2777
863.0451	0.2911
863.208	0.0243
863.371	0.0505
863.5339	-0.3295
863.6968	0.0341
863.8597	-0.3076
864.0225	-0.1711
864.1854	-0.1268
864.3482	-0
864.511	0.1184
864.6737	-0.0151
864.8365	-0.1967
864.9992	-0
865.1619	-0.6818
865.3246	-0.1279
865.4873	0.1425
865.65	-0.3023
865.8126	0.2039
865.9752	-0.1548
866.1378	0.119
866.3004	-0.2584
866.4629	0.204
866.6254	-0.1
866.7879	0.0474
866.9504	0.3596
867.1129	-0
867.2753	0.4225
867.4377	0.0731
867.6001	-0.3687
867.7625	-0.0357
867.9249	-0.7554
868.0872	-0.0593
868.2495	-0.185
868.4118	0.0976
868.5741	-0.7107
868.7363	-0.5013
868.8986	-0.2658
869.0608	-0.3017
869.223	0.3329
869.3851	-0
869.5473	0.1216
869.7094	0.1465
869.8715	0.432
870.0336	-0.3606
870.1957	-0
870.3577	-0
870.5197	0.115
870.6817	0.5853
870.8437	-0.0639
871.0057	-0.5241
871.1676	-0.014
871.3295	0.3299
871.4914	-0.5829
871.6533	-0.1995
871.8151	-0.2897
871.977	-0
872.1388	-0
872.3006	-0.1817
872.4623	-0
872.6241	0.1235
872.7858	-0
872.9475	-0.0533
873.1092	0.2037
873.2709	-0.0885
873.4325	0.279
873.5941	-0
873.7557	0.2523
873.9173	-0.2964
874.0789	-0.4504
874.2404	-0.4564
874.4019	-0.0135
874.5634	0.0217
874.7249	-0.2267
874.8863	0.0946
875.0478	0.0427
875.2092	-0
875.3706	0.3551
875.5319	-0.837
875.6933	-0
875.8546	-0
876.0159	-0.1869
876.1772	0.647
876.3385	-0
876.4997	0.3404
876.6609	-0.3339
876.8221	1.3358
876.9833	-0
877.1445	-0
877.3056	0.0754
877.4667	1.5357
877.6278	-0
877.7889	-0.5497
877.9499	-0
878.111	-0.5768
878.272	-0.7579
878.433	-0
878.5939	0.3921
878.7549	-0.186
878.9158	-0.71
879.0767	-0
879.2376	0.0787
879.3984	-0.3027
879.5593	-0
879.7201	0.0464
879.8809	-0.5894
880.0417	-0.3174
880.2024	-0
880.3632	-0.7945
880.5239	0.0956
880.6846	-0.0287
880.8452	-2.673
881.0059	0.2218
881.1665	0.0041
881.3271	-0
881.4877	-0.6508
881.6483	-0.0419
881.8088	-0.4906
881.9693	-0
882.1298	-0
882.2903	-0
