Data from MonoPyChalIsomerACN10uM350nmA_Absorbance_14-35-37-615.txt Node
Date: Fri Jul 05 14:35:37 BST 2024
User: LASERRRRR
Spectrometer: FLMT03099
Trigger mode: 0
Integration Time (sec): 1.000000E-1
Scans to average: 1
Electric dark correction enabled: true
Nonlinearity correction enabled: false
Boxcar width: 0
XAxis mode: Wavelengths
Number of Pixels in Spectrum: 3648
>>>>>Begin Spectral Data<<<<<
179.3399	0.029
179.5586	0.029
179.7771	0.029
179.9957	0.9741
180.2143	-0
180.4329	0.0423
180.6514	-0
180.8699	-0
181.0885	0.0098
181.307	0.039
181.5255	-0.7506
181.744	-0
181.9625	-0
182.181	-0
182.3994	0.8647
182.6179	-0
182.8363	-0.0852
183.0547	-0.3854
183.2732	0.0904
183.4916	0.1121
183.71	-0.0433
183.9284	0.2238
184.1467	0.2243
184.3651	0.0577
184.5835	0.1712
184.8018	-0.1429
185.0201	0.0535
185.2385	0.0988
185.4568	-0.0993
185.6751	0.0382
185.8934	0.0828
186.1117	-0.0615
186.3299	0.1963
186.5482	0.1435
186.7664	-0.1365
186.9847	0.0202
187.2029	0.011
187.4211	0.0409
187.6393	0.2535
187.8575	0.1756
188.0757	0.5348
188.2939	-0.0044
188.512	-0.1739
188.7302	0.02
188.9483	-0.1786
189.1665	0.12
189.3846	0.5409
189.6027	0.1827
189.8208	0.1801
190.0389	0.0343
190.257	0.2262
190.475	0.2029
190.6931	0.1742
190.9111	0.525
191.1292	0.2361
191.3472	0.3264
191.5652	0.2819
191.7832	0.3131
192.0012	0.5828
192.2192	0.2655
192.4371	0.4414
192.6551	0.2663
192.873	0.6386
193.091	0.4033
193.3089	0.3042
193.5268	0.4749
193.7447	0.4932
193.9626	0.4318
194.1805	0.7492
194.3984	0.7984
194.6162	0.7122
194.8341	0.5604
195.0519	0.5237
195.2697	0.4831
195.4875	0.6339
195.7054	0.8739
195.9231	0.7146
196.1409	0.5303
196.3587	0.6829
196.5765	0.6693
196.7942	0.4659
197.012	0.5012
197.2297	0.4276
197.4474	0.7343
197.6651	0.6301
197.8828	0.5626
198.1005	0.6167
198.3182	0.6519
198.5358	0.8131
198.7535	0.5211
198.9711	0.481
199.1888	0.6211
199.4064	0.684
199.624	0.7206
199.8416	0.5172
200.0592	0.6265
200.2767	0.6882
200.4943	0.6739
200.7119	0.6359
200.9294	0.6673
201.1469	0.5365
201.3645	0.6451
201.582	0.6089
201.7995	0.6242
202.017	0.706
202.2344	0.6025
202.4519	0.6779
202.6694	0.6473
202.8868	0.5629
203.1042	0.6548
203.3217	0.695
203.5391	0.597
203.7565	0.5766
203.9739	0.6751
204.1913	0.5627
204.4086	0.6663
204.626	0.6435
204.8433	0.6766
205.0607	0.6406
205.278	0.5832
205.4953	0.593
205.7126	0.7276
205.9299	0.7709
206.1472	0.6805
206.3644	0.5977
206.5817	0.6345
206.7989	0.6653
207.0162	0.6008
207.2334	0.66
207.4506	0.623
207.6678	0.6244
207.885	0.6412
208.1022	0.596
208.3194	0.6972
208.5365	0.6388
208.7537	0.7637
208.9708	0.5871
209.1879	0.5847
209.405	0.6809
209.6222	0.6692
209.8392	0.6045
210.0563	0.5636
210.2734	0.6371
210.4905	0.6437
210.7075	0.6254
210.9245	0.5987
211.1416	0.6673
211.3586	0.6607
211.5756	0.5804
211.7926	0.6087
212.0096	0.5844
212.2265	0.5085
212.4435	0.5757
212.6604	0.5637
212.8774	0.6023
213.0943	0.5725
213.3112	0.5312
213.5281	0.5229
213.745	0.5359
213.9619	0.5079
214.1788	0.5226
214.3956	0.4208
214.6125	0.5
214.8293	0.4607
215.0461	0.4561
215.2629	0.4652
215.4798	0.4686
215.6965	0.4051
215.9133	0.4314
216.1301	0.4066
216.3469	0.4297
216.5636	0.4182
216.7803	0.4047
216.9971	0.3827
217.2138	0.3523
217.4305	0.3863
217.6472	0.3639
217.8639	0.3918
218.0805	0.3179
218.2972	0.3423
218.5138	0.3192
218.7305	0.3173
218.9471	0.3176
219.1637	0.2835
219.3803	0.2942
219.5969	0.2874
219.8135	0.2441
220.0301	0.2802
220.2466	0.28
220.4632	0.2424
220.6797	0.2569
220.8962	0.2431
221.1127	0.2703
221.3292	0.2468
221.5457	0.2346
221.7622	0.241
221.9787	0.2583
222.1951	0.2424
222.4116	0.2339
222.628	0.2562
222.8444	0.2404
223.0608	0.2505
223.2772	0.2465
223.4936	0.254
223.71	0.2251
223.9264	0.2612
224.1427	0.2458
224.3591	0.2464
224.5754	0.2824
224.7917	0.2708
225.008	0.2382
225.2243	0.2412
225.4406	0.2866
225.6569	0.2782
225.8732	0.2719
226.0894	0.2493
226.3057	0.2866
226.5219	0.2883
226.7381	0.2651
226.9543	0.2741
227.1705	0.2816
227.3867	0.2592
227.6029	0.302
227.8191	0.2926
228.0352	0.276
228.2513	0.3145
228.4675	0.2982
228.6836	0.3015
228.8997	0.2795
229.1158	0.3179
229.3319	0.2996
229.548	0.3081
229.764	0.3144
229.9801	0.3167
230.1961	0.3002
230.4121	0.3194
230.6282	0.3323
230.8442	0.3258
231.0602	0.3449
231.2761	0.3506
231.4921	0.3475
231.7081	0.356
231.924	0.3691
232.14	0.3584
232.3559	0.3436
232.5718	0.3711
232.7877	0.3348
233.0036	0.3383
233.2195	0.3677
233.4353	0.3526
233.6512	0.3505
233.867	0.3637
234.0829	0.3671
234.2987	0.365
234.5145	0.3917
234.7303	0.3657
234.9461	0.392
235.1619	0.3924
235.3776	0.3695
235.5934	0.3833
235.8091	0.3704
236.0249	0.3831
236.2406	0.3964
236.4563	0.382
236.672	0.3997
236.8877	0.3953
237.1034	0.3892
237.319	0.3979
237.5347	0.4004
237.7503	0.3726
237.966	0.4156
238.1816	0.4126
238.3972	0.3949
238.6128	0.3838
238.8284	0.4313
239.0439	0.417
239.2595	0.4002
239.475	0.4166
239.6906	0.4246
239.9061	0.3923
240.1216	0.4194
240.3371	0.4059
240.5526	0.3802
240.7681	0.4115
240.9836	0.3877
241.199	0.391
241.4145	0.3825
241.6299	0.3931
241.8453	0.3752
242.0607	0.3833
242.2761	0.3618
242.4915	0.3598
242.7069	0.3654
242.9223	0.3649
243.1376	0.3566
243.353	0.3425
243.5683	0.3643
243.7836	0.3362
243.9989	0.3362
244.2142	0.3206
244.4295	0.3062
244.6448	0.3118
244.86	0.3119
245.0753	0.2817
245.2905	0.287
245.5057	0.2803
245.721	0.2811
245.9362	0.2601
246.1514	0.2697
246.3665	0.2702
246.5817	0.2604
246.7969	0.2597
247.012	0.253
247.2271	0.2407
247.4423	0.2504
247.6574	0.2269
247.8725	0.2244
248.0876	0.22
248.3026	0.2357
248.5177	0.2204
248.7328	0.2184
248.9478	0.2082
249.1628	0.2016
249.3779	0.2308
249.5929	0.2046
249.8079	0.2218
250.0228	0.2062
250.2378	0.207
250.4528	0.1934
250.6677	0.1871
250.8827	0.1991
251.0976	0.1961
251.3125	0.1925
251.5274	0.1772
251.7423	0.1985
251.9572	0.1886
252.172	0.1848
252.3869	0.1957
252.6017	0.1889
252.8166	0.1657
253.0314	0.1769
253.2462	0.1787
253.461	0.1861
253.6758	0.1644
253.8906	0.1743
254.1053	0.1751
254.3201	0.1767
254.5348	0.1834
254.7496	0.1825
254.9643	0.1659
255.179	0.1758
255.3937	0.1715
255.6083	0.1642
255.823	0.1776
256.0377	0.1637
256.2523	0.1792
256.467	0.1504
256.6816	0.169
256.8962	0.17
257.1108	0.1548
257.3254	0.1797
257.54	0.1631
257.7545	0.1717
257.9691	0.1753
258.1836	0.1642
258.3981	0.1823
258.6127	0.1742
258.8272	0.1614
259.0417	0.1664
259.2561	0.1545
259.4706	0.1656
259.6851	0.1668
259.8995	0.1717
260.114	0.1591
260.3284	0.1641
260.5428	0.1493
260.7572	0.1732
260.9716	0.1711
261.186	0.1571
261.4003	0.1823
261.6147	0.1723
261.829	0.1711
262.0433	0.1717
262.2577	0.1581
262.472	0.1745
262.6863	0.1479
262.9005	0.1712
263.1148	0.1679
263.3291	0.1493
263.5433	0.1644
263.7576	0.1553
263.9718	0.1713
264.186	0.1557
264.4002	0.1713
264.6144	0.1609
264.8286	0.168
265.0427	0.1618
265.2569	0.1646
265.471	0.1615
265.6851	0.1691
265.8993	0.1634
266.1134	0.1506
266.3275	0.1591
266.5415	0.1544
266.7556	0.1684
266.9697	0.1656
267.1837	0.1601
267.3978	0.1668
267.6118	0.1728
267.8258	0.1789
268.0398	0.1573
268.2538	0.1655
268.4677	0.1678
268.6817	0.1475
268.8957	0.1537
269.1096	0.1602
269.3235	0.1587
269.5374	0.1445
269.7514	0.1496
269.9652	0.1511
270.1791	0.1548
270.393	0.1556
270.6068	0.1484
270.8207	0.1472
271.0345	0.1525
271.2483	0.1625
271.4622	0.1598
271.676	0.158
271.8897	0.1433
272.1035	0.1446
272.3173	0.1443
272.531	0.1438
272.7448	0.1529
272.9585	0.1276
273.1722	0.1514
273.3859	0.1455
273.5996	0.137
273.8133	0.1505
274.0269	0.1376
274.2406	0.1366
274.4542	0.1422
274.6679	0.1418
274.8815	0.1414
275.0951	0.1517
275.3087	0.1523
275.5223	0.1643
275.7358	0.1568
275.9494	0.1494
276.1629	0.1392
276.3765	0.1445
276.59	0.1533
276.8035	0.143
277.017	0.158
277.2305	0.1451
277.444	0.1509
277.6574	0.1396
277.8709	0.1549
278.0843	0.1417
278.2978	0.1351
278.5112	0.1467
278.7246	0.1416
278.938	0.1424
279.1513	0.1525
279.3647	0.1641
279.5781	0.1485
279.7914	0.1425
280.0047	0.1613
280.2181	0.1498
280.4314	0.1615
280.6447	0.1399
280.8579	0.1526
281.0712	0.1573
281.2845	0.1568
281.4977	0.1507
281.711	0.1424
281.9242	0.1556
282.1374	0.1513
282.3506	0.1467
282.5638	0.162
282.7769	0.1586
282.9901	0.1498
283.2033	0.1635
283.4164	0.1697
283.6295	0.1506
283.8426	0.1465
284.0557	0.1624
284.2688	0.1659
284.4819	0.1547
284.695	0.1642
284.908	0.1733
285.1211	0.1446
285.3341	0.1616
285.5471	0.1678
285.7601	0.1604
285.9731	0.1528
286.1861	0.1364
286.3991	0.1622
286.612	0.1612
286.825	0.1576
287.0379	0.1665
287.2508	0.161
287.4637	0.1642
287.6766	0.1521
287.8895	0.1705
288.1024	0.1771
288.3152	0.1671
288.5281	0.1566
288.7409	0.1675
288.9538	0.1624
289.1666	0.158
289.3794	0.1601
289.5922	0.171
289.8049	0.169
290.0177	0.1585
290.2304	0.1671
290.4432	0.1617
290.6559	0.1658
290.8686	0.1665
291.0813	0.1584
291.294	0.1716
291.5067	0.1762
291.7194	0.1717
291.932	0.1841
292.1447	0.1708
292.3573	0.1645
292.5699	0.1593
292.7825	0.1837
292.9951	0.1562
293.2077	0.1719
293.4203	0.1698
293.6328	0.1481
293.8454	0.1643
294.0579	0.1686
294.2704	0.1751
294.4829	0.1519
294.6954	0.1572
294.9079	0.1672
295.1204	0.1546
295.3328	0.155
295.5453	0.1633
295.7577	0.1718
295.9701	0.1596
296.1825	0.1643
296.3949	0.1538
296.6073	0.1663
296.8197	0.1573
297.0321	0.1847
297.2444	0.1525
297.4567	0.1674
297.6691	0.168
297.8814	0.1678
298.0937	0.1638
298.306	0.1662
298.5182	0.1649
298.7305	0.1713
298.9428	0.1561
299.155	0.1658
299.3672	0.1638
299.5794	0.1504
299.7916	0.1553
300.0038	0.1728
300.216	0.1714
300.4282	0.1749
300.6403	0.1605
300.8525	0.1776
301.0646	0.16
301.2767	0.163
301.4888	0.1546
301.7009	0.1708
301.913	0.1553
302.125	0.174
302.3371	0.1659
302.5491	0.1548
302.7612	0.1748
302.9732	0.1698
303.1852	0.1637
303.3972	0.1587
303.6092	0.1569
303.8211	0.1481
304.0331	0.1502
304.245	0.1446
304.457	0.1501
304.6689	0.1568
304.8808	0.1614
305.0927	0.1439
305.3046	0.1612
305.5164	0.1534
305.7283	0.153
305.9401	0.1443
306.152	0.1459
306.3638	0.1468
306.5756	0.1399
306.7874	0.1482
306.9992	0.1475
307.2109	0.1384
307.4227	0.1321
307.6344	0.147
307.8462	0.1337
308.0579	0.144
308.2696	0.139
308.4813	0.1364
308.693	0.1392
308.9046	0.1386
309.1163	0.129
309.328	0.1268
309.5396	0.1264
309.7512	0.1236
309.9628	0.1183
310.1744	0.112
310.386	0.1188
310.5976	0.1208
310.8091	0.1249
311.0207	0.1191
311.2322	0.1223
311.4437	0.1028
311.6552	0.1151
311.8667	0.1126
312.0782	0.1011
312.2897	0.1044
312.5012	0.1165
312.7126	0.1092
312.924	0.1058
313.1355	0.1147
313.3469	0.1106
313.5583	0.11
313.7696	0.1133
313.981	0.1199
314.1924	0.1138
314.4037	0.1012
314.6151	0.1125
314.8264	0.1019
315.0377	0.097
315.249	0.1014
315.4603	0.1053
315.6716	0.1104
315.8828	0.0974
316.0941	0.096
316.3053	0.0971
316.5165	0.0942
316.7277	0.1016
316.9389	0.1064
317.1501	0.0967
317.3613	0.0977
317.5724	0.0961
317.7836	0.1061
317.9947	0.1008
318.2058	0.1065
318.417	0.0969
318.6281	0.0934
318.8391	0.1018
319.0502	0.0849
319.2613	0.0963
319.4723	0.1022
319.6834	0.097
319.8944	0.094
320.1054	0.1027
320.3164	0.0936
320.5274	0.0861
320.7383	0.1003
320.9493	0.1009
321.1602	0.1081
321.3712	0.1002
321.5821	0.108
321.793	0.1
322.0039	0.1008
322.2148	0.095
322.4257	0.1016
322.6365	0.1044
322.8474	0.1029
323.0582	0.1009
323.269	0.1094
323.4798	0.1097
323.6906	0.105
323.9014	0.1117
324.1122	0.1034
324.3229	0.0977
324.5337	0.1047
324.7444	0.0912
324.9551	0.1146
325.1658	0.1133
325.3765	0.1093
325.5872	0.0919
325.7979	0.0946
326.0085	0.0979
326.2192	0.1056
326.4298	0.105
326.6404	0.104
326.851	0.0983
327.0616	0.1024
327.2722	0.1019
327.4828	0.1067
327.6933	0.1086
327.9039	0.1113
328.1144	0.1125
328.3249	0.11
328.5354	0.0983
328.7459	0.1002
328.9564	0.1148
329.1669	0.1082
329.3773	0.1027
329.5878	0.1076
329.7982	0.1078
330.0086	0.1127
330.219	0.1076
330.4294	0.0973
330.6398	0.1118
330.8502	0.0944
331.0605	0.1031
331.2708	0.108
331.4812	0.1155
331.6915	0.1152
331.9018	0.1061
332.1121	0.114
332.3224	0.1199
332.5326	0.1131
332.7429	0.1132
332.9531	0.1115
333.1633	0.1073
333.3735	0.1085
333.5837	0.1032
333.7939	0.1065
334.0041	0.1185
334.2143	0.1145
334.4244	0.1125
334.6346	0.0997
334.8447	0.1215
335.0548	0.1126
335.2649	0.1055
335.475	0.1004
335.685	0.0999
335.8951	0.1109
336.1051	0.1174
336.3152	0.1158
336.5252	0.1038
336.7352	0.1138
336.9452	0.1081
337.1552	0.1075
337.3652	0.1008
337.5751	0.1054
337.7851	0.1126
337.995	0.1068
338.2049	0.1195
338.4148	0.1224
338.6247	0.1209
338.8346	0.1207
339.0445	0.1023
339.2543	0.1016
339.4642	0.1102
339.674	0.1219
339.8838	0.1097
340.0936	0.1129
340.3034	0.1228
340.5132	0.1171
340.7229	0.1083
340.9327	0.1151
341.1424	0.1172
341.3522	0.1346
341.5619	0.1066
341.7716	0.124
341.9813	0.1243
342.1909	0.1258
342.4006	0.1208
342.6102	0.1314
342.8199	0.118
343.0295	0.1233
343.2391	0.1209
343.4487	0.1321
343.6583	0.1222
343.8679	0.1276
344.0774	0.1138
344.287	0.1365
344.4965	0.1229
344.706	0.1324
344.9155	0.1212
345.125	0.1243
345.3345	0.1286
345.544	0.1101
345.7534	0.1307
345.9629	0.1183
346.1723	0.129
346.3817	0.117
346.5911	0.121
346.8005	0.1465
347.0099	0.1327
347.2193	0.1324
347.4286	0.1199
347.638	0.1404
347.8473	0.1469
348.0566	0.1375
348.2659	0.1414
348.4752	0.1265
348.6845	0.1161
348.8937	0.149
349.103	0.1412
349.3122	0.1301
349.5214	0.1391
349.7306	0.1336
349.9398	0.131
350.149	0.1349
350.3582	0.135
350.5674	0.1592
350.7765	0.1344
350.9856	0.1341
351.1948	0.143
351.4039	0.1254
351.613	0.1246
351.822	0.1499
352.0311	0.1389
352.2402	0.1425
352.4492	0.1493
352.6582	0.1601
352.8672	0.1312
353.0762	0.1579
353.2852	0.155
353.4942	0.1406
353.7032	0.1608
353.9121	0.1553
354.1211	0.146
354.33	0.1497
354.5389	0.1502
354.7478	0.1542
354.9567	0.144
355.1655	0.1484
355.3744	0.1645
355.5833	0.155
355.7921	0.1707
356.0009	0.1664
356.2097	0.1796
356.4185	0.1735
356.6273	0.1667
356.8361	0.1734
357.0448	0.1522
357.2536	0.1433
357.4623	0.1579
357.671	0.1623
357.8797	0.1605
358.0884	0.1695
358.2971	0.165
358.5057	0.1531
358.7144	0.16
358.923	0.1566
359.1316	0.1804
359.3402	0.1707
359.5488	0.1749
359.7574	0.1624
359.966	0.183
360.1746	0.1849
360.3831	0.1758
360.5916	0.1679
360.8002	0.1671
361.0087	0.1881
361.2172	0.1927
361.4256	0.178
361.6341	0.1822
361.8426	0.182
362.051	0.1824
362.2594	0.175
362.4678	0.1805
362.6762	0.1951
362.8846	0.1875
363.093	0.1755
363.3014	0.1802
363.5097	0.1703
363.718	0.199
363.9264	0.1947
364.1347	0.1763
364.343	0.213
364.5513	0.2114
364.7595	0.1991
364.9678	0.1908
365.176	0.202
365.3842	0.1895
365.5925	0.2074
365.8007	0.202
366.0089	0.2143
366.217	0.2046
366.4252	0.2147
366.6333	0.2133
366.8415	0.2042
367.0496	0.1974
367.2577	0.2067
367.4658	0.2249
367.6739	0.2165
367.882	0.2099
368.09	0.1911
368.2981	0.214
368.5061	0.194
368.7141	0.2089
368.9221	0.2147
369.1301	0.2129
369.3381	0.2136
369.5461	0.2042
369.754	0.2068
369.962	0.2144
370.1699	0.2228
370.3778	0.2166
370.5857	0.2059
370.7936	0.208
371.0015	0.2178
371.2093	0.2279
371.4172	0.2291
371.625	0.2049
371.8328	0.2084
372.0406	0.2269
372.2484	0.2231
372.4562	0.2208
372.664	0.2002
372.8717	0.2287
373.0795	0.1995
373.2872	0.2216
373.4949	0.2267
373.7026	0.2341
373.9103	0.2203
374.118	0.2414
374.3256	0.2241
374.5333	0.2069
374.7409	0.2222
374.9485	0.2377
375.1561	0.2475
375.3637	0.2328
375.5713	0.2498
375.7789	0.229
375.9864	0.2281
376.194	0.2356
376.4015	0.2294
376.609	0.2519
376.8165	0.2317
377.024	0.2225
377.2315	0.2303
377.4389	0.2423
377.6464	0.2443
377.8538	0.2475
378.0612	0.2327
378.2686	0.2556
378.476	0.2703
378.6834	0.2345
378.8908	0.2521
379.0981	0.2606
379.3055	0.2345
379.5128	0.2316
379.7201	0.2514
379.9274	0.2342
380.1347	0.2299
380.342	0.268
380.5492	0.2438
380.7565	0.2571
380.9637	0.2538
381.1709	0.2515
381.3781	0.2513
381.5853	0.2598
381.7925	0.2646
381.9997	0.2547
382.2068	0.2742
382.4139	0.2451
382.6211	0.2475
382.8282	0.2484
383.0353	0.265
383.2424	0.2608
383.4494	0.2659
383.6565	0.256
383.8635	0.2513
384.0706	0.2762
384.2776	0.2657
384.4846	0.2456
384.6916	0.2636
384.8986	0.2506
385.1055	0.2607
385.3125	0.2533
385.5194	0.2388
385.7263	0.268
385.9333	0.2306
386.1402	0.2413
386.347	0.2542
386.5539	0.2374
386.7608	0.2646
386.9676	0.2495
387.1744	0.2581
387.3813	0.2435
387.5881	0.2292
387.7948	0.2477
388.0016	0.2572
388.2084	0.2587
388.4151	0.2559
388.6219	0.2467
388.8286	0.2483
389.0353	0.2552
389.242	0.2585
389.4487	0.2449
389.6553	0.23
389.862	0.2179
390.0686	0.2444
390.2753	0.2448
390.4819	0.2399
390.6885	0.2416
390.8951	0.2381
391.1016	0.2457
391.3082	0.2399
391.5147	0.2505
391.7213	0.2391
391.9278	0.225
392.1343	0.239
392.3408	0.2388
392.5473	0.2525
392.7537	0.2282
392.9602	0.2236
393.1666	0.2362
393.373	0.226
393.5794	0.2555
393.7858	0.2297
393.9922	0.2079
394.1986	0.2356
394.4049	0.25
394.6113	0.2171
394.8176	0.2177
395.0239	0.2242
395.2302	0.2276
395.4365	0.2206
395.6428	0.237
395.8491	0.2153
396.0553	0.2243
396.2615	0.2154
396.4678	0.2135
396.674	0.1913
396.8802	0.2175
397.0863	0.2366
397.2925	0.2111
397.4987	0.1965
397.7048	0.2122
397.9109	0.2139
398.117	0.2073
398.3231	0.2059
398.5292	0.2266
398.7353	0.2153
398.9413	0.2029
399.1474	0.2016
399.3534	0.212
399.5594	0.1998
399.7654	0.2191
399.9714	0.2225
400.1774	0.1975
400.3833	0.2068
400.5893	0.2151
400.7952	0.2051
401.0011	0.2072
401.207	0.2226
401.4129	0.2073
401.6188	0.2081
401.8247	0.2156
402.0305	0.2064
402.2364	0.2121
402.4422	0.225
402.648	0.2082
402.8538	0.2356
403.0596	0.2129
403.2654	0.2186
403.4711	0.2009
403.6768	0.2259
403.8826	0.2246
404.0883	0.2185
404.294	0.2271
404.4997	0.2174
404.7054	0.2007
404.911	0.2177
405.1167	0.2389
405.3223	0.2365
405.5279	0.2218
405.7335	0.2149
405.9391	0.2288
406.1447	0.1996
406.3502	0.226
406.5558	0.2035
406.7613	0.2205
406.9668	0.2251
407.1724	0.2145
407.3778	0.2077
407.5833	0.2123
407.7888	0.2089
407.9942	0.2294
408.1997	0.204
408.4051	0.2141
408.6105	0.2101
408.8159	0.1993
409.0213	0.2006
409.2267	0.2243
409.432	0.2039
409.6374	0.2304
409.8427	0.2146
410.048	0.2119
410.2533	0.2094
410.4586	0.1991
410.6639	0.1948
410.8691	0.1902
411.0744	0.2122
411.2796	0.1964
411.4848	0.1973
411.69	0.1997
411.8952	0.2319
412.1004	0.1986
412.3056	0.2002
412.5107	0.197
412.7158	0.2063
412.921	0.2005
413.1261	0.2059
413.3312	0.1909
413.5362	0.2096
413.7413	0.1798
413.9464	0.1954
414.1514	0.2114
414.3564	0.208
414.5614	0.1832
414.7664	0.2124
414.9714	0.2042
415.1764	0.2038
415.3813	0.2304
415.5863	0.1989
415.7912	0.2004
415.9961	0.208
416.201	0.202
416.4059	0.1944
416.6108	0.1936
416.8156	0.2036
417.0205	0.1942
417.2253	0.1867
417.4301	0.2096
417.6349	0.1869
417.8397	0.1962
418.0445	0.1885
418.2492	0.1984
418.454	0.196
418.6587	0.1894
418.8634	0.2056
419.0681	0.1844
419.2728	0.1823
419.4775	0.1904
419.6822	0.1919
419.8868	0.162
420.0915	0.1825
420.2961	0.1826
420.5007	0.18
420.7053	0.1792
420.9099	0.1869
421.1144	0.2044
421.319	0.1753
421.5235	0.1874
421.728	0.192
421.9325	0.1962
422.137	0.2011
422.3415	0.188
422.546	0.1804
422.7504	0.18
422.9549	0.1892
423.1593	0.2039
423.3637	0.1997
423.5681	0.1856
423.7725	0.1658
423.9769	0.179
424.1812	0.1786
424.3856	0.185
424.5899	0.1846
424.7942	0.1668
424.9985	0.1757
425.2028	0.1567
425.4071	0.2114
425.6113	0.1618
425.8156	0.1631
426.0198	0.1759
426.224	0.1565
426.4282	0.1706
426.6324	0.1711
426.8366	0.159
427.0407	0.151
427.2449	0.1677
427.449	0.17
427.6531	0.1522
427.8572	0.1574
428.0613	0.1466
428.2654	0.149
428.4694	0.1569
428.6735	0.1588
428.8775	0.1692
429.0815	0.1599
429.2855	0.1408
429.4895	0.1507
429.6935	0.1614
429.8975	0.1522
430.1014	0.1472
430.3053	0.1419
430.5093	0.1538
430.7132	0.1445
430.9171	0.1337
431.1209	0.1479
431.3248	0.1435
431.5286	0.1403
431.7325	0.1404
431.9363	0.1178
432.1401	0.1375
432.3439	0.1237
432.5477	0.1144
432.7514	0.1153
432.9552	0.1171
433.1589	0.1116
433.3627	0.1054
433.5664	0.1194
433.7701	0.1113
433.9737	0.1229
434.1774	0.1139
434.3811	0.1171
434.5847	0.1202
434.7883	0.1232
434.9919	0.1044
435.1955	0.1127
435.3991	0.104
435.6027	0.1178
435.8062	0.1006
436.0098	0.104
436.2133	0.1075
436.4168	0.0974
436.6203	0.0802
436.8238	0.1073
437.0272	0.099
437.2307	0.1028
437.4341	0.1106
437.6375	0.1036
437.841	0.0898
438.0443	0.1121
438.2477	0.1007
438.4511	0.0815
438.6545	0.1036
438.8578	0.0934
439.0611	0.0875
439.2644	0.0958
439.4677	0.0767
439.671	0.0902
439.8743	0.1004
440.0775	0.0774
440.2808	0.0802
440.484	0.0616
440.6872	0.0662
440.8904	0.0612
441.0936	0.0793
441.2967	0.0643
441.4999	0.0619
441.703	0.0627
441.9062	0.0601
442.1093	0.065
442.3124	0.0552
442.5155	0.0458
442.7185	0.06
442.9216	0.0426
443.1246	0.0748
443.3276	0.0452
443.5307	0.0552
443.7337	0.0516
443.9366	0.0534
444.1396	0.0589
444.3426	0.0606
444.5455	0.0517
444.7484	0.0495
444.9513	0.0453
445.1542	0.058
445.3571	0.0492
445.56	0.0539
445.7628	0.0292
445.9657	0.0436
446.1685	0.0503
446.3713	0.0468
446.5741	0.0423
446.7769	0.0334
446.9797	0.0419
447.1824	0.0482
447.3852	0.0262
447.5879	0.0594
447.7906	0.0406
447.9933	0.0289
448.196	0.0322
448.3986	0.0339
448.6013	0.0353
448.8039	0.0297
449.0066	0.0404
449.2092	0.04
449.4118	0.0372
449.6143	0.0272
449.8169	0.0327
450.0195	0.0204
450.222	0.0059
450.4245	0.0384
450.627	0.0397
450.8295	0.0332
451.032	0.0252
451.2345	0.0336
451.4369	0.0231
451.6394	0.0246
451.8418	0.0088
452.0442	0.0178
452.2466	0.0306
452.449	0.0076
452.6513	0.008
452.8537	0.0107
453.056	-0.0018
453.2583	0.0163
453.4607	0.0216
453.663	0.0098
453.8652	0.0288
454.0675	0.0051
454.2697	0.0415
454.472	0.0048
454.6742	0.0143
454.8764	0.0262
455.0786	0.0114
455.2808	0.037
455.4829	0.026
455.6851	0.0124
455.8872	0.0329
456.0893	0.0361
456.2915	0.0006
456.4935	0.0163
456.6956	0.0139
456.8977	0.0126
457.0997	0.0106
457.3018	0.0018
457.5038	0.0264
457.7058	0.0103
457.9078	0.015
458.1098	0.0098
458.3117	0.0108
458.5137	0.0117
458.7156	0.028
458.9175	0.0005
459.1194	-0.0016
459.3213	0.0063
459.5232	-0.0006
459.725	0.0021
459.9269	-0.0261
460.1287	0.0103
460.3305	0.0014
460.5323	0.0048
460.7341	-0.0009
460.9359	-0.0054
461.1376	0.0165
461.3394	0.0009
461.5411	0.0181
461.7428	-0.0062
461.9445	0.0009
462.1462	0.0314
462.3479	0.0151
462.5495	-0.0039
462.7512	0.006
462.9528	-0.005
463.1544	0.0025
463.356	0.0094
463.5576	0.0076
463.7592	-0.0069
463.9607	-0.0102
464.1623	0.014
464.3638	0.0168
464.5653	-0.0172
464.7668	-0.0009
464.9683	0.0086
465.1697	0.0105
465.3712	0.0031
465.5726	-0.0067
465.7741	0.0039
465.9755	-0.0096
466.1769	-0.0043
466.3782	0.0021
466.5796	-0.0091
466.7809	0.0066
466.9823	0.0125
467.1836	-0.0006
467.3849	-0.005
467.5862	0.002
467.7875	-0.0081
467.9887	0.0024
468.19	-0.0014
468.3912	-0.0091
468.5924	0.0028
468.7936	0.0038
468.9948	0.0135
469.196	-0.0025
469.3972	-0.0089
469.5983	0.0096
469.7994	-0.0112
470.0006	-0.007
470.2017	-0.0157
470.4027	-0.0024
470.6038	0.0006
470.8049	-0.0153
471.0059	-0.0094
471.2069	-0.0229
471.408	0.0141
471.6089	0.009
471.8099	-0.0003
472.0109	0.0074
472.2119	-0.0176
472.4128	-0.0253
472.6137	0.0187
472.8146	-0.0051
473.0155	0.0055
473.2164	0.0014
473.4173	-0.0027
473.6181	0.0074
473.819	-0.0033
474.0198	-0.0106
474.2206	-0.001
474.4214	-0.0123
474.6222	-0.0087
474.8229	-0.0114
475.0237	-0.004
475.2244	-0.0171
475.4251	-0.007
475.6258	-0.0048
475.8265	-0.0072
476.0272	0.0088
476.2278	-0.0023
476.4285	0.0057
476.6291	-0.0018
476.8297	-0.0098
477.0303	-0.0044
477.2309	-0.0052
477.4315	-0.0131
477.632	-0.0142
477.8326	-0.0039
478.0331	0.0003
478.2336	0.0053
478.4341	0.0004
478.6346	-0.005
478.8351	0.0058
479.0355	-0.0047
479.236	0.0019
479.4364	-0.0025
479.6368	-0.0123
479.8372	-0.0047
480.0376	0.0023
480.2379	-0.0165
480.4383	-0.0099
480.6386	0.0022
480.8389	0.0033
481.0392	-0.0064
481.2395	-0.0113
481.4398	0.0072
481.6401	0.0012
481.8403	0.0003
482.0405	-0.0077
482.2408	-0.0088
482.441	0.0085
482.6411	-0.0054
482.8413	-0.0072
483.0415	-0.0105
483.2416	-0.0068
483.4417	-0.007
483.6419	0.001
483.8419	-0.0082
484.042	0.0127
484.2421	0.0028
484.4422	0.0001
484.6422	-0.0089
484.8422	-0.0009
485.0422	-0.0087
485.2422	0.004
485.4422	-0.0077
485.6422	-0.0119
485.8421	-0.0032
486.042	0.0042
486.242	-0.0015
486.4419	-0.0099
486.6417	-0.0109
486.8416	0.0028
487.0415	-0.0087
487.2413	-0.011
487.4411	-0.0124
487.641	-0.0022
487.8408	0.0117
488.0405	-0.0103
488.2403	-0.0088
488.4401	0.0041
488.6398	-0.0021
488.8395	-0.0047
489.0392	0.0004
489.2389	-0.0078
489.4386	-0.0085
489.6383	-0.0047
489.8379	0.0083
490.0376	-0.0104
490.2372	-0.0078
490.4368	-0.0193
490.6364	-0.0069
490.836	-0.0078
491.0355	-0.002
491.2351	-0.0118
491.4346	0.0026
491.6341	-0.0014
491.8336	0.004
492.0331	-0.0176
492.2326	-0.0113
492.432	-0.0058
492.6315	-0.0027
492.8309	-0.0128
493.0303	-0.0159
493.2297	-0.0082
493.4291	0.0001
493.6284	-0.0049
493.8278	-0.0004
494.0271	-0.0011
494.2264	0.0071
494.4257	-0.017
494.625	-0.007
494.8243	-0.0273
495.0236	-0.0156
495.2228	-0.0093
495.422	0.0037
495.6213	-0.0077
495.8205	0.0016
496.0196	-0.0077
496.2188	0.0047
496.418	-0.0114
496.6171	-0.0073
496.8162	-0.012
497.0153	0.0039
497.2144	-0.0079
497.4135	-0.0069
497.6126	-0.0189
497.8116	-0.0129
498.0107	-0.0024
498.2097	-0.0109
498.4087	-0.0126
498.6077	-0.0033
498.8067	-0.0137
499.0056	0.0023
499.2046	-0.0055
499.4035	-0.0134
499.6024	-0.0063
499.8013	-0.0023
500.0002	-0.0033
500.199	-0.0019
500.3979	0.0009
500.5967	-0.0096
500.7956	0.0038
500.9944	-0.0098
501.1932	-0.0123
501.3919	-0.0122
501.5907	-0.0155
501.7895	-0.0127
501.9882	-0.0103
502.1869	0.0011
502.3856	-0.0071
502.5843	-0.0054
502.783	0.0003
502.9816	-0.0001
503.1803	-0.0138
503.3789	-0.0136
503.5775	0.0063
503.7761	-0.0132
503.9747	-0.0053
504.1732	-0.0124
504.3718	-0.0004
504.5703	-0.0046
504.7689	-0.0087
504.9674	-0.0054
505.1658	-0.0156
505.3643	-0.0035
505.5628	-0.0014
505.7612	-0.002
505.9597	0.0033
506.1581	-0.0072
506.3565	0.0089
506.5549	-0.0097
506.7532	-0.0141
506.9516	-0.0024
507.1499	-0.0006
507.3482	-0.01
507.5465	-0.0075
507.7448	-0.0066
507.9431	-0.0069
508.1414	-0.0093
508.3396	-0.0023
508.5379	-0.0037
508.7361	-0.018
508.9343	-0.0103
509.1325	0.0003
509.3306	-0.0093
509.5288	-0.0029
509.7269	-0.0121
509.9251	0.0052
510.1232	-0.0154
510.3213	0.0001
510.5193	0.0023
510.7174	-0.0181
510.9154	-0.0125
511.1135	-0.0056
511.3115	0.0025
511.5095	-0.0004
511.7075	-0.0052
511.9055	-0.0082
512.1034	-0.0078
512.3014	-0.0056
512.4993	-0.0052
512.6972	-0.0097
512.8951	-0.0135
513.093	0.0004
513.2908	0.0042
513.4887	-0.0051
513.6865	-0.0116
513.8844	-0.0075
514.0822	-0.0079
514.2799	-0.0191
514.4777	-0.0095
514.6755	-0.0083
514.8732	-0.0096
515.0709	0.001
515.2687	-0.0082
515.4664	-0.0046
515.664	-0.0101
515.8617	0.0008
516.0594	-0.0119
516.257	-0.0028
516.4546	-0.0101
516.6522	0.0029
516.8498	-0.0068
517.0474	0.009
517.2449	-0.0016
517.4425	-0.0116
517.64	0.0031
517.8375	0.0101
518.035	-0.0022
518.2325	-0.0065
518.43	-0.0042
518.6274	-0.0063
518.8249	-0.0095
519.0223	0.0099
519.2197	-0.0011
519.4171	-0.0045
519.6145	-0.0157
519.8118	0.0019
520.0092	-0.0073
520.2065	-0.0138
520.4038	-0.011
520.6011	-0.0058
520.7984	-0.0152
520.9956	-0.0116
521.1929	-0.0096
521.3901	-0.0079
521.5874	-0.0025
521.7846	0.0019
521.9818	-0.0192
522.1789	-0.0033
522.3761	-0.0043
522.5732	-0.0095
522.7704	-0.007
522.9675	-0.0092
523.1646	-0.016
523.3617	-0.0007
523.5587	-0.0037
523.7558	-0.001
523.9528	-0.0073
524.1498	0.0031
524.3468	-0.0006
524.5438	-0.0004
524.7408	-0.0016
524.9378	-0.0009
525.1347	-0.0013
525.3316	-0.0042
525.5285	-0.0098
525.7254	-0.006
525.9223	0.0019
526.1192	-0.0041
526.316	-0.0065
526.5129	0.0108
526.7097	-0.0127
526.9065	-0.0022
527.1033	-0.0123
527.3	0.0009
527.4968	-0.0059
527.6935	0.0099
527.8903	-0.0142
528.087	-0.0031
528.2837	-0.0019
528.4804	-0.0059
528.677	-0.0089
528.8737	0.0116
529.0703	-0.0022
529.2669	-0.006
529.4635	-0.0076
529.6601	-0.0063
529.8567	-0.0106
530.0532	-0.0112
530.2498	0.0009
530.4463	-0.0014
530.6428	-0.0097
530.8393	0.0049
531.0358	-0.0029
531.2322	-0.0049
531.4287	-0.0107
531.6251	-0.0071
531.8215	0.0002
532.0179	-0.0037
532.2143	0.0057
532.4107	-0.0116
532.607	-0.0134
532.8034	0.0035
532.9997	0.0008
533.196	-0.0024
533.3923	-0.0052
533.5886	0.0011
533.7848	-0.0018
533.9811	0.0041
534.1773	-0.0045
534.3735	0.0095
534.5697	-0.0059
534.7659	-0.0062
534.9621	0.0008
535.1582	-0.0019
535.3544	-0.0036
535.5505	-0.0029
535.7466	0.002
535.9427	-0.0014
536.1387	-0.0072
536.3348	-0.0098
536.5308	0.0038
536.7269	-0.0227
536.9229	-0.0048
537.1189	-0.0064
537.3148	-0.0004
537.5108	-0.0058
537.7068	-0.0046
537.9027	0.0091
538.0986	-0.0049
538.2945	-0.0053
538.4904	-0.0073
538.6863	-0.0066
538.8821	-0.0052
539.078	-0.0066
539.2738	-0.0007
539.4696	-0.002
539.6654	0.0065
539.8611	0.0116
540.0569	0.0063
540.2526	-0.0093
540.4484	0.005
540.6441	0.0053
540.8398	0.0012
541.0355	0.0032
541.2311	-0.0036
541.4268	-0.0079
541.6224	0.0028
541.818	0.0008
542.0136	-0.0055
542.2092	-0.0091
542.4048	0.0046
542.6003	-0.0101
542.7959	-0.0001
542.9914	-0.0059
543.1869	0.0007
543.3824	-0.0053
543.5779	-0.0003
543.7734	-0.0148
543.9688	-0.0043
544.1642	-0.0001
544.3596	0.0045
544.555	-0.0121
544.7504	0.0052
544.9458	-0.0115
545.1411	0.0011
545.3365	0.0009
545.5318	-0.0044
545.7271	-0.0023
545.9224	-0.0043
546.1177	0.001
546.3129	0.0021
546.5081	-0.0071
546.7034	-0.0087
546.8986	-0.0076
547.0938	-0.0084
547.289	0.0027
547.4841	-0.0007
547.6793	0.0022
547.8744	-0.0108
548.0695	0.0065
548.2646	-0.0069
548.4597	0.0053
548.6548	0.0032
548.8498	0.0043
549.0448	0.005
549.2399	-0.0006
549.4349	0.0009
549.6298	-0.0043
549.8248	-0.0014
550.0198	0.0016
550.2147	-0.0119
550.4096	-0.0006
550.6045	-0.0031
550.7994	-0.0019
550.9943	-0.0028
551.1892	0.0016
551.384	0.0017
551.5788	-0.0132
551.7737	0.0016
551.9685	-0.0046
552.1632	0.004
552.358	-0.0039
552.5528	0.0005
552.7475	-0.0084
552.9422	-0.003
553.1369	-0.0094
553.3316	0.002
553.5263	-0.0031
553.7209	0.0048
553.9156	-0.01
554.1102	-0.0042
554.3048	0.0005
554.4994	0.0135
554.694	-0.0047
554.8885	0.0017
555.0831	-0.0017
555.2776	-0.0028
555.4721	0.0004
555.6666	-0.0008
555.8611	0.011
556.0555	-0.0014
556.25	0.0051
556.4444	-0.011
556.6388	-0.0006
556.8332	0.0067
557.0276	0.006
557.222	-0.0049
557.4163	0.0004
557.6107	-0.0067
557.805	0.0015
557.9993	-0.0038
558.1936	-0.0033
558.3879	-0.0048
558.5821	-0.0018
558.7764	-0.0012
558.9706	0.0005
559.1648	-0.0022
559.359	-0.006
559.5532	-0.0018
559.7473	-0.0078
559.9415	0.0104
560.1356	-0.0011
560.3297	-0.0067
560.5238	-0.0062
560.7179	0.0001
560.9119	-0.0008
561.106	-0.0102
561.3	-0.0028
561.494	0.001
561.688	-0.0039
561.882	-0.0105
562.076	-0.0005
562.2699	0.0028
562.4639	-0.0012
562.6578	-0.0019
562.8517	0.0002
563.0456	-0.005
563.2395	0.0012
563.4333	0.0002
563.6272	0.0101
563.821	-0.0025
564.0148	0.0065
564.2086	0.0016
564.4024	-0.0018
564.5961	-0.0042
564.7899	0.0048
564.9836	-0.0006
565.1773	0.0024
565.371	0.0107
565.5647	0.0033
565.7584	0.0067
565.952	0.0059
566.1456	0.0066
566.3393	0.0045
566.5329	-0.0036
566.7264	-0.0025
566.92	-0.0075
567.1136	0.0068
567.3071	-0.0126
567.5006	0
567.6941	0.0054
567.8876	0.0013
568.0811	-0.0049
568.2745	-0.0011
568.468	-0
568.6614	-0.0036
568.8548	-0.0017
569.0482	-0.0016
569.2416	0.004
569.4349	-0.0006
569.6283	0.0095
569.8216	0.0015
570.0149	0.0033
570.2082	0.0011
570.4015	0.0097
570.5947	0.0045
570.788	0.0056
570.9812	0.0003
571.1744	0.0023
571.3676	-0.0091
571.5608	-0.002
571.754	0.0077
571.9471	0.0042
572.1402	0.0027
572.3333	0.0001
572.5264	-0.0064
572.7195	-0.0017
572.9126	0.0005
573.1057	0.0035
573.2987	-0.0014
573.4917	0.0112
573.6847	-0.0057
573.8777	0.0055
574.0707	0.0014
574.2636	-0.0013
574.4566	-0.0016
574.6495	0.0012
574.8424	-0.0016
575.0353	-0.0018
575.2281	0.0059
575.421	0.0047
575.6138	0.0015
575.8067	-0.0019
575.9995	0.0058
576.1923	0.0081
576.385	0.0025
576.5778	0.0007
576.7706	-0.0031
576.9633	0.0019
577.156	0.0028
577.3487	0.0052
577.5414	0.0026
577.734	0.0033
577.9267	0.0041
578.1193	-0.0091
578.3119	-0.001
578.5045	-0.0042
578.6971	-0.0005
578.8897	0.005
579.0822	-0.001
579.2747	0.0097
579.4673	-0.0036
579.6598	-0.0008
579.8522	0.0024
580.0447	-0.0008
580.2372	-0.0007
580.4296	0.0015
580.622	0.0046
580.8144	0.0023
581.0068	-0.0024
581.1992	-0.0021
581.3915	-0.0056
581.5839	-0.0078
581.7762	-0.0098
581.9685	-0.0025
582.1608	-0.0002
582.353	0.0051
582.5453	-0.004
582.7375	-0.0049
582.9298	0.0032
583.122	-0.0022
583.3142	0.003
583.5063	-0.0074
583.6985	0.0017
583.8906	-0.002
584.0827	-0.0078
584.2749	0.0015
584.4669	0.0024
584.659	0.0022
584.8511	0.0035
585.0431	-0.0031
585.2352	0.0001
585.4272	-0.0057
585.6192	0.0043
585.8111	0.0027
586.0031	-0.003
586.195	-0.0005
586.387	0.0019
586.5789	0.0011
586.7708	0.0041
586.9627	-0.0003
587.1545	-0.0077
587.3464	0.0024
587.5382	0.0021
587.73	0.0019
587.9218	0.0063
588.1136	-0.0046
588.3053	0.0041
588.4971	-0.0012
588.6888	-0.0109
588.8805	-0.0004
589.0722	0.0007
589.2639	0.0026
589.4556	0.0009
589.6472	0.0016
589.8389	-0.0055
590.0305	-0.009
590.2221	0.0014
590.4137	0.002
590.6052	0.0052
590.7968	0.0038
590.9883	0.0003
591.1798	0.0013
591.3713	-0.0013
591.5628	-0.0028
591.7543	-0.0018
591.9458	-0.0007
592.1372	0.0027
592.3286	-0.0002
592.52	0.005
592.7114	-0.0029
592.9028	-0.0028
593.0941	0.0035
593.2855	-0.0004
593.4768	-0.0018
593.6681	-0.0045
593.8594	-0.0064
594.0506	0.0058
594.2419	0.0075
594.4331	0.0014
594.6244	0.0001
594.8156	-0.0071
595.0067	0.0036
595.1979	0.0007
595.3891	-0.0009
595.5802	-0.001
595.7713	0.0005
595.9624	-0.0034
596.1535	0.0035
596.3446	-0.0014
596.5357	0.0001
596.7267	0.0053
596.9177	-0.0059
597.1087	-0.0077
597.2997	-0.0034
597.4907	0.008
597.6817	0.0006
597.8726	0.0016
598.0635	-0.0021
598.2544	0.0037
598.4453	-0.006
598.6362	0.0017
598.827	-0.0066
599.0179	0.0044
599.2087	0.0039
599.3995	0.004
599.5903	0.0016
599.7811	0.0006
599.9718	0.0002
600.1626	-0.0063
600.3533	-0.0069
600.544	0.0004
600.7347	-0.0049
600.9254	-0.0006
601.116	-0.0077
601.3067	0.0007
601.4973	-0.0019
601.6879	0.0079
601.8785	-0.0068
602.0691	0.0065
602.2596	0.0054
602.4502	0.0082
602.6407	-0.0007
602.8312	0.0005
603.0217	-0.008
603.2122	0.0028
603.4027	-0.0057
603.5931	0.0002
603.7835	-0.0006
603.9739	-0.0002
604.1643	-0.0006
604.3547	-0.0015
604.5451	0.0044
604.7354	0.0015
604.9257	-0.0014
605.116	-0.0101
605.3063	0.0053
605.4966	0.0067
605.6869	0.0023
605.8771	0.0073
606.0673	0.007
606.2575	0.0036
606.4477	0.0067
606.6379	0.0017
606.8281	-0.0024
607.0182	0.0024
607.2083	0.0055
607.3985	-0.0017
607.5885	0.0003
607.7786	-0.0011
607.9687	0.0029
608.1587	0.0048
608.3488	0.0016
608.5388	0.0055
608.7288	-0.0042
608.9187	-0.0054
609.1087	0.0003
609.2986	-0.0088
609.4886	-0.0024
609.6785	0.0065
609.8684	0.0053
610.0582	0.0029
610.2481	0.0041
610.4379	-0.0005
610.6278	0.0074
610.8176	-0.001
611.0074	-0.0026
611.1971	-0.0062
611.3869	-0.0004
611.5766	-0.0071
611.7664	0.0054
611.9561	0.0062
612.1458	0.0023
612.3354	-0.0026
612.5251	0.0038
612.7147	0.0092
612.9044	0.0051
613.094	-0.0019
613.2836	0.0003
613.4731	-0.0047
613.6627	0.0022
613.8522	-0.001
614.0417	0.0069
614.2313	-0.0056
614.4207	-0.0062
614.6102	0.0062
614.7997	-0.0011
614.9891	-0.0035
615.1785	0.0116
615.3679	-0.0093
615.5573	0.0095
615.7467	0.0025
615.9361	-0.0034
616.1254	0.0023
616.3147	-0.0012
616.504	-0.0008
616.6933	0.0033
616.8826	0.0108
617.0718	0.0025
617.2611	0.0015
617.4503	-0.0086
617.6395	0.0026
617.8287	0.0038
618.0179	-0.0012
618.207	0.0081
618.3961	0.0027
618.5853	0.0012
618.7744	0.0039
618.9634	0.0059
619.1525	0.0075
619.3416	0.006
619.5306	0.0013
619.7196	0.0026
619.9086	0.0029
620.0976	0.0018
620.2866	-0.002
620.4755	-0.0014
620.6645	0.0056
620.8534	0.0064
621.0423	0.0042
621.2312	0.0079
621.42	-0.004
621.6089	-0.0003
621.7977	0.0011
621.9865	-0.0033
622.1753	0.0021
622.3641	-0.0014
622.5529	0.0117
622.7416	0.0094
622.9303	-0.0007
623.1191	0.0034
623.3078	-0.0026
623.4964	-0.0006
623.6851	-0.0069
623.8737	-0.0034
624.0624	0.0042
624.251	-0.0004
624.4396	0.0009
624.6282	-0.0054
624.8167	0.0003
625.0053	0.0108
625.1938	0.0024
625.3823	0.0035
625.5708	-0.0002
625.7593	-0.0009
625.9477	-0.0106
626.1362	-0.0007
626.3246	-0.0014
626.513	0.0003
626.7014	0.0026
626.8898	0.0059
627.0781	0.0013
627.2665	-0.0044
627.4548	0.0013
627.6431	0.006
627.8314	0.0007
628.0197	0.0063
628.2079	-0.0049
628.3962	-0.0027
628.5844	0.003
628.7726	0.0032
628.9608	0.0085
629.1489	0.0102
629.3371	0.0056
629.5252	-0.0049
629.7134	0.0063
629.9015	-0.0011
630.0895	-0.002
630.2776	0.0094
630.4657	-0.0012
630.6537	0.0077
630.8417	-0.0015
631.0297	0.0007
631.2177	-0.0021
631.4057	-0.0057
631.5936	-0.0038
631.7815	0.0006
631.9695	-0.0014
632.1574	0.0059
632.3452	0.0124
632.5331	0.0017
632.7209	0.0038
632.9088	0.0128
633.0966	0.0108
633.2844	-0.003
633.4722	0.0025
633.6599	0.0085
633.8477	0.0092
634.0354	0.0036
634.2231	-0.0032
634.4108	0.0028
634.5985	0.008
634.7861	0.0074
634.9738	-0.0018
635.1614	0.0035
635.349	0.0055
635.5366	0.004
635.7242	0.006
635.9117	0.0099
636.0993	-0.0009
636.2868	0.0061
636.4743	0.0017
636.6618	0.0091
636.8492	0.0057
637.0367	-0.0005
637.2241	-0.0015
637.4115	-0.0013
637.5989	0.0017
637.7863	-0.0002
637.9737	0.0026
638.161	0.004
638.3484	0.0056
638.5357	0.0099
638.723	0.0042
638.9103	0.0056
639.0975	0.0026
639.2848	0.0027
639.472	0.0002
639.6592	0.0038
639.8464	0.0118
640.0336	0.002
640.2208	-0.0052
640.4079	-0.0052
640.595	-0.0004
640.7821	-0.0018
640.9692	0.0052
641.1563	0.0077
641.3434	0.001
641.5304	-0.0004
641.7174	0.0029
641.9044	0.0072
642.0914	0.0022
642.2784	0.0032
642.4653	0.0119
642.6523	-0
642.8392	-0.0014
643.0261	0.0058
643.213	0.0031
643.3999	-0.0049
643.5867	-0.0032
643.7735	0.0066
643.9604	0.001
644.1472	-0.0001
644.3339	-0.0005
644.5207	0.0044
644.7075	0.0013
644.8942	0.005
645.0809	0.0009
645.2676	0.0056
645.4543	0.0009
645.6409	0.0099
645.8276	0.0013
646.0142	0.0083
646.2008	0.0003
646.3874	0.0025
646.574	0.0002
646.7605	-0.0036
646.9471	-0.0122
647.1336	-0.0028
647.3201	0.0036
647.5066	0.0016
647.6931	0.0107
647.8795	-0.0018
648.0659	0.0041
648.2524	0.0055
648.4388	-0.0037
648.6252	0.0032
648.8115	0.0075
648.9979	0.0028
649.1842	0.0071
649.3705	0.0049
649.5568	0.0013
649.7431	0.0092
649.9294	0.0001
650.1156	0.0044
650.3018	0.0011
650.488	0.0062
650.6742	0.0046
650.8604	0.0074
651.0466	-0.0064
651.2327	0.0026
651.4188	-0.0005
651.6049	-0.0033
651.791	0.0028
651.9771	0.0058
652.1632	-0.0034
652.3492	0.0013
652.5352	0.0009
652.7212	0.0014
652.9072	0.0045
653.0932	0.0038
653.2791	-0.0054
653.465	0.0088
653.651	0.0021
653.8369	-0.0073
654.0227	0.0021
654.2086	0.0045
654.3944	0.0098
654.5803	0.0003
654.7661	0.0045
654.9519	0.0065
655.1377	-0.004
655.3234	-0.0024
655.5092	-0.0044
655.6949	-0.0066
655.8806	-0.0064
656.0663	0.0004
656.2519	0
656.4376	-0.0033
656.6232	0.0002
656.8088	0.0029
656.9945	-0.0004
657.18	0.0019
657.3656	-0.0003
657.5511	0.0003
657.7367	-0.0044
657.9222	0.0103
658.1077	-0.0002
658.2932	0.0058
658.4786	-0.0112
658.6641	-0.0045
658.8495	-0.0068
659.0349	-0.0008
659.2203	0.0008
659.4057	0.0042
659.591	-0.0021
659.7764	-0.0044
659.9617	-0.0043
660.147	-0.0039
660.3323	0.003
660.5176	0.0072
660.7028	0.0034
660.888	0.0075
661.0733	0.0042
661.2585	-0.0062
661.4436	0.0009
661.6288	0.0005
661.8139	-0.0061
661.9991	-0.0011
662.1842	-0.0053
662.3693	0.002
662.5544	0.0024
662.7394	0.0012
662.9245	-0.0029
663.1095	-0.0034
663.2945	-0.0002
663.4795	-0.0075
663.6644	0.013
663.8494	0.0039
664.0343	0.0102
664.2193	-0.005
664.4042	0.0026
664.589	-0.0017
664.7739	0
664.9587	-0.0031
665.1436	0.0016
665.3284	0.0055
665.5132	-0.0065
665.698	-0.0098
665.8827	0.0003
666.0675	0.0021
666.2522	-0.004
666.4369	0.0027
666.6216	0.0079
666.8063	-0.0023
666.9909	0.0005
667.1756	-0.0009
667.3602	-0.0014
667.5448	0.0047
667.7294	0.0105
667.9139	0.005
668.0985	0.0121
668.283	-0.0005
668.4675	0.0001
668.652	0.0093
668.8365	-0.0037
669.0209	0.0135
669.2054	0.0049
669.3898	-0.0009
669.5742	0.0043
669.7586	0.0082
669.943	0.0053
670.1273	0.0052
670.3117	0.0083
670.496	0.0056
670.6803	0.0149
670.8646	-0.0016
671.0488	0.0003
671.2331	0.0043
671.4173	0.0004
671.6015	-0.0036
671.7857	0.0055
671.9699	0.0018
672.1541	0.0075
672.3382	0.0077
672.5223	0.0102
672.7064	0.0026
672.8905	0.0022
673.0746	-0.0006
673.2587	0.0009
673.4427	0.004
673.6267	0.0107
673.8107	0.0109
673.9947	0.0015
674.1787	0.0024
674.3626	-0.0005
674.5465	0.0054
674.7304	0.0055
674.9143	0.0054
675.0982	0.0102
675.2821	-0.0073
675.4659	0.0111
675.6497	-0.0007
675.8335	0.0005
676.0173	0.004
676.2011	-0.001
676.3849	-0.0017
676.5686	0.0007
676.7523	0.0015
676.936	-0.0033
677.1197	-0.0034
677.3034	-0.009
677.487	0.0025
677.6706	0.0024
677.8542	0.0039
678.0378	-0
678.2214	-0.003
678.405	-0.0004
678.5885	-0.0056
678.772	0.0014
678.9555	-0.0079
679.139	-0.0099
679.3225	-0.0001
679.5059	0.0001
679.6894	-0.0028
679.8728	0.0026
680.0562	-0.0077
680.2395	-0.005
680.4229	-0.0017
680.6062	0.0086
680.7896	0.0026
680.9729	-0.0072
681.1562	0.0096
681.3394	0.0059
681.5227	0.0075
681.7059	0.0001
681.8891	-0.0021
682.0723	0.0079
682.2555	0.0113
682.4387	0.0033
682.6218	0.0043
682.805	0.0117
682.9881	0.0054
683.1712	0.0017
683.3542	0.0028
683.5373	0.0122
683.7203	0.0024
683.9034	-0.0025
684.0864	-0.0095
684.2694	-0.0071
684.4523	0.0015
684.6353	-0.0026
684.8182	-0.0022
685.0011	-0.0099
685.184	0.0045
685.3669	-0.0021
685.5498	0.0012
685.7326	-0.0017
685.9154	-0.0144
686.0982	0.0052
686.281	0.0013
686.4638	0.0009
686.6465	0.0007
686.8293	-0.0062
687.012	-0.0017
687.1947	-0.0093
687.3774	0.0005
687.56	-0.0063
687.7427	0.0037
687.9253	-0.0036
688.1079	-0.0045
688.2905	0.0085
688.4731	0
688.6556	0.0025
688.8382	0.0008
689.0207	0.005
689.2032	-0.0041
689.3857	-0.0027
689.5681	-0.0021
689.7506	-0.0009
689.933	-0.0009
690.1154	0.0031
690.2978	0.0058
690.4802	0.0044
690.6626	-0.0067
690.8449	-0.0042
691.0272	0.0102
691.2095	-0.0048
691.3918	-0.001
691.5741	0.0027
691.7563	0.0005
691.9386	0.0072
692.1208	-0.0015
692.303	0.0003
692.4852	0.0005
692.6673	0.006
692.8495	-0.0012
693.0316	0.0064
693.2137	0.0039
693.3958	0.0058
693.5778	-0.0068
693.7599	0.0052
693.9419	-0.0016
694.1239	0.003
694.3059	-0.0001
694.4879	0.0086
694.6699	0.0102
694.8518	0.0047
695.0337	-0.0002
695.2157	0.0062
695.3975	-0.0004
695.5794	0.0075
695.7613	0.0056
695.9431	-0.0006
696.1249	0.0059
696.3067	0.0175
696.4885	0.0121
696.6703	-0.0008
696.852	0.0059
697.0337	0.0047
697.2154	0.0122
697.3971	0.0061
697.5788	0.0039
697.7605	0.0022
697.9421	0.0069
698.1237	-0.0008
698.3053	0.0004
698.4869	-0.0014
698.6685	-0.0003
698.85	-0.0016
699.0315	0.0084
699.213	-0.0014
699.3945	0.0021
699.576	0.0062
699.7575	0.0121
699.9389	0.0065
700.1203	-0.0041
700.3017	0.0029
700.4831	-0.0121
700.6645	-0.0036
700.8458	0.0056
701.0271	-0.003
701.2084	0.0017
701.3897	-0.0001
701.571	0.0036
701.7523	-0.0061
701.9335	-0
702.1147	-0.0026
702.2959	0.0002
702.4771	0.0031
702.6583	-0.0028
702.8394	-0.0053
703.0205	0.0013
703.2016	-0.0068
703.3827	-0.0004
703.5638	0.0083
703.7449	0.0036
703.9259	0.0113
704.1069	-0.0053
704.2879	0.0036
704.4689	0.0028
704.6499	-0.0039
704.8308	0.0009
705.0117	0.004
705.1927	0.0026
705.3735	-0.0061
705.5544	-0.0084
705.7353	-0.0018
705.9161	0.0033
706.0969	0.0024
706.2777	0.0049
706.4585	-0.0026
706.6393	0.0045
706.82	0.0009
707.0007	0.0014
707.1815	0.0032
707.3621	0.0062
707.5428	0.0061
707.7235	0.003
707.9041	0.0044
708.0847	-0.0089
708.2653	-0.0012
708.4459	-0.0074
708.6265	-0.0003
708.807	0.0019
708.9875	-0.0023
709.168	-0.0047
709.3485	-0.0031
709.529	-0.0055
709.7095	-0.0121
709.8899	-0.007
710.0703	-0.004
710.2507	0.0044
710.4311	-0.0028
710.6115	-0.0127
710.7918	-0.0028
710.9721	-0.0023
711.1524	-0.0053
711.3327	0.0006
711.513	0.0043
711.6932	0.0024
711.8735	0.0129
712.0537	0.0104
712.2339	0.0052
712.4141	0.0018
712.5942	-0.0012
712.7744	0.0062
712.9545	-0.0066
713.1346	-0.0042
713.3147	0.0023
713.4947	-0.0082
713.6748	-0.0016
713.8548	0.0022
714.0348	0.0015
714.2148	0.0057
714.3948	0.0042
714.5748	0.0009
714.7547	0.0067
714.9346	0.0107
715.1145	-0.0014
715.2944	-0.0061
715.4743	0.0006
715.6541	-0.0035
715.834	0.0093
716.0138	0.0066
716.1936	-0.0103
716.3733	-0.0016
716.5531	-0.0005
716.7328	-0.0024
716.9126	-0.0015
717.0923	0.0011
717.2719	0.0055
717.4516	0.0067
717.6312	0.0074
717.8109	0.0032
717.9905	0.0079
718.1701	0.0054
718.3496	-0.0021
718.5292	0.0064
718.7087	0.0071
718.8882	0.0018
719.0677	0.0102
719.2472	-0.0025
719.4267	0.0032
719.6061	0.0038
719.7856	0.0107
719.965	0.0102
720.1443	0.0007
720.3237	0.0077
720.5031	0.0057
720.6824	-0.0012
720.8617	0.0027
721.041	0.0046
721.2203	0.0209
721.3995	-0.0045
721.5788	0.0068
721.758	0.0116
721.9372	-0.0055
722.1164	-0.0009
722.2956	0.0043
722.4747	0.0052
722.6538	-0.0019
722.8329	0.0082
723.012	-0.0061
723.1911	-0.0002
723.3702	-0.0031
723.5492	0.0019
723.7282	-0.0021
723.9072	0.0012
724.0862	-0.007
724.2652	-0.0093
724.4441	-0.005
724.623	-0.0014
724.8019	-0.0054
724.9808	0.0062
725.1597	-0.0112
725.3385	0.0092
725.5174	-0.0014
725.6962	-0.0057
725.875	0.0014
726.0538	0.01
726.2325	0.0042
726.4112	0.0024
726.59	-0.0014
726.7687	0.0042
726.9474	0.0064
727.126	-0.0022
727.3047	-0.0018
727.4833	0.0047
727.6619	-0.0039
727.8405	-0.0033
728.0191	-0.0001
728.1976	-0.0027
728.3762	-0.0001
728.5547	0.0051
728.7332	-0.0135
728.9116	0.007
729.0901	0.0003
729.2686	-0.0059
729.447	-0.0062
729.6254	-0.0027
729.8038	0.004
729.9821	-0.0084
730.1605	0.004
730.3388	0.0036
730.5171	-0.0008
730.6954	-0.0034
730.8737	0.0003
731.0519	0.0052
731.2302	0.0034
731.4084	0.0117
731.5866	0.0077
731.7648	0.0013
731.9429	-0.0043
732.1211	-0.0065
732.2992	-0.007
732.4773	-0.0048
732.6554	-0.0027
732.8335	-0.003
733.0115	0.0038
733.1896	0.0079
733.3676	-0.003
733.5456	0.0083
733.7235	0.0095
733.9015	-0.0027
734.0794	-0.003
734.2574	-0.0063
734.4353	0
734.6131	0.0092
734.791	0.0019
734.9689	0.0028
735.1467	0.0125
735.3245	-0.0012
735.5023	-0.0052
735.68	-0.0049
735.8578	0.0046
736.0355	-0.0108
736.2132	-0.0123
736.3909	-0.001
736.5686	-0.0168
736.7463	0.0056
736.9239	-0.0038
737.1015	0.0013
737.2791	0.0149
737.4567	0.0058
737.6343	0.0002
737.8118	0.007
737.9894	0.0059
738.1669	-0.0011
738.3444	0.0016
738.5218	0.0037
738.6993	-0.0019
738.8767	-0.0055
739.0541	0.013
739.2315	-0.0063
739.4089	-0.0005
739.5863	0.0062
739.7636	-0.0057
739.9409	0.0017
740.1182	0.0067
740.2955	0.0026
740.4728	0.0026
740.65	-0.001
740.8272	-0.0034
741.0044	-0.0139
741.1816	-0.0022
741.3588	0.0083
741.5359	-0.0003
741.7131	-0.0046
741.8902	0.0087
742.0673	-0.006
742.2444	-0.0042
742.4214	0.0023
742.5985	0.0008
742.7755	-0.006
742.9525	-0.0145
743.1295	0.0026
743.3064	-0.0009
743.4834	0.0102
743.6603	-0.0088
743.8372	-0.0091
744.0141	0.0055
744.191	-0.0014
744.3678	-0.0017
744.5446	-0.0064
744.7215	0.0041
744.8982	-0.0013
745.075	-0.0044
745.2518	-0.001
745.4285	0.0031
745.6052	-0.0105
745.7819	-0.0019
745.9586	-0.0109
746.1353	-0.0111
746.3119	-0.0099
746.4885	-0.0144
746.6651	-0.0134
746.8417	-0.012
747.0183	-0.0089
747.1948	-0.0127
747.3714	-0.0045
747.5479	-0
747.7244	-0.0131
747.9008	-0.0022
748.0773	-0.0042
748.2537	-0.0047
748.4301	-0.0102
748.6065	-0.0065
748.7829	-0.0043
748.9593	-0.0123
749.1356	-0.0027
749.3119	0.005
749.4882	-0.0184
749.6645	0.0029
749.8408	-0.0026
750.017	-0.0023
750.1933	-0.0006
750.3695	-0.0063
750.5457	0.0012
750.7218	0.0013
750.898	0.001
751.0741	0.0002
751.2502	-0.0071
751.4263	-0.0036
751.6024	-0.0009
751.7784	-0.0111
751.9545	-0.0087
752.1305	0.0003
752.3065	-0.0093
752.4825	0.0008
752.6584	-0.0104
752.8344	-0.0135
753.0103	-0.0096
753.1862	-0.0081
753.3621	-0.007
753.5379	-0.0119
753.7138	-0.0012
753.8896	-0.0034
754.0654	-0.0043
754.2412	0.0101
754.417	-0.0023
754.5927	-0.0103
754.7685	-0.0005
754.9442	-0.004
755.1199	0.0041
755.2956	-0.004
755.4712	0.0064
755.6469	0.0081
755.8225	0.0064
755.9981	0.007
756.1736	0.009
756.3492	0.0008
756.5248	-0.0024
756.7003	0.0087
756.8758	0.0082
757.0513	-0.0045
757.2267	-0.0033
757.4022	0.0099
757.5776	0.0065
757.753	0.0075
757.9284	-0.0096
758.1038	0.0046
758.2791	0.0042
758.4545	-0.0084
758.6298	-0.0025
758.8051	-0.0071
758.9803	-0.0157
759.1556	-0.0026
759.3308	-0.0035
759.506	0.0025
759.6812	-0.0054
759.8564	0.0051
760.0316	-0.0015
760.2067	0.0099
760.3819	0.0061
760.557	0.0145
760.732	0.0086
760.9071	-0.0014
761.0821	0.0041
761.2572	0.0123
761.4322	0.0019
761.6072	-0.0087
761.7821	-0.0077
761.9571	0.0068
762.132	0.0009
762.3069	-0.0143
762.4818	-0.0075
762.6567	-0.004
762.8316	0.0053
763.0064	0.004
763.1812	-0.004
763.356	-0.0084
763.5308	0.0034
763.7055	-0.0001
763.8803	-0.0026
764.055	0.0034
764.2297	0.0007
764.4044	-0.0045
764.579	-0.0037
764.7537	-0.0143
764.9283	0.0015
765.1029	-0.0081
765.2775	-0.0032
765.4521	-0.018
765.6266	-0.0122
765.8011	-0.0052
765.9756	-0.013
766.1501	0.0116
766.3246	-0.0091
766.4991	-0.0096
766.6735	-0.0043
766.8479	-0.0074
767.0223	0.0032
767.1967	-0.0013
767.371	-0.0049
767.5454	-0.0069
767.7197	-0.0027
767.894	-0.0028
768.0683	-0.0069
768.2425	-0.0076
768.4168	-0.0013
768.591	0.0034
768.7652	-0.0051
768.9394	-0.0024
769.1135	-0.0061
769.2877	-0.0011
769.4618	0.0013
769.6359	0.0005
769.81	-0.0015
769.984	-0.0093
770.1581	-0.0129
770.3321	-0.0022
770.5061	-0.0122
770.6801	-0.0054
770.8541	0.0021
771.028	0.0114
771.202	-0.0144
771.3759	0.0116
771.5498	-0.0068
771.7236	-0.0036
771.8975	0.0023
772.0713	0.0016
772.2451	0.0038
772.4189	0.0067
772.5927	0.0047
772.7665	0.0073
772.9402	0.0064
773.1139	-0.0111
773.2876	-0.0114
773.4613	-0.0028
773.635	-0.0003
773.8086	-0.0215
773.9822	-0.0046
774.1558	-0.0045
774.3294	-0.0138
774.503	-0.0025
774.6765	0.0029
774.8501	-0.0042
775.0236	0.0028
775.1971	0.0062
775.3705	-0.0051
775.544	0.0036
775.7174	-0.0087
775.8908	-0.0023
776.0642	-0.0167
776.2376	-0.009
776.4109	-0.0019
776.5843	-0.0067
776.7576	0.0154
776.9309	0.0038
777.1041	0.0077
777.2774	0.0078
777.4506	0.0073
777.6238	-0.0134
777.797	-0.0013
777.9702	-0.0072
778.1434	0.0023
778.3165	-0.0218
778.4896	-0.0086
778.6627	-0.0008
778.8358	-0.0161
779.0089	-0.0094
779.1819	-0.0142
779.3549	0.0109
779.5279	0.0021
779.7009	-0.0095
779.8739	-0.0013
780.0468	0.0035
780.2197	0.0036
780.3926	-0.0085
780.5655	-0.0078
780.7384	-0.01
780.9112	0.0053
781.0841	-0.0003
781.2569	-0.0008
781.4297	0.0025
781.6024	-0.0088
781.7752	-0.0043
781.9479	-0.0039
782.1206	-0.0052
782.2933	-0.0128
782.466	0.0126
782.6386	-0.0023
782.8113	-0.0086
782.9839	0.0014
783.1565	0.0074
783.329	0.0146
783.5016	0.0051
783.6741	0.0094
783.8466	0.0014
784.0191	0.0155
784.1916	0.0089
784.3641	-0.0029
784.5365	-0.0017
784.7089	-0.0038
784.8813	-0.0065
785.0537	-0.0012
785.2261	-0.007
785.3984	-0.0076
785.5707	0.0055
785.743	-0.0034
785.9153	0.0006
786.0876	-0.0033
786.2598	-0.0077
786.432	-0.0116
786.6042	0.0035
786.7764	-0.0161
786.9486	-0.0139
787.1207	-0.0132
787.2928	-0.0015
787.4649	0.0115
787.637	0.0041
787.8091	0.0027
787.9811	0.0021
788.1532	0.0137
788.3252	-0.0007
788.4972	-0.004
788.6691	0.0078
788.8411	0.0002
789.013	0.0009
789.1849	0.0095
789.3568	-0.0032
789.5287	-0.001
789.7005	-0.0028
789.8723	-0.005
790.0442	0.014
790.2159	0.0025
790.3877	0.0085
790.5595	-0.0091
790.7312	-0.0048
790.9029	-0.005
791.0746	-0.0053
791.2463	-0.0076
791.4179	-0.0013
791.5896	-0.0083
791.7612	0.0101
791.9328	-0.0038
792.1044	-0.0157
792.2759	-0.0128
792.4474	-0.0047
792.619	-0.0058
792.7905	0.0041
792.9619	0.0005
793.1334	-0.0027
793.3048	0.007
793.4762	0.0099
793.6476	-0.0023
793.819	-0.0125
793.9904	0.0068
794.1617	-0.0092
794.333	-0.0071
794.5043	-0.0118
794.6756	0.0015
794.8469	0.0009
795.0181	0.0009
795.1893	-0.0031
795.3605	0.0123
795.5317	-0.0065
795.7029	-0.0011
795.874	0.0074
796.0452	-0.0008
796.2163	0.006
796.3873	0.0083
796.5584	0.0113
796.7294	0.0015
796.9005	0.0178
797.0715	0.0169
797.2425	-0.0063
797.4134	-0.0068
797.5844	0.0168
797.7553	-0.0076
797.9262	-0.0097
798.0971	-0.0144
798.2679	0.0016
798.4388	-0.011
798.6096	-0.0083
798.7804	0.0025
798.9512	-0.018
799.122	-0.015
799.2927	0.0041
799.4635	0.0032
799.6342	-0.0107
799.8049	-0.0258
799.9755	-0.0093
800.1462	0.0026
800.3168	0.0003
800.4874	-0.0028
800.658	0.0189
800.8286	-0.009
800.9991	0.0073
801.1696	0.0038
801.3402	0.0151
801.5106	-0.0132
801.6811	-0.0017
801.8516	0.0114
802.022	0.0083
802.1924	0.0069
802.3628	0.0079
802.5332	0.0046
802.7035	0.0147
802.8739	-0.002
803.0442	-0.004
803.2145	-0.0022
803.3847	-0.0255
803.555	0.0128
803.7252	-0.0043
803.8954	-0.033
804.0656	-0.0001
804.2358	-0.0064
804.4059	-0.0115
804.5761	0.0055
804.7462	-0.0118
804.9163	-0.0132
805.0864	-0.0104
805.2564	-0.0193
805.4264	0.0012
805.5965	-0.0279
805.7665	0.0072
805.9364	0.0172
806.1064	0.0241
806.2763	0.0138
806.4462	0.012
806.6161	0.0007
806.786	0.0115
806.9559	-0.0146
807.1257	0.0076
807.2955	0.0017
807.4653	-0.0103
807.6351	-0.0002
807.8048	-0.0172
807.9746	0.0099
808.1443	-0.0018
808.314	0.0027
808.4837	-0.0013
808.6533	-0.0011
808.8229	0.0168
808.9926	0.0041
809.1622	-0.0085
809.3317	-0.006
809.5013	-0.0024
809.6708	0.0097
809.8403	-0.0029
810.0098	0.007
810.1793	0.0093
810.3488	-0.0039
810.5182	-0.0159
810.6876	-0.0126
810.857	0.0055
811.0264	0.0035
811.1958	-0.0058
811.3651	-0.0015
811.5344	-0.0085
811.7037	-0.0133
811.873	-0.0048
812.0422	-0.0126
812.2115	-0.001
812.3807	-0.0302
812.5499	-0.0023
812.7191	0.0041
812.8882	-0.0226
813.0574	-0.0132
813.2265	-0.004
813.3956	0.005
813.5646	0.0001
813.7337	-0.0097
813.9027	-0.0048
814.0718	0.0076
814.2407	0.006
814.4097	-0.019
814.5787	-0.0002
814.7476	-0.013
814.9165	-0.0224
815.0854	-0.0181
815.2543	-0.0085
815.4232	-0.013
815.592	-0.0013
815.7608	-0.002
815.9296	-0.0043
816.0984	-0.0043
816.2671	-0.0043
816.4359	-0.0147
816.6046	-0.0198
816.7733	-0.0116
816.942	-0.0375
817.1106	-0.0044
817.2793	-0.0061
817.4479	-0.006
817.6165	-0.0039
817.785	0.0014
817.9536	-0.0048
818.1221	-0.0191
818.2906	0.0036
818.4591	-0.0134
818.6276	-0.0093
818.7961	-0.0132
818.9645	0.0061
819.1329	0.013
819.3013	0.0135
819.4697	0.0033
819.638	-0.0053
819.8064	0.008
819.9747	-0.0159
820.143	0.014
820.3113	-0.0075
820.4795	-0.0119
820.6477	0.0206
820.816	-0.0016
820.9842	0.0155
821.1523	-0.007
821.3205	0.0186
821.4886	0.0205
821.6567	-0.0027
821.8248	0.0032
821.9929	0.017
822.1609	-0.0095
822.329	0.0132
822.497	0.0133
822.665	0.0199
822.833	0.0075
823.0009	0.0127
823.1688	0.0096
823.3367	0.0406
823.5046	0.0005
823.6725	0.0228
823.8404	0.0013
824.0082	0.0084
824.176	-0.018
824.3438	-0.0159
824.5116	-0.0239
824.6793	0.0264
824.847	-0.0068
825.0147	0.0075
825.1824	-0.0023
825.3501	0.0013
825.5177	-0.0245
825.6854	-0.0266
825.853	-0.0011
826.0206	-0.0127
826.1881	-0.0075
826.3557	-0.0211
826.5232	-0.011
826.6907	-0.0273
826.8582	-0.024
827.0257	-0.0289
827.1931	-0.0136
827.3605	0.0093
827.528	-0.004
827.6953	-0.0119
827.8627	-0.0154
828.03	0.0369
828.1974	0.0063
828.3647	-0.0317
828.532	0.0046
828.6992	-0.0149
828.8665	0.0074
829.0337	-0.0152
829.2009	0.018
829.3681	0.0069
829.5352	0.0327
829.7024	-0.0125
829.8695	-0.0306
830.0366	0.0276
830.2037	0.0163
830.3707	0.0459
830.5378	0.0056
830.7048	0.0353
830.8718	-0.0036
831.0388	-0.0265
831.2057	0.0072
831.3727	0.0515
831.5396	-0.0257
831.7065	0.0019
831.8734	0.0029
832.0402	-0.0336
832.2071	0.0076
832.3739	-0.0249
832.5407	0.0074
832.7075	-0.0306
832.8742	-0.0402
833.041	-0.0313
833.2077	0.002
833.3744	-0.0114
833.541	-0.0261
833.7077	-0.0323
833.8743	-0.0457
834.0409	0.0039
834.2075	-0.0166
834.3741	0.0102
834.5407	0.0002
834.7072	-0.0042
834.8737	-0.0116
835.0402	-0.0252
835.2067	0.0167
835.3731	0.0076
835.5395	0.0139
835.706	0.0167
835.8723	-0.0146
836.0387	0.0036
836.2051	0.0101
836.3714	-0.0333
836.5377	0.0135
836.704	-0.0179
836.8703	0.0216
837.0365	0.0061
837.2027	-0.008
837.3689	0.008
837.5351	-0.0109
837.7013	-0.0277
837.8674	-0.0707
838.0335	-0.0303
838.1997	-0.0038
838.3657	-0.0457
838.5318	-0.012
838.6978	0.0363
838.8639	0.0184
839.0299	-0.0297
839.1958	-0.0144
839.3618	-0.0048
839.5277	0.0011
839.6937	-0.0119
839.8596	-0.0227
840.0254	-0.0293
840.1913	-0.0103
840.3571	0.0029
840.523	0.0074
840.6888	0.0041
840.8545	-0.0295
841.0203	0.0164
841.186	0.0232
841.3517	-0.0241
841.5174	0.0136
841.6831	-0.0537
841.8488	-0.0033
842.0144	-0.028
842.18	0.012
842.3456	0.0098
842.5112	-0.031
842.6767	-0.0462
842.8422	-0.0346
843.0077	0.0313
843.1732	-0.0179
843.3387	-0.025
843.5042	-0.0408
843.6696	0.0089
843.835	0.0352
844.0004	0.0223
844.1657	0.0095
844.3311	-0.032
844.4964	-0.0099
844.6617	0.0163
844.827	-0.0008
844.9923	-0.0075
845.1575	-0.009
845.3227	0.0027
845.4879	0.0038
845.6531	-0.0429
845.8183	-0.0599
845.9834	-0.0274
846.1485	0.0036
846.3136	-0.0267
846.4787	-0.1054
846.6438	0.0378
846.8088	0.0314
846.9738	-0.0692
847.1388	-0.0065
847.3038	-0.104
847.4687	-0.1627
847.6337	0.0646
847.7986	0.0496
847.9635	-0.0168
848.1284	0.0272
848.2932	-0.0177
848.458	-0.0447
848.6228	0.1069
848.7876	0.0311
848.9524	0.0146
849.1172	-0.0719
849.2819	0.0369
849.4466	-0.059
849.6113	-0.1083
849.7759	-0.0112
849.9406	-0.0228
850.1052	-0.011
850.2698	-0.0179
850.4344	-0.037
850.599	-0.0689
850.7635	0.0589
850.928	0.104
851.0925	-0.0145
851.257	0.0954
851.4215	-0.0315
851.5859	0.0096
851.7503	0.0458
851.9147	-0.0492
852.0791	-0.0424
852.2434	-0.0179
852.4078	-0.0221
852.5721	0.0611
852.7364	-0.0074
852.9007	-0.1874
853.0649	-0.0205
853.2291	0.0239
853.3934	0.0008
853.5575	-0.0261
853.7217	-0.1457
853.8859	-0.2592
854.05	-0.1771
854.2141	0.141
854.3782	-0.0793
854.5423	-0.0731
854.7063	0.0292
854.8703	0.0208
855.0343	0.0304
855.1983	-0.0739
855.3623	0.0962
855.5262	0.0891
855.6901	-0.0088
855.854	0.0028
856.0179	0.1199
856.1818	-0.0354
856.3456	0.0328
856.5094	-0.0608
856.6732	-0.0527
856.837	0.0086
857.0008	0.1473
857.1645	-0.0424
857.3282	-0.1577
857.4919	0.0555
857.6556	-0.0416
857.8192	0.0965
857.9828	0.0273
858.1465	-0.1737
858.31	-0.1901
858.4736	-0.1748
858.6372	-0.3067
858.8007	-0.1468
858.9642	-0.0853
859.1277	-0.1334
859.2911	0.0402
859.4546	-0.0603
859.618	-0.5236
859.7814	-0.0615
859.9448	0.062
860.1081	-0.0932
860.2715	0.1355
860.4348	-0.2005
860.5981	-0.0215
860.7614	0.095
860.9246	-0.2135
861.0879	-0.0808
861.2511	0.0041
861.4143	-0.0742
861.5774	0.1419
861.7406	-0.195
861.9037	-0.0819
862.0668	-0.2267
862.2299	-0.0456
862.393	-0.4975
862.556	-0.032
862.7191	-0.4462
862.8821	0.0865
863.0451	-0.1178
863.208	-0.0028
863.371	-0.1259
863.5339	-0.2301
863.6968	0.1684
863.8597	-0.0601
864.0225	-0.1393
864.1854	-0.1613
864.3482	0.0984
864.511	0.1052
864.6737	0.1145
864.8365	-0.0856
864.9992	-0.1425
865.1619	-0.5635
865.3246	1.5587
865.4873	0.089
865.65	-0.2478
865.8126	0.0106
865.9752	-0.0297
866.1378	-0.3272
866.3004	1.2304
866.4629	0.3662
866.6254	-0.2472
866.7879	0.0333
866.9504	-0.2252
867.1129	-0
867.2753	-0.1194
867.4377	0.0868
867.6001	-0.4736
867.7625	0.039
867.9249	-0
868.0872	-0.253
868.2495	0.002
868.4118	-0.2208
868.5741	-0.2734
868.7363	-0.1867
868.8986	-0.3725
869.0608	-0.2229
869.223	0.1634
869.3851	-0
869.5473	0.4838
869.7094	0.1732
869.8715	-0.4568
870.0336	-0.9126
870.1957	-0.8306
870.3577	-1.4624
870.5197	-0.2811
870.6817	-0.3162
870.8437	-0.1042
871.0057	-0
871.1676	-0.1924
871.3295	-0.4553
871.4914	-0
871.6533	-0.3815
871.8151	-0.3207
871.977	0.0426
872.1388	-0
872.3006	-0
872.4623	-0
872.6241	0.8744
872.7858	0.9238
872.9475	-0.0572
873.1092	-0.3441
873.2709	-0.388
873.4325	0.7802
873.5941	-0.412
873.7557	-0
873.9173	-0
874.0789	-0.3643
874.2404	-0
874.4019	0.0878
874.5634	-0
874.7249	-0.0493
874.8863	-0.0073
875.0478	0.3933
875.2092	-0
875.3706	0.2865
875.5319	-0.513
875.6933	0.2391
875.8546	0.3364
876.0159	2.0755
876.1772	-0
876.3385	-0
876.4997	0.0901
876.6609	0.0297
876.8221	-0
876.9833	-0
877.1445	-0
877.3056	0.1021
877.4667	-0
877.6278	-0
877.7889	-0.6488
877.9499	-0
878.111	-0.1214
878.272	-0
878.433	-0.2562
878.5939	-0
878.7549	0.2834
878.9158	-0
879.0767	-0
879.2376	0.7655
879.3984	-0
879.5593	-0
879.7201	0.029
879.8809	-0.8306
880.0417	-0.4707
880.2024	0.5534
880.3632	-0.4301
880.5239	0.0777
880.6846	-0
880.8452	-2.5763
881.0059	-1.0864
881.1665	2.3324
881.3271	2.1903
881.4877	-0.5707
881.6483	-0.7246
881.8088	-0.4794
881.9693	-0
882.1298	-0
882.2903	-0
