Data from MonoPyChalIsomerACN10uM350nmA_Absorbance_14-35-37-415.txt Node
Date: Fri Jul 05 14:35:37 BST 2024
User: LASERRRRR
Spectrometer: FLMT03099
Trigger mode: 0
Integration Time (sec): 1.000000E-1
Scans to average: 1
Electric dark correction enabled: true
Nonlinearity correction enabled: false
Boxcar width: 0
XAxis mode: Wavelengths
Number of Pixels in Spectrum: 3648
>>>>>Begin Spectral Data<<<<<
179.3399	-0.1988
179.5586	-0.1988
179.7771	-0.1988
179.9957	0.7088
180.2143	-0
180.4329	0.6876
180.6514	0.0703
180.8699	0.0912
181.0885	-0.0546
181.307	0.4889
181.5255	-0.1192
181.744	-0.6544
181.9625	-0
182.181	-1.0982
182.3994	0.1032
182.6179	-0
182.8363	0.2781
183.0547	-0.3558
183.2732	0.1467
183.4916	0.2054
183.71	0.3632
183.9284	0.1546
184.1467	0.0768
184.3651	-0.0232
184.5835	0.0185
184.8018	0.0419
185.0201	0.123
185.2385	-0.039
185.4568	0.1247
185.6751	0.1189
185.8934	0.1335
186.1117	0.06
186.3299	-0.0108
186.5482	0.1292
186.7664	0.0896
186.9847	0.0745
187.2029	0.2204
187.4211	0.1969
187.6393	0.181
187.8575	0.0638
188.0757	0.3761
188.2939	0.0392
188.512	1.2331
188.7302	0.1365
188.9483	0.219
189.1665	0.1393
189.3846	0.3527
189.6027	0.2366
189.8208	0.3297
190.0389	0.1906
190.257	0.1189
190.475	0.4663
190.6931	0.594
190.9111	0.894
191.1292	0.2161
191.3472	0.2968
191.5652	0.3669
191.7832	0.2368
192.0012	0.564
192.2192	0.3924
192.4371	0.5352
192.6551	0.2286
192.873	0.3657
193.091	0.5842
193.3089	0.6342
193.5268	0.585
193.7447	0.6378
193.9626	0.4779
194.1805	0.5551
194.3984	0.8862
194.6162	0.6904
194.8341	0.5814
195.0519	0.7038
195.2697	0.8313
195.4875	0.6751
195.7054	0.6531
195.9231	0.6015
196.1409	0.6333
196.3587	0.5845
196.5765	0.7667
196.7942	0.4449
197.012	0.4485
197.2297	0.7352
197.4474	0.6802
197.6651	0.532
197.8828	0.5874
198.1005	0.6384
198.3182	0.524
198.5358	0.7746
198.7535	0.6555
198.9711	0.5923
199.1888	0.5658
199.4064	0.8415
199.624	0.4563
199.8416	0.5557
200.0592	0.5603
200.2767	0.7399
200.4943	0.6324
200.7119	0.7776
200.9294	0.7412
201.1469	0.5806
201.3645	0.5304
201.582	0.598
201.7995	0.5544
202.017	0.6478
202.2344	0.5995
202.4519	0.7974
202.6694	0.7426
202.8868	0.6256
203.1042	0.8212
203.3217	0.8756
203.5391	0.7427
203.7565	0.5449
203.9739	0.626
204.1913	0.5966
204.4086	0.5838
204.626	0.7386
204.8433	0.7927
205.0607	0.6654
205.278	0.6302
205.4953	0.7049
205.7126	0.6433
205.9299	0.7
206.1472	0.666
206.3644	0.6463
206.5817	0.6506
206.7989	0.7322
207.0162	0.6583
207.2334	0.7411
207.4506	0.6454
207.6678	0.6526
207.885	0.5722
208.1022	0.7469
208.3194	0.7314
208.5365	0.6687
208.7537	0.6474
208.9708	0.5249
209.1879	0.7082
209.405	0.7816
209.6222	0.7918
209.8392	0.6054
210.0563	0.6305
210.2734	0.6933
210.4905	0.6375
210.7075	0.6458
210.9245	0.5842
211.1416	0.6841
211.3586	0.6474
211.5756	0.5673
211.7926	0.5869
212.0096	0.5738
212.2265	0.5995
212.4435	0.5666
212.6604	0.568
212.8774	0.6183
213.0943	0.56
213.3112	0.5328
213.5281	0.5291
213.745	0.5593
213.9619	0.5058
214.1788	0.4936
214.3956	0.4866
214.6125	0.4748
214.8293	0.423
215.0461	0.4325
215.2629	0.4488
215.4798	0.4919
215.6965	0.4582
215.9133	0.4279
216.1301	0.4391
216.3469	0.4225
216.5636	0.4198
216.7803	0.4008
216.9971	0.3923
217.2138	0.3764
217.4305	0.3563
217.6472	0.3546
217.8639	0.3526
218.0805	0.3753
218.2972	0.3102
218.5138	0.3276
218.7305	0.3057
218.9471	0.313
219.1637	0.273
219.3803	0.2654
219.5969	0.3061
219.8135	0.2663
220.0301	0.2785
220.2466	0.267
220.4632	0.2726
220.6797	0.256
220.8962	0.2063
221.1127	0.2613
221.3292	0.2467
221.5457	0.2302
221.7622	0.2177
221.9787	0.2482
222.1951	0.2464
222.4116	0.2677
222.628	0.2611
222.8444	0.2575
223.0608	0.26
223.2772	0.2534
223.4936	0.2515
223.71	0.2581
223.9264	0.2599
224.1427	0.2514
224.3591	0.2306
224.5754	0.2517
224.7917	0.2609
225.008	0.2702
225.2243	0.2641
225.4406	0.2817
225.6569	0.2696
225.8732	0.2681
226.0894	0.2662
226.3057	0.2757
226.5219	0.2936
226.7381	0.2777
226.9543	0.2773
227.1705	0.2852
227.3867	0.2892
227.6029	0.295
227.8191	0.2926
228.0352	0.322
228.2513	0.3109
228.4675	0.3153
228.6836	0.3179
228.8997	0.3135
229.1158	0.3202
229.3319	0.3103
229.548	0.3157
229.764	0.3083
229.9801	0.3367
230.1961	0.3249
230.4121	0.328
230.6282	0.3364
230.8442	0.3229
231.0602	0.3329
231.2761	0.3421
231.4921	0.3304
231.7081	0.361
231.924	0.3452
232.14	0.3733
232.3559	0.3553
232.5718	0.3684
232.7877	0.3563
233.0036	0.3406
233.2195	0.3523
233.4353	0.3607
233.6512	0.3695
233.867	0.3691
234.0829	0.3926
234.2987	0.3625
234.5145	0.3672
234.7303	0.3753
234.9461	0.3972
235.1619	0.3834
235.3776	0.4011
235.5934	0.3903
235.8091	0.3863
236.0249	0.3741
236.2406	0.3737
236.4563	0.379
236.672	0.3759
236.8877	0.3806
237.1034	0.3995
237.319	0.3938
237.5347	0.4051
237.7503	0.3948
237.966	0.4147
238.1816	0.4044
238.3972	0.4261
238.6128	0.4136
238.8284	0.4129
239.0439	0.433
239.2595	0.3965
239.475	0.4276
239.6906	0.4266
239.9061	0.4067
240.1216	0.393
240.3371	0.4218
240.5526	0.3889
240.7681	0.4101
240.9836	0.4216
241.199	0.3959
241.4145	0.4028
241.6299	0.3926
241.8453	0.3703
242.0607	0.384
242.2761	0.3574
242.4915	0.3762
242.7069	0.3812
242.9223	0.3489
243.1376	0.3615
243.353	0.3405
243.5683	0.3496
243.7836	0.3348
243.9989	0.3216
244.2142	0.3138
244.4295	0.3271
244.6448	0.3011
244.86	0.2981
245.0753	0.2896
245.2905	0.2809
245.5057	0.2852
245.721	0.2749
245.9362	0.2696
246.1514	0.2833
246.3665	0.261
246.5817	0.2798
246.7969	0.2481
247.012	0.2477
247.2271	0.2396
247.4423	0.2318
247.6574	0.243
247.8725	0.2305
248.0876	0.2376
248.3026	0.2291
248.5177	0.2293
248.7328	0.2216
248.9478	0.207
249.1628	0.2222
249.3779	0.2125
249.5929	0.2049
249.8079	0.2189
250.0228	0.2145
250.2378	0.2057
250.4528	0.2016
250.6677	0.1864
250.8827	0.1969
251.0976	0.1978
251.3125	0.2011
251.5274	0.1726
251.7423	0.1876
251.9572	0.1909
252.172	0.1815
252.3869	0.1702
252.6017	0.1824
252.8166	0.1652
253.0314	0.1807
253.2462	0.1659
253.461	0.1852
253.6758	0.1826
253.8906	0.1762
254.1053	0.1721
254.3201	0.1728
254.5348	0.1967
254.7496	0.1809
254.9643	0.1715
255.179	0.1792
255.3937	0.1693
255.6083	0.1718
255.823	0.1697
256.0377	0.1674
256.2523	0.1777
256.467	0.1622
256.6816	0.1811
256.8962	0.1701
257.1108	0.163
257.3254	0.1825
257.54	0.1594
257.7545	0.1743
257.9691	0.175
258.1836	0.1685
258.3981	0.1802
258.6127	0.1672
258.8272	0.168
259.0417	0.1778
259.2561	0.1592
259.4706	0.1697
259.6851	0.164
259.8995	0.1616
260.114	0.1643
260.3284	0.1699
260.5428	0.1539
260.7572	0.1698
260.9716	0.1731
261.186	0.1694
261.4003	0.1677
261.6147	0.1709
261.829	0.165
262.0433	0.1585
262.2577	0.1708
262.472	0.1722
262.6863	0.1569
262.9005	0.1754
263.1148	0.1684
263.3291	0.1438
263.5433	0.1664
263.7576	0.1698
263.9718	0.1714
264.186	0.1636
264.4002	0.1661
264.6144	0.1644
264.8286	0.1747
265.0427	0.1713
265.2569	0.1607
265.471	0.1624
265.6851	0.1644
265.8993	0.1631
266.1134	0.1685
266.3275	0.1643
266.5415	0.1638
266.7556	0.1746
266.9697	0.1621
267.1837	0.1646
267.3978	0.1606
267.6118	0.1743
267.8258	0.1791
268.0398	0.1543
268.2538	0.1633
268.4677	0.1698
268.6817	0.1563
268.8957	0.1613
269.1096	0.1538
269.3235	0.1773
269.5374	0.1598
269.7514	0.1589
269.9652	0.1682
270.1791	0.136
270.393	0.1558
270.6068	0.1514
270.8207	0.1537
271.0345	0.1455
271.2483	0.1616
271.4622	0.1418
271.676	0.1573
271.8897	0.138
272.1035	0.147
272.3173	0.1431
272.531	0.149
272.7448	0.1455
272.9585	0.1414
273.1722	0.141
273.3859	0.1521
273.5996	0.1384
273.8133	0.1573
274.0269	0.1376
274.2406	0.1417
274.4542	0.1453
274.6679	0.1306
274.8815	0.1483
275.0951	0.1531
275.3087	0.1579
275.5223	0.1474
275.7358	0.1445
275.9494	0.147
276.1629	0.147
276.3765	0.1553
276.59	0.149
276.8035	0.1585
277.017	0.1521
277.2305	0.1332
277.444	0.1408
277.6574	0.1426
277.8709	0.1469
278.0843	0.1448
278.2978	0.148
278.5112	0.1537
278.7246	0.1381
278.938	0.1468
279.1513	0.1552
279.3647	0.1483
279.5781	0.1397
279.7914	0.1565
280.0047	0.1597
280.2181	0.1591
280.4314	0.1537
280.6447	0.1648
280.8579	0.1641
281.0712	0.1456
281.2845	0.1509
281.4977	0.149
281.711	0.1601
281.9242	0.1562
282.1374	0.1468
282.3506	0.1565
282.5638	0.1554
282.7769	0.1525
282.9901	0.158
283.2033	0.1636
283.4164	0.1693
283.6295	0.1498
283.8426	0.1498
284.0557	0.1538
284.2688	0.1696
284.4819	0.1594
284.695	0.1558
284.908	0.157
285.1211	0.1555
285.3341	0.151
285.5471	0.1609
285.7601	0.1564
285.9731	0.161
286.1861	0.1483
286.3991	0.1578
286.612	0.1755
286.825	0.1608
287.0379	0.1693
287.2508	0.1625
287.4637	0.1705
287.6766	0.1618
287.8895	0.1721
288.1024	0.177
288.3152	0.1635
288.5281	0.1574
288.7409	0.1678
288.9538	0.1697
289.1666	0.1615
289.3794	0.1623
289.5922	0.1574
289.8049	0.1696
290.0177	0.162
290.2304	0.1687
290.4432	0.178
290.6559	0.1795
290.8686	0.1624
291.0813	0.1674
291.294	0.1684
291.5067	0.1684
291.7194	0.1678
291.932	0.1789
292.1447	0.1724
292.3573	0.1606
292.5699	0.1683
292.7825	0.1682
292.9951	0.1549
293.2077	0.1613
293.4203	0.1635
293.6328	0.1592
293.8454	0.1824
294.0579	0.1613
294.2704	0.1655
294.4829	0.1556
294.6954	0.1657
294.9079	0.1653
295.1204	0.1617
295.3328	0.1607
295.5453	0.162
295.7577	0.1728
295.9701	0.1616
296.1825	0.1599
296.3949	0.1683
296.6073	0.1591
296.8197	0.164
297.0321	0.1836
297.2444	0.1533
297.4567	0.1578
297.6691	0.1667
297.8814	0.1596
298.0937	0.1616
298.306	0.1628
298.5182	0.1627
298.7305	0.1668
298.9428	0.1542
299.155	0.1683
299.3672	0.1632
299.5794	0.1536
299.7916	0.1596
300.0038	0.1747
300.216	0.168
300.4282	0.166
300.6403	0.1622
300.8525	0.1697
301.0646	0.1676
301.2767	0.1655
301.4888	0.1673
301.7009	0.1698
301.913	0.1735
302.125	0.1749
302.3371	0.1673
302.5491	0.1494
302.7612	0.175
302.9732	0.1708
303.1852	0.1662
303.3972	0.1584
303.6092	0.1581
303.8211	0.16
304.0331	0.1615
304.245	0.1554
304.457	0.1467
304.6689	0.1557
304.8808	0.1639
305.0927	0.1453
305.3046	0.1493
305.5164	0.1524
305.7283	0.15
305.9401	0.1529
306.152	0.1503
306.3638	0.1585
306.5756	0.1427
306.7874	0.1449
306.9992	0.1552
307.2109	0.141
307.4227	0.1379
307.6344	0.1373
307.8462	0.1464
308.0579	0.128
308.2696	0.1439
308.4813	0.1336
308.693	0.1393
308.9046	0.1354
309.1163	0.1304
309.328	0.1271
309.5396	0.1213
309.7512	0.1276
309.9628	0.1128
310.1744	0.1214
310.386	0.1223
310.5976	0.109
310.8091	0.1078
311.0207	0.1114
311.2322	0.1089
311.4437	0.1104
311.6552	0.1065
311.8667	0.1175
312.0782	0.099
312.2897	0.108
312.5012	0.1143
312.7126	0.1085
312.924	0.1096
313.1355	0.1166
313.3469	0.1073
313.5583	0.109
313.7696	0.1134
313.981	0.1
314.1924	0.1033
314.4037	0.1079
314.6151	0.1119
314.8264	0.1014
315.0377	0.1019
315.249	0.1094
315.4603	0.1183
315.6716	0.1046
315.8828	0.1006
316.0941	0.0992
316.3053	0.1086
316.5165	0.0988
316.7277	0.0976
316.9389	0.1093
317.1501	0.0951
317.3613	0.1009
317.5724	0.0936
317.7836	0.1059
317.9947	0.1023
318.2058	0.1
318.417	0.0985
318.6281	0.0887
318.8391	0.1011
319.0502	0.0977
319.2613	0.1018
319.4723	0.1024
319.6834	0.1062
319.8944	0.0963
320.1054	0.1022
320.3164	0.0995
320.5274	0.0964
320.7383	0.1046
320.9493	0.1004
321.1602	0.1039
321.3712	0.0891
321.5821	0.0962
321.793	0.1059
322.0039	0.1033
322.2148	0.099
322.4257	0.1057
322.6365	0.1107
322.8474	0.1121
323.0582	0.0908
323.269	0.0966
323.4798	0.1162
323.6906	0.1031
323.9014	0.097
324.1122	0.1174
324.3229	0.1075
324.5337	0.1176
324.7444	0.095
324.9551	0.1106
325.1658	0.1053
325.3765	0.1114
325.5872	0.1189
325.7979	0.0992
326.0085	0.1067
326.2192	0.1079
326.4298	0.1117
326.6404	0.103
326.851	0.1026
327.0616	0.1062
327.2722	0.1118
327.4828	0.1141
327.6933	0.107
327.9039	0.1205
328.1144	0.1154
328.3249	0.1101
328.5354	0.0911
328.7459	0.1049
328.9564	0.1028
329.1669	0.103
329.3773	0.1059
329.5878	0.1076
329.7982	0.1165
330.0086	0.0992
330.219	0.1127
330.4294	0.1082
330.6398	0.1104
330.8502	0.1067
331.0605	0.0985
331.2708	0.1081
331.4812	0.1142
331.6915	0.1079
331.9018	0.1097
332.1121	0.1045
332.3224	0.1081
332.5326	0.1102
332.7429	0.1112
332.9531	0.1262
333.1633	0.1121
333.3735	0.1037
333.5837	0.1092
333.7939	0.0997
334.0041	0.1198
334.2143	0.1124
334.4244	0.1161
334.6346	0.1021
334.8447	0.1205
335.0548	0.1023
335.2649	0.1133
335.475	0.1172
335.685	0.0942
335.8951	0.1228
336.1051	0.1057
336.3152	0.1237
336.5252	0.0958
336.7352	0.1094
336.9452	0.1184
337.1552	0.1122
337.3652	0.0963
337.5751	0.1064
337.7851	0.1118
337.995	0.1
338.2049	0.1149
338.4148	0.1138
338.6247	0.117
338.8346	0.1003
339.0445	0.1103
339.2543	0.1225
339.4642	0.1209
339.674	0.1124
339.8838	0.1195
340.0936	0.1074
340.3034	0.1303
340.5132	0.1192
340.7229	0.115
340.9327	0.1168
341.1424	0.109
341.3522	0.135
341.5619	0.1289
341.7716	0.1156
341.9813	0.1348
342.1909	0.1162
342.4006	0.131
342.6102	0.1318
342.8199	0.1179
343.0295	0.1267
343.2391	0.1241
343.4487	0.1455
343.6583	0.1259
343.8679	0.1312
344.0774	0.1364
344.287	0.1349
344.4965	0.1167
344.706	0.131
344.9155	0.1211
345.125	0.1358
345.3345	0.1314
345.544	0.1269
345.7534	0.1243
345.9629	0.1354
346.1723	0.1375
346.3817	0.1331
346.5911	0.1189
346.8005	0.1325
347.0099	0.129
347.2193	0.1353
347.4286	0.131
347.638	0.131
347.8473	0.141
348.0566	0.1331
348.2659	0.1429
348.4752	0.1403
348.6845	0.1308
348.8937	0.1499
349.103	0.1431
349.3122	0.1283
349.5214	0.1176
349.7306	0.1408
349.9398	0.1338
350.149	0.1421
350.3582	0.1221
350.5674	0.1485
350.7765	0.1266
350.9856	0.1385
351.1948	0.1476
351.4039	0.1323
351.613	0.1381
351.822	0.1441
352.0311	0.1484
352.2402	0.1451
352.4492	0.155
352.6582	0.1618
352.8672	0.1471
353.0762	0.147
353.2852	0.1502
353.4942	0.1421
353.7032	0.1527
353.9121	0.1534
354.1211	0.1621
354.33	0.1646
354.5389	0.1536
354.7478	0.1641
354.9567	0.1622
355.1655	0.1357
355.3744	0.1621
355.5833	0.15
355.7921	0.1708
356.0009	0.1621
356.2097	0.1677
356.4185	0.1631
356.6273	0.1565
356.8361	0.1659
357.0448	0.1537
357.2536	0.1555
357.4623	0.1635
357.671	0.169
357.8797	0.1743
358.0884	0.1573
358.2971	0.1647
358.5057	0.1749
358.7144	0.1667
358.923	0.1765
359.1316	0.1599
359.3402	0.1675
359.5488	0.1736
359.7574	0.1703
359.966	0.1667
360.1746	0.1768
360.3831	0.182
360.5916	0.1757
360.8002	0.1727
361.0087	0.1684
361.2172	0.1725
361.4256	0.1857
361.6341	0.1889
361.8426	0.1919
362.051	0.1832
362.2594	0.1742
362.4678	0.1789
362.6762	0.2004
362.8846	0.1827
363.093	0.1837
363.3014	0.1719
363.5097	0.179
363.718	0.1986
363.9264	0.1845
364.1347	0.1877
364.343	0.2127
364.5513	0.1952
364.7595	0.2036
364.9678	0.1773
365.176	0.1918
365.3842	0.1922
365.5925	0.1985
365.8007	0.186
366.0089	0.1929
366.217	0.189
366.4252	0.2062
366.6333	0.219
366.8415	0.2216
367.0496	0.1996
367.2577	0.215
367.4658	0.2205
367.6739	0.2238
367.882	0.214
368.09	0.202
368.2981	0.2285
368.5061	0.2086
368.7141	0.2203
368.9221	0.2267
369.1301	0.2285
369.3381	0.2195
369.5461	0.2123
369.754	0.2309
369.962	0.2125
370.1699	0.2124
370.3778	0.2273
370.5857	0.2062
370.7936	0.2071
371.0015	0.2183
371.2093	0.2151
371.4172	0.2361
371.625	0.202
371.8328	0.2285
372.0406	0.2124
372.2484	0.2181
372.4562	0.2361
372.664	0.2129
372.8717	0.2263
373.0795	0.2014
373.2872	0.2381
373.4949	0.2171
373.7026	0.2387
373.9103	0.2231
374.118	0.2309
374.3256	0.2211
374.5333	0.2367
374.7409	0.2262
374.9485	0.2445
375.1561	0.2271
375.3637	0.2246
375.5713	0.2344
375.7789	0.2398
375.9864	0.241
376.194	0.2132
376.4015	0.2467
376.609	0.2366
376.8165	0.2497
377.024	0.2235
377.2315	0.2265
377.4389	0.2527
377.6464	0.2435
377.8538	0.242
378.0612	0.248
378.2686	0.2422
378.476	0.2583
378.6834	0.2449
378.8908	0.2483
379.0981	0.2564
379.3055	0.2576
379.5128	0.2483
379.7201	0.2596
379.9274	0.2283
380.1347	0.2413
380.342	0.2543
380.5492	0.2444
380.7565	0.2533
380.9637	0.2521
381.1709	0.2627
381.3781	0.2505
381.5853	0.254
381.7925	0.2501
381.9997	0.2576
382.2068	0.2727
382.4139	0.2583
382.6211	0.247
382.8282	0.2596
383.0353	0.2395
383.2424	0.2539
383.4494	0.2642
383.6565	0.255
383.8635	0.268
384.0706	0.2615
384.2776	0.2598
384.4846	0.243
384.6916	0.2526
384.8986	0.2672
385.1055	0.2657
385.3125	0.2667
385.5194	0.2352
385.7263	0.2699
385.9333	0.2579
386.1402	0.2508
386.347	0.248
386.5539	0.2483
386.7608	0.2693
386.9676	0.2525
387.1744	0.2865
387.3813	0.2663
387.5881	0.262
387.7948	0.2559
388.0016	0.2587
388.2084	0.2595
388.4151	0.2539
388.6219	0.2704
388.8286	0.2445
389.0353	0.2534
389.242	0.2503
389.4487	0.247
389.6553	0.2386
389.862	0.2482
390.0686	0.247
390.2753	0.2483
390.4819	0.2361
390.6885	0.2627
390.8951	0.2417
391.1016	0.2252
391.3082	0.2391
391.5147	0.2432
391.7213	0.2421
391.9278	0.2242
392.1343	0.2242
392.3408	0.2398
392.5473	0.2311
392.7537	0.2293
392.9602	0.2314
393.1666	0.2386
393.373	0.2432
393.5794	0.2297
393.7858	0.2358
393.9922	0.221
394.1986	0.2457
394.4049	0.242
394.6113	0.2375
394.8176	0.2127
395.0239	0.225
395.2302	0.2146
395.4365	0.2073
395.6428	0.2223
395.8491	0.2011
396.0553	0.2259
396.2615	0.2284
396.4678	0.217
396.674	0.1995
396.8802	0.2265
397.0863	0.2214
397.2925	0.218
397.4987	0.2016
397.7048	0.209
397.9109	0.2149
398.117	0.2156
398.3231	0.2206
398.5292	0.2191
398.7353	0.2
398.9413	0.2121
399.1474	0.2111
399.3534	0.2149
399.5594	0.2132
399.7654	0.2225
399.9714	0.2186
400.1774	0.2055
400.3833	0.209
400.5893	0.2172
400.7952	0.2142
401.0011	0.2152
401.207	0.2148
401.4129	0.2182
401.6188	0.2186
401.8247	0.2069
402.0305	0.203
402.2364	0.2006
402.4422	0.2222
402.648	0.2256
402.8538	0.2263
403.0596	0.1991
403.2654	0.2406
403.4711	0.2114
403.6768	0.2319
403.8826	0.2177
404.0883	0.2292
404.294	0.2112
404.4997	0.2291
404.7054	0.2174
404.911	0.2063
405.1167	0.1966
405.3223	0.2133
405.5279	0.2217
405.7335	0.2196
405.9391	0.2313
406.1447	0.2091
406.3502	0.2245
406.5558	0.2069
406.7613	0.2043
406.9668	0.2273
407.1724	0.1972
407.3778	0.2067
407.5833	0.2014
407.7888	0.2191
407.9942	0.2298
408.1997	0.2083
408.4051	0.2157
408.6105	0.2256
408.8159	0.2096
409.0213	0.2047
409.2267	0.2291
409.432	0.1942
409.6374	0.2121
409.8427	0.2164
410.048	0.2026
410.2533	0.1926
410.4586	0.2095
410.6639	0.1973
410.8691	0.1961
411.0744	0.2091
411.2796	0.1961
411.4848	0.2103
411.69	0.2207
411.8952	0.2423
412.1004	0.2049
412.3056	0.212
412.5107	0.2095
412.7158	0.2305
412.921	0.2041
413.1261	0.2075
413.3312	0.2036
413.5362	0.202
413.7413	0.2022
413.9464	0.1984
414.1514	0.2222
414.3564	0.2015
414.5614	0.1974
414.7664	0.1985
414.9714	0.2074
415.1764	0.2072
415.3813	0.2191
415.5863	0.2015
415.7912	0.2148
415.9961	0.1953
416.201	0.2171
416.4059	0.2224
416.6108	0.1935
416.8156	0.2075
417.0205	0.1973
417.2253	0.1909
417.4301	0.2023
417.6349	0.2053
417.8397	0.1914
418.0445	0.2201
418.2492	0.2003
418.454	0.2009
418.6587	0.1952
418.8634	0.215
419.0681	0.1777
419.2728	0.2044
419.4775	0.198
419.6822	0.1928
419.8868	0.1802
420.0915	0.194
420.2961	0.1917
420.5007	0.1853
420.7053	0.1997
420.9099	0.1733
421.1144	0.1876
421.319	0.1745
421.5235	0.193
421.728	0.2012
421.9325	0.1898
422.137	0.1962
422.3415	0.1936
422.546	0.2008
422.7504	0.1993
422.9549	0.1853
423.1593	0.1919
423.3637	0.2053
423.5681	0.1797
423.7725	0.1761
423.9769	0.1879
424.1812	0.1791
424.3856	0.1714
424.5899	0.1701
424.7942	0.1775
424.9985	0.1724
425.2028	0.166
425.4071	0.1947
425.6113	0.1756
425.8156	0.1659
426.0198	0.1869
426.224	0.1527
426.4282	0.1742
426.6324	0.1594
426.8366	0.1564
427.0407	0.1757
427.2449	0.1595
427.449	0.1575
427.6531	0.1569
427.8572	0.1641
428.0613	0.1573
428.2654	0.1599
428.4694	0.1618
428.6735	0.1581
428.8775	0.1691
429.0815	0.1647
429.2855	0.1364
429.4895	0.1497
429.6935	0.1497
429.8975	0.1466
430.1014	0.1473
430.3053	0.1352
430.5093	0.1561
430.7132	0.1343
430.9171	0.1361
431.1209	0.1342
431.3248	0.1554
431.5286	0.147
431.7325	0.1446
431.9363	0.1355
432.1401	0.1358
432.3439	0.1185
432.5477	0.1188
432.7514	0.1187
432.9552	0.1398
433.1589	0.1196
433.3627	0.1325
433.5664	0.1288
433.7701	0.1126
433.9737	0.1023
434.1774	0.1194
434.3811	0.116
434.5847	0.1168
434.7883	0.1239
434.9919	0.0988
435.1955	0.1278
435.3991	0.099
435.6027	0.1124
435.8062	0.1052
436.0098	0.1001
436.2133	0.1205
436.4168	0.1082
436.6203	0.1084
436.8238	0.0976
437.0272	0.0947
437.2307	0.1054
437.4341	0.1168
437.6375	0.1036
437.841	0.0911
438.0443	0.1015
438.2477	0.083
438.4511	0.0858
438.6545	0.0963
438.8578	0.1065
439.0611	0.101
439.2644	0.083
439.4677	0.0677
439.671	0.0758
439.8743	0.0875
440.0775	0.0685
440.2808	0.0812
440.484	0.0829
440.6872	0.0712
440.8904	0.0652
441.0936	0.0907
441.2967	0.0805
441.4999	0.0776
441.703	0.073
441.9062	0.0501
442.1093	0.0602
442.3124	0.0839
442.5155	0.0611
442.7185	0.0576
442.9216	0.0429
443.1246	0.0724
443.3276	0.0467
443.5307	0.0595
443.7337	0.0704
443.9366	0.0671
444.1396	0.0513
444.3426	0.0712
444.5455	0.0637
444.7484	0.0584
444.9513	0.0477
445.1542	0.0669
445.3571	0.053
445.56	0.06
445.7628	0.0319
445.9657	0.0503
446.1685	0.0568
446.3713	0.0513
446.5741	0.0434
446.7769	0.0273
446.9797	0.0597
447.1824	0.0564
447.3852	0.0377
447.5879	0.044
447.7906	0.0507
447.9933	0.0458
448.196	0.0387
448.3986	0.052
448.6013	0.0323
448.8039	0.0175
449.0066	0.0267
449.2092	0.0388
449.4118	0.0375
449.6143	0.0305
449.8169	0.0294
450.0195	0.0197
450.222	0.0077
450.4245	0.0182
450.627	0.0421
450.8295	0.0326
451.032	0.0327
451.2345	0.0253
451.4369	0.0344
451.6394	0.0227
451.8418	0.0131
452.0442	0.0128
452.2466	0.0364
452.449	0.0156
452.6513	0.0158
452.8537	0.0145
453.056	0.0142
453.2583	0.0194
453.4607	0.0247
453.663	0.0081
453.8652	0.0364
454.0675	0.0057
454.2697	0.0289
454.472	0.0157
454.6742	0.0327
454.8764	0.0267
455.0786	0.024
455.2808	0.007
455.4829	0.0238
455.6851	0.0254
455.8872	0.0141
456.0893	0.0287
456.2915	0.0085
456.4935	0.0159
456.6956	0.02
456.8977	0.0266
457.0997	0.0147
457.3018	0.0002
457.5038	0.0248
457.7058	0.0013
457.9078	0.0153
458.1098	0.016
458.3117	0.0095
458.5137	0.0116
458.7156	0.0171
458.9175	-0.0069
459.1194	0.0095
459.3213	0.007
459.5232	0.0067
459.725	-0.0008
459.9269	-0.0036
460.1287	-0.003
460.3305	0.0062
460.5323	0.0075
460.7341	0.0084
460.9359	0.0081
461.1376	0.0112
461.3394	-0.0088
461.5411	0.0124
461.7428	0.0078
461.9445	0.0204
462.1462	0.039
462.3479	0.0032
462.5495	0.0203
462.7512	0.0107
462.9528	-0.0002
463.1544	-0.0078
463.356	0.0017
463.5576	0.0161
463.7592	-0.0047
463.9607	0.0126
464.1623	0.0263
464.3638	0.0207
464.5653	-0.0039
464.7668	0.0024
464.9683	0.0082
465.1697	0.0078
465.3712	0.0122
465.5726	-0.0147
465.7741	0.0003
465.9755	-0.0041
466.1769	0.0026
466.3782	0.0013
466.5796	-0.0077
466.7809	0.0218
466.9823	-0.0088
467.1836	-0.0016
467.3849	-0.0094
467.5862	0.0104
467.7875	-0.0003
467.9887	0.0199
468.19	-0.0053
468.3912	-0.0074
468.5924	0.0036
468.7936	0.0033
468.9948	0.0024
469.196	0.0021
469.3972	-0.0102
469.5983	0.0135
469.7994	-0.0149
470.0006	0.0213
470.2017	-0.0021
470.4027	-0.0121
470.6038	0.01
470.8049	-0.03
471.0059	0.005
471.2069	-0.0217
471.408	0.0094
471.6089	0.0058
471.8099	0.0053
472.0109	0.0033
472.2119	-0.0018
472.4128	-0.0106
472.6137	0.005
472.8146	-0.0116
473.0155	0.0009
473.2164	-0.0009
473.4173	0.0128
473.6181	0.0071
473.819	0.0049
474.0198	0.0029
474.2206	-0.0078
474.4214	0.001
474.6222	-0.0054
474.8229	-0.0093
475.0237	-0.01
475.2244	-0.0003
475.4251	0.0023
475.6258	-0.0045
475.8265	0.0081
476.0272	0.0082
476.2278	-0.0082
476.4285	-0.0147
476.6291	-0.0141
476.8297	-0.0054
477.0303	-0.0078
477.2309	0.0015
477.4315	-0.0207
477.632	-0.007
477.8326	-0.0071
478.0331	0.0095
478.2336	0.0012
478.4341	-0.0147
478.6346	0.0051
478.8351	0.0042
479.0355	-0.0041
479.236	0.0047
479.4364	0.0012
479.6368	0.0051
479.8372	-0.0173
480.0376	-0.0107
480.2379	-0.0262
480.4383	-0.0172
480.6386	0.0021
480.8389	-0.0055
481.0392	-0.0177
481.2395	-0.0012
481.4398	0.004
481.6401	-0.0008
481.8403	0.0069
482.0405	0.0078
482.2408	-0.0016
482.441	0.005
482.6411	-0.0035
482.8413	-0.004
483.0415	-0.0068
483.2416	-0.0155
483.4417	0.0031
483.6419	-0.0057
483.8419	-0.0085
484.042	0.0179
484.2421	0.0172
484.4422	-0.0009
484.6422	-0.0012
484.8422	-0.0023
485.0422	-0.0076
485.2422	0.0036
485.4422	-0.0132
485.6422	-0.0115
485.8421	-0.0071
486.042	0.0014
486.242	-0.0033
486.4419	-0.0087
486.6417	-0.0141
486.8416	-0.0005
487.0415	-0
487.2413	-0.0053
487.4411	-0.0037
487.641	-0.009
487.8408	-0.0015
488.0405	-0.0031
488.2403	-0.0074
488.4401	0.0028
488.6398	-0.0032
488.8395	-0.0151
489.0392	0.0079
489.2389	-0.002
489.4386	-0.0046
489.6383	0.0014
489.8379	0.0093
490.0376	0.0019
490.2372	-0.0171
490.4368	0.0045
490.6364	-0.0017
490.836	-0.006
491.0355	-0.0151
491.2351	-0.0046
491.4346	-0.0004
491.6341	-0.0077
491.8336	-0.0023
492.0331	-0.0077
492.2326	-0.0057
492.432	-0.0024
492.6315	-0.0104
492.8309	-0.0068
493.0303	-0.0118
493.2297	-0.0057
493.4291	-0.0032
493.6284	0.0031
493.8278	-0.0023
494.0271	0.003
494.2264	-0.0017
494.4257	-0.0145
494.625	0.0003
494.8243	-0.0111
495.0236	-0.0089
495.2228	0.0023
495.422	-0.0002
495.6213	-0.0025
495.8205	0.0016
496.0196	0.0015
496.2188	0.0086
496.418	-0.0101
496.6171	0.0009
496.8162	-0.0082
497.0153	0.0015
497.2144	-0.0061
497.4135	-0.0021
497.6126	-0.0144
497.8116	-0.0114
498.0107	-0.0048
498.2097	-0.0114
498.4087	-0.0094
498.6077	-0.0167
498.8067	-0.0021
499.0056	0.0078
499.2046	-0.0064
499.4035	-0.0146
499.6024	-0.0013
499.8013	0.0026
500.0002	-0.0155
500.199	0.0013
500.3979	-0.0133
500.5967	-0.0302
500.7956	-0.0042
500.9944	-0.005
501.1932	-0.0121
501.3919	0.003
501.5907	-0.004
501.7895	-0.0083
501.9882	-0.0106
502.1869	-0.0062
502.3856	-0.0014
502.5843	-0.0109
502.783	-0.0098
502.9816	0.0041
503.1803	-0.0104
503.3789	-0.011
503.5775	0.0044
503.7761	-0.011
503.9747	-0.0064
504.1732	-0.0112
504.3718	-0.0019
504.5703	0.0012
504.7689	-0.0042
504.9674	0.005
505.1658	-0.006
505.3643	-0.0021
505.5628	-0.0043
505.7612	-0.0096
505.9597	0.0043
506.1581	-0.0073
506.3565	0.0127
506.5549	-0.007
506.7532	-0.0102
506.9516	-0.0042
507.1499	-0.0055
507.3482	-0.0121
507.5465	-0.005
507.7448	0.0007
507.9431	0.0001
508.1414	-0.0044
508.3396	0.0003
508.5379	-0.0012
508.7361	0.0032
508.9343	-0.0099
509.1325	-0.0007
509.3306	-0.0079
509.5288	-0.0012
509.7269	-0.0083
509.9251	-0.0009
510.1232	-0.0031
510.3213	-0.0096
510.5193	-0.0024
510.7174	-0.0029
510.9154	-0.0121
511.1135	-0.004
511.3115	-0.0098
511.5095	-0.0057
511.7075	0.0047
511.9055	-0.0021
512.1034	-0.0102
512.3014	-0.0009
512.4993	0.0077
512.6972	-0.0081
512.8951	-0.0107
513.093	-0.0058
513.2908	-0.0048
513.4887	-0.0021
513.6865	-0.0051
513.8844	-0.0088
514.0822	-0.0099
514.2799	-0.0073
514.4777	-0.0066
514.6755	-0.0075
514.8732	-0.0066
515.0709	-0.0044
515.2687	0.0008
515.4664	0.0032
515.664	-0.0019
515.8617	-0.0037
516.0594	-0.0068
516.257	0.0049
516.4546	-0.0119
516.6522	-0.0071
516.8498	0.0041
517.0474	0.0054
517.2449	0.0009
517.4425	-0.0045
517.64	-0.0056
517.8375	0.0048
518.035	-0.0017
518.2325	-0.009
518.43	-0.0086
518.6274	-0.0002
518.8249	-0.0076
519.0223	-0.0008
519.2197	0.0008
519.4171	0.0016
519.6145	-0.0118
519.8118	-0.0031
520.0092	-0.0012
520.2065	-0.015
520.4038	-0.0084
520.6011	0.0017
520.7984	-0.0051
520.9956	-0.0031
521.1929	-0.0137
521.3901	-0.0023
521.5874	-0.0099
521.7846	0.005
521.9818	-0.0054
522.1789	-0.0021
522.3761	0.0027
522.5732	-0.0056
522.7704	-0.0028
522.9675	-0.0016
523.1646	-0.0084
523.3617	0.0028
523.5587	-0.0006
523.7558	-0.0051
523.9528	-0.0025
524.1498	-0.0003
524.3468	-0.0103
524.5438	-0.0019
524.7408	-0.0077
524.9378	0.0078
525.1347	-0.0044
525.3316	0.0027
525.5285	-0.0097
525.7254	-0.0034
525.9223	-0.0055
526.1192	-0.0007
526.316	-0.0045
526.5129	0.011
526.7097	-0.0033
526.9065	-0.0073
527.1033	-0.0071
527.3	-0.001
527.4968	0.0038
527.6935	-0.0038
527.8903	-0.0087
528.087	0.0041
528.2837	-0.0086
528.4804	0.0021
528.677	-0.0066
528.8737	0.0019
529.0703	-0.0025
529.2669	0.0072
529.4635	-0.0024
529.6601	-0.0018
529.8567	0.0007
530.0532	-0.0081
530.2498	-0.0022
530.4463	0.0118
530.6428	-0.0111
530.8393	0.0021
531.0358	-0.0143
531.2322	-0.0066
531.4287	-0.0015
531.6251	-0.0078
531.8215	0.0063
532.0179	0.0038
532.2143	0.004
532.4107	-0.0043
532.607	0.0014
532.8034	0.0059
532.9997	-0.003
533.196	-0.0045
533.3923	-0.0058
533.5886	0.0027
533.7848	0.0025
533.9811	-0.0007
534.1773	0.0024
534.3735	0.0125
534.5697	0.0032
534.7659	-0.0019
534.9621	0.0069
535.1582	-0.0074
535.3544	-0.0008
535.5505	-0.0102
535.7466	-0.004
535.9427	-0.004
536.1387	-0.0009
536.3348	-0.0042
536.5308	0.0154
536.7269	-0.0103
536.9229	0.0064
537.1189	-0.0007
537.3148	-0.0087
537.5108	-0.0038
537.7068	-0.003
537.9027	0.0062
538.0986	-0.0114
538.2945	-0.0048
538.4904	-0.01
538.6863	0.0015
538.8821	-0.0081
539.078	-0.0093
539.2738	-0.003
539.4696	-0.006
539.6654	0.0058
539.8611	0.0022
540.0569	0.0031
540.2526	-0.0024
540.4484	-0.0057
540.6441	0.0063
540.8398	-0.0026
541.0355	0.0145
541.2311	-0.0079
541.4268	-0.0042
541.6224	-0.0012
541.818	-0.0095
542.0136	-0.0077
542.2092	0.005
542.4048	0.0105
542.6003	0.0097
542.7959	-0.0045
542.9914	0.0037
543.1869	0.0067
543.3824	-0.0031
543.5779	-0.0093
543.7734	-0.0049
543.9688	-0.0074
544.1642	-0.0015
544.3596	-0.0072
544.555	-0.0055
544.7504	0.0005
544.9458	0.0048
545.1411	-0.0042
545.3365	0.0001
545.5318	0.0017
545.7271	-0.0088
545.9224	-0.0122
546.1177	0.0011
546.3129	-0.0041
546.5081	0.0025
546.7034	0.001
546.8986	-0.0014
547.0938	-0.0043
547.289	0.0065
547.4841	0.0017
547.6793	0.006
547.8744	-0.0032
548.0695	0.0022
548.2646	-0.0132
548.4597	-0.0042
548.6548	0.003
548.8498	0.0105
549.0448	0.001
549.2399	-0.005
549.4349	0.0118
549.6298	-0.0023
549.8248	0.0005
550.0198	-0.0044
550.2147	-0.0134
550.4096	-0.0079
550.6045	0.004
550.7994	0.0043
550.9943	-0.0011
551.1892	0.0029
551.384	-0.0032
551.5788	-0.003
551.7737	-0.0003
551.9685	0.0009
552.1632	-0.0006
552.358	-0.0067
552.5528	0.0033
552.7475	-0.0008
552.9422	-0.0026
553.1369	0.0082
553.3316	-0.0006
553.5263	-0.0035
553.7209	0.0134
553.9156	-0.0086
554.1102	-0.0046
554.3048	-0.0066
554.4994	0.0116
554.694	-0.0045
554.8885	0.0095
555.0831	-0.0056
555.2776	-0.0068
555.4721	0.0029
555.6666	-0.0086
555.8611	0.0179
556.0555	0.0028
556.25	0.0031
556.4444	-0.0038
556.6388	-0.0028
556.8332	-0.0027
557.0276	-0.0005
557.222	-0.01
557.4163	-0.0018
557.6107	-0.0071
557.805	0.0055
557.9993	-0.0099
558.1936	0.0007
558.3879	0.0039
558.5821	-0.006
558.7764	0.0057
558.9706	0.001
559.1648	0.0059
559.359	-0.0044
559.5532	-0.0071
559.7473	0.0055
559.9415	-0.0006
560.1356	0.0005
560.3297	-0.0099
560.5238	-0.0072
560.7179	-0.0079
560.9119	-0.0081
561.106	-0.0049
561.3	-0.005
561.494	-0.004
561.688	-0.0009
561.882	-0.0068
562.076	-0.0017
562.2699	-0.002
562.4639	-0.0004
562.6578	-0.0033
562.8517	-0.0016
563.0456	0.0017
563.2395	0.0037
563.4333	0.0111
563.6272	0.0114
563.821	-0.0001
564.0148	0.0032
564.2086	-0.0119
564.4024	-0.0043
564.5961	-0.0006
564.7899	0.0109
564.9836	-0.0003
565.1773	0.0078
565.371	0.0095
565.5647	0.0056
565.7584	0.0044
565.952	-0.0012
566.1456	0.0021
566.3393	-0.0024
566.5329	-0.0063
566.7264	0.004
566.92	0.0005
567.1136	0.0095
567.3071	-0.005
567.5006	-0.0019
567.6941	0.0044
567.8876	-0.0017
568.0811	-0.005
568.2745	0.0011
568.468	-0.0015
568.6614	0.0039
568.8548	-0.0026
569.0482	-0.0005
569.2416	0.005
569.4349	0.0053
569.6283	0.0066
569.8216	0.0025
570.0149	-0.01
570.2082	0.0086
570.4015	0.0033
570.5947	0.0036
570.788	0.0042
570.9812	0.0029
571.1744	0.0044
571.3676	-0.0016
571.5608	-0.0022
571.754	0.0058
571.9471	0.0048
572.1402	-0.0001
572.3333	-0.004
572.5264	0.0008
572.7195	0.0079
572.9126	0.0041
573.1057	-0.0017
573.2987	0.0026
573.4917	0.0026
573.6847	-0.0071
573.8777	0.0056
574.0707	0.0081
574.2636	-0.0021
574.4566	-0.0031
574.6495	0.0081
574.8424	0.0089
575.0353	-0.0013
575.2281	0.0077
575.421	0.0015
575.6138	0.0042
575.8067	0.0021
575.9995	0.0095
576.1923	0.0048
576.385	0.0029
576.5778	0.0069
576.7706	0.0036
576.9633	0.0036
577.156	0.0006
577.3487	-0.0027
577.5414	0.0012
577.734	-0.0065
577.9267	0.0041
578.1193	-0.0048
578.3119	0.0008
578.5045	0.0056
578.6971	0.0007
578.8897	0.0075
579.0822	0.003
579.2747	0.0026
579.4673	-0.0028
579.6598	-0.0005
579.8522	0.0031
580.0447	-0.0091
580.2372	-0.0057
580.4296	0.0081
580.622	0.0019
580.8144	0.006
581.0068	-0.0019
581.1992	-0.0098
581.3915	-0.0013
581.5839	-0.0026
581.7762	-0.0038
581.9685	-0.0042
582.1608	0.0022
582.353	-0.0079
582.5453	0.0041
582.7375	0.0032
582.9298	0.0022
583.122	0.0006
583.3142	-0.0012
583.5063	0.0002
583.6985	0.0042
583.8906	-0.0006
584.0827	-0.0001
584.2749	0.0001
584.4669	0.0016
584.659	0.0004
584.8511	-0.0066
585.0431	0.0004
585.2352	0.0051
585.4272	0.0017
585.6192	0.0045
585.8111	-0.0021
586.0031	-0.0036
586.195	-0.0045
586.387	0.0041
586.5789	0.0023
586.7708	0.0045
586.9627	0.0072
587.1545	-0.0049
587.3464	0.0017
587.5382	0.0062
587.73	0.0038
587.9218	0.0086
588.1136	0.0005
588.3053	0.0063
588.4971	-0.0024
588.6888	-0.0062
588.8805	0.0026
589.0722	-0.0014
589.2639	-0.0042
589.4556	-0.0006
589.6472	-0.0024
589.8389	-0.0061
590.0305	-0.0064
590.2221	0.0067
590.4137	-0.0013
590.6052	0.0037
590.7968	0.0018
590.9883	0.0017
591.1798	-0.0014
591.3713	-0.002
591.5628	0.0013
591.7543	0.0049
591.9458	0.0005
592.1372	0.006
592.3286	0.0071
592.52	0.0104
592.7114	0.0007
592.9028	-0.0004
593.0941	0.0024
593.2855	-0.0005
593.4768	-0.0061
593.6681	-0.0041
593.8594	-0.0021
594.0506	-0.0047
594.2419	0.0091
594.4331	0.0036
594.6244	0.0098
594.8156	-0.0099
595.0067	0.0023
595.1979	0.0051
595.3891	0.0002
595.5802	-0.0025
595.7713	-0.0073
595.9624	-0.0015
596.1535	0.0075
596.3446	-0.0039
596.5357	-0.0015
596.7267	0.0035
596.9177	-0.0028
597.1087	-0.0039
597.2997	0.0024
597.4907	0.0062
597.6817	-0.0108
597.8726	0.0018
598.0635	-0.0041
598.2544	0.0012
598.4453	0.0036
598.6362	-0.0016
598.827	-0.0003
599.0179	0.0048
599.2087	0.0027
599.3995	0.0003
599.5903	0.0018
599.7811	-0.0003
599.9718	0.0055
600.1626	-0.0006
600.3533	-0.0065
600.544	-0.0034
600.7347	-0.0029
600.9254	0.0005
601.116	-0.0106
601.3067	-0.0026
601.4973	-0.0042
601.6879	0.001
601.8785	-0.0067
602.0691	0.0046
602.2596	0.0027
602.4502	0.0047
602.6407	0.0011
602.8312	0.0035
603.0217	-0.0052
603.2122	0.0047
603.4027	0.0032
603.5931	0.0068
603.7835	0.0028
603.9739	0
604.1643	0.0004
604.3547	-0.0031
604.5451	0.0103
604.7354	-0.0039
604.9257	-0.0014
605.116	0.0007
605.3063	0.007
605.4966	0.0042
605.6869	-0.0023
605.8771	0.015
606.0673	0.0168
606.2575	0.013
606.4477	0.0131
606.6379	0.0089
606.8281	0.0015
607.0182	0.0077
607.2083	0.0072
607.3985	0.0037
607.5885	0.0004
607.7786	0.0079
607.9687	0.0013
608.1587	0.008
608.3488	0.0079
608.5388	0.0033
608.7288	0.0023
608.9187	-0.0014
609.1087	-0.0064
609.2986	-0.0022
609.4886	-0.0064
609.6785	0.0026
609.8684	0.0017
610.0582	0.0047
610.2481	0.0058
610.4379	-0.0004
610.6278	-0.0041
610.8176	-0.0039
611.0074	-0.001
611.1971	-0.0041
611.3869	0.0017
611.5766	-0.004
611.7664	0.007
611.9561	0.0077
612.1458	0.0033
612.3354	-0.0037
612.5251	0.0059
612.7147	0.0037
612.9044	0.0105
613.094	-0.0057
613.2836	0.0034
613.4731	0.0015
613.6627	-0.0064
613.8522	0.0029
614.0417	0.0056
614.2313	-0.009
614.4207	-0.0024
614.6102	0.0017
614.7997	-0.0048
614.9891	-0.0033
615.1785	-0.0027
615.3679	0.0027
615.5573	0.0097
615.7467	-0.0052
615.9361	-0.0023
616.1254	-0.0035
616.3147	0.0002
616.504	0.0014
616.6933	0.0054
616.8826	0.0091
617.0718	0.0049
617.2611	0.0032
617.4503	0.002
617.6395	-0.001
617.8287	-0.001
618.0179	0.0055
618.207	0.0108
618.3961	0.0058
618.5853	0.0006
618.7744	0.0024
618.9634	0.0065
619.1525	0.0018
619.3416	0.0042
619.5306	0.0099
619.7196	0.0069
619.9086	-0.0044
620.0976	0.0039
620.2866	0.006
620.4755	0.0046
620.6645	0.0105
620.8534	0.0039
621.0423	0.009
621.2312	0.0093
621.42	0.0046
621.6089	0.0094
621.7977	0.0085
621.9865	0.0007
622.1753	0.0076
622.3641	-0.0043
622.5529	0.0082
622.7416	0.0087
622.9303	-0.0023
623.1191	0.0122
623.3078	-0.0051
623.4964	0.0077
623.6851	-0.0018
623.8737	-0.0026
624.0624	0.0094
624.251	-0.0058
624.4396	-0.0001
624.6282	-0.0016
624.8167	0.0004
625.0053	0.0073
625.1938	0.005
625.3823	-0.0007
625.5708	0.0032
625.7593	-0.008
625.9477	-0.0042
626.1362	-0.0095
626.3246	-0.005
626.513	0.0059
626.7014	0.0082
626.8898	-0.0003
627.0781	0.0021
627.2665	-0.0063
627.4548	0.0069
627.6431	0.0049
627.8314	0.0057
628.0197	0.0074
628.2079	-0.0075
628.3962	0.001
628.5844	0.0055
628.7726	0.0056
628.9608	0.0069
629.1489	-0.0005
629.3371	0.0098
629.5252	0.0026
629.7134	0.0068
629.9015	0.0001
630.0895	-0.0029
630.2776	-0.0023
630.4657	0.0002
630.6537	-0.0006
630.8417	0.001
631.0297	0.0007
631.2177	0.0004
631.4057	-0.0028
631.5936	-0.0007
631.7815	-0.0056
631.9695	0.0038
632.1574	0.0016
632.3452	0.0032
632.5331	0.0033
632.7209	0.0044
632.9088	0.0068
633.0966	0.0115
633.2844	-0.0007
633.4722	0.0063
633.6599	0.0063
633.8477	0.0032
634.0354	0.0023
634.2231	0.0006
634.4108	0.0052
634.5985	0.0081
634.7861	-0.0004
634.9738	0.0005
635.1614	0.0071
635.349	0.0081
635.5366	0.0006
635.7242	0.0078
635.9117	0.0054
636.0993	0.0036
636.2868	0.0074
636.4743	0.0057
636.6618	0.0082
636.8492	0.0038
637.0367	-0.0021
637.2241	0.0011
637.4115	0.0089
637.5989	-0.0016
637.7863	0.0017
637.9737	-0.0029
638.161	0.0025
638.3484	0.0025
638.5357	0.01
638.723	-0.0002
638.9103	0.0015
639.0975	-0.0013
639.2848	0.0025
639.472	0.0032
639.6592	0.0051
639.8464	0.0086
640.0336	0.0074
640.2208	-0.0029
640.4079	-0.0009
640.595	0.0001
640.7821	0.0061
640.9692	-0.0003
641.1563	0.0014
641.3434	-0.0043
641.5304	0.0036
641.7174	0.0015
641.9044	-0.0022
642.0914	0.004
642.2784	-0.0005
642.4653	0.0052
642.6523	-0.0053
642.8392	-0.0071
643.0261	0.0076
643.213	0.005
643.3999	-0.0053
643.5867	0.0002
643.7735	0.0012
643.9604	-0.007
644.1472	0.003
644.3339	0.0057
644.5207	0.0026
644.7075	0.0053
644.8942	0.0014
645.0809	0.0024
645.2676	0.0049
645.4543	0.0007
645.6409	0.0065
645.8276	0.0044
646.0142	0.0057
646.2008	-0.0028
646.3874	0.0016
646.574	0.0004
646.7605	-0.0067
646.9471	-0.0036
647.1336	-0.0051
647.3201	0.0083
647.5066	-0.0028
647.6931	0.0095
647.8795	-0.0022
648.0659	0.0083
648.2524	0.0045
648.4388	-0.0017
648.6252	0.0011
648.8115	-0.0002
648.9979	0.0068
649.1842	0.0049
649.3705	0.0055
649.5568	0.0076
649.7431	0.0122
649.9294	0.0076
650.1156	0.0055
650.3018	-0.0005
650.488	0.0052
650.6742	0.0001
650.8604	0.0088
651.0466	-0.0028
651.2327	0.0005
651.4188	-0.0032
651.6049	-0.0013
651.791	-0.0016
651.9771	0.0038
652.1632	0.0123
652.3492	0.0036
652.5352	-0.0008
652.7212	0.0002
652.9072	0.0074
653.0932	0.0049
653.2791	-0.0006
653.465	0.0049
653.651	-0.0012
653.8369	-0.003
654.0227	0.0013
654.2086	0.0033
654.3944	0.0055
654.5803	0.0017
654.7661	0.0029
654.9519	0.0044
655.1377	-0.0049
655.3234	-0.0043
655.5092	0.0008
655.6949	-0.0079
655.8806	-0.0015
656.0663	-0.0032
656.2519	-0.001
656.4376	0.0028
656.6232	0.0043
656.8088	0.0009
656.9945	0.0056
657.18	-0.0026
657.3656	0.0031
657.5511	-0.0031
657.7367	-0.0062
657.9222	0.0008
658.1077	0.0031
658.2932	0.0014
658.4786	-0.0049
658.6641	-0.0053
658.8495	-0.0032
659.0349	-0.0091
659.2203	0.0038
659.4057	0.0018
659.591	0.0018
659.7764	-0.0028
659.9617	-0.0002
660.147	0.0014
660.3323	0.0031
660.5176	0.0089
660.7028	0.0013
660.888	0.0005
661.0733	0.0027
661.2585	-0.0024
661.4436	-0.0005
661.6288	0.0012
661.8139	-0.0002
661.9991	-0.0002
662.1842	-0.0008
662.3693	-0.0013
662.5544	-0.0019
662.7394	0.0013
662.9245	-0.005
663.1095	-0.0007
663.2945	-0.0013
663.4795	0.001
663.6644	0.006
663.8494	0.0044
664.0343	0.0061
664.2193	-0.0053
664.4042	0.0032
664.589	-0.0001
664.7739	-0.0005
664.9587	-0.0068
665.1436	0.0008
665.3284	0.0091
665.5132	-0.0077
665.698	0.0012
665.8827	0.0054
666.0675	-0.0008
666.2522	-0.0021
666.4369	0.0001
666.6216	0.009
666.8063	0.0011
666.9909	-0.0016
667.1756	-0.003
667.3602	-0.0027
667.5448	-0.0008
667.7294	0.0092
667.9139	0.0041
668.0985	0.0144
668.283	0.0029
668.4675	0.0079
668.652	0.0081
668.8365	0.0045
669.0209	0.0017
669.2054	0.0173
669.3898	0.0058
669.5742	0.0045
669.7586	0.0052
669.943	0.0097
670.1273	0.0047
670.3117	0.005
670.496	0.0006
670.6803	0.0096
670.8646	0.0059
671.0488	0.0009
671.2331	0.007
671.4173	0.0026
671.6015	0.0005
671.7857	0.0055
671.9699	0.0026
672.1541	0.0021
672.3382	0.007
672.5223	0.004
672.7064	0.0097
672.8905	0.0098
673.0746	0.003
673.2587	0.0038
673.4427	0.0049
673.6267	0.0054
673.8107	0.0125
673.9947	0.003
674.1787	0.0033
674.3626	-0.0059
674.5465	0.0072
674.7304	0.0062
674.9143	0.0057
675.0982	0.0091
675.2821	-0.0029
675.4659	0.0079
675.6497	-0.0027
675.8335	0.0028
676.0173	0.0063
676.2011	0.0056
676.3849	0.0015
676.5686	-0.0048
676.7523	-0.0015
676.936	0.0038
677.1197	-0.0059
677.3034	-0.0042
677.487	0.0031
677.6706	0.0063
677.8542	0.0081
678.0378	0.0018
678.2214	-0.0019
678.405	-0.0055
678.5885	-0.0084
678.772	-0.0054
678.9555	-0.0072
679.139	-0.0057
679.3225	0.0034
679.5059	-0.0025
679.6894	0.0055
679.8728	0.0039
680.0562	-0.0022
680.2395	-0.0015
680.4229	-0.0043
680.6062	0.0046
680.7896	-0.0004
680.9729	-0.0009
681.1562	0.0024
681.3394	0.0096
681.5227	0.0011
681.7059	-0.0007
681.8891	0.0056
682.0723	0.0132
682.2555	0.004
682.4387	0.0045
682.6218	-0.0014
682.805	0.0091
682.9881	0.006
683.1712	0.0005
683.3542	0.004
683.5373	0.0068
683.7203	-0.0031
683.9034	-0.0063
684.0864	-0.0058
684.2694	0.0058
684.4523	0.0076
684.6353	-0.0049
684.8182	0.0012
685.0011	-0.0087
685.184	0
685.3669	-0.0015
685.5498	0.0088
685.7326	0.0011
685.9154	-0.0017
686.0982	0.0049
686.281	0.0041
686.4638	0.0016
686.6465	0.0003
686.8293	-0.008
687.012	-0.001
687.1947	-0.0042
687.3774	0.0052
687.56	-0.0065
687.7427	0.0133
687.9253	-0.0119
688.1079	0.0015
688.2905	0.0009
688.4731	0.005
688.6556	0.0044
688.8382	0.0048
689.0207	0.0041
689.2032	-0.0075
689.3857	0.0004
689.5681	0.0088
689.7506	-0.0069
689.933	-0.0087
690.1154	0.0019
690.2978	-0.0029
690.4802	0.0014
690.6626	-0.0083
690.8449	-0.007
691.0272	0.0082
691.2095	-0.0044
691.3918	-0.003
691.5741	0.0028
691.7563	-0.0003
691.9386	-0.0012
692.1208	0.0003
692.303	0.0066
692.4852	0.005
692.6673	0.0096
692.8495	0.0049
693.0316	0.0045
693.2137	0.0044
693.3958	0.0013
693.5778	0.0027
693.7599	0.0073
693.9419	-0.0006
694.1239	0.0049
694.3059	0.0028
694.4879	0.0128
694.6699	0.0082
694.8518	-0.003
695.0337	0.002
695.2157	0.0115
695.3975	0.0057
695.5794	0.0045
695.7613	0.0148
695.9431	-0.0012
696.1249	0.0006
696.3067	0.0142
696.4885	0.0133
696.6703	0.0021
696.852	0.0045
697.0337	0.0166
697.2154	0.0028
697.3971	0.0086
697.5788	0.0073
697.7605	0.0036
697.9421	0.0133
698.1237	0.0034
698.3053	0.0062
698.4869	-0.0027
698.6685	-0.0026
698.85	0.0047
699.0315	0.0122
699.213	0.0041
699.3945	0.0055
699.576	0.0155
699.7575	0.0134
699.9389	0.0157
700.1203	-0.003
700.3017	-0.0125
700.4831	-0.0008
700.6645	-0.0061
700.8458	0.0033
701.0271	0.0011
701.2084	0.0072
701.3897	-0.0064
701.571	0.0022
701.7523	-0.011
701.9335	0.0023
702.1147	0.0033
702.2959	0.0026
702.4771	0.0026
702.6583	0.0047
702.8394	-0.0032
703.0205	0.012
703.2016	-0.0009
703.3827	0.0045
703.5638	0.0111
703.7449	0.0024
703.9259	0.0149
704.1069	0.001
704.2879	0.0074
704.4689	0.0079
704.6499	0.0024
704.8308	0.0041
705.0117	0.0035
705.1927	0.0012
705.3735	-0.0034
705.5544	-0.0038
705.7353	0.0019
705.9161	0.0015
706.0969	-0.0016
706.2777	0.0074
706.4585	0.0012
706.6393	-0.0003
706.82	-0.0003
707.0007	-0.0037
707.1815	0.0122
707.3621	0.0038
707.5428	0.008
707.7235	0.0057
707.9041	0.0005
708.0847	-0.0046
708.2653	-0.0094
708.4459	-0.0084
708.6265	0.0022
708.807	0.0049
708.9875	-0.0002
709.168	-0.0038
709.3485	-0.0075
709.529	0.0012
709.7095	-0.0087
709.8899	-0.0042
710.0703	-0.0141
710.2507	-0.0018
710.4311	-0.0024
710.6115	-0.011
710.7918	-0.0063
710.9721	0.0015
711.1524	-0.007
711.3327	0.0022
711.513	0.0031
711.6932	0.0074
711.8735	0.0173
712.0537	0.0062
712.2339	0.0018
712.4141	-0.0027
712.5942	-0.0004
712.7744	0.0004
712.9545	-0.0013
713.1346	-0.0015
713.3147	-0.0019
713.4947	-0.0046
713.6748	-0.0012
713.8548	0.0034
714.0348	-0.0059
714.2148	-0.0013
714.3948	0.0149
714.5748	-0.0045
714.7547	0.0046
714.9346	0.0121
715.1145	0.0057
715.2944	-0.0042
715.4743	0
715.6541	-0.0037
715.834	0.0101
716.0138	0.0036
716.1936	-0.0061
716.3733	-0.0049
716.5531	0.0094
716.7328	0.0027
716.9126	0.005
717.0923	0.008
717.2719	0.0128
717.4516	0.0154
717.6312	0.0016
717.8109	0.0087
717.9905	0.0116
718.1701	0.0016
718.3496	0.0059
718.5292	0.0074
718.7087	0.0058
718.8882	0.009
719.0677	0.0041
719.2472	0.0031
719.4267	0.0066
719.6061	0.0089
719.7856	0.0028
719.965	0.0088
720.1443	-0.0015
720.3237	0.0078
720.5031	0.0021
720.6824	0.0062
720.8617	-0.01
721.041	0.005
721.2203	0.0098
721.3995	0.0054
721.5788	0.0103
721.758	0.0141
721.9372	0.0004
722.1164	0.0008
722.2956	0.0076
722.4747	0.0043
722.6538	-0.0036
722.8329	0.0177
723.012	0.0088
723.1911	0.0024
723.3702	0.0029
723.5492	0.0087
723.7282	-0.0117
723.9072	-0.0032
724.0862	-0.0067
724.2652	-0.0088
724.4441	-0.0052
724.623	-0.002
724.8019	-0.0074
724.9808	-0.0008
725.1597	-0.0054
725.3385	0.0058
725.5174	0.0095
725.6962	0.0029
725.875	-0.0026
726.0538	0.0035
726.2325	-0.0027
726.4112	0.0051
726.59	-0.0024
726.7687	-0.0011
726.9474	0.0019
727.126	-0.0032
727.3047	0.003
727.4833	0.0032
727.6619	-0.0004
727.8405	-0.0124
728.0191	-0.0012
728.1976	0.0048
728.3762	-0.0005
728.5547	0.0038
728.7332	-0.0082
728.9116	-0.0007
729.0901	0.0022
729.2686	-0.0055
729.447	-0.0051
729.6254	0.0015
729.8038	0.0026
729.9821	-0.0037
730.1605	-0.0019
730.3388	-0.002
730.5171	0.0048
730.6954	-0.0074
730.8737	-0.0008
731.0519	0.0037
731.2302	0.0087
731.4084	0.0047
731.5866	0.005
731.7648	0.0046
731.9429	0.0038
732.1211	-0.0158
732.2992	-0.0104
732.4773	-0.0057
732.6554	-0.0024
732.8335	-0.0039
733.0115	0.0068
733.1896	0.0078
733.3676	-0.0077
733.5456	0.0031
733.7235	0.0125
733.9015	0.0064
734.0794	0.004
734.2574	-0.0001
734.4353	0.004
734.6131	0.006
734.791	-0.0004
734.9689	0.0062
735.1467	0.0053
735.3245	-0.0068
735.5023	-0.0005
735.68	-0.0005
735.8578	0.0065
736.0355	-0.0212
736.2132	-0.0124
736.3909	0.0044
736.5686	-0.0078
736.7463	0.0028
736.9239	-0.0056
737.1015	0.0004
737.2791	0.0054
737.4567	0.0037
737.6343	0.0016
737.8118	0.0028
737.9894	0.0048
738.1669	-0.0021
738.3444	-0.0105
738.5218	0.0004
738.6993	0.0023
738.8767	-0.0021
739.0541	0.0137
739.2315	0.0038
739.4089	0.0034
739.5863	0.0066
739.7636	0.0063
739.9409	0.0035
740.1182	-0.0024
740.2955	0.0028
740.4728	-0.0012
740.65	0.0011
740.8272	-0.0023
741.0044	-0.0009
741.1816	0.0067
741.3588	0.0033
741.5359	-0.0013
741.7131	-0.0072
741.8902	0.0026
742.0673	0.0018
742.2444	-0.001
742.4214	-0.0087
742.5985	-0.0001
742.7755	0.0053
742.9525	-0.0166
743.1295	0.0072
743.3064	-0.007
743.4834	0.0009
743.6603	-0.0028
743.8372	0.001
744.0141	0.0034
744.191	0.0017
744.3678	-0.0049
744.5446	0.0125
744.7215	0.014
744.8982	-0.0053
745.075	-0.0114
745.2518	0.0011
745.4285	0.0053
745.6052	-0.0076
745.7819	-0.0058
745.9586	-0.0154
746.1353	-0.0025
746.3119	-0.017
746.4885	-0.0133
746.6651	-0.0144
746.8417	-0.0104
747.0183	-0.0072
747.1948	-0.0085
747.3714	-0.0112
747.5479	-0.0131
747.7244	-0.0122
747.9008	-0.0041
748.0773	-0.0072
748.2537	0.0004
748.4301	-0.018
748.6065	0.0003
748.7829	-0.001
748.9593	-0.0099
749.1356	0.0018
749.3119	0.0044
749.4882	-0.0178
749.6645	0.0117
749.8408	-0.001
750.017	-0.0065
750.1933	0.0045
750.3695	-0.0022
750.5457	0.0009
750.7218	-0.002
750.898	0.0034
751.0741	-0.0108
751.2502	-0.0059
751.4263	-0.0081
751.6024	-0.0069
751.7784	-0.0031
751.9545	-0.0058
752.1305	-0.0007
752.3065	-0.0063
752.4825	0.0047
752.6584	-0.0005
752.8344	-0.0047
753.0103	-0.0127
753.1862	0.004
753.3621	0.0005
753.5379	0.0008
753.7138	0.0091
753.8896	-0.0014
754.0654	-0.0001
754.2412	0.0002
754.417	-0.0032
754.5927	-0.0107
754.7685	0.0042
754.9442	0.003
755.1199	0.0065
755.2956	-0.0062
755.4712	0.0069
755.6469	0.0083
755.8225	0.0039
755.9981	0.005
756.1736	0.0069
756.3492	0.0079
756.5248	0.012
756.7003	0.0095
756.8758	0.0109
757.0513	-0.0027
757.2267	0.0054
757.4022	0.0059
757.5776	-0.0045
757.753	0.0037
757.9284	0.0063
758.1038	0.0088
758.2791	0.0015
758.4545	-0.0118
758.6298	-0.0002
758.8051	-0.007
758.9803	-0.0091
759.1556	-0.0044
759.3308	-0.0083
759.506	0.0077
759.6812	0.0115
759.8564	0.0033
760.0316	0.0009
760.2067	0.0089
760.3819	0.0095
760.557	0.0119
760.732	0.0089
760.9071	-0.0064
761.0821	0.0026
761.2572	0.0107
761.4322	-0.0017
761.6072	-0.0044
761.7821	-0.0053
761.9571	0.0097
762.132	-0.0054
762.3069	-0.0121
762.4818	-0.0037
762.6567	0.0008
762.8316	0.0103
763.0064	0.0012
763.1812	0.0043
763.356	-0.0123
763.5308	-0.0032
763.7055	0.0054
763.8803	-0.0002
764.055	-0.0003
764.2297	-0.0026
764.4044	-0.0065
764.579	-0.0052
764.7537	-0.0119
764.9283	-0.0081
765.1029	-0.0052
765.2775	-0.0044
765.4521	-0.02
765.6266	-0.0149
765.8011	-0.0036
765.9756	-0.0075
766.1501	0.0023
766.3246	-0.0002
766.4991	-0.0012
766.6735	0.0004
766.8479	-0.0065
767.0223	0.0118
767.1967	-0.0038
767.371	-0.009
767.5454	-0.0134
767.7197	-0.0016
767.894	-0.009
768.0683	-0.0093
768.2425	0.0029
768.4168	-0.0011
768.591	-0.0036
768.7652	0.0024
768.9394	-0.0007
769.1135	0.0009
769.2877	0.0058
769.4618	-0.0057
769.6359	-0.0068
769.81	0.0073
769.984	-0.0006
770.1581	-0.0089
770.3321	-0.0043
770.5061	-0
770.6801	-0.0058
770.8541	-0.0024
771.028	0.0096
771.202	-0.0158
771.3759	0.0018
771.5498	-0.0136
771.7236	0.0119
771.8975	0.0029
772.0713	-0.0009
772.2451	0.0068
772.4189	0.0137
772.5927	0.0072
772.7665	0.0041
772.9402	0.0016
773.1139	0.0023
773.2876	-0.0078
773.4613	0.0008
773.635	0.0022
773.8086	-0.0079
773.9822	0.0018
774.1558	0.0053
774.3294	-0.0197
774.503	0.0013
774.6765	-0.0008
774.8501	0.0103
775.0236	0.006
775.1971	0.0055
775.3705	-0.0048
775.544	0.0043
775.7174	-0.0167
775.8908	-0.0014
776.0642	-0.0018
776.2376	-0.0028
776.4109	-0.0004
776.5843	-0.0027
776.7576	0.0073
776.9309	0.0083
777.1041	0.0027
777.2774	0.0141
777.4506	-0.0107
777.6238	-0.0073
777.797	0.0014
777.9702	-0.0011
778.1434	0.0061
778.3165	-0.0177
778.4896	-0.0035
778.6627	0.0126
778.8358	-0.003
779.0089	-0.0049
779.1819	-0.0001
779.3549	0.0053
779.5279	0.0039
779.7009	-0.0023
779.8739	0.0011
780.0468	-0.0001
780.2197	-0.001
780.3926	-0.0002
780.5655	-0.0041
780.7384	-0.0123
780.9112	-0.0023
781.0841	0.0001
781.2569	-0.0077
781.4297	-0.0005
781.6024	0.004
781.7752	-0.0053
781.9479	0.0039
782.1206	-0.0072
782.2933	-0.0092
782.466	0.0015
782.6386	0.0008
782.8113	-0.0053
782.9839	0.0133
783.1565	0.0123
783.329	0.0027
783.5016	0.01
783.6741	0.0177
783.8466	0.0099
784.0191	0.0018
784.1916	0.0049
784.3641	0.0043
784.5365	-0.0028
784.7089	0.0035
784.8813	-0.0103
785.0537	0.0087
785.2261	-0.0043
785.3984	-0.0072
785.5707	-0.0038
785.743	0.0079
785.9153	0.0049
786.0876	-0.0003
786.2598	-0.0052
786.432	-0.0076
786.6042	0.0127
786.7764	-0.0024
786.9486	0.0126
787.1207	-0.0124
787.2928	0.0114
787.4649	-0.001
787.637	0.0123
787.8091	0.0048
787.9811	-0.0003
788.1532	-0.0014
788.3252	0.0065
788.4972	-0.0001
788.6691	0.0064
788.8411	0.0113
789.013	-0.0084
789.1849	0.0012
789.3568	-0.0133
789.5287	0.0073
789.7005	-0.0055
789.8723	0.0016
790.0442	0.0141
790.2159	-0.0042
790.3877	-0.0102
790.5595	-0.007
790.7312	0.0011
790.9029	0.0114
791.0746	0.0012
791.2463	0.0069
791.4179	0.0076
791.5896	-0.0186
791.7612	-0.0065
791.9328	0.0142
792.1044	-0.0088
792.2759	-0.0138
792.4474	0.0045
792.619	-0.0055
792.7905	0.0023
792.9619	-0.0003
793.1334	0.0101
793.3048	0.0282
793.4762	0.0067
793.6476	0.0039
793.819	-0.0113
793.9904	0.0086
794.1617	-0.001
794.333	-0.0027
794.5043	-0.0154
794.6756	-0.0077
794.8469	-0.0071
795.0181	0.0036
795.1893	-0.0074
795.3605	-0.008
795.5317	0.0039
795.7029	-0.0061
795.874	0.0088
796.0452	-0.0005
796.2163	-0.0122
796.3873	0.0089
796.5584	-0.0084
796.7294	0.0041
796.9005	0.0024
797.0715	0.0167
797.2425	-0.016
797.4134	-0.0018
797.5844	0.0093
797.7553	-0.0088
797.9262	0
798.0971	-0.0124
798.2679	0.0051
798.4388	-0.0165
798.6096	-0.0061
798.7804	0.0024
798.9512	-0.0136
799.122	-0.0073
799.2927	0.0062
799.4635	-0.0047
799.6342	-0.0305
799.8049	-0.0075
799.9755	-0.0035
800.1462	0.0108
800.3168	0.0169
800.4874	0.0119
800.658	0.0188
800.8286	0.0061
800.9991	0.0049
801.1696	0.0053
801.3402	0.0031
801.5106	-0.0043
801.6811	-0.0081
801.8516	0.0281
802.022	0.0135
802.1924	-0.002
802.3628	0.008
802.5332	0.0002
802.7035	0.0196
802.8739	-0.0113
803.0442	-0.0026
803.2145	0.0153
803.3847	-0.0065
803.555	0.0069
803.7252	-0.0221
803.8954	-0.0096
804.0656	-0.011
804.2358	-0.0022
804.4059	0.0162
804.5761	-0.0068
804.7462	-0.0216
804.9163	-0.0043
805.0864	-0.0163
805.2564	-0.0096
805.4264	0.0024
805.5965	-0.0029
805.7665	0.0159
805.9364	0.0155
806.1064	0.0254
806.2763	-0.0002
806.4462	0.024
806.6161	0.0039
806.786	0.0137
806.9559	-0.0099
807.1257	0.0222
807.2955	-0.0011
807.4653	0.0053
807.6351	-0.0119
807.8048	0.0035
807.9746	0.01
808.1443	0.0062
808.314	0.0109
808.4837	-0.0234
808.6533	-0.0106
808.8229	0.0128
808.9926	-0.0017
809.1622	0.0072
809.3317	-0.0165
809.5013	0.016
809.6708	0.0094
809.8403	0.004
810.0098	-0.0008
810.1793	0.016
810.3488	0.0073
810.5182	-0.0129
810.6876	0.0149
810.857	-0.0234
811.0264	0.0343
811.1958	-0.002
811.3651	0.0018
811.5344	-0.0003
811.7037	-0.0088
811.873	0.0079
812.0422	-0.0101
812.2115	0.0035
812.3807	-0.0071
812.5499	0.0333
812.7191	0.0153
812.8882	0.0006
813.0574	-0.0157
813.2265	0.0014
813.3956	-0.0125
813.5646	0.0053
813.7337	-0.0235
813.9027	0.0074
814.0718	0.031
814.2407	0.0215
814.4097	0.0014
814.5787	-0.0199
814.7476	0.0077
814.9165	0.0031
815.0854	-0.0241
815.2543	-0.0069
815.4232	-0.0051
815.592	0.0265
815.7608	-0.0009
815.9296	0.0029
816.0984	-0.0044
816.2671	0.0027
816.4359	0.0036
816.6046	-0.0081
816.7733	-0.0243
816.942	-0.0373
817.1106	-0.0054
817.2793	0.0057
817.4479	-0.0003
817.6165	0.0115
817.785	0.0154
817.9536	-0.0013
818.1221	-0.0149
818.2906	0.014
818.4591	-0.0186
818.6276	-0.005
818.7961	-0.0049
818.9645	-0.0066
819.1329	-0.0134
819.3013	0.0236
819.4697	0.0202
819.638	-0.0081
819.8064	0.001
819.9747	0.0269
820.143	0.0098
820.3113	-0.0086
820.4795	0.0135
820.6477	0.0193
820.816	0.0204
820.9842	0.0187
821.1523	0.008
821.3205	0.0064
821.4886	0.0055
821.6567	0.0065
821.8248	0.0327
821.9929	0.0263
822.1609	0.008
822.329	-0.006
822.497	0.0161
822.665	-0.0182
822.833	-0.0222
823.0009	0.0068
823.1688	0.0172
823.3367	0.0188
823.5046	0.0101
823.6725	0.0352
823.8404	0.0072
824.0082	0.0071
824.176	0.021
824.3438	0.0224
824.5116	-0.005
824.6793	0.0142
824.847	-0.0202
825.0147	-0.0009
825.1824	0.0267
825.3501	-0.0074
825.5177	-0.0267
825.6854	-0.0017
825.853	0.033
826.0206	-0.0023
826.1881	-0.0177
826.3557	-0.0262
826.5232	0.0128
826.6907	-0.0287
826.8582	-0.0023
827.0257	-0.026
827.1931	0.0096
827.3605	0.0009
827.528	0.0166
827.6953	-0.0103
827.8627	-0.0097
828.03	0.0585
828.1974	-0.007
828.3647	-0.0167
828.532	0.01
828.6992	-0.0245
828.8665	0.0236
829.0337	0.0133
829.2009	0.0127
829.3681	-0.0091
829.5352	0.0095
829.7024	-0.0169
829.8695	-0.036
830.0366	0.0588
830.2037	0.0067
830.3707	0.0207
830.5378	-0.0132
830.7048	-0.0425
830.8718	0.0099
831.0388	-0.0147
831.2057	0.013
831.3727	0.0341
831.5396	-0.0079
831.7065	0.0012
831.8734	0.0104
832.0402	-0.0237
832.2071	0.0017
832.3739	-0.0418
832.5407	-0.0377
832.7075	0.0006
832.8742	-0.0103
833.041	-0.0352
833.2077	-0.0006
833.3744	0.012
833.541	0.0098
833.7077	-0.0307
833.8743	0.0093
834.0409	0.0168
834.2075	0.0051
834.3741	-0.0309
834.5407	0.0276
834.7072	0.0221
834.8737	0.0007
835.0402	-0.004
835.2067	0.0466
835.3731	0.028
835.5395	-0.0006
835.706	0.0266
835.8723	-0.0043
836.0387	0.0388
836.2051	-0.011
836.3714	0.0034
836.5377	0.0076
836.704	0.0057
836.8703	0.0197
837.0365	0.0074
837.2027	-0.0045
837.3689	0.0359
837.5351	0.0335
837.7013	-0.0343
837.8674	-0.0238
838.0335	-0.0628
838.1997	-0.0032
838.3657	-0.0231
838.5318	-0.0213
838.6978	0.0593
838.8639	0.069
839.0299	0.0096
839.1958	0.0063
839.3618	0.032
839.5277	-0.0361
839.6937	0.037
839.8596	-0.0204
840.0254	-0.013
840.1913	-0.0008
840.3571	0.0691
840.523	-0.0568
840.6888	-0.0074
840.8545	0.0107
841.0203	0.0026
841.186	0.0508
841.3517	0.0584
841.5174	-0.0221
841.6831	0.0404
841.8488	0.0385
842.0144	-0.0161
842.18	0
842.3456	0.0192
842.5112	-0.012
842.6767	-0.0097
842.8422	-0.0126
843.0077	-0.0211
843.1732	-0.0137
843.3387	0.0581
843.5042	-0.0358
843.6696	-0.0721
843.835	0.0033
844.0004	0.0229
844.1657	0.0269
844.3311	-0.0153
844.4964	-0.0292
844.6617	-0.0311
844.827	0.0276
844.9923	0.0011
845.1575	-0.0094
845.3227	0.0189
845.4879	-0.0011
845.6531	-0.0222
845.8183	-0.0987
845.9834	0.0231
846.1485	-0.0385
846.3136	-0.0469
846.4787	-0.0729
846.6438	0.0121
846.8088	0.0209
846.9738	-0.0925
847.1388	-0.0403
847.3038	-0.0513
847.4687	-0.0582
847.6337	0.0611
847.7986	0.036
847.9635	-0.0285
848.1284	0.0476
848.2932	0.2055
848.458	0.0209
848.6228	0.0392
848.7876	0.0602
848.9524	0
849.1172	-0.0753
849.2819	0.0229
849.4466	0.0095
849.6113	-0.0086
849.7759	-0.0327
849.9406	-0.0168
850.1052	0.1004
850.2698	-0.0149
850.4344	0.0305
850.599	-0.0469
850.7635	0.0506
850.928	-0.0935
851.0925	0.0574
851.257	0.0838
851.4215	0.0296
851.5859	0.0438
851.7503	0.0844
851.9147	0.0396
852.0791	-0.0118
852.2434	-0.0204
852.4078	0.0509
852.5721	0.0148
852.7364	-0.0295
852.9007	-0.1313
853.0649	-0.0303
853.2291	-0.0561
853.3934	0.0046
853.5575	-0.0611
853.7217	-0.1464
853.8859	-0.1786
854.05	-0.0904
854.2141	0.0268
854.3782	-0.0917
854.5423	-0.089
854.7063	0.0944
854.8703	-0.0735
855.0343	0
855.1983	-0.2101
855.3623	0.1026
855.5262	0.0813
855.6901	-0.0306
855.854	-0.0082
856.0179	0.1018
856.1818	0.0659
856.3456	0.0244
856.5094	-0.1575
856.6732	-0.034
856.837	0.249
857.0008	-0.0377
857.1645	-0.0901
857.3282	0.0845
857.4919	0.1648
857.6556	0.1617
857.8192	0
857.9828	0.0982
858.1465	-0.0944
858.31	-0.0539
858.4736	-0.0627
858.6372	-0.2522
858.8007	-0.126
858.9642	0.0691
859.1277	0.0119
859.2911	0.1803
859.4546	0.0645
859.618	-0.2957
859.7814	-0.0824
859.9448	0.1305
860.1081	0.173
860.2715	0.1308
860.4348	0.2087
860.5981	-0.0185
860.7614	0.156
860.9246	-0.138
861.0879	-0.0762
861.2511	0.0557
861.4143	0.0809
861.5774	0.0898
861.7406	-0.286
861.9037	0.2376
862.0668	-0.1735
862.2299	0.0377
862.393	-0.5498
862.556	0.1197
862.7191	-0.2439
862.8821	-0.2287
863.0451	0.112
863.208	0.3534
863.371	0.201
863.5339	0.1985
863.6968	0.3102
863.8597	0.1639
864.0225	0.057
864.1854	0.3781
864.3482	-0
864.511	0.2547
864.6737	0.2999
864.8365	0.183
864.9992	-0.2989
865.1619	-0.286
865.3246	0.2448
865.4873	0.0413
865.65	-0.1319
865.8126	-0
865.9752	0.0222
866.1378	0.2537
866.3004	-0
866.4629	0.1157
866.6254	-0.0743
866.7879	2.433
866.9504	0.0261
867.1129	-0
867.2753	0.2352
867.4377	0.1233
867.6001	-0.2576
867.7625	0.0931
867.9249	-0
868.0872	0.9104
868.2495	-0.151
868.4118	-0.0839
868.5741	-0.2195
868.7363	0.284
868.8986	-0.0454
869.0608	-0.3432
869.223	0.3365
869.3851	0.3219
869.5473	-0
869.7094	0.4146
869.8715	-0.1234
870.0336	-0
870.1957	0.1519
870.3577	-1.0759
870.5197	-0.017
870.6817	0.2777
870.8437	-0.0734
871.0057	-0
871.1676	-0
871.3295	0.7587
871.4914	-0.6743
871.6533	-0.3495
871.8151	-0.5485
871.977	-0
872.1388	0.5568
872.3006	-0.3038
872.4623	-0
872.6241	0.1273
872.7858	-0
872.9475	-0.3992
873.1092	0.1288
873.2709	-0.0632
873.4325	-0.1955
873.5941	-0
873.7557	-0.8323
873.9173	-0
874.0789	-0
874.2404	-0
874.4019	0.0254
874.5634	0.0839
874.7249	-0.2814
874.8863	0.1921
875.0478	0.3582
875.2092	-0
875.3706	0.4104
875.5319	-0.6517
875.6933	-0
875.8546	-0.1352
876.0159	0.3513
876.1772	0.0827
876.3385	-0
876.4997	0.1266
876.6609	-0.0786
876.8221	-0
876.9833	-0
877.1445	-0
877.3056	0.4466
877.4667	-0
877.6278	-0
877.7889	-0.3634
877.9499	-0.9923
878.111	-0
878.272	-0
878.433	0.3573
878.5939	0.2378
878.7549	0.1751
878.9158	-0.6517
879.0767	-0
879.2376	-0
879.3984	0.4136
879.5593	-0
879.7201	0.5104
879.8809	-0.5002
880.0417	-0.4739
880.2024	-0
880.3632	-0
880.5239	-0
880.6846	-0
880.8452	-2.382
881.0059	-1.3541
881.1665	0.1593
881.3271	-0
881.4877	-0
881.6483	-0.5722
881.8088	-0.256
881.9693	1.5079
882.1298	1.5079
882.2903	1.5079
