Data from MonoPyChalIsomerACN10uM350nmA_Absorbance_14-35-38-714.txt Node
Date: Fri Jul 05 14:35:38 BST 2024
User: LASERRRRR
Spectrometer: FLMT03099
Trigger mode: 0
Integration Time (sec): 1.000000E-1
Scans to average: 1
Electric dark correction enabled: true
Nonlinearity correction enabled: false
Boxcar width: 0
XAxis mode: Wavelengths
Number of Pixels in Spectrum: 3648
>>>>>Begin Spectral Data<<<<<
179.3399	0.145
179.5586	0.145
179.7771	0.145
179.9957	0.1036
180.2143	-0.2808
180.4329	-0.3512
180.6514	-0
180.8699	0.3245
181.0885	-0.1108
181.307	-0.016
181.5255	-0
181.744	-0.2261
181.9625	-0
182.181	-0.8256
182.3994	1.8789
182.6179	-0
182.8363	0.045
183.0547	-0.1635
183.2732	0.1176
183.4916	-0.0475
183.71	-0.0457
183.9284	0.1845
184.1467	-0.1314
184.3651	-0.1283
184.5835	0.0361
184.8018	0.0722
185.0201	-0.0252
185.2385	0.064
185.4568	0.1042
185.6751	0.0217
185.8934	0.0798
186.1117	-0.1294
186.3299	0.0697
186.5482	-0.0103
186.7664	-0.197
186.9847	-0.147
187.2029	0.0398
187.4211	0.1527
187.6393	0.0254
187.8575	-0.1157
188.0757	0.3103
188.2939	0.1745
188.512	-0.0408
188.7302	-0.0912
188.9483	0.0739
189.1665	0.0145
189.3846	0.2906
189.6027	0.0576
189.8208	0.3652
190.0389	0.1672
190.257	0.0911
190.475	0.0897
190.6931	0.4244
190.9111	0.4733
191.1292	0.2146
191.3472	0.4263
191.5652	0.3283
191.7832	0.1064
192.0012	0.3212
192.2192	0.4905
192.4371	0.5522
192.6551	0.2562
192.873	0.4075
193.091	0.6094
193.3089	0.4983
193.5268	0.4164
193.7447	0.391
193.9626	0.4068
194.1805	0.5534
194.3984	0.6794
194.6162	0.544
194.8341	0.6495
195.0519	0.4023
195.2697	0.9577
195.4875	0.6305
195.7054	0.6759
195.9231	0.6385
196.1409	0.5391
196.3587	0.6465
196.5765	0.5793
196.7942	0.6511
197.012	0.6335
197.2297	0.5095
197.4474	0.6688
197.6651	0.6353
197.8828	0.4424
198.1005	0.4805
198.3182	0.5997
198.5358	0.8099
198.7535	0.6371
198.9711	0.49
199.1888	0.6878
199.4064	0.9606
199.624	0.7915
199.8416	0.5759
200.0592	0.6065
200.2767	0.6421
200.4943	0.6512
200.7119	0.6152
200.9294	0.5939
201.1469	0.6065
201.3645	0.5581
201.582	0.5198
201.7995	0.6392
202.017	0.5167
202.2344	0.6221
202.4519	0.6425
202.6694	0.5986
202.8868	0.6005
203.1042	0.7212
203.3217	0.722
203.5391	0.6488
203.7565	0.6067
203.9739	0.6532
204.1913	0.5793
204.4086	0.6337
204.626	0.7949
204.8433	0.6929
205.0607	0.629
205.278	0.6466
205.4953	0.539
205.7126	0.6446
205.9299	0.6834
206.1472	0.6811
206.3644	0.5371
206.5817	0.6959
206.7989	0.6408
207.0162	0.6156
207.2334	0.7877
207.4506	0.5927
207.6678	0.6451
207.885	0.6562
208.1022	0.6873
208.3194	0.7013
208.5365	0.6312
208.7537	0.6548
208.9708	0.597
209.1879	0.6228
209.405	0.6778
209.6222	0.6698
209.8392	0.6207
210.0563	0.5759
210.2734	0.5927
210.4905	0.6413
210.7075	0.6274
210.9245	0.5504
211.1416	0.6587
211.3586	0.5592
211.5756	0.6099
211.7926	0.5684
212.0096	0.5646
212.2265	0.598
212.4435	0.5977
212.6604	0.5513
212.8774	0.5813
213.0943	0.6116
213.3112	0.5288
213.5281	0.5539
213.745	0.5031
213.9619	0.4912
214.1788	0.4776
214.3956	0.4513
214.6125	0.4768
214.8293	0.4025
215.0461	0.4669
215.2629	0.4633
215.4798	0.4575
215.6965	0.4096
215.9133	0.4551
216.1301	0.4007
216.3469	0.4383
216.5636	0.419
216.7803	0.3982
216.9971	0.3956
217.2138	0.359
217.4305	0.3893
217.6472	0.3802
217.8639	0.3926
218.0805	0.3095
218.2972	0.3223
218.5138	0.327
218.7305	0.3034
218.9471	0.2947
219.1637	0.2956
219.3803	0.2668
219.5969	0.2677
219.8135	0.2331
220.0301	0.2825
220.2466	0.2994
220.4632	0.2549
220.6797	0.2538
220.8962	0.2299
221.1127	0.2516
221.3292	0.2252
221.5457	0.2485
221.7622	0.209
221.9787	0.2568
222.1951	0.2469
222.4116	0.2416
222.628	0.2295
222.8444	0.2596
223.0608	0.2227
223.2772	0.2715
223.4936	0.2578
223.71	0.2374
223.9264	0.2683
224.1427	0.2562
224.3591	0.2279
224.5754	0.2566
224.7917	0.2567
225.008	0.2621
225.2243	0.2359
225.4406	0.2852
225.6569	0.2822
225.8732	0.2445
226.0894	0.2544
226.3057	0.2714
226.5219	0.2853
226.7381	0.2596
226.9543	0.2723
227.1705	0.2795
227.3867	0.2845
227.6029	0.2887
227.8191	0.2795
228.0352	0.2705
228.2513	0.3019
228.4675	0.2946
228.6836	0.2789
228.8997	0.3105
229.1158	0.2986
229.3319	0.3181
229.548	0.3082
229.764	0.3201
229.9801	0.3227
230.1961	0.3107
230.4121	0.3309
230.6282	0.3309
230.8442	0.3137
231.0602	0.3554
231.2761	0.3314
231.4921	0.3408
231.7081	0.3374
231.924	0.3385
232.14	0.3729
232.3559	0.3487
232.5718	0.3556
232.7877	0.3429
233.0036	0.3468
233.2195	0.3698
233.4353	0.3592
233.6512	0.3606
233.867	0.3582
234.0829	0.3637
234.2987	0.3582
234.5145	0.3808
234.7303	0.3692
234.9461	0.3985
235.1619	0.3782
235.3776	0.3702
235.5934	0.3891
235.8091	0.3742
236.0249	0.3565
236.2406	0.3815
236.4563	0.3603
236.672	0.38
236.8877	0.4057
237.1034	0.3818
237.319	0.3895
237.5347	0.3815
237.7503	0.3799
237.966	0.4289
238.1816	0.418
238.3972	0.3994
238.6128	0.388
238.8284	0.4102
239.0439	0.4152
239.2595	0.3802
239.475	0.4001
239.6906	0.4224
239.9061	0.3956
240.1216	0.3944
240.3371	0.4174
240.5526	0.3714
240.7681	0.3926
240.9836	0.4006
241.199	0.3901
241.4145	0.384
241.6299	0.3819
241.8453	0.3585
242.0607	0.3895
242.2761	0.3707
242.4915	0.3696
242.7069	0.3713
242.9223	0.3527
243.1376	0.3419
243.353	0.3591
243.5683	0.3572
243.7836	0.3363
243.9989	0.3242
244.2142	0.301
244.4295	0.3128
244.6448	0.3101
244.86	0.3052
245.0753	0.2878
245.2905	0.2928
245.5057	0.2785
245.721	0.2711
245.9362	0.2655
246.1514	0.2783
246.3665	0.2448
246.5817	0.2598
246.7969	0.2669
247.012	0.252
247.2271	0.2425
247.4423	0.2355
247.6574	0.2344
247.8725	0.2392
248.0876	0.2285
248.3026	0.2333
248.5177	0.2128
248.7328	0.2263
248.9478	0.2072
249.1628	0.2291
249.3779	0.2161
249.5929	0.2034
249.8079	0.2077
250.0228	0.1957
250.2378	0.2023
250.4528	0.2022
250.6677	0.1776
250.8827	0.2019
251.0976	0.1925
251.3125	0.1979
251.5274	0.1847
251.7423	0.1808
251.9572	0.1791
252.172	0.1704
252.3869	0.1828
252.6017	0.1704
252.8166	0.1707
253.0314	0.1623
253.2462	0.1549
253.461	0.1735
253.6758	0.1733
253.8906	0.1705
254.1053	0.1654
254.3201	0.1634
254.5348	0.1765
254.7496	0.1718
254.9643	0.1838
255.179	0.1748
255.3937	0.1708
255.6083	0.1705
255.823	0.1651
256.0377	0.1654
256.2523	0.1667
256.467	0.1452
256.6816	0.1786
256.8962	0.169
257.1108	0.1536
257.3254	0.1769
257.54	0.1614
257.7545	0.1648
257.9691	0.17
258.1836	0.1558
258.3981	0.174
258.6127	0.1813
258.8272	0.1592
259.0417	0.1657
259.2561	0.1734
259.4706	0.1623
259.6851	0.1671
259.8995	0.16
260.114	0.1679
260.3284	0.1556
260.5428	0.1585
260.7572	0.1636
260.9716	0.1677
261.186	0.1495
261.4003	0.1647
261.6147	0.1553
261.829	0.1661
262.0433	0.1645
262.2577	0.1683
262.472	0.1754
262.6863	0.1658
262.9005	0.1639
263.1148	0.1722
263.3291	0.1496
263.5433	0.1623
263.7576	0.1571
263.9718	0.1654
264.186	0.1707
264.4002	0.151
264.6144	0.1638
264.8286	0.1826
265.0427	0.1669
265.2569	0.1579
265.471	0.1674
265.6851	0.1463
265.8993	0.1547
266.1134	0.159
266.3275	0.1564
266.5415	0.1569
266.7556	0.1594
266.9697	0.1627
267.1837	0.1556
267.3978	0.1653
267.6118	0.1714
267.8258	0.1836
268.0398	0.1528
268.2538	0.1742
268.4677	0.1684
268.6817	0.1535
268.8957	0.1618
269.1096	0.1589
269.3235	0.1599
269.5374	0.1537
269.7514	0.1464
269.9652	0.1477
270.1791	0.1476
270.393	0.1438
270.6068	0.1554
270.8207	0.1522
271.0345	0.1457
271.2483	0.1555
271.4622	0.1452
271.676	0.1504
271.8897	0.1371
272.1035	0.1399
272.3173	0.1353
272.531	0.1356
272.7448	0.1423
272.9585	0.1387
273.1722	0.1419
273.3859	0.1566
273.5996	0.1276
273.8133	0.1454
274.0269	0.1386
274.2406	0.1447
274.4542	0.1486
274.6679	0.1274
274.8815	0.1462
275.0951	0.154
275.3087	0.1542
275.5223	0.1468
275.7358	0.1473
275.9494	0.1513
276.1629	0.1351
276.3765	0.1399
276.59	0.1396
276.8035	0.1478
277.017	0.1357
277.2305	0.1375
277.444	0.1584
277.6574	0.1462
277.8709	0.1433
278.0843	0.1319
278.2978	0.1463
278.5112	0.1404
278.7246	0.1427
278.938	0.1336
279.1513	0.1549
279.3647	0.1585
279.5781	0.1544
279.7914	0.1465
280.0047	0.1569
280.2181	0.1493
280.4314	0.1639
280.6447	0.1423
280.8579	0.1472
281.0712	0.145
281.2845	0.1598
281.4977	0.1587
281.711	0.1546
281.9242	0.1425
282.1374	0.1547
282.3506	0.1552
282.5638	0.1499
282.7769	0.1607
282.9901	0.1594
283.2033	0.1588
283.4164	0.1608
283.6295	0.1411
283.8426	0.1611
284.0557	0.1568
284.2688	0.1649
284.4819	0.1538
284.695	0.1659
284.908	0.1544
285.1211	0.1414
285.3341	0.1567
285.5471	0.1574
285.7601	0.1503
285.9731	0.1558
286.1861	0.1501
286.3991	0.1584
286.612	0.1623
286.825	0.1643
287.0379	0.1591
287.2508	0.161
287.4637	0.155
287.6766	0.1574
287.8895	0.1652
288.1024	0.1785
288.3152	0.1668
288.5281	0.1542
288.7409	0.1658
288.9538	0.1694
289.1666	0.1615
289.3794	0.1517
289.5922	0.1574
289.8049	0.1642
290.0177	0.1737
290.2304	0.158
290.4432	0.1684
290.6559	0.16
290.8686	0.1743
291.0813	0.1631
291.294	0.1576
291.5067	0.1747
291.7194	0.1644
291.932	0.1762
292.1447	0.1742
292.3573	0.1499
292.5699	0.1604
292.7825	0.1683
292.9951	0.1569
293.2077	0.1562
293.4203	0.1702
293.6328	0.1486
293.8454	0.1691
294.0579	0.155
294.2704	0.1641
294.4829	0.1522
294.6954	0.1728
294.9079	0.155
295.1204	0.1634
295.3328	0.156
295.5453	0.1661
295.7577	0.1693
295.9701	0.1505
296.1825	0.1622
296.3949	0.1473
296.6073	0.1622
296.8197	0.1534
297.0321	0.1741
297.2444	0.144
297.4567	0.1595
297.6691	0.1672
297.8814	0.1561
298.0937	0.1601
298.306	0.1636
298.5182	0.1557
298.7305	0.1658
298.9428	0.1508
299.155	0.1573
299.3672	0.158
299.5794	0.1569
299.7916	0.1494
300.0038	0.166
300.216	0.1694
300.4282	0.1612
300.6403	0.1605
300.8525	0.1726
301.0646	0.1556
301.2767	0.1675
301.4888	0.1537
301.7009	0.1632
301.913	0.163
302.125	0.1746
302.3371	0.1609
302.5491	0.1598
302.7612	0.1623
302.9732	0.1675
303.1852	0.1659
303.3972	0.1682
303.6092	0.157
303.8211	0.156
304.0331	0.1424
304.245	0.1448
304.457	0.1651
304.6689	0.1541
304.8808	0.1561
305.0927	0.1365
305.3046	0.148
305.5164	0.1589
305.7283	0.1479
305.9401	0.1518
306.152	0.1466
306.3638	0.1514
306.5756	0.1408
306.7874	0.1516
306.9992	0.1453
307.2109	0.1431
307.4227	0.1238
307.6344	0.1431
307.8462	0.1427
308.0579	0.1323
308.2696	0.1206
308.4813	0.1327
308.693	0.1293
308.9046	0.1374
309.1163	0.1335
309.328	0.1329
309.5396	0.1161
309.7512	0.1128
309.9628	0.1208
310.1744	0.1247
310.386	0.1178
310.5976	0.1238
310.8091	0.1226
311.0207	0.1144
311.2322	0.1152
311.4437	0.1068
311.6552	0.1127
311.8667	0.1081
312.0782	0.1145
312.2897	0.0961
312.5012	0.1165
312.7126	0.0953
312.924	0.1038
313.1355	0.1171
313.3469	0.1059
313.5583	0.1031
313.7696	0.1033
313.981	0.1115
314.1924	0.0954
314.4037	0.1156
314.6151	0.1069
314.8264	0.0974
315.0377	0.1024
315.249	0.0987
315.4603	0.1126
315.6716	0.0963
315.8828	0.0957
316.0941	0.0948
316.3053	0.0972
316.5165	0.1003
316.7277	0.0956
316.9389	0.1077
317.1501	0.0912
317.3613	0.1131
317.5724	0.0837
317.7836	0.1008
317.9947	0.0993
318.2058	0.1051
318.417	0.0817
318.6281	0.0895
318.8391	0.0973
319.0502	0.0958
319.2613	0.0973
319.4723	0.1027
319.6834	0.1072
319.8944	0.0926
320.1054	0.1011
320.3164	0.1004
320.5274	0.089
320.7383	0.0973
320.9493	0.0962
321.1602	0.105
321.3712	0.0913
321.5821	0.1008
321.793	0.1062
322.0039	0.0915
322.2148	0.0918
322.4257	0.1031
322.6365	0.1107
322.8474	0.1064
323.0582	0.1005
323.269	0.1011
323.4798	0.1078
323.6906	0.0969
323.9014	0.1026
324.1122	0.1113
324.3229	0.0977
324.5337	0.1069
324.7444	0.0904
324.9551	0.1224
325.1658	0.1005
325.3765	0.1102
325.5872	0.1066
325.7979	0.0999
326.0085	0.1035
326.2192	0.0944
326.4298	0.1058
326.6404	0.0971
326.851	0.0878
327.0616	0.0994
327.2722	0.0988
327.4828	0.1123
327.6933	0.0999
327.9039	0.1066
328.1144	0.1083
328.3249	0.1099
328.5354	0.0957
328.7459	0.1057
328.9564	0.0814
329.1669	0.0965
329.3773	0.1038
329.5878	0.1057
329.7982	0.1107
330.0086	0.1013
330.219	0.1104
330.4294	0.109
330.6398	0.1014
330.8502	0.095
331.0605	0.1077
331.2708	0.1073
331.4812	0.1035
331.6915	0.1109
331.9018	0.112
332.1121	0.0949
332.3224	0.1038
332.5326	0.1044
332.7429	0.1187
332.9531	0.1167
333.1633	0.1198
333.3735	0.1056
333.5837	0.1121
333.7939	0.1028
334.0041	0.1117
334.2143	0.1194
334.4244	0.1134
334.6346	0.0954
334.8447	0.121
335.0548	0.1032
335.2649	0.1082
335.475	0.1125
335.685	0.0975
335.8951	0.1163
336.1051	0.1145
336.3152	0.1134
336.5252	0.0976
336.7352	0.1158
336.9452	0.1103
337.1552	0.1167
337.3652	0.1115
337.5751	0.1125
337.7851	0.1249
337.995	0.1049
338.2049	0.1176
338.4148	0.1137
338.6247	0.1206
338.8346	0.0999
339.0445	0.1105
339.2543	0.1093
339.4642	0.1162
339.674	0.1145
339.8838	0.1201
340.0936	0.1122
340.3034	0.128
340.5132	0.1138
340.7229	0.1212
340.9327	0.1126
341.1424	0.1158
341.3522	0.1279
341.5619	0.126
341.7716	0.1151
341.9813	0.1099
342.1909	0.1132
342.4006	0.1269
342.6102	0.1298
342.8199	0.1165
343.0295	0.1268
343.2391	0.1215
343.4487	0.1256
343.6583	0.1156
343.8679	0.1229
344.0774	0.1286
344.287	0.1194
344.4965	0.113
344.706	0.1382
344.9155	0.1299
345.125	0.1255
345.3345	0.1277
345.544	0.1206
345.7534	0.1271
345.9629	0.118
346.1723	0.127
346.3817	0.1282
346.5911	0.115
346.8005	0.1243
347.0099	0.1282
347.2193	0.1339
347.4286	0.126
347.638	0.1329
347.8473	0.1427
348.0566	0.1385
348.2659	0.1322
348.4752	0.1379
348.6845	0.1374
348.8937	0.1362
349.103	0.1396
349.3122	0.1307
349.5214	0.1365
349.7306	0.1377
349.9398	0.1317
350.149	0.1351
350.3582	0.1366
350.5674	0.1481
350.7765	0.1332
350.9856	0.1421
351.1948	0.1525
351.4039	0.1319
351.613	0.1261
351.822	0.1506
352.0311	0.1409
352.2402	0.1301
352.4492	0.1347
352.6582	0.162
352.8672	0.1489
353.0762	0.1508
353.2852	0.1474
353.4942	0.1363
353.7032	0.1552
353.9121	0.1405
354.1211	0.1554
354.33	0.1464
354.5389	0.1464
354.7478	0.1468
354.9567	0.15
355.1655	0.1352
355.3744	0.1619
355.5833	0.1596
355.7921	0.1644
356.0009	0.1654
356.2097	0.1729
356.4185	0.1728
356.6273	0.1542
356.8361	0.1589
357.0448	0.1458
357.2536	0.1518
357.4623	0.156
357.671	0.1589
357.8797	0.1644
358.0884	0.1694
358.2971	0.1604
358.5057	0.1572
358.7144	0.1743
358.923	0.1622
359.1316	0.1764
359.3402	0.1744
359.5488	0.1751
359.7574	0.1617
359.966	0.1836
360.1746	0.1966
360.3831	0.1657
360.5916	0.1727
360.8002	0.1653
361.0087	0.171
361.2172	0.1791
361.4256	0.1779
361.6341	0.1813
361.8426	0.1658
362.051	0.193
362.2594	0.1814
362.4678	0.175
362.6762	0.195
362.8846	0.18
363.093	0.1789
363.3014	0.1925
363.5097	0.1838
363.718	0.1783
363.9264	0.1799
364.1347	0.1749
364.343	0.1919
364.5513	0.198
364.7595	0.1882
364.9678	0.1831
365.176	0.1883
365.3842	0.1912
365.5925	0.1899
365.8007	0.1949
366.0089	0.1984
366.217	0.1831
366.4252	0.2165
366.6333	0.2077
366.8415	0.2106
367.0496	0.1881
367.2577	0.2191
367.4658	0.2223
367.6739	0.2029
367.882	0.2325
368.09	0.1996
368.2981	0.2117
368.5061	0.1956
368.7141	0.2018
368.9221	0.2099
369.1301	0.2124
369.3381	0.1934
369.5461	0.2006
369.754	0.2288
369.962	0.2145
370.1699	0.209
370.3778	0.2251
370.5857	0.1875
370.7936	0.2221
371.0015	0.223
371.2093	0.2114
371.4172	0.2144
371.625	0.2159
371.8328	0.2255
372.0406	0.219
372.2484	0.2185
372.4562	0.2201
372.664	0.2339
372.8717	0.225
373.0795	0.195
373.2872	0.2052
373.4949	0.2175
373.7026	0.2365
373.9103	0.2307
374.118	0.2326
374.3256	0.2192
374.5333	0.2248
374.7409	0.2332
374.9485	0.2416
375.1561	0.2204
375.3637	0.2387
375.5713	0.2217
375.7789	0.2292
375.9864	0.2251
376.194	0.2298
376.4015	0.2459
376.609	0.2383
376.8165	0.2295
377.024	0.2335
377.2315	0.2243
377.4389	0.2267
377.6464	0.2374
377.8538	0.2399
378.0612	0.2394
378.2686	0.2313
378.476	0.2527
378.6834	0.2467
378.8908	0.2416
379.0981	0.2342
379.3055	0.2493
379.5128	0.2239
379.7201	0.2319
379.9274	0.247
380.1347	0.2316
380.342	0.2676
380.5492	0.2486
380.7565	0.2364
380.9637	0.2686
381.1709	0.2348
381.3781	0.2514
381.5853	0.2576
381.7925	0.2471
381.9997	0.2526
382.2068	0.2646
382.4139	0.2454
382.6211	0.2499
382.8282	0.2587
383.0353	0.2446
383.2424	0.2307
383.4494	0.2444
383.6565	0.24
383.8635	0.2538
384.0706	0.258
384.2776	0.2571
384.4846	0.2468
384.6916	0.2567
384.8986	0.2543
385.1055	0.251
385.3125	0.2609
385.5194	0.2497
385.7263	0.259
385.9333	0.2566
386.1402	0.2527
386.347	0.2386
386.5539	0.2451
386.7608	0.2702
386.9676	0.2344
387.1744	0.2567
387.3813	0.2458
387.5881	0.258
387.7948	0.2478
388.0016	0.2495
388.2084	0.2569
388.4151	0.2375
388.6219	0.2547
388.8286	0.252
389.0353	0.248
389.242	0.2475
389.4487	0.2443
389.6553	0.2296
389.862	0.2173
390.0686	0.2307
390.2753	0.2447
390.4819	0.2461
390.6885	0.2393
390.8951	0.2427
391.1016	0.2344
391.3082	0.2282
391.5147	0.238
391.7213	0.2247
391.9278	0.2287
392.1343	0.2287
392.3408	0.2323
392.5473	0.2243
392.7537	0.2185
392.9602	0.2201
393.1666	0.2295
393.373	0.228
393.5794	0.2333
393.7858	0.2306
393.9922	0.2044
394.1986	0.2275
394.4049	0.2348
394.6113	0.2044
394.8176	0.2171
395.0239	0.2343
395.2302	0.2192
395.4365	0.2228
395.6428	0.2364
395.8491	0.2083
396.0553	0.2189
396.2615	0.2152
396.4678	0.214
396.674	0.2131
396.8802	0.2216
397.0863	0.2346
397.2925	0.209
397.4987	0.2183
397.7048	0.1968
397.9109	0.2119
398.117	0.2076
398.3231	0.2009
398.5292	0.2152
398.7353	0.217
398.9413	0.2042
399.1474	0.2174
399.3534	0.2167
399.5594	0.1892
399.7654	0.2097
399.9714	0.2235
400.1774	0.2019
400.3833	0.2087
400.5893	0.2046
400.7952	0.1954
401.0011	0.2124
401.207	0.2168
401.4129	0.2001
401.6188	0.2233
401.8247	0.2021
402.0305	0.2083
402.2364	0.2226
402.4422	0.2302
402.648	0.2158
402.8538	0.2239
403.0596	0.1912
403.2654	0.2166
403.4711	0.1896
403.6768	0.2209
403.8826	0.2201
404.0883	0.2038
404.294	0.2278
404.4997	0.2073
404.7054	0.2192
404.911	0.1898
405.1167	0.2072
405.3223	0.2269
405.5279	0.2208
405.7335	0.2255
405.9391	0.2158
406.1447	0.2092
406.3502	0.2251
406.5558	0.2094
406.7613	0.2142
406.9668	0.2141
407.1724	0.1998
407.3778	0.2076
407.5833	0.2004
407.7888	0.2015
407.9942	0.2156
408.1997	0.1981
408.4051	0.208
408.6105	0.2114
408.8159	0.1994
409.0213	0.2039
409.2267	0.2166
409.432	0.1924
409.6374	0.2044
409.8427	0.1937
410.048	0.2095
410.2533	0.2343
410.4586	0.1979
410.6639	0.1775
410.8691	0.1865
411.0744	0.2057
411.2796	0.1896
411.4848	0.1981
411.69	0.1968
411.8952	0.2052
412.1004	0.1957
412.3056	0.2085
412.5107	0.1978
412.7158	0.2154
412.921	0.2059
413.1261	0.1968
413.3312	0.1985
413.5362	0.2032
413.7413	0.1932
413.9464	0.2047
414.1514	0.1913
414.3564	0.1941
414.5614	0.1852
414.7664	0.1985
414.9714	0.2033
415.1764	0.2062
415.3813	0.2297
415.5863	0.1934
415.7912	0.2103
415.9961	0.2163
416.201	0.1973
416.4059	0.2088
416.6108	0.198
416.8156	0.202
417.0205	0.1938
417.2253	0.1804
417.4301	0.2061
417.6349	0.1846
417.8397	0.191
418.0445	0.2232
418.2492	0.2036
418.454	0.194
418.6587	0.1865
418.8634	0.1849
419.0681	0.1956
419.2728	0.2051
419.4775	0.1844
419.6822	0.1769
419.8868	0.1722
420.0915	0.1892
420.2961	0.1726
420.5007	0.1688
420.7053	0.1891
420.9099	0.2033
421.1144	0.1909
421.319	0.1805
421.5235	0.1754
421.728	0.19
421.9325	0.1923
422.137	0.2025
422.3415	0.1744
422.546	0.1896
422.7504	0.1801
422.9549	0.1733
423.1593	0.192
423.3637	0.2003
423.5681	0.1901
423.7725	0.1725
423.9769	0.1678
424.1812	0.1625
424.3856	0.1734
424.5899	0.1842
424.7942	0.1666
424.9985	0.1644
425.2028	0.1685
425.4071	0.1902
425.6113	0.1656
425.8156	0.1906
426.0198	0.1868
426.224	0.1434
426.4282	0.1688
426.6324	0.1691
426.8366	0.1567
427.0407	0.1629
427.2449	0.1631
427.449	0.1666
427.6531	0.1478
427.8572	0.1539
428.0613	0.1572
428.2654	0.1463
428.4694	0.1602
428.6735	0.1332
428.8775	0.1628
429.0815	0.1631
429.2855	0.1357
429.4895	0.1487
429.6935	0.1506
429.8975	0.1464
430.1014	0.1353
430.3053	0.1298
430.5093	0.1506
430.7132	0.1363
430.9171	0.1345
431.1209	0.1495
431.3248	0.1353
431.5286	0.1369
431.7325	0.1344
431.9363	0.1354
432.1401	0.1353
432.3439	0.1192
432.5477	0.1089
432.7514	0.1205
432.9552	0.1404
433.1589	0.1064
433.3627	0.1072
433.5664	0.1102
433.7701	0.1023
433.9737	0.1199
434.1774	0.109
434.3811	0.1123
434.5847	0.1038
434.7883	0.1089
434.9919	0.1028
435.1955	0.1101
435.3991	0.1089
435.6027	0.1121
435.8062	0.0918
436.0098	0.0904
436.2133	0.1015
436.4168	0.0968
436.6203	0.0989
436.8238	0.1112
437.0272	0.103
437.2307	0.0974
437.4341	0.091
437.6375	0.1155
437.841	0.0701
438.0443	0.0885
438.2477	0.0906
438.4511	0.0938
438.6545	0.0898
438.8578	0.0938
439.0611	0.0809
439.2644	0.0782
439.4677	0.0732
439.671	0.0714
439.8743	0.0718
440.0775	0.0663
440.2808	0.0618
440.484	0.0747
440.6872	0.0682
440.8904	0.0679
441.0936	0.0981
441.2967	0.0715
441.4999	0.0825
441.703	0.0606
441.9062	0.0698
442.1093	0.059
442.3124	0.0792
442.5155	0.049
442.7185	0.0663
442.9216	0.0383
443.1246	0.0608
443.3276	0.047
443.5307	0.0452
443.7337	0.0566
443.9366	0.0513
444.1396	0.0634
444.3426	0.0601
444.5455	0.0431
444.7484	0.0437
444.9513	0.0428
445.1542	0.0558
445.3571	0.0522
445.56	0.0573
445.7628	0.0424
445.9657	0.0422
446.1685	0.0586
446.3713	0.0438
446.5741	0.0518
446.7769	0.033
446.9797	0.0334
447.1824	0.0389
447.3852	0.0365
447.5879	0.0504
447.7906	0.0279
447.9933	0.0438
448.196	0.0349
448.3986	0.0417
448.6013	0.025
448.8039	0.0213
449.0066	0.0373
449.2092	0.0307
449.4118	0.0414
449.6143	0.0355
449.8169	0.0238
450.0195	0.0103
450.222	0.0096
450.4245	0.0134
450.627	0.0279
450.8295	0.0293
451.032	0.0223
451.2345	0.0246
451.4369	0.0244
451.6394	0.0135
451.8418	0.0047
452.0442	0.026
452.2466	0.0367
452.449	0.003
452.6513	0.0266
452.8537	0.0033
453.056	0.0074
453.2583	0.0079
453.4607	0.0094
453.663	0.0145
453.8652	0.0287
454.0675	0.0083
454.2697	0.0191
454.472	0.0061
454.6742	0.0151
454.8764	0.0118
455.0786	0.031
455.2808	0.0071
455.4829	0.0064
455.6851	0.0198
455.8872	0.0067
456.0893	0.0128
456.2915	-0.0026
456.4935	0.0184
456.6956	-0.0072
456.8977	0.0032
457.0997	0.018
457.3018	0.0008
457.5038	0.0202
457.7058	-0.0024
457.9078	0.0169
458.1098	0.0129
458.3117	-0.0033
458.5137	0.0151
458.7156	0.0026
458.9175	0.0009
459.1194	0.0037
459.3213	0.0097
459.5232	-0.0043
459.725	-0.005
459.9269	0.0091
460.1287	0.0028
460.3305	-0.0024
460.5323	0.004
460.7341	0.0093
460.9359	0.0079
461.1376	0.01
461.3394	0.0004
461.5411	0.0084
461.7428	0.0013
461.9445	0.0183
462.1462	0.026
462.3479	0.0069
462.5495	0.0114
462.7512	0.0091
462.9528	-0.0049
463.1544	0.0065
463.356	0.0015
463.5576	0.0048
463.7592	-0.0031
463.9607	-0.0026
464.1623	0.0183
464.3638	0.0194
464.5653	-0.0101
464.7668	0.0053
464.9683	0.0055
465.1697	0.018
465.3712	-0.0075
465.5726	-0.0015
465.7741	0.0079
465.9755	-0.0068
466.1769	0.0151
466.3782	0.0034
466.5796	-0.0118
466.7809	-0.0002
466.9823	-0.0042
467.1836	0.0004
467.3849	-0.0048
467.5862	-0.0015
467.7875	-0.0041
467.9887	0.0091
468.19	-0.0058
468.3912	-0.012
468.5924	-0.0087
468.7936	-0.0141
468.9948	0.0091
469.196	0.0029
469.3972	-0.0103
469.5983	-0.0083
469.7994	-0.0134
470.0006	-0.0096
470.2017	-0.0217
470.4027	-0.0185
470.6038	0.0025
470.8049	-0.0181
471.0059	-0.0068
471.2069	-0.0216
471.408	0.0078
471.6089	0.0142
471.8099	0.0168
472.0109	0.0074
472.2119	-0.0103
472.4128	-0.0262
472.6137	0.0001
472.8146	-0.01
473.0155	-0.0185
473.2164	-0.0085
473.4173	0.0026
473.6181	-0.0064
473.819	-0.004
474.0198	0.0049
474.2206	0.0066
474.4214	-0.0021
474.6222	0.0002
474.8229	-0.0176
475.0237	-0.0191
475.2244	-0.0086
475.4251	-0.0072
475.6258	0.0014
475.8265	0.0027
476.0272	0.0069
476.2278	0.0027
476.4285	0.003
476.6291	0.0005
476.8297	-0.0047
477.0303	0.0051
477.2309	-0.0061
477.4315	-0.0253
477.632	0.0016
477.8326	-0.0028
478.0331	0.0136
478.2336	-0.0002
478.4341	-0.0006
478.6346	0.0035
478.8351	-0.0057
479.0355	-0.0046
479.236	-0.0188
479.4364	0.0018
479.6368	0.0016
479.8372	-0.0071
480.0376	0.0022
480.2379	-0.0254
480.4383	-0.0086
480.6386	0.0003
480.8389	0.001
481.0392	-0.0078
481.2395	-0.0123
481.4398	-0.0006
481.6401	0.0044
481.8403	0.0005
482.0405	-0.0157
482.2408	0.0019
482.441	0.0034
482.6411	-0.0027
482.8413	-0.011
483.0415	-0.0056
483.2416	-0.018
483.4417	-0.0111
483.6419	-0.0093
483.8419	-0.0028
484.042	0.0027
484.2421	0.0004
484.4422	0.005
484.6422	-0.0002
484.8422	0.0008
485.0422	-0.0111
485.2422	0.0005
485.4422	-0.009
485.6422	-0.0099
485.8421	-0.0066
486.042	0.0047
486.242	-0.0016
486.4419	-0.008
486.6417	-0.0125
486.8416	-0.0025
487.0415	-0.0016
487.2413	-0.0133
487.4411	-0.0009
487.641	-0.011
487.8408	0.0034
488.0405	-0.0078
488.2403	-0.0084
488.4401	-0.004
488.6398	-0.005
488.8395	-0.0122
489.0392	0.0045
489.2389	-0.0088
489.4386	-0.0049
489.6383	-0.0009
489.8379	0.001
490.0376	-0.012
490.2372	-0.0034
490.4368	-0.0059
490.6364	-0.0105
490.836	-0.0014
491.0355	0.0008
491.2351	-0.0063
491.4346	-0.0057
491.6341	-0.0118
491.8336	-0.0027
492.0331	-0.0113
492.2326	-0.0113
492.432	-0.0086
492.6315	-0.0097
492.8309	-0.0165
493.0303	-0.014
493.2297	-0.0077
493.4291	-0.0098
493.6284	0.0009
493.8278	0.0006
494.0271	-0.0087
494.2264	0.0037
494.4257	-0.0087
494.625	-0.0123
494.8243	-0.0071
495.0236	-0.013
495.2228	-0.0105
495.422	-0.005
495.6213	-0.0065
495.8205	-0.0036
496.0196	-0.0045
496.2188	0.0067
496.418	-0.0117
496.6171	-0.0092
496.8162	-0.0104
497.0153	-0.0102
497.2144	-0.0224
497.4135	0.0048
497.6126	-0.0143
497.8116	-0.0138
498.0107	0.005
498.2097	-0.0124
498.4087	-0.0073
498.6077	-0.0036
498.8067	-0.0125
499.0056	0.0042
499.2046	-0.0117
499.4035	-0.0163
499.6024	-0.0068
499.8013	-0.0041
500.0002	-0.0033
500.199	-0.0119
500.3979	-0.0158
500.5967	-0.0213
500.7956	0.001
500.9944	-0.0133
501.1932	-0.009
501.3919	-0.0089
501.5907	-0.0116
501.7895	-0.0009
501.9882	-0.0167
502.1869	-0.0119
502.3856	-0.0118
502.5843	-0.0128
502.783	-0.0021
502.9816	-0.0016
503.1803	-0.0103
503.3789	-0.0136
503.5775	-0.0009
503.7761	-0.0076
503.9747	-0.0024
504.1732	-0.0134
504.3718	-0.0082
504.5703	-0.0134
504.7689	-0.0089
504.9674	-0.0026
505.1658	-0.0104
505.3643	0.0033
505.5628	-0.0071
505.7612	-0.0093
505.9597	0.0065
506.1581	-0.0141
506.3565	0.0045
506.5549	-0.0096
506.7532	-0.019
506.9516	-0.0032
507.1499	-0.0039
507.3482	-0.0058
507.5465	-0.0044
507.7448	-0.0147
507.9431	-0.0027
508.1414	0.0054
508.3396	-0.0084
508.5379	0.0016
508.7361	-0.0111
508.9343	-0.0002
509.1325	0.0025
509.3306	-0.0094
509.5288	-0.0086
509.7269	-0.0062
509.9251	0.0088
510.1232	-0.0119
510.3213	-0.0047
510.5193	-0.0012
510.7174	-0.0109
510.9154	-0.0106
511.1135	-0.0049
511.3115	-0.0084
511.5095	-0.0012
511.7075	0.0011
511.9055	-0.0094
512.1034	-0.006
512.3014	-0.0044
512.4993	-0.004
512.6972	-0.0088
512.8951	-0.0221
513.093	0.0024
513.2908	-0.0019
513.4887	-0.0111
513.6865	-0.0095
513.8844	-0.0128
514.0822	-0.0182
514.2799	-0.0102
514.4777	-0.01
514.6755	-0.0121
514.8732	-0.0101
515.0709	-0.0026
515.2687	-0.0124
515.4664	-0.0051
515.664	-0.0045
515.8617	-0.0123
516.0594	-0.0109
516.257	-0.0126
516.4546	-0.0176
516.6522	-0.0011
516.8498	0.0038
517.0474	0.0045
517.2449	0.0007
517.4425	-0.0103
517.64	-0.0049
517.8375	-0.0023
518.035	-0.0017
518.2325	-0.0012
518.43	-0.0156
518.6274	-0.0094
518.8249	-0.0232
519.0223	0.0063
519.2197	-0.0082
519.4171	-0.0072
519.6145	-0.0114
519.8118	0.0002
520.0092	-0.0088
520.2065	-0.0084
520.4038	-0.0157
520.6011	-0.0121
520.7984	-0.0079
520.9956	-0.0105
521.1929	-0.0106
521.3901	-0.0027
521.5874	-0.0101
521.7846	-0.0046
521.9818	-0.0095
522.1789	-0.0069
522.3761	-0.0008
522.5732	0.003
522.7704	-0.0125
522.9675	-0.0129
523.1646	-0.0139
523.3617	-0.0032
523.5587	-0.011
523.7558	-0.0018
523.9528	-0.0077
524.1498	-0.0008
524.3468	-0.0101
524.5438	-0.0117
524.7408	-0.0113
524.9378	0.0024
525.1347	-0.0068
525.3316	-0.0103
525.5285	-0.0067
525.7254	-0.0013
525.9223	-0.0029
526.1192	-0.002
526.316	-0.0069
526.5129	-0.0058
526.7097	-0.0028
526.9065	-0.0011
527.1033	-0.0057
527.3	-0
527.4968	-0.0084
527.6935	0.0004
527.8903	-0.0049
528.087	-0.005
528.2837	-0.0066
528.4804	0.001
528.677	-0.0046
528.8737	-0
529.0703	-0.004
529.2669	-0.0068
529.4635	-0.008
529.6601	-0.0012
529.8567	-0.003
530.0532	-0.005
530.2498	0.0033
530.4463	-0.0078
530.6428	-0.0118
530.8393	0.0075
531.0358	-0.0004
531.2322	-0.0075
531.4287	-0.0068
531.6251	-0.0063
531.8215	0.0092
532.0179	-0.0037
532.2143	0.0045
532.4107	-0.0042
532.607	-0.0075
532.8034	-0.0095
532.9997	0.0047
533.196	-0.0046
533.3923	-0.0132
533.5886	-0.004
533.7848	0.0025
533.9811	0.0025
534.1773	-0.0021
534.3735	0.0047
534.5697	0.0036
534.7659	-0.0024
534.9621	0.0063
535.1582	-0.0114
535.3544	-0.0066
535.5505	-0.0022
535.7466	-0.0062
535.9427	-0.0023
536.1387	-0.0047
536.3348	-0.0078
536.5308	-0.0016
536.7269	-0.0131
536.9229	0.0009
537.1189	-0.0056
537.3148	0.0001
537.5108	-0.0138
537.7068	-0.0024
537.9027	0.0102
538.0986	-0.0117
538.2945	-0.0131
538.4904	-0
538.6863	-0.0067
538.8821	-0.0075
539.078	-0.0142
539.2738	-0.0069
539.4696	-0.0124
539.6654	0.0036
539.8611	0.0089
540.0569	-0.0025
540.2526	-0.0052
540.4484	0.0038
540.6441	0.0024
540.8398	-0.0029
541.0355	0.0017
541.2311	-0.0038
541.4268	-0.0074
541.6224	0.0022
541.818	-0.0035
542.0136	-0.0074
542.2092	-0.0043
542.4048	0.001
542.6003	0.0052
542.7959	0.0003
542.9914	-0.0082
543.1869	-0.0015
543.3824	-0.0065
543.5779	-0.0018
543.7734	-0.0077
543.9688	-0.0142
544.1642	0.0018
544.3596	-0.0008
544.555	-0.0069
544.7504	-0.0054
544.9458	-0.0027
545.1411	-0.0013
545.3365	-0.0074
545.5318	-0.0018
545.7271	-0.0076
545.9224	-0.0107
546.1177	0.0015
546.3129	0.0032
546.5081	-0.0088
546.7034	-0.0052
546.8986	-0.0105
547.0938	-0.0113
547.289	-0.0045
547.4841	-0.0054
547.6793	0.0023
547.8744	-0.0065
548.0695	-0.0062
548.2646	-0.0094
548.4597	0.0118
548.6548	-0.0067
548.8498	0.0003
549.0448	0.0029
549.2399	0.0013
549.4349	0.0134
549.6298	0.0024
549.8248	0.0024
550.0198	-0.0025
550.2147	-0.0054
550.4096	-0.0104
550.6045	0.0035
550.7994	-0.0022
550.9943	-0.0037
551.1892	-0.0093
551.384	-0.0008
551.5788	-0.0133
551.7737	-0.0024
551.9685	-0.0016
552.1632	0.0008
552.358	-0.0013
552.5528	-0.0019
552.7475	-0.0064
552.9422	0
553.1369	0.0036
553.3316	0.0055
553.5263	-0.0101
553.7209	0.0039
553.9156	-0.0026
554.1102	-0.0094
554.3048	-0.0095
554.4994	0.0039
554.694	0.0009
554.8885	0.006
555.0831	-0.0121
555.2776	-0.0052
555.4721	-0.0053
555.6666	-0.0032
555.8611	0.0008
556.0555	-0.0049
556.25	-0.0073
556.4444	-0.0123
556.6388	-0.0013
556.8332	-0
557.0276	-0.0026
557.222	-0.0067
557.4163	-0.0058
557.6107	-0.0069
557.805	0.0035
557.9993	-0.0072
558.1936	-0.0022
558.3879	-0.0011
558.5821	-0.0078
558.7764	-0.0092
558.9706	-0.0031
559.1648	0.0093
559.359	-0.0051
559.5532	-0.0134
559.7473	-0.0041
559.9415	-0.0041
560.1356	-0.0081
560.3297	-0.0102
560.5238	-0.0077
560.7179	-0.0044
560.9119	-0.0106
561.106	-0.0076
561.3	-0.0041
561.494	0.0009
561.688	-0.0036
561.882	-0.0095
562.076	-0.0052
562.2699	0.0016
562.4639	0.0014
562.6578	-0.0087
562.8517	-0.0026
563.0456	-0.0012
563.2395	0.0018
563.4333	-0.003
563.6272	0.0067
563.821	-0.0023
564.0148	0.0015
564.2086	-0.0068
564.4024	-0.0023
564.5961	-0.0098
564.7899	-0.0005
564.9836	-0.0004
565.1773	-0.0035
565.371	0.0043
565.5647	0.0007
565.7584	-0.0009
565.952	-0.0008
566.1456	0.0009
566.3393	-0.001
566.5329	-0.0028
566.7264	0.0001
566.92	-0.001
567.1136	0.0045
567.3071	-0.0012
567.5006	0.0012
567.6941	-0.0038
567.8876	0.0011
568.0811	-0.0036
568.2745	0.0019
568.468	0.0053
568.6614	-0.0065
568.8548	-0.0014
569.0482	-0.0116
569.2416	-0.0028
569.4349	-0.0031
569.6283	0.0064
569.8216	-0.0018
570.0149	-0.0004
570.2082	0.0098
570.4015	0.0098
570.5947	0.0111
570.788	0.0012
570.9812	-0.0029
571.1744	-0.0026
571.3676	-0.0065
571.5608	0.0032
571.754	-0.0012
571.9471	-0.0015
572.1402	-0.0005
572.3333	0.004
572.5264	0.0001
572.7195	-0.0022
572.9126	0.0041
573.1057	-0.0012
573.2987	-0.0069
573.4917	0.0088
573.6847	-0.0055
573.8777	0.0093
574.0707	0.0015
574.2636	-0.0016
574.4566	-0.0003
574.6495	0.0042
574.8424	-0.0023
575.0353	-0.0032
575.2281	0.0074
575.421	0.0023
575.6138	0.0058
575.8067	-0.0037
575.9995	-0.0004
576.1923	0.0022
576.385	0.0004
576.5778	-0.001
576.7706	-0.004
576.9633	0.0044
577.156	0.0054
577.3487	-0.0052
577.5414	0.0019
577.734	-0.011
577.9267	0.0057
578.1193	-0.0065
578.3119	-0.0099
578.5045	0.0031
578.6971	0.0021
578.8897	0.0063
579.0822	-0.0027
579.2747	-0.0016
579.4673	-0.0047
579.6598	-0.0005
579.8522	-0.0043
580.0447	-0.0074
580.2372	-0.0047
580.4296	0.0043
580.622	-0.0001
580.8144	-0.0003
581.0068	-0.0025
581.1992	-0.0121
581.3915	-0.0105
581.5839	-0.0054
581.7762	-0.0078
581.9685	-0.0047
582.1608	-0.0032
582.353	-0.0084
582.5453	-0.0022
582.7375	0.0018
582.9298	0.0046
583.122	-0.0004
583.3142	-0.0044
583.5063	-0
583.6985	0.0022
583.8906	-0.0042
584.0827	-0.0012
584.2749	0.0002
584.4669	-0.0004
584.659	-0.0032
584.8511	-0.0007
585.0431	0.002
585.2352	-0.0016
585.4272	-0.0014
585.6192	0.0064
585.8111	0.0061
586.0031	0.0059
586.195	-0.0061
586.387	0.0028
586.5789	-0.0018
586.7708	0.0002
586.9627	0.0025
587.1545	0.0003
587.3464	0.0002
587.5382	0.0016
587.73	0.005
587.9218	0.0021
588.1136	0.0025
588.3053	-0.0003
588.4971	-0.0095
588.6888	-0.0071
588.8805	-0.0008
589.0722	0.0029
589.2639	-0.0065
589.4556	0.0014
589.6472	-0.0012
589.8389	-0.0075
590.0305	-0.0075
590.2221	0.0018
590.4137	-0.0046
590.6052	0.0037
590.7968	0.0053
590.9883	-0.006
591.1798	-0.0079
591.3713	-0.0039
591.5628	-0.0044
591.7543	0.0071
591.9458	-0.0033
592.1372	0.0112
592.3286	0.0091
592.52	0.0038
592.7114	-0.0018
592.9028	-0.0088
593.0941	0.0016
593.2855	-0.0054
593.4768	-0.0047
593.6681	-0.005
593.8594	-0.0057
594.0506	-0.0016
594.2419	0.0139
594.4331	0.0055
594.6244	0.0065
594.8156	-0.0073
595.0067	-0.0037
595.1979	-0.0028
595.3891	-0.0002
595.5802	0.0014
595.7713	-0.0032
595.9624	0.0022
596.1535	0.002
596.3446	-0.0016
596.5357	-0.0015
596.7267	-0.0005
596.9177	-0.0038
597.1087	-0.0083
597.2997	-0.0065
597.4907	0.0007
597.6817	-0.0031
597.8726	0.0005
598.0635	-0.0122
598.2544	0.0079
598.4453	-0.0022
598.6362	-0.0014
598.827	-0.0009
599.0179	-0.001
599.2087	-0.0015
599.3995	-0.0026
599.5903	-0.0011
599.7811	0.0037
599.9718	-0.0025
600.1626	-0.0042
600.3533	-0.0081
600.544	-0.0042
600.7347	0.0018
600.9254	-0.003
601.116	-0.0104
601.3067	-0.0033
601.4973	-0.0033
601.6879	0.0044
601.8785	-0.0092
602.0691	0.0007
602.2596	0.0026
602.4502	0.0042
602.6407	0.0033
602.8312	0.0041
603.0217	-0.0085
603.2122	-0.0019
603.4027	-0.0012
603.5931	-0.0019
603.7835	-0.0047
603.9739	-0.0005
604.1643	0.0005
604.3547	-0.0051
604.5451	0.002
604.7354	-0.0029
604.9257	0.0039
605.116	-0.0029
605.3063	0.0115
605.4966	-0.0006
605.6869	-0.0013
605.8771	0.0092
606.0673	0.0047
606.2575	0.0031
606.4477	0.0024
606.6379	0.0068
606.8281	-0.0021
607.0182	-0.0028
607.2083	0.0078
607.3985	-0.0017
607.5885	0.003
607.7786	-0.0006
607.9687	0.0045
608.1587	0.003
608.3488	-0.0008
608.5388	-0.003
608.7288	0.0005
608.9187	-0.0007
609.1087	-0.0081
609.2986	-0.0026
609.4886	0.0013
609.6785	-0.0039
609.8684	0.0039
610.0582	0.0005
610.2481	-0.0002
610.4379	-0.0008
610.6278	-0.0071
610.8176	0.0009
611.0074	-0.0041
611.1971	-0.0017
611.3869	-0.0019
611.5766	-0.0023
611.7664	0.0096
611.9561	0.0064
612.1458	0.0043
612.3354	-0.0046
612.5251	0.0042
612.7147	0.0079
612.9044	-0.0018
613.094	-0.0077
613.2836	0.0054
613.4731	0.0032
613.6627	-0.0002
613.8522	0.0029
614.0417	0.0017
614.2313	-0.0017
614.4207	-0.0129
614.6102	0.0036
614.7997	-0.0029
614.9891	-0.0048
615.1785	0.0059
615.3679	-0.0074
615.5573	0.0096
615.7467	-0.0024
615.9361	-0
616.1254	-0.0022
616.3147	0.0038
616.504	0.0095
616.6933	-0.0016
616.8826	0.0065
617.0718	-0.0009
617.2611	0.0062
617.4503	-0.0036
617.6395	-0.0063
617.8287	0.0011
618.0179	0.002
618.207	0.0059
618.3961	-0.0024
618.5853	-0.0035
618.7744	0.0033
618.9634	0.0008
619.1525	0.0017
619.3416	0.0031
619.5306	-0.0024
619.7196	0.0042
619.9086	-0.0034
620.0976	0.0072
620.2866	0.0012
620.4755	0.0082
620.6645	-0.0005
620.8534	0.0006
621.0423	0.0062
621.2312	0.0056
621.42	0.0024
621.6089	0.0006
621.7977	0.0104
621.9865	-0.0013
622.1753	0.0109
622.3641	-0.0056
622.5529	0.0056
622.7416	0.0132
622.9303	0.0032
623.1191	0.0118
623.3078	-0.0058
623.4964	0.0066
623.6851	-0
623.8737	-0.0015
624.0624	0.0075
624.251	-0.0042
624.4396	-0.0056
624.6282	-0.0021
624.8167	0.0074
625.0053	0.0066
625.1938	0.0055
625.3823	0.0081
625.5708	-0.0016
625.7593	-0.0124
625.9477	-0.0075
626.1362	-0.0009
626.3246	0.002
626.513	-0.0017
626.7014	0.0084
626.8898	0.0022
627.0781	-0.0014
627.2665	-0.007
627.4548	0.0049
627.6431	0.001
627.8314	0.0047
628.0197	0.0101
628.2079	-0.005
628.3962	0.0014
628.5844	0.0025
628.7726	-0.0002
628.9608	0.0015
629.1489	0.0009
629.3371	0.0035
629.5252	0.0017
629.7134	0.0061
629.9015	0.0023
630.0895	-0.0028
630.2776	0.0081
630.4657	-0.0022
630.6537	0.0004
630.8417	0.0025
631.0297	-0.0057
631.2177	0.0003
631.4057	-0.0041
631.5936	-0.0002
631.7815	0.0068
631.9695	-0.0042
632.1574	0.0046
632.3452	0.0154
632.5331	0.0045
632.7209	-0.0079
632.9088	0.0177
633.0966	0.0115
633.2844	-0.0083
633.4722	-0.0062
633.6599	0.0068
633.8477	0.0023
634.0354	-0.0077
634.2231	-0.0018
634.4108	0.0066
634.5985	0.0123
634.7861	0.0031
634.9738	0.0023
635.1614	0.0008
635.349	0.0086
635.5366	0.0036
635.7242	0.0058
635.9117	0.0002
636.0993	0.0032
636.2868	0.008
636.4743	-0.0056
636.6618	0.0067
636.8492	0.0056
637.0367	0.0068
637.2241	-0.0016
637.4115	0.0002
637.5989	-0.0055
637.7863	-0.0016
637.9737	-0.0087
638.161	0.0031
638.3484	-0.0011
638.5357	0.0001
638.723	-0.0034
638.9103	0.0021
639.0975	0.0046
639.2848	0
639.472	0.0003
639.6592	0.0027
639.8464	0.0057
640.0336	0.0029
640.2208	0.0012
640.4079	-0.001
640.595	-0.0003
640.7821	-0.0009
640.9692	-0.0106
641.1563	0.003
641.3434	0.0042
641.5304	-0.0052
641.7174	0.0034
641.9044	0.0007
642.0914	0.0012
642.2784	0.0028
642.4653	0.0097
642.6523	0.0002
642.8392	0.0007
643.0261	0.0077
643.213	0.0041
643.3999	-0.0018
643.5867	-0.0124
643.7735	0.011
643.9604	-0.0058
644.1472	-0.0052
644.3339	0.0037
644.5207	-0.0002
644.7075	0.0039
644.8942	0.0057
645.0809	0.0137
645.2676	0.008
645.4543	0.0057
645.6409	0.0053
645.8276	-0.0018
646.0142	0.0004
646.2008	-0.0004
646.3874	-0.0043
646.574	-0.0053
646.7605	-0.0049
646.9471	-0.0101
647.1336	0.0023
647.3201	0.009
647.5066	-0.0017
647.6931	0.0017
647.8795	0.0037
648.0659	0.0018
648.2524	0.0097
648.4388	0.0007
648.6252	-0.0022
648.8115	-0.0005
648.9979	0.0017
649.1842	0.001
649.3705	0.0107
649.5568	0.004
649.7431	0.0102
649.9294	-0.0055
650.1156	0.0083
650.3018	-0.0076
650.488	0.0055
650.6742	0.0038
650.8604	-0.0016
651.0466	-0.0047
651.2327	0.0022
651.4188	0.0004
651.6049	-0.0036
651.791	-0.0064
651.9771	-0.0009
652.1632	0.0039
652.3492	0.0005
652.5352	-0.0007
652.7212	-0.0062
652.9072	-0.0034
653.0932	0.0013
653.2791	-0.0049
653.465	0.0057
653.651	-0.0027
653.8369	-0.0039
654.0227	-0.0016
654.2086	0.0045
654.3944	0.0047
654.5803	-0.0009
654.7661	0.0007
654.9519	0.0005
655.1377	-0.0041
655.3234	-0.0022
655.5092	-0.0051
655.6949	-0.0068
655.8806	-0.0033
656.0663	0.0016
656.2519	-0.0065
656.4376	-0.003
656.6232	0.0091
656.8088	-0.0042
656.9945	-0.0014
657.18	0.005
657.3656	0.0013
657.5511	-0.0029
657.7367	-0.0037
657.9222	0.0006
658.1077	-0.0008
658.2932	-0.0005
658.4786	-0.011
658.6641	-0.0106
658.8495	0.0028
659.0349	-0.0066
659.2203	-0.0005
659.4057	-0.0071
659.591	0.0021
659.7764	-0.0003
659.9617	-0.0014
660.147	-0.0004
660.3323	-0.0012
660.5176	0.0011
660.7028	0.0043
660.888	0.0022
661.0733	0.0053
661.2585	-0.0104
661.4436	0.0013
661.6288	-0.002
661.8139	-0.0024
661.9991	0.0041
662.1842	0.0008
662.3693	-0.0031
662.5544	-0.0088
662.7394	-0.0031
662.9245	-0.0007
663.1095	-0.0014
663.2945	-0.0033
663.4795	-0.0004
663.6644	0.0042
663.8494	-0.0005
664.0343	0.0007
664.2193	-0.0092
664.4042	-0.0042
664.589	-0.0039
664.7739	0.0037
664.9587	-0.0031
665.1436	-0.0047
665.3284	-0.0063
665.5132	-0.0017
665.698	-0.0051
665.8827	0.0091
666.0675	0.0047
666.2522	-0.0074
666.4369	-0.0019
666.6216	0.0028
666.8063	0.0048
666.9909	-0.0081
667.1756	-0.0061
667.3602	0.0004
667.5448	-0.0074
667.7294	0.0071
667.9139	0.0028
668.0985	0.0119
668.283	-0.0001
668.4675	0.0039
668.652	0.002
668.8365	0.0009
669.0209	0.0103
669.2054	0.013
669.3898	-0.0001
669.5742	0.0017
669.7586	0.0107
669.943	-0.0018
670.1273	0.0007
670.3117	0.0011
670.496	0.0065
670.6803	0.0073
670.8646	0.0049
671.0488	-0.0054
671.2331	0.0083
671.4173	0.0047
671.6015	-0.0054
671.7857	0.0064
671.9699	0.0058
672.1541	-0.001
672.3382	0.0025
672.5223	0.0021
672.7064	0.0006
672.8905	0.0079
673.0746	-0.0052
673.2587	0.0003
673.4427	0.0056
673.6267	0.0079
673.8107	0.0051
673.9947	0.0054
674.1787	0.0051
674.3626	-0.0052
674.5465	0.0087
674.7304	0.0019
674.9143	0.0055
675.0982	0.0108
675.2821	0.0088
675.4659	0.0071
675.6497	0.0035
675.8335	-0.0049
676.0173	-0.0018
676.2011	0.0033
676.3849	0.0031
676.5686	-0.006
676.7523	-0.0019
676.936	-0.0047
677.1197	-0.0047
677.3034	-0.0068
677.487	-0.0012
677.6706	0.0059
677.8542	0.0034
678.0378	0.0026
678.2214	-0.0062
678.405	-0.0043
678.5885	0.0004
678.772	0.002
678.9555	-0.0069
679.139	-0.0028
679.3225	0.0004
679.5059	0.0002
679.6894	0.0005
679.8728	-0.0009
680.0562	-0.0024
680.2395	-0.0036
680.4229	0.0004
680.6062	0.0026
680.7896	-0.0044
680.9729	-0.001
681.1562	0.0072
681.3394	0.0033
681.5227	-0.0023
681.7059	0.0001
681.8891	0.0006
682.0723	0.0153
682.2555	0.0071
682.4387	-0.0012
682.6218	-0.0012
682.805	0.0064
682.9881	0.005
683.1712	0.0046
683.3542	0.0029
683.5373	0.0043
683.7203	-0.0036
683.9034	0.0003
684.0864	-0.012
684.2694	-0.004
684.4523	0.007
684.6353	-0.0096
684.8182	-0.0009
685.0011	-0.007
685.184	0.0043
685.3669	0.001
685.5498	0.0016
685.7326	-0.0066
685.9154	-0.011
686.0982	0.0098
686.281	0.0008
686.4638	-0.0014
686.6465	-0.0013
686.8293	-0.0019
687.012	-0.0007
687.1947	-0.007
687.3774	-0.0002
687.56	0.0038
687.7427	0.0035
687.9253	-0.0048
688.1079	-0.0043
688.2905	0.0073
688.4731	-0.0036
688.6556	0.0035
688.8382	0.0009
689.0207	-0.0008
689.2032	-0.0037
689.3857	-0.0042
689.5681	0.0015
689.7506	-0.0016
689.933	0.0004
690.1154	-0.0009
690.2978	0.0077
690.4802	0.0044
690.6626	-0.0054
690.8449	-0.0128
691.0272	0.0026
691.2095	-0.0051
691.3918	-0.0091
691.5741	-0.003
691.7563	-0.0034
691.9386	-0.0046
692.1208	-0.0009
692.303	0.0042
692.4852	0.0008
692.6673	0.0021
692.8495	0.0041
693.0316	0.0042
693.2137	0.003
693.3958	0.0043
693.5778	0.0034
693.7599	0.0041
693.9419	-0.0008
694.1239	0.0033
694.3059	-0.0003
694.4879	0.0036
694.6699	0.01
694.8518	0.0018
695.0337	0.0065
695.2157	0.004
695.3975	0.0028
695.5794	0.0045
695.7613	0.0001
695.9431	0.0069
696.1249	0.0069
696.3067	0.0054
696.4885	0.0091
696.6703	-0.0072
696.852	0.0049
697.0337	0.009
697.2154	0.0106
697.3971	0.0057
697.5788	-0.004
697.7605	-0.0032
697.9421	0.0108
698.1237	0.0065
698.3053	0.0045
698.4869	0.0066
698.6685	-0.0018
698.85	0.0036
699.0315	0.0083
699.213	-0.0022
699.3945	0.0067
699.576	0.0084
699.7575	-0.0019
699.9389	0.0057
700.1203	-0.0075
700.3017	0.0003
700.4831	-0.0091
700.6645	0.0008
700.8458	0.0105
701.0271	-0.0001
701.2084	0.0099
701.3897	-0.0004
701.571	0.0052
701.7523	-0.0112
701.9335	0.0003
702.1147	-0.0012
702.2959	0.005
702.4771	0.0078
702.6583	-0.0012
702.8394	-0.0022
703.0205	0.0013
703.2016	0.0004
703.3827	0.0019
703.5638	0.0112
703.7449	0.0087
703.9259	0.0051
704.1069	0.0003
704.2879	0.0029
704.4689	0.0055
704.6499	0.0051
704.8308	-0.0061
705.0117	-0.0005
705.1927	0.0029
705.3735	-0.004
705.5544	-0.0023
705.7353	-0.0101
705.9161	-0.0051
706.0969	-0.007
706.2777	0.0027
706.4585	-0.0054
706.6393	0.0125
706.82	-0.0063
707.0007	0.0023
707.1815	-0
707.3621	0.0093
707.5428	0.0022
707.7235	0.0031
707.9041	0.0045
708.0847	-0.0089
708.2653	-0.0073
708.4459	-0.0132
708.6265	-0.0032
708.807	-0.0064
708.9875	-0.0037
709.168	-0.0052
709.3485	-0.0014
709.529	-0.007
709.7095	-0.015
709.8899	0.0018
710.0703	-0.0052
710.2507	-0.0031
710.4311	-0.0028
710.6115	-0.0061
710.7918	-0.0096
710.9721	0.006
711.1524	-0.0058
711.3327	-0
711.513	0.0058
711.6932	0.0065
711.8735	0.0123
712.0537	0.0093
712.2339	0.0048
712.4141	-0.0038
712.5942	0.0026
712.7744	0.0054
712.9545	-0.0043
713.1346	0.0054
713.3147	0.0013
713.4947	-0.0071
713.6748	-0.0021
713.8548	0.0028
714.0348	0.0032
714.2148	-0.0053
714.3948	0.0088
714.5748	-0.0058
714.7547	-0.0049
714.9346	0.0105
715.1145	-0.0011
715.2944	-0.0048
715.4743	0.0056
715.6541	-0.0023
715.834	0.0001
716.0138	-0.0013
716.1936	-0.0139
716.3733	-0.0121
716.5531	0.0087
716.7328	-0.0008
716.9126	-0.004
717.0923	0.0035
717.2719	0.0084
717.4516	0.0151
717.6312	0.0111
717.8109	0.0003
717.9905	0.0099
718.1701	-0.0026
718.3496	0.0019
718.5292	0.012
718.7087	-0.0023
718.8882	0
719.0677	0.0099
719.2472	-0.0073
719.4267	-0.0014
719.6061	0.0044
719.7856	0.0011
719.965	0.0076
720.1443	0.0011
720.3237	0.0173
720.5031	0.0058
720.6824	0.0097
720.8617	-0.0071
721.041	0.008
721.2203	0.0083
721.3995	0.0087
721.5788	0.0002
721.758	0.0098
721.9372	0.0014
722.1164	0.0006
722.2956	0.0039
722.4747	-0.0053
722.6538	-0.0079
722.8329	0.0108
723.012	0.0043
723.1911	0.0073
723.3702	-0.0077
723.5492	0.0031
723.7282	0.0013
723.9072	-0.002
724.0862	-0.0097
724.2652	0.0006
724.4441	-0.0035
724.623	-0.0008
724.8019	-0.005
724.9808	-0.0055
725.1597	-0.012
725.3385	0.0019
725.5174	0.005
725.6962	-0.0002
725.875	-0.0004
726.0538	-0.0004
726.2325	0.0018
726.4112	-0.0011
726.59	-0.0048
726.7687	0.0015
726.9474	0.0057
727.126	0.0002
727.3047	-0.0049
727.4833	-0.0023
727.6619	-0.0056
727.8405	-0.0037
728.0191	-0.009
728.1976	0.002
728.3762	-0.002
728.5547	0
728.7332	-0.0164
728.9116	-0.0041
729.0901	-0.0018
729.2686	-0.011
729.447	-0.0051
729.6254	-0.006
729.8038	-0.0016
729.9821	-0.0065
730.1605	0.003
730.3388	0.0021
730.5171	0.003
730.6954	-0.0024
730.8737	-0.0014
731.0519	0.0065
731.2302	-0.0014
731.4084	0.0092
731.5866	0.0015
731.7648	-0.0024
731.9429	-0.0002
732.1211	-0.0159
732.2992	-0.0064
732.4773	0.0019
732.6554	-0.0048
732.8335	-0.0028
733.0115	-0.0056
733.1896	0.0025
733.3676	-0.0113
733.5456	0.0109
733.7235	0.007
733.9015	0.0008
734.0794	0.0079
734.2574	0.0047
734.4353	0.0013
734.6131	0.0062
734.791	0.0047
734.9689	0.0018
735.1467	0.0068
735.3245	-0.0085
735.5023	-0.011
735.68	-0.0021
735.8578	0.0052
736.0355	-0.0119
736.2132	-0.0109
736.3909	0.0031
736.5686	-0.0126
736.7463	0.0009
736.9239	-0.0094
737.1015	0.0013
737.2791	0.0047
737.4567	0
737.6343	-0.0065
737.8118	0.0026
737.9894	0.0101
738.1669	-0.0107
738.3444	-0.0078
738.5218	-0.0025
738.6993	0.0022
738.8767	-0.0037
739.0541	0.0063
739.2315	-0.0072
739.4089	0.0062
739.5863	0.0048
739.7636	-0.011
739.9409	-0.005
740.1182	0.008
740.2955	0.0015
740.4728	-0.0044
740.65	-0.0108
740.8272	-0.0019
741.0044	-0.0083
741.1816	-0.0041
741.3588	-0.0029
741.5359	-0.0042
741.7131	-0.0164
741.8902	-0.0036
742.0673	0.005
742.2444	-0.0036
742.4214	-0.0035
742.5985	-0.0009
742.7755	-0.0036
742.9525	-0.0143
743.1295	0.0012
743.3064	0.0001
743.4834	0.0049
743.6603	0.0029
743.8372	-0.0087
744.0141	0.0113
744.191	0.0028
744.3678	-0.0061
744.5446	-0.0018
744.7215	-0.0009
744.8982	0.0026
745.075	-0.0206
745.2518	0.0007
745.4285	0.0001
745.6052	-0.0113
745.7819	-0.0065
745.9586	-0.0085
746.1353	-0.0115
746.3119	-0.0141
746.4885	-0.0234
746.6651	-0.0166
746.8417	-0.015
747.0183	-0.0105
747.1948	-0.009
747.3714	-0.008
747.5479	-0.0028
747.7244	-0.0163
747.9008	0.0037
748.0773	-0.0117
748.2537	-0.0068
748.4301	-0.0155
748.6065	-0.0098
748.7829	-0.0026
748.9593	-0.0097
749.1356	-0.0056
749.3119	0.0117
749.4882	-0.0091
749.6645	-0.0003
749.8408	-0.0045
750.017	-0.0066
750.1933	0.0047
750.3695	-0.0068
750.5457	0.0042
750.7218	-0.003
750.898	0.0069
751.0741	-0.0015
751.2502	0.0017
751.4263	-0.0104
751.6024	-0.0058
751.7784	-0.0056
751.9545	-0.0049
752.1305	-0.0005
752.3065	-0.0055
752.4825	0.0033
752.6584	-0.0068
752.8344	-0.0088
753.0103	-0.0154
753.1862	-0.0153
753.3621	-0.0037
753.5379	-0.0062
753.7138	-0.0027
753.8896	0.011
754.0654	-0.0005
754.2412	0.0085
754.417	-0.0018
754.5927	-0.0061
754.7685	-0.0101
754.9442	0.0069
755.1199	0.0066
755.2956	-0.0043
755.4712	0.0077
755.6469	-0.0043
755.8225	0.0049
755.9981	0.0069
756.1736	0.0207
756.3492	0.0046
756.5248	0.0056
756.7003	0.0056
756.8758	0.0114
757.0513	-0.0073
757.2267	-0.0002
757.4022	0.0072
757.5776	-0.0019
757.753	0.002
757.9284	0.0022
758.1038	0.001
758.2791	-0.0036
758.4545	-0.0204
758.6298	-0.0037
758.8051	-0.0078
758.9803	-0.001
759.1556	-0.0019
759.3308	-0.0038
759.506	0.0017
759.6812	0.0016
759.8564	0.002
760.0316	0.0056
760.2067	0.0061
760.3819	0.0125
760.557	0.0114
760.732	0.0058
760.9071	-0.01
761.0821	-0.0048
761.2572	0.0017
761.4322	-0.0014
761.6072	0.0004
761.7821	-0.0133
761.9571	0.0038
762.132	-0.0104
762.3069	-0.0043
762.4818	-0.0102
762.6567	-0.0012
762.8316	-0.0081
763.0064	0.0065
763.1812	-0.0013
763.356	-0.0151
763.5308	-0.006
763.7055	-0.0016
763.8803	-0.0049
764.055	-0.0047
764.2297	-0.0033
764.4044	-0.0067
764.579	-0.0086
764.7537	-0.0058
764.9283	-0.0028
765.1029	-0.0002
765.2775	-0.006
765.4521	-0.0183
765.6266	-0.0166
765.8011	-0.0096
765.9756	-0.006
766.1501	-0.0035
766.3246	-0.011
766.4991	-0.0043
766.6735	0.0006
766.8479	-0.0182
767.0223	0.0115
767.1967	-0.0048
767.371	0.0016
767.5454	0.0041
767.7197	0.0029
767.894	-0.0063
768.0683	-0.0106
768.2425	-0.0047
768.4168	0.0009
768.591	-0.0043
768.7652	-0.0105
768.9394	-0.0085
769.1135	-0.0048
769.2877	0.0012
769.4618	-0.0064
769.6359	-0.0057
769.81	-0.002
769.984	-0.0028
770.1581	-0.0049
770.3321	0.0014
770.5061	-0.0076
770.6801	-0.0046
770.8541	-0.0081
771.028	-0.007
771.202	-0.0229
771.3759	0.0016
771.5498	-0.0055
771.7236	-0.0014
771.8975	0.001
772.0713	-0.001
772.2451	0.0051
772.4189	0.0089
772.5927	0.012
772.7665	0.0011
772.9402	-0.0052
773.1139	-0.0046
773.2876	0.0019
773.4613	0.0001
773.635	0.0003
773.8086	-0.0164
773.9822	-0.0072
774.1558	0.0001
774.3294	-0.0246
774.503	-0.0056
774.6765	0.0033
774.8501	-0.0034
775.0236	-0.002
775.1971	-0.0076
775.3705	-0.0041
775.544	0.008
775.7174	-0.0129
775.8908	0.003
776.0642	-0.0091
776.2376	-0.0154
776.4109	-0.0065
776.5843	-0.0018
776.7576	0.007
776.9309	-0.0002
777.1041	0.0073
777.2774	0.0009
777.4506	-0.0093
777.6238	-0.0012
777.797	-0.0092
777.9702	-0.0021
778.1434	0.0002
778.3165	-0.0159
778.4896	-0.0136
778.6627	0.0015
778.8358	-0.0072
779.0089	-0.0124
779.1819	-0.0102
779.3549	0.0129
779.5279	0.0032
779.7009	-0.0071
779.8739	-0.0056
780.0468	-0.0098
780.2197	-0.0095
780.3926	-0.0147
780.5655	-0.0098
780.7384	0.0006
780.9112	-0.0116
781.0841	-0.003
781.2569	-0.0009
781.4297	0.0061
781.6024	-0.0017
781.7752	-0.007
781.9479	-0.0068
782.1206	-0.0086
782.2933	-0.0157
782.466	0.0011
782.6386	-0.0027
782.8113	0.0107
782.9839	0.0067
783.1565	0.0104
783.329	-0.0057
783.5016	0.0057
783.6741	-0.0002
783.8466	-0.0091
784.0191	0.0135
784.1916	0.0027
784.3641	-0.0003
784.5365	0.0059
784.7089	-0.0062
784.8813	-0.0052
785.0537	-0.0011
785.2261	-0.008
785.3984	-0.0138
785.5707	-0.016
785.743	-0.0002
785.9153	-0.0039
786.0876	0.0097
786.2598	-0.0116
786.432	-0.0081
786.6042	0.0045
786.7764	-0.0163
786.9486	-0.001
787.1207	-0.0223
787.2928	0.0026
787.4649	-0.0099
787.637	0.0164
787.8091	-0.0072
787.9811	-0.005
788.1532	-0.0071
788.3252	-0.0002
788.4972	0.0002
788.6691	-0.0044
788.8411	0.0035
789.013	-0.0119
789.1849	0.0019
789.3568	-0.011
789.5287	-0.0007
789.7005	-0.0116
789.8723	-0.0147
790.0442	0.0091
790.2159	-0.0041
790.3877	-0.0061
790.5595	-0.0098
790.7312	-0.0043
790.9029	0.0085
791.0746	-0.0135
791.2463	-0.0147
791.4179	0.0015
791.5896	-0.0111
791.7612	-0.0065
791.9328	0.0071
792.1044	-0.0122
792.2759	-0.0098
792.4474	-0.0156
792.619	-0.0059
792.7905	-0.0002
792.9619	-0.0101
793.1334	0.0095
793.3048	0.0135
793.4762	0.0065
793.6476	0.0118
793.819	0.0022
793.9904	0.0065
794.1617	-0.0152
794.333	-0.0002
794.5043	-0.0059
794.6756	0.0047
794.8469	-0.0104
795.0181	-0.0046
795.1893	-0.0168
795.3605	0.0152
795.5317	-0.0064
795.7029	0.0027
795.874	-0.0011
796.0452	0.0008
796.2163	0.0022
796.3873	0.0273
796.5584	0.0028
796.7294	-0.0055
796.9005	0.0105
797.0715	-0.0032
797.2425	-0.0293
797.4134	0.0007
797.5844	0.0052
797.7553	-0.0042
797.9262	0.002
798.0971	-0.0025
798.2679	-0.0027
798.4388	-0.0151
798.6096	0.0017
798.7804	0.0024
798.9512	-0.0129
799.122	-0.0078
799.2927	-0.0027
799.4635	0.0094
799.6342	-0.0267
799.8049	-0.0174
799.9755	-0.0073
800.1462	0.0056
800.3168	0.0044
800.4874	0.0058
800.658	0.0161
800.8286	0.0019
800.9991	0.0093
801.1696	-0.0078
801.3402	0.021
801.5106	-0.0091
801.6811	0.0106
801.8516	0.002
802.022	0.0132
802.1924	0.017
802.3628	0.0085
802.5332	0.0067
802.7035	0.0156
802.8739	-0.0084
803.0442	-0.0114
803.2145	0.0022
803.3847	-0.0151
803.555	-0.0079
803.7252	-0.0144
803.8954	-0.0114
804.0656	-0.0154
804.2358	-0.0012
804.4059	0.0192
804.5761	0.0084
804.7462	-0.0005
804.9163	-0.0089
805.0864	-0.0231
805.2564	-0.0192
805.4264	0.0028
805.5965	-0.0096
805.7665	0.0006
805.9364	-0.01
806.1064	0.0152
806.2763	0.0158
806.4462	0.0186
806.6161	-0.0048
806.786	0.0278
806.9559	-0.0059
807.1257	-0.0124
807.2955	-0.0028
807.4653	-0.0075
807.6351	-0.0043
807.8048	-0.0036
807.9746	-0.0041
808.1443	-0.0024
808.314	0.006
808.4837	0.0126
808.6533	0.004
808.8229	0.0009
808.9926	-0.0082
809.1622	0.0009
809.3317	-0.0108
809.5013	0.007
809.6708	0.0014
809.8403	0.0012
810.0098	-0.0101
810.1793	-0.0091
810.3488	-0.0016
810.5182	-0.0188
810.6876	-0.0008
810.857	-0.0219
811.0264	0.0069
811.1958	0.0137
811.3651	-0.0104
811.5344	-0.0174
811.7037	0.0068
811.873	-0.0076
812.0422	-0.0069
812.2115	0.0053
812.3807	-0.0448
812.5499	0.0211
812.7191	0.0004
812.8882	-0.0015
813.0574	-0.0206
813.2265	-0.0031
813.3956	-0.0176
813.5646	-0.0102
813.7337	-0.026
813.9027	0.0081
814.0718	0.0127
814.2407	0.0256
814.4097	-0.0152
814.5787	-0.0189
814.7476	0.0013
814.9165	-0.0213
815.0854	-0.0231
815.2543	-0.0095
815.4232	-0.0117
815.592	0.0057
815.7608	-0.0092
815.9296	-0.019
816.0984	-0.0085
816.2671	-0.0022
816.4359	-0.0007
816.6046	-0.0191
816.7733	-0.0344
816.942	-0.0164
817.1106	-0.004
817.2793	0.0142
817.4479	0.0002
817.6165	0.0123
817.785	-0.0204
817.9536	-0.0326
818.1221	-0.0004
818.2906	-0.0161
818.4591	-0.0316
818.6276	-0.0311
818.7961	0.0045
818.9645	0.014
819.1329	-0.0011
819.3013	0.004
819.4697	0.0241
819.638	-0.0086
819.8064	0.0127
819.9747	0.0048
820.143	-0.017
820.3113	0.001
820.4795	-0.0105
820.6477	0.0023
820.816	0.0137
820.9842	0.0108
821.1523	-0.0136
821.3205	-0.011
821.4886	0.0142
821.6567	-0.0258
821.8248	0.0002
821.9929	0.0193
822.1609	-0.0013
822.329	0.0144
822.497	-0.006
822.665	-0.021
822.833	-0.0063
823.0009	-0.0284
823.1688	0.0014
823.3367	0.0107
823.5046	-0.0028
823.6725	0.024
823.8404	0.0018
824.0082	0.0215
824.176	0.011
824.3438	0.0132
824.5116	0.0032
824.6793	-0.0018
824.847	0.0137
825.0147	0.0199
825.1824	0.0489
825.3501	0.0226
825.5177	-0.0302
825.6854	-0.0349
825.853	0.0261
826.0206	-0.0431
826.1881	0.0121
826.3557	-0.0334
826.5232	0.014
826.6907	-0.0425
826.8582	-0.0046
827.0257	-0.02
827.1931	0.0067
827.3605	-0.0161
827.528	-0.0206
827.6953	-0.0452
827.8627	-0.0462
828.03	0.0125
828.1974	-0.0067
828.3647	-0.0526
828.532	-0.009
828.6992	-0.0147
828.8665	-0.0035
829.0337	-0.0299
829.2009	0.0245
829.3681	-0.0057
829.5352	0.0013
829.7024	-0.0397
829.8695	-0.0367
830.0366	0.0437
830.2037	-0.0117
830.3707	0.0063
830.5378	-0.0266
830.7048	0.0131
830.8718	-0.0141
831.0388	-0.0236
831.2057	0.0112
831.3727	0.039
831.5396	-0.0025
831.7065	0.018
831.8734	0.0271
832.0402	-0.0367
832.2071	-0.0157
832.3739	-0.0167
832.5407	0.0263
832.7075	-0.0458
832.8742	-0.0014
833.041	-0.0235
833.2077	-0.0274
833.3744	0.0004
833.541	-0.0519
833.7077	-0.0239
833.8743	0.0064
834.0409	-0.0187
834.2075	-0.023
834.3741	-0.0463
834.5407	0.0068
834.7072	-0.0499
834.8737	-0.0048
835.0402	-0.0199
835.2067	0.0086
835.3731	0.0146
835.5395	0.0241
835.706	0.0129
835.8723	-0.0233
836.0387	-0.0102
836.2051	-0.0291
836.3714	0.0101
836.5377	-0.0098
836.704	-0.0312
836.8703	0.0052
837.0365	-0.0251
837.2027	-0.0535
837.3689	0.0225
837.5351	-0.0299
837.7013	-0.0891
837.8674	-0.0323
838.0335	-0.0308
838.1997	0.0146
838.3657	-0.039
838.5318	-0.0031
838.6978	0.0181
838.8639	0.0265
839.0299	-0.0342
839.1958	0.0149
839.3618	0.0049
839.5277	-0.0572
839.6937	-0.0259
839.8596	-0.0102
840.0254	-0.0165
840.1913	0.0174
840.3571	0.0176
840.523	0.0138
840.6888	0.0044
840.8545	-0.0117
841.0203	-0.0003
841.186	-0.0003
841.3517	0.0227
841.5174	0.0506
841.6831	-0.0059
841.8488	-0.023
842.0144	-0.0147
842.18	0.0132
842.3456	0.042
842.5112	-0.0074
842.6767	-0.0424
842.8422	-0.0431
843.0077	0.0007
843.1732	-0.0467
843.3387	-0.006
843.5042	-0.0499
843.6696	-0.0318
843.835	-0.0036
844.0004	0.0267
844.1657	-0.0023
844.3311	-0.0697
844.4964	-0.1068
844.6617	-0.0199
844.827	0.0174
844.9923	-0.053
845.1575	-0.0224
845.3227	0.0307
845.4879	-0.006
845.6531	-0.0521
845.8183	-0.0742
845.9834	0.0008
846.1485	0.0007
846.3136	-0.0705
846.4787	-0.0462
846.6438	0.0343
846.8088	-0.0685
846.9738	-0.0688
847.1388	0.0256
847.3038	0.0041
847.4687	-0.1918
847.6337	0.0022
847.7986	-0.0096
847.9635	-0.1304
848.1284	0.0501
848.2932	0.066
848.458	-0.0156
848.6228	0.0636
848.7876	0.0331
848.9524	-0.0918
849.1172	-0.0563
849.2819	-0.0327
849.4466	-0.1281
849.6113	0.0905
849.7759	-0.0807
849.9406	-0.0414
850.1052	-0.0534
850.2698	-0.0557
850.4344	-0.0906
850.599	-0.0756
850.7635	-0.0243
850.928	-0.0663
851.0925	-0.0249
851.257	0.0683
851.4215	-0.0005
851.5859	-0.1104
851.7503	0.0498
851.9147	0.0111
852.0791	-0.0502
852.2434	-0.0155
852.4078	0.0078
852.5721	0.006
852.7364	-0.0107
852.9007	-0.1792
853.0649	0.0811
853.2291	0.0196
853.3934	-0.0008
853.5575	-0.079
853.7217	-0.0858
853.8859	-0.0929
854.05	-0.1436
854.2141	0.0786
854.3782	-0.1213
854.5423	-0.0428
854.7063	0.0246
854.8703	-0.0064
855.0343	-0.0313
855.1983	-0.2363
855.3623	0.0853
855.5262	0.0736
855.6901	-0.0081
855.854	-0.0494
856.0179	-0.0306
856.1818	0.1423
856.3456	-0.1004
856.5094	-0.1518
856.6732	-0.2242
856.837	0.0328
857.0008	0.0372
857.1645	-0.0682
857.3282	-0.2137
857.4919	-0.0042
857.6556	-0.1795
857.8192	-0.0076
857.9828	-0.0284
858.1465	-0.0277
858.31	-0.189
858.4736	-0.1769
858.6372	-0.3449
858.8007	-0.1119
858.9642	0.2113
859.1277	-0.1692
859.2911	-0.0151
859.4546	-0.0338
859.618	-0.3567
859.7814	0.0448
859.9448	-0.1344
860.1081	-0.0698
860.2715	0.0776
860.4348	-0.2043
860.5981	-0.1923
860.7614	0.059
860.9246	-0.2305
861.0879	-0.019
861.2511	0.1697
861.4143	-0.2748
861.5774	0.1636
861.7406	-0.2646
861.9037	0.0359
862.0668	-0.123
862.2299	0.043
862.393	-0.6977
862.556	-0.0211
862.7191	-0.3817
862.8821	-0.1174
863.0451	0.0382
863.208	0.1341
863.371	0.0261
863.5339	-0.2665
863.6968	0.0674
863.8597	0.1424
864.0225	-0.1907
864.1854	0.5524
864.3482	-0.3366
864.511	0.0695
864.6737	-0.0087
864.8365	0.1792
864.9992	-0.1886
865.1619	-0.5174
865.3246	-0.0707
865.4873	0.0133
865.65	0.2323
865.8126	-0.0679
865.9752	0.1295
866.1378	-0.0802
866.3004	1.3176
866.4629	0.0752
866.6254	-0.2044
866.7879	0.0808
866.9504	0.1044
867.1129	-0
867.2753	-0.2214
867.4377	0.1102
867.6001	-0.3953
867.7625	-0.0786
867.9249	-0.5863
868.0872	0.0424
868.2495	0.4035
868.4118	-0.2536
868.5741	-0.7985
868.7363	-0.3771
868.8986	-0.4353
869.0608	-0.3058
869.223	0.4025
869.3851	-0.2124
869.5473	1.163
869.7094	0.4655
869.8715	-0
870.0336	-0
870.1957	-0.6786
870.3577	-0.2808
870.5197	0.0147
870.6817	-0.5855
870.8437	-0.1614
871.0057	-0.8625
871.1676	-0
871.3295	-0
871.4914	-0
871.6533	-0.315
871.8151	-0
871.977	-0
872.1388	-0
872.3006	-0.3465
872.4623	-0
872.6241	0.4659
872.7858	0.5297
872.9475	0.3032
873.1092	-0.0314
873.2709	-0.3355
873.4325	1.8472
873.5941	-0.4364
873.7557	-0
873.9173	-0
874.0789	-0.6004
874.2404	0.6792
874.4019	-0.0516
874.5634	-0.1244
874.7249	0.0062
874.8863	0.4026
875.0478	-0.0928
875.2092	-0
875.3706	0.3127
875.5319	-0
875.6933	-0
875.8546	0.0922
876.0159	-0
876.1772	-0
876.3385	-0
876.4997	0.5198
876.6609	-0.2072
876.8221	0.057
876.9833	-0
877.1445	-0
877.3056	-0.0193
877.4667	-0.1364
877.6278	-0
877.7889	-0.5497
877.9499	0.7533
878.111	-0
878.272	-0
878.433	-0
878.5939	1.7901
878.7549	-0.1184
878.9158	-0.676
879.0767	0.9306
879.2376	-0
879.3984	-0.2598
879.5593	-0
879.7201	0.2683
879.8809	-0.5669
880.0417	-0.3174
880.2024	0.157
880.3632	-1.2717
880.5239	0.5075
880.6846	0.5559
880.8452	-0
881.0059	-0.7324
881.1665	-0
881.3271	-0
881.4877	-0.4161
881.6483	-0.2871
881.8088	-0.4027
881.9693	0.2383
882.1298	0.2383
882.2903	0.2383
