Data from MonoPyChalIsomerACN10uM350nmA_Absorbance_14-35-39-515.txt Node
Date: Fri Jul 05 14:35:39 BST 2024
User: LASERRRRR
Spectrometer: FLMT03099
Trigger mode: 0
Integration Time (sec): 1.000000E-1
Scans to average: 1
Electric dark correction enabled: true
Nonlinearity correction enabled: false
Boxcar width: 0
XAxis mode: Wavelengths
Number of Pixels in Spectrum: 3648
>>>>>Begin Spectral Data<<<<<
179.3399	-0
179.5586	-0
179.7771	-0
179.9957	-0
180.2143	-0
180.4329	-0.3389
180.6514	-0
180.8699	-0
181.0885	0.194
181.307	0.1509
181.5255	0.0357
181.744	-0.073
181.9625	-0
182.181	-0.7023
182.3994	-0
182.6179	0.4934
182.8363	0.051
183.0547	-0.2668
183.2732	0.0522
183.4916	0.1796
183.71	0.1119
183.9284	0.1884
184.1467	0.0294
184.3651	-0.0129
184.5835	0.0859
184.8018	0.3145
185.0201	-0.0084
185.2385	-0.0822
185.4568	0.3319
185.6751	0.0505
185.8934	0.3213
186.1117	0.121
186.3299	0.2133
186.5482	0.0194
186.7664	-0.119
186.9847	-0.0626
187.2029	0.0107
187.4211	0.0923
187.6393	-0.0039
187.8575	-0.1524
188.0757	0.2685
188.2939	0.0255
188.512	0.0184
188.7302	-0.027
188.9483	-0.0903
189.1665	0.0597
189.3846	0.2344
189.6027	0.0009
189.8208	0.2106
190.0389	0.1406
190.257	0.0933
190.475	0.1771
190.6931	0.3153
190.9111	0.4063
191.1292	0.0007
191.3472	0.8526
191.5652	0.3858
191.7832	0.1782
192.0012	0.6731
192.2192	0.4243
192.4371	0.7849
192.6551	0.3143
192.873	0.437
193.091	0.5295
193.3089	0.5603
193.5268	0.4647
193.7447	0.5127
193.9626	0.4888
194.1805	0.4594
194.3984	0.7295
194.6162	0.6984
194.8341	0.5734
195.0519	0.7344
195.2697	0.7615
195.4875	0.6335
195.7054	0.5305
195.9231	0.556
196.1409	0.616
196.3587	0.7293
196.5765	0.4694
196.7942	0.5946
197.012	0.5098
197.2297	0.4517
197.4474	0.6391
197.6651	0.5962
197.8828	0.538
198.1005	0.6239
198.3182	0.6554
198.5358	0.8585
198.7535	0.6671
198.9711	0.4727
199.1888	0.7071
199.4064	0.6532
199.624	0.5384
199.8416	0.6199
200.0592	0.6851
200.2767	0.7297
200.4943	0.5909
200.7119	0.7489
200.9294	0.6981
201.1469	0.67
201.3645	0.4933
201.582	0.5887
201.7995	0.5694
202.017	0.5242
202.2344	0.7175
202.4519	0.7262
202.6694	0.7635
202.8868	0.6897
203.1042	0.7055
203.3217	0.6703
203.5391	0.6653
203.7565	0.588
203.9739	0.5888
204.1913	0.6066
204.4086	0.6525
204.626	0.6622
204.8433	0.7176
205.0607	0.5971
205.278	0.5793
205.4953	0.6639
205.7126	0.6223
205.9299	0.8445
206.1472	0.6884
206.3644	0.6625
206.5817	0.5893
206.7989	0.6067
207.0162	0.6413
207.2334	0.6506
207.4506	0.6293
207.6678	0.6746
207.885	0.6121
208.1022	0.6219
208.3194	0.6798
208.5365	0.6354
208.7537	0.6573
208.9708	0.6116
209.1879	0.6359
209.405	0.6377
209.6222	0.6814
209.8392	0.6086
210.0563	0.6015
210.2734	0.6676
210.4905	0.6614
210.7075	0.6586
210.9245	0.6058
211.1416	0.7075
211.3586	0.6138
211.5756	0.5676
211.7926	0.5883
212.0096	0.5936
212.2265	0.5392
212.4435	0.5467
212.6604	0.5601
212.8774	0.6022
213.0943	0.5745
213.3112	0.5312
213.5281	0.5056
213.745	0.5275
213.9619	0.5401
214.1788	0.4904
214.3956	0.4819
214.6125	0.4706
214.8293	0.4386
215.0461	0.4545
215.2629	0.468
215.4798	0.5242
215.6965	0.4283
215.9133	0.4533
216.1301	0.43
216.3469	0.4479
216.5636	0.4078
216.7803	0.3894
216.9971	0.3912
217.2138	0.376
217.4305	0.3908
217.6472	0.3449
217.8639	0.3755
218.0805	0.3336
218.2972	0.3471
218.5138	0.3165
218.7305	0.2952
218.9471	0.3135
219.1637	0.2972
219.3803	0.3121
219.5969	0.2945
219.8135	0.2459
220.0301	0.2846
220.2466	0.2941
220.4632	0.2727
220.6797	0.2341
220.8962	0.2475
221.1127	0.2625
221.3292	0.2544
221.5457	0.2545
221.7622	0.2318
221.9787	0.2382
222.1951	0.2307
222.4116	0.2491
222.628	0.2488
222.8444	0.2725
223.0608	0.2477
223.2772	0.2486
223.4936	0.245
223.71	0.2439
223.9264	0.2519
224.1427	0.269
224.3591	0.2524
224.5754	0.2492
224.7917	0.2687
225.008	0.2643
225.2243	0.231
225.4406	0.2889
225.6569	0.2764
225.8732	0.2592
226.0894	0.2566
226.3057	0.2766
226.5219	0.2868
226.7381	0.2634
226.9543	0.273
227.1705	0.2746
227.3867	0.278
227.6029	0.2968
227.8191	0.3043
228.0352	0.2813
228.2513	0.3297
228.4675	0.3103
228.6836	0.3012
228.8997	0.2651
229.1158	0.2962
229.3319	0.3007
229.548	0.3152
229.764	0.3285
229.9801	0.3142
230.1961	0.3147
230.4121	0.3303
230.6282	0.3402
230.8442	0.312
231.0602	0.363
231.2761	0.3442
231.4921	0.3575
231.7081	0.3373
231.924	0.3324
232.14	0.3642
232.3559	0.3355
232.5718	0.3699
232.7877	0.3491
233.0036	0.3551
233.2195	0.3663
233.4353	0.3445
233.6512	0.3635
233.867	0.3562
234.0829	0.3666
234.2987	0.3597
234.5145	0.3732
234.7303	0.3678
234.9461	0.3951
235.1619	0.3838
235.3776	0.3813
235.5934	0.3541
235.8091	0.3457
236.0249	0.3831
236.2406	0.3825
236.4563	0.377
236.672	0.4168
236.8877	0.396
237.1034	0.4017
237.319	0.3915
237.5347	0.3824
237.7503	0.3895
237.966	0.4064
238.1816	0.4066
238.3972	0.3939
238.6128	0.3925
238.8284	0.38
239.0439	0.4141
239.2595	0.3938
239.475	0.4071
239.6906	0.4288
239.9061	0.3933
240.1216	0.3938
240.3371	0.3987
240.5526	0.3864
240.7681	0.4
240.9836	0.3706
241.199	0.3932
241.4145	0.3834
241.6299	0.3893
241.8453	0.3818
242.0607	0.3709
242.2761	0.3522
242.4915	0.3644
242.7069	0.3589
242.9223	0.3548
243.1376	0.3526
243.353	0.3405
243.5683	0.362
243.7836	0.3311
243.9989	0.3483
244.2142	0.3006
244.4295	0.31
244.6448	0.3074
244.86	0.2983
245.0753	0.2906
245.2905	0.2884
245.5057	0.2736
245.721	0.2741
245.9362	0.2762
246.1514	0.2683
246.3665	0.2691
246.5817	0.2494
246.7969	0.2456
247.012	0.2491
247.2271	0.2402
247.4423	0.2349
247.6574	0.2489
247.8725	0.2343
248.0876	0.2252
248.3026	0.2402
248.5177	0.2279
248.7328	0.2066
248.9478	0.2131
249.1628	0.1976
249.3779	0.2154
249.5929	0.196
249.8079	0.2141
250.0228	0.1934
250.2378	0.204
250.4528	0.2052
250.6677	0.1737
250.8827	0.1927
251.0976	0.1916
251.3125	0.1803
251.5274	0.1834
251.7423	0.1936
251.9572	0.1971
252.172	0.1793
252.3869	0.191
252.6017	0.1646
252.8166	0.168
253.0314	0.1783
253.2462	0.1596
253.461	0.187
253.6758	0.1712
253.8906	0.1861
254.1053	0.1704
254.3201	0.1648
254.5348	0.1768
254.7496	0.1796
254.9643	0.1721
255.179	0.1679
255.3937	0.1712
255.6083	0.1656
255.823	0.183
256.0377	0.1638
256.2523	0.1731
256.467	0.157
256.6816	0.1696
256.8962	0.1713
257.1108	0.1549
257.3254	0.1789
257.54	0.1627
257.7545	0.166
257.9691	0.1727
258.1836	0.1777
258.3981	0.1763
258.6127	0.1639
258.8272	0.1536
259.0417	0.1625
259.2561	0.1623
259.4706	0.1648
259.6851	0.166
259.8995	0.1705
260.114	0.1641
260.3284	0.162
260.5428	0.15
260.7572	0.1691
260.9716	0.1801
261.186	0.1522
261.4003	0.1669
261.6147	0.1615
261.829	0.163
262.0433	0.1638
262.2577	0.1604
262.472	0.1746
262.6863	0.158
262.9005	0.1565
263.1148	0.1634
263.3291	0.1453
263.5433	0.1696
263.7576	0.1617
263.9718	0.1675
264.186	0.1522
264.4002	0.1603
264.6144	0.1576
264.8286	0.1619
265.0427	0.1693
265.2569	0.1672
265.471	0.1635
265.6851	0.1543
265.8993	0.1539
266.1134	0.1669
266.3275	0.1623
266.5415	0.17
266.7556	0.1665
266.9697	0.1644
267.1837	0.1597
267.3978	0.154
267.6118	0.1813
267.8258	0.1667
268.0398	0.152
268.2538	0.1672
268.4677	0.1687
268.6817	0.1448
268.8957	0.159
269.1096	0.151
269.3235	0.1754
269.5374	0.1543
269.7514	0.1509
269.9652	0.1483
270.1791	0.1528
270.393	0.1626
270.6068	0.1664
270.8207	0.1464
271.0345	0.1543
271.2483	0.1606
271.4622	0.1387
271.676	0.1618
271.8897	0.1433
272.1035	0.1467
272.3173	0.1429
272.531	0.1437
272.7448	0.1429
272.9585	0.1299
273.1722	0.1495
273.3859	0.1486
273.5996	0.1332
273.8133	0.1513
274.0269	0.1493
274.2406	0.1397
274.4542	0.139
274.6679	0.1436
274.8815	0.1545
275.0951	0.1505
275.3087	0.1494
275.5223	0.1504
275.7358	0.1424
275.9494	0.1372
276.1629	0.1326
276.3765	0.1373
276.59	0.1533
276.8035	0.1475
277.017	0.1494
277.2305	0.1424
277.444	0.1512
277.6574	0.139
277.8709	0.1446
278.0843	0.1538
278.2978	0.1408
278.5112	0.1447
278.7246	0.1358
278.938	0.1434
279.1513	0.1542
279.3647	0.1572
279.5781	0.1544
279.7914	0.1476
280.0047	0.1655
280.2181	0.1436
280.4314	0.1527
280.6447	0.1558
280.8579	0.1518
281.0712	0.1479
281.2845	0.1634
281.4977	0.1568
281.711	0.1501
281.9242	0.1526
282.1374	0.1579
282.3506	0.1452
282.5638	0.1618
282.7769	0.1547
282.9901	0.1445
283.2033	0.161
283.4164	0.1621
283.6295	0.1451
283.8426	0.1473
284.0557	0.1582
284.2688	0.1655
284.4819	0.162
284.695	0.1459
284.908	0.1649
285.1211	0.1558
285.3341	0.1536
285.5471	0.1645
285.7601	0.1568
285.9731	0.1518
286.1861	0.1462
286.3991	0.1628
286.612	0.1699
286.825	0.1643
287.0379	0.1749
287.2508	0.1566
287.4637	0.1542
287.6766	0.1609
287.8895	0.1721
288.1024	0.183
288.3152	0.1634
288.5281	0.1522
288.7409	0.1603
288.9538	0.1627
289.1666	0.1686
289.3794	0.1723
289.5922	0.1632
289.8049	0.1538
290.0177	0.1562
290.2304	0.167
290.4432	0.156
290.6559	0.1574
290.8686	0.1732
291.0813	0.1733
291.294	0.1707
291.5067	0.1689
291.7194	0.1493
291.932	0.1813
292.1447	0.1618
292.3573	0.1581
292.5699	0.1695
292.7825	0.1764
292.9951	0.1606
293.2077	0.1641
293.4203	0.1599
293.6328	0.1463
293.8454	0.1634
294.0579	0.1585
294.2704	0.1604
294.4829	0.1441
294.6954	0.172
294.9079	0.1695
295.1204	0.1659
295.3328	0.1683
295.5453	0.1582
295.7577	0.1602
295.9701	0.1527
296.1825	0.1608
296.3949	0.1637
296.6073	0.1631
296.8197	0.1535
297.0321	0.1699
297.2444	0.1607
297.4567	0.1683
297.6691	0.1657
297.8814	0.1643
298.0937	0.1631
298.306	0.1628
298.5182	0.1604
298.7305	0.1657
298.9428	0.1599
299.155	0.1606
299.3672	0.1586
299.5794	0.1512
299.7916	0.1486
300.0038	0.1549
300.216	0.1585
300.4282	0.1627
300.6403	0.1492
300.8525	0.1688
301.0646	0.1614
301.2767	0.1703
301.4888	0.1555
301.7009	0.1611
301.913	0.1655
302.125	0.1674
302.3371	0.1555
302.5491	0.1562
302.7612	0.1681
302.9732	0.1689
303.1852	0.1593
303.3972	0.1624
303.6092	0.1538
303.8211	0.1597
304.0331	0.1468
304.245	0.1552
304.457	0.1526
304.6689	0.1561
304.8808	0.1589
305.0927	0.1473
305.3046	0.1508
305.5164	0.1569
305.7283	0.135
305.9401	0.1496
306.152	0.1453
306.3638	0.1499
306.5756	0.1525
306.7874	0.1479
306.9992	0.1508
307.2109	0.1417
307.4227	0.1237
307.6344	0.1397
307.8462	0.1455
308.0579	0.1263
308.2696	0.1279
308.4813	0.1346
308.693	0.1332
308.9046	0.1373
309.1163	0.1272
309.328	0.1269
309.5396	0.1172
309.7512	0.1212
309.9628	0.1219
310.1744	0.1222
310.386	0.1197
310.5976	0.1206
310.8091	0.1229
311.0207	0.1133
311.2322	0.1274
311.4437	0.1151
311.6552	0.1054
311.8667	0.1168
312.0782	0.1032
312.2897	0.094
312.5012	0.1175
312.7126	0.0953
312.924	0.0996
313.1355	0.1214
313.3469	0.1111
313.5583	0.1147
313.7696	0.1089
313.981	0.1112
314.1924	0.1059
314.4037	0.1055
314.6151	0.1116
314.8264	0.0994
315.0377	0.1007
315.249	0.0971
315.4603	0.1
315.6716	0.1047
315.8828	0.0904
316.0941	0.0998
316.3053	0.0927
316.5165	0.0983
316.7277	0.0996
316.9389	0.1009
317.1501	0.095
317.3613	0.0957
317.5724	0.0888
317.7836	0.1028
317.9947	0.1045
318.2058	0.0971
318.417	0.0891
318.6281	0.0925
318.8391	0.0978
319.0502	0.0949
319.2613	0.1002
319.4723	0.0968
319.6834	0.0986
319.8944	0.0856
320.1054	0.0992
320.3164	0.0978
320.5274	0.0926
320.7383	0.0996
320.9493	0.0944
321.1602	0.1096
321.3712	0.0972
321.5821	0.1013
321.793	0.1031
322.0039	0.1009
322.2148	0.0927
322.4257	0.0918
322.6365	0.1049
322.8474	0.1034
323.0582	0.0983
323.269	0.0972
323.4798	0.1084
323.6906	0.1025
323.9014	0.1005
324.1122	0.1023
324.3229	0.1026
324.5337	0.1082
324.7444	0.0869
324.9551	0.1062
325.1658	0.1057
325.3765	0.0966
325.5872	0.0971
325.7979	0.0983
326.0085	0.1084
326.2192	0.1081
326.4298	0.0982
326.6404	0.0986
326.851	0.0959
327.0616	0.1037
327.2722	0.1088
327.4828	0.108
327.6933	0.1066
327.9039	0.1048
328.1144	0.1106
328.3249	0.1066
328.5354	0.0932
328.7459	0.109
328.9564	0.0964
329.1669	0.1057
329.3773	0.1071
329.5878	0.1016
329.7982	0.1026
330.0086	0.1061
330.219	0.1078
330.4294	0.098
330.6398	0.1022
330.8502	0.0945
331.0605	0.109
331.2708	0.105
331.4812	0.1078
331.6915	0.1209
331.9018	0.1071
332.1121	0.1072
332.3224	0.1077
332.5326	0.1089
332.7429	0.1163
332.9531	0.1138
333.1633	0.1015
333.3735	0.1172
333.5837	0.1
333.7939	0.1053
334.0041	0.1287
334.2143	0.1113
334.4244	0.107
334.6346	0.0998
334.8447	0.1175
335.0548	0.1055
335.2649	0.0882
335.475	0.1144
335.685	0.1024
335.8951	0.1172
336.1051	0.1189
336.3152	0.1059
336.5252	0.1084
336.7352	0.1188
336.9452	0.125
337.1552	0.118
337.3652	0.1107
337.5751	0.1152
337.7851	0.1108
337.995	0.107
338.2049	0.1201
338.4148	0.1171
338.6247	0.12
338.8346	0.1135
339.0445	0.1158
339.2543	0.1139
339.4642	0.1154
339.674	0.1009
339.8838	0.1122
340.0936	0.1276
340.3034	0.1196
340.5132	0.1257
340.7229	0.1188
340.9327	0.1119
341.1424	0.1155
341.3522	0.1384
341.5619	0.1298
341.7716	0.1204
341.9813	0.1322
342.1909	0.1223
342.4006	0.1259
342.6102	0.1246
342.8199	0.1175
343.0295	0.1078
343.2391	0.1308
343.4487	0.129
343.6583	0.1358
343.8679	0.1285
344.0774	0.1242
344.287	0.1358
344.4965	0.1231
344.706	0.1251
344.9155	0.1297
345.125	0.1269
345.3345	0.1233
345.544	0.1431
345.7534	0.1282
345.9629	0.1239
346.1723	0.1226
346.3817	0.1273
346.5911	0.1277
346.8005	0.1406
347.0099	0.1264
347.2193	0.136
347.4286	0.1253
347.638	0.1391
347.8473	0.1332
348.0566	0.1354
348.2659	0.1348
348.4752	0.1235
348.6845	0.132
348.8937	0.1342
349.103	0.1262
349.3122	0.1358
349.5214	0.1359
349.7306	0.1266
349.9398	0.1385
350.149	0.1381
350.3582	0.1355
350.5674	0.1524
350.7765	0.1453
350.9856	0.1295
351.1948	0.1499
351.4039	0.1331
351.613	0.1457
351.822	0.1572
352.0311	0.1534
352.2402	0.1533
352.4492	0.1505
352.6582	0.1416
352.8672	0.152
353.0762	0.1536
353.2852	0.1564
353.4942	0.1536
353.7032	0.1596
353.9121	0.1491
354.1211	0.1558
354.33	0.158
354.5389	0.1658
354.7478	0.1518
354.9567	0.1507
355.1655	0.1414
355.3744	0.1614
355.5833	0.1568
355.7921	0.1772
356.0009	0.1479
356.2097	0.1844
356.4185	0.1627
356.6273	0.1536
356.8361	0.1597
357.0448	0.1531
357.2536	0.1616
357.4623	0.1484
357.671	0.1625
357.8797	0.1683
358.0884	0.1642
358.2971	0.1671
358.5057	0.1675
358.7144	0.1691
358.923	0.1617
359.1316	0.1654
359.3402	0.1602
359.5488	0.1662
359.7574	0.1707
359.966	0.1776
360.1746	0.1717
360.3831	0.1834
360.5916	0.1645
360.8002	0.1765
361.0087	0.1953
361.2172	0.1623
361.4256	0.1686
361.6341	0.1843
361.8426	0.1857
362.051	0.1739
362.2594	0.1761
362.4678	0.181
362.6762	0.1999
362.8846	0.1799
363.093	0.177
363.3014	0.1876
363.5097	0.1652
363.718	0.175
363.9264	0.1776
364.1347	0.1775
364.343	0.1988
364.5513	0.2082
364.7595	0.1931
364.9678	0.1961
365.176	0.1983
365.3842	0.1848
365.5925	0.1865
365.8007	0.1977
366.0089	0.1955
366.217	0.1871
366.4252	0.2043
366.6333	0.2071
366.8415	0.1973
367.0496	0.1928
367.2577	0.2083
367.4658	0.2117
367.6739	0.204
367.882	0.2076
368.09	0.1972
368.2981	0.2069
368.5061	0.2129
368.7141	0.2069
368.9221	0.2201
369.1301	0.2076
369.3381	0.2069
369.5461	0.2116
369.754	0.2138
369.962	0.222
370.1699	0.2166
370.3778	0.2157
370.5857	0.204
370.7936	0.2025
371.0015	0.1989
371.2093	0.2251
371.4172	0.2245
371.625	0.1997
371.8328	0.2131
372.0406	0.2094
372.2484	0.2097
372.4562	0.2375
372.664	0.2073
372.8717	0.233
373.0795	0.2134
373.2872	0.2238
373.4949	0.2219
373.7026	0.2262
373.9103	0.2155
374.118	0.2202
374.3256	0.2347
374.5333	0.2278
374.7409	0.2201
374.9485	0.234
375.1561	0.2256
375.3637	0.233
375.5713	0.237
375.7789	0.2241
375.9864	0.213
376.194	0.2116
376.4015	0.2461
376.609	0.2356
376.8165	0.2387
377.024	0.2279
377.2315	0.2153
377.4389	0.2523
377.6464	0.2522
377.8538	0.2321
378.0612	0.2329
378.2686	0.2369
378.476	0.2592
378.6834	0.2393
378.8908	0.2315
379.0981	0.2395
379.3055	0.2528
379.5128	0.2329
379.7201	0.2427
379.9274	0.2448
380.1347	0.2574
380.342	0.2561
380.5492	0.2127
380.7565	0.2494
380.9637	0.2458
381.1709	0.2319
381.3781	0.2612
381.5853	0.2449
381.7925	0.249
381.9997	0.2648
382.2068	0.2487
382.4139	0.2561
382.6211	0.2359
382.8282	0.2389
383.0353	0.2362
383.2424	0.2487
383.4494	0.2664
383.6565	0.2557
383.8635	0.2553
384.0706	0.2515
384.2776	0.2509
384.4846	0.2453
384.6916	0.2599
384.8986	0.2427
385.1055	0.2547
385.3125	0.2584
385.5194	0.2258
385.7263	0.2591
385.9333	0.2605
386.1402	0.2323
386.347	0.2333
386.5539	0.2381
386.7608	0.2807
386.9676	0.2359
387.1744	0.2497
387.3813	0.2367
387.5881	0.2719
387.7948	0.2392
388.0016	0.2478
388.2084	0.2561
388.4151	0.2192
388.6219	0.2729
388.8286	0.2439
389.0353	0.2587
389.242	0.2547
389.4487	0.2487
389.6553	0.2369
389.862	0.2224
390.0686	0.2405
390.2753	0.2404
390.4819	0.2392
390.6885	0.238
390.8951	0.2424
391.1016	0.2226
391.3082	0.2386
391.5147	0.2317
391.7213	0.2491
391.9278	0.2207
392.1343	0.2289
392.3408	0.238
392.5473	0.2301
392.7537	0.2408
392.9602	0.2206
393.1666	0.2229
393.373	0.2256
393.5794	0.2286
393.7858	0.2316
393.9922	0.2213
394.1986	0.2327
394.4049	0.2119
394.6113	0.2147
394.8176	0.1968
395.0239	0.2331
395.2302	0.2203
395.4365	0.2007
395.6428	0.2162
395.8491	0.1952
396.0553	0.2075
396.2615	0.1976
396.4678	0.2157
396.674	0.2118
396.8802	0.2148
397.0863	0.2327
397.2925	0.2145
397.4987	0.1933
397.7048	0.2303
397.9109	0.2229
398.117	0.2009
398.3231	0.2047
398.5292	0.2185
398.7353	0.222
398.9413	0.2136
399.1474	0.2006
399.3534	0.2143
399.5594	0.1932
399.7654	0.2187
399.9714	0.212
400.1774	0.1932
400.3833	0.2064
400.5893	0.2236
400.7952	0.1986
401.0011	0.2094
401.207	0.2245
401.4129	0.2045
401.6188	0.2329
401.8247	0.2123
402.0305	0.2017
402.2364	0.2123
402.4422	0.2063
402.648	0.2176
402.8538	0.2145
403.0596	0.2039
403.2654	0.2029
403.4711	0.2114
403.6768	0.1926
403.8826	0.2109
404.0883	0.2075
404.294	0.2189
404.4997	0.2195
404.7054	0.2068
404.911	0.1852
405.1167	0.2235
405.3223	0.2259
405.5279	0.2363
405.7335	0.2086
405.9391	0.2164
406.1447	0.2055
406.3502	0.2143
406.5558	0.2034
406.7613	0.2055
406.9668	0.2163
407.1724	0.203
407.3778	0.2102
407.5833	0.2128
407.7888	0.2151
407.9942	0.2246
408.1997	0.2201
408.4051	0.2082
408.6105	0.2174
408.8159	0.1896
409.0213	0.2034
409.2267	0.222
409.432	0.2029
409.6374	0.2197
409.8427	0.2029
410.048	0.2131
410.2533	0.1964
410.4586	0.194
410.6639	0.1936
410.8691	0.205
411.0744	0.2124
411.2796	0.1969
411.4848	0.2091
411.69	0.1909
411.8952	0.2147
412.1004	0.1889
412.3056	0.2156
412.5107	0.1982
412.7158	0.2274
412.921	0.2014
413.1261	0.2066
413.3312	0.1996
413.5362	0.1978
413.7413	0.1991
413.9464	0.1958
414.1514	0.1866
414.3564	0.2142
414.5614	0.1777
414.7664	0.2023
414.9714	0.2126
415.1764	0.2115
415.3813	0.2111
415.5863	0.1871
415.7912	0.189
415.9961	0.2122
416.201	0.2073
416.4059	0.2008
416.6108	0.1925
416.8156	0.2176
417.0205	0.1988
417.2253	0.1834
417.4301	0.1952
417.6349	0.1983
417.8397	0.1843
418.0445	0.1856
418.2492	0.2055
418.454	0.1929
418.6587	0.1987
418.8634	0.1916
419.0681	0.1897
419.2728	0.1663
419.4775	0.1819
419.6822	0.1929
419.8868	0.1766
420.0915	0.185
420.2961	0.172
420.5007	0.1951
420.7053	0.1941
420.9099	0.1746
421.1144	0.1789
421.319	0.1878
421.5235	0.1924
421.728	0.1786
421.9325	0.1798
422.137	0.1935
422.3415	0.1765
422.546	0.1897
422.7504	0.1888
422.9549	0.1906
423.1593	0.1935
423.3637	0.1977
423.5681	0.1822
423.7725	0.1667
423.9769	0.1658
424.1812	0.1905
424.3856	0.1633
424.5899	0.1791
424.7942	0.1735
424.9985	0.1709
425.2028	0.1671
425.4071	0.1801
425.6113	0.1632
425.8156	0.1723
426.0198	0.1758
426.224	0.1686
426.4282	0.1538
426.6324	0.1697
426.8366	0.1652
427.0407	0.1526
427.2449	0.1728
427.449	0.1483
427.6531	0.1287
427.8572	0.1601
428.0613	0.1578
428.2654	0.1498
428.4694	0.1517
428.6735	0.1487
428.8775	0.1673
429.0815	0.1566
429.2855	0.1496
429.4895	0.1501
429.6935	0.1435
429.8975	0.1465
430.1014	0.1429
430.3053	0.1292
430.5093	0.1494
430.7132	0.1372
430.9171	0.1412
431.1209	0.1335
431.3248	0.1356
431.5286	0.1393
431.7325	0.1411
431.9363	0.1155
432.1401	0.1381
432.3439	0.1128
432.5477	0.1161
432.7514	0.1112
432.9552	0.1267
433.1589	0.1172
433.3627	0.1067
433.5664	0.1044
433.7701	0.1211
433.9737	0.1036
434.1774	0.1177
434.3811	0.1067
434.5847	0.1072
434.7883	0.1112
434.9919	0.095
435.1955	0.1071
435.3991	0.1028
435.6027	0.1188
435.8062	0.1092
436.0098	0.0946
436.2133	0.0906
436.4168	0.0854
436.6203	0.0986
436.8238	0.1036
437.0272	0.0972
437.2307	0.0881
437.4341	0.1074
437.6375	0.0938
437.841	0.0934
438.0443	0.1046
438.2477	0.1035
438.4511	0.071
438.6545	0.084
438.8578	0.1066
439.0611	0.0836
439.2644	0.0908
439.4677	0.0764
439.671	0.0796
439.8743	0.0848
440.0775	0.0718
440.2808	0.0689
440.484	0.0632
440.6872	0.0638
440.8904	0.0703
441.0936	0.08
441.2967	0.0749
441.4999	0.0771
441.703	0.068
441.9062	0.0688
442.1093	0.0714
442.3124	0.0671
442.5155	0.0505
442.7185	0.0551
442.9216	0.0602
443.1246	0.0635
443.3276	0.0546
443.5307	0.0596
443.7337	0.0532
443.9366	0.0602
444.1396	0.0489
444.3426	0.0495
444.5455	0.0666
444.7484	0.0444
444.9513	0.0547
445.1542	0.0546
445.3571	0.0465
445.56	0.0452
445.7628	0.0355
445.9657	0.0476
446.1685	0.0625
446.3713	0.0443
446.5741	0.0391
446.7769	0.0378
446.9797	0.0368
447.1824	0.0514
447.3852	0.0333
447.5879	0.0447
447.7906	0.0294
447.9933	0.0229
448.196	0.0305
448.3986	0.0406
448.6013	0.0343
448.8039	0.014
449.0066	0.043
449.2092	0.0273
449.4118	0.0308
449.6143	0.0379
449.8169	0.0266
450.0195	0.0173
450.222	0.0055
450.4245	0.0246
450.627	0.0293
450.8295	0.0353
451.032	0.0258
451.2345	0.0251
451.4369	0.0318
451.6394	0.0277
451.8418	0.0191
452.0442	0.0132
452.2466	0.029
452.449	0.0074
452.6513	0.0194
452.8537	0.0112
453.056	-0.0015
453.2583	0.0132
453.4607	0.0095
453.663	0.0267
453.8652	0.0243
454.0675	-0.0056
454.2697	0.0146
454.472	0.0035
454.6742	0.0085
454.8764	0.0295
455.0786	0.0153
455.2808	0.0107
455.4829	0.017
455.6851	0.0172
455.8872	0.0126
456.0893	0.0115
456.2915	0.0102
456.4935	0.0258
456.6956	0.0004
456.8977	0.0206
457.0997	-0.0005
457.3018	-0.0042
457.5038	0.0114
457.7058	0.0094
457.9078	0.0041
458.1098	0.0101
458.3117	0.0168
458.5137	0.0125
458.7156	0.0123
458.9175	0.0038
459.1194	0.0076
459.3213	0.0081
459.5232	-0.0014
459.725	-0.0082
459.9269	-0.0029
460.1287	0.0029
460.3305	-0.0017
460.5323	0.003
460.7341	0.007
460.9359	0.007
461.1376	-0.0031
461.3394	-0.0078
461.5411	0.008
461.7428	0.003
461.9445	0.008
462.1462	0.015
462.3479	0.0049
462.5495	0.012
462.7512	0.01
462.9528	-0.0139
463.1544	0.0033
463.356	0.0004
463.5576	0.0103
463.7592	-0.0125
463.9607	0.0067
464.1623	0.0148
464.3638	0.0111
464.5653	0.0037
464.7668	-0.0135
464.9683	0.0028
465.1697	0.0269
465.3712	-0.0108
465.5726	-0.0072
465.7741	-0.0118
465.9755	-0.0173
466.1769	0.0017
466.3782	-0.0073
466.5796	-0.0077
466.7809	0.0171
466.9823	-0.0121
467.1836	0.0091
467.3849	-0.0042
467.5862	0.0062
467.7875	-0.0097
467.9887	0.009
468.19	0.0044
468.3912	-0.0092
468.5924	0.0031
468.7936	0.001
468.9948	0.0005
469.196	0.0031
469.3972	-0.0086
469.5983	0.0114
469.7994	-0.0028
470.0006	-0.0046
470.2017	-0.009
470.4027	-0.0016
470.6038	-0.0064
470.8049	-0.0155
471.0059	0.0026
471.2069	-0.0254
471.408	0.0036
471.6089	0.0083
471.8099	0.0074
472.0109	0.0176
472.2119	-0.0061
472.4128	-0.0153
472.6137	0.0016
472.8146	-0.0128
473.0155	-0.0041
473.2164	-0.0078
473.4173	0.0014
473.6181	0.0095
473.819	0.0065
474.0198	-0.003
474.2206	-0.0061
474.4214	-0.0027
474.6222	-0.0004
474.8229	-0.0021
475.0237	-0.0099
475.2244	-0.0128
475.4251	0.005
475.6258	0.0077
475.8265	-0.0025
476.0272	0.0095
476.2278	-0.004
476.4285	-0.0026
476.6291	-0.0168
476.8297	-0.0002
477.0303	-0.0053
477.2309	0.0006
477.4315	-0.0204
477.632	-0.0006
477.8326	0.0014
478.0331	0.0045
478.2336	0.0054
478.4341	-0.0009
478.6346	-0.0094
478.8351	-0.001
479.0355	0.0007
479.236	-0.0097
479.4364	0.0025
479.6368	-0.0019
479.8372	-0.0106
480.0376	0.0022
480.2379	-0.0203
480.4383	-0.0116
480.6386	0.0056
480.8389	0.0071
481.0392	-0.0198
481.2395	0.0018
481.4398	0.0081
481.6401	0.0078
481.8403	-0.0033
482.0405	0.0009
482.2408	0.001
482.441	0.0101
482.6411	0.0045
482.8413	-0.0076
483.0415	-0.0077
483.2416	0.0034
483.4417	-0.0025
483.6419	-0.0042
483.8419	0.0012
484.042	0.0098
484.2421	0.0034
484.4422	-0.0104
484.6422	-0.0002
484.8422	-0.0077
485.0422	-0.0146
485.2422	0.0087
485.4422	-0.0131
485.6422	-0.0096
485.8421	-0.004
486.042	0.001
486.242	-0.004
486.4419	-0.009
486.6417	-0.0133
486.8416	-0.0017
487.0415	-0.0086
487.2413	-0.0128
487.4411	-0.0055
487.641	-0.0121
487.8408	0.0065
488.0405	-0.0033
488.2403	-0.0105
488.4401	-0.0031
488.6398	-0.0081
488.8395	-0.0109
489.0392	0.0022
489.2389	-0.0123
489.4386	-0.0103
489.6383	-0.0034
489.8379	0.0102
490.0376	-0.006
490.2372	-0.0128
490.4368	-0.0115
490.6364	-0.0093
490.836	-0.0101
491.0355	-0.0089
491.2351	-0.0077
491.4346	-0.0065
491.6341	-0.0114
491.8336	0.0003
492.0331	-0.0108
492.2326	-0.0157
492.432	-0.006
492.6315	-0.0044
492.8309	-0.0041
493.0303	-0.0085
493.2297	-0.0109
493.4291	-0.0145
493.6284	0.0025
493.8278	0.0038
494.0271	0.0026
494.2264	-0.0033
494.4257	-0.0085
494.625	-0.0055
494.8243	-0.0106
495.0236	-0.0134
495.2228	-0.0054
495.422	0.0013
495.6213	-0.0058
495.8205	0.004
496.0196	0.0062
496.2188	-0.0083
496.418	-0.0107
496.6171	-0.0155
496.8162	-0.0064
497.0153	-0.002
497.2144	-0.0044
497.4135	-0.0063
497.6126	-0.0179
497.8116	-0.0136
498.0107	-0.0118
498.2097	-0.0128
498.4087	-0.0164
498.6077	-0.0068
498.8067	-0.011
499.0056	0.0041
499.2046	-0.0151
499.4035	-0.0166
499.6024	-0.0071
499.8013	0.0054
500.0002	-0.0153
500.199	-0.0016
500.3979	-0.0084
500.5967	-0.0149
500.7956	-0.0056
500.9944	-0.0026
501.1932	-0.0136
501.3919	-0.0036
501.5907	-0.0128
501.7895	-0.0027
501.9882	-0.0142
502.1869	-0.0011
502.3856	-0.0073
502.5843	-0.0055
502.783	-0.0089
502.9816	-0.0118
503.1803	-0.0137
503.3789	-0.0102
503.5775	0.006
503.7761	-0.008
503.9747	-0.0059
504.1732	-0.0067
504.3718	0.0046
504.5703	-0.0031
504.7689	-0.0101
504.9674	-0.0059
505.1658	-0.0138
505.3643	-0.0153
505.5628	-0.0105
505.7612	-0.0082
505.9597	-0.0039
506.1581	-0.0111
506.3565	0.0065
506.5549	-0.0041
506.7532	-0.0159
506.9516	-0.0051
507.1499	-0.0094
507.3482	-0.0196
507.5465	-0.0036
507.7448	-0.0077
507.9431	0.0007
508.1414	0.0082
508.3396	-0.007
508.5379	-0.0141
508.7361	-0.0057
508.9343	-0.0065
509.1325	-0.006
509.3306	-0.0068
509.5288	-0.0047
509.7269	-0.0101
509.9251	-0.0068
510.1232	-0.011
510.3213	0.0017
510.5193	-0.007
510.7174	-0.0166
510.9154	-0.018
511.1135	-0.008
511.3115	-0.0068
511.5095	0
511.7075	-0.0045
511.9055	-0.01
512.1034	-0.0104
512.3014	-0.0031
512.4993	-0.0008
512.6972	-0.0138
512.8951	-0.0166
513.093	-0.0049
513.2908	-0.0069
513.4887	-0.0051
513.6865	-0.0081
513.8844	-0.0118
514.0822	-0.0102
514.2799	-0.0123
514.4777	-0.0125
514.6755	0.0014
514.8732	-0.0037
515.0709	-0.0084
515.2687	-0.0053
515.4664	-0.0034
515.664	-0.0045
515.8617	-0.0064
516.0594	-0.0156
516.257	-0.001
516.4546	-0.0109
516.6522	-0.003
516.8498	-0.0056
517.0474	-0.0014
517.2449	-0.0066
517.4425	-0.0088
517.64	-0.0021
517.8375	0.0043
518.035	-0.0094
518.2325	-0.0158
518.43	-0.0043
518.6274	-0.0044
518.8249	-0.0117
519.0223	-0.0049
519.2197	-0.0077
519.4171	-0.0093
519.6145	0.0016
519.8118	-0.0011
520.0092	-0.0005
520.2065	-0.0111
520.4038	-0.0149
520.6011	-0.0004
520.7984	0.0005
520.9956	-0.0129
521.1929	-0.015
521.3901	-0.0042
521.5874	-0.0084
521.7846	-0.0022
521.9818	-0.0129
522.1789	-0.0121
522.3761	-0.003
522.5732	-0.0135
522.7704	-0.0036
522.9675	-0.0036
523.1646	-0.0109
523.3617	-0.0017
523.5587	0.0036
523.7558	-0.0026
523.9528	-0.0028
524.1498	-0.0071
524.3468	-0.0022
524.5438	-0.0094
524.7408	-0.0008
524.9378	0.0068
525.1347	-0.0056
525.3316	0.0036
525.5285	-0.0153
525.7254	-0.0034
525.9223	-0.0094
526.1192	-0.0027
526.316	-0.0116
526.5129	0.0025
526.7097	-0.0126
526.9065	-0.0102
527.1033	-0.0076
527.3	-0.0071
527.4968	0.005
527.6935	-0.0079
527.8903	-0.0125
528.087	-0.0052
528.2837	-0.0117
528.4804	-0.0096
528.677	-0.0117
528.8737	0.0031
529.0703	0
529.2669	0.003
529.4635	-0.0085
529.6601	0.0002
529.8567	-0.0021
530.0532	-0.0115
530.2498	-0.0059
530.4463	-0.0013
530.6428	-0.0092
530.8393	-0.0065
531.0358	0.0013
531.2322	0.005
531.4287	-0.0106
531.6251	-0.008
531.8215	0.0019
532.0179	0.0037
532.2143	0.0003
532.4107	-0.0079
532.607	-0.0065
532.8034	0.0007
532.9997	-0.0069
533.196	0.001
533.3923	-0.001
533.5886	-0.0019
533.7848	-0.0027
533.9811	-0.0166
534.1773	0.0084
534.3735	-0.0031
534.5697	-0.0012
534.7659	-0.0071
534.9621	0.0105
535.1582	-0.0141
535.3544	-0.0037
535.5505	-0.014
535.7466	-0.011
535.9427	-0.0073
536.1387	0.0015
536.3348	-0.0082
536.5308	0.0075
536.7269	-0.009
536.9229	0.0047
537.1189	-0.0055
537.3148	-0.0018
537.5108	-0.0069
537.7068	-0.0037
537.9027	0.0006
538.0986	0.0002
538.2945	-0.0043
538.4904	-0.005
538.6863	0.0027
538.8821	-0.0021
539.078	-0.0074
539.2738	0.0039
539.4696	-0.0031
539.6654	0.0016
539.8611	0.0064
540.0569	0.0008
540.2526	-0.0093
540.4484	0.0044
540.6441	0.0001
540.8398	-0.0009
541.0355	0.0054
541.2311	-0.0004
541.4268	-0.0138
541.6224	-0.0013
541.818	0.0018
542.0136	-0.01
542.2092	-0.0032
542.4048	0.0085
542.6003	-0.0055
542.7959	0.0012
542.9914	0.003
543.1869	-0.0015
543.3824	-0.005
543.5779	-0.0101
543.7734	-0.0038
543.9688	-0.0063
544.1642	0.0002
544.3596	0.0015
544.555	-0.0023
544.7504	0.0023
544.9458	-0.0101
545.1411	-0.0035
545.3365	0.0035
545.5318	-0.0008
545.7271	0.0059
545.9224	-0.0068
546.1177	-0.0104
546.3129	0
546.5081	-0.0046
546.7034	-0.0024
546.8986	-0.0011
547.0938	-0.01
547.289	-0.0049
547.4841	-0.0038
547.6793	0.0083
547.8744	-0.016
548.0695	-0.0059
548.2646	-0.0088
548.4597	0.0065
548.6548	0.0075
548.8498	-0.0027
549.0448	0.0031
549.2399	-0.0051
549.4349	-0.0061
549.6298	-0.0007
549.8248	-0.0081
550.0198	0.0021
550.2147	-0.0025
550.4096	-0.0063
550.6045	0.0003
550.7994	0.0044
550.9943	-0.0018
551.1892	0.0051
551.384	0.004
551.5788	-0.01
551.7737	0.0074
551.9685	-0.0047
552.1632	-0.0024
552.358	-0.0065
552.5528	0.0018
552.7475	-0.0042
552.9422	-0.0019
553.1369	0.0058
553.3316	0.0059
553.5263	-0.0102
553.7209	0.0047
553.9156	-0.0044
554.1102	-0.0061
554.3048	-0.0007
554.4994	0.0085
554.694	-0.0105
554.8885	-0.003
555.0831	-0.0058
555.2776	-0.0022
555.4721	0.0029
555.6666	-0.007
555.8611	0.0104
556.0555	0.0024
556.25	0.0008
556.4444	-0.0082
556.6388	-0.0037
556.8332	-0.0017
557.0276	-0.0043
557.222	-0.0066
557.4163	-0.006
557.6107	-0.0079
557.805	0.0039
557.9993	-0.0038
558.1936	-0.0067
558.3879	-0.0058
558.5821	0.0022
558.7764	-0.0073
558.9706	-0.0088
559.1648	0.0007
559.359	-0.0101
559.5532	-0.0132
559.7473	-0.002
559.9415	-0.0072
560.1356	-0.0101
560.3297	-0.0026
560.5238	-0.0015
560.7179	-0.0052
560.9119	-0.0032
561.106	-0.0042
561.3	-0.0071
561.494	-0.0027
561.688	-0.0109
561.882	-0.0095
562.076	-0.0133
562.2699	0.0002
562.4639	-0.0135
562.6578	-0.0027
562.8517	-0.0011
563.0456	-0.0005
563.2395	-0.0033
563.4333	-0.0012
563.6272	0.0067
563.821	-0.0041
564.0148	-0.0071
564.2086	0.0019
564.4024	-0.0089
564.5961	-0.0038
564.7899	0.0123
564.9836	0.0013
565.1773	0.0051
565.371	0.0013
565.5647	0.0027
565.7584	0.0054
565.952	-0.0004
566.1456	0.0001
566.3393	-0.0002
566.5329	-0.0066
566.7264	-0.0026
566.92	-0.0076
567.1136	-0.0002
567.3071	-0.0032
567.5006	0.0007
567.6941	0.0062
567.8876	-0.0054
568.0811	-0.0084
568.2745	-0.0024
568.468	0.0094
568.6614	0.0055
568.8548	0.0033
569.0482	-0.0001
569.2416	0.0012
569.4349	0.0012
569.6283	-0.0017
569.8216	-0.003
570.0149	-0.011
570.2082	0.003
570.4015	0.0022
570.5947	0.0083
570.788	0.0099
570.9812	0.0041
571.1744	0.0008
571.3676	-0.0109
571.5608	-0.0077
571.754	-0.0018
571.9471	0.0042
572.1402	0.001
572.3333	-0.0034
572.5264	-0.0074
572.7195	-0.0031
572.9126	-0.0036
573.1057	0.0004
573.2987	-0.0015
573.4917	0.0039
573.6847	-0.0085
573.8777	0.0051
574.0707	0.0042
574.2636	-0.0015
574.4566	-0.0044
574.6495	0.0094
574.8424	0.0019
575.0353	0.0022
575.2281	0.0026
575.421	0.0051
575.6138	0.0043
575.8067	-0
575.9995	-0.0004
576.1923	0.0053
576.385	0.0041
576.5778	-0.0003
576.7706	0.0008
576.9633	0.0038
577.156	0.0025
577.3487	0.0009
577.5414	0.0038
577.734	-0.0042
577.9267	0.0012
578.1193	-0.011
578.3119	-0.009
578.5045	0.0013
578.6971	0.0008
578.8897	0.0012
579.0822	-0.0054
579.2747	0.004
579.4673	0.0013
579.6598	-0.0008
579.8522	0.0025
580.0447	-0.0067
580.2372	0.0016
580.4296	0.0074
580.622	-0.0028
580.8144	0.0044
581.0068	-0.003
581.1992	-0.0093
581.3915	-0.006
581.5839	-0.0031
581.7762	-0.0044
581.9685	-0.0002
582.1608	0.0005
582.353	0.0015
582.5453	0.0003
582.7375	-0.0003
582.9298	0.0066
583.122	0.0017
583.3142	0.0031
583.5063	-0.0003
583.6985	0.0012
583.8906	-0.0045
584.0827	-0.0045
584.2749	0.0062
584.4669	-0.0029
584.659	-0.0005
584.8511	-0.0013
585.0431	-0.0014
585.2352	0.0003
585.4272	-0.0029
585.6192	0.0021
585.8111	-0.0006
586.0031	-0.005
586.195	-0.0052
586.387	0.0066
586.5789	-0.0066
586.7708	0.0028
586.9627	0.0042
587.1545	-0.0066
587.3464	0.0008
587.5382	-0.0021
587.73	0.0017
587.9218	0.0032
588.1136	0.0029
588.3053	0.0025
588.4971	-0.0044
588.6888	-0.0081
588.8805	0.0012
589.0722	0.0037
589.2639	-0.0038
589.4556	-0.0046
589.6472	-0.0043
589.8389	-0.0004
590.0305	-0.0039
590.2221	0.0063
590.4137	-0.007
590.6052	0.0095
590.7968	-0.0058
590.9883	0.001
591.1798	-0.0038
591.3713	-0.0026
591.5628	-0.0028
591.7543	0.003
591.9458	-0.0085
592.1372	0.0045
592.3286	0.0026
592.52	-0.0009
592.7114	0.0024
592.9028	-0.0018
593.0941	0.0044
593.2855	-0.0001
593.4768	-0.0097
593.6681	-0.0095
593.8594	0.0003
594.0506	0.0029
594.2419	0.0033
594.4331	0.0043
594.6244	0.006
594.8156	-0.0038
595.0067	-0
595.1979	0.0068
595.3891	0.0031
595.5802	-0.0011
595.7713	-0.0032
595.9624	-0.0074
596.1535	0.0038
596.3446	-0.001
596.5357	0.0008
596.7267	0.0044
596.9177	-0.0037
597.1087	-0.0084
597.2997	-0.0046
597.4907	0.001
597.6817	-0.0089
597.8726	-0.003
598.0635	-0.0067
598.2544	-0.003
598.4453	-0.0033
598.6362	-0.0065
598.827	-0.0021
599.0179	0.0037
599.2087	-0.0026
599.3995	0.0036
599.5903	-0.0033
599.7811	-0.0004
599.9718	0.0009
600.1626	-0.004
600.3533	-0.0075
600.544	-0.0002
600.7347	0.0008
600.9254	0.0023
601.116	-0.0094
601.3067	-0.003
601.4973	-0.0069
601.6879	0.0075
601.8785	-0.0059
602.0691	0.0105
602.2596	-0.0051
602.4502	0.0062
602.6407	0.0094
602.8312	-0.0034
603.0217	-0.0114
603.2122	-0.0017
603.4027	-0.0049
603.5931	-0.0001
603.7835	-0.0021
603.9739	-0.0008
604.1643	-0.0008
604.3547	-0.0131
604.5451	0.0044
604.7354	-0.001
604.9257	-0.002
605.116	-0.0051
605.3063	-0.0026
605.4966	0.0006
605.6869	0.0046
605.8771	0.0126
606.0673	0.0079
606.2575	0.0026
606.4477	0.0053
606.6379	0.0045
606.8281	0.0009
607.0182	-0.0058
607.2083	0.0102
607.3985	-0.0068
607.5885	-0.0022
607.7786	0.0001
607.9687	-0.0004
608.1587	0.006
608.3488	0.0057
608.5388	-0.0039
608.7288	-0.0058
608.9187	-0.0036
609.1087	0.0059
609.2986	-0.0034
609.4886	-0.0011
609.6785	-0.0015
609.8684	0.0044
610.0582	0.001
610.2481	0.0038
610.4379	0.002
610.6278	-0.001
610.8176	0.0032
611.0074	0.0013
611.1971	-0.0041
611.3869	0.001
611.5766	-0.0072
611.7664	0.0065
611.9561	-0.0021
612.1458	0.0034
612.3354	-0.0058
612.5251	0.0012
612.7147	0.0004
612.9044	0.0031
613.094	-0.0064
613.2836	0.0051
613.4731	0.004
613.6627	-0.0024
613.8522	0.0022
614.0417	0.0048
614.2313	-0.0077
614.4207	-0.0034
614.6102	-0.0031
614.7997	-0.0003
614.9891	0.0004
615.1785	0.0009
615.3679	-0.0038
615.5573	0.0098
615.7467	-0.0037
615.9361	-0.0045
616.1254	-0.0021
616.3147	0.0018
616.504	0.0046
616.6933	-0.0042
616.8826	0.0037
617.0718	0.0076
617.2611	-0.0017
617.4503	-0.0077
617.6395	0.0018
617.8287	-0.0032
618.0179	-0.0034
618.207	-0.0023
618.3961	-0.001
618.5853	0.0024
618.7744	0.0077
618.9634	-0.0002
619.1525	0.0027
619.3416	0.0017
619.5306	0.0017
619.7196	0.0036
619.9086	-0.0084
620.0976	0.0003
620.2866	0.0039
620.4755	-0.0003
620.6645	-0.0036
620.8534	0.0021
621.0423	0.0071
621.2312	0.0039
621.42	0.0026
621.6089	0.0012
621.7977	0.0035
621.9865	-0.0042
622.1753	0.0054
622.3641	0.0052
622.5529	0.0112
622.7416	0.0041
622.9303	-0.0005
623.1191	0.0091
623.3078	-0.0042
623.4964	0.0059
623.6851	-0.0021
623.8737	-0.0017
624.0624	0.0046
624.251	0.0011
624.4396	-0.0056
624.6282	-0.0052
624.8167	0.0027
625.0053	0.0005
625.1938	0.0034
625.3823	0.001
625.5708	0.0018
625.7593	-0.011
625.9477	-0.01
626.1362	-0.0017
626.3246	-0.0054
626.513	-0.0001
626.7014	0.0019
626.8898	-0.0001
627.0781	-0.0004
627.2665	-0.0046
627.4548	0.0032
627.6431	0.0029
627.8314	-0.0014
628.0197	0.0065
628.2079	-0.0063
628.3962	-0.0043
628.5844	0.0042
628.7726	0.0055
628.9608	0.003
629.1489	0.0032
629.3371	-0.0005
629.5252	-0.0013
629.7134	0.0093
629.9015	0.0049
630.0895	-0.0021
630.2776	0.0093
630.4657	0.0024
630.6537	0.0023
630.8417	-0.0033
631.0297	0.0021
631.2177	0.0096
631.4057	-0.0048
631.5936	0.0027
631.7815	0.0005
631.9695	-0.0025
632.1574	0.0031
632.3452	0.0093
632.5331	0.0023
632.7209	0.0008
632.9088	0.0046
633.0966	0.0023
633.2844	-0.0084
633.4722	-0.0023
633.6599	0.0054
633.8477	0.0077
634.0354	0.005
634.2231	-0.0044
634.4108	0.0071
634.5985	0.0081
634.7861	0.0049
634.9738	-0.0019
635.1614	-0.0015
635.349	0.0068
635.5366	0.0033
635.7242	0.0008
635.9117	0.0065
636.0993	0.0042
636.2868	0.0069
636.4743	-0.0029
636.6618	0.0104
636.8492	0.0016
637.0367	0.0068
637.2241	-0.0025
637.4115	-0.0074
637.5989	0.0007
637.7863	-0.0015
637.9737	-0.001
638.161	0.0045
638.3484	-0.0002
638.5357	0.0046
638.723	-0.004
638.9103	0.0006
639.0975	0.0012
639.2848	-0.0041
639.472	0.0005
639.6592	0.0022
639.8464	0.0081
640.0336	0.0067
640.2208	-0.004
640.4079	0.0027
640.595	-0.0027
640.7821	0.0009
640.9692	0.0014
641.1563	-0.0027
641.3434	0.0033
641.5304	-0.0002
641.7174	0.0038
641.9044	-0.0014
642.0914	0.0004
642.2784	-0.0001
642.4653	0.0108
642.6523	0.0013
642.8392	-0.0058
643.0261	0.0008
643.213	0.0087
643.3999	-0.0073
643.5867	-0.0092
643.7735	-0.001
643.9604	-0.0032
644.1472	0.0047
644.3339	0.0026
644.5207	0.0003
644.7075	-0.0092
644.8942	0.0038
645.0809	0.0053
645.2676	0.012
645.4543	-0.0041
645.6409	0.0071
645.8276	0.0018
646.0142	0.0064
646.2008	-0.0076
646.3874	-0.0028
646.574	-0.0066
646.7605	-0.0002
646.9471	-0.01
647.1336	-0.003
647.3201	0.0021
647.5066	-0.004
647.6931	0.0072
647.8795	-0.0008
648.0659	0.0038
648.2524	0.0062
648.4388	-0.003
648.6252	0.0021
648.8115	-0.0004
648.9979	0.001
649.1842	0.0001
649.3705	-0.0009
649.5568	0.0054
649.7431	0.0113
649.9294	-0.0019
650.1156	0.0049
650.3018	-0.0033
650.488	0.0071
650.6742	0.0057
650.8604	0.0036
651.0466	-0.0052
651.2327	-0.0038
651.4188	-0.0051
651.6049	-0.0031
651.791	-0.0039
651.9771	-0.0008
652.1632	0.0054
652.3492	0.0007
652.5352	-0.0045
652.7212	0.0019
652.9072	0.0039
653.0932	0.0008
653.2791	0.0008
653.465	0.0009
653.651	0.0006
653.8369	-0.0005
654.0227	-0.0046
654.2086	0.0046
654.3944	0.0041
654.5803	-0.0021
654.7661	-0.0048
654.9519	0.0079
655.1377	-0.0041
655.3234	-0.0011
655.5092	-0.006
655.6949	-0.0045
655.8806	-0.0055
656.0663	-0.0017
656.2519	0.0012
656.4376	-0.0032
656.6232	0.008
656.8088	0.0063
656.9945	0.0003
657.18	0.0042
657.3656	-0.001
657.5511	0.0005
657.7367	-0.003
657.9222	0.012
658.1077	0.0012
658.2932	0.0016
658.4786	-0.0145
658.6641	-0.0116
658.8495	-0.0038
659.0349	-0.0103
659.2203	-0.0045
659.4057	0.0016
659.591	0.0064
659.7764	-0.0013
659.9617	0.0055
660.147	0.0042
660.3323	0.0088
660.5176	0.0076
660.7028	0.0009
660.888	-0.0011
661.0733	0.0025
661.2585	-0.0099
661.4436	0.0031
661.6288	-0.001
661.8139	0.0019
661.9991	0.0049
662.1842	-0.0029
662.3693	0.0034
662.5544	-0.0064
662.7394	-0.0065
662.9245	-0.0049
663.1095	0.0016
663.2945	-0.0077
663.4795	-0.0023
663.6644	-0.004
663.8494	0.0064
664.0343	0.0002
664.2193	-0.0018
664.4042	-0.0031
664.589	-0.0067
664.7739	-0.0018
664.9587	-0.0077
665.1436	-0.007
665.3284	0.0041
665.5132	-0.0022
665.698	-0.0047
665.8827	0.007
666.0675	-0.0025
666.2522	-0.0081
666.4369	-0.0011
666.6216	0.0022
666.8063	-0.0029
666.9909	0.0002
667.1756	-0.0032
667.3602	-0.0023
667.5448	0.0015
667.7294	0.0084
667.9139	0.0008
668.0985	0.0089
668.283	0.0013
668.4675	0.0046
668.652	0.0012
668.8365	0.0057
669.0209	0.0064
669.2054	0.0166
669.3898	0.0001
669.5742	-0.0018
669.7586	0.0033
669.943	0.0116
670.1273	0.0065
670.3117	0.0051
670.496	0.0067
670.6803	0.009
670.8646	0.0041
671.0488	-0.0067
671.2331	0.0016
671.4173	-0.0002
671.6015	-0.0052
671.7857	-0.0018
671.9699	0.0023
672.1541	0.003
672.3382	-0.0023
672.5223	0.0022
672.7064	-0.004
672.8905	0.0079
673.0746	0.0095
673.2587	0.0027
673.4427	0.0059
673.6267	0.0067
673.8107	0.0112
673.9947	-0.0014
674.1787	0.0052
674.3626	-0.0029
674.5465	0.0065
674.7304	0.0053
674.9143	0.0018
675.0982	0.0038
675.2821	-0.0015
675.4659	0.0056
675.6497	0.0005
675.8335	0.0027
676.0173	0.0003
676.2011	-0.0056
676.3849	-0.0085
676.5686	-0.0086
676.7523	-0.0065
676.936	-0.0017
677.1197	-0.0025
677.3034	-0.001
677.487	-0.0002
677.6706	0.0005
677.8542	0.0054
678.0378	0.0008
678.2214	-0.004
678.405	-0.0013
678.5885	-0.0079
678.772	0.0027
678.9555	-0.0079
679.139	-0.0045
679.3225	-0.0028
679.5059	-0.0022
679.6894	-0.0016
679.8728	-0.0002
680.0562	-0.0094
680.2395	-0.0073
680.4229	-0.0009
680.6062	0.0124
680.7896	0.0018
680.9729	-0.0024
681.1562	0.001
681.3394	0.0044
681.5227	-0.0045
681.7059	0.0004
681.8891	0.0031
682.0723	0.0085
682.2555	0.0019
682.4387	0.0022
682.6218	-0.0021
682.805	0.0046
682.9881	0.0044
683.1712	0.0042
683.3542	0.0044
683.5373	0.0001
683.7203	-0.0064
683.9034	-0.0022
684.0864	-0.0027
684.2694	-0.0012
684.4523	0.0034
684.6353	-0.0112
684.8182	-0.0028
685.0011	-0.0034
685.184	0.0018
685.3669	0.0004
685.5498	0.0038
685.7326	-0.0068
685.9154	-0.0054
686.0982	0.0056
686.281	-0.0046
686.4638	0.0044
686.6465	-0.0035
686.8293	-0.0026
687.012	0.0047
687.1947	-0.0069
687.3774	0.0005
687.56	-0.0084
687.7427	0.0065
687.9253	-0.0049
688.1079	-0.0033
688.2905	0.0106
688.4731	0.0016
688.6556	-0.0007
688.8382	-0.0044
689.0207	-0.0022
689.2032	-0.0072
689.3857	-0.0115
689.5681	-0.0013
689.7506	-0.0038
689.933	-0.0064
690.1154	-0.0015
690.2978	-0.0026
690.4802	0.0003
690.6626	-0.0028
690.8449	-0.0092
691.0272	0.007
691.2095	-0.007
691.3918	-0.0041
691.5741	0.0061
691.7563	-0.0001
691.9386	-0
692.1208	-0.004
692.303	0.0035
692.4852	0.001
692.6673	0.0068
692.8495	-0.0018
693.0316	0.0022
693.2137	0
693.3958	0.0027
693.5778	0.0009
693.7599	0.0036
693.9419	0.0022
694.1239	-0.0006
694.3059	0.0031
694.4879	0.0052
694.6699	0.009
694.8518	0.006
695.0337	-0.0047
695.2157	0.0067
695.3975	-0.001
695.5794	0.0107
695.7613	-0.001
695.9431	0.0007
696.1249	0.0086
696.3067	0.0057
696.4885	0.0039
696.6703	-0.0033
696.852	0.0125
697.0337	0.0068
697.2154	0.0085
697.3971	0.0048
697.5788	-0.004
697.7605	-0.0006
697.9421	0.0044
698.1237	0.003
698.3053	0.0032
698.4869	-0.0007
698.6685	-0.002
698.85	0.0018
699.0315	0.0064
699.213	0.0015
699.3945	0.0058
699.576	0.0104
699.7575	0.0041
699.9389	0.0131
700.1203	-0.0015
700.3017	-0.0068
700.4831	-0.005
700.6645	-0.0025
700.8458	-0.0002
701.0271	-0.0031
701.2084	0.0022
701.3897	-0.0017
701.571	0.0021
701.7523	-0.0062
701.9335	0.0045
702.1147	-0.0034
702.2959	0.0019
702.4771	0.0002
702.6583	-0.0018
702.8394	-0.0045
703.0205	0.0051
703.2016	-0.0014
703.3827	-0.005
703.5638	0.0082
703.7449	0.0001
703.9259	0.011
704.1069	-0.0041
704.2879	0.0071
704.4689	-0.0043
704.6499	-0.0014
704.8308	0.0013
705.0117	-0.0061
705.1927	-0.003
705.3735	0.0015
705.5544	-0.0109
705.7353	-0.0019
705.9161	-0.0034
706.0969	-0.0099
706.2777	0.0008
706.4585	-0.0047
706.6393	0.0033
706.82	-0.001
707.0007	0.0007
707.1815	-0.0003
707.3621	0.0026
707.5428	-0.0003
707.7235	-0.0031
707.9041	-0.0006
708.0847	-0.0123
708.2653	-0.0102
708.4459	-0.0071
708.6265	0.0006
708.807	-0.0031
708.9875	-0.004
709.168	-0.0018
709.3485	-0.0076
709.529	-0.0088
709.7095	-0.0152
709.8899	-0.0004
710.0703	-0.0146
710.2507	-0.0022
710.4311	-0.0005
710.6115	-0.0127
710.7918	-0.0099
710.9721	-0.0053
711.1524	-0.0063
711.3327	-0.0007
711.513	0.0004
711.6932	0.0051
711.8735	0.004
712.0537	0.0073
712.2339	0.0008
712.4141	-0.003
712.5942	-0
712.7744	-0.0023
712.9545	-0.0025
713.1346	0.0021
713.3147	0.0008
713.4947	-0.0115
713.6748	0.0014
713.8548	-0.0085
714.0348	-0.0128
714.2148	-0.006
714.3948	0.0047
714.5748	0.0008
714.7547	0.0025
714.9346	0.0048
715.1145	-0.0048
715.2944	-0.0106
715.4743	-0.0008
715.6541	-0.0021
715.834	0.0039
716.0138	-0.0037
716.1936	-0.0081
716.3733	-0.0058
716.5531	0.0046
716.7328	-0.0114
716.9126	0.0011
717.0923	0.0086
717.2719	0.0104
717.4516	0.0046
717.6312	0.0082
717.8109	-0.0024
717.9905	0.0059
718.1701	-0.0048
718.3496	-0.0014
718.5292	-0.001
718.7087	0.0024
718.8882	-0.0085
719.0677	0.0032
719.2472	-0.002
719.4267	0.0024
719.6061	0.0033
719.7856	0.0027
719.965	0.0049
720.1443	-0.0041
720.3237	0.0108
720.5031	0.0049
720.6824	0.0131
720.8617	-0.0031
721.041	-0.0052
721.2203	-0.0013
721.3995	0.0029
721.5788	0.0034
721.758	-0.0023
721.9372	0.0001
722.1164	-0.0022
722.2956	0.0029
722.4747	-0.0055
722.6538	0.0013
722.8329	0.0113
723.012	-0.0001
723.1911	0.0017
723.3702	-0.0036
723.5492	-0.0006
723.7282	-0.0036
723.9072	0.0003
724.0862	-0.0084
724.2652	0.0009
724.4441	-0.0033
724.623	-0.0034
724.8019	-0.0115
724.9808	-0.0058
725.1597	-0.0196
725.3385	-0.0012
725.5174	0.0001
725.6962	-0.002
725.875	-0.0014
726.0538	0.0076
726.2325	0.0012
726.4112	0.0001
726.59	-0.0011
726.7687	-0.0044
726.9474	0.0015
727.126	-0.0018
727.3047	-0.0063
727.4833	0.0012
727.6619	0.0056
727.8405	-0.0055
728.0191	0.0008
728.1976	0.0064
728.3762	0
728.5547	-0.0012
728.7332	-0.0142
728.9116	-0.0034
729.0901	-0.0053
729.2686	-0.0103
729.447	0.0014
729.6254	0.0021
729.8038	-0.0047
729.9821	-0.0099
730.1605	-0.0008
730.3388	-0.0025
730.5171	0.0029
730.6954	-0.0033
730.8737	-0.0012
731.0519	0.0039
731.2302	0.0004
731.4084	0.005
731.5866	-0.0021
731.7648	0.0015
731.9429	-0.0036
732.1211	-0.0136
732.2992	-0.0013
732.4773	-0.0101
732.6554	-0.0038
732.8335	0.0006
733.0115	0.0024
733.1896	0.0041
733.3676	-0.0055
733.5456	0.0089
733.7235	0.0065
733.9015	0.0106
734.0794	-0.0048
734.2574	0.0007
734.4353	0.0095
734.6131	0.0052
734.791	0.0034
734.9689	-0.0005
735.1467	0.0073
735.3245	-0.0075
735.5023	-0.0071
735.68	0.0002
735.8578	0.0034
736.0355	-0.0145
736.2132	-0.0028
736.3909	-0.0042
736.5686	-0.0151
736.7463	0.0022
736.9239	-0.006
737.1015	0.0025
737.2791	0.0038
737.4567	-0.0031
737.6343	-0.0022
737.8118	0.0003
737.9894	0.0047
738.1669	-0.0034
738.3444	-0.007
738.5218	-0.0022
738.6993	-0.0018
738.8767	-0.01
739.0541	0.014
739.2315	-0.0077
739.4089	0.0016
739.5863	0.0043
739.7636	0.0041
739.9409	-0.0032
740.1182	0.0054
740.2955	-0.0005
740.4728	0.001
740.65	-0.0024
740.8272	-0.0024
741.0044	-0.0138
741.1816	-0.0015
741.3588	0.008
741.5359	0.0013
741.7131	-0.0078
741.8902	-0.0011
742.0673	0.0036
742.2444	-0.0089
742.4214	-0.0051
742.5985	-0.0069
742.7755	-0.0101
742.9525	-0.0177
743.1295	0.0023
743.3064	0.005
743.4834	0.0054
743.6603	-0.0043
743.8372	-0.0069
744.0141	0.0058
744.191	-0.0019
744.3678	-0.0013
744.5446	-0.0032
744.7215	0.0035
744.8982	-0.0043
745.075	-0.0109
745.2518	-0.0066
745.4285	-0.0091
745.6052	-0.0027
745.7819	-0.0026
745.9586	-0.0129
746.1353	-0.0162
746.3119	-0.0174
746.4885	-0.0099
746.6651	-0.0126
746.8417	-0.0054
747.0183	-0.0078
747.1948	-0.0153
747.3714	-0.0119
747.5479	0.0046
747.7244	-0.0156
747.9008	0.005
748.0773	-0.0073
748.2537	-0.0143
748.4301	-0.0127
748.6065	-0.006
748.7829	-0.0006
748.9593	-0.0161
749.1356	-0.0028
749.3119	-0.0058
749.4882	-0.0075
749.6645	0.0012
749.8408	-0.0114
750.017	-0.0134
750.1933	-0.0009
750.3695	-0.0034
750.5457	0.009
750.7218	-0.002
750.898	0.0007
751.0741	-0.0039
751.2502	-0.0097
751.4263	-0.008
751.6024	-0.008
751.7784	-0.0065
751.9545	-0.0122
752.1305	-0.0071
752.3065	-0.0084
752.4825	0.001
752.6584	-0.0093
752.8344	-0.011
753.0103	-0.0028
753.1862	-0.0058
753.3621	-0.0121
753.5379	-0.0118
753.7138	0.0002
753.8896	0.0034
754.0654	0.0029
754.2412	0.0031
754.417	0.0031
754.5927	-0.0053
754.7685	-0.0048
754.9442	0.0005
755.1199	0.0123
755.2956	0.0039
755.4712	0.0064
755.6469	0.0062
755.8225	0.006
755.9981	0.0005
756.1736	0.0129
756.3492	0.0117
756.5248	0.0043
756.7003	0.0064
756.8758	0.0141
757.0513	-0.0092
757.2267	0.0006
757.4022	0.0039
757.5776	-0.0027
757.753	-0.0081
757.9284	-0.001
758.1038	0.0095
758.2791	-0.0087
758.4545	-0.0198
758.6298	-0.002
758.8051	-0.0034
758.9803	-0.0024
759.1556	-0.0037
759.3308	-0.0094
759.506	0.002
759.6812	0.0031
759.8564	0.0078
760.0316	0.0025
760.2067	0.0094
760.3819	0.0108
760.557	0.0171
760.732	0.0116
760.9071	-0.013
761.0821	0.0002
761.2572	0.0089
761.4322	-0.0042
761.6072	0.0017
761.7821	-0.0035
761.9571	0.0004
762.132	0.0019
762.3069	-0.0056
762.4818	-0.0149
762.6567	-0.0129
762.8316	-0.0082
763.0064	-0.0054
763.1812	-0.0077
763.356	-0.0095
763.5308	-0.0036
763.7055	-0.0018
763.8803	-0.0057
764.055	-0.0077
764.2297	-0.0062
764.4044	-0.0059
764.579	-0.0093
764.7537	-0.0171
764.9283	-0.0037
765.1029	-0.0132
765.2775	0.0001
765.4521	-0.0057
765.6266	-0.0049
765.8011	-0.0081
765.9756	-0.0062
766.1501	0.0017
766.3246	-0.0091
766.4991	-0.0067
766.6735	-0.0057
766.8479	-0.0134
767.0223	0.0067
767.1967	-0.0132
767.371	-0.0137
767.5454	-0.0047
767.7197	-0.0118
767.894	-0.0151
768.0683	-0.017
768.2425	0.0004
768.4168	-0.0016
768.591	-0.0048
768.7652	-0.0042
768.9394	0.0055
769.1135	-0.0055
769.2877	-0.0025
769.4618	-0.0001
769.6359	-0.0008
769.81	-0.0037
769.984	-0.0098
770.1581	-0.0134
770.3321	0.0018
770.5061	-0.0058
770.6801	0.0022
770.8541	0.0002
771.028	-0.0018
771.202	-0.0123
771.3759	0.0053
771.5498	-0.0039
771.7236	-0.0044
771.8975	-0.0016
772.0713	0.0033
772.2451	-0.0064
772.4189	0.0081
772.5927	0.0085
772.7665	0.0024
772.9402	-0.0018
773.1139	-0.0066
773.2876	-0.0082
773.4613	0.001
773.635	-0.0093
773.8086	-0.0186
773.9822	-0.0134
774.1558	-0.0032
774.3294	-0.0164
774.503	-0.0108
774.6765	0.0061
774.8501	-0.0028
775.0236	0.0119
775.1971	0.004
775.3705	-0.0054
775.544	-0.0004
775.7174	-0.0088
775.8908	0.0069
776.0642	-0.0012
776.2376	-0.0121
776.4109	-0.0204
776.5843	-0.0023
776.7576	-0.0026
776.9309	0.0083
777.1041	0.0043
777.2774	0.0021
777.4506	-0.0008
777.6238	-0.0092
777.797	-0.0034
777.9702	0.0003
778.1434	-0.0045
778.3165	-0.013
778.4896	-0.0097
778.6627	0.0063
778.8358	-0.0167
779.0089	-0.0085
779.1819	-0.0093
779.3549	-0.0032
779.5279	-0.0014
779.7009	-0.0061
779.8739	-0.0042
780.0468	-0.0111
780.2197	-0.009
780.3926	-0.0054
780.5655	-0.0068
780.7384	-0.0107
780.9112	-0.0068
781.0841	0.0004
781.2569	0.0006
781.4297	0.0066
781.6024	-0.0051
781.7752	-0.0023
781.9479	0.0033
782.1206	-0.0008
782.2933	-0.0172
782.466	0.0014
782.6386	-0.0042
782.8113	-0.0036
782.9839	-0.0017
783.1565	0.013
783.329	0.0071
783.5016	0.0005
783.6741	0.0095
783.8466	0.0035
784.0191	0.0254
784.1916	-0.0093
784.3641	-0.0127
784.5365	0.003
784.7089	-0.0087
784.8813	-0.0095
785.0537	-0.0056
785.2261	0.001
785.3984	-0.0153
785.5707	0.0011
785.743	0.002
785.9153	-0.0158
786.0876	0.0064
786.2598	-0.0053
786.432	-0.0184
786.6042	0.0034
786.7764	-0.0052
786.9486	-0.0002
787.1207	-0.0046
787.2928	-0.005
787.4649	0.003
787.637	-0.0118
787.8091	-0.0033
787.9811	-0.0131
788.1532	-0.0029
788.3252	0.0054
788.4972	-0.0109
788.6691	0.0005
788.8411	-0.0055
789.013	-0.0043
789.1849	-0.0011
789.3568	0.0018
789.5287	0.0043
789.7005	-0.01
789.8723	-0.0066
790.0442	0.0082
790.2159	0.0091
790.3877	-0.0085
790.5595	-0.0156
790.7312	0.005
790.9029	-0.0088
791.0746	0.0036
791.2463	-0.0057
791.4179	-0.0072
791.5896	-0.0122
791.7612	-0.0028
791.9328	0.008
792.1044	-0.014
792.2759	-0.0136
792.4474	-0.0063
792.619	0.0029
792.7905	0.009
792.9619	-0.0042
793.1334	0.0032
793.3048	0.0238
793.4762	0.0016
793.6476	-0.0001
793.819	0.0012
793.9904	0.0057
794.1617	-0.0295
794.333	-0.0059
794.5043	-0.0076
794.6756	0.0067
794.8469	-0.0013
795.0181	-0.0016
795.1893	0.0034
795.3605	0.0005
795.5317	0.005
795.7029	-0.0018
795.874	-0.006
796.0452	0.004
796.2163	0.0155
796.3873	0.0042
796.5584	0.0036
796.7294	-0.0089
796.9005	0.0186
797.0715	0.0085
797.2425	-0.021
797.4134	-0.0123
797.5844	-0.0064
797.7553	-0.016
797.9262	0.0028
798.0971	-0.0075
798.2679	-0.0119
798.4388	-0.012
798.6096	-0.0083
798.7804	-0.0125
798.9512	-0.0187
799.122	-0.0039
799.2927	-0.0092
799.4635	0.0024
799.6342	-0.0164
799.8049	-0.0163
799.9755	-0.0196
800.1462	-0.0125
800.3168	-0.0001
800.4874	-0.0155
800.658	0.0177
800.8286	0.0139
800.9991	0.0024
801.1696	0.003
801.3402	0.0137
801.5106	0.0074
801.6811	-0.0193
801.8516	0.0139
802.022	0.0033
802.1924	0.0058
802.3628	0.0023
802.5332	0.0098
802.7035	0.0033
802.8739	-0.0143
803.0442	-0.0104
803.2145	0.0034
803.3847	-0.0132
803.555	-0.0107
803.7252	-0.0149
803.8954	-0.015
804.0656	-0.0198
804.2358	-0.0073
804.4059	0.0107
804.5761	-0.0083
804.7462	-0.0026
804.9163	-0.0079
805.0864	0.0005
805.2564	-0.0004
805.4264	0.0151
805.5965	-0.0086
805.7665	-0.018
805.9364	-0.0075
806.1064	0.0299
806.2763	0.0142
806.4462	0.0292
806.6161	-0.0102
806.786	-0.0017
806.9559	-0.0076
807.1257	-0.0048
807.2955	-0.0044
807.4653	0.0007
807.6351	-0.0322
807.8048	-0.0092
807.9746	-0.0039
808.1443	0.0063
808.314	-0.0292
808.4837	0.0019
808.6533	0.0046
808.8229	0.0158
808.9926	0.0001
809.1622	-0.0094
809.3317	-0.0209
809.5013	-0.0054
809.6708	0.0223
809.8403	0.0133
810.0098	-0.0122
810.1793	-0.0065
810.3488	0.0123
810.5182	-0.0141
810.6876	-0.0004
810.857	-0.019
811.0264	0.0045
811.1958	0.0165
811.3651	-0.0072
811.5344	-0.0067
811.7037	-0.0062
811.873	0.0017
812.0422	-0.0103
812.2115	-0.0309
812.3807	-0.0016
812.5499	0.0079
812.7191	0.0148
812.8882	-0.0298
813.0574	-0.0236
813.2265	0.0012
813.3956	-0.0218
813.5646	0.0062
813.7337	-0.0212
813.9027	0.0124
814.0718	0.0024
814.2407	0.0109
814.4097	-0.0212
814.5787	-0.0196
814.7476	-0.0002
814.9165	0.006
815.0854	-0.0221
815.2543	-0.0039
815.4232	-0.0074
815.592	-0.0022
815.7608	-0.0184
815.9296	-0.0101
816.0984	-0.0086
816.2671	-0.0067
816.4359	-0.022
816.6046	-0.0077
816.7733	-0.0245
816.942	-0.0111
817.1106	-0.0023
817.2793	-0.0024
817.4479	-0.0033
817.6165	0.0013
817.785	0.0158
817.9536	-0.0245
818.1221	-0.0154
818.2906	0.002
818.4591	-0.0287
818.6276	-0.0175
818.7961	0.0061
818.9645	0.016
819.1329	0.0122
819.3013	0.0011
819.4697	0.025
819.638	-0.0087
819.8064	0.0097
819.9747	0.0211
820.143	0.0118
820.3113	-0.0243
820.4795	-0.002
820.6477	0.0187
820.816	0.0089
820.9842	-0.001
821.1523	-0.0067
821.3205	0.0037
821.4886	-0.0024
821.6567	0.008
821.8248	0.0152
821.9929	0.0067
822.1609	-0.0161
822.329	0.0015
822.497	0.0108
822.665	-0.0215
822.833	-0.0192
823.0009	-0.0048
823.1688	-0.004
823.3367	0.0402
823.5046	0.0059
823.6725	0.0437
823.8404	0.0065
824.0082	0.0156
824.176	0.0125
824.3438	0.0234
824.5116	0.0103
824.6793	0.0105
824.847	-0.0264
825.0147	0.0279
825.1824	-0.008
825.3501	0.0093
825.5177	-0.0237
825.6854	0.0213
825.853	0.0085
826.0206	-0.0326
826.1881	0.0128
826.3557	-0.0353
826.5232	-0.0131
826.6907	-0.0423
826.8582	-0.0075
827.0257	-0.05
827.1931	0.0148
827.3605	-0.0141
827.528	-0.0208
827.6953	-0.0329
827.8627	0.002
828.03	0.0097
828.1974	-0.016
828.3647	-0.0477
828.532	-0.0168
828.6992	-0.0072
828.8665	-0.007
829.0337	-0.0104
829.2009	0.0133
829.3681	-0.009
829.5352	0.0188
829.7024	-0.0369
829.8695	-0.0201
830.0366	0.0357
830.2037	0.0063
830.3707	0.0183
830.5378	0.017
830.7048	-0.0053
830.8718	-0.0226
831.0388	0.0088
831.2057	0.0259
831.3727	0.0139
831.5396	-0.0166
831.7065	-0.0261
831.8734	0.0072
832.0402	-0.0069
832.2071	0.0024
832.3739	0.0062
832.5407	-0.0237
832.7075	-0.0358
832.8742	-0.0469
833.041	-0.0507
833.2077	0.0002
833.3744	0.0097
833.541	-0.0341
833.7077	-0.0341
833.8743	-0.0011
834.0409	0.002
834.2075	-0.0154
834.3741	-0.0023
834.5407	-0.0311
834.7072	0.0027
834.8737	-0.0005
835.0402	-0.0202
835.2067	-0.0139
835.3731	0.0002
835.5395	-0.0018
835.706	0.0268
835.8723	-0.0034
836.0387	0.0317
836.2051	-0.0274
836.3714	-0.0328
836.5377	0.025
836.704	0.0132
836.8703	-0.0194
837.0365	-0.0315
837.2027	-0.0305
837.3689	0.0182
837.5351	-0.0058
837.7013	-0.06
837.8674	-0.0602
838.0335	0.0177
838.1997	0.0068
838.3657	-0.0007
838.5318	-0.0078
838.6978	0.0755
838.8639	-0.0137
839.0299	0.0116
839.1958	-0.0152
839.3618	0.035
839.5277	0.015
839.6937	0.0188
839.8596	0.0197
840.0254	0.0446
840.1913	0.0418
840.3571	0.0283
840.523	-0.036
840.6888	-0.0358
840.8545	-0.0384
841.0203	0.0572
841.186	-0.0272
841.3517	0.0455
841.5174	0.0064
841.6831	-0.0128
841.8488	-0.036
842.0144	-0.0324
842.18	-0.0347
842.3456	-0.0235
842.5112	-0.0058
842.6767	-0.0246
842.8422	0.0111
843.0077	-0.041
843.1732	-0.002
843.3387	-0.0131
843.5042	-0.0462
843.6696	0.0515
843.835	-0.0526
844.0004	0.0367
844.1657	0.0094
844.3311	0.0029
844.4964	-0.0481
844.6617	0.0081
844.827	-0.0009
844.9923	-0.0176
845.1575	0.0124
845.3227	-0.0077
845.4879	-0.074
845.6531	-0.0023
845.8183	-0.0483
845.9834	0.045
846.1485	-0.0158
846.3136	-0.0623
846.4787	-0.0551
846.6438	0.0645
846.8088	-0.0386
846.9738	-0.0385
847.1388	0.0147
847.3038	-0.0289
847.4687	-0.1194
847.6337	0.0497
847.7986	-0.001
847.9635	0.0063
848.1284	-0.0064
848.2932	0.0426
848.458	-0.0244
848.6228	0.0217
848.7876	-0.0308
848.9524	-0.0811
849.1172	-0.0735
849.2819	-0.008
849.4466	-0.1231
849.6113	-0.0081
849.7759	-0.0504
849.9406	0.0252
850.1052	0.0186
850.2698	0.0024
850.4344	-0.0092
850.599	-0.0325
850.7635	0.0682
850.928	-0.0469
851.0925	-0.0364
851.257	-0.0135
851.4215	0.0204
851.5859	-0.0332
851.7503	-0.0307
851.9147	0.051
852.0791	-0.0838
852.2434	0.0279
852.4078	-0.0269
852.5721	0.0998
852.7364	0.0279
852.9007	-0.2465
853.0649	-0.0684
853.2291	0.0537
853.3934	-0.0017
853.5575	0.1027
853.7217	-0.0313
853.8859	-0.0809
854.05	-0.047
854.2141	-0.0295
854.3782	-0.1491
854.5423	-0.1384
854.7063	0.1073
854.8703	0.0352
855.0343	-0.0924
855.1983	-0.2139
855.3623	0.1008
855.5262	-0.0208
855.6901	-0.0478
855.854	0.0417
856.0179	0.028
856.1818	0.1612
856.3456	-0.071
856.5094	-0.0815
856.6732	0.0239
856.837	-0.0759
857.0008	0.018
857.1645	-0.1428
857.3282	-0.1839
857.4919	0.1132
857.6556	0.0486
857.8192	-0.0057
857.9828	0.0782
858.1465	0.0169
858.31	-0.1697
858.4736	-0.0489
858.6372	-0.2381
858.8007	-0.1136
858.9642	-0.0212
859.1277	-0.2194
859.2911	-0.0865
859.4546	-0.1008
859.618	-0.3422
859.7814	-0.0705
859.9448	-0.0482
860.1081	-0.0194
860.2715	0.2375
860.4348	-0.1519
860.5981	-0.0604
860.7614	0.0575
860.9246	0.06
861.0879	-0.0673
861.2511	-0.0376
861.4143	-0.0923
861.5774	0.0865
861.7406	-0.2995
861.9037	0.1091
862.0668	-0.0243
862.2299	-0.1647
862.393	-0.6304
862.556	-0.0086
862.7191	-0.3932
862.8821	-0.1612
863.0451	0.2974
863.208	0.219
863.371	0.4445
863.5339	-0.2503
863.6968	0.6461
863.8597	0.5853
864.0225	-0.1961
864.1854	-0.1229
864.3482	-0.0428
864.511	-0.0203
864.6737	-0.138
864.8365	-0.2172
864.9992	-0.2112
865.1619	-0.5129
865.3246	-0
865.4873	-0.0714
865.65	-0.2308
865.8126	0.0434
865.9752	0.0353
866.1378	0.0543
866.3004	0.5951
866.4629	0.4671
866.6254	-0.3898
866.7879	-0.0165
866.9504	-0
867.1129	-0
867.2753	0.1041
867.4377	0.119
867.6001	-0.1332
867.7625	0.2895
867.9249	-0.5015
868.0872	-0.1624
868.2495	-0.0388
868.4118	-0.4306
868.5741	-0.4701
868.7363	-0.3606
868.8986	-0.0399
869.0608	-0.2378
869.223	0.1628
869.3851	-0.0213
869.5473	-0.0049
869.7094	0.1578
869.8715	-0
870.0336	-0
870.1957	-0.483
870.3577	-0
870.5197	-0.0914
870.6817	-0.307
870.8437	-0.0663
871.0057	-0
871.1676	-0
871.3295	-0.6594
871.4914	-0.5483
871.6533	-0.5282
871.8151	-0.515
871.977	-0
872.1388	-0
872.3006	-0
872.4623	-0
872.6241	-0.1714
872.7858	-0
872.9475	1.2382
873.1092	-0.0851
873.2709	-0.0167
873.4325	0.1003
873.5941	-0.2929
873.7557	-0
873.9173	-0.43
874.0789	-0.428
874.2404	-0.8922
874.4019	0.1309
874.5634	0.3053
874.7249	-0.1951
874.8863	-0.0965
875.0478	0.3397
875.2092	-0
875.3706	-0.0169
875.5319	-0
875.6933	-0
875.8546	-0.2349
876.0159	-0
876.1772	-0
876.3385	0.7999
876.4997	-0
876.6609	-0.1713
876.8221	-0.6902
876.9833	0.7701
877.1445	-0
877.3056	-0.0943
877.4667	-0.3554
877.6278	-0
877.7889	-0.528
877.9499	-0
878.111	-0.4605
878.272	-0
878.433	0.6402
878.5939	-0
878.7549	-0.2405
878.9158	-0.8298
879.0767	-0
879.2376	-0
879.3984	-0.1645
879.5593	-0
879.7201	0.4822
879.8809	-0.6733
880.0417	0.1047
880.2024	1.5839
880.3632	-0
880.5239	0.0079
880.6846	-0
880.8452	-2.4005
881.0059	-1.3598
881.1665	0.1726
881.3271	0.2058
881.4877	-0
881.6483	-0.2407
881.8088	-0.4296
881.9693	-0
882.1298	-0
882.2903	-0
