Data from MonoPyChalIsomerACN10uM350nmA_Absorbance_14-35-34-618.txt Node
Date: Fri Jul 05 14:35:34 BST 2024
User: LASERRRRR
Spectrometer: FLMT03099
Trigger mode: 0
Integration Time (sec): 1.000000E-1
Scans to average: 1
Electric dark correction enabled: true
Nonlinearity correction enabled: false
Boxcar width: 0
XAxis mode: Wavelengths
Number of Pixels in Spectrum: 3648
>>>>>Begin Spectral Data<<<<<
179.3399	0.113
179.5586	0.113
179.7771	0.113
179.9957	0.3985
180.2143	-0
180.4329	-0.4385
180.6514	-0
180.8699	-0.1209
181.0885	-0
181.307	0.261
181.5255	-1.019
181.744	-0.7878
181.9625	0.5366
182.181	-0.2752
182.3994	0.132
182.6179	-0
182.8363	0.0534
183.0547	-0.1158
183.2732	0.0209
183.4916	-0.0212
183.71	-0.0581
183.9284	0.5844
184.1467	-0.1608
184.3651	-0.1544
184.5835	-0.0547
184.8018	0.0888
185.0201	0.1046
185.2385	-0.1738
185.4568	0.1315
185.6751	-0.0928
185.8934	0.0193
186.1117	0.0079
186.3299	0.0266
186.5482	0.0004
186.7664	-0.0974
186.9847	-0.1521
187.2029	0.107
187.4211	0.047
187.6393	0.1659
187.8575	-0.2821
188.0757	0.2519
188.2939	0.0991
188.512	-0
188.7302	-0.2339
188.9483	0.0926
189.1665	0.1313
189.3846	-0.1914
189.6027	0.2197
189.8208	0.1964
190.0389	0.0662
190.257	0.1645
190.475	0.2817
190.6931	0.1682
190.9111	0.6703
191.1292	0.0816
191.3472	0.5034
191.5652	0.1799
191.7832	0.0419
192.0012	0.3276
192.2192	0.3115
192.4371	0.4156
192.6551	0.4083
192.873	0.4244
193.091	0.3448
193.3089	0.4944
193.5268	0.4786
193.7447	0.5244
193.9626	0.4555
194.1805	0.5354
194.3984	0.5915
194.6162	0.5108
194.8341	0.4794
195.0519	0.6177
195.2697	0.7318
195.4875	0.749
195.7054	0.5557
195.9231	0.6634
196.1409	0.5889
196.3587	0.547
196.5765	0.6397
196.7942	0.535
197.012	0.4863
197.2297	0.653
197.4474	0.6123
197.6651	0.585
197.8828	0.4454
198.1005	0.7506
198.3182	0.5186
198.5358	0.649
198.7535	0.5231
198.9711	0.5376
199.1888	0.6411
199.4064	0.808
199.624	0.6044
199.8416	0.4637
200.0592	0.6641
200.2767	0.5846
200.4943	0.6299
200.7119	0.8442
200.9294	0.6157
201.1469	0.5446
201.3645	0.5654
201.582	0.6292
201.7995	0.5476
202.017	0.5755
202.2344	0.5583
202.4519	0.5853
202.6694	0.6115
202.8868	0.5683
203.1042	0.6393
203.3217	0.6082
203.5391	0.5412
203.7565	0.5838
203.9739	0.5809
204.1913	0.6161
204.4086	0.5975
204.626	0.686
204.8433	0.5787
205.0607	0.5767
205.278	0.6059
205.4953	0.6215
205.7126	0.6277
205.9299	0.6564
206.1472	0.7567
206.3644	0.6202
206.5817	0.6585
206.7989	0.6162
207.0162	0.5867
207.2334	0.602
207.4506	0.6226
207.6678	0.6912
207.885	0.6118
208.1022	0.6378
208.3194	0.6581
208.5365	0.6601
208.7537	0.6188
208.9708	0.5548
209.1879	0.6851
209.405	0.6423
209.6222	0.6829
209.8392	0.5795
210.0563	0.6322
210.2734	0.6222
210.4905	0.5942
210.7075	0.6294
210.9245	0.5785
211.1416	0.6489
211.3586	0.6136
211.5756	0.5825
211.7926	0.6145
212.0096	0.5807
212.2265	0.5073
212.4435	0.5689
212.6604	0.6065
212.8774	0.602
213.0943	0.5368
213.3112	0.5138
213.5281	0.5117
213.745	0.4744
213.9619	0.5031
214.1788	0.4804
214.3956	0.4834
214.6125	0.483
214.8293	0.459
215.0461	0.4813
215.2629	0.4488
215.4798	0.4749
215.6965	0.4433
215.9133	0.4712
216.1301	0.4127
216.3469	0.4321
216.5636	0.4393
216.7803	0.3466
216.9971	0.4555
217.2138	0.372
217.4305	0.3801
217.6472	0.3679
217.8639	0.3989
218.0805	0.3482
218.2972	0.3313
218.5138	0.3173
218.7305	0.3212
218.9471	0.313
219.1637	0.3015
219.3803	0.2713
219.5969	0.266
219.8135	0.2709
220.0301	0.2654
220.2466	0.264
220.4632	0.2689
220.6797	0.2608
220.8962	0.2547
221.1127	0.251
221.3292	0.2393
221.5457	0.2349
221.7622	0.2419
221.9787	0.2586
222.1951	0.221
222.4116	0.2518
222.628	0.2592
222.8444	0.2639
223.0608	0.2431
223.2772	0.2398
223.4936	0.2647
223.71	0.2456
223.9264	0.2781
224.1427	0.259
224.3591	0.2406
224.5754	0.2541
224.7917	0.2662
225.008	0.252
225.2243	0.2447
225.4406	0.2859
225.6569	0.2633
225.8732	0.2701
226.0894	0.2639
226.3057	0.2548
226.5219	0.2862
226.7381	0.2606
226.9543	0.2818
227.1705	0.2858
227.3867	0.2735
227.6029	0.3202
227.8191	0.2964
228.0352	0.2804
228.2513	0.3044
228.4675	0.3094
228.6836	0.3014
228.8997	0.281
229.1158	0.2943
229.3319	0.3137
229.548	0.308
229.764	0.3197
229.9801	0.3293
230.1961	0.3158
230.4121	0.3377
230.6282	0.3379
230.8442	0.3287
231.0602	0.3385
231.2761	0.3632
231.4921	0.3592
231.7081	0.354
231.924	0.3455
232.14	0.3652
232.3559	0.3349
232.5718	0.3405
232.7877	0.3483
233.0036	0.3467
233.2195	0.346
233.4353	0.3536
233.6512	0.3758
233.867	0.3653
234.0829	0.3671
234.2987	0.3599
234.5145	0.364
234.7303	0.3574
234.9461	0.3775
235.1619	0.3821
235.3776	0.3911
235.5934	0.369
235.8091	0.3762
236.0249	0.3806
236.2406	0.3956
236.4563	0.3841
236.672	0.3936
236.8877	0.4169
237.1034	0.4009
237.319	0.3936
237.5347	0.421
237.7503	0.3845
237.966	0.3988
238.1816	0.4112
238.3972	0.4003
238.6128	0.4063
238.8284	0.4105
239.0439	0.4132
239.2595	0.4035
239.475	0.4026
239.6906	0.4238
239.9061	0.414
240.1216	0.4067
240.3371	0.4344
240.5526	0.4026
240.7681	0.4197
240.9836	0.3891
241.199	0.4127
241.4145	0.3751
241.6299	0.3995
241.8453	0.3756
242.0607	0.3637
242.2761	0.3537
242.4915	0.3561
242.7069	0.3766
242.9223	0.344
243.1376	0.3508
243.353	0.3375
243.5683	0.3416
243.7836	0.3281
243.9989	0.333
244.2142	0.3231
244.4295	0.3174
244.6448	0.3047
244.86	0.2879
245.0753	0.2934
245.2905	0.2938
245.5057	0.2768
245.721	0.2628
245.9362	0.2506
246.1514	0.2779
246.3665	0.2569
246.5817	0.2467
246.7969	0.2673
247.012	0.2392
247.2271	0.2456
247.4423	0.2359
247.6574	0.2401
247.8725	0.2289
248.0876	0.2117
248.3026	0.2282
248.5177	0.2236
248.7328	0.2113
248.9478	0.2107
249.1628	0.2056
249.3779	0.2189
249.5929	0.2101
249.8079	0.2175
250.0228	0.1992
250.2378	0.1964
250.4528	0.2073
250.6677	0.19
250.8827	0.1975
251.0976	0.1966
251.3125	0.1845
251.5274	0.1684
251.7423	0.1908
251.9572	0.1883
252.172	0.1755
252.3869	0.1815
252.6017	0.1734
252.8166	0.1672
253.0314	0.1651
253.2462	0.164
253.461	0.1796
253.6758	0.1785
253.8906	0.1655
254.1053	0.1756
254.3201	0.1625
254.5348	0.1849
254.7496	0.1779
254.9643	0.1609
255.179	0.1722
255.3937	0.1699
255.6083	0.1687
255.823	0.1754
256.0377	0.1507
256.2523	0.1743
256.467	0.1512
256.6816	0.1636
256.8962	0.1627
257.1108	0.1656
257.3254	0.167
257.54	0.1607
257.7545	0.1781
257.9691	0.1752
258.1836	0.1509
258.3981	0.1742
258.6127	0.1541
258.8272	0.1626
259.0417	0.1597
259.2561	0.1708
259.4706	0.1726
259.6851	0.1663
259.8995	0.1671
260.114	0.1682
260.3284	0.1757
260.5428	0.1704
260.7572	0.1651
260.9716	0.1801
261.186	0.1664
261.4003	0.1613
261.6147	0.1687
261.829	0.1635
262.0433	0.1583
262.2577	0.1575
262.472	0.1672
262.6863	0.1704
262.9005	0.1687
263.1148	0.1501
263.3291	0.1543
263.5433	0.1578
263.7576	0.1643
263.9718	0.162
264.186	0.1599
264.4002	0.1597
264.6144	0.1589
264.8286	0.183
265.0427	0.1641
265.2569	0.155
265.471	0.1583
265.6851	0.1495
265.8993	0.1504
266.1134	0.1508
266.3275	0.1618
266.5415	0.152
266.7556	0.1597
266.9697	0.1642
267.1837	0.1649
267.3978	0.1567
267.6118	0.1695
267.8258	0.1677
268.0398	0.1493
268.2538	0.1581
268.4677	0.1622
268.6817	0.1519
268.8957	0.166
269.1096	0.1547
269.3235	0.1852
269.5374	0.1606
269.7514	0.1625
269.9652	0.1532
270.1791	0.1565
270.393	0.1453
270.6068	0.1623
270.8207	0.1537
271.0345	0.1446
271.2483	0.155
271.4622	0.1378
271.676	0.1547
271.8897	0.1365
272.1035	0.1418
272.3173	0.1422
272.531	0.1503
272.7448	0.1374
272.9585	0.1396
273.1722	0.1508
273.3859	0.1609
273.5996	0.1388
273.8133	0.1422
274.0269	0.1374
274.2406	0.1337
274.4542	0.1364
274.6679	0.126
274.8815	0.142
275.0951	0.1462
275.3087	0.1432
275.5223	0.1507
275.7358	0.1494
275.9494	0.1409
276.1629	0.1426
276.3765	0.1433
276.59	0.1497
276.8035	0.1391
277.017	0.1319
277.2305	0.1369
277.444	0.1445
277.6574	0.1353
277.8709	0.1411
278.0843	0.1397
278.2978	0.1453
278.5112	0.1391
278.7246	0.1517
278.938	0.1532
279.1513	0.1465
279.3647	0.1593
279.5781	0.1454
279.7914	0.1484
280.0047	0.1606
280.2181	0.1452
280.4314	0.1478
280.6447	0.1446
280.8579	0.1401
281.0712	0.1487
281.2845	0.1576
281.4977	0.1483
281.711	0.1413
281.9242	0.1447
282.1374	0.144
282.3506	0.1546
282.5638	0.1555
282.7769	0.1577
282.9901	0.154
283.2033	0.1696
283.4164	0.1516
283.6295	0.1569
283.8426	0.1479
284.0557	0.1577
284.2688	0.161
284.4819	0.163
284.695	0.1505
284.908	0.1702
285.1211	0.1492
285.3341	0.1534
285.5471	0.1624
285.7601	0.1578
285.9731	0.1612
286.1861	0.1462
286.3991	0.1613
286.612	0.1651
286.825	0.1488
287.0379	0.1606
287.2508	0.1582
287.4637	0.1618
287.6766	0.15
287.8895	0.1736
288.1024	0.1748
288.3152	0.1597
288.5281	0.1556
288.7409	0.1628
288.9538	0.1591
289.1666	0.1549
289.3794	0.1691
289.5922	0.1629
289.8049	0.1655
290.0177	0.1613
290.2304	0.1601
290.4432	0.1686
290.6559	0.1726
290.8686	0.1738
291.0813	0.1673
291.294	0.1662
291.5067	0.1665
291.7194	0.1621
291.932	0.1798
292.1447	0.1652
292.3573	0.1536
292.5699	0.1688
292.7825	0.1753
292.9951	0.1665
293.2077	0.1738
293.4203	0.1672
293.6328	0.1526
293.8454	0.1808
294.0579	0.169
294.2704	0.1703
294.4829	0.1616
294.6954	0.1721
294.9079	0.1643
295.1204	0.1652
295.3328	0.1692
295.5453	0.1556
295.7577	0.1647
295.9701	0.1589
296.1825	0.1656
296.3949	0.1565
296.6073	0.1637
296.8197	0.1538
297.0321	0.1777
297.2444	0.1507
297.4567	0.1643
297.6691	0.1514
297.8814	0.1639
298.0937	0.164
298.306	0.1672
298.5182	0.1575
298.7305	0.1647
298.9428	0.1563
299.155	0.1688
299.3672	0.1773
299.5794	0.1591
299.7916	0.1666
300.0038	0.17
300.216	0.1632
300.4282	0.1671
300.6403	0.1662
300.8525	0.1749
301.0646	0.1624
301.2767	0.1711
301.4888	0.1647
301.7009	0.1607
301.913	0.1584
302.125	0.1657
302.3371	0.1524
302.5491	0.1703
302.7612	0.168
302.9732	0.1698
303.1852	0.165
303.3972	0.1618
303.6092	0.1692
303.8211	0.1539
304.0331	0.1673
304.245	0.1562
304.457	0.1484
304.6689	0.1627
304.8808	0.1643
305.0927	0.1461
305.3046	0.1647
305.5164	0.1589
305.7283	0.1479
305.9401	0.1531
306.152	0.152
306.3638	0.1551
306.5756	0.1505
306.7874	0.1589
306.9992	0.1516
307.2109	0.1433
307.4227	0.1289
307.6344	0.1464
307.8462	0.1331
308.0579	0.1408
308.2696	0.1402
308.4813	0.1368
308.693	0.1283
308.9046	0.1406
309.1163	0.1298
309.328	0.1284
309.5396	0.1253
309.7512	0.1274
309.9628	0.1256
310.1744	0.1179
310.386	0.1153
310.5976	0.1238
310.8091	0.1176
311.0207	0.1162
311.2322	0.1224
311.4437	0.1141
311.6552	0.1201
311.8667	0.118
312.0782	0.0983
312.2897	0.0985
312.5012	0.1118
312.7126	0.1063
312.924	0.0942
313.1355	0.1147
313.3469	0.0978
313.5583	0.1162
313.7696	0.1115
313.981	0.1074
314.1924	0.0979
314.4037	0.1015
314.6151	0.1091
314.8264	0.0968
315.0377	0.0948
315.249	0.1034
315.4603	0.1117
315.6716	0.1012
315.8828	0.0918
316.0941	0.1037
316.3053	0.0963
316.5165	0.0926
316.7277	0.0917
316.9389	0.1099
317.1501	0.0846
317.3613	0.0991
317.5724	0.089
317.7836	0.1048
317.9947	0.0936
318.2058	0.098
318.417	0.096
318.6281	0.0887
318.8391	0.0896
319.0502	0.1035
319.2613	0.0986
319.4723	0.0855
319.6834	0.0997
319.8944	0.0873
320.1054	0.0969
320.3164	0.0945
320.5274	0.0874
320.7383	0.09
320.9493	0.0917
321.1602	0.1085
321.3712	0.084
321.5821	0.0895
321.793	0.0979
322.0039	0.0932
322.2148	0.0994
322.4257	0.1014
322.6365	0.107
322.8474	0.1035
323.0582	0.0893
323.269	0.1014
323.4798	0.1125
323.6906	0.0852
323.9014	0.1031
324.1122	0.0959
324.3229	0.0793
324.5337	0.0987
324.7444	0.0912
324.9551	0.1047
325.1658	0.1079
325.3765	0.0991
325.5872	0.1017
325.7979	0.1023
326.0085	0.0962
326.2192	0.1065
326.4298	0.0968
326.6404	0.1003
326.851	0.0992
327.0616	0.0932
327.2722	0.1087
327.4828	0.1048
327.6933	0.1045
327.9039	0.1084
328.1144	0.1066
328.3249	0.1128
328.5354	0.0959
328.7459	0.0992
328.9564	0.0985
329.1669	0.0981
329.3773	0.0949
329.5878	0.109
329.7982	0.1069
330.0086	0.0897
330.219	0.109
330.4294	0.1057
330.6398	0.095
330.8502	0.1101
331.0605	0.1076
331.2708	0.1052
331.4812	0.1151
331.6915	0.1011
331.9018	0.1034
332.1121	0.0971
332.3224	0.1072
332.5326	0.1091
332.7429	0.108
332.9531	0.1067
333.1633	0.1074
333.3735	0.1035
333.5837	0.1011
333.7939	0.1078
334.0041	0.1117
334.2143	0.1176
334.4244	0.1173
334.6346	0.0863
334.8447	0.1169
335.0548	0.0962
335.2649	0.1015
335.475	0.113
335.685	0.0983
335.8951	0.1131
336.1051	0.115
336.3152	0.1075
336.5252	0.111
336.7352	0.1248
336.9452	0.1051
337.1552	0.1175
337.3652	0.1051
337.5751	0.1051
337.7851	0.1022
337.995	0.0887
338.2049	0.1078
338.4148	0.1027
338.6247	0.1082
338.8346	0.1033
339.0445	0.1006
339.2543	0.1137
339.4642	0.1125
339.674	0.1014
339.8838	0.1151
340.0936	0.1049
340.3034	0.139
340.5132	0.1118
340.7229	0.1129
340.9327	0.1279
341.1424	0.1092
341.3522	0.1332
341.5619	0.1179
341.7716	0.1185
341.9813	0.1272
342.1909	0.1123
342.4006	0.1254
342.6102	0.1317
342.8199	0.1181
343.0295	0.1219
343.2391	0.1206
343.4487	0.1221
343.6583	0.1099
343.8679	0.1221
344.0774	0.1204
344.287	0.1283
344.4965	0.1135
344.706	0.1345
344.9155	0.1276
345.125	0.1242
345.3345	0.1172
345.544	0.1188
345.7534	0.1209
345.9629	0.1193
346.1723	0.1263
346.3817	0.1199
346.5911	0.1392
346.8005	0.1293
347.0099	0.1236
347.2193	0.1318
347.4286	0.1298
347.638	0.1462
347.8473	0.1337
348.0566	0.1376
348.2659	0.1506
348.4752	0.1269
348.6845	0.1342
348.8937	0.1331
349.103	0.1401
349.3122	0.1217
349.5214	0.1221
349.7306	0.1319
349.9398	0.1302
350.149	0.1333
350.3582	0.1361
350.5674	0.1407
350.7765	0.1372
350.9856	0.1244
351.1948	0.1378
351.4039	0.1226
351.613	0.1378
351.822	0.1407
352.0311	0.146
352.2402	0.1484
352.4492	0.142
352.6582	0.1483
352.8672	0.1391
353.0762	0.1457
353.2852	0.1399
353.4942	0.1402
353.7032	0.1478
353.9121	0.1585
354.1211	0.1486
354.33	0.1558
354.5389	0.1464
354.7478	0.1534
354.9567	0.1544
355.1655	0.1323
355.3744	0.1613
355.5833	0.1682
355.7921	0.1682
356.0009	0.1506
356.2097	0.1736
356.4185	0.165
356.6273	0.167
356.8361	0.1681
357.0448	0.1445
357.2536	0.1601
357.4623	0.1487
357.671	0.1721
357.8797	0.1834
358.0884	0.1684
358.2971	0.1491
358.5057	0.1602
358.7144	0.1798
358.923	0.1613
359.1316	0.1763
359.3402	0.168
359.5488	0.1757
359.7574	0.1666
359.966	0.1852
360.1746	0.1856
360.3831	0.1683
360.5916	0.1816
360.8002	0.1742
361.0087	0.1832
361.2172	0.1774
361.4256	0.165
361.6341	0.1833
361.8426	0.1832
362.051	0.1815
362.2594	0.1878
362.4678	0.174
362.6762	0.1981
362.8846	0.1799
363.093	0.1837
363.3014	0.187
363.5097	0.1804
363.718	0.199
363.9264	0.1943
364.1347	0.183
364.343	0.194
364.5513	0.1966
364.7595	0.2066
364.9678	0.1957
365.176	0.1964
365.3842	0.1923
365.5925	0.1955
365.8007	0.1914
366.0089	0.1899
366.217	0.179
366.4252	0.2
366.6333	0.2065
366.8415	0.204
367.0496	0.1942
367.2577	0.2068
367.4658	0.2123
367.6739	0.2038
367.882	0.2204
368.09	0.1989
368.2981	0.2093
368.5061	0.1966
368.7141	0.2215
368.9221	0.2269
369.1301	0.2176
369.3381	0.2189
369.5461	0.2199
369.754	0.2145
369.962	0.229
370.1699	0.2159
370.3778	0.2135
370.5857	0.1929
370.7936	0.2183
371.0015	0.2206
371.2093	0.217
371.4172	0.2244
371.625	0.203
371.8328	0.2088
372.0406	0.2305
372.2484	0.2216
372.4562	0.2263
372.664	0.2131
372.8717	0.2253
373.0795	0.214
373.2872	0.2215
373.4949	0.2295
373.7026	0.2347
373.9103	0.2383
374.118	0.2292
374.3256	0.2436
374.5333	0.2271
374.7409	0.2314
374.9485	0.2637
375.1561	0.2247
375.3637	0.2447
375.5713	0.2489
375.7789	0.2066
375.9864	0.2406
376.194	0.2282
376.4015	0.233
376.609	0.2469
376.8165	0.2412
377.024	0.2548
377.2315	0.2175
377.4389	0.2366
377.6464	0.2531
377.8538	0.2448
378.0612	0.2443
378.2686	0.2437
378.476	0.2604
378.6834	0.2474
378.8908	0.2568
379.0981	0.2525
379.3055	0.245
379.5128	0.2434
379.7201	0.2546
379.9274	0.2411
380.1347	0.2429
380.342	0.2581
380.5492	0.2657
380.7565	0.2535
380.9637	0.2588
381.1709	0.2724
381.3781	0.2458
381.5853	0.2662
381.7925	0.2567
381.9997	0.2802
382.2068	0.2743
382.4139	0.2601
382.6211	0.2518
382.8282	0.2544
383.0353	0.2532
383.2424	0.2496
383.4494	0.2659
383.6565	0.2506
383.8635	0.2492
384.0706	0.2548
384.2776	0.2645
384.4846	0.2558
384.6916	0.2712
384.8986	0.2562
385.1055	0.2547
385.3125	0.2647
385.5194	0.2507
385.7263	0.2704
385.9333	0.2677
386.1402	0.2772
386.347	0.2464
386.5539	0.2594
386.7608	0.27
386.9676	0.2448
387.1744	0.261
387.3813	0.2572
387.5881	0.2608
387.7948	0.2555
388.0016	0.2633
388.2084	0.2265
388.4151	0.263
388.6219	0.2546
388.8286	0.2583
389.0353	0.2658
389.242	0.2586
389.4487	0.2527
389.6553	0.2547
389.862	0.2372
390.0686	0.2483
390.2753	0.2561
390.4819	0.245
390.6885	0.2425
390.8951	0.2579
391.1016	0.2396
391.3082	0.2516
391.5147	0.2565
391.7213	0.2456
391.9278	0.2376
392.1343	0.2347
392.3408	0.2349
392.5473	0.2529
392.7537	0.2353
392.9602	0.23
393.1666	0.2425
393.373	0.2225
393.5794	0.2545
393.7858	0.2307
393.9922	0.2185
394.1986	0.2462
394.4049	0.2364
394.6113	0.2294
394.8176	0.2186
395.0239	0.2375
395.2302	0.2186
395.4365	0.2259
395.6428	0.2294
395.8491	0.2296
396.0553	0.2261
396.2615	0.2248
396.4678	0.2315
396.674	0.2115
396.8802	0.2134
397.0863	0.2431
397.2925	0.2196
397.4987	0.221
397.7048	0.2289
397.9109	0.2224
398.117	0.2105
398.3231	0.2321
398.5292	0.2201
398.7353	0.2293
398.9413	0.222
399.1474	0.2095
399.3534	0.2106
399.5594	0.2122
399.7654	0.2374
399.9714	0.2343
400.1774	0.2217
400.3833	0.217
400.5893	0.2189
400.7952	0.23
401.0011	0.2245
401.207	0.2268
401.4129	0.2286
401.6188	0.2288
401.8247	0.2118
402.0305	0.2136
402.2364	0.1993
402.4422	0.2104
402.648	0.2232
402.8538	0.2332
403.0596	0.2153
403.2654	0.2277
403.4711	0.2186
403.6768	0.2359
403.8826	0.2175
404.0883	0.2275
404.294	0.2305
404.4997	0.2199
404.7054	0.2175
404.911	0.2129
405.1167	0.2257
405.3223	0.2371
405.5279	0.2215
405.7335	0.2238
405.9391	0.2172
406.1447	0.2225
406.3502	0.2321
406.5558	0.2174
406.7613	0.2168
406.9668	0.2181
407.1724	0.2078
407.3778	0.2042
407.5833	0.219
407.7888	0.2048
407.9942	0.2402
408.1997	0.2175
408.4051	0.2192
408.6105	0.2206
408.8159	0.1958
409.0213	0.2217
409.2267	0.2131
409.432	0.1961
409.6374	0.229
409.8427	0.2135
410.048	0.2253
410.2533	0.2081
410.4586	0.2112
410.6639	0.2098
410.8691	0.2087
411.0744	0.2218
411.2796	0.2046
411.4848	0.2029
411.69	0.2048
411.8952	0.2369
412.1004	0.2039
412.3056	0.2082
412.5107	0.2171
412.7158	0.223
412.921	0.2027
413.1261	0.2164
413.3312	0.2085
413.5362	0.2103
413.7413	0.1981
413.9464	0.1992
414.1514	0.2025
414.3564	0.2167
414.5614	0.202
414.7664	0.2182
414.9714	0.212
415.1764	0.2199
415.3813	0.2106
415.5863	0.2185
415.7912	0.2148
415.9961	0.2072
416.201	0.201
416.4059	0.2058
416.6108	0.1958
416.8156	0.2125
417.0205	0.2179
417.2253	0.1929
417.4301	0.2
417.6349	0.2152
417.8397	0.2117
418.0445	0.2142
418.2492	0.222
418.454	0.2009
418.6587	0.229
418.8634	0.1916
419.0681	0.1859
419.2728	0.2124
419.4775	0.199
419.6822	0.1953
419.8868	0.1716
420.0915	0.1989
420.2961	0.2016
420.5007	0.1914
420.7053	0.2086
420.9099	0.2045
421.1144	0.2
421.319	0.1953
421.5235	0.2028
421.728	0.2209
421.9325	0.2142
422.137	0.2182
422.3415	0.1913
422.546	0.1952
422.7504	0.2041
422.9549	0.1961
423.1593	0.1987
423.3637	0.2092
423.5681	0.1925
423.7725	0.1973
423.9769	0.1898
424.1812	0.17
424.3856	0.1772
424.5899	0.174
424.7942	0.1957
424.9985	0.1856
425.2028	0.1856
425.4071	0.1992
425.6113	0.167
425.8156	0.1956
426.0198	0.1873
426.224	0.1559
426.4282	0.1854
426.6324	0.1607
426.8366	0.1813
427.0407	0.1835
427.2449	0.1621
427.449	0.1636
427.6531	0.1443
427.8572	0.1745
428.0613	0.1591
428.2654	0.155
428.4694	0.1523
428.6735	0.1604
428.8775	0.1606
429.0815	0.1836
429.2855	0.165
429.4895	0.18
429.6935	0.1667
429.8975	0.1513
430.1014	0.1572
430.3053	0.1542
430.5093	0.1577
430.7132	0.1355
430.9171	0.152
431.1209	0.1397
431.3248	0.1475
431.5286	0.137
431.7325	0.1412
431.9363	0.1342
432.1401	0.1457
432.3439	0.1545
432.5477	0.1223
432.7514	0.1314
432.9552	0.1519
433.1589	0.1346
433.3627	0.1174
433.5664	0.1309
433.7701	0.1256
433.9737	0.1205
434.1774	0.1124
434.3811	0.1264
434.5847	0.1251
434.7883	0.1104
434.9919	0.1203
435.1955	0.1173
435.3991	0.1143
435.6027	0.1085
435.8062	0.1026
436.0098	0.0942
436.2133	0.1144
436.4168	0.1007
436.6203	0.1037
436.8238	0.1087
437.0272	0.1121
437.2307	0.0881
437.4341	0.0996
437.6375	0.1046
437.841	0.093
438.0443	0.1028
438.2477	0.1048
438.4511	0.0856
438.6545	0.0863
438.8578	0.0791
439.0611	0.0945
439.2644	0.0843
439.4677	0.0801
439.671	0.0813
439.8743	0.0793
440.0775	0.0807
440.2808	0.0828
440.484	0.0619
440.6872	0.0555
440.8904	0.0579
441.0936	0.0886
441.2967	0.0709
441.4999	0.074
441.703	0.0699
441.9062	0.0653
442.1093	0.0768
442.3124	0.0596
442.5155	0.0579
442.7185	0.061
442.9216	0.0406
443.1246	0.0615
443.3276	0.0574
443.5307	0.0686
443.7337	0.0716
443.9366	0.0538
444.1396	0.0464
444.3426	0.0479
444.5455	0.0544
444.7484	0.0556
444.9513	0.0497
445.1542	0.0562
445.3571	0.0498
445.56	0.0472
445.7628	0.0438
445.9657	0.0369
446.1685	0.0611
446.3713	0.055
446.5741	0.0369
446.7769	0.0334
446.9797	0.0408
447.1824	0.0571
447.3852	0.0332
447.5879	0.0468
447.7906	0.0524
447.9933	0.0338
448.196	0.0303
448.3986	0.0263
448.6013	0.0283
448.8039	0.0324
449.0066	0.0399
449.2092	0.0413
449.4118	0.0357
449.6143	0.0355
449.8169	0.0326
450.0195	0.0175
450.222	0.0074
450.4245	0.0283
450.627	0.0336
450.8295	0.0338
451.032	0.031
451.2345	0.0209
451.4369	0.0334
451.6394	0.0244
451.8418	0.0125
452.0442	0.013
452.2466	0.0285
452.449	0.0106
452.6513	0.0236
452.8537	0.01
453.056	0.012
453.2583	0.0224
453.4607	0.0086
453.663	0.0169
453.8652	0.0248
454.0675	0.0207
454.2697	0.0158
454.472	-0.0018
454.6742	0.0198
454.8764	0.0122
455.0786	0.0163
455.2808	0.0191
455.4829	0.0132
455.6851	0.0051
455.8872	0.0289
456.0893	0.0335
456.2915	0.0064
456.4935	0.0197
456.6956	0.0101
456.8977	0.0235
457.0997	0.0088
457.3018	-0.0118
457.5038	0.0175
457.7058	0.0097
457.9078	0.005
458.1098	0.0084
458.3117	0.0046
458.5137	0.0191
458.7156	0.0116
458.9175	0.0038
459.1194	-0.0022
459.3213	0.0012
459.5232	0.0003
459.725	-0.0081
459.9269	0.0018
460.1287	-0.0001
460.3305	0.0244
460.5323	0.0082
460.7341	0.0074
460.9359	0.0086
461.1376	0.0114
461.3394	-0.0002
461.5411	0.0037
461.7428	-0.0073
461.9445	0.0197
462.1462	0.0208
462.3479	0.0023
462.5495	0.0033
462.7512	0.0129
462.9528	0.0067
463.1544	0.0026
463.356	-0.0095
463.5576	0.016
463.7592	-0.0153
463.9607	0.0228
464.1623	0.02
464.3638	0.0158
464.5653	-0.0142
464.7668	0.0024
464.9683	0.0045
465.1697	0.0123
465.3712	-0.0018
465.5726	-0.0032
465.7741	0.0021
465.9755	-0.0031
466.1769	0.0032
466.3782	-0.0016
466.5796	-0.0107
466.7809	0.008
466.9823	-0.0032
467.1836	0.0084
467.3849	-0.008
467.5862	0.0054
467.7875	0.0018
467.9887	0.0019
468.19	-0.0086
468.3912	-0.0122
468.5924	-0.0081
468.7936	-0.0021
468.9948	-0.0165
469.196	0.0034
469.3972	-0.0121
469.5983	0.0038
469.7994	-0.0111
470.0006	0.0003
470.2017	-0.0062
470.4027	-0.0028
470.6038	0.0117
470.8049	0.0007
471.0059	-0.0051
471.2069	-0.0313
471.408	0.0036
471.6089	-0.0041
471.8099	0.004
472.0109	0.0023
472.2119	-0.0123
472.4128	-0.0173
472.6137	0.0111
472.8146	-0.0205
473.0155	-0.0125
473.2164	-0.0037
473.4173	0.0061
473.6181	0.0044
473.819	0.0023
474.0198	0.002
474.2206	0.0012
474.4214	-0.0061
474.6222	0.0064
474.8229	-0.0075
475.0237	-0.0193
475.2244	-0.0156
475.4251	-0.0074
475.6258	-0.0001
475.8265	-0.0013
476.0272	0.0054
476.2278	0.007
476.4285	-0.0127
476.6291	-0.0102
476.8297	-0.0012
477.0303	-0.0094
477.2309	0.0001
477.4315	0.0074
477.632	-0.0114
477.8326	0.0101
478.0331	0.0001
478.2336	0.0031
478.4341	-0.0024
478.6346	-0.0103
478.8351	0.002
479.0355	0.0063
479.236	-0.0179
479.4364	-0.0035
479.6368	-0.0023
479.8372	-0.0098
480.0376	-0.003
480.2379	-0.0274
480.4383	-0.0133
480.6386	0.0121
480.8389	-0.004
481.0392	-0.0017
481.2395	-0.005
481.4398	0.0012
481.6401	0.0027
481.8403	-0.0003
482.0405	0.0013
482.2408	-0.0089
482.441	0.0069
482.6411	-0.0075
482.8413	-0.0049
483.0415	-0.0063
483.2416	-0.0006
483.4417	-0.0016
483.6419	0.0034
483.8419	-0.0013
484.042	0.0098
484.2421	0.0101
484.4422	0.0007
484.6422	0.0001
484.8422	-0.0098
485.0422	-0.0089
485.2422	-0.0092
485.4422	-0.0079
485.6422	-0.0146
485.8421	-0.0098
486.042	0.0071
486.242	-0.0045
486.4419	-0.0012
486.6417	-0.0126
486.8416	-0.007
487.0415	-0.0107
487.2413	-0.0001
487.4411	-0.0107
487.641	-0.0175
487.8408	-0.0048
488.0405	-0.0062
488.2403	-0.0011
488.4401	0.0077
488.6398	0.0039
488.8395	-0.0048
489.0392	-0.0014
489.2389	-0.0137
489.4386	-0.0035
489.6383	-0.0073
489.8379	0.0103
490.0376	-0.0051
490.2372	-0.0148
490.4368	-0.0065
490.6364	-0.0017
490.836	-0.0039
491.0355	-0.0095
491.2351	0.0021
491.4346	-0.0056
491.6341	-0.0207
491.8336	0
492.0331	-0.0159
492.2326	-0.0133
492.432	0.0043
492.6315	-0.002
492.8309	-0.0027
493.0303	-0.0076
493.2297	-0.0061
493.4291	-0.0057
493.6284	0.001
493.8278	-0.0031
494.0271	-0.0038
494.2264	0.0022
494.4257	-0.0119
494.625	0.0062
494.8243	-0.0109
495.0236	-0.0089
495.2228	-0.0108
495.422	-0.0014
495.6213	0.0049
495.8205	-0.0009
496.0196	-0.0049
496.2188	-0.0007
496.418	-0.0099
496.6171	-0.0105
496.8162	-0.0098
497.0153	-0.001
497.2144	-0.0071
497.4135	-0.0019
497.6126	-0.0201
497.8116	-0.019
498.0107	-0.0022
498.2097	-0.0129
498.4087	-0.0105
498.6077	0
498.8067	-0.0113
499.0056	0.0051
499.2046	-0.0129
499.4035	-0.0206
499.6024	-0.0101
499.8013	0.0006
500.0002	-0.0072
500.199	0.0027
500.3979	-0.0092
500.5967	-0.016
500.7956	0.0007
500.9944	0.0041
501.1932	-0.0093
501.3919	-0.0046
501.5907	-0.0071
501.7895	-0.0008
501.9882	-0.0105
502.1869	0.0014
502.3856	-0.0106
502.5843	-0.0042
502.783	-0.0106
502.9816	-0.0091
503.1803	-0.0157
503.3789	-0.0094
503.5775	0.0029
503.7761	-0.0085
503.9747	-0.003
504.1732	-0.0145
504.3718	-0.0048
504.5703	-0.0088
504.7689	-0.0198
504.9674	-0.0075
505.1658	-0.0118
505.3643	-0.0086
505.5628	-0.0155
505.7612	0.0001
505.9597	0.011
506.1581	-0.0073
506.3565	-0.0011
506.5549	-0.0084
506.7532	-0.0154
506.9516	-0.01
507.1499	-0.0028
507.3482	-0.0177
507.5465	-0.0093
507.7448	-0.0088
507.9431	0.0035
508.1414	0.0008
508.3396	-0.0041
508.5379	-0.0073
508.7361	-0.0069
508.9343	0.0048
509.1325	0.0028
509.3306	-0.0117
509.5288	-0.0079
509.7269	-0.0178
509.9251	-0.0122
510.1232	-0.0043
510.3213	0.0006
510.5193	0.0014
510.7174	-0.0152
510.9154	-0.0109
511.1135	-0.0031
511.3115	-0.0134
511.5095	0.0014
511.7075	-0.0006
511.9055	-0.0049
512.1034	0.0016
512.3014	0.0035
512.4993	0.0044
512.6972	-0.0228
512.8951	-0.0145
513.093	-0.0026
513.2908	-0.0052
513.4887	-0.0074
513.6865	-0.0103
513.8844	-0.0073
514.0822	-0.009
514.2799	-0.0096
514.4777	-0.0068
514.6755	-0.0161
514.8732	-0.0053
515.0709	-0.0058
515.2687	-0.0117
515.4664	0.0099
515.664	-0.012
515.8617	-0.0137
516.0594	-0.0137
516.257	-0.0039
516.4546	-0.0175
516.6522	0.003
516.8498	-0.0073
517.0474	0.0006
517.2449	-0.008
517.4425	-0.0138
517.64	-0.004
517.8375	-0.007
518.035	-0.0087
518.2325	-0.0146
518.43	-0.007
518.6274	-0.0051
518.8249	-0.0108
519.0223	-0.0044
519.2197	-0.0081
519.4171	-0.0121
519.6145	-0.0121
519.8118	0.0019
520.0092	-0.0024
520.2065	-0.0133
520.4038	-0.014
520.6011	0
520.7984	-0.0097
520.9956	-0.0052
521.1929	-0.0105
521.3901	-0.0076
521.5874	-0.0017
521.7846	-0.0095
521.9818	-0.0154
522.1789	-0.0063
522.3761	-0.0025
522.5732	-0.001
522.7704	-0.0022
522.9675	-0.0114
523.1646	-0.0099
523.3617	-0.0032
523.5587	0.0009
523.7558	-0.0039
523.9528	-0.0086
524.1498	0.0023
524.3468	-0.0092
524.5438	-0.0033
524.7408	0.0018
524.9378	0.0111
525.1347	-0.0104
525.3316	-0.0008
525.5285	-0.0045
525.7254	-0.0062
525.9223	0.0006
526.1192	-0.0021
526.316	-0.0119
526.5129	-0.0018
526.7097	0.0006
526.9065	-0.0075
527.1033	0.0066
527.3	0.0067
527.4968	-0.0038
527.6935	-0.0139
527.8903	-0.0141
528.087	-0.0033
528.2837	-0.003
528.4804	-0.0008
528.677	-0.0024
528.8737	0.0006
529.0703	-0.0039
529.2669	-0.0051
529.4635	-0.0081
529.6601	-0.0028
529.8567	-0.0033
530.0532	-0.0125
530.2498	0.0005
530.4463	0.0058
530.6428	-0.0041
530.8393	0.0079
531.0358	-0.0123
531.2322	-0.0069
531.4287	-0.0083
531.6251	-0.0128
531.8215	0.0058
532.0179	0.0065
532.2143	0.0055
532.4107	0.0012
532.607	-0.0104
532.8034	-0.0026
532.9997	-0.001
533.196	-0.0112
533.3923	-0.013
533.5886	-0.0088
533.7848	-0.0023
533.9811	-0.0033
534.1773	0.0057
534.3735	0.0096
534.5697	0.0008
534.7659	0.0017
534.9621	-0.0013
535.1582	-0.0135
535.3544	-0.0088
535.5505	-0.0051
535.7466	-0.0013
535.9427	-0.0039
536.1387	-0.0068
536.3348	-0.0103
536.5308	0.0034
536.7269	-0.0143
536.9229	0.0048
537.1189	-0.0092
537.3148	0.0003
537.5108	-0.01
537.7068	-0.0054
537.9027	-0.0002
538.0986	-0.0024
538.2945	-0.0049
538.4904	-0.0103
538.6863	0.0012
538.8821	-0.0004
539.078	-0.0049
539.2738	-0.0019
539.4696	-0.0133
539.6654	-0.002
539.8611	0.0128
540.0569	0.0009
540.2526	-0.0029
540.4484	-0.006
540.6441	0.0034
540.8398	0.0021
541.0355	-0.0025
541.2311	-0.0073
541.4268	-0.0101
541.6224	-0.0038
541.818	-0.0031
542.0136	-0.0039
542.2092	0.001
542.4048	0.002
542.6003	-0.0045
542.7959	-0.0042
542.9914	-0.0115
543.1869	-0.0003
543.3824	0.0013
543.5779	-0.0006
543.7734	-0.007
543.9688	-0.0136
544.1642	-0.0006
544.3596	0.0001
544.555	-0.012
544.7504	0
544.9458	0.0042
545.1411	-0.003
545.3365	-0.0046
545.5318	-0.0099
545.7271	0.003
545.9224	0.0006
546.1177	-0.0037
546.3129	0.0041
546.5081	-0.006
546.7034	-0.0019
546.8986	-0.0083
547.0938	0.0043
547.289	-0.0088
547.4841	0.0017
547.6793	0.0128
547.8744	-0.0092
548.0695	-0.0008
548.2646	-0.0052
548.4597	-0.0035
548.6548	-0.0004
548.8498	0.0087
549.0448	0.0064
549.2399	-0.0018
549.4349	0.0089
549.6298	0.0013
549.8248	0.0028
550.0198	-0.0061
550.2147	-0.0014
550.4096	-0.008
550.6045	-0.0056
550.7994	0.0016
550.9943	0.0029
551.1892	-0.0028
551.384	0.0065
551.5788	-0.013
551.7737	-0.0013
551.9685	-0.0021
552.1632	0.0042
552.358	0
552.5528	-0.003
552.7475	0.0049
552.9422	0.0051
553.1369	0.0005
553.3316	0.0057
553.5263	-0.0095
553.7209	-0.0021
553.9156	-0.0108
554.1102	0.0012
554.3048	-0.0041
554.4994	0.0069
554.694	-0.0055
554.8885	0.0084
555.0831	-0.0143
555.2776	-0.0074
555.4721	0.0082
555.6666	-0.0051
555.8611	0.0079
556.0555	-0.0098
556.25	-0.0021
556.4444	-0.0066
556.6388	-0.0051
556.8332	-0.0092
557.0276	0.0021
557.222	-0.0042
557.4163	-0.0043
557.6107	-0.0092
557.805	0.0003
557.9993	-0.0121
558.1936	-0.0027
558.3879	-0.0044
558.5821	-0.0001
558.7764	-0.0028
558.9706	0.0002
559.1648	-0.002
559.359	-0.0101
559.5532	-0.0082
559.7473	-0.0001
559.9415	-0.0018
560.1356	-0.0082
560.3297	-0.0085
560.5238	-0.0086
560.7179	-0.0035
560.9119	-0.0091
561.106	-0.0095
561.3	-0.0105
561.494	-0.0009
561.688	-0.0058
561.882	-0.0023
562.076	-0.0053
562.2699	0.0066
562.4639	-0.002
562.6578	-0.004
562.8517	0.0007
563.0456	0.0026
563.2395	0.0058
563.4333	-0.0001
563.6272	0.0072
563.821	-0.0087
564.0148	-0.0041
564.2086	-0.0097
564.4024	-0.0058
564.5961	-0.0111
564.7899	0.0009
564.9836	-0.0044
565.1773	0.0069
565.371	0.0049
565.5647	0.0048
565.7584	-0.0011
565.952	0.0042
566.1456	0.0019
566.3393	-0.0048
566.5329	-0.0086
566.7264	-0.0008
566.92	-0.008
567.1136	-0.0029
567.3071	-0.0013
567.5006	0.0068
567.6941	0.0006
567.8876	0.0003
568.0811	0.0101
568.2745	0.0021
568.468	0.0076
568.6614	0.0067
568.8548	-0.0035
569.0482	0.0025
569.2416	-0.001
569.4349	-0.0019
569.6283	0
569.8216	0.01
570.0149	-0.0029
570.2082	0.0025
570.4015	0.0114
570.5947	0.0071
570.788	0.0008
570.9812	0.0057
571.1744	0.0026
571.3676	-0.0124
571.5608	-0.007
571.754	0.0019
571.9471	0.0031
572.1402	0.0018
572.3333	-0.0049
572.5264	0.0021
572.7195	-0.0039
572.9126	0.0065
573.1057	-0.0014
573.2987	-0.0031
573.4917	0.0099
573.6847	-0.0076
573.8777	0.0075
574.0707	0.0024
574.2636	-0.0042
574.4566	-0.0008
574.6495	0.0057
574.8424	-0
575.0353	-0.006
575.2281	0.0015
575.421	0.0073
575.6138	0.007
575.8067	-0.0016
575.9995	0.0022
576.1923	0.0004
576.385	0.0027
576.5778	0.0041
576.7706	0.0016
576.9633	0.0042
577.156	0.006
577.3487	0.0011
577.5414	0.0001
577.734	-0.0038
577.9267	0.0041
578.1193	-0.0144
578.3119	-0.0055
578.5045	0.0041
578.6971	-0.0002
578.8897	0.0008
579.0822	0.003
579.2747	0.0021
579.4673	-0.0025
579.6598	-0.0062
579.8522	-0.0084
580.0447	-0.0036
580.2372	-0.0029
580.4296	0.0016
580.622	-0.0008
580.8144	0.001
581.0068	-0.0081
581.1992	-0.0132
581.3915	-0.0041
581.5839	-0.0069
581.7762	-0.0066
581.9685	0.0008
582.1608	0.0007
582.353	0.0025
582.5453	-0.0034
582.7375	0.0018
582.9298	0.0012
583.122	0.0044
583.3142	0.0013
583.5063	-0.0033
583.6985	0.0028
583.8906	-0.0014
584.0827	-0.0024
584.2749	0.0014
584.4669	0.0013
584.659	-0.003
584.8511	-0.0037
585.0431	0.0023
585.2352	0.0048
585.4272	-0.0021
585.6192	0.0071
585.8111	0.0007
586.0031	-0.0004
586.195	-0.0113
586.387	0.0052
586.5789	0.003
586.7708	0.0072
586.9627	-0.0026
587.1545	-0.0021
587.3464	0.0011
587.5382	0.0061
587.73	0.005
587.9218	0.0122
588.1136	0.0029
588.3053	0.0046
588.4971	0.0009
588.6888	-0.0111
588.8805	-0.0063
589.0722	0.0034
589.2639	-0.0009
589.4556	-0.0005
589.6472	-0.0001
589.8389	-0.0075
590.0305	-0.0035
590.2221	0.0053
590.4137	-0.0059
590.6052	0.0035
590.7968	-0.0021
590.9883	0.0042
591.1798	-0.0072
591.3713	0
591.5628	0.0049
591.7543	0.0056
591.9458	-0.0043
592.1372	0.0021
592.3286	0.0054
592.52	0.003
592.7114	-0.004
592.9028	0.0006
593.0941	0.0009
593.2855	0.0002
593.4768	-0.0076
593.6681	-0.0001
593.8594	-0.0073
594.0506	0.0048
594.2419	0.0082
594.4331	0.0018
594.6244	0.0056
594.8156	-0.007
595.0067	0.0037
595.1979	0.0017
595.3891	0.0048
595.5802	-0.0035
595.7713	-0.0017
595.9624	-0.0092
596.1535	0.0065
596.3446	0.0045
596.5357	0.002
596.7267	0.005
596.9177	-0.0048
597.1087	-0.004
597.2997	-0.005
597.4907	0.0052
597.6817	-0.0056
597.8726	-0.0007
598.0635	0
598.2544	0.0029
598.4453	0.0025
598.6362	-0.0032
598.827	-0.0018
599.0179	0.0041
599.2087	0.0041
599.3995	-0.0027
599.5903	0.0036
599.7811	0.0088
599.9718	-0.0012
600.1626	-0.005
600.3533	-0.0067
600.544	-0.0026
600.7347	-0.0084
600.9254	-0.0046
601.116	-0.0139
601.3067	-0.0043
601.4973	-0.0081
601.6879	0.0009
601.8785	-0
602.0691	0.0017
602.2596	0.0009
602.4502	0.0045
602.6407	0.0058
602.8312	0.0002
603.0217	-0.0022
603.2122	-0.0034
603.4027	0.0061
603.5931	0.0015
603.7835	0.001
603.9739	-0.0035
604.1643	-0.0055
604.3547	-0.0031
604.5451	0.0036
604.7354	-0.0031
604.9257	-0.0017
605.116	-0.0028
605.3063	0.0092
605.4966	0.0035
605.6869	-0
605.8771	0.0048
606.0673	0.0088
606.2575	0.0117
606.4477	0.0098
606.6379	0.0028
606.8281	0.0063
607.0182	-0.0016
607.2083	0.0143
607.3985	-0.0059
607.5885	-0.0018
607.7786	0.0043
607.9687	-0.002
608.1587	0.0027
608.3488	0.0025
608.5388	0.0035
608.7288	-0.0013
608.9187	-0.0007
609.1087	-0.0047
609.2986	-0.0053
609.4886	-0.0024
609.6785	-0.0008
609.8684	0.0004
610.0582	0.0052
610.2481	0.0005
610.4379	0.0054
610.6278	0.0042
610.8176	0.0021
611.0074	0.0043
611.1971	-0.0045
611.3869	-0.0001
611.5766	0.0008
611.7664	0.0057
611.9561	0.007
612.1458	0.0091
612.3354	-0.004
612.5251	0.002
612.7147	0.0007
612.9044	0.0076
613.094	-0.0129
613.2836	0.0006
613.4731	-0.0007
613.6627	-0.0078
613.8522	-0.0023
614.0417	0.0083
614.2313	-0.0061
614.4207	-0.0091
614.6102	0.0086
614.7997	-0.0141
614.9891	-0.0073
615.1785	-0.001
615.3679	-0.0061
615.5573	0.0066
615.7467	-0.0032
615.9361	-0.0014
616.1254	0.0029
616.3147	0.0037
616.504	0.0079
616.6933	0.0023
616.8826	0.0006
617.0718	0.0089
617.2611	0.0047
617.4503	0.0004
617.6395	-0.0031
617.8287	-0.0018
618.0179	0.0045
618.207	0.0036
618.3961	0
618.5853	-0.0049
618.7744	0.0067
618.9634	0.0023
619.1525	0.0035
619.3416	0.0047
619.5306	0.0064
619.7196	0.0037
619.9086	0.001
620.0976	0.0067
620.2866	0.0002
620.4755	0.0056
620.6645	0.0021
620.8534	0.0082
621.0423	0.0037
621.2312	0.0038
621.42	-0.0051
621.6089	0
621.7977	0.0029
621.9865	-0.0071
622.1753	0.0038
622.3641	-0.0011
622.5529	0.0122
622.7416	0.008
622.9303	0.0052
623.1191	0.0078
623.3078	0.0013
623.4964	-0.0007
623.6851	-0.0012
623.8737	0.0026
624.0624	0.0043
624.251	-0.0038
624.4396	0.0032
624.6282	-0.0041
624.8167	0.0003
625.0053	0.0085
625.1938	0.0039
625.3823	0.0002
625.5708	-0.0032
625.7593	-0.0002
625.9477	-0.0059
626.1362	-0.0046
626.3246	0.0035
626.513	-0.0015
626.7014	0.008
626.8898	0.0031
627.0781	0.0022
627.2665	-0.0011
627.4548	0.0058
627.6431	0.0004
627.8314	0.0032
628.0197	-0.0022
628.2079	-0.0066
628.3962	-0.0012
628.5844	0.0057
628.7726	-0.0017
628.9608	0.0113
629.1489	0.0064
629.3371	0.0087
629.5252	-0.0041
629.7134	0.0061
629.9015	0.0034
630.0895	0.0054
630.2776	0.0041
630.4657	-0.0021
630.6537	0.0049
630.8417	-0.0035
631.0297	0.0027
631.2177	-0.0014
631.4057	-0.0017
631.5936	-0.0057
631.7815	-0.0029
631.9695	0
632.1574	0.0091
632.3452	0.0067
632.5331	0.0011
632.7209	-0.001
632.9088	0.0068
633.0966	0.0109
633.2844	0.001
633.4722	0.005
633.6599	0.0048
633.8477	0.004
634.0354	0.0006
634.2231	-0.0004
634.4108	0.0025
634.5985	0.0014
634.7861	-0.0004
634.9738	0.0039
635.1614	0.0033
635.349	0.0045
635.5366	0.0038
635.7242	0.0081
635.9117	0.0044
636.0993	0.0024
636.2868	0.0042
636.4743	0.0038
636.6618	0.0148
636.8492	0.0008
637.0367	0.0031
637.2241	-0.005
637.4115	-0.0036
637.5989	-0.0113
637.7863	-0.0023
637.9737	0.0041
638.161	0.0044
638.3484	0.0085
638.5357	0.0094
638.723	-0.0016
638.9103	0.0046
639.0975	0.0014
639.2848	0.0039
639.472	-0.0005
639.6592	0.0058
639.8464	0.0092
640.0336	0.0048
640.2208	-0.0035
640.4079	-0.0051
640.595	0.0046
640.7821	0.0069
640.9692	-0.0092
641.1563	0.0067
641.3434	0.0084
641.5304	0
641.7174	0.0023
641.9044	0.0003
642.0914	0.0009
642.2784	0.0099
642.4653	0.0051
642.6523	-0.0006
642.8392	-0.0051
643.0261	0.0015
643.213	0.003
643.3999	-0.0034
643.5867	-0.0065
643.7735	0.0008
643.9604	-0.0112
644.1472	0.0016
644.3339	0.003
644.5207	0.0041
644.7075	-0.0109
644.8942	0.0062
645.0809	0.0114
645.2676	0.0045
645.4543	0.0077
645.6409	0.0088
645.8276	0.0027
646.0142	0.0046
646.2008	-0.0076
646.3874	-0.0001
646.574	0.0033
646.7605	-0.0008
646.9471	-0.0101
647.1336	-0.0037
647.3201	0.0051
647.5066	-0.0007
647.6931	0.0007
647.8795	-0.0007
648.0659	0.0053
648.2524	0.0086
648.4388	-0.0052
648.6252	0.0052
648.8115	0.0033
648.9979	0.0043
649.1842	-0.0019
649.3705	0.004
649.5568	0.0038
649.7431	0.0114
649.9294	-0.0001
650.1156	0.0024
650.3018	-0.0089
650.488	0.0091
650.6742	0.0006
650.8604	-0.0006
651.0466	-0.0091
651.2327	-0.0046
651.4188	0.001
651.6049	-0.0027
651.791	-0.0009
651.9771	0.0028
652.1632	0.0045
652.3492	0.003
652.5352	0.0065
652.7212	-0.0003
652.9072	0.0043
653.0932	-0.0013
653.2791	-0.0053
653.465	0.0041
653.651	-0.002
653.8369	0.0005
654.0227	-0.0011
654.2086	0.0139
654.3944	0.0029
654.5803	0.0018
654.7661	-0.0014
654.9519	0.0021
655.1377	-0.0047
655.3234	-0.0007
655.5092	-0.0071
655.6949	-0.0071
655.8806	-0.0028
656.0663	0.0008
656.2519	-0.0025
656.4376	-0.0019
656.6232	0.0065
656.8088	-0.003
656.9945	0.0044
657.18	0.0029
657.3656	-0.0003
657.5511	0.0016
657.7367	-0.004
657.9222	0.0075
658.1077	0.0008
658.2932	0.0065
658.4786	-0.0122
658.6641	-0.0042
658.8495	-0.0035
659.0349	-0.0041
659.2203	-0.0019
659.4057	0.0039
659.591	0.0016
659.7764	-0.0038
659.9617	0.0044
660.147	0.0009
660.3323	-0.0011
660.5176	0.01
660.7028	-0.0041
660.888	0.0031
661.0733	0.0022
661.2585	-0.0049
661.4436	0.0004
661.6288	-0.0069
661.8139	-0.0034
661.9991	0.0059
662.1842	-0.0059
662.3693	-0.0042
662.5544	-0.0071
662.7394	0.0008
662.9245	0
663.1095	-0.0044
663.2945	-0.0008
663.4795	-0.0053
663.6644	-0.0033
663.8494	-0.0048
664.0343	0.0016
664.2193	-0.0051
664.4042	0.0073
664.589	-0.0055
664.7739	-0.0042
664.9587	-0.0037
665.1436	-0.0042
665.3284	0.0015
665.5132	-0.006
665.698	-0.0005
665.8827	0.0013
666.0675	-0.0039
666.2522	-0.0011
666.4369	0.0035
666.6216	0.003
666.8063	-0.0005
666.9909	-0.0049
667.1756	-0.0002
667.3602	0.0058
667.5448	0.0007
667.7294	0.0024
667.9139	0.0014
668.0985	0.0175
668.283	0.0041
668.4675	-0.0043
668.652	0.0059
668.8365	0.0007
669.0209	0.0088
669.2054	0.009
669.3898	0.0017
669.5742	0.0065
669.7586	0.0021
669.943	0.0123
670.1273	0.0103
670.3117	0.0067
670.496	0.0056
670.6803	0.0078
670.8646	0.008
671.0488	0.0025
671.2331	0.0075
671.4173	0.0037
671.6015	0.0009
671.7857	0.0004
671.9699	0.0026
672.1541	0.0056
672.3382	0.0037
672.5223	0.0061
672.7064	0.0075
672.8905	0.0091
673.0746	-0.0022
673.2587	-0.0034
673.4427	0.0063
673.6267	0.003
673.8107	0.0058
673.9947	0.0015
674.1787	0.0085
674.3626	-0.0046
674.5465	0.0065
674.7304	0.0055
674.9143	0.0014
675.0982	0.0074
675.2821	-0.006
675.4659	0.009
675.6497	0.0015
675.8335	-0.0017
676.0173	0.0035
676.2011	0.0014
676.3849	0.0013
676.5686	-0.0005
676.7523	-0.0034
676.936	-0.0038
677.1197	-0.0053
677.3034	-0.0083
677.487	0.0065
677.6706	0.0035
677.8542	0.0007
678.0378	-0.0032
678.2214	-0.0003
678.405	-0.0058
678.5885	-0.0091
678.772	0.0016
678.9555	-0.002
679.139	-0.0016
679.3225	-0.0046
679.5059	0.0022
679.6894	0.0065
679.8728	0.0054
680.0562	-0.0068
680.2395	-0.0051
680.4229	-0.0049
680.6062	0.0007
680.7896	0.0021
680.9729	-0.0026
681.1562	0.0022
681.3394	0.0055
681.5227	-0.0063
681.7059	0.0037
681.8891	0.0054
682.0723	0.0072
682.2555	0.0059
682.4387	-0.0008
682.6218	-0.0041
682.805	0.0167
682.9881	0.0045
683.1712	0.0015
683.3542	0.004
683.5373	0.0038
683.7203	-0.0059
683.9034	0.0053
684.0864	-0.0083
684.2694	-0.0054
684.4523	0.0045
684.6353	-0.0068
684.8182	-0.0059
685.0011	-0.0026
685.184	0.0015
685.3669	0.0015
685.5498	0.0017
685.7326	0.0017
685.9154	-0.0097
686.0982	0.0061
686.281	0.0106
686.4638	-0.0015
686.6465	-0.0056
686.8293	-0.0004
687.012	0.0051
687.1947	-0.0137
687.3774	-0.0012
687.56	0.0004
687.7427	0.0025
687.9253	-0.0057
688.1079	0.0022
688.2905	0.0072
688.4731	-0.0003
688.6556	-0.0052
688.8382	-0.0006
689.0207	0.0104
689.2032	-0.0079
689.3857	-0.0053
689.5681	-0
689.7506	-0.0052
689.933	-0.0002
690.1154	0.0016
690.2978	0.0009
690.4802	0.0037
690.6626	-0.0125
690.8449	-0.0055
691.0272	0.0042
691.2095	-0.0018
691.3918	-0.0047
691.5741	-0.0003
691.7563	-0.0028
691.9386	0.0024
692.1208	0.0042
692.303	0.0057
692.4852	-0.0014
692.6673	0.0041
692.8495	0.0016
693.0316	0.0067
693.2137	0.0023
693.3958	0.0117
693.5778	-0.0009
693.7599	0.0061
693.9419	-0.0032
694.1239	-0.0028
694.3059	-0.0025
694.4879	0.0069
694.6699	0.0044
694.8518	0.0043
695.0337	-0.0018
695.2157	-0.001
695.3975	0.0048
695.5794	0.002
695.7613	0.0005
695.9431	0.0019
696.1249	0.012
696.3067	0.0108
696.4885	0.0112
696.6703	-0.0033
696.852	0.0087
697.0337	0.0076
697.2154	0.008
697.3971	0
697.5788	0.0081
697.7605	0.002
697.9421	0.0078
698.1237	-0.0013
698.3053	0.0029
698.4869	-0.0046
698.6685	-0.0075
698.85	-0.0023
699.0315	0.0089
699.213	0.0032
699.3945	-0.0017
699.576	0.0119
699.7575	0.0078
699.9389	0.0101
700.1203	-0.0005
700.3017	-0.005
700.4831	-0.0092
700.6645	-0.0043
700.8458	0.0117
701.0271	-0.0042
701.2084	-0.001
701.3897	-0.0103
701.571	0.0021
701.7523	-0.008
701.9335	0.0012
702.1147	0.0039
702.2959	0.0022
702.4771	0.0061
702.6583	-0.0015
702.8394	0.0025
703.0205	0.0034
703.2016	-0.0032
703.3827	0.0008
703.5638	0.012
703.7449	0.0031
703.9259	0.0105
704.1069	-0.0015
704.2879	0.0003
704.4689	0.0051
704.6499	0.0038
704.8308	0.0011
705.0117	0.0008
705.1927	0.0115
705.3735	-0.0021
705.5544	0.0009
705.7353	0.0042
705.9161	-0.009
706.0969	-0.0111
706.2777	-0.0032
706.4585	-0.0054
706.6393	0.0033
706.82	-0.0007
707.0007	-0.0015
707.1815	-0.0023
707.3621	0.0079
707.5428	0.0051
707.7235	0.0008
707.9041	0.0089
708.0847	-0.0106
708.2653	-0.0041
708.4459	-0.0077
708.6265	0.0001
708.807	-0.0017
708.9875	-0.0083
709.168	0.0037
709.3485	-0.0063
709.529	-0.0052
709.7095	-0.007
709.8899	-0.0044
710.0703	-0.0206
710.2507	0.0014
710.4311	-0.0053
710.6115	-0.0086
710.7918	-0.015
710.9721	-0.0044
711.1524	-0.006
711.3327	0.0054
711.513	0.0002
711.6932	0.0032
711.8735	0.0155
712.0537	-0.0018
712.2339	0.0056
712.4141	-0.0046
712.5942	0.0023
712.7744	0.0009
712.9545	-0.004
713.1346	-0.0023
713.3147	-0.0034
713.4947	-0.0066
713.6748	0.0038
713.8548	-0.007
714.0348	-0.001
714.2148	0.0034
714.3948	0.0098
714.5748	0.0029
714.7547	-0.0005
714.9346	0.0063
715.1145	-0.0047
715.2944	-0.0094
715.4743	0.0081
715.6541	-0.0004
715.834	0.0066
716.0138	-0.0081
716.1936	-0.0175
716.3733	-0.002
716.5531	0.012
716.7328	-0.0038
716.9126	-0.0086
717.0923	0.0075
717.2719	0.0072
717.4516	0.0148
717.6312	0.0022
717.8109	0.0077
717.9905	0.0081
718.1701	0.0012
718.3496	-0.0004
718.5292	0.0131
718.7087	0.003
718.8882	0.0067
719.0677	0.0109
719.2472	0.0006
719.4267	0.0036
719.6061	0.0005
719.7856	0.0084
719.965	0.0079
720.1443	-0.0088
720.3237	0.0116
720.5031	0.0089
720.6824	0.0049
720.8617	-0.0083
721.041	0.0037
721.2203	0.0062
721.3995	0.0063
721.5788	0.0028
721.758	0.0018
721.9372	-0.0024
722.1164	-0.0023
722.2956	0.0079
722.4747	0.0045
722.6538	-0.0054
722.8329	0.009
723.012	0.0007
723.1911	-0.005
723.3702	-0.0003
723.5492	0.0009
723.7282	-0.0077
723.9072	-0.0051
724.0862	0
724.2652	-0.0103
724.4441	-0.0037
724.623	0.0015
724.8019	0.0035
724.9808	-0.0014
725.1597	-0.0127
725.3385	0.0068
725.5174	0.0051
725.6962	-0.0071
725.875	0.0002
726.0538	0.0019
726.2325	-0.0034
726.4112	0.0055
726.59	-0.0027
726.7687	-0.0073
726.9474	0.0033
727.126	0.0019
727.3047	-0.0012
727.4833	-0.0011
727.6619	-0.0022
727.8405	-0.0011
728.0191	0.0023
728.1976	-0.0042
728.3762	0.0014
728.5547	0.001
728.7332	-0.0151
728.9116	0.0027
729.0901	-0.0013
729.2686	-0.0122
729.447	-0.011
729.6254	-0.0119
729.8038	-0.0042
729.9821	-0.0066
730.1605	-0.0024
730.3388	-0.0074
730.5171	0.0006
730.6954	-0.0056
730.8737	0.0039
731.0519	0.0095
731.2302	-0.0015
731.4084	0.0114
731.5866	0.0036
731.7648	-0.0027
731.9429	-0.0012
732.1211	-0.011
732.2992	-0.0007
732.4773	-0.0014
732.6554	-0.0018
732.8335	-0.0013
733.0115	0.0026
733.1896	0.0025
733.3676	-0.0063
733.5456	0.006
733.7235	0.0079
733.9015	0.0049
734.0794	0.0061
734.2574	-0.0024
734.4353	-0.0013
734.6131	0.0089
734.791	0.0019
734.9689	-0.0014
735.1467	-0.0051
735.3245	-0.0112
735.5023	-0.0139
735.68	-0.0008
735.8578	0.0095
736.0355	-0.0185
736.2132	0.0001
736.3909	-0.0024
736.5686	-0.0125
736.7463	-0.0024
736.9239	-0.0064
737.1015	-0.0086
737.2791	0.0049
737.4567	0.0019
737.6343	-0.0019
737.8118	0.0022
737.9894	0.0094
738.1669	-0.0095
738.3444	-0.0028
738.5218	0
738.6993	-0.004
738.8767	-0.0068
739.0541	0.0087
739.2315	-0.0093
739.4089	-0.0014
739.5863	0.007
739.7636	0.0015
739.9409	0.0003
740.1182	0.0055
740.2955	-0.0004
740.4728	-0.0036
740.65	-0.0049
740.8272	-0.0003
741.0044	-0.0051
741.1816	0.0055
741.3588	-0.0008
741.5359	0.0016
741.7131	-0.0055
741.8902	0.0033
742.0673	-0.0008
742.2444	-0.0014
742.4214	-0.0062
742.5985	0.0032
742.7755	-0.005
742.9525	-0.0132
743.1295	-0.0017
743.3064	-0.0037
743.4834	0.0003
743.6603	0.0014
743.8372	-0.0073
744.0141	0.0042
744.191	0.002
744.3678	-0.0039
744.5446	0.0039
744.7215	0.0091
744.8982	-0.0046
745.075	-0.0166
745.2518	-0.0002
745.4285	0.0024
745.6052	-0.0116
745.7819	-0.005
745.9586	-0.0109
746.1353	-0.0084
746.3119	-0.0108
746.4885	-0.0065
746.6651	-0.0114
746.8417	-0.012
747.0183	-0.02
747.1948	-0.0043
747.3714	-0.0114
747.5479	-0.0059
747.7244	-0.0216
747.9008	0.0053
748.0773	-0.0034
748.2537	-0.0069
748.4301	-0.0182
748.6065	-0.0068
748.7829	-0.0076
748.9593	-0.0063
749.1356	0.0019
749.3119	0.004
749.4882	-0.0134
749.6645	0.0021
749.8408	-0.0009
750.017	-0.0094
750.1933	0.0035
750.3695	-0.0028
750.5457	-0.0036
750.7218	-0.003
750.898	-0.0014
751.0741	-0.0084
751.2502	-0.0075
751.4263	-0.0151
751.6024	-0.0033
751.7784	-0.0058
751.9545	-0.0101
752.1305	0.0016
752.3065	-0.0068
752.4825	-0.0031
752.6584	-0.0081
752.8344	0.0023
753.0103	-0.0103
753.1862	-0.0089
753.3621	-0.009
753.5379	-0.0077
753.7138	-0.0069
753.8896	-0.002
754.0654	-0.0043
754.2412	0.0114
754.417	0.0016
754.5927	-0.0099
754.7685	-0.0071
754.9442	-0.0032
755.1199	0.0155
755.2956	0.0037
755.4712	0.0112
755.6469	0.0061
755.8225	0.0035
755.9981	0.005
756.1736	0.0121
756.3492	0.005
756.5248	-0.0022
756.7003	0.0069
756.8758	0.0118
757.0513	-0.0022
757.2267	-0.0073
757.4022	-0.0004
757.5776	0.0007
757.753	-0.0044
757.9284	0.0005
758.1038	0.005
758.2791	-0.0028
758.4545	-0.0135
758.6298	0.0029
758.8051	-0.0018
758.9803	-0.0077
759.1556	-0.0051
759.3308	-0.0051
759.506	0.0145
759.6812	0.0002
759.8564	0.0136
760.0316	-0.0046
760.2067	0.0082
760.3819	0.0122
760.557	0.0195
760.732	0.001
760.9071	-0.0058
761.0821	0.0015
761.2572	0.0146
761.4322	-0.0016
761.6072	0.0017
761.7821	-0.0042
761.9571	0.0147
762.132	-0.0067
762.3069	-0.0067
762.4818	-0.0066
762.6567	0.0013
762.8316	-0.0001
763.0064	-0.0076
763.1812	-0.0003
763.356	-0.0088
763.5308	-0.0046
763.7055	-0.0092
763.8803	-0.0022
764.055	-0.0007
764.2297	-0.0086
764.4044	-0.0061
764.579	-0.0111
764.7537	-0.0169
764.9283	-0.0075
765.1029	-0.008
765.2775	-0.008
765.4521	-0.0152
765.6266	-0.0145
765.8011	-0.004
765.9756	-0.0005
766.1501	-0.0003
766.3246	-0.0075
766.4991	-0.001
766.6735	-0.0006
766.8479	-0.0114
767.0223	-0.0017
767.1967	0.0015
767.371	0.0007
767.5454	-0.0086
767.7197	-0.006
767.894	-0.0104
768.0683	-0.0137
768.2425	0.0056
768.4168	0.0036
768.591	-0.001
768.7652	-0.0043
768.9394	-0.0111
769.1135	-0.0047
769.2877	0.0058
769.4618	-0.0038
769.6359	-0.0101
769.81	-0.0085
769.984	-0.0015
770.1581	-0.0036
770.3321	-0.002
770.5061	-0.0048
770.6801	-0.0113
770.8541	-0.0012
771.028	-0.0002
771.202	-0.0071
771.3759	-0.0028
771.5498	-0.0027
771.7236	-0.0051
771.8975	-0.0048
772.0713	0.0007
772.2451	0.0087
772.4189	0.0009
772.5927	0.0136
772.7665	-0.003
772.9402	-0.0117
773.1139	-0.0006
773.2876	-0.0096
773.4613	0.0009
773.635	-0.0022
773.8086	-0.0083
773.9822	-0.0106
774.1558	-0.0022
774.3294	-0.0248
774.503	-0.004
774.6765	0
774.8501	-0.0071
775.0236	0.0075
775.1971	0.0018
775.3705	-0.0105
775.544	-0.0022
775.7174	-0.0107
775.8908	-0.008
776.0642	-0.0085
776.2376	-0.0014
776.4109	-0.0083
776.5843	-0.0024
776.7576	0.0036
776.9309	0.0065
777.1041	-0.0018
777.2774	0.0111
777.4506	0.0037
777.6238	-0.0074
777.797	-0.007
777.9702	-0.0116
778.1434	0.0005
778.3165	0.0012
778.4896	-0.0094
778.6627	0.0048
778.8358	0.0012
779.0089	-0.0076
779.1819	-0.0079
779.3549	0.0086
779.5279	0.0068
779.7009	-0.0059
779.8739	-0.007
780.0468	-0.0057
780.2197	0.0033
780.3926	-0.0064
780.5655	-0.0001
780.7384	-0.0058
780.9112	-0.0008
781.0841	-0.0067
781.2569	0.0017
781.4297	0.0009
781.6024	0.0004
781.7752	0.0033
781.9479	0.0033
782.1206	-0.0001
782.2933	-0.0065
782.466	-0.0031
782.6386	-0.001
782.8113	-0.0006
782.9839	0.0051
783.1565	0.0129
783.329	0.0014
783.5016	0.0147
783.6741	0.0061
783.8466	-0.0058
784.0191	0.029
784.1916	0.0034
784.3641	0.0141
784.5365	0.0032
784.7089	-0.0093
784.8813	-0.0037
785.0537	0.0001
785.2261	-0.0032
785.3984	-0.0108
785.5707	-0.0063
785.743	0
785.9153	-0.0177
786.0876	-0.0003
786.2598	-0.0028
786.432	-0.0149
786.6042	-0.0011
786.7764	-0.0097
786.9486	-0.0069
787.1207	-0.0136
787.2928	0.0062
787.4649	-0.0055
787.637	0.0015
787.8091	-0.0139
787.9811	-0.0014
788.1532	0.0017
788.3252	0.0125
788.4972	-0.0113
788.6691	-0.0056
788.8411	-0.0085
789.013	-0.016
789.1849	0.0012
789.3568	0.0003
789.5287	0.0067
789.7005	-0.0104
789.8723	-0.0019
790.0442	0.0101
790.2159	-0.0065
790.3877	-0.0003
790.5595	-0.0045
790.7312	-0.0148
790.9029	0.0031
791.0746	-0.0167
791.2463	-0.0115
791.4179	0.0023
791.5896	-0.0163
791.7612	-0.0126
791.9328	0.007
792.1044	-0.0071
792.2759	-0.0136
792.4474	-0.0107
792.619	0.0021
792.7905	0.0049
792.9619	-0.0019
793.1334	0.0121
793.3048	-0.0022
793.4762	0.0064
793.6476	-0.0032
793.819	-0.0168
793.9904	0.006
794.1617	-0.0203
794.333	-0.0039
794.5043	-0.0027
794.6756	-0.0042
794.8469	-0.0052
795.0181	-0.013
795.1893	-0.0051
795.3605	0.008
795.5317	0.0084
795.7029	-0.0155
795.874	0.0027
796.0452	0.0044
796.2163	-0.0071
796.3873	0.0097
796.5584	0.0078
796.7294	0.0007
796.9005	0.0153
797.0715	-0.0026
797.2425	-0.0144
797.4134	-0.0101
797.5844	-0.0025
797.7553	-0.0261
797.9262	0.0044
798.0971	-0.0151
798.2679	-0.0063
798.4388	-0.0195
798.6096	-0.0051
798.7804	-0.0011
798.9512	-0.0255
799.122	-0.0151
799.2927	-0.0019
799.4635	0.0057
799.6342	-0.0165
799.8049	-0.0141
799.9755	-0.0076
800.1462	-0.0036
800.3168	0.0037
800.4874	0.0033
800.658	0.0091
800.8286	0.0214
800.9991	0.0114
801.1696	-0.0012
801.3402	0.0064
801.5106	-0.0026
801.6811	0.0056
801.8516	0.0193
802.022	0.0068
802.1924	-0.0047
802.3628	0.0174
802.5332	0.0108
802.7035	0.0155
802.8739	0.0009
803.0442	-0.0177
803.2145	-0.0012
803.3847	-0.0196
803.555	0.0017
803.7252	-0.0147
803.8954	-0.0118
804.0656	-0.0295
804.2358	0.0018
804.4059	0.0158
804.5761	0.0087
804.7462	0.0064
804.9163	-0.0067
805.0864	-0.0206
805.2564	0.0007
805.4264	0.0085
805.5965	0.0059
805.7665	0.0069
805.9364	0.0007
806.1064	0.0208
806.2763	0.0159
806.4462	0.017
806.6161	0.0017
806.786	0.0133
806.9559	-0.0067
807.1257	-0.0119
807.2955	0.0036
807.4653	-0.0032
807.6351	-0.0042
807.8048	-0.0172
807.9746	0.0029
808.1443	-0.0091
808.314	-0.0116
808.4837	-0.0081
808.6533	0.0017
808.8229	0.013
808.9926	0.0075
809.1622	0.0012
809.3317	0
809.5013	-0.0086
809.6708	0.0047
809.8403	0.0236
810.0098	0.008
810.1793	0.0041
810.3488	-0.0102
810.5182	0.0008
810.6876	-0.0017
810.857	-0.0178
811.0264	0.009
811.1958	-0.002
811.3651	-0.0057
811.5344	0.0013
811.7037	-0.023
811.873	-0.0091
812.0422	-0.0042
812.2115	-0.0182
812.3807	-0.0137
812.5499	0.0035
812.7191	0.0019
812.8882	-0.0034
813.0574	-0.0071
813.2265	-0.011
813.3956	0
813.5646	0.0053
813.7337	-0.0165
813.9027	0.0052
814.0718	0.0047
814.2407	0.0043
814.4097	0.0003
814.5787	-0.0106
814.7476	-0.0218
814.9165	-0.0161
815.0854	-0.0029
815.2543	-0.0003
815.4232	-0.0148
815.592	-0.0057
815.7608	0.0033
815.9296	-0.0003
816.0984	-0.0135
816.2671	-0.0015
816.4359	0.0018
816.6046	-0.0156
816.7733	-0.0153
816.942	-0.0093
817.1106	0.0049
817.2793	-0.0003
817.4479	0.0053
817.6165	-0.013
817.785	-0.0022
817.9536	-0.031
818.1221	-0.0089
818.2906	-0.0035
818.4591	-0.0113
818.6276	-0.0262
818.7961	0.0077
818.9645	0.0115
819.1329	0.0139
819.3013	0.0244
819.4697	0.0077
819.638	0.008
819.8064	0.0079
819.9747	-0.0007
820.143	0.0055
820.3113	-0.0107
820.4795	0.015
820.6477	0.007
820.816	0.0004
820.9842	0.0275
821.1523	-0.0152
821.3205	-0.0298
821.4886	-0.0071
821.6567	-0.006
821.8248	0.0066
821.9929	0.0148
822.1609	-0.0093
822.329	0.0015
822.497	0.01
822.665	-0.0035
822.833	-0.0057
823.0009	0.0172
823.1688	0.0224
823.3367	0.0109
823.5046	0.0208
823.6725	0.0203
823.8404	-0.0124
824.0082	0.0354
824.176	0.0145
824.3438	0.0142
824.5116	-0.0095
824.6793	0.0254
824.847	-0.0012
825.0147	-0.0264
825.1824	0.0092
825.3501	0.0048
825.5177	-0.0225
825.6854	-0.0339
825.853	-0.0107
826.0206	-0.0336
826.1881	0.0009
826.3557	-0.0093
826.5232	-0.0073
826.6907	-0.0146
826.8582	-0.0085
827.0257	-0.0341
827.1931	-0.0202
827.3605	-0.0089
827.528	0.0094
827.6953	-0.0606
827.8627	-0.0349
828.03	0.0063
828.1974	0.0048
828.3647	-0.0685
828.532	-0.0019
828.6992	-0.0034
828.8665	-0.0177
829.0337	-0.0025
829.2009	0.0184
829.3681	0.0041
829.5352	0.0507
829.7024	-0.0132
829.8695	0.016
830.0366	0.0264
830.2037	-0.003
830.3707	0.0025
830.5378	-0.0037
830.7048	0
830.8718	0.0039
831.0388	-0.0118
831.2057	0.007
831.3727	0.0269
831.5396	0.0035
831.7065	-0.004
831.8734	0.0011
832.0402	-0.0242
832.2071	-0.0278
832.3739	-0.0239
832.5407	-0.0175
832.7075	0.0291
832.8742	-0.0126
833.041	-0.0245
833.2077	0.0081
833.3744	0.048
833.541	-0.0047
833.7077	-0.0147
833.8743	-0.0223
834.0409	-0.0018
834.2075	-0.0216
834.3741	-0.0366
834.5407	0.0052
834.7072	0.0182
834.8737	-0.047
835.0402	-0.0304
835.2067	0.033
835.3731	0.0027
835.5395	-0.0126
835.706	-0.0025
835.8723	-0.0305
836.0387	0.0215
836.2051	0.0001
836.3714	0.0196
836.5377	-0.0095
836.704	-0.0433
836.8703	-0.0076
837.0365	0.0074
837.2027	-0.039
837.3689	0.0444
837.5351	-0.0331
837.7013	-0.0366
837.8674	-0.0376
838.0335	0.0061
838.1997	-0.0613
838.3657	-0.0146
838.5318	-0.015
838.6978	0.0416
838.8639	0.0648
839.0299	-0.0449
839.1958	-0.0508
839.3618	0.0238
839.5277	-0.02
839.6937	-0.0279
839.8596	-0.0071
840.0254	-0.0225
840.1913	0.0059
840.3571	0.0328
840.523	0.0143
840.6888	-0.0254
840.8545	-0.035
841.0203	0.0062
841.186	0.0321
841.3517	0.0249
841.5174	0.0143
841.6831	-0.012
841.8488	-0.0141
842.0144	-0.0036
842.18	-0.007
842.3456	-0.0018
842.5112	-0.0387
842.6767	-0.0173
842.8422	-0.0407
843.0077	-0.0504
843.1732	-0.0125
843.3387	0.0047
843.5042	-0.008
843.6696	-0.0413
843.835	0.0155
844.0004	0.0905
844.1657	-0.0059
844.3311	0.0066
844.4964	-0.0918
844.6617	-0.0184
844.827	0.0095
844.9923	-0.0101
845.1575	-0.0287
845.3227	-0.0034
845.4879	0.008
845.6531	-0.0914
845.8183	-0.0869
845.9834	-0.0625
846.1485	-0.0253
846.3136	-0.0679
846.4787	-0.0767
846.6438	0.0899
846.8088	-0.0543
846.9738	-0.0936
847.1388	-0.0541
847.3038	-0.0657
847.4687	-0.1059
847.6337	0.0338
847.7986	0.0028
847.9635	-0.0129
848.1284	-0.008
848.2932	0.0796
848.458	-0.0116
848.6228	0.0485
848.7876	0.0768
848.9524	-0.0378
849.1172	-0.0911
849.2819	0.01
849.4466	-0.106
849.6113	-0.0808
849.7759	-0.0454
849.9406	-0.0117
850.1052	0.0211
850.2698	-0.0431
850.4344	-0.0499
850.599	-0.0721
850.7635	0.0446
850.928	-0.0797
851.0925	-0.0037
851.257	-0.0138
851.4215	-0.0103
851.5859	-0.0356
851.7503	-0.0194
851.9147	0.0118
852.0791	-0.1052
852.2434	-0.0238
852.4078	0.1195
852.5721	0.0515
852.7364	-0.0443
852.9007	-0.142
853.0649	-0.0392
853.2291	-0.0023
853.3934	-0.0892
853.5575	0.0289
853.7217	-0.1342
853.8859	-0.262
854.05	-0.1071
854.2141	-0.0626
854.3782	-0.0983
854.5423	-0.1273
854.7063	0.0558
854.8703	0.0626
855.0343	0.0502
855.1983	-0.0239
855.3623	0.115
855.5262	-0.0515
855.6901	-0.0525
855.854	0.0671
856.0179	0.0469
856.1818	0.1203
856.3456	-0.0131
856.5094	-0.2068
856.6732	-0.0212
856.837	-0.0069
857.0008	0.1085
857.1645	-0.0291
857.3282	-0.1549
857.4919	0.236
857.6556	0.0861
857.8192	0.017
857.9828	0.0147
858.1465	0.0122
858.31	-0.1631
858.4736	0.0408
858.6372	0.4765
858.8007	-0.2717
858.9642	0.222
859.1277	0.2162
859.2911	0.1283
859.4546	-0.0897
859.618	-0.3346
859.7814	0.0105
859.9448	0.0272
860.1081	0.215
860.2715	0.1208
860.4348	0.154
860.5981	-0.1756
860.7614	0.2188
860.9246	-0.2147
861.0879	-0.0961
861.2511	0.0925
861.4143	0.1661
861.5774	0.2035
861.7406	-0.027
861.9037	-0.0341
862.0668	0.4323
862.2299	0.0544
862.393	-0.493
862.556	-0.0974
862.7191	-0.3546
862.8821	-0.2655
863.0451	0.366
863.208	0.013
863.371	-0.0381
863.5339	0.0892
863.6968	-0.1042
863.8597	0.0244
864.0225	0.0005
864.1854	0.0586
864.3482	-0.0658
864.511	0.0466
864.6737	-0.0663
864.8365	0.0827
864.9992	0.2311
865.1619	-0.4289
865.3246	0.301
865.4873	0.1666
865.65	-0
865.8126	-0.1396
865.9752	0.0972
866.1378	0.3798
866.3004	0.061
866.4629	0.4768
866.6254	-0.2925
866.7879	-0.3584
866.9504	-0.4193
867.1129	-0
867.2753	0.0076
867.4377	0.172
867.6001	-0.4116
867.7625	0.0447
867.9249	-0.6453
868.0872	-0.1326
868.2495	0.1018
868.4118	-0.2991
868.5741	-0.6558
868.7363	0.3482
868.8986	-0.104
869.0608	-0.2193
869.223	0.1404
869.3851	-0
869.5473	-0
869.7094	0.0897
869.8715	-0.5068
870.0336	-0
870.1957	-0.5501
870.3577	-0.3297
870.5197	0.0561
870.6817	1.0069
870.8437	0.1143
871.0057	-0.6952
871.1676	-0
871.3295	-0
871.4914	-0
871.6533	-0.3828
871.8151	-0.405
871.977	-0
872.1388	0.8112
872.3006	-0.0352
872.4623	-0
872.6241	0.385
872.7858	0.5998
872.9475	-0.179
873.1092	0.2873
873.2709	0.0019
873.4325	-0.1869
873.5941	-0.1846
873.7557	-0
873.9173	-0
874.0789	-0.1306
874.2404	0.2443
874.4019	0.6468
874.5634	-0.3182
874.7249	0.06
874.8863	0.0009
875.0478	-0
875.2092	-0
875.3706	0.861
875.5319	-1.1069
875.6933	-0
875.8546	-0.3311
876.0159	0.1237
876.1772	-0
876.3385	-0
876.4997	0.2603
876.6609	-0.2645
876.8221	-0.0033
876.9833	1.2717
877.1445	0.1615
877.3056	-0.1138
877.4667	-0.3996
877.6278	0.6583
877.7889	-0.952
877.9499	-0.3876
878.111	-0.7352
878.272	-0.687
878.433	-0.1089
878.5939	-0
878.7549	-0.0447
878.9158	-0.8319
879.0767	-0.0155
879.2376	-0
879.3984	-0.2435
879.5593	-0
879.7201	-0.2416
879.8809	-0.1713
880.0417	-0.1632
880.2024	0.1134
880.3632	-0.1532
880.5239	0.167
880.6846	0.0011
880.8452	-2.4778
881.0059	-1.1903
881.1665	-0
881.3271	-0.078
881.4877	-0
881.6483	-0.3589
881.8088	0.2089
881.9693	-0
882.1298	-0
882.2903	-0
