Data from MonoPyChalIsomerACN10uM350nmA_Absorbance_14-35-33-015.txt Node
Date: Fri Jul 05 14:35:33 BST 2024
User: LASERRRRR
Spectrometer: FLMT03099
Trigger mode: 0
Integration Time (sec): 1.000000E-1
Scans to average: 1
Electric dark correction enabled: true
Nonlinearity correction enabled: false
Boxcar width: 0
XAxis mode: Wavelengths
Number of Pixels in Spectrum: 3648
>>>>>Begin Spectral Data<<<<<
179.3399	-0.1835
179.5586	-0.1835
179.7771	-0.1835
179.9957	0.0367
180.2143	-0
180.4329	-0.3032
180.6514	-0
180.8699	-0
181.0885	0.6674
181.307	0.3374
181.5255	-0
181.744	-0.7719
181.9625	-0
182.181	-0
182.3994	-0
182.6179	-0
182.8363	0.0758
183.0547	-0.3452
183.2732	-0.0363
183.4916	0.1252
183.71	0.3335
183.9284	0.5297
184.1467	-0.1318
184.3651	0.0536
184.5835	0.0165
184.8018	-0.0298
185.0201	0.0549
185.2385	0.1004
185.4568	0.3253
185.6751	0.1635
185.8934	0.4605
186.1117	-0.0053
186.3299	0.0444
186.5482	0.2585
186.7664	-0.1031
186.9847	0.0887
187.2029	0.0504
187.4211	0.0247
187.6393	0.3514
187.8575	0.0475
188.0757	0.3532
188.2939	0.1251
188.512	0.9153
188.7302	0.1253
188.9483	0.1296
189.1665	0.2359
189.3846	0.3697
189.6027	0.1344
189.8208	0.1898
190.0389	0.0578
190.257	0.3481
190.475	0.2258
190.6931	0.4984
190.9111	1.0436
191.1292	0.2567
191.3472	0.3489
191.5652	0.2167
191.7832	0.3037
192.0012	0.4695
192.2192	0.3619
192.4371	0.6886
192.6551	0.4617
192.873	0.4506
193.091	0.4133
193.3089	0.6587
193.5268	0.5344
193.7447	0.6044
193.9626	0.7789
194.1805	0.7594
194.3984	0.6665
194.6162	0.4882
194.8341	0.4704
195.0519	0.4623
195.2697	0.779
195.4875	0.5821
195.7054	0.5501
195.9231	0.5535
196.1409	0.7311
196.3587	0.5948
196.5765	0.5428
196.7942	0.558
197.012	0.5446
197.2297	0.6597
197.4474	0.4933
197.6651	0.6849
197.8828	0.5862
198.1005	0.6569
198.3182	0.7051
198.5358	0.7268
198.7535	0.6368
198.9711	0.5912
199.1888	0.5803
199.4064	1.1685
199.624	0.5931
199.8416	0.5273
200.0592	0.7006
200.2767	0.8156
200.4943	0.6231
200.7119	0.7996
200.9294	0.7578
201.1469	0.6321
201.3645	0.5517
201.582	0.5799
201.7995	0.5954
202.017	0.6638
202.2344	0.6054
202.4519	0.6841
202.6694	0.6613
202.8868	0.6479
203.1042	0.7741
203.3217	0.6355
203.5391	0.602
203.7565	0.6492
203.9739	0.7146
204.1913	0.5865
204.4086	0.6126
204.626	0.7558
204.8433	0.6728
205.0607	0.6111
205.278	0.5971
205.4953	0.5935
205.7126	0.6229
205.9299	0.7179
206.1472	0.8089
206.3644	0.6416
206.5817	0.6936
206.7989	0.7555
207.0162	0.6235
207.2334	0.6995
207.4506	0.6397
207.6678	0.7178
207.885	0.6709
208.1022	0.6353
208.3194	0.6354
208.5365	0.6931
208.7537	0.6196
208.9708	0.601
209.1879	0.679
209.405	0.7292
209.6222	0.6874
209.8392	0.6766
210.0563	0.6469
210.2734	0.6666
210.4905	0.6257
210.7075	0.6703
210.9245	0.6498
211.1416	0.7452
211.3586	0.6912
211.5756	0.5854
211.7926	0.6029
212.0096	0.5836
212.2265	0.5273
212.4435	0.5716
212.6604	0.6098
212.8774	0.5912
213.0943	0.6794
213.3112	0.5805
213.5281	0.5459
213.745	0.4575
213.9619	0.5259
214.1788	0.4469
214.3956	0.4813
214.6125	0.4694
214.8293	0.4715
215.0461	0.4905
215.2629	0.4719
215.4798	0.4878
215.6965	0.4139
215.9133	0.4223
216.1301	0.4193
216.3469	0.4408
216.5636	0.4384
216.7803	0.4036
216.9971	0.4098
217.2138	0.4038
217.4305	0.3792
217.6472	0.362
217.8639	0.3925
218.0805	0.3616
218.2972	0.3241
218.5138	0.3069
218.7305	0.3383
218.9471	0.311
219.1637	0.2926
219.3803	0.3032
219.5969	0.2718
219.8135	0.2485
220.0301	0.2754
220.2466	0.2789
220.4632	0.2807
220.6797	0.2449
220.8962	0.2289
221.1127	0.2598
221.3292	0.2584
221.5457	0.2505
221.7622	0.2391
221.9787	0.266
222.1951	0.2338
222.4116	0.2678
222.628	0.2594
222.8444	0.2554
223.0608	0.2611
223.2772	0.2754
223.4936	0.2789
223.71	0.254
223.9264	0.2836
224.1427	0.2629
224.3591	0.2366
224.5754	0.2713
224.7917	0.2682
225.008	0.2621
225.2243	0.2552
225.4406	0.2831
225.6569	0.2623
225.8732	0.2475
226.0894	0.2711
226.3057	0.2744
226.5219	0.2898
226.7381	0.2615
226.9543	0.2825
227.1705	0.3133
227.3867	0.2804
227.6029	0.3047
227.8191	0.3016
228.0352	0.3003
228.2513	0.3247
228.4675	0.316
228.6836	0.3141
228.8997	0.3015
229.1158	0.3063
229.3319	0.3088
229.548	0.3017
229.764	0.3469
229.9801	0.3238
230.1961	0.331
230.4121	0.3235
230.6282	0.3343
230.8442	0.3356
231.0602	0.3523
231.2761	0.3507
231.4921	0.3673
231.7081	0.3466
231.924	0.3453
232.14	0.3618
232.3559	0.3498
232.5718	0.3446
232.7877	0.3543
233.0036	0.3457
233.2195	0.3593
233.4353	0.3628
233.6512	0.3705
233.867	0.3616
234.0829	0.3664
234.2987	0.3707
234.5145	0.378
234.7303	0.3857
234.9461	0.3929
235.1619	0.379
235.3776	0.3715
235.5934	0.3902
235.8091	0.3488
236.0249	0.3925
236.2406	0.3933
236.4563	0.3961
236.672	0.4089
236.8877	0.3913
237.1034	0.3955
237.319	0.3906
237.5347	0.396
237.7503	0.3939
237.966	0.3989
238.1816	0.4073
238.3972	0.3971
238.6128	0.3951
238.8284	0.4107
239.0439	0.4163
239.2595	0.3972
239.475	0.3998
239.6906	0.401
239.9061	0.4169
240.1216	0.3944
240.3371	0.4241
240.5526	0.3962
240.7681	0.4332
240.9836	0.3875
241.199	0.412
241.4145	0.3801
241.6299	0.3609
241.8453	0.367
242.0607	0.3654
242.2761	0.3661
242.4915	0.3624
242.7069	0.342
242.9223	0.3464
243.1376	0.3395
243.353	0.3532
243.5683	0.3352
243.7836	0.3278
243.9989	0.326
244.2142	0.3133
244.4295	0.3114
244.6448	0.2977
244.86	0.2913
245.0753	0.2802
245.2905	0.2824
245.5057	0.276
245.721	0.2634
245.9362	0.2688
246.1514	0.2851
246.3665	0.2549
246.5817	0.252
246.7969	0.252
247.012	0.2507
247.2271	0.2324
247.4423	0.2446
247.6574	0.2378
247.8725	0.2358
248.0876	0.2199
248.3026	0.2275
248.5177	0.2212
248.7328	0.2116
248.9478	0.2037
249.1628	0.2088
249.3779	0.2027
249.5929	0.1954
249.8079	0.2225
250.0228	0.2017
250.2378	0.199
250.4528	0.2049
250.6677	0.188
250.8827	0.1985
251.0976	0.1901
251.3125	0.1801
251.5274	0.1842
251.7423	0.1843
251.9572	0.1892
252.172	0.1756
252.3869	0.1794
252.6017	0.1768
252.8166	0.1668
253.0314	0.169
253.2462	0.1623
253.461	0.1726
253.6758	0.1631
253.8906	0.1788
254.1053	0.1591
254.3201	0.1689
254.5348	0.1704
254.7496	0.1788
254.9643	0.1681
255.179	0.1704
255.3937	0.1591
255.6083	0.1736
255.823	0.1727
256.0377	0.1554
256.2523	0.1676
256.467	0.1593
256.6816	0.1662
256.8962	0.1771
257.1108	0.1617
257.3254	0.1757
257.54	0.1536
257.7545	0.1667
257.9691	0.1633
258.1836	0.1567
258.3981	0.1766
258.6127	0.1695
258.8272	0.1652
259.0417	0.1601
259.2561	0.1559
259.4706	0.1797
259.6851	0.1686
259.8995	0.1568
260.114	0.1608
260.3284	0.1552
260.5428	0.1483
260.7572	0.1664
260.9716	0.149
261.186	0.1561
261.4003	0.1678
261.6147	0.1678
261.829	0.1677
262.0433	0.1614
262.2577	0.1705
262.472	0.1699
262.6863	0.1497
262.9005	0.1715
263.1148	0.1604
263.3291	0.1461
263.5433	0.1705
263.7576	0.1661
263.9718	0.1608
264.186	0.1635
264.4002	0.161
264.6144	0.1519
264.8286	0.1646
265.0427	0.1643
265.2569	0.1588
265.471	0.1553
265.6851	0.1635
265.8993	0.1605
266.1134	0.1526
266.3275	0.1633
266.5415	0.1559
266.7556	0.1671
266.9697	0.1577
267.1837	0.1543
267.3978	0.16
267.6118	0.1639
267.8258	0.1635
268.0398	0.1496
268.2538	0.1636
268.4677	0.1578
268.6817	0.149
268.8957	0.1472
269.1096	0.1551
269.3235	0.164
269.5374	0.1463
269.7514	0.1414
269.9652	0.1394
270.1791	0.1419
270.393	0.1412
270.6068	0.1451
270.8207	0.1507
271.0345	0.133
271.2483	0.1525
271.4622	0.1386
271.676	0.1611
271.8897	0.1428
272.1035	0.1445
272.3173	0.136
272.531	0.1441
272.7448	0.14
272.9585	0.127
273.1722	0.1337
273.3859	0.146
273.5996	0.1369
273.8133	0.1312
274.0269	0.1207
274.2406	0.1257
274.4542	0.1294
274.6679	0.1286
274.8815	0.1483
275.0951	0.1407
275.3087	0.1392
275.5223	0.1424
275.7358	0.139
275.9494	0.133
276.1629	0.1353
276.3765	0.1355
276.59	0.142
276.8035	0.1361
277.017	0.1405
277.2305	0.1282
277.444	0.1422
277.6574	0.1367
277.8709	0.1487
278.0843	0.1402
278.2978	0.1381
278.5112	0.1451
278.7246	0.1353
278.938	0.1397
279.1513	0.146
279.3647	0.1457
279.5781	0.1378
279.7914	0.1369
280.0047	0.1466
280.2181	0.1375
280.4314	0.1465
280.6447	0.1443
280.8579	0.1399
281.0712	0.1509
281.2845	0.1448
281.4977	0.1442
281.711	0.1319
281.9242	0.1495
282.1374	0.1498
282.3506	0.1558
282.5638	0.152
282.7769	0.1442
282.9901	0.1381
283.2033	0.15
283.4164	0.1519
283.6295	0.1444
283.8426	0.1367
284.0557	0.1552
284.2688	0.157
284.4819	0.1645
284.695	0.1529
284.908	0.1556
285.1211	0.1488
285.3341	0.1513
285.5471	0.1509
285.7601	0.1452
285.9731	0.1456
286.1861	0.1543
286.3991	0.16
286.612	0.1644
286.825	0.1624
287.0379	0.1699
287.2508	0.1525
287.4637	0.1653
287.6766	0.1543
287.8895	0.1624
288.1024	0.1813
288.3152	0.1654
288.5281	0.1632
288.7409	0.1709
288.9538	0.1579
289.1666	0.1606
289.3794	0.1745
289.5922	0.1535
289.8049	0.1723
290.0177	0.16
290.2304	0.1651
290.4432	0.1571
290.6559	0.1661
290.8686	0.1658
291.0813	0.1585
291.294	0.1721
291.5067	0.1754
291.7194	0.173
291.932	0.1799
292.1447	0.1639
292.3573	0.1706
292.5699	0.1701
292.7825	0.1589
292.9951	0.1646
293.2077	0.1574
293.4203	0.1771
293.6328	0.1531
293.8454	0.1727
294.0579	0.1732
294.2704	0.1667
294.4829	0.154
294.6954	0.1658
294.9079	0.1766
295.1204	0.1651
295.3328	0.1653
295.5453	0.167
295.7577	0.1659
295.9701	0.1596
296.1825	0.1639
296.3949	0.159
296.6073	0.1701
296.8197	0.1627
297.0321	0.1736
297.2444	0.1695
297.4567	0.1641
297.6691	0.1656
297.8814	0.1691
298.0937	0.1638
298.306	0.1591
298.5182	0.1669
298.7305	0.1825
298.9428	0.1639
299.155	0.1663
299.3672	0.1661
299.5794	0.1677
299.7916	0.1666
300.0038	0.1725
300.216	0.1707
300.4282	0.1664
300.6403	0.1626
300.8525	0.1744
301.0646	0.1618
301.2767	0.1693
301.4888	0.1692
301.7009	0.1715
301.913	0.1647
302.125	0.173
302.3371	0.1614
302.5491	0.1712
302.7612	0.1754
302.9732	0.1665
303.1852	0.171
303.3972	0.1689
303.6092	0.163
303.8211	0.1647
304.0331	0.1595
304.245	0.1571
304.457	0.1576
304.6689	0.1578
304.8808	0.1675
305.0927	0.1471
305.3046	0.156
305.5164	0.1599
305.7283	0.1439
305.9401	0.1574
306.152	0.1524
306.3638	0.1476
306.5756	0.1448
306.7874	0.1545
306.9992	0.142
307.2109	0.1493
307.4227	0.1308
307.6344	0.1496
307.8462	0.1431
308.0579	0.1281
308.2696	0.1272
308.4813	0.1339
308.693	0.1355
308.9046	0.1369
309.1163	0.137
309.328	0.1278
309.5396	0.1236
309.7512	0.1175
309.9628	0.1257
310.1744	0.1221
310.386	0.1201
310.5976	0.1181
310.8091	0.1258
311.0207	0.1169
311.2322	0.1186
311.4437	0.1081
311.6552	0.1191
311.8667	0.1137
312.0782	0.0943
312.2897	0.0996
312.5012	0.1016
312.7126	0.1057
312.924	0.0961
313.1355	0.1128
313.3469	0.1099
313.5583	0.119
313.7696	0.1041
313.981	0.1118
314.1924	0.0955
314.4037	0.1023
314.6151	0.1075
314.8264	0.0978
315.0377	0.097
315.249	0.1038
315.4603	0.1018
315.6716	0.1039
315.8828	0.1027
316.0941	0.0933
316.3053	0.0896
316.5165	0.0872
316.7277	0.0827
316.9389	0.1029
317.1501	0.086
317.3613	0.1054
317.5724	0.0938
317.7836	0.0941
317.9947	0.0921
318.2058	0.1018
318.417	0.0859
318.6281	0.0818
318.8391	0.0889
319.0502	0.0953
319.2613	0.0902
319.4723	0.0896
319.6834	0.0916
319.8944	0.076
320.1054	0.094
320.3164	0.0916
320.5274	0.0886
320.7383	0.0934
320.9493	0.0965
321.1602	0.1093
321.3712	0.0881
321.5821	0.0962
321.793	0.0989
322.0039	0.087
322.2148	0.0887
322.4257	0.1011
322.6365	0.0989
322.8474	0.1049
323.0582	0.0821
323.269	0.0932
323.4798	0.1042
323.6906	0.0899
323.9014	0.0929
324.1122	0.0914
324.3229	0.092
324.5337	0.0827
324.7444	0.0896
324.9551	0.1062
325.1658	0.1059
325.3765	0.098
325.5872	0.1015
325.7979	0.0981
326.0085	0.0955
326.2192	0.1092
326.4298	0.0915
326.6404	0.0894
326.851	0.081
327.0616	0.0891
327.2722	0.094
327.4828	0.1036
327.6933	0.102
327.9039	0.1048
328.1144	0.1138
328.3249	0.1028
328.5354	0.094
328.7459	0.1027
328.9564	0.0951
329.1669	0.101
329.3773	0.0933
329.5878	0.1052
329.7982	0.0987
330.0086	0.085
330.219	0.0964
330.4294	0.1021
330.6398	0.0907
330.8502	0.0852
331.0605	0.0996
331.2708	0.1
331.4812	0.1097
331.6915	0.1094
331.9018	0.0956
332.1121	0.102
332.3224	0.103
332.5326	0.1068
332.7429	0.1008
332.9531	0.1116
333.1633	0.1025
333.3735	0.0999
333.5837	0.1006
333.7939	0.0992
334.0041	0.1057
334.2143	0.1109
334.4244	0.1019
334.6346	0.086
334.8447	0.1046
335.0548	0.1044
335.2649	0.0924
335.475	0.1205
335.685	0.1052
335.8951	0.1122
336.1051	0.1045
336.3152	0.1088
336.5252	0.0955
336.7352	0.1131
336.9452	0.1068
337.1552	0.1148
337.3652	0.1077
337.5751	0.111
337.7851	0.1131
337.995	0.0909
338.2049	0.1024
338.4148	0.1023
338.6247	0.1171
338.8346	0.0929
339.0445	0.0916
339.2543	0.099
339.4642	0.1054
339.674	0.1008
339.8838	0.1087
340.0936	0.1206
340.3034	0.1132
340.5132	0.1205
340.7229	0.1082
340.9327	0.1097
341.1424	0.1041
341.3522	0.1277
341.5619	0.1244
341.7716	0.1119
341.9813	0.1107
342.1909	0.1222
342.4006	0.117
342.6102	0.1163
342.8199	0.1173
343.0295	0.1213
343.2391	0.1155
343.4487	0.1151
343.6583	0.1201
343.8679	0.1205
344.0774	0.1215
344.287	0.1235
344.4965	0.1198
344.706	0.1261
344.9155	0.1187
345.125	0.1269
345.3345	0.1247
345.544	0.121
345.7534	0.1142
345.9629	0.117
346.1723	0.1199
346.3817	0.1172
346.5911	0.1146
346.8005	0.1246
347.0099	0.121
347.2193	0.1267
347.4286	0.1148
347.638	0.138
347.8473	0.1279
348.0566	0.1222
348.2659	0.146
348.4752	0.1389
348.6845	0.1233
348.8937	0.1261
349.103	0.1429
349.3122	0.1258
349.5214	0.1127
349.7306	0.1405
349.9398	0.1306
350.149	0.1355
350.3582	0.1334
350.5674	0.1459
350.7765	0.131
350.9856	0.1431
351.1948	0.1316
351.4039	0.1169
351.613	0.1308
351.822	0.1415
352.0311	0.1425
352.2402	0.1493
352.4492	0.1484
352.6582	0.1424
352.8672	0.1396
353.0762	0.1525
353.2852	0.1505
353.4942	0.1375
353.7032	0.1432
353.9121	0.148
354.1211	0.1555
354.33	0.1602
354.5389	0.154
354.7478	0.1434
354.9567	0.1548
355.1655	0.1355
355.3744	0.1506
355.5833	0.1592
355.7921	0.1562
356.0009	0.1532
356.2097	0.1742
356.4185	0.1612
356.6273	0.1538
356.8361	0.1628
357.0448	0.1556
357.2536	0.1547
357.4623	0.1737
357.671	0.1793
357.8797	0.1669
358.0884	0.1754
358.2971	0.1677
358.5057	0.1661
358.7144	0.1714
358.923	0.1705
359.1316	0.164
359.3402	0.1628
359.5488	0.1656
359.7574	0.159
359.966	0.1929
360.1746	0.1844
360.3831	0.1887
360.5916	0.1689
360.8002	0.1771
361.0087	0.1955
361.2172	0.1814
361.4256	0.1753
361.6341	0.1938
361.8426	0.1918
362.051	0.1865
362.2594	0.1843
362.4678	0.1725
362.6762	0.1971
362.8846	0.1893
363.093	0.1821
363.3014	0.1898
363.5097	0.1727
363.718	0.1875
363.9264	0.189
364.1347	0.1873
364.343	0.1985
364.5513	0.1978
364.7595	0.2003
364.9678	0.204
365.176	0.1982
365.3842	0.1918
365.5925	0.2019
365.8007	0.211
366.0089	0.1911
366.217	0.1886
366.4252	0.1939
366.6333	0.201
366.8415	0.2108
367.0496	0.1943
367.2577	0.2174
367.4658	0.217
367.6739	0.2137
367.882	0.2163
368.09	0.2177
368.2981	0.2334
368.5061	0.2019
368.7141	0.2194
368.9221	0.2214
369.1301	0.2179
369.3381	0.222
369.5461	0.2214
369.754	0.2121
369.962	0.2195
370.1699	0.2234
370.3778	0.2334
370.5857	0.2124
370.7936	0.2343
371.0015	0.2201
371.2093	0.2233
371.4172	0.2296
371.625	0.2251
371.8328	0.2246
372.0406	0.2269
372.2484	0.218
372.4562	0.2233
372.664	0.225
372.8717	0.2337
373.0795	0.2096
373.2872	0.2476
373.4949	0.2268
373.7026	0.2409
373.9103	0.238
374.118	0.2505
374.3256	0.2385
374.5333	0.2448
374.7409	0.2128
374.9485	0.242
375.1561	0.24
375.3637	0.2654
375.5713	0.2429
375.7789	0.2373
375.9864	0.2489
376.194	0.219
376.4015	0.2542
376.609	0.2563
376.8165	0.2542
377.024	0.2498
377.2315	0.2459
377.4389	0.2697
377.6464	0.2757
377.8538	0.2476
378.0612	0.2294
378.2686	0.2596
378.476	0.2744
378.6834	0.2641
378.8908	0.2757
379.0981	0.2679
379.3055	0.2387
379.5128	0.2338
379.7201	0.2596
379.9274	0.2579
380.1347	0.2545
380.342	0.2526
380.5492	0.2537
380.7565	0.2683
380.9637	0.2657
381.1709	0.2671
381.3781	0.2627
381.5853	0.2803
381.7925	0.2722
381.9997	0.2651
382.2068	0.2751
382.4139	0.2743
382.6211	0.2471
382.8282	0.2491
383.0353	0.2646
383.2424	0.2707
383.4494	0.2793
383.6565	0.2662
383.8635	0.2514
384.0706	0.2696
384.2776	0.2794
384.4846	0.2472
384.6916	0.2796
384.8986	0.2584
385.1055	0.2697
385.3125	0.2769
385.5194	0.247
385.7263	0.2911
385.9333	0.264
386.1402	0.2571
386.347	0.2656
386.5539	0.2718
386.7608	0.2813
386.9676	0.2637
387.1744	0.2648
387.3813	0.2532
387.5881	0.267
387.7948	0.2535
388.0016	0.2655
388.2084	0.2606
388.4151	0.2624
388.6219	0.2635
388.8286	0.267
389.0353	0.269
389.242	0.2814
389.4487	0.2546
389.6553	0.2533
389.862	0.2373
390.0686	0.2602
390.2753	0.2625
390.4819	0.2573
390.6885	0.2606
390.8951	0.2569
391.1016	0.2552
391.3082	0.2532
391.5147	0.2649
391.7213	0.2797
391.9278	0.2473
392.1343	0.2366
392.3408	0.2564
392.5473	0.2403
392.7537	0.2398
392.9602	0.2334
393.1666	0.2505
393.373	0.2445
393.5794	0.2496
393.7858	0.24
393.9922	0.2386
394.1986	0.2489
394.4049	0.2628
394.6113	0.2554
394.8176	0.2258
395.0239	0.2266
395.2302	0.2379
395.4365	0.2267
395.6428	0.2311
395.8491	0.2369
396.0553	0.2325
396.2615	0.2501
396.4678	0.2423
396.674	0.2381
396.8802	0.2335
397.0863	0.2564
397.2925	0.2264
397.4987	0.2272
397.7048	0.2279
397.9109	0.2334
398.117	0.2254
398.3231	0.2215
398.5292	0.2322
398.7353	0.2189
398.9413	0.2298
399.1474	0.2205
399.3534	0.2345
399.5594	0.2242
399.7654	0.2215
399.9714	0.2382
400.1774	0.2209
400.3833	0.2073
400.5893	0.2338
400.7952	0.2248
401.0011	0.2328
401.207	0.2219
401.4129	0.2184
401.6188	0.2304
401.8247	0.241
402.0305	0.2243
402.2364	0.2249
402.4422	0.2311
402.648	0.2388
402.8538	0.2447
403.0596	0.2277
403.2654	0.2357
403.4711	0.2279
403.6768	0.2142
403.8826	0.2453
404.0883	0.2258
404.294	0.2306
404.4997	0.2177
404.7054	0.2341
404.911	0.2206
405.1167	0.2316
405.3223	0.2315
405.5279	0.2387
405.7335	0.2406
405.9391	0.213
406.1447	0.2174
406.3502	0.2452
406.5558	0.2103
406.7613	0.2399
406.9668	0.2159
407.1724	0.2104
407.3778	0.2156
407.5833	0.1999
407.7888	0.2327
407.9942	0.2456
408.1997	0.219
408.4051	0.2044
408.6105	0.2278
408.8159	0.2107
409.0213	0.2243
409.2267	0.2463
409.432	0.2142
409.6374	0.2284
409.8427	0.2058
410.048	0.2265
410.2533	0.2195
410.4586	0.2328
410.6639	0.204
410.8691	0.22
411.0744	0.2253
411.2796	0.206
411.4848	0.2122
411.69	0.2247
411.8952	0.2337
412.1004	0.2167
412.3056	0.2201
412.5107	0.2283
412.7158	0.2461
412.921	0.2284
413.1261	0.2281
413.3312	0.2214
413.5362	0.2039
413.7413	0.22
413.9464	0.2042
414.1514	0.2208
414.3564	0.2125
414.5614	0.216
414.7664	0.195
414.9714	0.2114
415.1764	0.2296
415.3813	0.2348
415.5863	0.2214
415.7912	0.2297
415.9961	0.2204
416.201	0.219
416.4059	0.2246
416.6108	0.2247
416.8156	0.216
417.0205	0.2198
417.2253	0.205
417.4301	0.2187
417.6349	0.209
417.8397	0.2171
418.0445	0.2297
418.2492	0.2213
418.454	0.1932
418.6587	0.2021
418.8634	0.1989
419.0681	0.1976
419.2728	0.219
419.4775	0.2103
419.6822	0.1967
419.8868	0.2067
420.0915	0.2072
420.2961	0.1971
420.5007	0.2051
420.7053	0.2181
420.9099	0.1998
421.1144	0.2005
421.319	0.2048
421.5235	0.1971
421.728	0.2124
421.9325	0.2009
422.137	0.2111
422.3415	0.2049
422.546	0.2084
422.7504	0.2149
422.9549	0.211
423.1593	0.2018
423.3637	0.2135
423.5681	0.1727
423.7725	0.1897
423.9769	0.2008
424.1812	0.1756
424.3856	0.2121
424.5899	0.204
424.7942	0.1899
424.9985	0.2
425.2028	0.1866
425.4071	0.2
425.6113	0.1697
425.8156	0.1915
426.0198	0.1844
426.224	0.178
426.4282	0.1836
426.6324	0.1871
426.8366	0.1714
427.0407	0.1792
427.2449	0.182
427.449	0.1707
427.6531	0.1563
427.8572	0.1497
428.0613	0.1788
428.2654	0.1656
428.4694	0.1488
428.6735	0.1774
428.8775	0.175
429.0815	0.1661
429.2855	0.1529
429.4895	0.1681
429.6935	0.1573
429.8975	0.1629
430.1014	0.1576
430.3053	0.1318
430.5093	0.1692
430.7132	0.1408
430.9171	0.1429
431.1209	0.1491
431.3248	0.1442
431.5286	0.1495
431.7325	0.1585
431.9363	0.1346
432.1401	0.1405
432.3439	0.1492
432.5477	0.1183
432.7514	0.1362
432.9552	0.1486
433.1589	0.1321
433.3627	0.1355
433.5664	0.1386
433.7701	0.1228
433.9737	0.1069
434.1774	0.1114
434.3811	0.1226
434.5847	0.1423
434.7883	0.1355
434.9919	0.1211
435.1955	0.126
435.3991	0.1206
435.6027	0.1164
435.8062	0.1097
436.0098	0.1052
436.2133	0.1072
436.4168	0.0922
436.6203	0.1044
436.8238	0.1046
437.0272	0.0943
437.2307	0.1119
437.4341	0.1074
437.6375	0.1078
437.841	0.0906
438.0443	0.1062
438.2477	0.0965
438.4511	0.0919
438.6545	0.0971
438.8578	0.0984
439.0611	0.0977
439.2644	0.0968
439.4677	0.0812
439.671	0.0924
439.8743	0.0794
440.0775	0.1001
440.2808	0.085
440.484	0.0794
440.6872	0.0713
440.8904	0.0667
441.0936	0.0965
441.2967	0.083
441.4999	0.0839
441.703	0.0714
441.9062	0.0736
442.1093	0.0651
442.3124	0.0776
442.5155	0.052
442.7185	0.0616
442.9216	0.0491
443.1246	0.0798
443.3276	0.0567
443.5307	0.0596
443.7337	0.0625
443.9366	0.0669
444.1396	0.0607
444.3426	0.0475
444.5455	0.0663
444.7484	0.0628
444.9513	0.0456
445.1542	0.0709
445.3571	0.0515
445.56	0.0582
445.7628	0.0492
445.9657	0.039
446.1685	0.0721
446.3713	0.0442
446.5741	0.0552
446.7769	0.0224
446.9797	0.0449
447.1824	0.0505
447.3852	0.0388
447.5879	0.0564
447.7906	0.0478
447.9933	0.0347
448.196	0.0357
448.3986	0.0358
448.6013	0.0396
448.8039	0.0176
449.0066	0.0415
449.2092	0.0317
449.4118	0.0465
449.6143	0.0407
449.8169	0.0402
450.0195	0.0181
450.222	0.0061
450.4245	0.0266
450.627	0.0438
450.8295	0.0275
451.032	0.0309
451.2345	0.0271
451.4369	0.0392
451.6394	0.0504
451.8418	-0.0012
452.0442	0.0178
452.2466	0.0238
452.449	0.0133
452.6513	0.033
452.8537	0.0194
453.056	0.0093
453.2583	0.0146
453.4607	0.0181
453.663	0.0063
453.8652	0.0283
454.0675	0.0099
454.2697	0.0185
454.472	0.0044
454.6742	0.0288
454.8764	0.0316
455.0786	0.0274
455.2808	0.0246
455.4829	0.0162
455.6851	0.0315
455.8872	0.0203
456.0893	0.0233
456.2915	-0.0082
456.4935	-0.0007
456.6956	0.0081
456.8977	0.0259
457.0997	0.0205
457.3018	0.0011
457.5038	0.0257
457.7058	0.0003
457.9078	0.0197
458.1098	0.0279
458.3117	0.0128
458.5137	0.029
458.7156	-0.0094
458.9175	-0.0007
459.1194	0.002
459.3213	0.0107
459.5232	0.0088
459.725	-0.0088
459.9269	-0.0058
460.1287	0.0073
460.3305	-0.0033
460.5323	0.0014
460.7341	0.0039
460.9359	-0.0032
461.1376	0.0147
461.3394	0.0081
461.5411	0.0055
461.7428	0.001
461.9445	0.0082
462.1462	0.0125
462.3479	0.0103
462.5495	0.0144
462.7512	0.0129
462.9528	0.0063
463.1544	0.0095
463.356	-0.0021
463.5576	0.0167
463.7592	0.0038
463.9607	0.0071
464.1623	0.0107
464.3638	0.016
464.5653	-0.0096
464.7668	0.0034
464.9683	0.003
465.1697	0.0117
465.3712	0.0031
465.5726	-0.0014
465.7741	-0.0025
465.9755	-0.0065
466.1769	-0.0011
466.3782	-0.0034
466.5796	-0.0076
466.7809	0.0136
466.9823	-0.0086
467.1836	-0.0105
467.3849	-0.0103
467.5862	-0.0042
467.7875	0.008
467.9887	0.0095
468.19	0.0004
468.3912	0.0035
468.5924	-0.005
468.7936	0.0075
468.9948	-0.0076
469.196	0.004
469.3972	-0.0194
469.5983	-0.0116
469.7994	-0.0079
470.0006	0.0019
470.2017	-0.0192
470.4027	-0.0207
470.6038	0.0062
470.8049	-0.0197
471.0059	-0.0087
471.2069	-0.0208
471.408	0.0019
471.6089	-0.0014
471.8099	0.0061
472.0109	0.017
472.2119	-0.0027
472.4128	-0.0163
472.6137	0.0073
472.8146	-0.0013
473.0155	-0.0086
473.2164	-0.0066
473.4173	0.0018
473.6181	-0.0025
473.819	-0.0001
474.0198	-0.0119
474.2206	-0.0043
474.4214	-0.0014
474.6222	-0.0036
474.8229	-0.0139
475.0237	-0.0168
475.2244	0.001
475.4251	-0.0059
475.6258	-0.0125
475.8265	0.0043
476.0272	0.0022
476.2278	-0.0035
476.4285	-0.0112
476.6291	-0.0046
476.8297	-0.0083
477.0303	-0.0086
477.2309	0.004
477.4315	-0.014
477.632	-0.0021
477.8326	-0.0091
478.0331	0.0107
478.2336	-0.0028
478.4341	-0.0039
478.6346	0.0021
478.8351	-0.0054
479.0355	-0.0039
479.236	0.0003
479.4364	-0.0025
479.6368	-0.0148
479.8372	-0.01
480.0376	-0.0043
480.2379	-0.0167
480.4383	0.0004
480.6386	0.0099
480.8389	-0.0061
481.0392	-0.009
481.2395	-0.0148
481.4398	0.007
481.6401	0.0063
481.8403	-0.0077
482.0405	-0.0173
482.2408	-0.0048
482.441	0.0165
482.6411	-0.0192
482.8413	-0.0047
483.0415	-0.0137
483.2416	-0.0168
483.4417	-0.0016
483.6419	0.0029
483.8419	-0.0099
484.042	0.0059
484.2421	-0.0026
484.4422	-0.0005
484.6422	-0.004
484.8422	-0.0032
485.0422	-0.0125
485.2422	0.0061
485.4422	-0.0131
485.6422	-0.007
485.8421	-0.0055
486.042	-0.0042
486.242	0.0013
486.4419	-0.0052
486.6417	-0.0076
486.8416	-0.0078
487.0415	-0.0088
487.2413	-0.0065
487.4411	-0.0119
487.641	-0.0163
487.8408	0.0017
488.0405	-0.0102
488.2403	-0.0064
488.4401	-0.0027
488.6398	-0.0017
488.8395	-0.0046
489.0392	0.0018
489.2389	-0.0098
489.4386	-0.0045
489.6383	-0.0035
489.8379	-0.0049
490.0376	-0.0051
490.2372	-0.0105
490.4368	-0.0094
490.6364	-0.0063
490.836	-0.0156
491.0355	-0.009
491.2351	-0.0086
491.4346	-0.0006
491.6341	-0.0235
491.8336	-0
492.0331	-0.0138
492.2326	-0.0074
492.432	-0.0051
492.6315	-0.0067
492.8309	-0.0212
493.0303	-0.0113
493.2297	-0.0011
493.4291	-0.0133
493.6284	-0.0087
493.8278	-0.0052
494.0271	0.0093
494.2264	-0.0018
494.4257	-0.0129
494.625	0.0006
494.8243	-0.0215
495.0236	-0.0107
495.2228	-0.0139
495.422	0.0038
495.6213	-0.0019
495.8205	-0.0008
496.0196	0.0008
496.2188	-0.0008
496.418	-0.02
496.6171	-0.0199
496.8162	-0.0127
497.0153	-0.0059
497.2144	-0.0102
497.4135	-0.0021
497.6126	-0.0131
497.8116	-0.0101
498.0107	-0.0054
498.2097	-0.0131
498.4087	-0.0073
498.6077	-0.0096
498.8067	-0.0111
499.0056	0.0001
499.2046	-0.0124
499.4035	-0.0127
499.6024	-0.0107
499.8013	-0.0009
500.0002	-0.0068
500.199	-0.0049
500.3979	-0.0108
500.5967	-0.0173
500.7956	-0.004
500.9944	-0.0084
501.1932	-0.0167
501.3919	-0.0112
501.5907	-0.0112
501.7895	-0.0086
501.9882	-0.0092
502.1869	-0.0116
502.3856	-0.0137
502.5843	-0.0142
502.783	-0.0109
502.9816	0.0063
503.1803	-0.0092
503.3789	-0.0074
503.5775	-0.0006
503.7761	-0.0125
503.9747	-0.011
504.1732	-0.0044
504.3718	-0.008
504.5703	-0.0086
504.7689	-0.0159
504.9674	-0.0093
505.1658	-0.0136
505.3643	-0.0212
505.5628	-0.015
505.7612	-0.015
505.9597	0.0005
506.1581	-0.0118
506.3565	0.0004
506.5549	-0.0113
506.7532	-0.0163
506.9516	-0.0004
507.1499	-0.0017
507.3482	-0.0143
507.5465	-0.0121
507.7448	-0.0043
507.9431	-0.0036
508.1414	-0.0075
508.3396	0.0027
508.5379	-0.0101
508.7361	-0.0125
508.9343	-0.0039
509.1325	-0.0099
509.3306	-0.0071
509.5288	-0.0098
509.7269	-0.0175
509.9251	-0.006
510.1232	-0.0122
510.3213	-0.0132
510.5193	-0.0004
510.7174	-0.0131
510.9154	-0.0099
511.1135	-0.0128
511.3115	-0.0026
511.5095	-0.0099
511.7075	-0.007
511.9055	-0.003
512.1034	-0.0075
512.3014	-0.0039
512.4993	0.0031
512.6972	-0.0121
512.8951	-0.0211
513.093	0.0002
513.2908	0.0026
513.4887	-0.0101
513.6865	-0.0147
513.8844	-0.0141
514.0822	-0.0024
514.2799	-0.0131
514.4777	-0.0065
514.6755	-0.0095
514.8732	-0.012
515.0709	-0.0005
515.2687	-0.0047
515.4664	-0.0036
515.664	-0.0037
515.8617	-0.0118
516.0594	-0.014
516.257	-0.0082
516.4546	-0.0174
516.6522	-0.0071
516.8498	-0.0139
517.0474	-0.0034
517.2449	-0.0035
517.4425	-0.0169
517.64	-0.0045
517.8375	-0.0094
518.035	-0.0005
518.2325	-0.0061
518.43	-0.0118
518.6274	-0.0048
518.8249	-0.0238
519.0223	-0.005
519.2197	-0.0069
519.4171	-0.0137
519.6145	-0.0051
519.8118	0.0014
520.0092	-0.0061
520.2065	-0.0077
520.4038	-0.0225
520.6011	-0.0091
520.7984	-0.0106
520.9956	-0.0067
521.1929	-0.0208
521.3901	-0.0071
521.5874	-0.0111
521.7846	-0.0131
521.9818	0.0038
522.1789	-0.0073
522.3761	-0.0106
522.5732	0.002
522.7704	-0.0126
522.9675	-0.0105
523.1646	-0.0139
523.3617	-0.0022
523.5587	-0.0063
523.7558	-0.0034
523.9528	-0.0041
524.1498	-0.0059
524.3468	-0.0062
524.5438	-0.0019
524.7408	-0.0071
524.9378	-0.0031
525.1347	-0.007
525.3316	-0.0016
525.5285	-0.0119
525.7254	-0.0092
525.9223	-0.0054
526.1192	-0.0124
526.316	-0.0129
526.5129	0.0063
526.7097	-0.0039
526.9065	-0.013
527.1033	-0.0152
527.3	-0.0068
527.4968	-0.0017
527.6935	0.0067
527.8903	-0.0182
528.087	-0.0014
528.2837	-0.0068
528.4804	0.0012
528.677	-0.0199
528.8737	0.0008
529.0703	-0.0045
529.2669	-0.0032
529.4635	-0.0041
529.6601	-0.0116
529.8567	0.0016
530.0532	-0.015
530.2498	-0.0007
530.4463	-0.0029
530.6428	-0.0064
530.8393	-0.0005
531.0358	-0.0068
531.2322	-0.0034
531.4287	0.0025
531.6251	-0.0081
531.8215	0.0151
532.0179	0.0007
532.2143	-0.0019
532.4107	-0.002
532.607	-0.0072
532.8034	-0.0099
532.9997	-0.0025
533.196	-0.0052
533.3923	-0.0124
533.5886	-0.009
533.7848	-0.0013
533.9811	-0.0102
534.1773	-0.0021
534.3735	0.0024
534.5697	0.0051
534.7659	-0.0048
534.9621	-0.0078
535.1582	-0.0085
535.3544	-0.004
535.5505	-0.0114
535.7466	-0.0067
535.9427	-0.0024
536.1387	-0.0047
536.3348	-0.0036
536.5308	0.0043
536.7269	-0.0135
536.9229	-0.0017
537.1189	-0.0002
537.3148	0.0006
537.5108	-0.0087
537.7068	-0.0085
537.9027	-0.0068
538.0986	0.0017
538.2945	-0.0078
538.4904	-0.0146
538.6863	0.0014
538.8821	-0.0043
539.078	-0.0086
539.2738	-0.0045
539.4696	0.003
539.6654	-0.0009
539.8611	0.0045
540.0569	-0.0082
540.2526	-0.0123
540.4484	0.0031
540.6441	0.0031
540.8398	-0.0005
541.0355	-0.0051
541.2311	-0.0061
541.4268	-0.0123
541.6224	0.0013
541.818	-0.0015
542.0136	-0.0047
542.2092	-0.0053
542.4048	-0.0026
542.6003	-0.0063
542.7959	-0.0071
542.9914	-0.0091
543.1869	-0.0064
543.3824	0.0007
543.5779	-0.0032
543.7734	-0.0057
543.9688	-0.0142
544.1642	0.0086
544.3596	-0.0125
544.555	0.0004
544.7504	0.0024
544.9458	-0.0201
545.1411	-0.0014
545.3365	-0.0046
545.5318	-0.0043
545.7271	-0.009
545.9224	-0.0096
546.1177	-0.0043
546.3129	0.0038
546.5081	-0.0116
546.7034	-0.0047
546.8986	-0.0023
547.0938	-0.002
547.289	-0.0032
547.4841	-0.0038
547.6793	0.011
547.8744	-0.004
548.0695	0.0016
548.2646	-0.0159
548.4597	-0.002
548.6548	-0.0092
548.8498	0.0039
549.0448	0.0007
549.2399	-0.0122
549.4349	-0
549.6298	-0.0014
549.8248	-0.0004
550.0198	-0.001
550.2147	-0.007
550.4096	-0.0121
550.6045	-0.0066
550.7994	-0.0009
550.9943	-0.0013
551.1892	-0.0009
551.384	-0.0005
551.5788	-0.0112
551.7737	-0.0027
551.9685	-0.0082
552.1632	0.0008
552.358	-0.0082
552.5528	0.0001
552.7475	-0.0076
552.9422	0.0002
553.1369	-0.0044
553.3316	-0.0016
553.5263	-0.0135
553.7209	0.001
553.9156	-0.0075
554.1102	-0.0094
554.3048	-0.0076
554.4994	0.0109
554.694	-0.0078
554.8885	0.0072
555.0831	-0.0094
555.2776	-0.0026
555.4721	-0.007
555.6666	0.0008
555.8611	0.0032
556.0555	0.0057
556.25	0.0024
556.4444	-0.0171
556.6388	-0.0014
556.8332	-0.0037
557.0276	-0.0015
557.222	-0.0066
557.4163	0.0003
557.6107	-0.0014
557.805	0.0079
557.9993	-0.0147
558.1936	-0.0016
558.3879	0.0006
558.5821	-0.0016
558.7764	-0.0124
558.9706	-0.0046
559.1648	-0.005
559.359	-0.0013
559.5532	-0.0117
559.7473	-0.0073
559.9415	-0.0048
560.1356	-0.0095
560.3297	-0.0101
560.5238	-0.0089
560.7179	-0.0108
560.9119	-0.0068
561.106	-0.0137
561.3	-0.0018
561.494	0.002
561.688	-0.012
561.882	-0.0075
562.076	-0.0047
562.2699	-0.0037
562.4639	-0.0053
562.6578	-0.001
562.8517	-0.0041
563.0456	-0.0015
563.2395	-0.0016
563.4333	0.0007
563.6272	0.0044
563.821	-0.0035
564.0148	-0.0096
564.2086	-0.0064
564.4024	-0.0038
564.5961	-0.0039
564.7899	-0
564.9836	-0.004
565.1773	-0.0003
565.371	0.0096
565.5647	-0.0025
565.7584	0.0049
565.952	-0.0024
566.1456	-0.003
566.3393	0.0016
566.5329	-0.0098
566.7264	-0.0014
566.92	-0.0025
567.1136	-0.0003
567.3071	-0.0025
567.5006	0.0021
567.6941	-0.0044
567.8876	0.0041
568.0811	-0.0065
568.2745	0.0058
568.468	0.0069
568.6614	-0.0013
568.8548	-0.0013
569.0482	-0.0049
569.2416	0.0004
569.4349	-0.0048
569.6283	0.0041
569.8216	-0.0067
570.0149	-0.0051
570.2082	0.002
570.4015	0.0035
570.5947	0.0034
570.788	0.0054
570.9812	-0.0012
571.1744	-0.005
571.3676	-0.0063
571.5608	-0.0094
571.754	-0.0014
571.9471	-0.0016
572.1402	0.0037
572.3333	-0.0077
572.5264	-0.0116
572.7195	-0.0067
572.9126	-0.0021
573.1057	0.0014
573.2987	-0.0022
573.4917	-0.0033
573.6847	-0.013
573.8777	0.0044
574.0707	-0.0029
574.2636	-0.0069
574.4566	-0.0036
574.6495	0.0068
574.8424	-0.0013
575.0353	-0.0041
575.2281	0.0069
575.421	-0.003
575.6138	0.0031
575.8067	-0.0009
575.9995	0.0032
576.1923	-0.0047
576.385	0.0036
576.5778	-0
576.7706	-0.0042
576.9633	-0.0095
577.156	-0.0002
577.3487	-0.0059
577.5414	-0.0062
577.734	-0.004
577.9267	0.0013
578.1193	-0.0055
578.3119	-0.0044
578.5045	-0.0032
578.6971	-0.0038
578.8897	0.0052
579.0822	-0.0007
579.2747	-0.001
579.4673	-0.0058
579.6598	-0.0033
579.8522	-0.003
580.0447	-0.0063
580.2372	0.0016
580.4296	0.0016
580.622	-0.0025
580.8144	0.0014
581.0068	0.0005
581.1992	-0.0112
581.3915	-0.0078
581.5839	-0.0035
581.7762	-0.0113
581.9685	-0.0036
582.1608	0.0029
582.353	-0.0016
582.5453	-0.0016
582.7375	-0.002
582.9298	-0.0007
583.122	0.0033
583.3142	0.0009
583.5063	-0.0021
583.6985	-0.0013
583.8906	-0.0016
584.0827	-0.008
584.2749	0.0059
584.4669	-0.0001
584.659	-0.0054
584.8511	-0.0064
585.0431	-0.0003
585.2352	0.0046
585.4272	-0.0048
585.6192	0.0032
585.8111	-0.0044
586.0031	-0.0018
586.195	-0.0021
586.387	0.0032
586.5789	-0.0048
586.7708	-0.0036
586.9627	-0.0048
587.1545	0.0022
587.3464	-0.0014
587.5382	0.0037
587.73	0.0008
587.9218	0.0084
588.1136	-0.0035
588.3053	0.0032
588.4971	-0.0053
588.6888	-0.0098
588.8805	-0.0052
589.0722	0.0004
589.2639	-0.0024
589.4556	-0.0014
589.6472	-0.002
589.8389	-0.0087
590.0305	-0.0084
590.2221	0.0018
590.4137	-0.0071
590.6052	0.0033
590.7968	-0.0016
590.9883	-0.0008
591.1798	-0.0081
591.3713	0.0022
591.5628	0.002
591.7543	0.0028
591.9458	0.0007
592.1372	-0.0039
592.3286	0.0031
592.52	0.004
592.7114	-0.007
592.9028	-0.0027
593.0941	-0.002
593.2855	0.0035
593.4768	-0.0062
593.6681	-0.0072
593.8594	-0.0017
594.0506	0.0013
594.2419	0.0111
594.4331	0.0013
594.6244	0.0032
594.8156	-0.0034
595.0067	-0.0036
595.1979	0.0021
595.3891	-0.0035
595.5802	-0.0025
595.7713	-0.0069
595.9624	-0.0028
596.1535	0.0016
596.3446	-0.0036
596.5357	-0.0002
596.7267	-0.001
596.9177	-0.0003
597.1087	-0.0089
597.2997	-0.0017
597.4907	-0.0026
597.6817	-0.0066
597.8726	-0.0032
598.0635	-0.0041
598.2544	0.0025
598.4453	-0.0042
598.6362	-0.0025
598.827	-0.0049
599.0179	0.003
599.2087	0.0041
599.3995	-0.0013
599.5903	-0.0077
599.7811	-0.0007
599.9718	-0.0006
600.1626	-0.001
600.3533	-0.0107
600.544	0.0034
600.7347	-0.0056
600.9254	0.0033
601.116	-0.0116
601.3067	-0.0033
601.4973	-0.0043
601.6879	0.0023
601.8785	0.0007
602.0691	0.0049
602.2596	0.0026
602.4502	-0.0002
602.6407	-0.0004
602.8312	-0.0004
603.0217	-0.0028
603.2122	0.0011
603.4027	-0.0027
603.5931	-0.0059
603.7835	-0.0037
603.9739	-0.0068
604.1643	-0.0001
604.3547	-0.01
604.5451	0.0034
604.7354	-0.0035
604.9257	0.0001
605.116	-0.0061
605.3063	0.0049
605.4966	0.0012
605.6869	0.0031
605.8771	-0.0001
606.0673	0.0038
606.2575	0.0083
606.4477	0.0084
606.6379	-0.0019
606.8281	0.0002
607.0182	-0.003
607.2083	0.0093
607.3985	-0.0006
607.5885	-0.0004
607.7786	0.0058
607.9687	-0.0018
608.1587	0.0029
608.3488	0.0037
608.5388	0.0028
608.7288	-0.0075
608.9187	0.0005
609.1087	-0.0111
609.2986	-0.0101
609.4886	-0.0038
609.6785	-0.0048
609.8684	-0.0004
610.0582	0.0058
610.2481	0.0064
610.4379	-0.0044
610.6278	0.001
610.8176	-0.0001
611.0074	-0.0027
611.1971	-0.0052
611.3869	-0.0018
611.5766	-0.0015
611.7664	0.0004
611.9561	0.0078
612.1458	0.0007
612.3354	-0.0041
612.5251	0.0016
612.7147	0.0019
612.9044	0.0064
613.094	-0.01
613.2836	-0.0017
613.4731	-0.0006
613.6627	-0.0062
613.8522	-0.0013
614.0417	0.0014
614.2313	-0.004
614.4207	-0.0074
614.6102	-0.0013
614.7997	-0.0023
614.9891	-0.0028
615.1785	-0.0005
615.3679	-0.0069
615.5573	0.0081
615.7467	0.0004
615.9361	-0.0061
616.1254	-0.0042
616.3147	0.002
616.504	0.0012
616.6933	0.0046
616.8826	0.0099
617.0718	0.0045
617.2611	0.0021
617.4503	-0.0056
617.6395	-0.0061
617.8287	-0.0046
618.0179	-0.0027
618.207	-0.0005
618.3961	-0.0045
618.5853	-0.0008
618.7744	0.0033
618.9634	0.0082
619.1525	-0.0011
619.3416	-0.0024
619.5306	0.0048
619.7196	-0.0012
619.9086	-0.0029
620.0976	0.003
620.2866	0.0036
620.4755	0.0018
620.6645	-0.002
620.8534	0.0034
621.0423	-0.0008
621.2312	-0.002
621.42	0.001
621.6089	-0.001
621.7977	0.0082
621.9865	-0.0019
622.1753	-0.0023
622.3641	-0.0021
622.5529	0.0075
622.7416	0.0064
622.9303	0.0029
623.1191	0.0071
623.3078	-0.0058
623.4964	0.0044
623.6851	-0.0042
623.8737	-0.0065
624.0624	0.0008
624.251	-0.008
624.4396	-0.009
624.6282	-0.0089
624.8167	-0.0001
625.0053	0.0001
625.1938	0.0055
625.3823	-0.0017
625.5708	-0.0052
625.7593	-0.01
625.9477	-0.006
626.1362	-0.006
626.3246	-0.0005
626.513	0.0013
626.7014	0.0003
626.8898	-0.001
627.0781	0.0005
627.2665	0.0035
627.4548	0.0055
627.6431	-0.0003
627.8314	-0.0019
628.0197	0.0035
628.2079	-0.0036
628.3962	-0.0029
628.5844	0.0104
628.7726	0.0059
628.9608	0.0025
629.1489	-0.001
629.3371	0.0045
629.5252	-0.0057
629.7134	0.0088
629.9015	0.0015
630.0895	-0.0006
630.2776	0.0003
630.4657	0.0063
630.6537	0.0021
630.8417	-0.0032
631.0297	0.0018
631.2177	0.0009
631.4057	-0.0043
631.5936	-0.0004
631.7815	-0.0006
631.9695	0.0042
632.1574	0.002
632.3452	0.0078
632.5331	-0.0015
632.7209	-0.0032
632.9088	0.0084
633.0966	0.0092
633.2844	-0.0066
633.4722	0.0002
633.6599	0.0105
633.8477	-0.0001
634.0354	-0.0021
634.2231	-0.0028
634.4108	0.001
634.5985	0.0105
634.7861	0.0015
634.9738	0.0055
635.1614	0.0059
635.349	0.0024
635.5366	-0.005
635.7242	0.0011
635.9117	0.006
636.0993	-0.0048
636.2868	-0.0015
636.4743	-0.0013
636.6618	0.014
636.8492	-0.0041
637.0367	-0.0047
637.2241	-0.0035
637.4115	-0.0038
637.5989	-0.0048
637.7863	-0.0079
637.9737	-0.0032
638.161	-0.0032
638.3484	-0.0014
638.5357	0.0049
638.723	-0.0005
638.9103	-0.0015
639.0975	0.003
639.2848	0.0058
639.472	-0.004
639.6592	0.0058
639.8464	0.0037
640.0336	0.0015
640.2208	-0.0027
640.4079	0.0021
640.595	-0.0003
640.7821	-0.0014
640.9692	-0.0017
641.1563	-0.0048
641.3434	-0.0019
641.5304	0.0033
641.7174	-0.0026
641.9044	-0.0037
642.0914	-0.0041
642.2784	0.0057
642.4653	-0.0023
642.6523	0.0042
642.8392	-0.0033
643.0261	-0.0008
643.213	0.0005
643.3999	-0.007
643.5867	-0.0056
643.7735	0.0018
643.9604	-0.0073
644.1472	-0
644.3339	0.0015
644.5207	0.0017
644.7075	-0.0004
644.8942	0.0051
645.0809	0.0062
645.2676	0.0021
645.4543	-0.0054
645.6409	-0.0004
645.8276	-0.0034
646.0142	-0.0002
646.2008	-0.0017
646.3874	-0.0049
646.574	-0.0067
646.7605	0.0014
646.9471	-0.0114
647.1336	-0.0054
647.3201	0.0052
647.5066	-0.0077
647.6931	0.0084
647.8795	-0.002
648.0659	-0.0028
648.2524	0.007
648.4388	-0.0048
648.6252	0.0011
648.8115	0.001
648.9979	0.0007
649.1842	0.0036
649.3705	0.0071
649.5568	-0.0012
649.7431	0.0006
649.9294	0.002
650.1156	0.0042
650.3018	-0.0025
650.488	0.0024
650.6742	0.0001
650.8604	0.0055
651.0466	-0.0061
651.2327	-0.0027
651.4188	-0.0017
651.6049	-0.0066
651.791	-0.0059
651.9771	-0.0024
652.1632	0.0044
652.3492	-0.0059
652.5352	-0.0068
652.7212	-0.0006
652.9072	0.0026
653.0932	-0.0047
653.2791	-0.0024
653.465	-0.0021
653.651	-0.0043
653.8369	-0.0019
654.0227	-0.0039
654.2086	0.0018
654.3944	0.0072
654.5803	-0.0017
654.7661	-0.0027
654.9519	-0.0022
655.1377	-0.0086
655.3234	-0.0043
655.5092	-0.0081
655.6949	-0.0077
655.8806	-0.0052
656.0663	-0.0047
656.2519	-0.0024
656.4376	-0.0033
656.6232	0.0063
656.8088	-0.0017
656.9945	0.0005
657.18	-0.0015
657.3656	-0.0016
657.5511	-0.0047
657.7367	-0.0067
657.9222	0.0088
658.1077	0.0038
658.2932	0.0076
658.4786	-0.0099
658.6641	-0.013
658.8495	0.0001
659.0349	-0.0036
659.2203	-0.0013
659.4057	0.0015
659.591	0.0046
659.7764	-0.0027
659.9617	0.0039
660.147	-0.0021
660.3323	-0.002
660.5176	0.0069
660.7028	0.0017
660.888	0.0005
661.0733	-0.0082
661.2585	-0.007
661.4436	0.0009
661.6288	-0.0052
661.8139	0.0007
661.9991	0.0025
662.1842	-0.0072
662.3693	0.0022
662.5544	-0.0036
662.7394	-0.0031
662.9245	-0.003
663.1095	-0.0043
663.2945	-0.0046
663.4795	0.0011
663.6644	0.0012
663.8494	0.0021
664.0343	0.0064
664.2193	-0.0119
664.4042	0.0034
664.589	-0.0055
664.7739	-0.0028
664.9587	-0.0117
665.1436	-0.0039
665.3284	0.0008
665.5132	-0.0057
665.698	0.0031
665.8827	0.0006
666.0675	-0.0053
666.2522	-0.0077
666.4369	-0.0007
666.6216	0.0056
666.8063	-0.0063
666.9909	-0.0014
667.1756	-0.0048
667.3602	-0.0032
667.5448	0.0024
667.7294	0.0146
667.9139	0.0012
668.0985	0.0129
668.283	0.0001
668.4675	0.0013
668.652	-0.0018
668.8365	0.0005
669.0209	0.0043
669.2054	0.0068
669.3898	-0.0035
669.5742	0.0015
669.7586	0.0056
669.943	0.01
670.1273	0.0077
670.3117	0.0045
670.496	0.0041
670.6803	0.0063
670.8646	0.0041
671.0488	0.0012
671.2331	0.0093
671.4173	-0.0018
671.6015	-0.0045
671.7857	0.0009
671.9699	-0.0012
672.1541	0.0046
672.3382	0.0045
672.5223	0.0048
672.7064	0.0013
672.8905	-0.0003
673.0746	-0.002
673.2587	0.0005
673.4427	0.0065
673.6267	0.0044
673.8107	0.0111
673.9947	0.0028
674.1787	0.0042
674.3626	-0.0006
674.5465	0.0053
674.7304	0.0043
674.9143	0.0049
675.0982	0.0133
675.2821	-0.0001
675.4659	0.0055
675.6497	-0.0003
675.8335	-0.0049
676.0173	0.0043
676.2011	0.0042
676.3849	-0.0081
676.5686	-0.0069
676.7523	-0.0012
676.936	-0.0044
677.1197	-0.0034
677.3034	-0.012
677.487	-0.0007
677.6706	-0.0029
677.8542	-0.0042
678.0378	-0.0013
678.2214	0.001
678.405	-0.0063
678.5885	-0.0068
678.772	-0.0011
678.9555	-0.0088
679.139	-0.0094
679.3225	-0.0026
679.5059	0.0022
679.6894	0.002
679.8728	-0.0036
680.0562	-0.0062
680.2395	-0.0055
680.4229	0.0019
680.6062	0.0067
680.7896	-0.0068
680.9729	-0.0121
681.1562	-0.0005
681.3394	0.0063
681.5227	-0.0061
681.7059	-0.0007
681.8891	0.0042
682.0723	0.0102
682.2555	0.0055
682.4387	0.0013
682.6218	-0.0001
682.805	0.0072
682.9881	0.0038
683.1712	0.0003
683.3542	-0.0009
683.5373	-0.0023
683.7203	-0.006
683.9034	-0.0041
684.0864	-0.0127
684.2694	-0.0076
684.4523	0.004
684.6353	-0.0046
684.8182	0.0001
685.0011	-0.0027
685.184	0.0022
685.3669	0.0013
685.5498	-0.0001
685.7326	0.0002
685.9154	-0.0081
686.0982	0.0098
686.281	0.0039
686.4638	0.0008
686.6465	-0.0021
686.8293	-0.0004
687.012	0.0005
687.1947	-0.0127
687.3774	0.0001
687.56	-0.0045
687.7427	0.0054
687.9253	-0.0103
688.1079	-0.0007
688.2905	0.005
688.4731	-0.0003
688.6556	-0.0063
688.8382	-0.0021
689.0207	0.0056
689.2032	-0.0094
689.3857	-0.0064
689.5681	0.0042
689.7506	0.0004
689.933	-0.0107
690.1154	-0.0048
690.2978	0.0022
690.4802	0.0014
690.6626	-0.0055
690.8449	-0.0041
691.0272	0.0066
691.2095	-0.0041
691.3918	-0.0067
691.5741	0
691.7563	-0.0069
691.9386	0.0031
692.1208	-0.0009
692.303	0.0008
692.4852	0.0007
692.6673	0.003
692.8495	0
693.0316	0.0003
693.2137	-0.0007
693.3958	0.003
693.5778	-0.0029
693.7599	0.0025
693.9419	0.0001
694.1239	0.0056
694.3059	-0.002
694.4879	0.0014
694.6699	0.0135
694.8518	-0.0016
695.0337	-0.0117
695.2157	0.0057
695.3975	0.0076
695.5794	-0.001
695.7613	0.0004
695.9431	0.0031
696.1249	0.0058
696.3067	0.0087
696.4885	0.0035
696.6703	-0.0011
696.852	0.0106
697.0337	0.002
697.2154	0.0106
697.3971	0.0001
697.5788	-0.0006
697.7605	0.0026
697.9421	0.0116
698.1237	0.004
698.3053	0.0061
698.4869	0.0013
698.6685	-0.0035
698.85	0.0004
699.0315	0.0031
699.213	0.0068
699.3945	-0.0014
699.576	0.0059
699.7575	0.0027
699.9389	-0.0004
700.1203	0.0003
700.3017	-0.0017
700.4831	-0.0067
700.6645	-0.0032
700.8458	-0.0031
701.0271	0.0009
701.2084	0.0029
701.3897	-0.0073
701.571	-0.0011
701.7523	-0.011
701.9335	-0.0027
702.1147	-0.0036
702.2959	-0.0016
702.4771	0.0091
702.6583	-0.0044
702.8394	-0.0058
703.0205	0.008
703.2016	-0.0044
703.3827	-0.0031
703.5638	0.0097
703.7449	-0.0016
703.9259	0.0097
704.1069	-0.0045
704.2879	0.0054
704.4689	0.0057
704.6499	-0.0001
704.8308	-0.0028
705.0117	0.0021
705.1927	0.0018
705.3735	-0.0006
705.5544	-0.0108
705.7353	-0.0002
705.9161	-0.0068
706.0969	-0.0089
706.2777	-0.0064
706.4585	-0.0023
706.6393	-0.0023
706.82	-0.0037
707.0007	-0.0023
707.1815	0.0047
707.3621	0.011
707.5428	0.0017
707.7235	-0.0046
707.9041	0.0005
708.0847	-0.0097
708.2653	-0.0059
708.4459	-0.0132
708.6265	0.003
708.807	-0.0027
708.9875	-0.0016
709.168	0.0017
709.3485	-0.0001
709.529	-0.0116
709.7095	-0.0141
709.8899	-0.0062
710.0703	-0.018
710.2507	-0.0103
710.4311	-0.0124
710.6115	-0.0139
710.7918	-0.0188
710.9721	-0.0038
711.1524	-0.0126
711.3327	0.0044
711.513	0.0026
711.6932	0.0064
711.8735	0.0137
712.0537	0.0126
712.2339	0.0073
712.4141	0.0009
712.5942	0.0004
712.7744	0.0026
712.9545	-0.006
713.1346	-0.0041
713.3147	-0.0082
713.4947	-0.0031
713.6748	-0.0061
713.8548	-0.0014
714.0348	-0.0075
714.2148	-0.0037
714.3948	0.0035
714.5748	-0.0035
714.7547	-0.0076
714.9346	0.0049
715.1145	0.0044
715.2944	-0.004
715.4743	0.0011
715.6541	-0.0112
715.834	0.0044
716.0138	-0.0113
716.1936	-0.0149
716.3733	-0.0034
716.5531	-0.0048
716.7328	-0.0071
716.9126	-0.0081
717.0923	0.0037
717.2719	-0.0032
717.4516	0.0027
717.6312	0.0033
717.8109	0.0006
717.9905	-0.0024
718.1701	0.002
718.3496	-0.0043
718.5292	0.0005
718.7087	-0.0003
718.8882	0.0013
719.0677	0.009
719.2472	0.0079
719.4267	-0.0003
719.6061	0.0035
719.7856	0.0004
719.965	-0.0004
720.1443	-0.0032
720.3237	0.0016
720.5031	0.0052
720.6824	0.0087
720.8617	-0.0055
721.041	-0.0008
721.2203	0.0088
721.3995	0.0054
721.5788	0.0004
721.758	-0.0005
721.9372	0.0004
722.1164	-0.0007
722.2956	-0.0057
722.4747	-0.0032
722.6538	-0.0117
722.8329	0.0079
723.012	0.004
723.1911	-0.0086
723.3702	-0.0028
723.5492	0.0027
723.7282	-0.008
723.9072	-0.0072
724.0862	-0.0108
724.2652	-0.0074
724.4441	-0.0055
724.623	-0.0042
724.8019	-0.0035
724.9808	-0.0057
725.1597	-0.0043
725.3385	-0.0009
725.5174	0.0007
725.6962	-0.0043
725.875	-0.005
726.0538	-0.0004
726.2325	0.0008
726.4112	-0.0062
726.59	-0.0038
726.7687	0.0023
726.9474	0.0136
727.126	-0
727.3047	-0.0084
727.4833	0.0041
727.6619	-0.0036
727.8405	-0.0056
728.0191	-0.0031
728.1976	0.0069
728.3762	-0.0046
728.5547	0.0061
728.7332	-0.0088
728.9116	0.0019
729.0901	-0.0058
729.2686	-0.0093
729.447	-0.0015
729.6254	-0.0026
729.8038	0.0002
729.9821	-0.0156
730.1605	-0.0039
730.3388	-0.0013
730.5171	0.0027
730.6954	-0.0023
730.8737	0.0065
731.0519	-0.0024
731.2302	0.0047
731.4084	0.0054
731.5866	-0.003
731.7648	-0.0035
731.9429	-0.0016
732.1211	-0.0141
732.2992	-0.0156
732.4773	-0.0038
732.6554	-0.01
732.8335	0.0009
733.0115	0.0034
733.1896	0.003
733.3676	-0.0163
733.5456	0.0009
733.7235	0.0057
733.9015	0.0003
734.0794	0.0008
734.2574	-0.0094
734.4353	-0.0042
734.6131	-0.0025
734.791	0.0044
734.9689	-0.0002
735.1467	0.0028
735.3245	-0.0036
735.5023	-0.0037
735.68	0.0029
735.8578	0.0014
736.0355	-0.0157
736.2132	-0.005
736.3909	-0.0103
736.5686	-0.0071
736.7463	0.0005
736.9239	-0.0025
737.1015	0.001
737.2791	0.0092
737.4567	-0.0025
737.6343	-0.0077
737.8118	0.0035
737.9894	0.0055
738.1669	-0.0097
738.3444	-0.0022
738.5218	0.004
738.6993	-0.0035
738.8767	-0.0027
739.0541	0.0065
739.2315	-0.0139
739.4089	-0.0083
739.5863	0.0046
739.7636	-0.0036
739.9409	0.0014
740.1182	0.0039
740.2955	0.0034
740.4728	0.0026
740.65	0.0024
740.8272	-0.0111
741.0044	-0.0089
741.1816	0.0029
741.3588	-0.0032
741.5359	0.0064
741.7131	-0.0166
741.8902	0.0034
742.0673	-0.0013
742.2444	-0.0082
742.4214	-0.0081
742.5985	-0.0039
742.7755	-0.009
742.9525	-0.0159
743.1295	0.0054
743.3064	0.0025
743.4834	-0.0008
743.6603	-0.0105
743.8372	-0.0052
744.0141	0.004
744.191	0.0012
744.3678	0.0008
744.5446	-0.0061
744.7215	0.0062
744.8982	-0.0016
745.075	-0.0023
745.2518	0.0027
745.4285	-0.0083
745.6052	-0.005
745.7819	-0.0072
745.9586	-0.0101
746.1353	-0.0053
746.3119	-0.0098
746.4885	-0.0235
746.6651	-0.0183
746.8417	-0.0085
747.0183	-0.0115
747.1948	-0.0181
747.3714	-0.0054
747.5479	-0.0089
747.7244	-0.0198
747.9008	-0.003
748.0773	-0.0074
748.2537	-0.0097
748.4301	-0.0148
748.6065	0.0017
748.7829	-0.0019
748.9593	-0.0072
749.1356	-0.0057
749.3119	-0.0036
749.4882	-0.0135
749.6645	-0.0024
749.8408	-0.0067
750.017	-0.0077
750.1933	-0.0045
750.3695	-0.0091
750.5457	-0.0015
750.7218	-0.0066
750.898	0.0025
751.0741	-0.005
751.2502	-0.002
751.4263	-0.0014
751.6024	0.0052
751.7784	-0.0056
751.9545	-0.0066
752.1305	-0.0061
752.3065	-0.0116
752.4825	-0.0025
752.6584	-0.0056
752.8344	-0.0101
753.0103	-0.0202
753.1862	-0.0004
753.3621	-0.0118
753.5379	-0.0065
753.7138	-0.0068
753.8896	-0.0081
754.0654	0.0029
754.2412	0.0045
754.417	0.0022
754.5927	-0.0114
754.7685	-0.0059
754.9442	-0.0025
755.1199	0.0095
755.2956	-0.0005
755.4712	0.0105
755.6469	0.0005
755.8225	0.0037
755.9981	0.0059
756.1736	0.011
756.3492	0.0055
756.5248	0.0061
756.7003	0.0066
756.8758	0.0009
757.0513	-0.0129
757.2267	0.0003
757.4022	0.0138
757.5776	-0.0117
757.753	-0.0021
757.9284	-0.0023
758.1038	0.0028
758.2791	-0.0069
758.4545	-0.0229
758.6298	-0.005
758.8051	-0.0043
758.9803	-0.0083
759.1556	-0.0008
759.3308	-0.0086
759.506	-0.0007
759.6812	-0.0031
759.8564	0.0141
760.0316	0.0001
760.2067	0.0084
760.3819	0.0114
760.557	0.0196
760.732	-0.0028
760.9071	-0.0064
761.0821	-0.0037
761.2572	0.0128
761.4322	0.0008
761.6072	-0.0005
761.7821	-0.0064
761.9571	0.0096
762.132	-0.0008
762.3069	-0.0066
762.4818	0.0007
762.6567	-0.0093
762.8316	-0.0126
763.0064	-0.0104
763.1812	-0.0092
763.356	-0.0148
763.5308	-0.0114
763.7055	-0.0089
763.8803	-0.0134
764.055	-0.0079
764.2297	-0.0132
764.4044	-0.0135
764.579	-0.0073
764.7537	-0.0213
764.9283	-0.0095
765.1029	-0.0067
765.2775	-0.0094
765.4521	-0.012
765.6266	-0.0126
765.8011	-0.0146
765.9756	-0.0106
766.1501	0.0025
766.3246	-0.0103
766.4991	-0.0128
766.6735	-0.0039
766.8479	-0.012
767.0223	0.0078
767.1967	-0.0036
767.371	-0.0039
767.5454	-0.0075
767.7197	-0.0091
767.894	-0.0109
768.0683	-0.0131
768.2425	-0.0014
768.4168	0.0014
768.591	-0.003
768.7652	-0.0106
768.9394	-0.0064
769.1135	-0.0089
769.2877	0.0015
769.4618	-0.0043
769.6359	0.0135
769.81	0.0027
769.984	0.005
770.1581	-0.0004
770.3321	-0.0005
770.5061	-0.0075
770.6801	-0.0093
770.8541	0.0021
771.028	-0.0057
771.202	-0.0195
771.3759	0.0012
771.5498	-0.0169
771.7236	-0.0071
771.8975	0.0009
772.0713	0.0076
772.2451	0.0046
772.4189	-0.0021
772.5927	0.0021
772.7665	-0.0045
772.9402	-0.0083
773.1139	0.0008
773.2876	-0.0131
773.4613	0.0091
773.635	-0.0022
773.8086	-0.0185
773.9822	-0.0109
774.1558	-0.0134
774.3294	-0.0201
774.503	-0.0105
774.6765	-0.0017
774.8501	0.0076
775.0236	-0.0007
775.1971	0.0037
775.3705	-0.0082
775.544	0.0002
775.7174	-0.0087
775.8908	-0.0161
776.0642	-0.0051
776.2376	-0.0122
776.4109	-0.016
776.5843	-0.0044
776.7576	-0.0014
776.9309	0.0034
777.1041	0.0028
777.2774	0.0006
777.4506	-0.0121
777.6238	-0.0028
777.797	-0.0089
777.9702	-0.0086
778.1434	-0.0009
778.3165	-0.002
778.4896	-0.0027
778.6627	0.0092
778.8358	-0.0052
779.0089	-0.0046
779.1819	-0.0129
779.3549	0.0015
779.5279	0.0114
779.7009	-0.0049
779.8739	-0.0139
780.0468	0.0015
780.2197	0.0038
780.3926	-0.0098
780.5655	-0.0098
780.7384	-0.0149
780.9112	-0.0017
781.0841	-0.009
781.2569	0.003
781.4297	0.0056
781.6024	-0.0032
781.7752	0.0042
781.9479	-0.0031
782.1206	-0.0015
782.2933	-0.0115
782.466	0.0052
782.6386	-0.0132
782.8113	0.0076
782.9839	-0.011
783.1565	-0.0006
783.329	-0.0006
783.5016	-0.0018
783.6741	0.016
783.8466	-0.0068
784.0191	0.0119
784.1916	0.0055
784.3641	-0.0047
784.5365	0.0066
784.7089	0.0043
784.8813	-0.0103
785.0537	-0.0022
785.2261	-0.0063
785.3984	-0.0235
785.5707	-0.0123
785.743	-0.0107
785.9153	-0.0134
786.0876	0.0044
786.2598	-0.0159
786.432	-0.0222
786.6042	-0.007
786.7764	-0.0095
786.9486	0.0056
787.1207	-0.0143
787.2928	-0.0097
787.4649	0.0098
787.637	-0.008
787.8091	-0.0076
787.9811	-0.0011
788.1532	-0.0064
788.3252	0.0012
788.4972	-0.0156
788.6691	0.0052
788.8411	0.0014
789.013	-0.0183
789.1849	-0.0039
789.3568	-0.0181
789.5287	0.0008
789.7005	-0.0098
789.8723	-0.0097
790.0442	0.0206
790.2159	-0.004
790.3877	0.0028
790.5595	-0.0112
790.7312	-0.0011
790.9029	0.0093
791.0746	0.0019
791.2463	-0.0073
791.4179	-0.009
791.5896	-0.02
791.7612	0.0006
791.9328	0.0049
792.1044	-0.0128
792.2759	-0.0077
792.4474	-0.0081
792.619	0.0025
792.7905	0.0103
792.9619	0.0018
793.1334	0.0016
793.3048	-0.0007
793.4762	0.0065
793.6476	-0.001
793.819	-0.0087
793.9904	0.0031
794.1617	-0.0185
794.333	0.002
794.5043	-0.0099
794.6756	-0.0049
794.8469	-0.0001
795.0181	0.0011
795.1893	-0.0031
795.3605	0.013
795.5317	-0.0011
795.7029	-0.0106
795.874	0.0015
796.0452	0.0015
796.2163	-0.0104
796.3873	0.0121
796.5584	0.0086
796.7294	0.0064
796.9005	0.0052
797.0715	0.0022
797.2425	-0.0112
797.4134	-0.0059
797.5844	0.005
797.7553	-0.0233
797.9262	0.001
798.0971	-0.0076
798.2679	-0.0071
798.4388	-0.0134
798.6096	0.0041
798.7804	-0.0031
798.9512	-0.0145
799.122	-0.0048
799.2927	-0.0107
799.4635	0.0101
799.6342	-0.0224
799.8049	-0.0047
799.9755	0.0013
800.1462	-0.0003
800.3168	0.0036
800.4874	0.0063
800.658	0.0065
800.8286	-0.0003
800.9991	-0.0113
801.1696	0.0144
801.3402	0.0049
801.5106	-0.0161
801.6811	-0.0011
801.8516	-0.0085
802.022	-0.0126
802.1924	0.0155
802.3628	0.0032
802.5332	-0.0048
802.7035	0.0108
802.8739	-0.0064
803.0442	-0.0201
803.2145	0.0093
803.3847	-0.0255
803.555	0.0018
803.7252	-0.0012
803.8954	-0.0132
804.0656	-0.0137
804.2358	-0.0186
804.4059	0.021
804.5761	0.004
804.7462	0.0148
804.9163	-0.0061
805.0864	-0.0072
805.2564	0.0062
805.4264	-0.0163
805.5965	-0.0025
805.7665	-0.013
805.9364	0.0069
806.1064	0.0094
806.2763	0.012
806.4462	0.008
806.6161	0.0023
806.786	0.0006
806.9559	-0.0033
807.1257	-0.0122
807.2955	0.0024
807.4653	0.0112
807.6351	-0.0069
807.8048	0.0004
807.9746	0.0087
808.1443	-0.0008
808.314	0.0111
808.4837	-0.011
808.6533	-0.0139
808.8229	0.0203
808.9926	-0.0175
809.1622	0.0028
809.3317	-0.0128
809.5013	0.0115
809.6708	0.006
809.8403	0.0016
810.0098	-0.0006
810.1793	0.006
810.3488	-0.0088
810.5182	-0.0181
810.6876	0.0093
810.857	-0.0181
811.0264	0.0188
811.1958	0.0134
811.3651	-0.0087
811.5344	0.0068
811.7037	-0.0258
811.873	-0.0189
812.0422	0.014
812.2115	0.0029
812.3807	-0.0004
812.5499	0.0111
812.7191	0.0236
812.8882	-0.0029
813.0574	-0.014
813.2265	0.0007
813.3956	-0.0113
813.5646	0.0038
813.7337	-0.0263
813.9027	0.0114
814.0718	0.0064
814.2407	-0.0047
814.4097	-0.0068
814.5787	-0.028
814.7476	-0.0057
814.9165	0.0089
815.0854	-0.0257
815.2543	-0.0258
815.4232	-0.0173
815.592	-0.0056
815.7608	0.0236
815.9296	0.0079
816.0984	0.0255
816.2671	-0.0121
816.4359	-0.0259
816.6046	-0.007
816.7733	-0.0125
816.942	-0.0162
817.1106	-0.0227
817.2793	-0.0119
817.4479	-0.0053
817.6165	0.0076
817.785	-0.0089
817.9536	-0.0146
818.1221	-0.023
818.2906	-0.0093
818.4591	-0.0168
818.6276	-0.0164
818.7961	0.0177
818.9645	-0.0148
819.1329	0.0029
819.3013	0.0182
819.4697	-0.0011
819.638	0.0019
819.8064	0.0276
819.9747	-0.007
820.143	-0.003
820.3113	-0.0088
820.4795	0.0137
820.6477	0.0064
820.816	0.0148
820.9842	0.0027
821.1523	-0.0009
821.3205	-0.0151
821.4886	0.0038
821.6567	-0.0118
821.8248	-0.0026
821.9929	0.0146
822.1609	0.0262
822.329	0.0096
822.497	0.0233
822.665	-0.0247
822.833	-0.0135
823.0009	0.0163
823.1688	0.033
823.3367	0.0267
823.5046	-0.0074
823.6725	0.0342
823.8404	-0.006
824.0082	0.0149
824.176	0.0208
824.3438	0.003
824.5116	0.0053
824.6793	0.0166
824.847	0.004
825.0147	-0.0144
825.1824	0.004
825.3501	0.0078
825.5177	-0.0006
825.6854	-0.0104
825.853	0.0108
826.0206	-0.0251
826.1881	-0.0028
826.3557	-0.0173
826.5232	0.0162
826.6907	-0.0393
826.8582	-0.017
827.0257	-0.0296
827.1931	-0.0051
827.3605	0.0071
827.528	0.0026
827.6953	-0.0423
827.8627	-0.009
828.03	0.0281
828.1974	0.0055
828.3647	-0.041
828.532	-0.0007
828.6992	0.0058
828.8665	-0.0045
829.0337	0.0074
829.2009	-0.0022
829.3681	-0.0167
829.5352	0.0374
829.7024	-0.0227
829.8695	-0.0342
830.0366	0.0405
830.2037	-0.0108
830.3707	0.0148
830.5378	-0.0159
830.7048	0.0232
830.8718	0.008
831.0388	-0.0526
831.2057	0.01
831.3727	0.031
831.5396	0.0148
831.7065	-0.0031
831.8734	-0.0008
832.0402	-0.0217
832.2071	-0.0047
832.3739	-0.0127
832.5407	0.0052
832.7075	-0.0275
832.8742	-0.0212
833.041	-0.0535
833.2077	-0.0187
833.3744	0.0057
833.541	-0.0299
833.7077	0.0098
833.8743	-0.0022
834.0409	-0.0377
834.2075	-0.0195
834.3741	-0.0039
834.5407	-0.0066
834.7072	-0.046
834.8737	-0.0042
835.0402	0.0289
835.2067	-0.0125
835.3731	0.0017
835.5395	-0.0028
835.706	-0.0105
835.8723	0.0388
836.0387	0.01
836.2051	0.0145
836.3714	-0.0268
836.5377	-0.0211
836.704	-0.0164
836.8703	0.0358
837.0365	-0.0189
837.2027	-0.0317
837.3689	-0.0003
837.5351	0.0027
837.7013	-0.0424
837.8674	-0.0242
838.0335	0.01
838.1997	-0.0339
838.3657	-0.047
838.5318	0.0019
838.6978	0.0303
838.8639	0.0609
839.0299	0.0263
839.1958	-0.0104
839.3618	0.027
839.5277	-0.0458
839.6937	-0.0053
839.8596	-0.0483
840.0254	-0.0045
840.1913	0.0349
840.3571	-0.015
840.523	0.0158
840.6888	-0.0276
840.8545	-0.0346
841.0203	0.0067
841.186	0.0572
841.3517	0.0448
841.5174	0.0058
841.6831	-0.0425
841.8488	0.0124
842.0144	0.0098
842.18	0.0177
842.3456	0.0378
842.5112	-0.0355
842.6767	-0.0469
842.8422	0.0049
843.0077	0.0217
843.1732	-0.0176
843.3387	0.0133
843.5042	-0.049
843.6696	0.0092
843.835	0.0851
844.0004	0.0134
844.1657	0.0372
844.3311	-0.0208
844.4964	-0.0739
844.6617	-0.0104
844.827	-0.0528
844.9923	-0.0028
845.1575	-0.0541
845.3227	0.0654
845.4879	-0.0105
845.6531	-0.0753
845.8183	-0.0732
845.9834	0.0524
846.1485	-0.0258
846.3136	-0.0474
846.4787	-0.123
846.6438	0.0833
846.8088	0.0386
846.9738	-0.0576
847.1388	-0.0535
847.3038	-0.0213
847.4687	-0.0412
847.6337	0.0034
847.7986	0.0575
847.9635	0.0009
848.1284	0.0672
848.2932	0.0659
848.458	-0.0255
848.6228	0.0493
848.7876	0.0861
848.9524	-0.0556
849.1172	-0.0007
849.2819	0.0655
849.4466	-0.154
849.6113	-0.0538
849.7759	0.0973
849.9406	-0.0902
850.1052	0.0046
850.2698	-0.1001
850.4344	-0.02
850.599	-0.0843
850.7635	0.1232
850.928	-0.0152
851.0925	0.0188
851.257	-0.0112
851.4215	0.0273
851.5859	0.0238
851.7503	0.0246
851.9147	0.0479
852.0791	-0.0034
852.2434	-0.0388
852.4078	0.0614
852.5721	-0.0227
852.7364	-0.0771
852.9007	-0.1744
853.0649	0.0512
853.2291	0.038
853.3934	-0.0299
853.5575	0.0066
853.7217	-0.0883
853.8859	-0.103
854.05	-0.0671
854.2141	0.0229
854.3782	-0.0312
854.5423	-0.134
854.7063	0.1428
854.8703	-0.0675
855.0343	0.0245
855.1983	-0.2239
855.3623	0.1445
855.5262	0.042
855.6901	0.0478
855.854	-0.0009
856.0179	0.0762
856.1818	-0.0506
856.3456	-0.1006
856.5094	-0.0905
856.6732	-0.1682
856.837	-0.0193
857.0008	-0.004
857.1645	0.1282
857.3282	-0.0585
857.4919	0.4132
857.6556	0.0024
857.8192	-0.042
857.9828	0.0342
858.1465	-0.0598
858.31	0.0473
858.4736	-0.0807
858.6372	-0.352
858.8007	-0.1459
858.9642	-0.0197
859.1277	0.221
859.2911	0.0074
859.4546	0.2065
859.618	-0.4057
859.7814	-0.0081
859.9448	-0.0877
860.1081	-0.0022
860.2715	0.147
860.4348	0.1606
860.5981	0.0748
860.7614	0.1542
860.9246	0.1102
861.0879	-0.0927
861.2511	0.0207
861.4143	-0.0719
861.5774	0.2671
861.7406	-0.1459
861.9037	0.0716
862.0668	0.4602
862.2299	-0.3019
862.393	-0.2326
862.556	0.0341
862.7191	0.2783
862.8821	0.025
863.0451	0.2303
863.208	0.1393
863.371	-0.015
863.5339	-0.0372
863.6968	-0.0069
863.8597	-0.1392
864.0225	0.2055
864.1854	-0.1535
864.3482	0.1337
864.511	0.0795
864.6737	0.1524
864.8365	0.1563
864.9992	-0.5331
865.1619	-0.6321
865.3246	0.0549
865.4873	0.9638
865.65	0.8954
865.8126	0.1333
865.9752	0.1075
866.1378	0.4253
866.3004	-0
866.4629	0.2426
866.6254	0.3147
866.7879	-0.175
866.9504	1.4688
867.1129	0.301
867.2753	0.0333
867.4377	-0
867.6001	-0.3693
867.7625	0.0409
867.9249	-0
868.0872	0.3869
868.2495	0.3873
868.4118	-0.0497
868.5741	-0.3555
868.7363	-0.4825
868.8986	-0
869.0608	0.1392
869.223	0.1801
869.3851	0.4699
869.5473	0.6054
869.7094	0.0237
869.8715	-0.3228
870.0336	-0
870.1957	0.0257
870.3577	-0
870.5197	-0.2566
870.6817	-0.1305
870.8437	-0.1382
871.0057	-0.1043
871.1676	-0.3835
871.3295	-0.1653
871.4914	-0
871.6533	-0.0657
871.8151	-0.1452
871.977	-0
872.1388	-0
872.3006	0.1344
872.4623	-0.407
872.6241	0.5451
872.7858	1.0952
872.9475	0.0801
873.1092	-0.0813
873.2709	-0
873.4325	-0.0289
873.5941	0.8484
873.7557	-0.6548
873.9173	-0.4368
874.0789	-0
874.2404	-0.0783
874.4019	0.0657
874.5634	0.3409
874.7249	-0.0713
874.8863	0.1683
875.0478	-0.1111
875.2092	-0
875.3706	0.4524
875.5319	-0.8843
875.6933	-0
875.8546	-0
876.0159	-0
876.1772	1.8401
876.3385	0.1895
876.4997	0.0489
876.6609	-0.4631
876.8221	-0.4892
876.9833	0.0712
877.1445	-0
877.3056	0.1194
877.4667	-0.4518
877.6278	-0
877.7889	-0.8865
877.9499	-0
878.111	-0
878.272	-0
878.433	-0
878.5939	0.4315
878.7549	-0.0392
878.9158	-0.916
879.0767	-0.163
879.2376	-0
879.3984	-0.0823
879.5593	-0
879.7201	-0
879.8809	-0.4639
880.0417	-0
880.2024	0.0331
880.3632	-0
880.5239	0.5058
880.6846	-0
880.8452	-2.0917
881.0059	-1.4099
881.1665	0.1666
881.3271	-0.137
881.4877	-0
881.6483	-0.4994
881.8088	0.7714
881.9693	-0
882.1298	-0
882.2903	-0
