Data from MonoPyChalIsomerACN10uM350nmA_Absorbance_14-35-36-115.txt Node
Date: Fri Jul 05 14:35:36 BST 2024
User: LASERRRRR
Spectrometer: FLMT03099
Trigger mode: 0
Integration Time (sec): 1.000000E-1
Scans to average: 1
Electric dark correction enabled: true
Nonlinearity correction enabled: false
Boxcar width: 0
XAxis mode: Wavelengths
Number of Pixels in Spectrum: 3648
>>>>>Begin Spectral Data<<<<<
179.3399	0.2409
179.5586	0.2409
179.7771	0.2409
179.9957	0.0148
180.2143	-0
180.4329	-0
180.6514	-0
180.8699	-0
181.0885	0.482
181.307	0.0931
181.5255	-0
181.744	-0
181.9625	-0
182.181	-0.284
182.3994	-0
182.6179	-0
182.8363	-0.0369
183.0547	-0.4337
183.2732	0.004
183.4916	0.3881
183.71	0.2319
183.9284	0.1672
184.1467	-0.0364
184.3651	-0.0977
184.5835	0.107
184.8018	-0.0875
185.0201	0.0979
185.2385	0.1656
185.4568	0.1184
185.6751	0.0687
185.8934	0.5751
186.1117	0.0776
186.3299	0.1309
186.5482	0.2701
186.7664	0.0195
186.9847	-0.2151
187.2029	0.1414
187.4211	0.0835
187.6393	0.1576
187.8575	-0.1321
188.0757	0.1229
188.2939	0.0363
188.512	-0.2016
188.7302	0.1446
188.9483	0.0764
189.1665	0.3523
189.3846	-0.1581
189.6027	0.1556
189.8208	0.5734
190.0389	0.0903
190.257	0.0887
190.475	0.2117
190.6931	0.1584
190.9111	0.5029
191.1292	0.3061
191.3472	0.4553
191.5652	0.3336
191.7832	0.4506
192.0012	0.3318
192.2192	0.3077
192.4371	0.4876
192.6551	0.536
192.873	0.2877
193.091	0.3562
193.3089	0.7872
193.5268	0.6848
193.7447	0.5498
193.9626	0.5123
194.1805	0.4227
194.3984	0.581
194.6162	0.4664
194.8341	0.5546
195.0519	0.7038
195.2697	0.8143
195.4875	0.5532
195.7054	0.7312
195.9231	0.6057
196.1409	0.4901
196.3587	0.639
196.5765	0.5048
196.7942	0.5976
197.012	0.5759
197.2297	0.6661
197.4474	0.8998
197.6651	0.5383
197.8828	0.6441
198.1005	0.6464
198.3182	0.6469
198.5358	0.709
198.7535	0.645
198.9711	0.5445
199.1888	0.6172
199.4064	0.7007
199.624	0.5349
199.8416	0.5741
200.0592	0.6194
200.2767	0.6709
200.4943	0.8786
200.7119	0.6941
200.9294	0.6941
201.1469	0.6385
201.3645	0.5424
201.582	0.5185
201.7995	0.6953
202.017	0.6506
202.2344	0.5772
202.4519	0.5786
202.6694	0.7393
202.8868	0.6394
203.1042	0.7311
203.3217	0.7476
203.5391	0.7614
203.7565	0.5556
203.9739	0.6473
204.1913	0.5873
204.4086	0.6217
204.626	0.7211
204.8433	0.6225
205.0607	0.6158
205.278	0.6837
205.4953	0.5582
205.7126	0.6334
205.9299	0.8668
206.1472	0.74
206.3644	0.6463
206.5817	0.6376
206.7989	0.768
207.0162	0.6308
207.2334	0.6556
207.4506	0.7495
207.6678	0.6508
207.885	0.6442
208.1022	0.6972
208.3194	0.6727
208.5365	0.6448
208.7537	0.6935
208.9708	0.6141
209.1879	0.6498
209.405	0.6422
209.6222	0.6809
209.8392	0.6723
210.0563	0.6275
210.2734	0.6866
210.4905	0.6462
210.7075	0.5793
210.9245	0.6154
211.1416	0.7071
211.3586	0.6445
211.5756	0.6078
211.7926	0.5927
212.0096	0.5969
212.2265	0.5441
212.4435	0.5889
212.6604	0.6013
212.8774	0.5784
213.0943	0.603
213.3112	0.5393
213.5281	0.5582
213.745	0.4825
213.9619	0.4633
214.1788	0.4465
214.3956	0.4409
214.6125	0.4875
214.8293	0.4765
215.0461	0.4933
215.2629	0.4578
215.4798	0.4756
215.6965	0.4068
215.9133	0.4476
216.1301	0.417
216.3469	0.4194
216.5636	0.3971
216.7803	0.3648
216.9971	0.3657
217.2138	0.3998
217.4305	0.3901
217.6472	0.3399
217.8639	0.395
218.0805	0.3339
218.2972	0.3111
218.5138	0.2984
218.7305	0.3062
218.9471	0.3139
219.1637	0.3014
219.3803	0.2841
219.5969	0.3164
219.8135	0.2651
220.0301	0.2461
220.2466	0.276
220.4632	0.2719
220.6797	0.2636
220.8962	0.261
221.1127	0.2624
221.3292	0.2516
221.5457	0.2408
221.7622	0.2432
221.9787	0.2628
222.1951	0.2426
222.4116	0.2481
222.628	0.2626
222.8444	0.2556
223.0608	0.2254
223.2772	0.2434
223.4936	0.2679
223.71	0.2486
223.9264	0.2666
224.1427	0.2511
224.3591	0.2484
224.5754	0.2817
224.7917	0.2725
225.008	0.2684
225.2243	0.2298
225.4406	0.2892
225.6569	0.2755
225.8732	0.2492
226.0894	0.2593
226.3057	0.2733
226.5219	0.2882
226.7381	0.2789
226.9543	0.2855
227.1705	0.2938
227.3867	0.2802
227.6029	0.3027
227.8191	0.2738
228.0352	0.3113
228.2513	0.3044
228.4675	0.2979
228.6836	0.3123
228.8997	0.2853
229.1158	0.3248
229.3319	0.2992
229.548	0.3148
229.764	0.3146
229.9801	0.3259
230.1961	0.3235
230.4121	0.336
230.6282	0.326
230.8442	0.3268
231.0602	0.3508
231.2761	0.369
231.4921	0.3624
231.7081	0.3465
231.924	0.3496
232.14	0.3423
232.3559	0.3393
232.5718	0.3613
232.7877	0.3412
233.0036	0.3369
233.2195	0.3486
233.4353	0.3613
233.6512	0.3515
233.867	0.3519
234.0829	0.3474
234.2987	0.3796
234.5145	0.3732
234.7303	0.3844
234.9461	0.3805
235.1619	0.3898
235.3776	0.4086
235.5934	0.3931
235.8091	0.3697
236.0249	0.3932
236.2406	0.3793
236.4563	0.3748
236.672	0.382
236.8877	0.3981
237.1034	0.3967
237.319	0.4003
237.5347	0.4121
237.7503	0.3905
237.966	0.4207
238.1816	0.3943
238.3972	0.4016
238.6128	0.3927
238.8284	0.3986
239.0439	0.4098
239.2595	0.3942
239.475	0.4234
239.6906	0.4145
239.9061	0.4103
240.1216	0.391
240.3371	0.3997
240.5526	0.4057
240.7681	0.4145
240.9836	0.3943
241.199	0.3975
241.4145	0.3826
241.6299	0.37
241.8453	0.3678
242.0607	0.3903
242.2761	0.3554
242.4915	0.368
242.7069	0.3593
242.9223	0.35
243.1376	0.3516
243.353	0.3405
243.5683	0.352
243.7836	0.3404
243.9989	0.3347
244.2142	0.3163
244.4295	0.3067
244.6448	0.3035
244.86	0.2962
245.0753	0.2946
245.2905	0.2889
245.5057	0.2926
245.721	0.2916
245.9362	0.2836
246.1514	0.2638
246.3665	0.2692
246.5817	0.2475
246.7969	0.2452
247.012	0.2448
247.2271	0.2391
247.4423	0.2383
247.6574	0.2442
247.8725	0.2221
248.0876	0.217
248.3026	0.2217
248.5177	0.2263
248.7328	0.1965
248.9478	0.2137
249.1628	0.2126
249.3779	0.2186
249.5929	0.1995
249.8079	0.2305
250.0228	0.1986
250.2378	0.1971
250.4528	0.2153
250.6677	0.1842
250.8827	0.1979
251.0976	0.2047
251.3125	0.1744
251.5274	0.1684
251.7423	0.1731
251.9572	0.1758
252.172	0.1749
252.3869	0.1885
252.6017	0.1781
252.8166	0.1787
253.0314	0.1706
253.2462	0.1692
253.461	0.173
253.6758	0.1736
253.8906	0.1795
254.1053	0.1784
254.3201	0.1709
254.5348	0.1832
254.7496	0.1804
254.9643	0.1756
255.179	0.1676
255.3937	0.1809
255.6083	0.1749
255.823	0.1744
256.0377	0.168
256.2523	0.1698
256.467	0.1567
256.6816	0.1718
256.8962	0.1584
257.1108	0.1598
257.3254	0.1763
257.54	0.1659
257.7545	0.1728
257.9691	0.1685
258.1836	0.1703
258.3981	0.1712
258.6127	0.1731
258.8272	0.1616
259.0417	0.1771
259.2561	0.1588
259.4706	0.1708
259.6851	0.1658
259.8995	0.1641
260.114	0.1745
260.3284	0.1612
260.5428	0.1563
260.7572	0.1622
260.9716	0.172
261.186	0.1587
261.4003	0.1683
261.6147	0.1728
261.829	0.1835
262.0433	0.1663
262.2577	0.1551
262.472	0.1702
262.6863	0.1578
262.9005	0.1602
263.1148	0.1651
263.3291	0.155
263.5433	0.1601
263.7576	0.1556
263.9718	0.1486
264.186	0.1638
264.4002	0.1596
264.6144	0.1765
264.8286	0.1768
265.0427	0.1686
265.2569	0.1567
265.471	0.1446
265.6851	0.1598
265.8993	0.1557
266.1134	0.1529
266.3275	0.1544
266.5415	0.1482
266.7556	0.175
266.9697	0.1625
267.1837	0.1641
267.3978	0.1685
267.6118	0.1566
267.8258	0.1853
268.0398	0.1477
268.2538	0.1733
268.4677	0.1577
268.6817	0.1467
268.8957	0.1565
269.1096	0.1724
269.3235	0.167
269.5374	0.1524
269.7514	0.1553
269.9652	0.1551
270.1791	0.1538
270.393	0.1531
270.6068	0.1541
270.8207	0.1416
271.0345	0.1424
271.2483	0.156
271.4622	0.1465
271.676	0.1493
271.8897	0.1394
272.1035	0.1465
272.3173	0.1466
272.531	0.1487
272.7448	0.1487
272.9585	0.1321
273.1722	0.1443
273.3859	0.1426
273.5996	0.1421
273.8133	0.1497
274.0269	0.1329
274.2406	0.1436
274.4542	0.1512
274.6679	0.1482
274.8815	0.1504
275.0951	0.1499
275.3087	0.1427
275.5223	0.1558
275.7358	0.1413
275.9494	0.1481
276.1629	0.1403
276.3765	0.1472
276.59	0.1549
276.8035	0.1477
277.017	0.1435
277.2305	0.1529
277.444	0.1545
277.6574	0.137
277.8709	0.1409
278.0843	0.1419
278.2978	0.1407
278.5112	0.1474
278.7246	0.1435
278.938	0.1526
279.1513	0.1417
279.3647	0.1591
279.5781	0.1339
279.7914	0.1484
280.0047	0.1619
280.2181	0.148
280.4314	0.1523
280.6447	0.1577
280.8579	0.1499
281.0712	0.1584
281.2845	0.155
281.4977	0.1528
281.711	0.1471
281.9242	0.1558
282.1374	0.1548
282.3506	0.1513
282.5638	0.1583
282.7769	0.1591
282.9901	0.1515
283.2033	0.1637
283.4164	0.1685
283.6295	0.1421
283.8426	0.1561
284.0557	0.1521
284.2688	0.1677
284.4819	0.1584
284.695	0.1601
284.908	0.1572
285.1211	0.1479
285.3341	0.1658
285.5471	0.1647
285.7601	0.1552
285.9731	0.153
286.1861	0.149
286.3991	0.173
286.612	0.1667
286.825	0.1593
287.0379	0.1548
287.2508	0.1691
287.4637	0.1727
287.6766	0.1616
287.8895	0.1764
288.1024	0.1786
288.3152	0.171
288.5281	0.1588
288.7409	0.1653
288.9538	0.1602
289.1666	0.158
289.3794	0.1591
289.5922	0.1534
289.8049	0.1657
290.0177	0.1584
290.2304	0.178
290.4432	0.164
290.6559	0.1702
290.8686	0.1741
291.0813	0.1673
291.294	0.1709
291.5067	0.1831
291.7194	0.1626
291.932	0.1784
292.1447	0.1738
292.3573	0.1544
292.5699	0.163
292.7825	0.1697
292.9951	0.1609
293.2077	0.1697
293.4203	0.1669
293.6328	0.1623
293.8454	0.1744
294.0579	0.1648
294.2704	0.1658
294.4829	0.1619
294.6954	0.1745
294.9079	0.1671
295.1204	0.1666
295.3328	0.1664
295.5453	0.1657
295.7577	0.1621
295.9701	0.1542
296.1825	0.1689
296.3949	0.1618
296.6073	0.1594
296.8197	0.1593
297.0321	0.1688
297.2444	0.1625
297.4567	0.1721
297.6691	0.1601
297.8814	0.1554
298.0937	0.167
298.306	0.1794
298.5182	0.1661
298.7305	0.1646
298.9428	0.159
299.155	0.1738
299.3672	0.157
299.5794	0.165
299.7916	0.1674
300.0038	0.1715
300.216	0.1693
300.4282	0.1677
300.6403	0.1655
300.8525	0.17
301.0646	0.1656
301.2767	0.1724
301.4888	0.1657
301.7009	0.1618
301.913	0.1573
302.125	0.1735
302.3371	0.1667
302.5491	0.1634
302.7612	0.164
302.9732	0.1671
303.1852	0.1696
303.3972	0.1553
303.6092	0.1539
303.8211	0.1537
304.0331	0.1599
304.245	0.1576
304.457	0.1606
304.6689	0.1701
304.8808	0.1752
305.0927	0.1433
305.3046	0.1548
305.5164	0.1514
305.7283	0.1591
305.9401	0.1494
306.152	0.1434
306.3638	0.1571
306.5756	0.1447
306.7874	0.1478
306.9992	0.1448
307.2109	0.1379
307.4227	0.1331
307.6344	0.1431
307.8462	0.14
308.0579	0.1398
308.2696	0.1345
308.4813	0.1292
308.693	0.1263
308.9046	0.1389
309.1163	0.1386
309.328	0.1366
309.5396	0.1224
309.7512	0.1245
309.9628	0.1258
310.1744	0.1244
310.386	0.1228
310.5976	0.1207
310.8091	0.1162
311.0207	0.1229
311.2322	0.1232
311.4437	0.1173
311.6552	0.1183
311.8667	0.1181
312.0782	0.0953
312.2897	0.1077
312.5012	0.1262
312.7126	0.1025
312.924	0.1065
313.1355	0.1105
313.3469	0.1253
313.5583	0.1081
313.7696	0.1103
313.981	0.1079
314.1924	0.1056
314.4037	0.0999
314.6151	0.1158
314.8264	0.1045
315.0377	0.106
315.249	0.1138
315.4603	0.102
315.6716	0.1029
315.8828	0.0974
316.0941	0.1059
316.3053	0.1002
316.5165	0.1013
316.7277	0.094
316.9389	0.1115
317.1501	0.093
317.3613	0.1093
317.5724	0.0957
317.7836	0.1121
317.9947	0.1026
318.2058	0.0925
318.417	0.0889
318.6281	0.0855
318.8391	0.0982
319.0502	0.1074
319.2613	0.1064
319.4723	0.1071
319.6834	0.1037
319.8944	0.1002
320.1054	0.0979
320.3164	0.0955
320.5274	0.0926
320.7383	0.0967
320.9493	0.101
321.1602	0.1131
321.3712	0.099
321.5821	0.099
321.793	0.0988
322.0039	0.1039
322.2148	0.1014
322.4257	0.1029
322.6365	0.1063
322.8474	0.1048
323.0582	0.1025
323.269	0.1
323.4798	0.1176
323.6906	0.1054
323.9014	0.1063
324.1122	0.1081
324.3229	0.0981
324.5337	0.0957
324.7444	0.091
324.9551	0.0962
325.1658	0.0998
325.3765	0.1083
325.5872	0.1023
325.7979	0.0926
326.0085	0.1035
326.2192	0.1158
326.4298	0.1046
326.6404	0.1021
326.851	0.0896
327.0616	0.0916
327.2722	0.1001
327.4828	0.113
327.6933	0.0985
327.9039	0.1161
328.1144	0.1207
328.3249	0.1017
328.5354	0.1073
328.7459	0.1123
328.9564	0.0931
329.1669	0.0986
329.3773	0.1078
329.5878	0.1012
329.7982	0.1055
330.0086	0.1055
330.219	0.1163
330.4294	0.1043
330.6398	0.1122
330.8502	0.1071
331.0605	0.1097
331.2708	0.108
331.4812	0.1091
331.6915	0.1124
331.9018	0.1215
332.1121	0.0986
332.3224	0.1063
332.5326	0.1084
332.7429	0.1097
332.9531	0.1223
333.1633	0.1101
333.3735	0.1104
333.5837	0.1036
333.7939	0.1034
334.0041	0.1222
334.2143	0.1165
334.4244	0.1132
334.6346	0.0922
334.8447	0.127
335.0548	0.1102
335.2649	0.1072
335.475	0.1203
335.685	0.1132
335.8951	0.125
336.1051	0.1226
336.3152	0.1204
336.5252	0.1046
336.7352	0.1072
336.9452	0.1229
337.1552	0.1119
337.3652	0.1127
337.5751	0.106
337.7851	0.1231
337.995	0.1003
338.2049	0.1146
338.4148	0.118
338.6247	0.1182
338.8346	0.0942
339.0445	0.1129
339.2543	0.1222
339.4642	0.1077
339.674	0.1026
339.8838	0.1103
340.0936	0.1142
340.3034	0.1322
340.5132	0.1189
340.7229	0.1264
340.9327	0.1161
341.1424	0.1216
341.3522	0.1325
341.5619	0.1197
341.7716	0.1156
341.9813	0.1311
342.1909	0.1203
342.4006	0.1242
342.6102	0.1337
342.8199	0.1207
343.0295	0.1206
343.2391	0.125
343.4487	0.1344
343.6583	0.1236
343.8679	0.1163
344.0774	0.1288
344.287	0.1283
344.4965	0.1161
344.706	0.1409
344.9155	0.1192
345.125	0.1185
345.3345	0.1397
345.544	0.1176
345.7534	0.1317
345.9629	0.1212
346.1723	0.1352
346.3817	0.1377
346.5911	0.132
346.8005	0.1296
347.0099	0.1397
347.2193	0.1445
347.4286	0.1302
347.638	0.1451
347.8473	0.1437
348.0566	0.1441
348.2659	0.143
348.4752	0.1337
348.6845	0.1406
348.8937	0.1239
349.103	0.1351
349.3122	0.1224
349.5214	0.1318
349.7306	0.1398
349.9398	0.1375
350.149	0.135
350.3582	0.1359
350.5674	0.13
350.7765	0.1348
350.9856	0.1411
351.1948	0.1519
351.4039	0.1198
351.613	0.1487
351.822	0.1485
352.0311	0.1473
352.2402	0.1413
352.4492	0.1611
352.6582	0.1667
352.8672	0.1391
353.0762	0.1595
353.2852	0.1494
353.4942	0.1331
353.7032	0.156
353.9121	0.161
354.1211	0.1573
354.33	0.1578
354.5389	0.1535
354.7478	0.1548
354.9567	0.1489
355.1655	0.1512
355.3744	0.1588
355.5833	0.1618
355.7921	0.1718
356.0009	0.152
356.2097	0.1706
356.4185	0.1656
356.6273	0.1673
356.8361	0.1617
357.0448	0.1634
357.2536	0.1586
357.4623	0.1539
357.671	0.1678
357.8797	0.1678
358.0884	0.1668
358.2971	0.1691
358.5057	0.1678
358.7144	0.1661
358.923	0.1753
359.1316	0.1666
359.3402	0.172
359.5488	0.1752
359.7574	0.1729
359.966	0.1784
360.1746	0.1655
360.3831	0.1844
360.5916	0.1818
360.8002	0.166
361.0087	0.1884
361.2172	0.1868
361.4256	0.1774
361.6341	0.191
361.8426	0.1731
362.051	0.1938
362.2594	0.1769
362.4678	0.1697
362.6762	0.202
362.8846	0.2017
363.093	0.1848
363.3014	0.1856
363.5097	0.172
363.718	0.1973
363.9264	0.202
364.1347	0.1857
364.343	0.1977
364.5513	0.2089
364.7595	0.2138
364.9678	0.2
365.176	0.1975
365.3842	0.1892
365.5925	0.1962
365.8007	0.2001
366.0089	0.2013
366.217	0.1966
366.4252	0.2098
366.6333	0.2039
366.8415	0.196
367.0496	0.1851
367.2577	0.2081
367.4658	0.2277
367.6739	0.2088
367.882	0.2168
368.09	0.2037
368.2981	0.2107
368.5061	0.2012
368.7141	0.2104
368.9221	0.2215
369.1301	0.2214
369.3381	0.2078
369.5461	0.2241
369.754	0.2141
369.962	0.2226
370.1699	0.2282
370.3778	0.2326
370.5857	0.2148
370.7936	0.2177
371.0015	0.2226
371.2093	0.2246
371.4172	0.2308
371.625	0.214
371.8328	0.2192
372.0406	0.2376
372.2484	0.2181
372.4562	0.2167
372.664	0.2338
372.8717	0.2416
373.0795	0.2137
373.2872	0.2326
373.4949	0.2195
373.7026	0.2338
373.9103	0.2374
374.118	0.2206
374.3256	0.236
374.5333	0.2121
374.7409	0.2134
374.9485	0.2454
375.1561	0.2412
375.3637	0.242
375.5713	0.252
375.7789	0.2209
375.9864	0.2359
376.194	0.2239
376.4015	0.2599
376.609	0.2413
376.8165	0.2372
377.024	0.2347
377.2315	0.2222
377.4389	0.2513
377.6464	0.2459
377.8538	0.2444
378.0612	0.2447
378.2686	0.2579
378.476	0.2536
378.6834	0.2597
378.8908	0.2466
379.0981	0.2376
379.3055	0.25
379.5128	0.244
379.7201	0.2509
379.9274	0.2335
380.1347	0.238
380.342	0.276
380.5492	0.2411
380.7565	0.2484
380.9637	0.256
381.1709	0.2428
381.3781	0.2551
381.5853	0.2742
381.7925	0.2592
381.9997	0.2587
382.2068	0.2679
382.4139	0.2674
382.6211	0.2429
382.8282	0.2479
383.0353	0.2586
383.2424	0.2563
383.4494	0.2558
383.6565	0.2632
383.8635	0.2581
384.0706	0.2534
384.2776	0.2533
384.4846	0.2475
384.6916	0.2596
384.8986	0.2616
385.1055	0.2592
385.3125	0.2603
385.5194	0.2406
385.7263	0.2711
385.9333	0.2594
386.1402	0.2634
386.347	0.2564
386.5539	0.2416
386.7608	0.2735
386.9676	0.2455
387.1744	0.2637
387.3813	0.2387
387.5881	0.2654
387.7948	0.2511
388.0016	0.2485
388.2084	0.2372
388.4151	0.2511
388.6219	0.2652
388.8286	0.2538
389.0353	0.2711
389.242	0.2544
389.4487	0.2598
389.6553	0.2434
389.862	0.2217
390.0686	0.2475
390.2753	0.257
390.4819	0.2635
390.6885	0.2358
390.8951	0.2603
391.1016	0.2386
391.3082	0.2331
391.5147	0.2545
391.7213	0.2345
391.9278	0.2338
392.1343	0.2334
392.3408	0.2304
392.5473	0.233
392.7537	0.2223
392.9602	0.2406
393.1666	0.2397
393.373	0.2564
393.5794	0.2508
393.7858	0.2517
393.9922	0.2252
394.1986	0.2501
394.4049	0.2311
394.6113	0.2166
394.8176	0.2259
395.0239	0.2216
395.2302	0.2226
395.4365	0.2217
395.6428	0.2182
395.8491	0.2136
396.0553	0.2202
396.2615	0.2296
396.4678	0.2243
396.674	0.2081
396.8802	0.2112
397.0863	0.2442
397.2925	0.2214
397.4987	0.2186
397.7048	0.2109
397.9109	0.2272
398.117	0.2176
398.3231	0.2125
398.5292	0.2193
398.7353	0.2444
398.9413	0.2295
399.1474	0.2203
399.3534	0.2076
399.5594	0.1951
399.7654	0.2288
399.9714	0.2244
400.1774	0.221
400.3833	0.2023
400.5893	0.1991
400.7952	0.2028
401.0011	0.2206
401.207	0.2164
401.4129	0.2211
401.6188	0.201
401.8247	0.2132
402.0305	0.2025
402.2364	0.2257
402.4422	0.2036
402.648	0.2306
402.8538	0.2367
403.0596	0.2141
403.2654	0.2267
403.4711	0.2102
403.6768	0.2148
403.8826	0.2163
404.0883	0.2056
404.294	0.2277
404.4997	0.2155
404.7054	0.2154
404.911	0.2152
405.1167	0.2183
405.3223	0.2153
405.5279	0.2302
405.7335	0.2293
405.9391	0.2327
406.1447	0.2105
406.3502	0.2355
406.5558	0.2205
406.7613	0.248
406.9668	0.2209
407.1724	0.209
407.3778	0.2049
407.5833	0.223
407.7888	0.1985
407.9942	0.2284
408.1997	0.2184
408.4051	0.2185
408.6105	0.2078
408.8159	0.2155
409.0213	0.1989
409.2267	0.2271
409.432	0.2121
409.6374	0.2196
409.8427	0.2038
410.048	0.2163
410.2533	0.2139
410.4586	0.2031
410.6639	0.2137
410.8691	0.2242
411.0744	0.1982
411.2796	0.2197
411.4848	0.2011
411.69	0.2018
411.8952	0.2491
412.1004	0.2062
412.3056	0.2219
412.5107	0.2154
412.7158	0.2249
412.921	0.2115
413.1261	0.2125
413.3312	0.1939
413.5362	0.1956
413.7413	0.2143
413.9464	0.1999
414.1514	0.194
414.3564	0.2079
414.5614	0.1976
414.7664	0.1924
414.9714	0.2239
415.1764	0.202
415.3813	0.2287
415.5863	0.2086
415.7912	0.2102
415.9961	0.2031
416.201	0.1986
416.4059	0.1988
416.6108	0.1963
416.8156	0.2323
417.0205	0.1956
417.2253	0.1999
417.4301	0.1969
417.6349	0.2008
417.8397	0.1813
418.0445	0.2137
418.2492	0.2088
418.454	0.2066
418.6587	0.2166
418.8634	0.1903
419.0681	0.207
419.2728	0.1857
419.4775	0.2003
419.6822	0.1955
419.8868	0.1716
420.0915	0.201
420.2961	0.198
420.5007	0.1789
420.7053	0.1858
420.9099	0.2014
421.1144	0.1916
421.319	0.1761
421.5235	0.1851
421.728	0.201
421.9325	0.183
422.137	0.1954
422.3415	0.1792
422.546	0.1983
422.7504	0.1984
422.9549	0.1849
423.1593	0.1944
423.3637	0.2035
423.5681	0.1709
423.7725	0.1838
423.9769	0.1683
424.1812	0.1717
424.3856	0.1737
424.5899	0.1856
424.7942	0.1583
424.9985	0.1856
425.2028	0.1847
425.4071	0.2128
425.6113	0.1654
425.8156	0.1785
426.0198	0.1831
426.224	0.1605
426.4282	0.1592
426.6324	0.1808
426.8366	0.182
427.0407	0.1658
427.2449	0.1794
427.449	0.1813
427.6531	0.1705
427.8572	0.1612
428.0613	0.1537
428.2654	0.1773
428.4694	0.1399
428.6735	0.159
428.8775	0.1712
429.0815	0.154
429.2855	0.1342
429.4895	0.1619
429.6935	0.1417
429.8975	0.15
430.1014	0.1501
430.3053	0.1328
430.5093	0.1422
430.7132	0.1375
430.9171	0.1574
431.1209	0.1407
431.3248	0.1326
431.5286	0.147
431.7325	0.1363
431.9363	0.1312
432.1401	0.1538
432.3439	0.1233
432.5477	0.1113
432.7514	0.131
432.9552	0.1222
433.1589	0.1167
433.3627	0.1144
433.5664	0.1248
433.7701	0.1171
433.9737	0.1222
434.1774	0.1071
434.3811	0.1209
434.5847	0.1345
434.7883	0.1218
434.9919	0.1114
435.1955	0.1073
435.3991	0.128
435.6027	0.1065
435.8062	0.1136
436.0098	0.1022
436.2133	0.0967
436.4168	0.1116
436.6203	0.1088
436.8238	0.1116
437.0272	0.1043
437.2307	0.102
437.4341	0.0986
437.6375	0.1128
437.841	0.08
438.0443	0.1005
438.2477	0.0921
438.4511	0.0837
438.6545	0.0992
438.8578	0.0949
439.0611	0.0991
439.2644	0.0881
439.4677	0.0872
439.671	0.0813
439.8743	0.0904
440.0775	0.0755
440.2808	0.0733
440.484	0.0639
440.6872	0.0756
440.8904	0.076
441.0936	0.0911
441.2967	0.0743
441.4999	0.0758
441.703	0.0687
441.9062	0.0682
442.1093	0.0687
442.3124	0.0775
442.5155	0.0617
442.7185	0.0674
442.9216	0.0501
443.1246	0.0868
443.3276	0.0601
443.5307	0.0635
443.7337	0.0612
443.9366	0.052
444.1396	0.0621
444.3426	0.0597
444.5455	0.0678
444.7484	0.0469
444.9513	0.0425
445.1542	0.0538
445.3571	0.0529
445.56	0.056
445.7628	0.0376
445.9657	0.0517
446.1685	0.046
446.3713	0.0507
446.5741	0.0499
446.7769	0.0413
446.9797	0.0456
447.1824	0.0474
447.3852	0.0403
447.5879	0.0461
447.7906	0.0601
447.9933	0.0363
448.196	0.0277
448.3986	0.0437
448.6013	0.039
448.8039	0.0258
449.0066	0.0252
449.2092	0.035
449.4118	0.0423
449.6143	0.0374
449.8169	0.0371
450.0195	0.0239
450.222	0.0181
450.4245	0.0187
450.627	0.0356
450.8295	0.0321
451.032	0.0378
451.2345	0.0332
451.4369	0.0361
451.6394	0.0263
451.8418	0.004
452.0442	0.0208
452.2466	0.0521
452.449	0.007
452.6513	0.0263
452.8537	0.0223
453.056	0.0151
453.2583	0.0163
453.4607	0.0236
453.663	0.0147
453.8652	0.0377
454.0675	0.0112
454.2697	0.0177
454.472	0.0189
454.6742	0.0396
454.8764	0.0148
455.0786	0.0282
455.2808	0.0258
455.4829	0.0148
455.6851	0.0156
455.8872	0.0186
456.0893	0.0204
456.2915	0.0029
456.4935	0.0127
456.6956	0.0133
456.8977	0.0258
457.0997	0.0017
457.3018	0.0019
457.5038	0.0194
457.7058	0.0115
457.9078	0.002
458.1098	0.0068
458.3117	0.0137
458.5137	0.0279
458.7156	0.0288
458.9175	0.0092
459.1194	0.006
459.3213	0.0028
459.5232	0.0031
459.725	-0.0033
459.9269	0.005
460.1287	0.0059
460.3305	-0.0022
460.5323	0.0082
460.7341	-0.0028
460.9359	0.0104
461.1376	0.0211
461.3394	0.0173
461.5411	0.0017
461.7428	0.0005
461.9445	0.027
462.1462	0.0143
462.3479	0.0095
462.5495	0.0058
462.7512	0.0211
462.9528	0.006
463.1544	-0.0118
463.356	-0.0003
463.5576	0.0049
463.7592	-0.0053
463.9607	0.0191
464.1623	0.0223
464.3638	0.0156
464.5653	-0.0091
464.7668	0.0045
464.9683	0.0162
465.1697	0.0204
465.3712	0.0001
465.5726	-0.0045
465.7741	-0.0077
465.9755	0.0029
466.1769	-0.007
466.3782	0.0033
466.5796	-0.0161
466.7809	0.0135
466.9823	-0.0033
467.1836	-0.0101
467.3849	-0.0028
467.5862	0.0088
467.7875	0.011
467.9887	0.0127
468.19	-0.0142
468.3912	-0.0104
468.5924	-0.0111
468.7936	0.0005
468.9948	0.0008
469.196	0.008
469.3972	-0.0069
469.5983	0.0194
469.7994	-0.0076
470.0006	0.0033
470.2017	-0.0148
470.4027	-0.0053
470.6038	0.005
470.8049	-0.0039
471.0059	0.0095
471.2069	-0.0023
471.408	0.0145
471.6089	0.0061
471.8099	0.0002
472.0109	0.0131
472.2119	-0.0143
472.4128	-0.0006
472.6137	0.0053
472.8146	-0.0139
473.0155	-0.0062
473.2164	0.0101
473.4173	0.005
473.6181	0.0037
473.819	0.0219
474.0198	-0.0006
474.2206	0.0017
474.4214	-0.0088
474.6222	0.0134
474.8229	-0.0108
475.0237	-0.0191
475.2244	-0.006
475.4251	-0.0037
475.6258	0.0059
475.8265	-0.0014
476.0272	0.0133
476.2278	0.0031
476.4285	0.003
476.6291	-0.0011
476.8297	-0.001
477.0303	-0.0044
477.2309	-0.0009
477.4315	-0.0102
477.632	0.0041
477.8326	-0.0071
478.0331	0.0024
478.2336	0.0008
478.4341	-0.0048
478.6346	-0.0078
478.8351	0.007
479.0355	0.0004
479.236	-0.0053
479.4364	0.0018
479.6368	0.0026
479.8372	-0.0087
480.0376	-0.0117
480.2379	-0.0166
480.4383	-0.0066
480.6386	-0.0069
480.8389	0.0034
481.0392	-0.0132
481.2395	0.0046
481.4398	0.0075
481.6401	0.0127
481.8403	0.0019
482.0405	-0.0091
482.2408	-0.0125
482.441	0.0071
482.6411	-0.0005
482.8413	-0.0007
483.0415	0.0003
483.2416	0.0036
483.4417	-0.0051
483.6419	-0.0065
483.8419	-0.0054
484.042	0.0038
484.2421	0.0046
484.4422	-0.0018
484.6422	-0.0057
484.8422	-0.0088
485.0422	-0.0139
485.2422	0.004
485.4422	-0.0031
485.6422	-0.0204
485.8421	-0.0069
486.042	-0.0005
486.242	-0.0043
486.4419	-0.0121
486.6417	-0.0059
486.8416	-0.0051
487.0415	-0.001
487.2413	-0.0029
487.4411	0.0002
487.641	-0.0135
487.8408	0.0025
488.0405	-0.0036
488.2403	0.0025
488.4401	0.0141
488.6398	0.0097
488.8395	-0.0041
489.0392	0.0057
489.2389	-0.0061
489.4386	-0.0084
489.6383	-0.005
489.8379	0.0069
490.0376	-0
490.2372	-0.0049
490.4368	-0.0174
490.6364	-0.0088
490.836	-0.005
491.0355	-0.0012
491.2351	-0.0046
491.4346	-0.0031
491.6341	-0.0153
491.8336	0.0043
492.0331	-0.0249
492.2326	-0.0008
492.432	0.0003
492.6315	-0.0158
492.8309	-0.0085
493.0303	-0.0099
493.2297	-0.0121
493.4291	-0.0026
493.6284	0.0032
493.8278	-0.0069
494.0271	-0.0053
494.2264	0.01
494.4257	-0.0073
494.625	0.0034
494.8243	-0.017
495.0236	-0.0103
495.2228	-0.0113
495.422	0.0075
495.6213	-0.0077
495.8205	-0.0007
496.0196	-0.0125
496.2188	0.005
496.418	-0.0146
496.6171	-0.0038
496.8162	-0.0076
497.0153	0.0055
497.2144	-0.0075
497.4135	0.0137
497.6126	-0.0089
497.8116	-0.0082
498.0107	0.004
498.2097	-0.0185
498.4087	-0.0185
498.6077	0.0023
498.8067	-0.0097
499.0056	-0.0097
499.2046	-0.0023
499.4035	-0.0168
499.6024	-0.0047
499.8013	0.0014
500.0002	-0.0168
500.199	-0.0018
500.3979	0.0005
500.5967	-0.0131
500.7956	0.0042
500.9944	-0.003
501.1932	-0.0131
501.3919	-0.0148
501.5907	-0.0095
501.7895	-0.0041
501.9882	-0.0076
502.1869	-0.0076
502.3856	-0.0037
502.5843	-0.0117
502.783	-0.0025
502.9816	-0.0137
503.1803	-0.0134
503.3789	-0.0152
503.5775	0.0096
503.7761	-0.007
503.9747	-0.0061
504.1732	-0.0073
504.3718	-0.0023
504.5703	-0.0119
504.7689	-0.0067
504.9674	-0.0016
505.1658	-0.0119
505.3643	-0.0038
505.5628	-0.0071
505.7612	-0.0111
505.9597	0.007
506.1581	-0.0076
506.3565	0.0076
506.5549	-0.0044
506.7532	-0.0138
506.9516	-0.0006
507.1499	0.0032
507.3482	-0.0148
507.5465	-0.0111
507.7448	-0.0022
507.9431	-0.0082
508.1414	-0.0012
508.3396	-0.0063
508.5379	0.0032
508.7361	-0.0091
508.9343	0.0006
509.1325	-0.0057
509.3306	0.0049
509.5288	-0.0005
509.7269	-0.0087
509.9251	0.0008
510.1232	-0.0081
510.3213	-0.0018
510.5193	-0.0027
510.7174	-0.0085
510.9154	-0.0076
511.1135	-0.0156
511.3115	-0.006
511.5095	0.0059
511.7075	-0.0077
511.9055	0.0008
512.1034	-0.0032
512.3014	-0.0089
512.4993	0.0016
512.6972	-0.007
512.8951	-0.0133
513.093	0.0012
513.2908	-0.0042
513.4887	-0.0036
513.6865	-0.0055
513.8844	-0.0016
514.0822	-0.0124
514.2799	-0.0082
514.4777	-0.0044
514.6755	-0.0199
514.8732	-0.0207
515.0709	-0.0018
515.2687	-0.0098
515.4664	-0.0111
515.664	-0.0101
515.8617	-0.0147
516.0594	-0.0189
516.257	0.0001
516.4546	-0.0104
516.6522	-0.0011
516.8498	0.0061
517.0474	0.0066
517.2449	0.0051
517.4425	-0.0118
517.64	-0.0103
517.8375	0.0067
518.035	0.0042
518.2325	-0.0072
518.43	-0.0041
518.6274	-0.0093
518.8249	-0.0081
519.0223	-0.0021
519.2197	-0.0146
519.4171	0.0032
519.6145	-0.0122
519.8118	-0.002
520.0092	0.0013
520.2065	-0.0102
520.4038	-0.0104
520.6011	-0.0007
520.7984	-0.008
520.9956	-0.0194
521.1929	-0.0154
521.3901	0.0055
521.5874	-0.0121
521.7846	0.0023
521.9818	-0.0061
522.1789	-0.0044
522.3761	-0.0106
522.5732	-0.0031
522.7704	-0.0022
522.9675	-0.0017
523.1646	-0.0117
523.3617	0.0078
523.5587	0.0029
523.7558	-0
523.9528	-0.0094
524.1498	-0.002
524.3468	-0.0004
524.5438	-0.0045
524.7408	-0.0088
524.9378	0.0057
525.1347	-0.0038
525.3316	0.002
525.5285	-0.0063
525.7254	-0.0061
525.9223	-0.0027
526.1192	-0.0015
526.316	-0.012
526.5129	0.0077
526.7097	-0.002
526.9065	0.0042
527.1033	-0.0043
527.3	-0.0029
527.4968	0.0112
527.6935	-0.0014
527.8903	-0.011
528.087	-0.0042
528.2837	-0.0025
528.4804	-0.0025
528.677	-0.0036
528.8737	0.0046
529.0703	-0.0001
529.2669	-0.0037
529.4635	-0.005
529.6601	0.0004
529.8567	-0.0058
530.0532	-0.0123
530.2498	0.0108
530.4463	0.0004
530.6428	-0.0082
530.8393	-0.0043
531.0358	-0.0048
531.2322	-0.0051
531.4287	-0.0009
531.6251	0.0002
531.8215	-0.001
532.0179	0.002
532.2143	0.0027
532.4107	0.0061
532.607	-0.0053
532.8034	-0.0013
532.9997	-0.01
533.196	-0.0024
533.3923	-0.0057
533.5886	-0.0056
533.7848	0
533.9811	0.0066
534.1773	0.0026
534.3735	0.0079
534.5697	-0.0047
534.7659	0.0012
534.9621	-0.0003
535.1582	-0.0022
535.3544	-0.0058
535.5505	-0.0114
535.7466	-0.0043
535.9427	-0.004
536.1387	-0.0114
536.3348	-0.0135
536.5308	0.0065
536.7269	-0.0123
536.9229	-0.0068
537.1189	-0.002
537.3148	-0.0046
537.5108	-0.0106
537.7068	-0.003
537.9027	-0.0043
538.0986	-0.0061
538.2945	-0.0058
538.4904	0.0021
538.6863	-0.0048
538.8821	-0.0045
539.078	-0.0027
539.2738	0.0019
539.4696	-0.007
539.6654	0.0019
539.8611	0.0074
540.0569	0.0001
540.2526	-0.0069
540.4484	0.0051
540.6441	0.0092
540.8398	0.0025
541.0355	0.0115
541.2311	-0.0063
541.4268	-0.0074
541.6224	0.0034
541.818	0.001
542.0136	-0.009
542.2092	0.005
542.4048	0.0001
542.6003	-0.005
542.7959	0.0015
542.9914	-0.0047
543.1869	0
543.3824	0.0013
543.5779	-0.0028
543.7734	0.0018
543.9688	-0.0002
544.1642	0.0103
544.3596	0.0015
544.555	-0.0035
544.7504	-0.0007
544.9458	-0.0055
545.1411	0.0045
545.3365	0.0023
545.5318	-0.0068
545.7271	0.0003
545.9224	-0.0043
546.1177	0.0058
546.3129	0.003
546.5081	-0.0031
546.7034	0.0014
546.8986	-0.0027
547.0938	0.0007
547.289	-0.0059
547.4841	-0.002
547.6793	0.0081
547.8744	-0.0052
548.0695	-0.0004
548.2646	-0.0017
548.4597	0.0022
548.6548	-0.0014
548.8498	0.0015
549.0448	0.0045
549.2399	0.0005
549.4349	0.0176
549.6298	-0.0007
549.8248	-0
550.0198	0.0001
550.2147	-0.0002
550.4096	-0.0116
550.6045	-0.0045
550.7994	0.0078
550.9943	-0.0002
551.1892	0.0007
551.384	0.0067
551.5788	-0.0066
551.7737	0.002
551.9685	-0.0088
552.1632	-0.0014
552.358	-0.0049
552.5528	-0.0017
552.7475	0.0031
552.9422	-0.0009
553.1369	-0.0001
553.3316	-0.0004
553.5263	-0.0067
553.7209	0.0054
553.9156	-0.0027
554.1102	-0.0069
554.3048	-0.0019
554.4994	0.004
554.694	-0.0039
554.8885	0.0041
555.0831	-0.0026
555.2776	-0.0022
555.4721	0.0017
555.6666	0.0024
555.8611	0.0077
556.0555	0.0009
556.25	-0.0027
556.4444	-0.0087
556.6388	0.0027
556.8332	0.0095
557.0276	-0.0007
557.222	-0.0015
557.4163	0.0015
557.6107	-0.0041
557.805	0.0006
557.9993	-0.0043
558.1936	0.0029
558.3879	-0.0014
558.5821	-0.0035
558.7764	-0.0036
558.9706	0.0032
559.1648	0.005
559.359	-0.0057
559.5532	-0.005
559.7473	-0.0013
559.9415	0.0011
560.1356	-0.0149
560.3297	-0.0122
560.5238	0.0027
560.7179	-0.0088
560.9119	-0.0071
561.106	0.0018
561.3	-0.0103
561.494	-0.0054
561.688	-0.0008
561.882	-0.0122
562.076	-0.002
562.2699	-0.0031
562.4639	-0.0069
562.6578	0.0028
562.8517	-0.0003
563.0456	-0.0031
563.2395	0.001
563.4333	0.0071
563.6272	0.0067
563.821	-0.0116
564.0148	-0.0063
564.2086	-0.0082
564.4024	-0.0031
564.5961	0.0021
564.7899	0.0088
564.9836	-0.0042
565.1773	0.0095
565.371	0.01
565.5647	0.0021
565.7584	0.0014
565.952	0.0052
566.1456	0.0008
566.3393	0.0023
566.5329	-0.0014
566.7264	-0.0031
566.92	0
567.1136	0.0081
567.3071	0.0007
567.5006	0.0029
567.6941	0.0079
567.8876	0.0009
568.0811	0.0001
568.2745	-0.0029
568.468	0.0059
568.6614	0.0047
568.8548	0.0078
569.0482	-0.0013
569.2416	-0.0011
569.4349	-0.0013
569.6283	0.0098
569.8216	-0.003
570.0149	-0.0029
570.2082	0.0048
570.4015	0.0019
570.5947	0.0054
570.788	0.006
570.9812	0.0113
571.1744	-0.0001
571.3676	-0.0065
571.5608	0.0028
571.754	0.0019
571.9471	0.0027
572.1402	0.002
572.3333	-0.0003
572.5264	0.0014
572.7195	-0.0064
572.9126	0.004
573.1057	0.002
573.2987	0.0045
573.4917	0.0039
573.6847	-0.003
573.8777	0.0016
574.0707	0.0093
574.2636	0.0006
574.4566	-0.0006
574.6495	0.0068
574.8424	-0.0021
575.0353	0.0059
575.2281	0.0081
575.421	-0.0004
575.6138	0.003
575.8067	0.0046
575.9995	0.0051
576.1923	0.0055
576.385	0.0056
576.5778	-0.0024
576.7706	0.0055
576.9633	0.0049
577.156	0.005
577.3487	-0.0012
577.5414	0.0026
577.734	0.0007
577.9267	0.0107
578.1193	-0.0036
578.3119	-0.0035
578.5045	0.0077
578.6971	0.0055
578.8897	0.0122
579.0822	0.0022
579.2747	-0.0015
579.4673	-0.0101
579.6598	0.0021
579.8522	-0.0041
580.0447	-0.003
580.2372	-0.0021
580.4296	0.0059
580.622	0.0036
580.8144	0.0056
581.0068	0.0014
581.1992	-0.0061
581.3915	-0.0022
581.5839	-0.0068
581.7762	-0.007
581.9685	0.0045
582.1608	0.0032
582.353	0.004
582.5453	0.0012
582.7375	0.0059
582.9298	0.004
583.122	-0.0001
583.3142	-0.0029
583.5063	-0.0001
583.6985	-0.0014
583.8906	0.0018
584.0827	-0.0014
584.2749	0.0083
584.4669	-0.0025
584.659	0.0048
584.8511	-0.0035
585.0431	0.0006
585.2352	-0.0003
585.4272	0.0001
585.6192	0.0054
585.8111	0.0077
586.0031	-0.0092
586.195	0.003
586.387	0.0067
586.5789	0.0052
586.7708	0.0074
586.9627	0.0029
587.1545	-0.0027
587.3464	0.0079
587.5382	0.0054
587.73	0.0083
587.9218	0.0075
588.1136	-0.0038
588.3053	0.0098
588.4971	-0.0059
588.6888	-0.0045
588.8805	0.0005
589.0722	0.0035
589.2639	-0.0025
589.4556	0.0014
589.6472	-0.0027
589.8389	-0.0025
590.0305	-0.011
590.2221	-0.0036
590.4137	-0.0095
590.6052	0.011
590.7968	0.0058
590.9883	0.0031
591.1798	0.0056
591.3713	0.0061
591.5628	0.0002
591.7543	0.0003
591.9458	-0.0055
592.1372	0.0008
592.3286	0.0066
592.52	0.0051
592.7114	0.0067
592.9028	-0.0021
593.0941	0.001
593.2855	0.004
593.4768	-0.0058
593.6681	-0.0004
593.8594	-0.0051
594.0506	0.0046
594.2419	0.0091
594.4331	0.0053
594.6244	0.0054
594.8156	-0.0036
595.0067	0.0027
595.1979	-0.0049
595.3891	0.002
595.5802	-0.002
595.7713	-0.004
595.9624	-0.0047
596.1535	0.0088
596.3446	-0.0047
596.5357	0.0001
596.7267	0.0049
596.9177	-0.0018
597.1087	-0.0013
597.2997	-0.0062
597.4907	0.0054
597.6817	-0.0041
597.8726	0.0046
598.0635	0.0007
598.2544	-0.0045
598.4453	-0.0005
598.6362	-0.0056
598.827	-0.0033
599.0179	0.0024
599.2087	0.0027
599.3995	-0.0006
599.5903	0.0021
599.7811	0.0025
599.9718	-0.0022
600.1626	-0.0022
600.3533	-0.0048
600.544	0.0008
600.7347	-0.0003
600.9254	0.0068
601.116	-0.0124
601.3067	-0.0002
601.4973	-0.0019
601.6879	0.0037
601.8785	-0.0039
602.0691	0.0064
602.2596	0.0073
602.4502	0.0061
602.6407	0.0044
602.8312	0.0023
603.0217	-0.0032
603.2122	0.0008
603.4027	0.0042
603.5931	-0.0028
603.7835	-0.0026
603.9739	-0.0017
604.1643	-0.0061
604.3547	-0.0048
604.5451	0.0001
604.7354	0.0004
604.9257	0.0054
605.116	-0.0016
605.3063	0.0034
605.4966	0.0006
605.6869	-0.0009
605.8771	0.0131
606.0673	0.0026
606.2575	0.0057
606.4477	0.0085
606.6379	0.0035
606.8281	0.0012
607.0182	-0.0004
607.2083	0.0094
607.3985	-0.0052
607.5885	0.0046
607.7786	0.0001
607.9687	-0.0049
608.1587	0.0106
608.3488	0.001
608.5388	0.0022
608.7288	-0.005
608.9187	-0.0031
609.1087	-0.0004
609.2986	-0.0031
609.4886	-0.0002
609.6785	-0.0042
609.8684	0.0019
610.0582	0.0058
610.2481	0.007
610.4379	0.0063
610.6278	-0.0015
610.8176	-0.0022
611.0074	-0.001
611.1971	-0.0106
611.3869	0.0054
611.5766	-0.0089
611.7664	0.006
611.9561	-0.0006
612.1458	0.0083
612.3354	-0.0041
612.5251	-0.0023
612.7147	0.0044
612.9044	0.0102
613.094	-0.0047
613.2836	0.0045
613.4731	0.0024
613.6627	-0.0003
613.8522	0.0082
614.0417	0.0076
614.2313	-0.0019
614.4207	-0.0067
614.6102	0.0046
614.7997	-0.0031
614.9891	-0.0049
615.1785	0.0011
615.3679	-0.0033
615.5573	0.0095
615.7467	0.0049
615.9361	-0.0001
616.1254	-0.0042
616.3147	0.0011
616.504	0.0052
616.6933	0.001
616.8826	0.0113
617.0718	0.0071
617.2611	-0.0004
617.4503	-0.005
617.6395	-0.0002
617.8287	-0.0006
618.0179	0.0037
618.207	0.0016
618.3961	0.0019
618.5853	0.0007
618.7744	0.0059
618.9634	-0.0001
619.1525	0.005
619.3416	0.0009
619.5306	0.007
619.7196	0.0054
619.9086	-0.0003
620.0976	0.0005
620.2866	-0.0037
620.4755	0.0057
620.6645	0.0049
620.8534	0.0079
621.0423	0.0073
621.2312	0.0065
621.42	0.0044
621.6089	-0.0025
621.7977	0.0075
621.9865	-0.0051
622.1753	0.0044
622.3641	0.001
622.5529	0.0123
622.7416	0.0055
622.9303	0.0024
623.1191	0.013
623.3078	0.001
623.4964	0.0049
623.6851	0.0047
623.8737	-0.0028
624.0624	0.0083
624.251	-0.002
624.4396	0.0024
624.6282	-0.0034
624.8167	0.0054
625.0053	0.0097
625.1938	0.0073
625.3823	0.006
625.5708	0.0033
625.7593	-0.0027
625.9477	-0.0079
626.1362	-0.0045
626.3246	0.0005
626.513	0.0054
626.7014	0.0096
626.8898	0.0029
627.0781	0.004
627.2665	0.0005
627.4548	0.0036
627.6431	0.004
627.8314	0.003
628.0197	0.0055
628.2079	0.0008
628.3962	-0.0046
628.5844	0.0067
628.7726	0.0083
628.9608	0.0056
629.1489	0.0045
629.3371	0.0081
629.5252	-0.0033
629.7134	0.0105
629.9015	0.0058
630.0895	-0.0034
630.2776	0.0058
630.4657	0.0038
630.6537	0.009
630.8417	0.0041
631.0297	0.0003
631.2177	-0.0006
631.4057	-0.0014
631.5936	-0.002
631.7815	0.0039
631.9695	-0.0007
632.1574	0.0112
632.3452	0.0067
632.5331	0.0002
632.7209	-0.0041
632.9088	0.0077
633.0966	0.004
633.2844	-0.006
633.4722	0.0095
633.6599	0.0053
633.8477	0.007
634.0354	0.0018
634.2231	0.003
634.4108	0.0019
634.5985	0.0066
634.7861	0.0044
634.9738	0.0135
635.1614	0.0017
635.349	0.009
635.5366	-0.0014
635.7242	0.0066
635.9117	0.0082
636.0993	0.0024
636.2868	0.0168
636.4743	-0.0001
636.6618	0.0113
636.8492	0.0119
637.0367	0.0055
637.2241	-0.0003
637.4115	0.0049
637.5989	-0.0021
637.7863	0.006
637.9737	-0.0048
638.161	0.0052
638.3484	-0.0022
638.5357	0.0098
638.723	0.0033
638.9103	0.0032
639.0975	0.0026
639.2848	0.0012
639.472	0.0043
639.6592	0.0074
639.8464	0.0052
640.0336	0.0072
640.2208	-0.0024
640.4079	0.0021
640.595	0.0009
640.7821	-0.0002
640.9692	0.0006
641.1563	0.0011
641.3434	-0.0002
641.5304	0.0007
641.7174	0.0005
641.9044	0.0003
642.0914	0.0039
642.2784	0.0087
642.4653	0.0088
642.6523	-0.0046
642.8392	0.0052
643.0261	0.0053
643.213	0.0033
643.3999	-0.0003
643.5867	0.006
643.7735	0.0077
643.9604	-0.0062
644.1472	-0.0003
644.3339	0.0053
644.5207	-0.0028
644.7075	0.0009
644.8942	0.0093
645.0809	0.007
645.2676	0.009
645.4543	0.0045
645.6409	0.0129
645.8276	0.0138
646.0142	0.0102
646.2008	0.001
646.3874	-0.0056
646.574	0.0017
646.7605	-0.0055
646.9471	-0.0136
647.1336	-0.0022
647.3201	0.0018
647.5066	-0.0042
647.6931	0.0026
647.8795	-0.0031
648.0659	0.0074
648.2524	0.0105
648.4388	0.0014
648.6252	0.0041
648.8115	-0.0028
648.9979	0.0018
649.1842	0.0086
649.3705	0.0066
649.5568	0.005
649.7431	0.0091
649.9294	0.0099
650.1156	0.0102
650.3018	0.0004
650.488	0.0044
650.6742	0.0045
650.8604	0.0017
651.0466	-0.0071
651.2327	0.0019
651.4188	-0.0015
651.6049	0.0005
651.791	0.0006
651.9771	0.0053
652.1632	0.0031
652.3492	-0.003
652.5352	0.0078
652.7212	-0.0013
652.9072	-0.0016
653.0932	0.0013
653.2791	-0.0055
653.465	0.0071
653.651	0.0011
653.8369	0.0054
654.0227	-0.0011
654.2086	-0.0018
654.3944	0.0047
654.5803	0.008
654.7661	0.0044
654.9519	0.0043
655.1377	-0.0045
655.3234	-0.0014
655.5092	-0.0015
655.6949	-0.005
655.8806	-0.0064
656.0663	0.0055
656.2519	0.0004
656.4376	-0.0007
656.6232	0.0067
656.8088	0.0054
656.9945	0.0012
657.18	0.0047
657.3656	0.0018
657.5511	-0.0049
657.7367	-0.004
657.9222	0.016
658.1077	-0
658.2932	0.0061
658.4786	-0.0075
658.6641	0.0007
658.8495	-0.0024
659.0349	-0.0008
659.2203	0.0051
659.4057	0.0026
659.591	0.0071
659.7764	-0.0024
659.9617	-0.0009
660.147	0.0031
660.3323	-0.0016
660.5176	0.0167
660.7028	0.0013
660.888	0.0044
661.0733	0.0014
661.2585	0.002
661.4436	0.008
661.6288	0.0037
661.8139	0.0072
661.9991	0.0039
662.1842	-0.005
662.3693	-0.0012
662.5544	-0.007
662.7394	-0.0014
662.9245	-0.0025
663.1095	-0.0033
663.2945	0.0011
663.4795	0.0026
663.6644	0.0051
663.8494	0.0045
664.0343	0.0017
664.2193	-0.0038
664.4042	-0.0026
664.589	0.003
664.7739	0.0022
664.9587	-0.0067
665.1436	0.0012
665.3284	0.0053
665.5132	-0.0045
665.698	-0.0039
665.8827	0.0035
666.0675	-0.0083
666.2522	-0.0134
666.4369	-0.0005
666.6216	0.0054
666.8063	0.0045
666.9909	0.0022
667.1756	0.0019
667.3602	0.0019
667.5448	-0.0027
667.7294	0.0049
667.9139	0.0108
668.0985	0.0072
668.283	0.0053
668.4675	0.0116
668.652	0.0041
668.8365	0.0002
669.0209	0.0118
669.2054	0.0126
669.3898	-0.0008
669.5742	0.0046
669.7586	0.019
669.943	0.0074
670.1273	0.0084
670.3117	0.0073
670.496	0.0118
670.6803	0.009
670.8646	-0.0001
671.0488	-0.0043
671.2331	0.0025
671.4173	0.0076
671.6015	0.0021
671.7857	-0.001
671.9699	0.0072
672.1541	0.0029
672.3382	0.0039
672.5223	0.0108
672.7064	0.0124
672.8905	0.0072
673.0746	0.0076
673.2587	0.0014
673.4427	0.0111
673.6267	0.0115
673.8107	0.0078
673.9947	0.0068
674.1787	0.006
674.3626	0.0002
674.5465	0.0065
674.7304	0.0106
674.9143	0.006
675.0982	0.0124
675.2821	-0.0016
675.4659	0.0046
675.6497	0.0004
675.8335	0.0029
676.0173	-0.0007
676.2011	0.0037
676.3849	-0.0062
676.5686	-0.0035
676.7523	0.0008
676.936	-0.0039
677.1197	-0.0025
677.3034	-0.0025
677.487	-0.0005
677.6706	0.0014
677.8542	0.0002
678.0378	-0.0007
678.2214	0.0056
678.405	0.0039
678.5885	-0.0073
678.772	0.0027
678.9555	-0.0018
679.139	-0.0057
679.3225	0.0018
679.5059	0.0024
679.6894	0.0059
679.8728	0.0002
680.0562	-0.0059
680.2395	-0.0044
680.4229	0.0014
680.6062	0.0094
680.7896	0.0082
680.9729	0.0003
681.1562	0.0017
681.3394	0.0043
681.5227	-0.0018
681.7059	0.0051
681.8891	0.0021
682.0723	0.0039
682.2555	0.0145
682.4387	0.0027
682.6218	-0.0009
682.805	0.0084
682.9881	0.0088
683.1712	0.0026
683.3542	-0.0015
683.5373	0.0074
683.7203	-0.0066
683.9034	0.0027
684.0864	-0.0072
684.2694	0.001
684.4523	-0.0011
684.6353	-0.0033
684.8182	0.0009
685.0011	-0.0092
685.184	-0.0041
685.3669	-0.0032
685.5498	-0.0043
685.7326	0.0031
685.9154	-0.0037
686.0982	0.0062
686.281	0.0035
686.4638	-0.0001
686.6465	-0.0016
686.8293	0.0033
687.012	0.002
687.1947	-0.0036
687.3774	-0.0017
687.56	0.0027
687.7427	0.0029
687.9253	-0.0008
688.1079	-0.0102
688.2905	0.0122
688.4731	0.0007
688.6556	0.0018
688.8382	0.0035
689.0207	0.0021
689.2032	-0.0105
689.3857	-0.013
689.5681	0.0017
689.7506	-0.0022
689.933	0.003
690.1154	0.0044
690.2978	-0.0012
690.4802	-0.0011
690.6626	-0.0025
690.8449	-0.0045
691.0272	0.0058
691.2095	0.0016
691.3918	-0.0058
691.5741	0.007
691.7563	0.0017
691.9386	0.0067
692.1208	-0.0015
692.303	0.0039
692.4852	0.0008
692.6673	0.0013
692.8495	0.0053
693.0316	0.0057
693.2137	0.0035
693.3958	0.0089
693.5778	0.0021
693.7599	-0.0003
693.9419	-0.0019
694.1239	0.0024
694.3059	-0.0072
694.4879	0.0078
694.6699	0.0051
694.8518	0.0024
695.0337	0.0125
695.2157	0.0139
695.3975	0.0028
695.5794	0.0111
695.7613	0.0076
695.9431	0.0002
696.1249	0.0131
696.3067	0.0092
696.4885	0.0152
696.6703	-0.0057
696.852	0.0112
697.0337	0.0096
697.2154	0.0032
697.3971	0.0124
697.5788	0.0041
697.7605	0.004
697.9421	0.0062
698.1237	0.0086
698.3053	0.0057
698.4869	0.0009
698.6685	0.0035
698.85	0.0049
699.0315	0.0118
699.213	-0.0061
699.3945	0.0045
699.576	0.0129
699.7575	0.0106
699.9389	0.0153
700.1203	-0.0015
700.3017	-0.0096
700.4831	-0.0074
700.6645	-0.0063
700.8458	0.0045
701.0271	-0.0035
701.2084	0.0058
701.3897	0.0028
701.571	0.007
701.7523	-0.0051
701.9335	-0.0049
702.1147	-0.0011
702.2959	0.0038
702.4771	0.0008
702.6583	0.0023
702.8394	0.0023
703.0205	0.007
703.2016	0.0005
703.3827	-0.002
703.5638	0.0055
703.7449	-0.0015
703.9259	0.013
704.1069	-0.0038
704.2879	0.0056
704.4689	0.0061
704.6499	-0.0051
704.8308	0.0028
705.0117	-0.0029
705.1927	0.0104
705.3735	-0.0063
705.5544	-0.004
705.7353	-0.0011
705.9161	-0.008
706.0969	-0.0101
706.2777	0.0023
706.4585	0.0017
706.6393	0.0057
706.82	0.0001
707.0007	0.0011
707.1815	0.0055
707.3621	0.0094
707.5428	0.0027
707.7235	0.0005
707.9041	-0.0002
708.0847	-0.0089
708.2653	-0.006
708.4459	0.0007
708.6265	0.0011
708.807	-0.001
708.9875	0.0014
709.168	-0.0026
709.3485	-0.0069
709.529	-0.0038
709.7095	-0.0117
709.8899	-0.0014
710.0703	-0.0068
710.2507	-0.0006
710.4311	0.0002
710.6115	-0.0075
710.7918	-0.0124
710.9721	-0.0041
711.1524	-0.0056
711.3327	0.003
711.513	0.0034
711.6932	0.0083
711.8735	0.0146
712.0537	0.0014
712.2339	0.0064
712.4141	-0.0073
712.5942	-0.0029
712.7744	0.0046
712.9545	-0.0048
713.1346	-0.0071
713.3147	0.0086
713.4947	-0.0095
713.6748	0.0013
713.8548	-0.0034
714.0348	0.0031
714.2148	-0.0099
714.3948	0.0152
714.5748	-0.0036
714.7547	0.0042
714.9346	0.0066
715.1145	-0.0016
715.2944	0.0012
715.4743	0.0016
715.6541	-0.0012
715.834	0.0034
716.0138	-0.0078
716.1936	-0.0066
716.3733	-0.0025
716.5531	0.0018
716.7328	-0.0001
716.9126	-0.0045
717.0923	0.002
717.2719	0.0046
717.4516	0.0149
717.6312	0.0067
717.8109	-0.0043
717.9905	0.0076
718.1701	0.0076
718.3496	-0.0056
718.5292	0.0119
718.7087	0.0049
718.8882	-0.0006
719.0677	0.0098
719.2472	0.0002
719.4267	0.0051
719.6061	0.0057
719.7856	0.0036
719.965	0.0142
720.1443	0.003
720.3237	0.0189
720.5031	0.0069
720.6824	0.0131
720.8617	-0.0015
721.041	0.0029
721.2203	0.0106
721.3995	0.0046
721.5788	0.0009
721.758	0.0048
721.9372	0.0023
722.1164	0.0063
722.2956	-0.0031
722.4747	0.0074
722.6538	-0
722.8329	0.0107
723.012	0.0057
723.1911	-0.0007
723.3702	-0.0035
723.5492	0.0025
723.7282	-0.004
723.9072	0.0047
724.0862	0.0018
724.2652	-0.0064
724.4441	-0.0025
724.623	0.0022
724.8019	0.0031
724.9808	0.0029
725.1597	-0.0112
725.3385	0.0033
725.5174	-0.0044
725.6962	0.0027
725.875	-0.0029
726.0538	0.0014
726.2325	0.0011
726.4112	0.0085
726.59	0.0061
726.7687	-0.0022
726.9474	0.0099
727.126	0.0042
727.3047	-0.0007
727.4833	0.0033
727.6619	-0.0058
727.8405	-0.008
728.0191	0.0001
728.1976	0.0003
728.3762	-0.0063
728.5547	-0.0032
728.7332	-0.0143
728.9116	0.0005
729.0901	0.0035
729.2686	-0.0074
729.447	-0.0059
729.6254	-0.0029
729.8038	-0.0027
729.9821	-0.0031
730.1605	0.0002
730.3388	0.0052
730.5171	0.0038
730.6954	0.0003
730.8737	0.0032
731.0519	0.0057
731.2302	0.0042
731.4084	0.0074
731.5866	0.0149
731.7648	0.0015
731.9429	-0.0011
732.1211	-0.0122
732.2992	-0.0029
732.4773	-0.0039
732.6554	-0.0067
732.8335	-0.0012
733.0115	0.0015
733.1896	0.006
733.3676	-0.0031
733.5456	0.0045
733.7235	0.0064
733.9015	-0.0054
734.0794	-0.004
734.2574	0.0006
734.4353	-0.0058
734.6131	0.0094
734.791	0.0025
734.9689	0.0013
735.1467	0.0084
735.3245	-0.0049
735.5023	-0.0063
735.68	-0.0056
735.8578	0.006
736.0355	-0.0155
736.2132	-0.008
736.3909	0.0003
736.5686	-0.0096
736.7463	0.0001
736.9239	-0.0041
737.1015	-0.0002
737.2791	0.0016
737.4567	0.0016
737.6343	-0.0021
737.8118	-0.0015
737.9894	0.0032
738.1669	-0.0046
738.3444	-0.0083
738.5218	0.0023
738.6993	-0.0008
738.8767	0.002
739.0541	0.013
739.2315	-0.0072
739.4089	0.0081
739.5863	0.0054
739.7636	-0.0048
739.9409	-0.0007
740.1182	0.0072
740.2955	0.0045
740.4728	0.0118
740.65	0
740.8272	0.0025
741.0044	-0.0104
741.1816	0.0062
741.3588	0.0008
741.5359	0.0086
741.7131	-0.0054
741.8902	0.0043
742.0673	0.0071
742.2444	-0.0066
742.4214	-0.007
742.5985	-0.0017
742.7755	-0.0016
742.9525	-0.0045
743.1295	0.0045
743.3064	-0.0015
743.4834	-0.0009
743.6603	-0.0068
743.8372	-0.0085
744.0141	0.0093
744.191	-0.0027
744.3678	0.0046
744.5446	-0.0002
744.7215	0.0052
744.8982	-0.0044
745.075	-0.0127
745.2518	0.007
745.4285	0.0004
745.6052	-0.0045
745.7819	-0.0086
745.9586	-0.0118
746.1353	-0.0008
746.3119	-0.0158
746.4885	-0.0187
746.6651	-0.0163
746.8417	-0.001
747.0183	-0.0036
747.1948	-0.0089
747.3714	-0.0011
747.5479	-0.0004
747.7244	-0.0106
747.9008	-0.0041
748.0773	-0.0039
748.2537	-0.0056
748.4301	-0.0081
748.6065	-0.0022
748.7829	0.0001
748.9593	-0.0059
749.1356	-0.0013
749.3119	-0.0001
749.4882	-0.0097
749.6645	0.0041
749.8408	-0.0039
750.017	-0.0076
750.1933	-0.0012
750.3695	0.0011
750.5457	0.0057
750.7218	0.0011
750.898	0.0051
751.0741	-0.0051
751.2502	0.0038
751.4263	-0.0033
751.6024	0.0007
751.7784	-0.0001
751.9545	0.0027
752.1305	-0.003
752.3065	-0.0066
752.4825	0.0084
752.6584	0.0003
752.8344	0.0003
753.0103	-0.0132
753.1862	-0.0088
753.3621	-0.0025
753.5379	-0.0042
753.7138	-0.0069
753.8896	0.0026
754.0654	0.0073
754.2412	0.0073
754.417	0.0037
754.5927	-0.0035
754.7685	0.0075
754.9442	-0.0033
755.1199	0.0114
755.2956	-0.0077
755.4712	0.0197
755.6469	0.0099
755.8225	0.003
755.9981	0.0062
756.1736	0.0101
756.3492	0.0126
756.5248	0.0018
756.7003	0.0038
756.8758	0.016
757.0513	-0.0028
757.2267	-0.0014
757.4022	0.0108
757.5776	0.0001
757.753	-0.0002
757.9284	-0.0034
758.1038	0.0045
758.2791	0.0039
758.4545	-0.0132
758.6298	0.0082
758.8051	0.0059
758.9803	-0.0083
759.1556	-0.0023
759.3308	-0.0053
759.506	0.0066
759.6812	0.0005
759.8564	0.0109
760.0316	-0.003
760.2067	0.0147
760.3819	0.0095
760.557	0.0146
760.732	0.0067
760.9071	-0.0066
761.0821	-0.0031
761.2572	0.0172
761.4322	0.006
761.6072	-0.0021
761.7821	-0.0054
761.9571	0.0119
762.132	-0.0065
762.3069	-0.0169
762.4818	-0.001
762.6567	0.0008
762.8316	-0.0033
763.0064	-0.0039
763.1812	-0.003
763.356	-0.0158
763.5308	-0.003
763.7055	-0.0025
763.8803	-0.0029
764.055	-0.0031
764.2297	-0.0024
764.4044	-0.005
764.579	-0.0062
764.7537	-0.0072
764.9283	0.0048
765.1029	-0.0066
765.2775	-0.0138
765.4521	-0.0099
765.6266	-0.0038
765.8011	-0.0103
765.9756	-0.0034
766.1501	-0.0035
766.3246	-0.0024
766.4991	-0.0003
766.6735	-0.0061
766.8479	-0.0086
767.0223	0.0055
767.1967	-0.0044
767.371	0.0025
767.5454	-0.0035
767.7197	-0.0043
767.894	-0.0059
768.0683	-0.0089
768.2425	-0.0033
768.4168	-0.0031
768.591	-0.0044
768.7652	-0.009
768.9394	-0.0106
769.1135	0.0029
769.2877	-0.0056
769.4618	-0.005
769.6359	0.0023
769.81	-0.0035
769.984	-0.0046
770.1581	-0.0128
770.3321	-0.0028
770.5061	-0.0036
770.6801	-0.0118
770.8541	-0.0034
771.028	0.002
771.202	-0.0069
771.3759	0.011
771.5498	0.0033
771.7236	0.0038
771.8975	-0.0008
772.0713	-0.0018
772.2451	-0.0006
772.4189	0.011
772.5927	0.0115
772.7665	0.0056
772.9402	-0.0064
773.1139	-0.0074
773.2876	0.0042
773.4613	0.0036
773.635	0.0054
773.8086	-0.0189
773.9822	-0.0023
774.1558	0.0009
774.3294	-0.0171
774.503	-0.0101
774.6765	0.0065
774.8501	0.0027
775.0236	0.0071
775.1971	0.0024
775.3705	-0.0087
775.544	0.0042
775.7174	-0.0188
775.8908	-0.0047
776.0642	-0.0001
776.2376	0.0007
776.4109	-0.011
776.5843	0.0033
776.7576	0.0078
776.9309	0.0104
777.1041	0.0132
777.2774	0.0024
777.4506	-0.0051
777.6238	-0.0173
777.797	-0.0065
777.9702	0.0013
778.1434	-0.0058
778.3165	-0.0101
778.4896	-0.013
778.6627	0.0046
778.8358	-0.0015
779.0089	0.0005
779.1819	-0.0132
779.3549	0.0105
779.5279	0.0026
779.7009	0.0052
779.8739	0.0002
780.0468	-0.0056
780.2197	0.0026
780.3926	-0.0006
780.5655	-0.0066
780.7384	-0.0056
780.9112	-0.0023
781.0841	-0.0137
781.2569	-0.0002
781.4297	0.0041
781.6024	0.0058
781.7752	0.0134
781.9479	0.0083
782.1206	-0.0048
782.2933	-0.0077
782.466	0.001
782.6386	-0.0051
782.8113	-0.0089
782.9839	0.0011
783.1565	0.0109
783.329	-0.0069
783.5016	0.0176
783.6741	0.0076
783.8466	-0
784.0191	0.0136
784.1916	0.0077
784.3641	0.0007
784.5365	0.0027
784.7089	0.0003
784.8813	0.0015
785.0537	0.0036
785.2261	0.0054
785.3984	-0.0183
785.5707	0.0004
785.743	0.0073
785.9153	-0.0087
786.0876	0.0118
786.2598	-0.0106
786.432	-0.0224
786.6042	-0.0032
786.7764	-0.0145
786.9486	-0.001
787.1207	-0.0069
787.2928	0.0035
787.4649	-0.0158
787.637	0.0053
787.8091	-0.0118
787.9811	-0.0014
788.1532	0.0093
788.3252	0.0027
788.4972	0.0016
788.6691	-0.0081
788.8411	0.001
789.013	-0.0116
789.1849	0.0169
789.3568	-0.0003
789.5287	-0.0058
789.7005	-0.0073
789.8723	-0.0046
790.0442	0.014
790.2159	0.009
790.3877	-0.0068
790.5595	-0.0048
790.7312	-0.0044
790.9029	0.0014
791.0746	-0.0124
791.2463	0.0025
791.4179	-0.0009
791.5896	-0.0085
791.7612	0.0093
791.9328	0.0201
792.1044	-0.0175
792.2759	-0.0065
792.4474	-0.0027
792.619	0.0045
792.7905	0.0085
792.9619	0.0011
793.1334	-0.0014
793.3048	0.007
793.4762	0.0101
793.6476	0.0058
793.819	-0.0108
793.9904	0.0033
794.1617	-0.0272
794.333	0.0043
794.5043	-0.007
794.6756	0.0049
794.8469	-0.0082
795.0181	-0.0079
795.1893	-0.0139
795.3605	0.0032
795.5317	0.0032
795.7029	-0.0093
795.874	0.0048
796.0452	-0.001
796.2163	-0.0042
796.3873	0.0102
796.5584	-0.0174
796.7294	-0.0088
796.9005	0.0271
797.0715	0.0109
797.2425	-0.0109
797.4134	-0.0115
797.5844	0.0108
797.7553	-0.006
797.9262	0.0042
798.0971	-0.0106
798.2679	-0.0186
798.4388	-0.0077
798.6096	-0.0083
798.7804	-0.0032
798.9512	-0.0043
799.122	-0.0032
799.2927	-0.0098
799.4635	0.0033
799.6342	-0.0246
799.8049	-0.0083
799.9755	-0.0107
800.1462	0.0074
800.3168	0.0017
800.4874	0.0004
800.658	0.0194
800.8286	0.0088
800.9991	-0.0013
801.1696	0.0129
801.3402	-0.0013
801.5106	0.0031
801.6811	0.0034
801.8516	0.0047
802.022	-0.0101
802.1924	0.0105
802.3628	0.0264
802.5332	0.0181
802.7035	0.0223
802.8739	-0.0048
803.0442	-0.0096
803.2145	0.0098
803.3847	-0.0248
803.555	0.0002
803.7252	-0.0124
803.8954	-0.0187
804.0656	-0.0243
804.2358	-0.0185
804.4059	-0.0006
804.5761	0.0035
804.7462	0.0011
804.9163	0.0084
805.0864	-0.0054
805.2564	-0.0049
805.4264	-0.0031
805.5965	0
805.7665	0.0098
805.9364	0.0081
806.1064	0.0314
806.2763	0.015
806.4462	0.0296
806.6161	0.0103
806.786	0.0182
806.9559	-0.0112
807.1257	0.0066
807.2955	-0.0181
807.4653	-0.0018
807.6351	0.0021
807.8048	-0.0063
807.9746	-0.0112
808.1443	0.0007
808.314	-0.0029
808.4837	-0.0028
808.6533	-0.0021
808.8229	0.0274
808.9926	-0.0224
809.1622	0.001
809.3317	-0.003
809.5013	0.0078
809.6708	0.0054
809.8403	0.0179
810.0098	0.0025
810.1793	0
810.3488	0.004
810.5182	-0.0282
810.6876	-0.0075
810.857	-0.0175
811.0264	0.0161
811.1958	0.0057
811.3651	0.0029
811.5344	-0.0003
811.7037	-0.0175
811.873	-0.0144
812.0422	0.0174
812.2115	0.0098
812.3807	-0.0244
812.5499	0.0289
812.7191	0.0106
812.8882	-0.0031
813.0574	-0.0044
813.2265	-0.0049
813.3956	-0.0154
813.5646	-0.0063
813.7337	0.0079
813.9027	-0.0016
814.0718	0.0128
814.2407	0.0035
814.4097	-0.0116
814.5787	-0.0026
814.7476	-0.0213
814.9165	-0.0033
815.0854	-0.0319
815.2543	-0.01
815.4232	-0.0195
815.592	0.0049
815.7608	-0.0134
815.9296	0.0254
816.0984	0.0018
816.2671	-0.0068
816.4359	-0.0128
816.6046	-0.0071
816.7733	-0.0144
816.942	-0.0212
817.1106	0.0113
817.2793	-0.0187
817.4479	-0.0027
817.6165	0.0025
817.785	-0.0013
817.9536	0.0007
818.1221	-0.0026
818.2906	-0.0013
818.4591	-0.002
818.6276	-0.0205
818.7961	-0.001
818.9645	-0.0033
819.1329	0.0128
819.3013	0.0065
819.4697	0.03
819.638	0.0048
819.8064	0.001
819.9747	-0.0017
820.143	0.0032
820.3113	0.0026
820.4795	0.0067
820.6477	0.0062
820.816	0.0149
820.9842	0.0091
821.1523	-0.0225
821.3205	0.0111
821.4886	0.0084
821.6567	0.0179
821.8248	-0.015
821.9929	0.0226
822.1609	0.0169
822.329	-0.0007
822.497	0.0011
822.665	0
822.833	-0.0015
823.0009	-0.0022
823.1688	0.0004
823.3367	0.0452
823.5046	-0.0068
823.6725	0.0344
823.8404	-0.0059
824.0082	-0.0047
824.176	0.0218
824.3438	0.0361
824.5116	-0.0136
824.6793	0.0142
824.847	-0.0106
825.0147	-0.0155
825.1824	0.0236
825.3501	0.0068
825.5177	0.0013
825.6854	0.0056
825.853	-0.0013
826.0206	0.0104
826.1881	-0.0115
826.3557	-0.038
826.5232	-0.0009
826.6907	-0.0408
826.8582	-0.0014
827.0257	-0.0234
827.1931	-0.0194
827.3605	-0.0085
827.528	-0.0187
827.6953	-0.0254
827.8627	-0.0129
828.03	0.0399
828.1974	-0.0079
828.3647	-0.0221
828.532	-0.0112
828.6992	-0.0174
828.8665	0.001
829.0337	-0.0144
829.2009	0.0132
829.3681	-0.0146
829.5352	0.0019
829.7024	0.0081
829.8695	-0.0507
830.0366	0.0444
830.2037	0.0361
830.3707	0.0212
830.5378	-0.0499
830.7048	0.0121
830.8718	-0.036
831.0388	-0.0256
831.2057	0.0247
831.3727	0.0181
831.5396	0.0121
831.7065	-0.0152
831.8734	0.0171
832.0402	-0.0186
832.2071	-0.0161
832.3739	-0.0077
832.5407	0.006
832.7075	-0.0255
832.8742	0.0318
833.041	-0.0189
833.2077	-0.0102
833.3744	0.0114
833.541	-0.0171
833.7077	-0.0467
833.8743	-0.0033
834.0409	-0.0179
834.2075	0.0168
834.3741	0.0163
834.5407	0.0122
834.7072	-0.0069
834.8737	-0.0213
835.0402	0.0034
835.2067	0.0211
835.3731	0.0273
835.5395	0.0084
835.706	0.0232
835.8723	0.0043
836.0387	0.0322
836.2051	0.007
836.3714	-0.0233
836.5377	0.0076
836.704	-0.0188
836.8703	0.0463
837.0365	0.0081
837.2027	-0.0221
837.3689	0.0015
837.5351	-0.0104
837.7013	-0.0272
837.8674	-0.0263
838.0335	-0.0353
838.1997	0.0329
838.3657	-0.013
838.5318	0.0066
838.6978	-0.0114
838.8639	0.0323
839.0299	-0.0243
839.1958	-0.0047
839.3618	-0.0017
839.5277	-0.0017
839.6937	-0.0122
839.8596	-0.0552
840.0254	0.0335
840.1913	0.0092
840.3571	0.0262
840.523	0.0183
840.6888	0.0019
840.8545	-0.0252
841.0203	0.0206
841.186	0.046
841.3517	0.0211
841.5174	-0.0078
841.6831	-0.0065
841.8488	0.0073
842.0144	0.0462
842.18	0.0487
842.3456	-0.0102
842.5112	0.0051
842.6767	-0.0672
842.8422	-0.0388
843.0077	-0.0162
843.1732	0.0154
843.3387	0.0293
843.5042	-0.0216
843.6696	-0.0314
843.835	0.0022
844.0004	0.0515
844.1657	-0.0206
844.3311	-0.0264
844.4964	-0.0155
844.6617	0.0264
844.827	-0.0534
844.9923	-0.0068
845.1575	0.017
845.3227	-0.0114
845.4879	-0.01
845.6531	-0.0066
845.8183	-0.0533
845.9834	-0.037
846.1485	-0.0076
846.3136	-0.0271
846.4787	-0.0485
846.6438	0.06
846.8088	-0.0317
846.9738	-0.0757
847.1388	0.01
847.3038	0.0379
847.4687	-0.138
847.6337	0.0092
847.7986	0.0447
847.9635	0.0258
848.1284	0.043
848.2932	0.049
848.458	-0.0359
848.6228	0.0437
848.7876	0.0783
848.9524	-0.0051
849.1172	-0.0982
849.2819	0.0582
849.4466	-0.1134
849.6113	-0.1172
849.7759	-0.0801
849.9406	0.0193
850.1052	0.0346
850.2698	-0.0293
850.4344	-0.0358
850.599	-0.103
850.7635	0.0646
850.928	0.0508
851.0925	-0.0368
851.257	0.0487
851.4215	0.058
851.5859	0.0044
851.7503	0.0401
851.9147	0.0168
852.0791	-0.0164
852.2434	0
852.4078	-0.0335
852.5721	0.0353
852.7364	-0.0899
852.9007	-0.1607
853.0649	0.0866
853.2291	-0.0669
853.3934	-0.0662
853.5575	0.0893
853.7217	-0.0712
853.8859	-0.0316
854.05	-0.1114
854.2141	-0.0252
854.3782	0.0608
854.5423	-0.0973
854.7063	0.1109
854.8703	-0.0471
855.0343	0.0032
855.1983	-0.149
855.3623	0.1904
855.5262	0.0168
855.6901	-0.0214
855.854	-0.0451
856.0179	0.0908
856.1818	0.1277
856.3456	-0.0541
856.5094	-0.1087
856.6732	-0.0381
856.837	-0.0417
857.0008	0.0261
857.1645	-0.0673
857.3282	-0.0266
857.4919	0.0297
857.6556	0.133
857.8192	-0.0193
857.9828	0.074
858.1465	0.1157
858.31	-0.0851
858.4736	-0.0095
858.6372	0.1755
858.8007	-0.1145
858.9642	-0.0308
859.1277	0.0059
859.2911	0.1599
859.4546	0.0057
859.618	-0.3786
859.7814	0.0102
859.9448	0.2072
860.1081	0.0329
860.2715	0.0879
860.4348	0.0698
860.5981	-0.1079
860.7614	0.1015
860.9246	0.1793
861.0879	-0.0321
861.2511	0.0663
861.4143	-0.3106
861.5774	0.2087
861.7406	-0.3693
861.9037	-0.0594
862.0668	-0.1645
862.2299	0.0222
862.393	-0.6811
862.556	-0.0427
862.7191	-0.0847
862.8821	-0.1879
863.0451	0.0524
863.208	0.436
863.371	-0.0175
863.5339	0.1022
863.6968	-0.0597
863.8597	-0
864.0225	0.1816
864.1854	-0.1246
864.3482	-0.0667
864.511	0.7138
864.6737	-0.0611
864.8365	-0.0218
864.9992	-0.4389
865.1619	-0.347
865.3246	-0.1243
865.4873	0.093
865.65	-0.3074
865.8126	0.0079
865.9752	0.3457
866.1378	-0.0118
866.3004	0.2344
866.4629	0.1876
866.6254	-0.1753
866.7879	0.2208
866.9504	-0.4104
867.1129	-0
867.2753	0.0519
867.4377	0.3502
867.6001	-0.1698
867.7625	0.2474
867.9249	-0.3472
868.0872	0.7382
868.2495	0.3788
868.4118	-0.1648
868.5741	0.078
868.7363	0.0152
868.8986	0.0784
869.0608	-0.2483
869.223	0.2147
869.3851	-0.0495
869.5473	-0
869.7094	-0.0386
869.8715	0.2951
870.0336	-0
870.1957	-0.563
870.3577	-0
870.5197	-0.2349
870.6817	0.117
870.8437	0.0347
871.0057	-0.694
871.1676	-0
871.3295	-0.3858
871.4914	0.2319
871.6533	-0.5627
871.8151	-0.3375
871.977	-0
872.1388	-0
872.3006	0.2144
872.4623	-0
872.6241	0.4497
872.7858	-0.1277
872.9475	-0.0254
873.1092	-0.3203
873.2709	-0
873.4325	0.0387
873.5941	-0.4982
873.7557	-0
873.9173	0.0593
874.0789	-0.4316
874.2404	-0
874.4019	-0.1394
874.5634	-0.2235
874.7249	-0.2617
874.8863	0.1752
875.0478	-0.0109
875.2092	-0
875.3706	0.5972
875.5319	-0.5914
875.6933	-0.0186
875.8546	0.0479
876.0159	-0
876.1772	1.0076
876.3385	-0
876.4997	0.1266
876.6609	-0.021
876.8221	-0
876.9833	-0.2439
877.1445	-0
877.3056	-0.081
877.4667	-0.4389
877.6278	-0
877.7889	-0.6829
877.9499	-0
878.111	-0.7517
878.272	-0
878.433	-0
878.5939	0.3807
878.7549	0.4388
878.9158	-0.6517
879.0767	0.1356
879.2376	-0
879.3984	0.9899
879.5593	-0
879.7201	1.4914
879.8809	-0.5967
880.0417	0.0296
880.2024	0.1284
880.3632	-0.5195
880.5239	1.5041
880.6846	1.033
880.8452	-2.4425
881.0059	-0
881.1665	0.5195
881.3271	-0
881.4877	-0.5135
881.6483	-0.0318
881.8088	-0.2445
881.9693	0.3939
882.1298	0.3939
882.2903	0.3939
