Data from MonoPyChalIsomerACN10uM350nmA_Absorbance_14-35-33-215.txt Node
Date: Fri Jul 05 14:35:33 BST 2024
User: LASERRRRR
Spectrometer: FLMT03099
Trigger mode: 0
Integration Time (sec): 1.000000E-1
Scans to average: 1
Electric dark correction enabled: true
Nonlinearity correction enabled: false
Boxcar width: 0
XAxis mode: Wavelengths
Number of Pixels in Spectrum: 3648
>>>>>Begin Spectral Data<<<<<
179.3399	0.0649
179.5586	0.0649
179.7771	0.0649
179.9957	-0
180.2143	-0
180.4329	-0.3827
180.6514	-0
180.8699	-0
181.0885	0.1683
181.307	0.1729
181.5255	-0
181.744	-0.4718
181.9625	-0
182.181	-0.8615
182.3994	-0
182.6179	-0
182.8363	0.3185
183.0547	0.0376
183.2732	-0.1174
183.4916	0.2457
183.71	0.0603
183.9284	0.1962
184.1467	0.1424
184.3651	-0.1074
184.5835	0.1153
184.8018	0.1514
185.0201	-0.0218
185.2385	0.1327
185.4568	0.1601
185.6751	0.1376
185.8934	0.3808
186.1117	-0.0168
186.3299	0.024
186.5482	0.2413
186.7664	-0.0726
186.9847	-0.1606
187.2029	0.1861
187.4211	0.1255
187.6393	0.2737
187.8575	-0.1346
188.0757	0.1564
188.2939	0.0524
188.512	0.6637
188.7302	0.3419
188.9483	-0.0789
189.1665	0.0201
189.3846	0.1961
189.6027	0.387
189.8208	0.4496
190.0389	0.3239
190.257	0.2316
190.475	0.1538
190.6931	0.2369
190.9111	0.9036
191.1292	0.2461
191.3472	0.3946
191.5652	0.3004
191.7832	0.212
192.0012	0.3674
192.2192	0.3573
192.4371	0.4626
192.6551	0.4728
192.873	0.4065
193.091	0.2785
193.3089	0.5034
193.5268	0.4704
193.7447	0.7512
193.9626	0.4033
194.1805	0.5785
194.3984	0.9007
194.6162	0.5474
194.8341	0.4007
195.0519	0.7235
195.2697	0.7554
195.4875	0.7007
195.7054	0.6273
195.9231	0.473
196.1409	0.7482
196.3587	0.4341
196.5765	0.6696
196.7942	0.5874
197.012	0.5015
197.2297	0.6162
197.4474	0.9116
197.6651	0.5181
197.8828	0.5464
198.1005	0.6772
198.3182	0.6522
198.5358	0.7764
198.7535	0.5213
198.9711	0.5479
199.1888	0.5825
199.4064	0.7736
199.624	0.5389
199.8416	0.6643
200.0592	0.6685
200.2767	0.7124
200.4943	0.6505
200.7119	0.7949
200.9294	0.6139
201.1469	0.498
201.3645	0.579
201.582	0.6437
201.7995	0.6002
202.017	0.5531
202.2344	0.5869
202.4519	0.7061
202.6694	0.6397
202.8868	0.5873
203.1042	0.7031
203.3217	0.6925
203.5391	0.6787
203.7565	0.5942
203.9739	0.6776
204.1913	0.5358
204.4086	0.6484
204.626	0.669
204.8433	0.6492
205.0607	0.6107
205.278	0.5722
205.4953	0.6045
205.7126	0.6461
205.9299	0.6612
206.1472	0.6867
206.3644	0.651
206.5817	0.7303
206.7989	0.6474
207.0162	0.6416
207.2334	0.6715
207.4506	0.6616
207.6678	0.6021
207.885	0.6503
208.1022	0.6942
208.3194	0.6751
208.5365	0.6389
208.7537	0.6419
208.9708	0.6104
209.1879	0.6537
209.405	0.6564
209.6222	0.6458
209.8392	0.6367
210.0563	0.5975
210.2734	0.6873
210.4905	0.7044
210.7075	0.6967
210.9245	0.5732
211.1416	0.6912
211.3586	0.6273
211.5756	0.5555
211.7926	0.5771
212.0096	0.5709
212.2265	0.5977
212.4435	0.5692
212.6604	0.5854
212.8774	0.5513
213.0943	0.6204
213.3112	0.566
213.5281	0.5239
213.745	0.4861
213.9619	0.4805
214.1788	0.4514
214.3956	0.4886
214.6125	0.4622
214.8293	0.4344
215.0461	0.4675
215.2629	0.4609
215.4798	0.5276
215.6965	0.4207
215.9133	0.4542
216.1301	0.4347
216.3469	0.4329
216.5636	0.4428
216.7803	0.3836
216.9971	0.3787
217.2138	0.3801
217.4305	0.3682
217.6472	0.3479
217.8639	0.4163
218.0805	0.375
218.2972	0.306
218.5138	0.3265
218.7305	0.3129
218.9471	0.3266
219.1637	0.3007
219.3803	0.2671
219.5969	0.284
219.8135	0.2434
220.0301	0.2765
220.2466	0.2671
220.4632	0.2694
220.6797	0.2512
220.8962	0.2535
221.1127	0.2457
221.3292	0.2411
221.5457	0.2191
221.7622	0.2361
221.9787	0.2391
222.1951	0.2372
222.4116	0.272
222.628	0.2612
222.8444	0.2621
223.0608	0.2487
223.2772	0.2657
223.4936	0.2528
223.71	0.2433
223.9264	0.291
224.1427	0.2482
224.3591	0.2328
224.5754	0.256
224.7917	0.259
225.008	0.2576
225.2243	0.2396
225.4406	0.2833
225.6569	0.2483
225.8732	0.2581
226.0894	0.2734
226.3057	0.2632
226.5219	0.2863
226.7381	0.2607
226.9543	0.3008
227.1705	0.2966
227.3867	0.2829
227.6029	0.304
227.8191	0.2996
228.0352	0.2848
228.2513	0.2994
228.4675	0.2953
228.6836	0.2902
228.8997	0.3011
229.1158	0.3235
229.3319	0.3229
229.548	0.3111
229.764	0.2969
229.9801	0.3212
230.1961	0.335
230.4121	0.3325
230.6282	0.3311
230.8442	0.3144
231.0602	0.3589
231.2761	0.363
231.4921	0.3529
231.7081	0.3406
231.924	0.3486
232.14	0.3574
232.3559	0.3218
232.5718	0.3746
232.7877	0.3593
233.0036	0.3505
233.2195	0.3592
233.4353	0.3603
233.6512	0.3759
233.867	0.3539
234.0829	0.3661
234.2987	0.3664
234.5145	0.3622
234.7303	0.3673
234.9461	0.3699
235.1619	0.3722
235.3776	0.3942
235.5934	0.3933
235.8091	0.3645
236.0249	0.3676
236.2406	0.4002
236.4563	0.3659
236.672	0.3991
236.8877	0.3931
237.1034	0.4032
237.319	0.3845
237.5347	0.402
237.7503	0.4059
237.966	0.3934
238.1816	0.4056
238.3972	0.4015
238.6128	0.3917
238.8284	0.4188
239.0439	0.4138
239.2595	0.3928
239.475	0.4104
239.6906	0.4077
239.9061	0.4115
240.1216	0.3881
240.3371	0.416
240.5526	0.3926
240.7681	0.3938
240.9836	0.3745
241.199	0.3853
241.4145	0.3808
241.6299	0.377
241.8453	0.372
242.0607	0.3829
242.2761	0.3544
242.4915	0.3533
242.7069	0.354
242.9223	0.3615
243.1376	0.3384
243.353	0.3417
243.5683	0.3385
243.7836	0.3069
243.9989	0.3272
244.2142	0.295
244.4295	0.2988
244.6448	0.2989
244.86	0.2863
245.0753	0.2875
245.2905	0.2754
245.5057	0.2658
245.721	0.2646
245.9362	0.261
246.1514	0.2645
246.3665	0.2535
246.5817	0.2464
246.7969	0.2411
247.012	0.2417
247.2271	0.2307
247.4423	0.2319
247.6574	0.2441
247.8725	0.2212
248.0876	0.2211
248.3026	0.2213
248.5177	0.2094
248.7328	0.2106
248.9478	0.2156
249.1628	0.2087
249.3779	0.2141
249.5929	0.1928
249.8079	0.2193
250.0228	0.1982
250.2378	0.1932
250.4528	0.1975
250.6677	0.1918
250.8827	0.1839
251.0976	0.1984
251.3125	0.1946
251.5274	0.1748
251.7423	0.179
251.9572	0.1884
252.172	0.1883
252.3869	0.1715
252.6017	0.1739
252.8166	0.167
253.0314	0.1707
253.2462	0.1658
253.461	0.1859
253.6758	0.1697
253.8906	0.1702
254.1053	0.1535
254.3201	0.1782
254.5348	0.1776
254.7496	0.1735
254.9643	0.1644
255.179	0.1703
255.3937	0.1695
255.6083	0.1733
255.823	0.1714
256.0377	0.1561
256.2523	0.1665
256.467	0.1656
256.6816	0.1771
256.8962	0.1641
257.1108	0.1572
257.3254	0.1716
257.54	0.1532
257.7545	0.1699
257.9691	0.1538
258.1836	0.1588
258.3981	0.1656
258.6127	0.1839
258.8272	0.1503
259.0417	0.1633
259.2561	0.1713
259.4706	0.1548
259.6851	0.1699
259.8995	0.1733
260.114	0.1595
260.3284	0.1614
260.5428	0.1603
260.7572	0.1673
260.9716	0.1689
261.186	0.1659
261.4003	0.1671
261.6147	0.1669
261.829	0.1621
262.0433	0.1637
262.2577	0.1721
262.472	0.1644
262.6863	0.143
262.9005	0.1741
263.1148	0.1632
263.3291	0.1401
263.5433	0.1683
263.7576	0.1566
263.9718	0.1575
264.186	0.1542
264.4002	0.1442
264.6144	0.1607
264.8286	0.1615
265.0427	0.1534
265.2569	0.1645
265.471	0.152
265.6851	0.1545
265.8993	0.1577
266.1134	0.1557
266.3275	0.1594
266.5415	0.1551
266.7556	0.1692
266.9697	0.1531
267.1837	0.1577
267.3978	0.1568
267.6118	0.1743
267.8258	0.1616
268.0398	0.1445
268.2538	0.1711
268.4677	0.1546
268.6817	0.1548
268.8957	0.1634
269.1096	0.1578
269.3235	0.1697
269.5374	0.1561
269.7514	0.1407
269.9652	0.1614
270.1791	0.1386
270.393	0.1478
270.6068	0.1565
270.8207	0.1439
271.0345	0.1396
271.2483	0.1514
271.4622	0.1401
271.676	0.1521
271.8897	0.1337
272.1035	0.1424
272.3173	0.1457
272.531	0.1327
272.7448	0.1401
272.9585	0.1279
273.1722	0.144
273.3859	0.1475
273.5996	0.1286
273.8133	0.1417
274.0269	0.1357
274.2406	0.1426
274.4542	0.1374
274.6679	0.1262
274.8815	0.1347
275.0951	0.1369
275.3087	0.1424
275.5223	0.1425
275.7358	0.1434
275.9494	0.1428
276.1629	0.134
276.3765	0.1314
276.59	0.1326
276.8035	0.1425
277.017	0.1382
277.2305	0.1354
277.444	0.1426
277.6574	0.1362
277.8709	0.1355
278.0843	0.1324
278.2978	0.1441
278.5112	0.137
278.7246	0.1393
278.938	0.149
279.1513	0.1429
279.3647	0.1601
279.5781	0.1312
279.7914	0.1387
280.0047	0.1581
280.2181	0.1487
280.4314	0.1442
280.6447	0.1463
280.8579	0.1576
281.0712	0.1516
281.2845	0.1482
281.4977	0.1476
281.711	0.1333
281.9242	0.1396
282.1374	0.1444
282.3506	0.1328
282.5638	0.1413
282.7769	0.148
282.9901	0.158
283.2033	0.1647
283.4164	0.1446
283.6295	0.1407
283.8426	0.1553
284.0557	0.1517
284.2688	0.1691
284.4819	0.1595
284.695	0.1542
284.908	0.1498
285.1211	0.1557
285.3341	0.1541
285.5471	0.1538
285.7601	0.1607
285.9731	0.1535
286.1861	0.1391
286.3991	0.1668
286.612	0.1658
286.825	0.156
287.0379	0.1682
287.2508	0.1519
287.4637	0.16
287.6766	0.1542
287.8895	0.1611
288.1024	0.1711
288.3152	0.1737
288.5281	0.1545
288.7409	0.168
288.9538	0.1557
289.1666	0.1535
289.3794	0.17
289.5922	0.171
289.8049	0.1626
290.0177	0.1611
290.2304	0.1532
290.4432	0.1565
290.6559	0.1646
290.8686	0.1661
291.0813	0.1545
291.294	0.1684
291.5067	0.1655
291.7194	0.1653
291.932	0.1816
292.1447	0.1644
292.3573	0.1544
292.5699	0.1651
292.7825	0.1797
292.9951	0.1618
293.2077	0.1686
293.4203	0.1732
293.6328	0.1535
293.8454	0.1712
294.0579	0.1693
294.2704	0.1654
294.4829	0.1627
294.6954	0.1676
294.9079	0.1803
295.1204	0.167
295.3328	0.1688
295.5453	0.1666
295.7577	0.1605
295.9701	0.1565
296.1825	0.1673
296.3949	0.1673
296.6073	0.1704
296.8197	0.1644
297.0321	0.1791
297.2444	0.1555
297.4567	0.1666
297.6691	0.1692
297.8814	0.167
298.0937	0.1717
298.306	0.172
298.5182	0.17
298.7305	0.1672
298.9428	0.1655
299.155	0.1634
299.3672	0.1597
299.5794	0.1552
299.7916	0.1596
300.0038	0.1641
300.216	0.1711
300.4282	0.1771
300.6403	0.165
300.8525	0.1726
301.0646	0.1558
301.2767	0.1677
301.4888	0.1631
301.7009	0.1634
301.913	0.1575
302.125	0.1647
302.3371	0.1682
302.5491	0.1651
302.7612	0.1674
302.9732	0.1733
303.1852	0.1733
303.3972	0.159
303.6092	0.1658
303.8211	0.1586
304.0331	0.1537
304.245	0.1557
304.457	0.1572
304.6689	0.161
304.8808	0.1719
305.0927	0.1547
305.3046	0.1453
305.5164	0.1599
305.7283	0.1504
305.9401	0.1529
306.152	0.1505
306.3638	0.1591
306.5756	0.1446
306.7874	0.1417
306.9992	0.1522
307.2109	0.1402
307.4227	0.1237
307.6344	0.1366
307.8462	0.133
308.0579	0.1427
308.2696	0.1284
308.4813	0.1349
308.693	0.1329
308.9046	0.1353
309.1163	0.1253
309.328	0.1312
309.5396	0.1165
309.7512	0.1259
309.9628	0.1269
310.1744	0.1225
310.386	0.1216
310.5976	0.1204
310.8091	0.1205
311.0207	0.1151
311.2322	0.1254
311.4437	0.1117
311.6552	0.1132
311.8667	0.1142
312.0782	0.1019
312.2897	0.1032
312.5012	0.1126
312.7126	0.1012
312.924	0.0941
313.1355	0.1097
313.3469	0.101
313.5583	0.1139
313.7696	0.1084
313.981	0.1066
314.1924	0.0953
314.4037	0.1005
314.6151	0.1091
314.8264	0.0931
315.0377	0.0994
315.249	0.0982
315.4603	0.1042
315.6716	0.1047
315.8828	0.0899
316.0941	0.1027
316.3053	0.0832
316.5165	0.0875
316.7277	0.0946
316.9389	0.0962
317.1501	0.0952
317.3613	0.0996
317.5724	0.0925
317.7836	0.0973
317.9947	0.1004
318.2058	0.0945
318.417	0.0792
318.6281	0.0789
318.8391	0.0898
319.0502	0.0889
319.2613	0.0989
319.4723	0.1028
319.6834	0.104
319.8944	0.0834
320.1054	0.089
320.3164	0.0971
320.5274	0.0838
320.7383	0.0834
320.9493	0.0888
321.1602	0.1035
321.3712	0.0898
321.5821	0.0928
321.793	0.102
322.0039	0.0887
322.2148	0.0942
322.4257	0.1049
322.6365	0.1078
322.8474	0.0963
323.0582	0.0872
323.269	0.0982
323.4798	0.0977
323.6906	0.1054
323.9014	0.0907
324.1122	0.0992
324.3229	0.0826
324.5337	0.1043
324.7444	0.0793
324.9551	0.1041
325.1658	0.0983
325.3765	0.1006
325.5872	0.0946
325.7979	0.0834
326.0085	0.0927
326.2192	0.1005
326.4298	0.1031
326.6404	0.0967
326.851	0.0842
327.0616	0.0906
327.2722	0.0947
327.4828	0.1086
327.6933	0.1003
327.9039	0.1016
328.1144	0.1045
328.3249	0.107
328.5354	0.0841
328.7459	0.0975
328.9564	0.0975
329.1669	0.102
329.3773	0.0995
329.5878	0.0984
329.7982	0.0998
330.0086	0.0938
330.219	0.0975
330.4294	0.0926
330.6398	0.0929
330.8502	0.0883
331.0605	0.0942
331.2708	0.0912
331.4812	0.1075
331.6915	0.1023
331.9018	0.0967
332.1121	0.0928
332.3224	0.0935
332.5326	0.097
332.7429	0.1136
332.9531	0.1135
333.1633	0.1076
333.3735	0.1003
333.5837	0.1052
333.7939	0.095
334.0041	0.1118
334.2143	0.1132
334.4244	0.1041
334.6346	0.0937
334.8447	0.1069
335.0548	0.0986
335.2649	0.0989
335.475	0.1204
335.685	0.1056
335.8951	0.1155
336.1051	0.1142
336.3152	0.1037
336.5252	0.117
336.7352	0.1148
336.9452	0.1128
337.1552	0.1041
337.3652	0.0978
337.5751	0.0964
337.7851	0.1097
337.995	0.1023
338.2049	0.091
338.4148	0.111
338.6247	0.1124
338.8346	0.1075
339.0445	0.1043
339.2543	0.1002
339.4642	0.1087
339.674	0.0959
339.8838	0.1034
340.0936	0.1007
340.3034	0.1237
340.5132	0.127
340.7229	0.1101
340.9327	0.0969
341.1424	0.1027
341.3522	0.1237
341.5619	0.1267
341.7716	0.112
341.9813	0.1111
342.1909	0.1204
342.4006	0.129
342.6102	0.1201
342.8199	0.1159
343.0295	0.1207
343.2391	0.1049
343.4487	0.139
343.6583	0.1113
343.8679	0.1161
344.0774	0.1287
344.287	0.1276
344.4965	0.1098
344.706	0.1237
344.9155	0.112
345.125	0.1211
345.3345	0.1185
345.544	0.1294
345.7534	0.1192
345.9629	0.1171
346.1723	0.1178
346.3817	0.1212
346.5911	0.1236
346.8005	0.1353
347.0099	0.1265
347.2193	0.1275
347.4286	0.1211
347.638	0.133
347.8473	0.1256
348.0566	0.1298
348.2659	0.124
348.4752	0.147
348.6845	0.1181
348.8937	0.1251
349.103	0.1414
349.3122	0.1164
349.5214	0.1155
349.7306	0.1393
349.9398	0.135
350.149	0.1336
350.3582	0.1237
350.5674	0.1374
350.7765	0.1465
350.9856	0.1316
351.1948	0.1372
351.4039	0.139
351.613	0.1367
351.822	0.1492
352.0311	0.1431
352.2402	0.1323
352.4492	0.1461
352.6582	0.1377
352.8672	0.136
353.0762	0.1426
353.2852	0.1452
353.4942	0.144
353.7032	0.1465
353.9121	0.1379
354.1211	0.1445
354.33	0.1521
354.5389	0.1402
354.7478	0.1496
354.9567	0.1579
355.1655	0.1362
355.3744	0.1567
355.5833	0.1572
355.7921	0.1665
356.0009	0.1622
356.2097	0.1568
356.4185	0.1567
356.6273	0.1674
356.8361	0.1618
357.0448	0.1549
357.2536	0.1513
357.4623	0.1572
357.671	0.1647
357.8797	0.1516
358.0884	0.1585
358.2971	0.1583
358.5057	0.1694
358.7144	0.1688
358.923	0.1628
359.1316	0.1716
359.3402	0.1604
359.5488	0.1631
359.7574	0.1577
359.966	0.1771
360.1746	0.1748
360.3831	0.1665
360.5916	0.1637
360.8002	0.1598
361.0087	0.1728
361.2172	0.1642
361.4256	0.1876
361.6341	0.1769
361.8426	0.1822
362.051	0.1793
362.2594	0.1896
362.4678	0.1812
362.6762	0.2005
362.8846	0.1902
363.093	0.1975
363.3014	0.1885
363.5097	0.1784
363.718	0.1989
363.9264	0.1814
364.1347	0.1756
364.343	0.1845
364.5513	0.2057
364.7595	0.2029
364.9678	0.1875
365.176	0.1968
365.3842	0.1982
365.5925	0.1922
365.8007	0.1984
366.0089	0.1998
366.217	0.1951
366.4252	0.2061
366.6333	0.2111
366.8415	0.21
367.0496	0.1882
367.2577	0.2091
367.4658	0.2223
367.6739	0.2157
367.882	0.2131
368.09	0.1953
368.2981	0.2036
368.5061	0.1944
368.7141	0.1986
368.9221	0.2229
369.1301	0.2181
369.3381	0.2009
369.5461	0.2122
369.754	0.2197
369.962	0.2194
370.1699	0.2338
370.3778	0.2282
370.5857	0.2089
370.7936	0.2299
371.0015	0.2283
371.2093	0.2256
371.4172	0.2228
371.625	0.211
371.8328	0.2109
372.0406	0.2252
372.2484	0.2172
372.4562	0.2299
372.664	0.222
372.8717	0.2452
373.0795	0.2002
373.2872	0.2414
373.4949	0.2237
373.7026	0.2373
373.9103	0.2495
374.118	0.2454
374.3256	0.2389
374.5333	0.2144
374.7409	0.2325
374.9485	0.2554
375.1561	0.2401
375.3637	0.2395
375.5713	0.2402
375.7789	0.233
375.9864	0.2452
376.194	0.2405
376.4015	0.277
376.609	0.2563
376.8165	0.2419
377.024	0.2397
377.2315	0.2217
377.4389	0.2543
377.6464	0.2456
377.8538	0.2633
378.0612	0.2372
378.2686	0.2514
378.476	0.275
378.6834	0.2521
378.8908	0.2646
379.0981	0.2552
379.3055	0.2625
379.5128	0.2587
379.7201	0.2473
379.9274	0.2393
380.1347	0.2726
380.342	0.2645
380.5492	0.2489
380.7565	0.2606
380.9637	0.2589
381.1709	0.2522
381.3781	0.2552
381.5853	0.2644
381.7925	0.2568
381.9997	0.2621
382.2068	0.2774
382.4139	0.2789
382.6211	0.2644
382.8282	0.2667
383.0353	0.2615
383.2424	0.2739
383.4494	0.2694
383.6565	0.2514
383.8635	0.265
384.0706	0.2691
384.2776	0.2645
384.4846	0.2547
384.6916	0.2781
384.8986	0.2666
385.1055	0.2754
385.3125	0.2572
385.5194	0.2533
385.7263	0.2703
385.9333	0.2561
386.1402	0.283
386.347	0.2808
386.5539	0.271
386.7608	0.2774
386.9676	0.2602
387.1744	0.2705
387.3813	0.2467
387.5881	0.2584
387.7948	0.2649
388.0016	0.2633
388.2084	0.2568
388.4151	0.2609
388.6219	0.2616
388.8286	0.2463
389.0353	0.2675
389.242	0.2501
389.4487	0.2485
389.6553	0.2603
389.862	0.224
390.0686	0.2523
390.2753	0.2718
390.4819	0.2639
390.6885	0.2546
390.8951	0.2552
391.1016	0.254
391.3082	0.2431
391.5147	0.2447
391.7213	0.2537
391.9278	0.2414
392.1343	0.2377
392.3408	0.2525
392.5473	0.2377
392.7537	0.2439
392.9602	0.2302
393.1666	0.2477
393.373	0.238
393.5794	0.2532
393.7858	0.2355
393.9922	0.2152
394.1986	0.2356
394.4049	0.2352
394.6113	0.2422
394.8176	0.233
395.0239	0.2336
395.2302	0.2149
395.4365	0.2292
395.6428	0.2334
395.8491	0.2195
396.0553	0.2336
396.2615	0.2414
396.4678	0.243
396.674	0.2061
396.8802	0.2363
397.0863	0.2522
397.2925	0.2342
397.4987	0.2322
397.7048	0.2211
397.9109	0.246
398.117	0.2165
398.3231	0.218
398.5292	0.2332
398.7353	0.2392
398.9413	0.2357
399.1474	0.2188
399.3534	0.23
399.5594	0.2195
399.7654	0.2335
399.9714	0.2498
400.1774	0.2209
400.3833	0.2168
400.5893	0.2297
400.7952	0.2278
401.0011	0.2103
401.207	0.2348
401.4129	0.2294
401.6188	0.2344
401.8247	0.2194
402.0305	0.2111
402.2364	0.2154
402.4422	0.2246
402.648	0.2223
402.8538	0.2264
403.0596	0.2239
403.2654	0.2231
403.4711	0.2334
403.6768	0.2249
403.8826	0.2314
404.0883	0.2196
404.294	0.2294
404.4997	0.237
404.7054	0.2227
404.911	0.1965
405.1167	0.2299
405.3223	0.2253
405.5279	0.2331
405.7335	0.2181
405.9391	0.2135
406.1447	0.2147
406.3502	0.2369
406.5558	0.2136
406.7613	0.2252
406.9668	0.2402
407.1724	0.2265
407.3778	0.223
407.5833	0.2133
407.7888	0.2074
407.9942	0.2391
408.1997	0.2214
408.4051	0.2188
408.6105	0.2237
408.8159	0.2202
409.0213	0.2196
409.2267	0.2502
409.432	0.2238
409.6374	0.241
409.8427	0.2158
410.048	0.2334
410.2533	0.2109
410.4586	0.2257
410.6639	0.1996
410.8691	0.2263
411.0744	0.2129
411.2796	0.2057
411.4848	0.2209
411.69	0.2182
411.8952	0.2324
412.1004	0.1952
412.3056	0.2171
412.5107	0.226
412.7158	0.2149
412.921	0.2186
413.1261	0.209
413.3312	0.2179
413.5362	0.2249
413.7413	0.2009
413.9464	0.2105
414.1514	0.2273
414.3564	0.2138
414.5614	0.1936
414.7664	0.2178
414.9714	0.206
415.1764	0.2197
415.3813	0.2326
415.5863	0.2211
415.7912	0.1962
415.9961	0.2211
416.201	0.2182
416.4059	0.2225
416.6108	0.2026
416.8156	0.2354
417.0205	0.2024
417.2253	0.1983
417.4301	0.2229
417.6349	0.2257
417.8397	0.209
418.0445	0.2207
418.2492	0.2058
418.454	0.2132
418.6587	0.2103
418.8634	0.2219
419.0681	0.1887
419.2728	0.2104
419.4775	0.2222
419.6822	0.212
419.8868	0.1918
420.0915	0.2038
420.2961	0.182
420.5007	0.1915
420.7053	0.2166
420.9099	0.1994
421.1144	0.2188
421.319	0.1853
421.5235	0.1988
421.728	0.2074
421.9325	0.2019
422.137	0.2167
422.3415	0.1815
422.546	0.2024
422.7504	0.2014
422.9549	0.2072
423.1593	0.1988
423.3637	0.1959
423.5681	0.1948
423.7725	0.2055
423.9769	0.1961
424.1812	0.187
424.3856	0.1826
424.5899	0.1994
424.7942	0.1891
424.9985	0.1926
425.2028	0.1793
425.4071	0.1929
425.6113	0.1748
425.8156	0.1836
426.0198	0.1877
426.224	0.1641
426.4282	0.1759
426.6324	0.1778
426.8366	0.1613
427.0407	0.1655
427.2449	0.1755
427.449	0.177
427.6531	0.1574
427.8572	0.1665
428.0613	0.1769
428.2654	0.1788
428.4694	0.1721
428.6735	0.1686
428.8775	0.1762
429.0815	0.1686
429.2855	0.1523
429.4895	0.1679
429.6935	0.1656
429.8975	0.1638
430.1014	0.1595
430.3053	0.1433
430.5093	0.1684
430.7132	0.1415
430.9171	0.1496
431.1209	0.1446
431.3248	0.136
431.5286	0.1566
431.7325	0.1432
431.9363	0.1294
432.1401	0.1485
432.3439	0.1369
432.5477	0.1241
432.7514	0.13
432.9552	0.1278
433.1589	0.1087
433.3627	0.1195
433.5664	0.127
433.7701	0.1295
433.9737	0.1079
434.1774	0.1201
434.3811	0.1195
434.5847	0.115
434.7883	0.1028
434.9919	0.123
435.1955	0.1069
435.3991	0.125
435.6027	0.123
435.8062	0.1203
436.0098	0.1004
436.2133	0.1066
436.4168	0.1049
436.6203	0.1019
436.8238	0.1097
437.0272	0.0865
437.2307	0.1088
437.4341	0.1108
437.6375	0.1105
437.841	0.0989
438.0443	0.104
438.2477	0.1049
438.4511	0.0783
438.6545	0.1104
438.8578	0.1066
439.0611	0.0946
439.2644	0.0834
439.4677	0.0678
439.671	0.0716
439.8743	0.0769
440.0775	0.095
440.2808	0.0953
440.484	0.0704
440.6872	0.0724
440.8904	0.0764
441.0936	0.0908
441.2967	0.0605
441.4999	0.0821
441.703	0.0785
441.9062	0.0835
442.1093	0.0673
442.3124	0.0751
442.5155	0.0574
442.7185	0.0734
442.9216	0.0461
443.1246	0.0801
443.3276	0.0598
443.5307	0.0638
443.7337	0.0712
443.9366	0.0646
444.1396	0.0455
444.3426	0.0614
444.5455	0.0705
444.7484	0.0442
444.9513	0.0549
445.1542	0.0652
445.3571	0.0513
445.56	0.0539
445.7628	0.0318
445.9657	0.0476
446.1685	0.0458
446.3713	0.0433
446.5741	0.0414
446.7769	0.0288
446.9797	0.0521
447.1824	0.0475
447.3852	0.0348
447.5879	0.0416
447.7906	0.0478
447.9933	0.037
448.196	0.0272
448.3986	0.0384
448.6013	0.0207
448.8039	0.0319
449.0066	0.0261
449.2092	0.0371
449.4118	0.0312
449.6143	0.0341
449.8169	0.0366
450.0195	0.0222
450.222	0.0116
450.4245	0.0255
450.627	0.0365
450.8295	0.0245
451.032	0.0255
451.2345	0.037
451.4369	0.0282
451.6394	0.0172
451.8418	-0.0024
452.0442	0.0194
452.2466	0.0261
452.449	0.0073
452.6513	0.0285
452.8537	0.0016
453.056	0.0046
453.2583	0.0246
453.4607	0.0188
453.663	0.019
453.8652	0.0228
454.0675	0.0255
454.2697	0.0203
454.472	0.0015
454.6742	0.0229
454.8764	0.0079
455.0786	0.0167
455.2808	0.0072
455.4829	0.0314
455.6851	0.0241
455.8872	0.0323
456.0893	0.0184
456.2915	-0.0036
456.4935	0.016
456.6956	0.0086
456.8977	-0.0045
457.0997	0.0002
457.3018	0.0028
457.5038	0.0112
457.7058	0.0088
457.9078	0.0093
458.1098	0.0118
458.3117	0.0271
458.5137	0.0052
458.7156	0.012
458.9175	-0.0014
459.1194	-0.003
459.3213	0.0158
459.5232	0.0007
459.725	0.0053
459.9269	-0.0065
460.1287	-0.02
460.3305	0.0103
460.5323	0.0074
460.7341	-0.0002
460.9359	-0.0113
461.1376	0.0039
461.3394	0.002
461.5411	0.0001
461.7428	-0.0048
461.9445	0.0106
462.1462	0.0103
462.3479	0.01
462.5495	0.0066
462.7512	0.002
462.9528	-0.0137
463.1544	-0.0129
463.356	-0.0054
463.5576	0.0085
463.7592	-0.0091
463.9607	0.0034
464.1623	0.0193
464.3638	0.0157
464.5653	-0.0137
464.7668	0.0151
464.9683	0.0125
465.1697	0.0177
465.3712	-0.0059
465.5726	-0.0104
465.7741	0.0012
465.9755	-0.0035
466.1769	-0.0002
466.3782	-0.0129
466.5796	-0.0078
466.7809	0.0109
466.9823	-0.0102
467.1836	-0.0009
467.3849	-0.0069
467.5862	-0.0021
467.7875	-0.004
467.9887	-0.0075
468.19	-0.0129
468.3912	-0.0075
468.5924	-0.0092
468.7936	-0.0125
468.9948	-0.0129
469.196	-0.0022
469.3972	-0.0137
469.5983	0.0101
469.7994	-0.0212
470.0006	-0.0075
470.2017	-0.0171
470.4027	-0.0183
470.6038	-0.0094
470.8049	-0.0238
471.0059	-0.0092
471.2069	-0.0165
471.408	-0.004
471.6089	0.0002
471.8099	0.0071
472.0109	0.0016
472.2119	-0.0168
472.4128	-0.0135
472.6137	-0.0039
472.8146	-0.0156
473.0155	-0.0036
473.2164	0.0034
473.4173	0.0047
473.6181	0.0219
473.819	0.0025
474.0198	-0.009
474.2206	-0.0031
474.4214	-0.0158
474.6222	0.0009
474.8229	-0.0211
475.0237	0.0036
475.2244	-0.0129
475.4251	0.0023
475.6258	0.0063
475.8265	-0.0022
476.0272	0.0015
476.2278	0.0019
476.4285	-0.0137
476.6291	-0.0145
476.8297	-0.0067
477.0303	-0.0025
477.2309	-0.0095
477.4315	-0.015
477.632	0.0058
477.8326	-0.0128
478.0331	-0.0101
478.2336	0.0032
478.4341	-0.0062
478.6346	-0.0024
478.8351	-0.0183
479.0355	0.006
479.236	-0.0078
479.4364	0.002
479.6368	-0.0087
479.8372	-0.0184
480.0376	-0.0075
480.2379	-0.0226
480.4383	-0.0196
480.6386	-0.0024
480.8389	-0.0079
481.0392	-0.0058
481.2395	-0.0092
481.4398	-0.0113
481.6401	-0.0024
481.8403	-0.0105
482.0405	-0.0146
482.2408	0.0074
482.441	0.0081
482.6411	-0.0129
482.8413	-0.0057
483.0415	-0.0099
483.2416	-0.0139
483.4417	-0.0083
483.6419	-0.0052
483.8419	-0.0141
484.042	0.0103
484.2421	0.0039
484.4422	0.0005
484.6422	-0.0011
484.8422	-0.0061
485.0422	-0.0155
485.2422	0.0082
485.4422	-0.0097
485.6422	-0.0086
485.8421	-0.0111
486.042	-0.0052
486.242	-0.0194
486.4419	-0.0033
486.6417	-0.0125
486.8416	-0.006
487.0415	-0.0059
487.2413	0.0008
487.4411	-0.0026
487.641	-0.009
487.8408	0.0041
488.0405	-0.0113
488.2403	0.0001
488.4401	0.0067
488.6398	-0.0044
488.8395	-0.0056
489.0392	0.0013
489.2389	-0.0131
489.4386	-0.0066
489.6383	-0.0019
489.8379	0.001
490.0376	-0.009
490.2372	-0.0095
490.4368	-0.0146
490.6364	-0.0104
490.836	-0.012
491.0355	-0.0127
491.2351	-0.0177
491.4346	-0.008
491.6341	-0.0097
491.8336	-0.0088
492.0331	-0.0174
492.2326	-0.0199
492.432	-0.0123
492.6315	-0.0109
492.8309	-0.0224
493.0303	-0.0147
493.2297	-0.009
493.4291	-0.0031
493.6284	-0.0039
493.8278	-0.0164
494.0271	-0.0014
494.2264	0.007
494.4257	-0.008
494.625	0.0012
494.8243	-0.025
495.0236	-0.0082
495.2228	-0.0146
495.422	-0.0059
495.6213	-0.0052
495.8205	0.0042
496.0196	-0.0106
496.2188	-0.0029
496.418	-0.008
496.6171	-0.0142
496.8162	-0.0176
497.0153	-0.0096
497.2144	-0.0186
497.4135	0.0005
497.6126	-0.0112
497.8116	-0.0127
498.0107	0.0037
498.2097	-0.0175
498.4087	-0.0046
498.6077	0.0005
498.8067	-0.0116
499.0056	-0.0005
499.2046	-0.0119
499.4035	-0.0194
499.6024	-0.0071
499.8013	-0.0045
500.0002	-0.0187
500.199	-0.012
500.3979	-0.0082
500.5967	-0.0274
500.7956	-0.0017
500.9944	-0.014
501.1932	-0.0151
501.3919	-0.0143
501.5907	-0.0103
501.7895	0.0013
501.9882	-0.0176
502.1869	-0.0121
502.3856	-0.0046
502.5843	-0.0058
502.783	-0.0092
502.9816	-0.0088
503.1803	-0.0169
503.3789	-0.012
503.5775	0.0044
503.7761	-0.0015
503.9747	-0.0056
504.1732	-0.0195
504.3718	0.0012
504.5703	-0.0094
504.7689	-0.0151
504.9674	-0.0046
505.1658	-0.0034
505.3643	-0.0125
505.5628	-0.0079
505.7612	-0.0115
505.9597	0.0034
506.1581	-0.0134
506.3565	-0.0031
506.5549	-0.0048
506.7532	-0.0185
506.9516	-0.013
507.1499	-0.0107
507.3482	-0.0141
507.5465	-0.0195
507.7448	-0.0088
507.9431	-0.0033
508.1414	-0.0069
508.3396	-0.0023
508.5379	0.001
508.7361	-0.0096
508.9343	-0.0114
509.1325	-0.0034
509.3306	-0.0137
509.5288	-0.0035
509.7269	-0.022
509.9251	-0.0122
510.1232	-0.0135
510.3213	-0.0067
510.5193	0.0033
510.7174	-0.0087
510.9154	-0.0054
511.1135	-0.0085
511.3115	-0.0136
511.5095	-0.0118
511.7075	0.0025
511.9055	-0.0214
512.1034	-0.0227
512.3014	-0.0052
512.4993	-0.0077
512.6972	-0.0082
512.8951	-0.0119
513.093	-0.0072
513.2908	-0.0051
513.4887	-0.0107
513.6865	-0.0087
513.8844	-0.0089
514.0822	-0.0099
514.2799	-0.0125
514.4777	-0.0137
514.6755	-0.0108
514.8732	-0.0051
515.0709	0.0033
515.2687	-0.0109
515.4664	-0.0026
515.664	-0.0137
515.8617	-0.0135
516.0594	-0.0128
516.257	-0.0085
516.4546	-0.0139
516.6522	0.0006
516.8498	-0.0084
517.0474	-0.0009
517.2449	-0.0018
517.4425	-0.018
517.64	-0.0022
517.8375	-0.0082
518.035	-0.0115
518.2325	-0.0077
518.43	-0.0049
518.6274	-0.0092
518.8249	-0.025
519.0223	-0.0072
519.2197	-0.0078
519.4171	-0.0058
519.6145	-0.0203
519.8118	-0.0034
520.0092	-0.0036
520.2065	-0.017
520.4038	-0.0103
520.6011	-0.0075
520.7984	-0.0212
520.9956	-0.022
521.1929	-0.0171
521.3901	0.0014
521.5874	-0.0045
521.7846	-0.0041
521.9818	-0.0083
522.1789	-0.0096
522.3761	-0.0179
522.5732	-0.0141
522.7704	-0.0054
522.9675	-0.0051
523.1646	-0.001
523.3617	-0.0003
523.5587	-0.0123
523.7558	0.0008
523.9528	-0.009
524.1498	-0.0065
524.3468	-0.008
524.5438	-0.0037
524.7408	0.0062
524.9378	-0.0046
525.1347	-0.012
525.3316	-0.0043
525.5285	-0.0132
525.7254	-0.0033
525.9223	-0.0025
526.1192	-0.0055
526.316	-0.0132
526.5129	-0.004
526.7097	0.001
526.9065	-0.0112
527.1033	-0.0088
527.3	0.0033
527.4968	-0.0143
527.6935	-0.005
527.8903	-0.0137
528.087	-0.0046
528.2837	-0.007
528.4804	-0.004
528.677	-0.006
528.8737	0.003
529.0703	-0.007
529.2669	0.002
529.4635	-0.0051
529.6601	0.0015
529.8567	-0.0143
530.0532	-0.0052
530.2498	0.0038
530.4463	0.0047
530.6428	-0.0073
530.8393	0.0082
531.0358	-0.0032
531.2322	-0.0131
531.4287	-0.0052
531.6251	-0.0196
531.8215	0.0051
532.0179	0.0074
532.2143	0.0025
532.4107	-0.0059
532.607	-0.0092
532.8034	-0.0073
532.9997	-0.005
533.196	-0.0053
533.3923	-0.009
533.5886	-0.0106
533.7848	-0.0001
533.9811	-0.0042
534.1773	-0.0071
534.3735	0.0039
534.5697	-0.0043
534.7659	0.0032
534.9621	-0.0068
535.1582	-0.0119
535.3544	-0.0126
535.5505	-0.0149
535.7466	-0.0072
535.9427	-0.0084
536.1387	-0.0112
536.3348	-0.0051
536.5308	-0.0004
536.7269	-0.0253
536.9229	-0.0037
537.1189	-0.0072
537.3148	-0.0077
537.5108	-0.0119
537.7068	-0.0065
537.9027	-0.0022
538.0986	-0.0115
538.2945	-0.0085
538.4904	-0.0163
538.6863	-0.0072
538.8821	-0.0012
539.078	-0.0076
539.2738	-0.0056
539.4696	-0.013
539.6654	0.005
539.8611	0.0072
540.0569	-0.0057
540.2526	-0.0038
540.4484	-0.0034
540.6441	0.0035
540.8398	-0.0036
541.0355	0.0025
541.2311	-0.014
541.4268	-0.0164
541.6224	-0.0103
541.818	-0.0064
542.0136	-0.007
542.2092	-0.0009
542.4048	-0.0009
542.6003	-0.0049
542.7959	-0.002
542.9914	-0.0026
543.1869	-0.0088
543.3824	-0.0038
543.5779	-0.0069
543.7734	-0.0046
543.9688	-0.0103
544.1642	-0.0063
544.3596	-0.0065
544.555	-0.0063
544.7504	-0.008
544.9458	-0.0076
545.1411	-0.0122
545.3365	-0.0109
545.5318	-0.0048
545.7271	-0
545.9224	-0.0059
546.1177	0.0024
546.3129	-0.0067
546.5081	-0.0093
546.7034	-0.0069
546.8986	-0.0095
547.0938	-0.002
547.289	-0.0107
547.4841	0.001
547.6793	0.0063
547.8744	-0.013
548.0695	-0.0053
548.2646	-0.0083
548.4597	-0.0004
548.6548	-0.0064
548.8498	-0.0009
549.0448	0.0033
549.2399	-0.0015
549.4349	0.0026
549.6298	-0.0081
549.8248	0.0022
550.0198	-0.007
550.2147	-0.0039
550.4096	-0.0153
550.6045	-0.0089
550.7994	-0.0019
550.9943	-0.0046
551.1892	0.0038
551.384	-0.0037
551.5788	-0.0105
551.7737	-0
551.9685	-0.0026
552.1632	-0.0095
552.358	-0.009
552.5528	-0.0026
552.7475	-0.0125
552.9422	-0.0023
553.1369	-0.0038
553.3316	-0.0005
553.5263	-0.0079
553.7209	0.006
553.9156	0.0006
554.1102	-0.009
554.3048	-0.012
554.4994	0.0098
554.694	-0.0058
554.8885	0.0068
555.0831	-0.0084
555.2776	-0.0071
555.4721	-0.0079
555.6666	-0.0052
555.8611	0.0045
556.0555	-0.001
556.25	-0.0071
556.4444	-0.015
556.6388	0.0003
556.8332	0.0025
557.0276	-0.0092
557.222	-0.0041
557.4163	-0.0055
557.6107	-0.0123
557.805	0.0017
557.9993	-0.0171
558.1936	-0.001
558.3879	0.0018
558.5821	-0.0038
558.7764	-0.0049
558.9706	-0.0016
559.1648	0.0034
559.359	-0.0063
559.5532	-0.0039
559.7473	-0.0025
559.9415	0.0017
560.1356	-0.0109
560.3297	-0.0176
560.5238	-0.0102
560.7179	-0.007
560.9119	-0.0018
561.106	-0.0052
561.3	-0.008
561.494	-0.0084
561.688	-0.0053
561.882	-0.0119
562.076	-0.0081
562.2699	-0.0013
562.4639	-0.0018
562.6578	-0.0099
562.8517	-0.0055
563.0456	-0.0065
563.2395	-0.0002
563.4333	0.0014
563.6272	0.0088
563.821	-0.0062
564.0148	-0.0051
564.2086	-0.0089
564.4024	-0.0099
564.5961	-0.0063
564.7899	0.0023
564.9836	-0.0006
565.1773	0
565.371	0.0057
565.5647	0.0039
565.7584	0.0024
565.952	-0.004
566.1456	-0.0031
566.3393	-0.0022
566.5329	-0.0063
566.7264	-0.0011
566.92	-0.0145
567.1136	0.0059
567.3071	-0.0049
567.5006	0.0053
567.6941	0.0042
567.8876	0.0024
568.0811	-0.005
568.2745	-0.0037
568.468	0.0034
568.6614	0.0022
568.8548	-0.0087
569.0482	-0.0058
569.2416	-0.0021
569.4349	-0.0029
569.6283	0.0087
569.8216	-0.0026
570.0149	-0.0043
570.2082	-0.0001
570.4015	0.0024
570.5947	0.0014
570.788	0.0017
570.9812	0.005
571.1744	-0.0035
571.3676	-0.0104
571.5608	-0.0085
571.754	0.0007
571.9471	-0.0075
572.1402	-0.0016
572.3333	-0.0043
572.5264	-0.0071
572.7195	-0.0067
572.9126	0.0049
573.1057	-0.0013
573.2987	-0.0053
573.4917	-0.0014
573.6847	-0.0047
573.8777	-0.0002
574.0707	0.0085
574.2636	-0.0033
574.4566	-0.0054
574.6495	0.0069
574.8424	-0.0039
575.0353	-0.0004
575.2281	0.0093
575.421	0.0004
575.6138	0.0004
575.8067	-0.0001
575.9995	0.0006
576.1923	0.0024
576.385	-0.0064
576.5778	0.0001
576.7706	0.0014
576.9633	-0.0015
577.156	0.0017
577.3487	0.0037
577.5414	0
577.734	0.0009
577.9267	0.0004
578.1193	-0.0099
578.3119	-0.0115
578.5045	0.0011
578.6971	0.0009
578.8897	0.0043
579.0822	0
579.2747	-0.0066
579.4673	-0.0089
579.6598	-0.01
579.8522	-0.0082
580.0447	-0.0112
580.2372	-0.0034
580.4296	-0.0005
580.622	-0.0027
580.8144	-0.0028
581.0068	-0.0062
581.1992	-0.0129
581.3915	-0.0061
581.5839	-0.0075
581.7762	-0.0043
581.9685	-0.0039
582.1608	-0.0038
582.353	-0.0044
582.5453	0.0007
582.7375	-0.0027
582.9298	0.0044
583.122	0.0016
583.3142	-0.0059
583.5063	0.0039
583.6985	-0.0007
583.8906	-0.0053
584.0827	-0.0007
584.2749	0.0026
584.4669	-0.0031
584.659	-0.0049
584.8511	-0.0054
585.0431	-0.0047
585.2352	-0.0015
585.4272	-0.0044
585.6192	0.0028
585.8111	-0.0007
586.0031	-0.0013
586.195	0.0026
586.387	0.0046
586.5789	-0.0058
586.7708	0.0021
586.9627	0.0024
587.1545	-0.0036
587.3464	0.001
587.5382	0.0009
587.73	0.0014
587.9218	0.0065
588.1136	-0.0049
588.3053	-0.0023
588.4971	-0.0048
588.6888	-0.0154
588.8805	-0.0018
589.0722	0.0011
589.2639	-0
589.4556	-0.0029
589.6472	-0.0058
589.8389	-0.0082
590.0305	-0.011
590.2221	-0.005
590.4137	-0.0133
590.6052	0.007
590.7968	-0.0018
590.9883	-0.0013
591.1798	-0.0052
591.3713	0.0028
591.5628	-0.0012
591.7543	0.0008
591.9458	-0.0003
592.1372	0.0055
592.3286	0.0059
592.52	0.0072
592.7114	-0.011
592.9028	-0.0074
593.0941	-0.0047
593.2855	-0.0032
593.4768	-0.0062
593.6681	-0.006
593.8594	-0.0021
594.0506	0.0031
594.2419	0.0061
594.4331	0.0013
594.6244	-0.0015
594.8156	-0.012
595.0067	-0.0018
595.1979	-0.0033
595.3891	-0.0024
595.5802	-0.0038
595.7713	-0.0045
595.9624	-0.0061
596.1535	0.0035
596.3446	-0.0046
596.5357	-0.0003
596.7267	-0.0011
596.9177	-0.0065
597.1087	-0.0037
597.2997	-0.0033
597.4907	0.0005
597.6817	-0.0073
597.8726	0.0032
598.0635	-0.0055
598.2544	0.0032
598.4453	0.0005
598.6362	-0.0045
598.827	-0.0062
599.0179	0.0043
599.2087	0.0025
599.3995	-0.0055
599.5903	0.0007
599.7811	-0.0045
599.9718	0.0021
600.1626	-0.0053
600.3533	-0.0149
600.544	-0.0053
600.7347	-0.0085
600.9254	-0.0025
601.116	-0.0118
601.3067	-0.0018
601.4973	-0.0057
601.6879	-0.001
601.8785	-0.0012
602.0691	0.0026
602.2596	-0.0037
602.4502	0.0003
602.6407	0.0028
602.8312	-0.0071
603.0217	-0.0092
603.2122	0.0006
603.4027	-0.0016
603.5931	-0.0033
603.7835	-0.0045
603.9739	-0.0094
604.1643	-0.0057
604.3547	-0.0006
604.5451	0.0039
604.7354	-0.0017
604.9257	-0
605.116	-0.0043
605.3063	0.0043
605.4966	-0.0039
605.6869	0.003
605.8771	0.0096
606.0673	0.0071
606.2575	0.0056
606.4477	0.0035
606.6379	0.0072
606.8281	0.0026
607.0182	-0.0041
607.2083	0.0115
607.3985	-0.0062
607.5885	-0.002
607.7786	-0.0012
607.9687	-0.0032
608.1587	-0.0008
608.3488	0.0033
608.5388	-0.0051
608.7288	-0.004
608.9187	-0.0066
609.1087	-0.0055
609.2986	-0.012
609.4886	-0.0099
609.6785	-0.0021
609.8684	0.0025
610.0582	0.0049
610.2481	0.0042
610.4379	-0.0032
610.6278	0.0002
610.8176	0.0052
611.0074	-0.0081
611.1971	-0.0013
611.3869	0.0028
611.5766	-0.0045
611.7664	0.0113
611.9561	0.0029
612.1458	-0.0035
612.3354	-0.0022
612.5251	-0.0014
612.7147	-0.0032
612.9044	0.0069
613.094	-0.0117
613.2836	0.0036
613.4731	-0.0041
613.6627	-0.0039
613.8522	0.002
614.0417	0.0082
614.2313	-0.0101
614.4207	-0.0083
614.6102	0.0021
614.7997	-0.0004
614.9891	-0.0114
615.1785	-0.0019
615.3679	-0.0047
615.5573	0.008
615.7467	0.0004
615.9361	-0.0062
616.1254	-0.0046
616.3147	-0.0004
616.504	0.0006
616.6933	0.005
616.8826	0.0039
617.0718	0.0057
617.2611	-0.0003
617.4503	-0.0079
617.6395	-0.0055
617.8287	-0.006
618.0179	0.0024
618.207	0.0081
618.3961	-0.0022
618.5853	-0.0025
618.7744	0.0018
618.9634	-0.0013
619.1525	0.0008
619.3416	0.0023
619.5306	-0.0049
619.7196	0.0011
619.9086	0.0005
620.0976	0.0003
620.2866	0.0064
620.4755	-0.0051
620.6645	0.0024
620.8534	0.0033
621.0423	-0.0002
621.2312	0.0083
621.42	-0.0016
621.6089	-0
621.7977	-0.002
621.9865	-0.0106
622.1753	0.0019
622.3641	-0.0023
622.5529	0.011
622.7416	0.0016
622.9303	-0.0023
623.1191	0.0039
623.3078	0.0019
623.4964	0.0059
623.6851	-0.005
623.8737	-0.002
624.0624	0.0087
624.251	-0.0077
624.4396	0.0001
624.6282	-0.007
624.8167	0.0021
625.0053	0.0025
625.1938	0.0015
625.3823	-0.0077
625.5708	-0.0065
625.7593	-0.0111
625.9477	-0.0087
626.1362	-0.0091
626.3246	-0.0033
626.513	0.0022
626.7014	0.0053
626.8898	-0.0021
627.0781	-0.0015
627.2665	-0.0131
627.4548	0.0068
627.6431	-0.0002
627.8314	0.0027
628.0197	0.0057
628.2079	0.0007
628.3962	-0.0088
628.5844	0.0019
628.7726	0.0002
628.9608	0.0092
629.1489	-0.0004
629.3371	0.0022
629.5252	-0.0036
629.7134	0.0056
629.9015	0.0017
630.0895	-0.0014
630.2776	0.0034
630.4657	-0.0032
630.6537	-0.0032
630.8417	0.0018
631.0297	0.002
631.2177	-0.0055
631.4057	-0.0037
631.5936	0.0046
631.7815	0.0064
631.9695	0.0056
632.1574	0.006
632.3452	0.0137
632.5331	-0.0061
632.7209	-0.0025
632.9088	0.0024
633.0966	0.0087
633.2844	-0.0042
633.4722	0.0061
633.6599	0.0014
633.8477	-0.0021
634.0354	0.0022
634.2231	0.0003
634.4108	0.0053
634.5985	0.0012
634.7861	0.0066
634.9738	-0.0035
635.1614	-0.0049
635.349	0.0016
635.5366	-0.0006
635.7242	-0.0003
635.9117	0.0038
636.0993	0.0015
636.2868	0.0022
636.4743	-0.0007
636.6618	0.0062
636.8492	-0.0033
637.0367	0.0035
637.2241	-0.0029
637.4115	-0.0011
637.5989	-0.0078
637.7863	-0.0001
637.9737	-0.0049
638.161	0.0045
638.3484	0.0009
638.5357	0.0074
638.723	0.0027
638.9103	-0.0004
639.0975	0.0071
639.2848	0.004
639.472	-0.0017
639.6592	-0.001
639.8464	-0.0013
640.0336	0.0024
640.2208	0.0005
640.4079	-0.0032
640.595	-0.006
640.7821	0.0018
640.9692	0.0041
641.1563	0.004
641.3434	-0.0006
641.5304	0.0044
641.7174	0.0041
641.9044	-0.0075
642.0914	0.0012
642.2784	-0.0037
642.4653	0.0036
642.6523	0.0012
642.8392	-0.0084
643.0261	-0.0021
643.213	0.0075
643.3999	-0.003
643.5867	-0.0063
643.7735	-0.0087
643.9604	-0.0085
644.1472	0.0032
644.3339	-0
644.5207	-0.0045
644.7075	-0.0052
644.8942	0.0063
645.0809	0.0033
645.2676	0.0001
645.4543	-0.0028
645.6409	0.009
645.8276	-0.0026
646.0142	0.0079
646.2008	0.0006
646.3874	-0.0058
646.574	-0.0062
646.7605	-0.0052
646.9471	-0.0192
647.1336	-0.0073
647.3201	0.003
647.5066	0.0009
647.6931	0.0074
647.8795	-0.0035
648.0659	0.0032
648.2524	0.0056
648.4388	-0.0061
648.6252	0.0002
648.8115	0.003
648.9979	-0.0013
649.1842	0.0016
649.3705	0.0046
649.5568	0.0026
649.7431	0.0087
649.9294	-0.0022
650.1156	0.0007
650.3018	-0.0102
650.488	0.0057
650.6742	0.0056
650.8604	0.0005
651.0466	-0.0036
651.2327	-0.0001
651.4188	-0.0028
651.6049	-0.0089
651.791	-0.0029
651.9771	0.001
652.1632	-0.0012
652.3492	0.0016
652.5352	0.0029
652.7212	-0.0038
652.9072	0.0006
653.0932	0.0011
653.2791	-0.0015
653.465	-0.0003
653.651	-0.0114
653.8369	-0.0007
654.0227	0.0017
654.2086	0.0043
654.3944	-0.0008
654.5803	-0.0044
654.7661	-0.0042
654.9519	0.0034
655.1377	-0.0076
655.3234	-0.0003
655.5092	-0.0048
655.6949	-0.0071
655.8806	-0.0056
656.0663	-0.0004
656.2519	-0.0038
656.4376	-0.0011
656.6232	0.0004
656.8088	-0.0062
656.9945	-0.001
657.18	0.0013
657.3656	-0.0016
657.5511	-0.0026
657.7367	-0.0035
657.9222	0.0023
658.1077	-0.0034
658.2932	-0.001
658.4786	-0.0104
658.6641	-0.0065
658.8495	-0.0031
659.0349	-0.007
659.2203	0.0022
659.4057	-0.0011
659.591	-0.0002
659.7764	-0.0014
659.9617	-0.0007
660.147	0.0034
660.3323	-0.0029
660.5176	0.0079
660.7028	0.0073
660.888	0.0012
661.0733	0.0017
661.2585	-0.0061
661.4436	-0.0063
661.6288	-0.0041
661.8139	-0.0051
661.9991	0.0017
662.1842	-0.0029
662.3693	0.0036
662.5544	-0.0032
662.7394	-0.0044
662.9245	-0.0083
663.1095	-0.0039
663.2945	0.0001
663.4795	0.0006
663.6644	0.0049
663.8494	0.0022
664.0343	0.0022
664.2193	-0.0042
664.4042	-0.0044
664.589	-0.0041
664.7739	0.0019
664.9587	-0.0109
665.1436	-0.0063
665.3284	-0.003
665.5132	-0.0001
665.698	-0.0025
665.8827	0.0004
666.0675	-0.0016
666.2522	-0.0078
666.4369	0.0001
666.6216	0.0025
666.8063	0.0032
666.9909	-0.0046
667.1756	0.0005
667.3602	-0.0015
667.5448	-0.0081
667.7294	0.0084
667.9139	0.0056
668.0985	0.0076
668.283	-0.0033
668.4675	0.0033
668.652	0.0006
668.8365	-0.001
669.0209	0.0117
669.2054	0.0092
669.3898	-0.0036
669.5742	0.0049
669.7586	0.0029
669.943	0.0122
670.1273	0.0084
670.3117	-0.0009
670.496	0.0034
670.6803	0.0068
670.8646	0.0037
671.0488	-0.007
671.2331	-0.002
671.4173	0.0034
671.6015	-0.0032
671.7857	-0.001
671.9699	0.0042
672.1541	0.002
672.3382	0.0041
672.5223	0.0073
672.7064	0.0014
672.8905	0.0066
673.0746	-0.0056
673.2587	0.0016
673.4427	0.0029
673.6267	0.0055
673.8107	0.0107
673.9947	0.004
674.1787	0.0001
674.3626	-0.0071
674.5465	0.0113
674.7304	0.0021
674.9143	0.0088
675.0982	0.0082
675.2821	-0.0097
675.4659	0.0071
675.6497	0.0011
675.8335	0.005
676.0173	0.0004
676.2011	-0.0028
676.3849	-0.0001
676.5686	-0.0068
676.7523	-0.0019
676.936	-0.0064
677.1197	-0.0047
677.3034	-0.0051
677.487	0.0035
677.6706	0.0009
677.8542	-0.0017
678.0378	0.0068
678.2214	-0.003
678.405	0.0011
678.5885	-0.0075
678.772	-0.0024
678.9555	-0.0087
679.139	-0.0039
679.3225	0.0013
679.5059	0.0026
679.6894	0.0075
679.8728	-0.0051
680.0562	-0.0131
680.2395	-0.0069
680.4229	-0.0072
680.6062	0.006
680.7896	0.0039
680.9729	-0.0082
681.1562	0.0046
681.3394	0.0064
681.5227	-0.0042
681.7059	0.0031
681.8891	-0.0001
682.0723	0.0005
682.2555	0.0034
682.4387	-0.0035
682.6218	-0.0001
682.805	0.0043
682.9881	0.0054
683.1712	-0.004
683.3542	0.0023
683.5373	0.002
683.7203	-0.0098
683.9034	0.0006
684.0864	-0.0159
684.2694	-0.0055
684.4523	0.0009
684.6353	-0.0041
684.8182	-0.0054
685.0011	-0.0072
685.184	-0.0004
685.3669	-0.0064
685.5498	0.0004
685.7326	0.0012
685.9154	-0.0096
686.0982	0.0009
686.281	0.0086
686.4638	-0.0007
686.6465	0.0025
686.8293	-0.0027
687.012	-0.0089
687.1947	-0.0061
687.3774	0.0034
687.56	-0.0037
687.7427	0.0041
687.9253	-0.0052
688.1079	-0.008
688.2905	0.0091
688.4731	-0.0021
688.6556	0.0023
688.8382	-0.0002
689.0207	0.0019
689.2032	-0.0087
689.3857	-0.0031
689.5681	-0.0029
689.7506	-0.003
689.933	-0.0071
690.1154	-0.0014
690.2978	-0.0048
690.4802	0.0049
690.6626	-0.0044
690.8449	-0.0055
691.0272	0.0008
691.2095	-0.0083
691.3918	-0.0042
691.5741	-0.0023
691.7563	0.0007
691.9386	0.0013
692.1208	0.0007
692.303	0.0027
692.4852	0.0014
692.6673	-0.0034
692.8495	-0.0004
693.0316	-0.0006
693.2137	0.003
693.3958	0.0044
693.5778	0.0047
693.7599	-0.0042
693.9419	-0.0005
694.1239	-0.0016
694.3059	-0.0032
694.4879	0.001
694.6699	0.008
694.8518	-0.0007
695.0337	-0.0095
695.2157	0.0073
695.3975	0.0015
695.5794	-0.0016
695.7613	-0.0025
695.9431	-0.0028
696.1249	0.0013
696.3067	0.0091
696.4885	0.0106
696.6703	-0.0023
696.852	0.0054
697.0337	0.0058
697.2154	0.001
697.3971	0.006
697.5788	0.0087
697.7605	-0.0031
697.9421	0.0092
698.1237	-0.0022
698.3053	-0.0033
698.4869	0.0058
698.6685	-0.0026
698.85	-0.0004
699.0315	0.0066
699.213	-0.0032
699.3945	0.0025
699.576	0.0062
699.7575	0.0067
699.9389	0.0054
700.1203	0
700.3017	-0.0098
700.4831	-0.0127
700.6645	-0.0076
700.8458	0.006
701.0271	-0.0116
701.2084	0.0034
701.3897	0.0009
701.571	0.0051
701.7523	-0.0116
701.9335	-0.0033
702.1147	-0.0004
702.2959	0.0014
702.4771	-0.0009
702.6583	0.0039
702.8394	-0.0045
703.0205	-0.0004
703.2016	-0.0092
703.3827	-0.0063
703.5638	0.0111
703.7449	0.005
703.9259	0.0085
704.1069	-0.0009
704.2879	0.0002
704.4689	0.0002
704.6499	0.0017
704.8308	-0.0023
705.0117	-0.0035
705.1927	-0.0034
705.3735	-0.0085
705.5544	-0.0111
705.7353	-0.0011
705.9161	-0.0082
706.0969	-0.0048
706.2777	-0.0046
706.4585	-0.0044
706.6393	0.0004
706.82	-0.0157
707.0007	-0.0026
707.1815	0.0023
707.3621	0.002
707.5428	-0.0043
707.7235	0.005
707.9041	0.0039
708.0847	-0.0062
708.2653	-0.0103
708.4459	-0.0108
708.6265	-0.0028
708.807	-0.0001
708.9875	-0.0042
709.168	-0.005
709.3485	-0.0048
709.529	-0.0078
709.7095	-0.0146
709.8899	-0.0103
710.0703	-0.0111
710.2507	-0.0082
710.4311	-0.0105
710.6115	-0.0103
710.7918	-0.0088
710.9721	-0.0026
711.1524	-0.007
711.3327	0.0045
711.513	0.0025
711.6932	0.0048
711.8735	0.011
712.0537	0.0053
712.2339	0.004
712.4141	-0.008
712.5942	-0.002
712.7744	-0.0008
712.9545	-0.0063
713.1346	-0.0133
713.3147	-0.0092
713.4947	-0.0031
713.6748	-0.0013
713.8548	0.001
714.0348	-0.0049
714.2148	-0.0051
714.3948	0.0042
714.5748	-0.0047
714.7547	-0.0029
714.9346	0.0041
715.1145	-0.0028
715.2944	-0.0042
715.4743	0.0021
715.6541	-0.0098
715.834	0.001
716.0138	-0.0121
716.1936	-0.0189
716.3733	-0.0039
716.5531	-0.0016
716.7328	-0.0016
716.9126	-0.0037
717.0923	0.0092
717.2719	0.0033
717.4516	0.0049
717.6312	0.0122
717.8109	0.0005
717.9905	0.0025
718.1701	-0.0067
718.3496	-0.007
718.5292	-0.0007
718.7087	0.0126
718.8882	-0.0003
719.0677	0.006
719.2472	0.001
719.4267	0.0019
719.6061	0.0044
719.7856	0.0025
719.965	0.0067
720.1443	-0.0007
720.3237	0.0154
720.5031	-0.0066
720.6824	0.0036
720.8617	0.0062
721.041	-0.0018
721.2203	0.003
721.3995	0.0032
721.5788	0.0029
721.758	0.0074
721.9372	-0.0004
722.1164	-0.0068
722.2956	-0.0049
722.4747	-0.0022
722.6538	-0.0029
722.8329	0.0142
723.012	-0.0024
723.1911	-0
723.3702	-0.0075
723.5492	-0.002
723.7282	-0.0016
723.9072	0.003
724.0862	-0.0066
724.2652	-0.0036
724.4441	-0.0073
724.623	-0.005
724.8019	-0.0072
724.9808	0.0044
725.1597	-0.0091
725.3385	0.0022
725.5174	0.0004
725.6962	-0.0025
725.875	-0.0012
726.0538	0.0047
726.2325	0.001
726.4112	0.002
726.59	-0.004
726.7687	-0.0032
726.9474	-0.0028
727.126	0.0015
727.3047	-0.0024
727.4833	-0.0014
727.6619	-0.0121
727.8405	-0.006
728.0191	-0.0192
728.1976	-0.0068
728.3762	-0.0037
728.5547	-0.0016
728.7332	-0.0184
728.9116	0.0019
729.0901	0.0085
729.2686	-0.0134
729.447	-0.0058
729.6254	-0.0086
729.8038	-0.0058
729.9821	-0.0154
730.1605	-0.0016
730.3388	-0.0022
730.5171	-0.001
730.6954	-0.0104
730.8737	0.0126
731.0519	0.0038
731.2302	0.005
731.4084	0.0028
731.5866	0.0016
731.7648	-0.0052
731.9429	-0.0062
732.1211	-0.0127
732.2992	-0.0003
732.4773	-0.006
732.6554	-0.0131
732.8335	-0.002
733.0115	-0.0018
733.1896	0.0032
733.3676	-0.0114
733.5456	0.0034
733.7235	0.0058
733.9015	-0.0009
734.0794	-0.0058
734.2574	-0
734.4353	-0.0011
734.6131	0.0065
734.791	-0.0028
734.9689	-0.0048
735.1467	0.0022
735.3245	-0.0115
735.5023	-0.0084
735.68	-0.0078
735.8578	0.0015
736.0355	-0.0128
736.2132	-0.0114
736.3909	-0.0081
736.5686	-0.0118
736.7463	0.0031
736.9239	-0.0037
737.1015	-0.0024
737.2791	-0.0004
737.4567	0.0008
737.6343	-0.0044
737.8118	-0.0022
737.9894	-0.0001
738.1669	-0.0178
738.3444	-0.0003
738.5218	0.002
738.6993	-0.0037
738.8767	-0.0046
739.0541	0.0071
739.2315	-0.0129
739.4089	-0.0005
739.5863	0.0024
739.7636	-0.0096
739.9409	-0.0024
740.1182	0.0121
740.2955	0.0014
740.4728	-0.0038
740.65	0.0005
740.8272	-0.0004
741.0044	-0.0132
741.1816	0.0032
741.3588	-0.0026
741.5359	0
741.7131	-0.0135
741.8902	-0.0072
742.0673	-0.0057
742.2444	-0.0113
742.4214	-0.0103
742.5985	-0.0046
742.7755	-0.0018
742.9525	-0.0158
743.1295	0.0018
743.3064	-0.0008
743.4834	0.0046
743.6603	-0.001
743.8372	-0.0023
744.0141	0.0043
744.191	-0.0028
744.3678	-0.003
744.5446	0.0037
744.7215	0.0057
744.8982	-0.0081
745.075	-0.0121
745.2518	0.008
745.4285	-0.001
745.6052	-0.0071
745.7819	-0.0062
745.9586	-0.0067
746.1353	-0.0078
746.3119	-0.0208
746.4885	-0.019
746.6651	-0.0196
746.8417	-0.012
747.0183	-0.014
747.1948	-0.0102
747.3714	-0.0207
747.5479	-0.0146
747.7244	-0.0073
747.9008	-0.001
748.0773	-0.0047
748.2537	-0.0157
748.4301	-0.0204
748.6065	-0.0076
748.7829	-0.0028
748.9593	-0.0125
749.1356	-0.0035
749.3119	0
749.4882	-0.0123
749.6645	0.001
749.8408	-0.012
750.017	-0.0079
750.1933	-0.0006
750.3695	-0.0094
750.5457	-0.0026
750.7218	-0.0037
750.898	-0.0063
751.0741	-0.0078
751.2502	-0.0119
751.4263	-0.0104
751.6024	-0.0085
751.7784	-0.0024
751.9545	-0.0125
752.1305	-0.0042
752.3065	-0.0107
752.4825	-0.0057
752.6584	-0.009
752.8344	-0.0088
753.0103	-0.006
753.1862	-0.0132
753.3621	-0.004
753.5379	-0.0153
753.7138	-0.009
753.8896	-0.0043
754.0654	-0.0009
754.2412	-0.0009
754.417	-0.007
754.5927	-0.0093
754.7685	-0.0061
754.9442	0.0035
755.1199	0.0079
755.2956	-0.0032
755.4712	0.0006
755.6469	0.0009
755.8225	-0.0026
755.9981	-0.0014
756.1736	0.0092
756.3492	0.0031
756.5248	-0.0039
756.7003	0.0036
756.8758	0.0169
757.0513	-0.0081
757.2267	-0.0014
757.4022	-0.0024
757.5776	-0.0054
757.753	0.0044
757.9284	-0.0048
758.1038	0.0068
758.2791	-0.0053
758.4545	-0.0169
758.6298	-0.016
758.8051	-0.0033
758.9803	-0.0035
759.1556	-0.0065
759.3308	-0.0059
759.506	0.0041
759.6812	0.0051
759.8564	0.007
760.0316	-0.0008
760.2067	0.0124
760.3819	0.009
760.557	0.0189
760.732	0.0027
760.9071	-0.0043
761.0821	0.0006
761.2572	0.007
761.4322	-0.0051
761.6072	0.0004
761.7821	-0.0046
761.9571	0.0047
762.132	-0.0052
762.3069	-0.0139
762.4818	-0.0085
762.6567	-0.0042
762.8316	-0.0062
763.0064	-0.005
763.1812	-0.0089
763.356	-0.0132
763.5308	-0.0071
763.7055	-0.0005
763.8803	-0.0054
764.055	-0.011
764.2297	-0.0052
764.4044	-0.0105
764.579	-0.0145
764.7537	-0.0122
764.9283	-0.0106
765.1029	-0.0094
765.2775	-0.0104
765.4521	-0.0188
765.6266	-0.0176
765.8011	-0.0033
765.9756	-0.0077
766.1501	-0.0075
766.3246	-0.0049
766.4991	-0.0034
766.6735	-0.0101
766.8479	-0.0131
767.0223	0.0024
767.1967	-0.0146
767.371	-0.0025
767.5454	-0.0068
767.7197	0.0039
767.894	-0.0116
768.0683	-0.0137
768.2425	-0.0025
768.4168	0.0011
768.591	-0.0016
768.7652	-0.0082
768.9394	-0.0173
769.1135	-0.0041
769.2877	0.0061
769.4618	-0.0043
769.6359	-0.0065
769.81	-0.0077
769.984	-0.0004
770.1581	-0.0154
770.3321	0.0125
770.5061	0.0011
770.6801	0.0002
770.8541	0.0029
771.028	-0.0014
771.202	-0.0109
771.3759	0.0054
771.5498	-0.0116
771.7236	0.0008
771.8975	-0.0136
772.0713	0.002
772.2451	-0.0076
772.4189	0.005
772.5927	0.0012
772.7665	-0.0043
772.9402	-0.0162
773.1139	-0.0095
773.2876	-0.0083
773.4613	-0.0014
773.635	0.0009
773.8086	-0.0141
773.9822	-0.0121
774.1558	-0.0028
774.3294	-0.0303
774.503	-0.0083
774.6765	-0.0054
774.8501	-0.0108
775.0236	-0.0048
775.1971	-0.0009
775.3705	-0.0121
775.544	-0.0056
775.7174	-0.0184
775.8908	-0.0095
776.0642	-0.0102
776.2376	-0.0134
776.4109	-0.016
776.5843	-0.0035
776.7576	-0.0142
776.9309	0.0003
777.1041	0.0057
777.2774	0.0091
777.4506	-0.0033
777.6238	-0.0093
777.797	-0.0124
777.9702	-0.006
778.1434	-0.0008
778.3165	-0.0052
778.4896	-0.0081
778.6627	0.0151
778.8358	-0.0022
779.0089	0.0029
779.1819	-0.0072
779.3549	-0.007
779.5279	0.0043
779.7009	-0.0139
779.8739	0.0054
780.0468	0.0076
780.2197	-0.0111
780.3926	-0.0121
780.5655	-0.0137
780.7384	-0.009
780.9112	-0.0152
781.0841	-0.0165
781.2569	-0.0013
781.4297	-0.0079
781.6024	0.0002
781.7752	-0.0008
781.9479	-0.0046
782.1206	-0.0103
782.2933	-0.0129
782.466	-0.006
782.6386	-0.0009
782.8113	-0.0128
782.9839	-0.0048
783.1565	0.0046
783.329	-0.0012
783.5016	0.0101
783.6741	-0.0066
783.8466	0.0018
784.0191	0.0144
784.1916	-0.001
784.3641	-0.0021
784.5365	0.0056
784.7089	-0.0112
784.8813	-0.0046
785.0537	-0.0054
785.2261	-0.0169
785.3984	-0.016
785.5707	-0.0107
785.743	-0.005
785.9153	-0.0024
786.0876	0.0025
786.2598	0.0029
786.432	-0.019
786.6042	0.0031
786.7764	-0.0195
786.9486	-0.0064
787.1207	-0.016
787.2928	-0.0055
787.4649	-0.0156
787.637	0.003
787.8091	-0.0127
787.9811	-0.0215
788.1532	-0.0115
788.3252	-0.003
788.4972	-0.0057
788.6691	-0.0115
788.8411	0.0042
789.013	-0.016
789.1849	-0.0072
789.3568	-0.0025
789.5287	-0.0076
789.7005	-0.0148
789.8723	0.0043
790.0442	0.0089
790.2159	0.0033
790.3877	-0.0039
790.5595	-0.0259
790.7312	-0.0016
790.9029	-0.0144
791.0746	-0.0123
791.2463	-0.0002
791.4179	-0.0066
791.5896	-0.0171
791.7612	-0.0089
791.9328	0.0082
792.1044	-0.0102
792.2759	-0.0197
792.4474	-0.0107
792.619	-0.0069
792.7905	0.0027
792.9619	0.0002
793.1334	0.0046
793.3048	0.0127
793.4762	0.0036
793.6476	0.0093
793.819	-0.0058
793.9904	-0.0008
794.1617	-0.0262
794.333	-0.0024
794.5043	-0.0147
794.6756	-0.0097
794.8469	0.0017
795.0181	-0.0108
795.1893	-0.0008
795.3605	0.0069
795.5317	-0.0063
795.7029	-0.003
795.874	-0.004
796.0452	-0.0059
796.2163	-0.0093
796.3873	-0.0044
796.5584	0.0133
796.7294	-0.0103
796.9005	0.0076
797.0715	-0.0006
797.2425	-0.0168
797.4134	-0.0046
797.5844	0.0022
797.7553	-0.0145
797.9262	-0.007
798.0971	-0.0229
798.2679	-0.001
798.4388	-0.0202
798.6096	-0.012
798.7804	-0.0079
798.9512	-0.0036
799.122	-0.0078
799.2927	0.0162
799.4635	-0.0027
799.6342	-0.0282
799.8049	-0.0032
799.9755	-0.0158
800.1462	-0.0098
800.3168	-0.0024
800.4874	0.0065
800.658	0.0034
800.8286	0.0079
800.9991	0.0093
801.1696	-0.009
801.3402	0.0082
801.5106	0.0081
801.6811	0.0047
801.8516	0.0035
802.022	0.0081
802.1924	0.0121
802.3628	0.0118
802.5332	-0.0009
802.7035	0.0051
802.8739	-0.0066
803.0442	-0.0097
803.2145	0.0086
803.3847	-0.017
803.555	0.0044
803.7252	-0.014
803.8954	-0.0253
804.0656	-0.0039
804.2358	-0.013
804.4059	0.0024
804.5761	-0.0027
804.7462	0.0036
804.9163	0.004
805.0864	-0.0132
805.2564	0.0005
805.4264	0.0041
805.5965	-0.0019
805.7665	-0.0084
805.9364	0.0116
806.1064	0.0219
806.2763	-0.013
806.4462	0.0149
806.6161	-0.0142
806.786	0.0109
806.9559	-0.0004
807.1257	-0.0077
807.2955	-0.0106
807.4653	0.0093
807.6351	0.0039
807.8048	-0.0263
807.9746	0.0116
808.1443	0.0148
808.314	-0.0077
808.4837	0.0108
808.6533	0.0008
808.8229	0.0308
808.9926	0.0132
809.1622	0.0142
809.3317	-0.0114
809.5013	-0.0029
809.6708	0.0122
809.8403	-0.008
810.0098	-0.0009
810.1793	0.0052
810.3488	-0.0241
810.5182	-0.0181
810.6876	0.0014
810.857	-0.0291
811.0264	0.0098
811.1958	0.0053
811.3651	-0.0092
811.5344	-0.0046
811.7037	-0.0288
811.873	-0.0238
812.0422	-0.0043
812.2115	-0.0134
812.3807	-0.0172
812.5499	-0.0084
812.7191	-0.0065
812.8882	-0.0097
813.0574	-0.0097
813.2265	-0.0048
813.3956	0.002
813.5646	0.0012
813.7337	-0.0318
813.9027	0.0064
814.0718	0.0032
814.2407	0.0124
814.4097	-0.009
814.5787	-0.0051
814.7476	-0.0122
814.9165	0.0021
815.0854	-0.0164
815.2543	-0.0232
815.4232	-0.0347
815.592	0.0121
815.7608	-0.0019
815.9296	0.0069
816.0984	-0.0008
816.2671	-0.0043
816.4359	-0.0124
816.6046	-0.0131
816.7733	-0.0149
816.942	-0.0156
817.1106	-0.0082
817.2793	0.0045
817.4479	-0.0066
817.6165	0.0189
817.785	-0.0005
817.9536	-0.0324
818.1221	-0.0309
818.2906	-0.0037
818.4591	-0.0041
818.6276	-0.0125
818.7961	-0.0087
818.9645	0.0133
819.1329	-0.0081
819.3013	0.0015
819.4697	0.0137
819.638	-0.0029
819.8064	0.0015
819.9747	0.0015
820.143	0.0078
820.3113	-0.0085
820.4795	0.0169
820.6477	-0.0164
820.816	0.0054
820.9842	-0.0034
821.1523	-0.0088
821.3205	0.0037
821.4886	-0.0244
821.6567	-0.0143
821.8248	-0.0019
821.9929	0.0071
822.1609	0.017
822.329	-0.0013
822.497	0.0019
822.665	-0.0369
822.833	-0.0228
823.0009	-0.0032
823.1688	0.0028
823.3367	0.0189
823.5046	-0.0021
823.6725	0.0354
823.8404	0.0146
824.0082	0.0104
824.176	0.0257
824.3438	-0.0006
824.5116	-0.0151
824.6793	0.0303
824.847	-0.0023
825.0147	-0.0339
825.1824	0.001
825.3501	0.0229
825.5177	-0.0381
825.6854	-0.02
825.853	0.0056
826.0206	-0.0702
826.1881	-0.0045
826.3557	-0.0447
826.5232	0.0015
826.6907	-0.0451
826.8582	-0.0316
827.0257	-0.0357
827.1931	-0.0205
827.3605	-0.0092
827.528	-0.0044
827.6953	-0.0061
827.8627	-0.015
828.03	0.0474
828.1974	-0.015
828.3647	-0.018
828.532	0.0012
828.6992	-0.0321
828.8665	0.0202
829.0337	-0.0018
829.2009	-0.0082
829.3681	-0.0256
829.5352	0.0318
829.7024	-0.0329
829.8695	-0.0157
830.0366	0.0291
830.2037	-0.0003
830.3707	0.0432
830.5378	-0.0098
830.7048	0.0169
830.8718	0.0197
831.0388	-0.0133
831.2057	0.0008
831.3727	0.0298
831.5396	-0.0088
831.7065	-0.0133
831.8734	0.0051
832.0402	-0.0167
832.2071	-0.002
832.3739	0.0009
832.5407	0.0105
832.7075	-0.0169
832.8742	-0.0345
833.041	-0.0374
833.2077	-0.004
833.3744	-0.0039
833.541	-0.0373
833.7077	-0.0437
833.8743	-0.0221
834.0409	-0.0417
834.2075	-0.035
834.3741	-0.0335
834.5407	0.0003
834.7072	0.0112
834.8737	-0.0043
835.0402	-0.0169
835.2067	0.0116
835.3731	-0.0359
835.5395	0.0253
835.706	-0.0156
835.8723	-0.0097
836.0387	-0.0156
836.2051	-0.0331
836.3714	-0.0038
836.5377	0.0347
836.704	0.0046
836.8703	-0.0004
837.0365	-0.0012
837.2027	-0.0042
837.3689	-0.0184
837.5351	-0.0287
837.7013	-0.0106
837.8674	-0.0382
838.0335	-0.0131
838.1997	-0.0474
838.3657	-0.0178
838.5318	-0.0333
838.6978	0.0179
838.8639	0.0383
839.0299	0.0108
839.1958	-0.0255
839.3618	-0.0039
839.5277	-0.0551
839.6937	-0.0095
839.8596	-0.02
840.0254	-0.0331
840.1913	0.0294
840.3571	0.0057
840.523	-0.0669
840.6888	0.0004
840.8545	-0.0312
841.0203	-0.0031
841.186	0.0143
841.3517	0.0234
841.5174	-0.0074
841.6831	-0.0643
841.8488	-0.0005
842.0144	0.0031
842.18	0.0278
842.3456	-0.0107
842.5112	0.0191
842.6767	-0.0354
842.8422	-0.0285
843.0077	-0.0217
843.1732	-0.0211
843.3387	-0.0216
843.5042	-0.0332
843.6696	-0.0195
843.835	-0.0081
844.0004	-0.0269
844.1657	-0.0046
844.3311	-0.0391
844.4964	-0.0467
844.6617	-0.0588
844.827	-0.033
844.9923	-0.0141
845.1575	0.0604
845.3227	-0.0599
845.4879	-0.015
845.6531	-0.0021
845.8183	-0.0876
845.9834	-0.0296
846.1485	-0.0198
846.3136	-0.0498
846.4787	-0.0866
846.6438	0.0175
846.8088	-0.0728
846.9738	-0.041
847.1388	-0.0022
847.3038	-0.0666
847.4687	-0.1389
847.6337	0.0018
847.7986	0.0006
847.9635	-0.0521
848.1284	-0.0221
848.2932	0.0006
848.458	-0.0567
848.6228	-0.0276
848.7876	0.0674
848.9524	-0.1031
849.1172	-0.1402
849.2819	0.0588
849.4466	-0.1395
849.6113	-0.0224
849.7759	-0.0844
849.9406	0.0635
850.1052	0.0338
850.2698	-0.1049
850.4344	-0.035
850.599	-0.1104
850.7635	0.0436
850.928	-0.0095
851.0925	-0.0534
851.257	-0.0251
851.4215	0.0223
851.5859	0.1394
851.7503	0.0425
851.9147	-0.0461
852.0791	-0.0356
852.2434	0.0618
852.4078	-0.0219
852.5721	0.0981
852.7364	-0.0564
852.9007	-0.0708
853.0649	-0.0108
853.2291	0.0656
853.3934	-0.0513
853.5575	0.0783
853.7217	-0.1019
853.8859	-0.1882
854.05	-0.1126
854.2141	0.0037
854.3782	-0.0183
854.5423	-0.0752
854.7063	0.0311
854.8703	-0.1212
855.0343	-0.0548
855.1983	-0.2628
855.3623	0.0733
855.5262	-0.0651
855.6901	-0.0791
855.854	-0.0572
856.0179	-0.0207
856.1818	0.0776
856.3456	-0.2459
856.5094	-0.117
856.6732	-0.1892
856.837	-0.0403
857.0008	-0.0393
857.1645	-0.0964
857.3282	-0.1905
857.4919	0.2323
857.6556	-0.0261
857.8192	-0.0571
857.9828	0.0276
858.1465	0.0217
858.31	-0.1932
858.4736	-0.1513
858.6372	-0.2671
858.8007	-0.2571
858.9642	0.1412
859.1277	0.3293
859.2911	0.0019
859.4546	-0.0073
859.618	-0.5152
859.7814	-0.0434
859.9448	-0.0702
860.1081	-0.1883
860.2715	0.1762
860.4348	0.0854
860.5981	-0.0166
860.7614	0.1857
860.9246	-0.0121
861.0879	-0.1897
861.2511	0.0715
861.4143	-0.2413
861.5774	-0.1019
861.7406	-0.3917
861.9037	0.1884
862.0668	-0.1671
862.2299	-0.0765
862.393	-0.6911
862.556	0.0785
862.7191	-0.337
862.8821	-0.1792
863.0451	0.0427
863.208	-0.0713
863.371	-0.0157
863.5339	0.0665
863.6968	-0.0313
863.8597	0.2442
864.0225	-0.2029
864.1854	-0.0227
864.3482	-0.0186
864.511	0.0198
864.6737	0.0667
864.8365	-0.0726
864.9992	-0.386
865.1619	-0.4533
865.3246	-0.1306
865.4873	-0.1576
865.65	0.1542
865.8126	0.2007
865.9752	0.1064
866.1378	-0.1957
866.3004	0.0351
866.4629	0.2696
866.6254	-0.3662
866.7879	0.0138
866.9504	-0
867.1129	-0
867.2753	0.3503
867.4377	-0.0067
867.6001	-0.3275
867.7625	0.5444
867.9249	-0.4636
868.0872	-0.2428
868.2495	0.0968
868.4118	-0.3479
868.5741	-0.0836
868.7363	-0.2814
868.8986	-0.1515
869.0608	0.0202
869.223	0.0553
869.3851	0.0886
869.5473	0.0779
869.7094	0.0072
869.8715	-0.2905
870.0336	-0
870.1957	-0.8237
870.3577	-0
870.5197	-0.2277
870.6817	-0.2513
870.8437	-0.0169
871.0057	-0.6851
871.1676	-0
871.3295	-0.269
871.4914	-0
871.6533	-0.1761
871.8151	0.1386
871.977	-0
872.1388	-0
872.3006	-0
872.4623	0.2334
872.6241	-0.0674
872.7858	0.5654
872.9475	0.1099
873.1092	-0.4241
873.2709	-0
873.4325	0.0444
873.5941	1.1729
873.7557	0.0266
873.9173	-0
874.0789	-0
874.2404	-0.7216
874.4019	-0.0194
874.5634	-0.2776
874.7249	-0.3381
874.8863	0.6039
875.0478	-0.038
875.2092	-0
875.3706	0.2343
875.5319	-0.2758
875.6933	-0
875.8546	-0.479
876.0159	-0
876.1772	0.2766
876.3385	-0
876.4997	0.1643
876.6609	-0.3651
876.8221	-0.3317
876.9833	0.7584
877.1445	-0
877.3056	0.1589
877.4667	-0.4875
877.6278	-0
877.7889	-0.553
877.9499	-0
878.111	0.8381
878.272	-0
878.433	1.1543
878.5939	0.1826
878.7549	0.115
878.9158	-0.8401
879.0767	-0
879.2376	-0
879.3984	-0.05
879.5593	-0
879.7201	0.3091
879.8809	-0.8173
880.0417	-0.2127
880.2024	-0.2445
880.3632	-0
880.5239	0.8085
880.6846	-0
880.8452	-2.4571
881.0059	-0
881.1665	-0.172
881.3271	-0
881.4877	-0.0983
881.6483	-0.7712
881.8088	-0.0118
881.9693	0.3065
882.1298	0.3065
882.2903	0.3065
