Data from MonoPyChalIsomerACN10uM350nmA_Absorbance_14-35-35-415.txt Node
Date: Fri Jul 05 14:35:35 BST 2024
User: LASERRRRR
Spectrometer: FLMT03099
Trigger mode: 0
Integration Time (sec): 1.000000E-1
Scans to average: 1
Electric dark correction enabled: true
Nonlinearity correction enabled: false
Boxcar width: 0
XAxis mode: Wavelengths
Number of Pixels in Spectrum: 3648
>>>>>Begin Spectral Data<<<<<
179.3399	-0.2213
179.5586	-0.2213
179.7771	-0.2213
179.9957	-0
180.2143	-0
180.4329	0.0786
180.6514	0.6496
180.8699	-0
181.0885	0.2986
181.307	0.3622
181.5255	-0.4536
181.744	-0.5803
181.9625	-0
182.181	-1.1957
182.3994	-0.0349
182.6179	0.3545
182.8363	0.6263
183.0547	-0.0666
183.2732	0.2145
183.4916	0.2066
183.71	0.2009
183.9284	0.2014
184.1467	-0.1046
184.3651	-0.0488
184.5835	-0.017
184.8018	0.0367
185.0201	-0.0183
185.2385	-0.0335
185.4568	0.1321
185.6751	-0.0534
185.8934	0.2363
186.1117	-0.0421
186.3299	0.1467
186.5482	0.1242
186.7664	0.1025
186.9847	0.092
187.2029	0.2053
187.4211	0.0509
187.6393	0.0339
187.8575	0.3202
188.0757	0.4057
188.2939	-0.0572
188.512	0.0013
188.7302	-0.0163
188.9483	0.0627
189.1665	0.1442
189.3846	-0.2925
189.6027	0.3086
189.8208	0.1752
190.0389	0.2392
190.257	0.0714
190.475	0.1866
190.6931	0.5044
190.9111	0.5138
191.1292	0.1272
191.3472	0.4794
191.5652	0.3108
191.7832	0.4091
192.0012	0.5897
192.2192	0.5444
192.4371	0.6508
192.6551	0.3494
192.873	0.511
193.091	0.2876
193.3089	0.5225
193.5268	1.2145
193.7447	0.4773
193.9626	0.4313
194.1805	0.7021
194.3984	1.1596
194.6162	0.6049
194.8341	0.5776
195.0519	0.6275
195.2697	0.7913
195.4875	0.6082
195.7054	0.5959
195.9231	0.5412
196.1409	0.5297
196.3587	0.807
196.5765	0.6991
196.7942	0.6579
197.012	0.495
197.2297	0.9203
197.4474	0.8473
197.6651	0.5055
197.8828	0.6549
198.1005	0.6431
198.3182	0.7076
198.5358	0.9405
198.7535	0.5233
198.9711	0.6174
199.1888	0.7593
199.4064	0.7394
199.624	0.6457
199.8416	0.6871
200.0592	0.787
200.2767	0.7294
200.4943	0.6527
200.7119	0.9563
200.9294	0.6914
201.1469	0.5717
201.3645	0.5571
201.582	0.6034
201.7995	0.6861
202.017	0.6991
202.2344	0.6022
202.4519	0.6219
202.6694	0.6093
202.8868	0.6259
203.1042	0.6913
203.3217	0.7176
203.5391	0.655
203.7565	0.5128
203.9739	0.677
204.1913	0.6162
204.4086	0.7333
204.626	0.7
204.8433	0.6467
205.0607	0.62
205.278	0.6565
205.4953	0.6863
205.7126	0.7153
205.9299	0.6913
206.1472	0.6986
206.3644	0.6204
206.5817	0.6491
206.7989	0.7434
207.0162	0.6621
207.2334	0.6634
207.4506	0.6424
207.6678	0.6257
207.885	0.76
208.1022	0.6632
208.3194	0.5997
208.5365	0.5848
208.7537	0.6818
208.9708	0.5599
209.1879	0.6835
209.405	0.6698
209.6222	0.6902
209.8392	0.6876
210.0563	0.5944
210.2734	0.6489
210.4905	0.6021
210.7075	0.6601
210.9245	0.6321
211.1416	0.6941
211.3586	0.6365
211.5756	0.5909
211.7926	0.5701
212.0096	0.5673
212.2265	0.5401
212.4435	0.5701
212.6604	0.5901
212.8774	0.6626
213.0943	0.6065
213.3112	0.5668
213.5281	0.5038
213.745	0.4641
213.9619	0.5096
214.1788	0.4707
214.3956	0.5142
214.6125	0.4677
214.8293	0.4371
215.0461	0.4582
215.2629	0.4819
215.4798	0.4794
215.6965	0.4528
215.9133	0.4676
216.1301	0.4527
216.3469	0.4406
216.5636	0.3857
216.7803	0.3538
216.9971	0.4012
217.2138	0.3828
217.4305	0.3686
217.6472	0.3669
217.8639	0.4098
218.0805	0.3603
218.2972	0.3184
218.5138	0.3054
218.7305	0.3353
218.9471	0.31
219.1637	0.2873
219.3803	0.2958
219.5969	0.2882
219.8135	0.2375
220.0301	0.285
220.2466	0.2869
220.4632	0.2616
220.6797	0.2525
220.8962	0.2537
221.1127	0.248
221.3292	0.2434
221.5457	0.2349
221.7622	0.2429
221.9787	0.2665
222.1951	0.2319
222.4116	0.2594
222.628	0.2636
222.8444	0.2537
223.0608	0.2548
223.2772	0.265
223.4936	0.2755
223.71	0.2453
223.9264	0.2536
224.1427	0.2563
224.3591	0.2481
224.5754	0.2651
224.7917	0.2823
225.008	0.248
225.2243	0.2656
225.4406	0.2824
225.6569	0.2665
225.8732	0.2498
226.0894	0.2551
226.3057	0.2689
226.5219	0.3012
226.7381	0.2752
226.9543	0.2796
227.1705	0.2942
227.3867	0.2696
227.6029	0.299
227.8191	0.2839
228.0352	0.3081
228.2513	0.3115
228.4675	0.2955
228.6836	0.2848
228.8997	0.3016
229.1158	0.322
229.3319	0.3157
229.548	0.3141
229.764	0.325
229.9801	0.3234
230.1961	0.3387
230.4121	0.3248
230.6282	0.328
230.8442	0.3246
231.0602	0.3613
231.2761	0.3514
231.4921	0.3401
231.7081	0.3697
231.924	0.3458
232.14	0.3748
232.3559	0.346
232.5718	0.365
232.7877	0.3405
233.0036	0.3451
233.2195	0.3581
233.4353	0.3585
233.6512	0.3789
233.867	0.3749
234.0829	0.3735
234.2987	0.3764
234.5145	0.36
234.7303	0.374
234.9461	0.4038
235.1619	0.3843
235.3776	0.3721
235.5934	0.3923
235.8091	0.3663
236.0249	0.3779
236.2406	0.385
236.4563	0.3697
236.672	0.3947
236.8877	0.3995
237.1034	0.3929
237.319	0.4017
237.5347	0.3961
237.7503	0.4022
237.966	0.4019
238.1816	0.408
238.3972	0.4221
238.6128	0.3835
238.8284	0.4044
239.0439	0.4143
239.2595	0.3979
239.475	0.424
239.6906	0.4135
239.9061	0.4168
240.1216	0.3935
240.3371	0.4
240.5526	0.3966
240.7681	0.4219
240.9836	0.3961
241.199	0.3937
241.4145	0.3904
241.6299	0.3757
241.8453	0.372
242.0607	0.3763
242.2761	0.3706
242.4915	0.3573
242.7069	0.368
242.9223	0.364
243.1376	0.3497
243.353	0.3358
243.5683	0.3584
243.7836	0.3372
243.9989	0.3243
244.2142	0.2991
244.4295	0.3277
244.6448	0.2994
244.86	0.3123
245.0753	0.2807
245.2905	0.2882
245.5057	0.2826
245.721	0.2861
245.9362	0.2747
246.1514	0.2733
246.3665	0.2647
246.5817	0.258
246.7969	0.2618
247.012	0.2499
247.2271	0.2393
247.4423	0.2591
247.6574	0.2475
247.8725	0.223
248.0876	0.2169
248.3026	0.2293
248.5177	0.2332
248.7328	0.2067
248.9478	0.2093
249.1628	0.2084
249.3779	0.2167
249.5929	0.1996
249.8079	0.22
250.0228	0.1997
250.2378	0.2044
250.4528	0.2091
250.6677	0.1773
250.8827	0.1902
251.0976	0.1978
251.3125	0.189
251.5274	0.176
251.7423	0.1748
251.9572	0.1859
252.172	0.1732
252.3869	0.1894
252.6017	0.1697
252.8166	0.1765
253.0314	0.1754
253.2462	0.1684
253.461	0.1813
253.6758	0.1746
253.8906	0.1817
254.1053	0.1727
254.3201	0.1787
254.5348	0.1847
254.7496	0.1867
254.9643	0.1637
255.179	0.182
255.3937	0.173
255.6083	0.1776
255.823	0.1805
256.0377	0.1655
256.2523	0.17
256.467	0.1595
256.6816	0.1835
256.8962	0.1614
257.1108	0.1569
257.3254	0.1783
257.54	0.1714
257.7545	0.1685
257.9691	0.1717
258.1836	0.1559
258.3981	0.1772
258.6127	0.1739
258.8272	0.1777
259.0417	0.1668
259.2561	0.1607
259.4706	0.1691
259.6851	0.1673
259.8995	0.1592
260.114	0.1642
260.3284	0.154
260.5428	0.1556
260.7572	0.1654
260.9716	0.1825
261.186	0.1594
261.4003	0.1677
261.6147	0.1695
261.829	0.1686
262.0433	0.1683
262.2577	0.1645
262.472	0.1716
262.6863	0.1613
262.9005	0.1676
263.1148	0.1707
263.3291	0.1576
263.5433	0.1721
263.7576	0.1629
263.9718	0.1797
264.186	0.1562
264.4002	0.1713
264.6144	0.1672
264.8286	0.1705
265.0427	0.1642
265.2569	0.1596
265.471	0.1551
265.6851	0.158
265.8993	0.1603
266.1134	0.1598
266.3275	0.1627
266.5415	0.1616
266.7556	0.1726
266.9697	0.1655
267.1837	0.1603
267.3978	0.1653
267.6118	0.1596
267.8258	0.174
268.0398	0.1566
268.2538	0.1606
268.4677	0.1591
268.6817	0.1555
268.8957	0.1662
269.1096	0.1651
269.3235	0.1584
269.5374	0.1462
269.7514	0.16
269.9652	0.1572
270.1791	0.1422
270.393	0.1424
270.6068	0.1594
270.8207	0.1532
271.0345	0.1507
271.2483	0.1509
271.4622	0.1508
271.676	0.1561
271.8897	0.1388
272.1035	0.1371
272.3173	0.1466
272.531	0.1585
272.7448	0.1536
272.9585	0.1485
273.1722	0.1404
273.3859	0.1534
273.5996	0.1445
273.8133	0.158
274.0269	0.1475
274.2406	0.1437
274.4542	0.1378
274.6679	0.1379
274.8815	0.1615
275.0951	0.1593
275.3087	0.149
275.5223	0.1481
275.7358	0.1512
275.9494	0.1456
276.1629	0.1427
276.3765	0.1391
276.59	0.1515
276.8035	0.1528
277.017	0.1393
277.2305	0.1511
277.444	0.1532
277.6574	0.1478
277.8709	0.1494
278.0843	0.1355
278.2978	0.1457
278.5112	0.1435
278.7246	0.1561
278.938	0.1464
279.1513	0.1633
279.3647	0.1558
279.5781	0.1483
279.7914	0.1488
280.0047	0.1601
280.2181	0.1507
280.4314	0.1583
280.6447	0.1557
280.8579	0.1453
281.0712	0.154
281.2845	0.1495
281.4977	0.157
281.711	0.1525
281.9242	0.1635
282.1374	0.1539
282.3506	0.1621
282.5638	0.1487
282.7769	0.1641
282.9901	0.1562
283.2033	0.1609
283.4164	0.1708
283.6295	0.1474
283.8426	0.1477
284.0557	0.1465
284.2688	0.165
284.4819	0.1653
284.695	0.1557
284.908	0.1698
285.1211	0.156
285.3341	0.1657
285.5471	0.1568
285.7601	0.1769
285.9731	0.1548
286.1861	0.1474
286.3991	0.1732
286.612	0.1684
286.825	0.1609
287.0379	0.1703
287.2508	0.1668
287.4637	0.1592
287.6766	0.1596
287.8895	0.1629
288.1024	0.1783
288.3152	0.167
288.5281	0.1647
288.7409	0.1639
288.9538	0.1628
289.1666	0.1627
289.3794	0.178
289.5922	0.163
289.8049	0.1664
290.0177	0.1597
290.2304	0.166
290.4432	0.174
290.6559	0.1773
290.8686	0.1754
291.0813	0.1593
291.294	0.1757
291.5067	0.1741
291.7194	0.1636
291.932	0.183
292.1447	0.18
292.3573	0.1574
292.5699	0.1541
292.7825	0.1744
292.9951	0.1617
293.2077	0.1732
293.4203	0.1654
293.6328	0.1578
293.8454	0.1711
294.0579	0.1733
294.2704	0.1653
294.4829	0.1608
294.6954	0.1628
294.9079	0.1661
295.1204	0.17
295.3328	0.1672
295.5453	0.1676
295.7577	0.1737
295.9701	0.1505
296.1825	0.1609
296.3949	0.1716
296.6073	0.1711
296.8197	0.1547
297.0321	0.1761
297.2444	0.1554
297.4567	0.1703
297.6691	0.1686
297.8814	0.1643
298.0937	0.1671
298.306	0.1782
298.5182	0.1676
298.7305	0.1857
298.9428	0.1608
299.155	0.1709
299.3672	0.1606
299.5794	0.1547
299.7916	0.1627
300.0038	0.1708
300.216	0.1621
300.4282	0.1798
300.6403	0.168
300.8525	0.172
301.0646	0.1648
301.2767	0.1688
301.4888	0.1616
301.7009	0.1555
301.913	0.1716
302.125	0.1742
302.3371	0.1666
302.5491	0.1679
302.7612	0.1783
302.9732	0.1673
303.1852	0.1827
303.3972	0.1643
303.6092	0.1682
303.8211	0.1511
304.0331	0.1543
304.245	0.156
304.457	0.1583
304.6689	0.1676
304.8808	0.1723
305.0927	0.1578
305.3046	0.1611
305.5164	0.1571
305.7283	0.1496
305.9401	0.1526
306.152	0.1513
306.3638	0.1568
306.5756	0.1531
306.7874	0.1478
306.9992	0.1567
307.2109	0.1582
307.4227	0.1284
307.6344	0.1401
307.8462	0.136
308.0579	0.136
308.2696	0.1461
308.4813	0.1408
308.693	0.1433
308.9046	0.1472
309.1163	0.1314
309.328	0.1269
309.5396	0.1318
309.7512	0.1294
309.9628	0.1308
310.1744	0.1181
310.386	0.1196
310.5976	0.1242
310.8091	0.1278
311.0207	0.1157
311.2322	0.1229
311.4437	0.1182
311.6552	0.1182
311.8667	0.1171
312.0782	0.0976
312.2897	0.1033
312.5012	0.1154
312.7126	0.1062
312.924	0.0993
313.1355	0.1135
313.3469	0.1065
313.5583	0.1127
313.7696	0.1118
313.981	0.1113
314.1924	0.1058
314.4037	0.1093
314.6151	0.1138
314.8264	0.0949
315.0377	0.1052
315.249	0.1118
315.4603	0.1121
315.6716	0.1033
315.8828	0.1002
316.0941	0.1076
316.3053	0.1007
316.5165	0.0987
316.7277	0.0955
316.9389	0.1209
317.1501	0.0987
317.3613	0.1121
317.5724	0.1008
317.7836	0.0961
317.9947	0.0907
318.2058	0.0989
318.417	0.0892
318.6281	0.0981
318.8391	0.0952
319.0502	0.0894
319.2613	0.1046
319.4723	0.099
319.6834	0.1055
319.8944	0.0867
320.1054	0.1038
320.3164	0.0963
320.5274	0.0928
320.7383	0.1004
320.9493	0.1007
321.1602	0.1193
321.3712	0.0882
321.5821	0.0952
321.793	0.0923
322.0039	0.106
322.2148	0.1028
322.4257	0.1055
322.6365	0.1195
322.8474	0.1095
323.0582	0.0977
323.269	0.1031
323.4798	0.1159
323.6906	0.094
323.9014	0.1074
324.1122	0.1026
324.3229	0.0955
324.5337	0.1041
324.7444	0.085
324.9551	0.1269
325.1658	0.104
325.3765	0.1113
325.5872	0.0982
325.7979	0.105
326.0085	0.1058
326.2192	0.1088
326.4298	0.0986
326.6404	0.1016
326.851	0.0969
327.0616	0.1027
327.2722	0.1084
327.4828	0.1199
327.6933	0.0871
327.9039	0.1144
328.1144	0.1084
328.3249	0.1235
328.5354	0.0935
328.7459	0.0976
328.9564	0.1071
329.1669	0.1099
329.3773	0.1052
329.5878	0.0988
329.7982	0.1028
330.0086	0.1075
330.219	0.1151
330.4294	0.112
330.6398	0.1088
330.8502	0.0912
331.0605	0.1098
331.2708	0.1105
331.4812	0.1209
331.6915	0.1051
331.9018	0.1151
332.1121	0.1008
332.3224	0.109
332.5326	0.1127
332.7429	0.1094
332.9531	0.1208
333.1633	0.1108
333.3735	0.1202
333.5837	0.1125
333.7939	0.0997
334.0041	0.1214
334.2143	0.106
334.4244	0.112
334.6346	0.0995
334.8447	0.1191
335.0548	0.1063
335.2649	0.1058
335.475	0.1138
335.685	0.1024
335.8951	0.1199
336.1051	0.1045
336.3152	0.1147
336.5252	0.1198
336.7352	0.1249
336.9452	0.1201
337.1552	0.1162
337.3652	0.1051
337.5751	0.1134
337.7851	0.1089
337.995	0.106
338.2049	0.1212
338.4148	0.1081
338.6247	0.1226
338.8346	0.1085
339.0445	0.1161
339.2543	0.1143
339.4642	0.1134
339.674	0.1081
339.8838	0.1207
340.0936	0.1249
340.3034	0.1242
340.5132	0.1253
340.7229	0.1271
340.9327	0.1098
341.1424	0.1184
341.3522	0.1317
341.5619	0.1216
341.7716	0.118
341.9813	0.1353
342.1909	0.1225
342.4006	0.1367
342.6102	0.1314
342.8199	0.1258
343.0295	0.1237
343.2391	0.1394
343.4487	0.1414
343.6583	0.1138
343.8679	0.124
344.0774	0.124
344.287	0.1313
344.4965	0.1253
344.706	0.1255
344.9155	0.1328
345.125	0.1271
345.3345	0.1285
345.544	0.1247
345.7534	0.1368
345.9629	0.1293
346.1723	0.1182
346.3817	0.121
346.5911	0.1309
346.8005	0.1357
347.0099	0.1203
347.2193	0.1336
347.4286	0.1213
347.638	0.1466
347.8473	0.1511
348.0566	0.1428
348.2659	0.1426
348.4752	0.1333
348.6845	0.1357
348.8937	0.131
349.103	0.144
349.3122	0.1344
349.5214	0.1301
349.7306	0.1451
349.9398	0.1362
350.149	0.1324
350.3582	0.1387
350.5674	0.1436
350.7765	0.1464
350.9856	0.1371
351.1948	0.159
351.4039	0.1468
351.613	0.1378
351.822	0.1423
352.0311	0.1423
352.2402	0.1482
352.4492	0.1497
352.6582	0.157
352.8672	0.1432
353.0762	0.1523
353.2852	0.1538
353.4942	0.13
353.7032	0.1535
353.9121	0.1488
354.1211	0.1477
354.33	0.1662
354.5389	0.1538
354.7478	0.1545
354.9567	0.15
355.1655	0.14
355.3744	0.1659
355.5833	0.1655
355.7921	0.157
356.0009	0.1633
356.2097	0.1701
356.4185	0.1789
356.6273	0.1692
356.8361	0.1682
357.0448	0.1567
357.2536	0.1509
357.4623	0.1565
357.671	0.1723
357.8797	0.1674
358.0884	0.1648
358.2971	0.1619
358.5057	0.1845
358.7144	0.1758
358.923	0.1755
359.1316	0.1734
359.3402	0.1805
359.5488	0.1698
359.7574	0.1558
359.966	0.1823
360.1746	0.1835
360.3831	0.1792
360.5916	0.1766
360.8002	0.176
361.0087	0.1827
361.2172	0.1659
361.4256	0.1766
361.6341	0.175
361.8426	0.1798
362.051	0.1768
362.2594	0.1917
362.4678	0.1828
362.6762	0.2042
362.8846	0.2008
363.093	0.1855
363.3014	0.1962
363.5097	0.1706
363.718	0.1924
363.9264	0.1958
364.1347	0.1894
364.343	0.1975
364.5513	0.2056
364.7595	0.2179
364.9678	0.2026
365.176	0.1837
365.3842	0.1926
365.5925	0.1832
365.8007	0.2007
366.0089	0.1977
366.217	0.188
366.4252	0.2182
366.6333	0.2056
366.8415	0.2083
367.0496	0.1875
367.2577	0.2089
367.4658	0.2308
367.6739	0.2236
367.882	0.2087
368.09	0.2154
368.2981	0.2188
368.5061	0.2035
368.7141	0.2065
368.9221	0.2112
369.1301	0.2157
369.3381	0.2057
369.5461	0.223
369.754	0.2225
369.962	0.2064
370.1699	0.2201
370.3778	0.232
370.5857	0.2056
370.7936	0.2286
371.0015	0.2048
371.2093	0.2366
371.4172	0.2211
371.625	0.1998
371.8328	0.2125
372.0406	0.2303
372.2484	0.226
372.4562	0.2268
372.664	0.2367
372.8717	0.2362
373.0795	0.2058
373.2872	0.2257
373.4949	0.224
373.7026	0.2253
373.9103	0.2402
374.118	0.2268
374.3256	0.2345
374.5333	0.2178
374.7409	0.2285
374.9485	0.2576
375.1561	0.243
375.3637	0.2366
375.5713	0.2496
375.7789	0.236
375.9864	0.237
376.194	0.2227
376.4015	0.241
376.609	0.2503
376.8165	0.2449
377.024	0.2433
377.2315	0.2467
377.4389	0.2529
377.6464	0.2549
377.8538	0.256
378.0612	0.2504
378.2686	0.2557
378.476	0.2669
378.6834	0.2495
378.8908	0.2639
379.0981	0.2491
379.3055	0.2382
379.5128	0.2317
379.7201	0.2505
379.9274	0.2279
380.1347	0.2633
380.342	0.2575
380.5492	0.2487
380.7565	0.2603
380.9637	0.2593
381.1709	0.2698
381.3781	0.2584
381.5853	0.2651
381.7925	0.2618
381.9997	0.2598
382.2068	0.2762
382.4139	0.2613
382.6211	0.2315
382.8282	0.2713
383.0353	0.2633
383.2424	0.253
383.4494	0.2761
383.6565	0.2731
383.8635	0.2845
384.0706	0.2596
384.2776	0.2704
384.4846	0.2647
384.6916	0.2773
384.8986	0.2489
385.1055	0.2667
385.3125	0.2675
385.5194	0.253
385.7263	0.2709
385.9333	0.2632
386.1402	0.2538
386.347	0.2631
386.5539	0.2467
386.7608	0.2809
386.9676	0.2611
387.1744	0.2603
387.3813	0.2487
387.5881	0.2637
387.7948	0.2491
388.0016	0.2564
388.2084	0.2554
388.4151	0.2656
388.6219	0.2811
388.8286	0.2514
389.0353	0.2733
389.242	0.2654
389.4487	0.2378
389.6553	0.2467
389.862	0.2349
390.0686	0.2657
390.2753	0.2619
390.4819	0.2558
390.6885	0.2625
390.8951	0.2429
391.1016	0.2382
391.3082	0.2326
391.5147	0.2527
391.7213	0.244
391.9278	0.2425
392.1343	0.2306
392.3408	0.2343
392.5473	0.2459
392.7537	0.2332
392.9602	0.2389
393.1666	0.2346
393.373	0.2342
393.5794	0.2347
393.7858	0.2403
393.9922	0.2092
394.1986	0.2383
394.4049	0.2474
394.6113	0.2246
394.8176	0.2158
395.0239	0.2131
395.2302	0.2408
395.4365	0.2229
395.6428	0.2275
395.8491	0.2136
396.0553	0.2168
396.2615	0.239
396.4678	0.2052
396.674	0.2214
396.8802	0.227
397.0863	0.2354
397.2925	0.2078
397.4987	0.224
397.7048	0.231
397.9109	0.2133
398.117	0.221
398.3231	0.2259
398.5292	0.2325
398.7353	0.2338
398.9413	0.2233
399.1474	0.2077
399.3534	0.2121
399.5594	0.1951
399.7654	0.2381
399.9714	0.2426
400.1774	0.2163
400.3833	0.2322
400.5893	0.2216
400.7952	0.2116
401.0011	0.2021
401.207	0.2132
401.4129	0.2195
401.6188	0.2293
401.8247	0.2151
402.0305	0.2159
402.2364	0.1978
402.4422	0.2193
402.648	0.2324
402.8538	0.2296
403.0596	0.2303
403.2654	0.2249
403.4711	0.2186
403.6768	0.232
403.8826	0.2211
404.0883	0.228
404.294	0.2204
404.4997	0.2176
404.7054	0.2184
404.911	0.2288
405.1167	0.2361
405.3223	0.227
405.5279	0.2291
405.7335	0.2317
405.9391	0.2216
406.1447	0.23
406.3502	0.2616
406.5558	0.2284
406.7613	0.2234
406.9668	0.2382
407.1724	0.2095
407.3778	0.2153
407.5833	0.2282
407.7888	0.232
407.9942	0.2234
408.1997	0.2249
408.4051	0.2143
408.6105	0.2426
408.8159	0.1995
409.0213	0.2301
409.2267	0.2242
409.432	0.2014
409.6374	0.241
409.8427	0.1919
410.048	0.2261
410.2533	0.2139
410.4586	0.218
410.6639	0.2044
410.8691	0.2171
411.0744	0.2041
411.2796	0.1969
411.4848	0.2021
411.69	0.2103
411.8952	0.2306
412.1004	0.1976
412.3056	0.2331
412.5107	0.208
412.7158	0.2398
412.921	0.2168
413.1261	0.2128
413.3312	0.2068
413.5362	0.2079
413.7413	0.2099
413.9464	0.2144
414.1514	0.2124
414.3564	0.2132
414.5614	0.2081
414.7664	0.2213
414.9714	0.229
415.1764	0.2168
415.3813	0.2224
415.5863	0.2137
415.7912	0.22
415.9961	0.222
416.201	0.1991
416.4059	0.2125
416.6108	0.1887
416.8156	0.2166
417.0205	0.1922
417.2253	0.1963
417.4301	0.2143
417.6349	0.1996
417.8397	0.1875
418.0445	0.2079
418.2492	0.2212
418.454	0.2248
418.6587	0.1924
418.8634	0.2051
419.0681	0.1822
419.2728	0.1974
419.4775	0.2003
419.6822	0.1849
419.8868	0.1834
420.0915	0.2071
420.2961	0.1968
420.5007	0.1951
420.7053	0.2098
420.9099	0.2094
421.1144	0.2019
421.319	0.1878
421.5235	0.2159
421.728	0.2099
421.9325	0.1998
422.137	0.1909
422.3415	0.202
422.546	0.1952
422.7504	0.1948
422.9549	0.1972
423.1593	0.2034
423.3637	0.2067
423.5681	0.1832
423.7725	0.1798
423.9769	0.19
424.1812	0.1801
424.3856	0.1856
424.5899	0.1828
424.7942	0.1782
424.9985	0.1705
425.2028	0.1749
425.4071	0.1867
425.6113	0.1613
425.8156	0.1824
426.0198	0.1795
426.224	0.1702
426.4282	0.1685
426.6324	0.1839
426.8366	0.1559
427.0407	0.1731
427.2449	0.1642
427.449	0.1725
427.6531	0.139
427.8572	0.1671
428.0613	0.1594
428.2654	0.1644
428.4694	0.1605
428.6735	0.1621
428.8775	0.1849
429.0815	0.1671
429.2855	0.1582
429.4895	0.151
429.6935	0.1644
429.8975	0.1745
430.1014	0.1556
430.3053	0.1432
430.5093	0.1515
430.7132	0.1449
430.9171	0.135
431.1209	0.1502
431.3248	0.1291
431.5286	0.1427
431.7325	0.1527
431.9363	0.1432
432.1401	0.1519
432.3439	0.1393
432.5477	0.1293
432.7514	0.1128
432.9552	0.1336
433.1589	0.1321
433.3627	0.1236
433.5664	0.1305
433.7701	0.1313
433.9737	0.1229
434.1774	0.1089
434.3811	0.1126
434.5847	0.1287
434.7883	0.1182
434.9919	0.1197
435.1955	0.1136
435.3991	0.1193
435.6027	0.1073
435.8062	0.0924
436.0098	0.1081
436.2133	0.1053
436.4168	0.0971
436.6203	0.0986
436.8238	0.1063
437.0272	0.0999
437.2307	0.1175
437.4341	0.1119
437.6375	0.099
437.841	0.0796
438.0443	0.0998
438.2477	0.0958
438.4511	0.1014
438.6545	0.1065
438.8578	0.1147
439.0611	0.0843
439.2644	0.0908
439.4677	0.0784
439.671	0.0789
439.8743	0.0881
440.0775	0.085
440.2808	0.0849
440.484	0.0733
440.6872	0.0579
440.8904	0.0736
441.0936	0.0917
441.2967	0.0632
441.4999	0.0706
441.703	0.0667
441.9062	0.0607
442.1093	0.0646
442.3124	0.0669
442.5155	0.0542
442.7185	0.0756
442.9216	0.0431
443.1246	0.0905
443.3276	0.0546
443.5307	0.0524
443.7337	0.0737
443.9366	0.0646
444.1396	0.063
444.3426	0.0566
444.5455	0.062
444.7484	0.0431
444.9513	0.0575
445.1542	0.0656
445.3571	0.0583
445.56	0.0547
445.7628	0.0448
445.9657	0.0497
446.1685	0.069
446.3713	0.0522
446.5741	0.0577
446.7769	0.0291
446.9797	0.0442
447.1824	0.0501
447.3852	0.0369
447.5879	0.0415
447.7906	0.0458
447.9933	0.046
448.196	0.0406
448.3986	0.0399
448.6013	0.0328
448.8039	0.0215
449.0066	0.0322
449.2092	0.0488
449.4118	0.0384
449.6143	0.0309
449.8169	0.0326
450.0195	0.0072
450.222	0.0112
450.4245	0.0193
450.627	0.0363
450.8295	0.0129
451.032	0.0328
451.2345	0.0272
451.4369	0.0262
451.6394	0.0384
451.8418	0.012
452.0442	0.0241
452.2466	0.029
452.449	0.0096
452.6513	0.0265
452.8537	0.0112
453.056	0.0038
453.2583	0.0186
453.4607	0.0188
453.663	0.0067
453.8652	0.0248
454.0675	0.0146
454.2697	0.0224
454.472	0.0178
454.6742	0.0163
454.8764	0.0115
455.0786	0.0245
455.2808	0.0144
455.4829	0.0245
455.6851	0.0239
455.8872	0.0365
456.0893	0.0248
456.2915	-0.0011
456.4935	0.0357
456.6956	0.0134
456.8977	0.0107
457.0997	0.0162
457.3018	0.0009
457.5038	0.0179
457.7058	0.0002
457.9078	0.0163
458.1098	0.0228
458.3117	0.0152
458.5137	0.0281
458.7156	0.0177
458.9175	-0.009
459.1194	0.0316
459.3213	0.0153
459.5232	0.0049
459.725	-0.0084
459.9269	0.0023
460.1287	0.0035
460.3305	0.0153
460.5323	0.0116
460.7341	-0.0071
460.9359	0.0034
461.1376	0.0117
461.3394	0.0045
461.5411	0.0153
461.7428	-0.0109
461.9445	0.0105
462.1462	0.021
462.3479	0.0158
462.5495	0.0088
462.7512	0.0077
462.9528	0.003
463.1544	-0.0145
463.356	0.0033
463.5576	0.0083
463.7592	-0.0006
463.9607	0.0112
464.1623	0.0105
464.3638	0.0155
464.5653	-0.0025
464.7668	0.0003
464.9683	-0.0009
465.1697	0.0232
465.3712	-0.0025
465.5726	-0.0083
465.7741	0.0034
465.9755	-0.003
466.1769	-0.0066
466.3782	0.0005
466.5796	-0.0075
466.7809	0.0117
466.9823	-0.0006
467.1836	-0.0038
467.3849	0.0043
467.5862	0.0019
467.7875	0.0002
467.9887	0.0234
468.19	-0.0092
468.3912	-0.0094
468.5924	0.0039
468.7936	0.0053
468.9948	0.0062
469.196	0.0051
469.3972	-0.005
469.5983	0.0022
469.7994	-0.0014
470.0006	-0.0011
470.2017	-0.004
470.4027	-0.0036
470.6038	0.0004
470.8049	-0.0084
471.0059	-0.0045
471.2069	-0.0205
471.408	0.0178
471.6089	0.0118
471.8099	0
472.0109	-0.0013
472.2119	0.0039
472.4128	-0.0003
472.6137	0.0114
472.8146	0.0035
473.0155	-0.0049
473.2164	0.0009
473.4173	0.0048
473.6181	-0.0004
473.819	-0.0103
474.0198	-0.0021
474.2206	-0.0036
474.4214	0.0082
474.6222	-0.0058
474.8229	-0.0019
475.0237	-0.0055
475.2244	-0.0009
475.4251	0.0077
475.6258	-0.0043
475.8265	-0.0092
476.0272	0.0121
476.2278	-0.003
476.4285	0.0083
476.6291	-0.0033
476.8297	-0.0155
477.0303	-0.0008
477.2309	0.0052
477.4315	-0.0103
477.632	-0.0145
477.8326	-0.0001
478.0331	0.0059
478.2336	0.0088
478.4341	-0.0012
478.6346	0.0022
478.8351	0.0076
479.0355	-0.0048
479.236	-0.0037
479.4364	0.003
479.6368	-0.001
479.8372	0.0016
480.0376	0.0019
480.2379	-0.0168
480.4383	0.0029
480.6386	0.0031
480.8389	0.0024
481.0392	-0.0067
481.2395	-0.0074
481.4398	0.0052
481.6401	0.0008
481.8403	-0.0051
482.0405	-0.0026
482.2408	-0.0087
482.441	-0.0019
482.6411	-0.0078
482.8413	0.0014
483.0415	-0.0022
483.2416	0.0032
483.4417	0.0037
483.6419	-0.0127
483.8419	-0.0031
484.042	0.009
484.2421	0.005
484.4422	-0.008
484.6422	0.0004
484.8422	-0.0029
485.0422	-0.0049
485.2422	0.0038
485.4422	-0.0073
485.6422	-0.0158
485.8421	-0.0052
486.042	-0.0017
486.242	-0.004
486.4419	-0.0016
486.6417	-0.0124
486.8416	-0.0021
487.0415	-0.0034
487.2413	-0.0026
487.4411	0.005
487.641	-0.0105
487.8408	-0.0059
488.0405	-0.0006
488.2403	-0.0085
488.4401	-0.0047
488.6398	0.0024
488.8395	-0.0161
489.0392	0.0055
489.2389	-0.0085
489.4386	-0.0055
489.6383	0.0004
489.8379	0.0066
490.0376	-0.0047
490.2372	-0.0109
490.4368	-0.0017
490.6364	-0.0052
490.836	-0.0083
491.0355	0.0042
491.2351	-0.0096
491.4346	-0.0121
491.6341	-0.0161
491.8336	0.0045
492.0331	-0.0113
492.2326	0.0009
492.432	-0.0054
492.6315	-0.0017
492.8309	-0.0102
493.0303	-0.0092
493.2297	-0.0063
493.4291	-0.0144
493.6284	-0.0061
493.8278	-0.0071
494.0271	0.0114
494.2264	-0.0005
494.4257	-0.0122
494.625	-0.0033
494.8243	-0.0043
495.0236	-0.0011
495.2228	-0.0124
495.422	-0.0034
495.6213	-0.001
495.8205	-0.0034
496.0196	-0.0089
496.2188	0.0045
496.418	-0.0071
496.6171	-0.0078
496.8162	-0.0056
497.0153	0.0045
497.2144	-0.0121
497.4135	0.0052
497.6126	-0.0078
497.8116	-0.0112
498.0107	-0.0088
498.2097	-0.008
498.4087	-0.0107
498.6077	0.0058
498.8067	-0.01
499.0056	0.0104
499.2046	-0.0029
499.4035	-0.0118
499.6024	-0.0025
499.8013	0.0084
500.0002	-0.0152
500.199	-0.0017
500.3979	-0.0055
500.5967	-0.0193
500.7956	0.0034
500.9944	-0.0004
501.1932	-0.0069
501.3919	-0.0111
501.5907	-0.0079
501.7895	-0.0085
501.9882	-0.0122
502.1869	-0.0048
502.3856	-0.0072
502.5843	-0.007
502.783	-0.0104
502.9816	-0.0036
503.1803	-0.014
503.3789	-0.0115
503.5775	0.0002
503.7761	-0.0125
503.9747	0.0045
504.1732	-0.013
504.3718	-0.002
504.5703	-0.0047
504.7689	-0.0132
504.9674	-0.0042
505.1658	-0.0015
505.3643	-0.0077
505.5628	-0.0052
505.7612	-0.0023
505.9597	0.0113
506.1581	-0.0133
506.3565	-0.0006
506.5549	-0.0111
506.7532	-0.0079
506.9516	-0.0052
507.1499	-0.0022
507.3482	-0.0114
507.5465	-0.0152
507.7448	-0.0037
507.9431	-0.002
508.1414	0.0017
508.3396	-0.0077
508.5379	-0.0111
508.7361	-0.0018
508.9343	-0.0036
509.1325	-0.0005
509.3306	-0.0106
509.5288	0.0002
509.7269	-0.009
509.9251	-0.0065
510.1232	-0.0059
510.3213	0.0045
510.5193	-0.0042
510.7174	-0.0137
510.9154	-0.0077
511.1135	-0.0027
511.3115	-0.001
511.5095	-0.011
511.7075	-0.0089
511.9055	-0.0117
512.1034	-0.0079
512.3014	0.0001
512.4993	0.0022
512.6972	0.0036
512.8951	-0.0188
513.093	-0.0077
513.2908	0.0021
513.4887	-0.0037
513.6865	0.0008
513.8844	-0.0041
514.0822	-0.0019
514.2799	-0.0068
514.4777	-0.0174
514.6755	-0.0082
514.8732	-0.0081
515.0709	-0.0004
515.2687	-0.0032
515.4664	0.0013
515.664	-0.0058
515.8617	-0.0079
516.0594	-0.0146
516.257	0.0038
516.4546	-0.0152
516.6522	-0.0029
516.8498	-0.0119
517.0474	0.0024
517.2449	0.0013
517.4425	-0.0231
517.64	-0.003
517.8375	0.0067
518.035	-0.0051
518.2325	-0.007
518.43	-0.0026
518.6274	-0.0101
518.8249	-0.0126
519.0223	-0.0002
519.2197	-0.005
519.4171	-0.0073
519.6145	-0.007
519.8118	0.0012
520.0092	0.0012
520.2065	-0.0009
520.4038	-0.0083
520.6011	0.0077
520.7984	-0.0075
520.9956	-0.0069
521.1929	-0.0065
521.3901	0.0002
521.5874	-0.0096
521.7846	-0.0064
521.9818	-0.0144
522.1789	-0.0212
522.3761	-0.0127
522.5732	0.0007
522.7704	-0.0062
522.9675	0.0013
523.1646	-0.0079
523.3617	-0.0046
523.5587	0.0091
523.7558	-0.006
523.9528	-0.0027
524.1498	-0.0096
524.3468	0.0037
524.5438	-0.01
524.7408	-0.0009
524.9378	0.0007
525.1347	-0.0033
525.3316	0.0064
525.5285	-0.0062
525.7254	-0.0065
525.9223	0.0015
526.1192	0.0011
526.316	-0.0122
526.5129	0.0061
526.7097	0.002
526.9065	0.0032
527.1033	-0.017
527.3	-0.0061
527.4968	-0.007
527.6935	-0.0043
527.8903	-0.0187
528.087	-0.0058
528.2837	-0.0033
528.4804	0.0005
528.677	-0.0119
528.8737	0.0069
529.0703	-0.0072
529.2669	-0.0053
529.4635	-0.0016
529.6601	0.0064
529.8567	-0.0067
530.0532	0.0006
530.2498	-0.0086
530.4463	0.0105
530.6428	-0.0009
530.8393	0.0051
531.0358	-0.0005
531.2322	0.001
531.4287	0.0039
531.6251	-0.0013
531.8215	0.006
532.0179	0.0035
532.2143	0.0039
532.4107	0.0005
532.607	0.0014
532.8034	0.0019
532.9997	-0.0055
533.196	0.0014
533.3923	-0.0096
533.5886	-0.0098
533.7848	-0.0032
533.9811	-0.0061
534.1773	0.0013
534.3735	0.0062
534.5697	-0.0005
534.7659	-0.0024
534.9621	0.0024
535.1582	-0.0086
535.3544	0.0004
535.5505	-0.0098
535.7466	-0.0118
535.9427	-0.0129
536.1387	0
536.3348	-0.0055
536.5308	-0.0011
536.7269	-0.015
536.9229	-0.0019
537.1189	0.0025
537.3148	-0.0017
537.5108	-0.0081
537.7068	0.0062
537.9027	0.0019
538.0986	-0.0039
538.2945	-0.011
538.4904	-0.0075
538.6863	-0.0009
538.8821	-0.0067
539.078	-0.006
539.2738	0.0038
539.4696	-0.0062
539.6654	-0.0058
539.8611	0.0163
540.0569	-0.0008
540.2526	-0.0055
540.4484	0.0087
540.6441	0.0077
540.8398	0.0011
541.0355	0.0031
541.2311	-0.0044
541.4268	-0.0102
541.6224	0.0063
541.818	-0.0043
542.0136	-0.0091
542.2092	0.0037
542.4048	0.0082
542.6003	0.001
542.7959	-0.0034
542.9914	-0.0034
543.1869	-0.003
543.3824	-0.0001
543.5779	-0.0047
543.7734	0.002
543.9688	0.0006
544.1642	0.0058
544.3596	0.0006
544.555	-0.0035
544.7504	-0.0061
544.9458	-0.0039
545.1411	-0.002
545.3365	-0.0027
545.5318	-0.0007
545.7271	-0.0037
545.9224	-0.0103
546.1177	0.0018
546.3129	-0.0012
546.5081	-0.0004
546.7034	0.0003
546.8986	-0.0095
547.0938	-0.0096
547.289	-0.0044
547.4841	-0.0003
547.6793	-0.0026
547.8744	-0.0066
548.0695	0.0008
548.2646	-0.001
548.4597	-0.0003
548.6548	0.0011
548.8498	0.004
549.0448	0.0073
549.2399	0.0043
549.4349	0.0015
549.6298	-0.0028
549.8248	0.0042
550.0198	-0.0046
550.2147	-0.0079
550.4096	-0.0079
550.6045	0.0001
550.7994	-0.0071
550.9943	0.0025
551.1892	0.0004
551.384	0.0126
551.5788	-0.0062
551.7737	0.0016
551.9685	0.0014
552.1632	0.0046
552.358	-0.0062
552.5528	0.0013
552.7475	-0.0032
552.9422	-0.0004
553.1369	-0.0014
553.3316	0.0027
553.5263	-0.0091
553.7209	0.0073
553.9156	-0.01
554.1102	0.0016
554.3048	-0.0053
554.4994	0.0089
554.694	-0.0003
554.8885	0.0035
555.0831	-0.0066
555.2776	-0.0047
555.4721	-0.006
555.6666	-0.0025
555.8611	0.0009
556.0555	-0.0023
556.25	0.0033
556.4444	-0.0147
556.6388	0.0009
556.8332	-0.002
557.0276	-0.0003
557.222	-0.0018
557.4163	0.0088
557.6107	-0.0042
557.805	0.0082
557.9993	-0.0136
558.1936	0.0024
558.3879	0.0088
558.5821	0.0062
558.7764	-0.0053
558.9706	0.0085
559.1648	0.0042
559.359	-0.0027
559.5532	0.0014
559.7473	0.0066
559.9415	-0.0032
560.1356	-0.0031
560.3297	-0.0087
560.5238	0.0023
560.7179	0.0006
560.9119	-0.001
561.106	-0.0038
561.3	-0.0038
561.494	0.0031
561.688	-0.0054
561.882	-0.0041
562.076	-0.0086
562.2699	0.0046
562.4639	0.0008
562.6578	-0.0054
562.8517	0.0013
563.0456	0.0032
563.2395	0.0014
563.4333	-0.0046
563.6272	0.0061
563.821	-0.004
564.0148	-0.0011
564.2086	-0.0022
564.4024	0.0005
564.5961	0.0006
564.7899	0.0046
564.9836	0.0021
565.1773	0.0071
565.371	0.0065
565.5647	0.0095
565.7584	-0.0059
565.952	0.0054
566.1456	-0.0029
566.3393	-0.0005
566.5329	0.0037
566.7264	-0.0042
566.92	-0.0053
567.1136	0.0051
567.3071	0.0011
567.5006	0.0012
567.6941	0.0029
567.8876	0.0087
568.0811	-0.0004
568.2745	0.0032
568.468	0.01
568.6614	0.0017
568.8548	0.0016
569.0482	0.0024
569.2416	0.0076
569.4349	-0.0026
569.6283	0.0043
569.8216	0.008
570.0149	0.0002
570.2082	0.0075
570.4015	0.002
570.5947	0.0041
570.788	0.0066
570.9812	-0.0006
571.1744	-0.0025
571.3676	-0.0039
571.5608	0.0019
571.754	0.0078
571.9471	0.0039
572.1402	0.0039
572.3333	-0.007
572.5264	-0.0004
572.7195	0.0004
572.9126	-0.0044
573.1057	0.0008
573.2987	0.0031
573.4917	0.0026
573.6847	-0.0003
573.8777	0.0076
574.0707	0.01
574.2636	0.0035
574.4566	-0.0003
574.6495	0.0037
574.8424	0.0018
575.0353	0.002
575.2281	0.0099
575.421	0.0001
575.6138	0.0031
575.8067	-0.0007
575.9995	0.0092
576.1923	0.0029
576.385	0.0003
576.5778	-0.0039
576.7706	-0.0029
576.9633	0.008
577.156	0.011
577.3487	-0.0002
577.5414	0.0017
577.734	-0.0054
577.9267	0.0065
578.1193	-0.005
578.3119	-0.0003
578.5045	0.0037
578.6971	0.0069
578.8897	0.0068
579.0822	0.0012
579.2747	0.0049
579.4673	-0.0048
579.6598	-0.0046
579.8522	-0.0029
580.0447	-0.003
580.2372	-0.0022
580.4296	0.0074
580.622	-0.0021
580.8144	0.0018
581.0068	0.0011
581.1992	-0.0065
581.3915	-0.0055
581.5839	-0.0043
581.7762	-0.0077
581.9685	-0.0036
582.1608	0.0061
582.353	-0.0025
582.5453	-0.0059
582.7375	0.0025
582.9298	0.0078
583.122	0.002
583.3142	0.0052
583.5063	-0.0053
583.6985	-0.001
583.8906	0.0062
584.0827	-0.0056
584.2749	0.0077
584.4669	0.0038
584.659	0.0006
584.8511	0.0027
585.0431	0.0027
585.2352	0.0036
585.4272	0.0001
585.6192	0.004
585.8111	-0.0006
586.0031	0.0038
586.195	-0.0065
586.387	0.0072
586.5789	-0.0008
586.7708	0.0054
586.9627	0.0028
587.1545	-0.002
587.3464	0.0069
587.5382	0.0072
587.73	0.0026
587.9218	0.0035
588.1136	-0.0043
588.3053	0.0085
588.4971	-0.0031
588.6888	-0.0092
588.8805	-0.003
589.0722	0.0084
589.2639	0.003
589.4556	0.0006
589.6472	-0.003
589.8389	-0.0102
590.0305	-0.006
590.2221	-0.0037
590.4137	-0.0014
590.6052	0.0005
590.7968	-0.0003
590.9883	0.004
591.1798	-0.0001
591.3713	0.0046
591.5628	0.0107
591.7543	0.0059
591.9458	0.0029
592.1372	0.005
592.3286	0.0122
592.52	0.0109
592.7114	-0.0017
592.9028	-0.0031
593.0941	-0.0023
593.2855	0.0017
593.4768	-0.0086
593.6681	-0.0025
593.8594	0.0033
594.0506	0.003
594.2419	0.0053
594.4331	0.0058
594.6244	0.0047
594.8156	-0.0113
595.0067	0.0004
595.1979	0.0035
595.3891	0.0017
595.5802	0.0012
595.7713	-0.0048
595.9624	-0.0036
596.1535	0.0021
596.3446	-0.0006
596.5357	0.0043
596.7267	0.0081
596.9177	-0.002
597.1087	-0.0043
597.2997	-0.0065
597.4907	0.0019
597.6817	-0.003
597.8726	-0.0017
598.0635	-0.0052
598.2544	-0.002
598.4453	0
598.6362	0.0013
598.827	-0.0022
599.0179	0.0037
599.2087	0.0065
599.3995	0.0046
599.5903	-0.0025
599.7811	0.0017
599.9718	-0.0002
600.1626	-0.0082
600.3533	-0.0082
600.544	0.0012
600.7347	-0.0009
600.9254	0.0017
601.116	-0.0063
601.3067	-0.0067
601.4973	-0.0017
601.6879	0.0084
601.8785	-0.004
602.0691	0.0068
602.2596	-0.0001
602.4502	0.0059
602.6407	-0.001
602.8312	-0.0051
603.0217	-0.0085
603.2122	0.0003
603.4027	0.0013
603.5931	0.001
603.7835	-0.0005
603.9739	0.0058
604.1643	-0.0077
604.3547	-0.0069
604.5451	0.0108
604.7354	0.0034
604.9257	0.0029
605.116	0.0043
605.3063	0.0052
605.4966	0.0041
605.6869	0.0044
605.8771	0.0146
606.0673	0.0072
606.2575	0.0091
606.4477	0.0148
606.6379	0.0028
606.8281	0.0001
607.0182	-0.0017
607.2083	0.0154
607.3985	-0.0006
607.5885	0.005
607.7786	0.006
607.9687	0.0009
608.1587	-0.0004
608.3488	0.0055
608.5388	0.001
608.7288	0.0009
608.9187	-0.0005
609.1087	-0.0065
609.2986	-0.0106
609.4886	0.0006
609.6785	-0.0043
609.8684	0.0096
610.0582	0.0056
610.2481	0.0015
610.4379	-0.0006
610.6278	0.0039
610.8176	0.0012
611.0074	-0.0019
611.1971	-0.0079
611.3869	-0.0029
611.5766	-0.0053
611.7664	0.0052
611.9561	0.0056
612.1458	0.0054
612.3354	-0.0028
612.5251	0.0027
612.7147	0.0071
612.9044	0.0011
613.094	-0.0056
613.2836	0.0069
613.4731	-0.0022
613.6627	-0.0024
613.8522	0.006
614.0417	0.0035
614.2313	-0.004
614.4207	-0.0026
614.6102	0.0001
614.7997	-0.0028
614.9891	-0.0089
615.1785	0.0025
615.3679	-0.0043
615.5573	0.0055
615.7467	-0.0041
615.9361	-0.0032
616.1254	-0.0037
616.3147	-0.0009
616.504	0.0094
616.6933	0.0053
616.8826	0.0089
617.0718	0.0072
617.2611	0.0081
617.4503	-0.0006
617.6395	-0.0039
617.8287	0.0016
618.0179	-0.0008
618.207	0.0126
618.3961	-0.0019
618.5853	-0.001
618.7744	0.0037
618.9634	0.0088
619.1525	0.0042
619.3416	0.0055
619.5306	0.0019
619.7196	0.0023
619.9086	-0.0075
620.0976	0.0064
620.2866	-0.0014
620.4755	0.0063
620.6645	0.0042
620.8534	0.0059
621.0423	0.0028
621.2312	0.0083
621.42	0.0027
621.6089	0.0027
621.7977	0.0118
621.9865	-0.0072
622.1753	0.0099
622.3641	-0.0017
622.5529	0.0111
622.7416	0.0083
622.9303	0.0016
623.1191	0.0063
623.3078	0.0037
623.4964	0.0055
623.6851	0.0002
623.8737	0.0002
624.0624	0.0056
624.251	-0.0062
624.4396	-0.001
624.6282	-0.0027
624.8167	0.0044
625.0053	0.0094
625.1938	0.0085
625.3823	-0.0008
625.5708	0.0028
625.7593	0.0007
625.9477	-0.0043
626.1362	0.0035
626.3246	0.0034
626.513	0.0068
626.7014	0.0058
626.8898	0.002
627.0781	0.0015
627.2665	0.0003
627.4548	0.0056
627.6431	0.0074
627.8314	0.0029
628.0197	0.0038
628.2079	0.0032
628.3962	0.0046
628.5844	0.0032
628.7726	0.0058
628.9608	0.0019
629.1489	0.0061
629.3371	0.0077
629.5252	0.0036
629.7134	0.0112
629.9015	0.0052
630.0895	0.0029
630.2776	0.0112
630.4657	0.013
630.6537	0.0085
630.8417	-0.0008
631.0297	-0.0021
631.2177	0.0007
631.4057	-0.003
631.5936	-0.0018
631.7815	-0.0007
631.9695	0.002
632.1574	0.0046
632.3452	0.0123
632.5331	0.0014
632.7209	-0.0019
632.9088	0.0123
633.0966	0.0047
633.2844	-0.007
633.4722	0.0008
633.6599	0.0042
633.8477	0.0062
634.0354	0.0063
634.2231	-0.0022
634.4108	0.0042
634.5985	0.0079
634.7861	0.0055
634.9738	0.0068
635.1614	0.0008
635.349	0.0118
635.5366	0.004
635.7242	0.0055
635.9117	0.0073
636.0993	0.002
636.2868	0.0153
636.4743	-0.0002
636.6618	0.0063
636.8492	0.0021
637.0367	0.0073
637.2241	0.0008
637.4115	-0.002
637.5989	0.0037
637.7863	0.0051
637.9737	-0.004
638.161	0.0111
638.3484	0.0016
638.5357	0.0102
638.723	0.0019
638.9103	0.0075
639.0975	0.0078
639.2848	-0.0031
639.472	-0.0042
639.6592	0.0068
639.8464	0.0071
640.0336	0.0075
640.2208	-0.0011
640.4079	-0.0005
640.595	0.0026
640.7821	0.0017
640.9692	0.0002
641.1563	-0.003
641.3434	0.0036
641.5304	-0.0012
641.7174	0.0069
641.9044	0.0012
642.0914	0.0037
642.2784	0.0047
642.4653	0.0106
642.6523	0.0052
642.8392	-0.0009
643.0261	0.0062
643.213	0.0036
643.3999	-0.0003
643.5867	0.0006
643.7735	0.0006
643.9604	-0.0022
644.1472	0.0022
644.3339	0.0021
644.5207	0.0067
644.7075	0.0056
644.8942	0.0033
645.0809	0.0093
645.2676	0.0068
645.4543	0.0045
645.6409	0.0151
645.8276	0.0015
646.0142	0.0039
646.2008	-0.0014
646.3874	-0.0068
646.574	-0.004
646.7605	-0.007
646.9471	-0.0098
647.1336	-0.0058
647.3201	0.0046
647.5066	0.0006
647.6931	0.0056
647.8795	0.0018
648.0659	0.0053
648.2524	0.0104
648.4388	0.0032
648.6252	0.0024
648.8115	0.0041
648.9979	0.0065
649.1842	0.0021
649.3705	0.0079
649.5568	0.0026
649.7431	0.0077
649.9294	-0.001
650.1156	0.006
650.3018	-0
650.488	0.0065
650.6742	0.0054
650.8604	0.0034
651.0466	-0.0049
651.2327	-0.001
651.4188	-0.004
651.6049	-0.0004
651.791	-0.0018
651.9771	0.0021
652.1632	0.0046
652.3492	0.0015
652.5352	-0.004
652.7212	-0.0051
652.9072	0.0081
653.0932	0.0026
653.2791	-0.0015
653.465	0.0045
653.651	0
653.8369	0.0005
654.0227	-0.0017
654.2086	0.003
654.3944	0.0086
654.5803	0.0079
654.7661	0.0021
654.9519	0.0039
655.1377	0.0013
655.3234	0.0025
655.5092	-0.0041
655.6949	-0.0052
655.8806	-0.0037
656.0663	0.0013
656.2519	0
656.4376	-0.0024
656.6232	0.0018
656.8088	0.0018
656.9945	0.0056
657.18	0.0013
657.3656	0.0027
657.5511	0.0015
657.7367	-0.0088
657.9222	0.0109
658.1077	-0.0009
658.2932	0.0046
658.4786	-0.0057
658.6641	-0.0118
658.8495	0.0021
659.0349	-0.0025
659.2203	0.0045
659.4057	-0.0004
659.591	0.0014
659.7764	-0.0041
659.9617	0.0007
660.147	-0.0019
660.3323	0.0095
660.5176	0.0087
660.7028	0.0093
660.888	0.0086
661.0733	0.0012
661.2585	-0.0011
661.4436	0.0085
661.6288	-0.0062
661.8139	0.002
661.9991	0.0046
662.1842	-0.0054
662.3693	0.0022
662.5544	-0.0016
662.7394	0.0034
662.9245	-0.0028
663.1095	-0.0045
663.2945	-0.0038
663.4795	-0.0013
663.6644	0.0024
663.8494	0.0043
664.0343	0.0034
664.2193	-0.0024
664.4042	0.006
664.589	0.007
664.7739	0.0032
664.9587	-0.0042
665.1436	0.0033
665.3284	0.0047
665.5132	-0.0035
665.698	0.001
665.8827	0.0044
666.0675	-0.0021
666.2522	-0.0077
666.4369	0.0005
666.6216	0.0034
666.8063	0.0026
666.9909	0.0018
667.1756	-0.0005
667.3602	0.0115
667.5448	0.0009
667.7294	0.0038
667.9139	0.0023
668.0985	0.012
668.283	0.004
668.4675	0.0042
668.652	0.0072
668.8365	0.0051
669.0209	0.0095
669.2054	0.0175
669.3898	0.0039
669.5742	0.0085
669.7586	0.0071
669.943	0.0153
670.1273	0.003
670.3117	-0.0015
670.496	0.0132
670.6803	0.01
670.8646	0.006
671.0488	-0.0033
671.2331	0.0034
671.4173	0.0018
671.6015	-0.0009
671.7857	-0.004
671.9699	0.0047
672.1541	0.0089
672.3382	-0.0036
672.5223	0.0078
672.7064	0.0045
672.8905	0.0092
673.0746	0.0067
673.2587	-0.0031
673.4427	0.0024
673.6267	0.0088
673.8107	0.0071
673.9947	-0.0007
674.1787	0.01
674.3626	-0.0003
674.5465	0.0077
674.7304	0.0092
674.9143	0.0046
675.0982	0.0078
675.2821	-0.0022
675.4659	0.0141
675.6497	0.0028
675.8335	0.0037
676.0173	0.0019
676.2011	0.0001
676.3849	-0.0025
676.5686	-0.0112
676.7523	-0.0059
676.936	0.005
677.1197	-0.0056
677.3034	-0.0012
677.487	0.0047
677.6706	0.0059
677.8542	0.0067
678.0378	0.0014
678.2214	-0.0022
678.405	0.0035
678.5885	-0.0105
678.772	0.0062
678.9555	-0.0019
679.139	0.0035
679.3225	-0.0018
679.5059	0.001
679.6894	0.0012
679.8728	0.0015
680.0562	-0.0045
680.2395	0.0003
680.4229	-0.0005
680.6062	0.0134
680.7896	0.001
680.9729	-0.0041
681.1562	0.0021
681.3394	0.003
681.5227	0.0021
681.7059	0.0067
681.8891	0.0053
682.0723	0.0039
682.2555	0.0086
682.4387	0.001
682.6218	-0.0054
682.805	0.0104
682.9881	0.0074
683.1712	0.0042
683.3542	-0.0022
683.5373	0.0064
683.7203	-0.0025
683.9034	0.003
684.0864	-0.0029
684.2694	-0.0046
684.4523	0.0066
684.6353	-0.0005
684.8182	-0.0009
685.0011	-0.0059
685.184	0.0004
685.3669	0.0039
685.5498	0.0024
685.7326	0.0042
685.9154	-0.0082
686.0982	0.0128
686.281	0.0046
686.4638	0.0004
686.6465	0.0031
686.8293	0
687.012	0.003
687.1947	-0.0103
687.3774	0.003
687.56	0.0006
687.7427	0.005
687.9253	-0.0042
688.1079	-0.0042
688.2905	0.0093
688.4731	0.003
688.6556	0.0048
688.8382	-0.0027
689.0207	-0.0003
689.2032	-0.0113
689.3857	-0.0038
689.5681	0.002
689.7506	-0.0017
689.933	0.0016
690.1154	-0.0002
690.2978	0.0013
690.4802	0.0022
690.6626	-0.0113
690.8449	-0.0019
691.0272	0.006
691.2095	-0.0053
691.3918	-0.0037
691.5741	0.0044
691.7563	0.0041
691.9386	0.0043
692.1208	0.0033
692.303	0.0035
692.4852	0.0055
692.6673	0.0032
692.8495	0.0038
693.0316	0.0011
693.2137	0.0055
693.3958	0.0103
693.5778	0.0031
693.7599	0.0038
693.9419	-0.0043
694.1239	0.0086
694.3059	0.0002
694.4879	0.0087
694.6699	0.0115
694.8518	0.0033
695.0337	0.0007
695.2157	0.012
695.3975	0.0049
695.5794	0.0024
695.7613	0.004
695.9431	-0.0033
696.1249	0.0093
696.3067	0.0149
696.4885	0.0072
696.6703	0.0039
696.852	0.0025
697.0337	0.0051
697.2154	0.0012
697.3971	0.0017
697.5788	0.0131
697.7605	0.005
697.9421	0.0079
698.1237	0.0019
698.3053	0.0024
698.4869	0.0007
698.6685	-0.0002
698.85	-0.0007
699.0315	0.0084
699.213	0.0041
699.3945	0.0042
699.576	0.0079
699.7575	0.0151
699.9389	0.0077
700.1203	0.0052
700.3017	-0.0051
700.4831	-0.0074
700.6645	-0.0016
700.8458	0.0063
701.0271	0.0034
701.2084	0.0073
701.3897	-0.0007
701.571	0.0058
701.7523	-0.0042
701.9335	0.0072
702.1147	-0.0032
702.2959	0.0062
702.4771	0.0079
702.6583	-0.0025
702.8394	-0.0053
703.0205	-0.0056
703.2016	-0.0062
703.3827	0.0085
703.5638	0.0115
703.7449	0.001
703.9259	0.0126
704.1069	-0.001
704.2879	0.0102
704.4689	0.0027
704.6499	-0.0048
704.8308	0.0037
705.0117	0.0089
705.1927	0.0009
705.3735	0.0039
705.5544	-0.0074
705.7353	0.0017
705.9161	-0.0066
706.0969	0.0023
706.2777	-0.0011
706.4585	-0.0039
706.6393	0.0044
706.82	-0.0022
707.0007	0.0053
707.1815	0.0097
707.3621	0.0105
707.5428	0.0049
707.7235	0.0072
707.9041	0.0023
708.0847	-0.01
708.2653	-0.0095
708.4459	-0.0098
708.6265	-0.005
708.807	-0.0039
708.9875	-0.0044
709.168	-0.0102
709.3485	-0.0038
709.529	0.002
709.7095	-0.0078
709.8899	0.0016
710.0703	-0.0073
710.2507	-0.0055
710.4311	-0.0027
710.6115	-0.0138
710.7918	-0.0062
710.9721	0.0034
711.1524	0.0042
711.3327	0.0089
711.513	0.0036
711.6932	0.0054
711.8735	0.0193
712.0537	0.0127
712.2339	-0.0003
712.4141	-0.0024
712.5942	-0.0047
712.7744	-0.0002
712.9545	-0.0072
713.1346	-0.0017
713.3147	0.0041
713.4947	-0.0008
713.6748	0.0049
713.8548	0.0002
714.0348	0.0035
714.2148	-0.0007
714.3948	0.0043
714.5748	-0.0046
714.7547	-0.0011
714.9346	0.0054
715.1145	0.0022
715.2944	-0.001
715.4743	-0.0041
715.6541	0.0004
715.834	0.0031
716.0138	-0.0028
716.1936	-0.0103
716.3733	-0.0009
716.5531	0.0055
716.7328	-0.0006
716.9126	0.0014
717.0923	0.0075
717.2719	0.0067
717.4516	0.0097
717.6312	0.012
717.8109	0.0043
717.9905	0.0049
718.1701	-0.0035
718.3496	-0.0017
718.5292	0.0042
718.7087	0.0046
718.8882	0.0015
719.0677	0.0082
719.2472	0.0019
719.4267	0.002
719.6061	0.0025
719.7856	0.0093
719.965	0.0097
720.1443	-0.0028
720.3237	0.0068
720.5031	0.0028
720.6824	0.0071
720.8617	-0.0002
721.041	0.0068
721.2203	0.012
721.3995	0.0144
721.5788	0.0003
721.758	0.0073
721.9372	0.0005
722.1164	-0.0044
722.2956	0.0036
722.4747	0.0015
722.6538	0.0046
722.8329	0.0074
723.012	0.0038
723.1911	-0.0031
723.3702	0.0001
723.5492	0.0071
723.7282	-0.0082
723.9072	0.0034
724.0862	-0.0012
724.2652	-0.0001
724.4441	-0.0111
724.623	-0.0086
724.8019	-0.0023
724.9808	0.0064
725.1597	-0.0085
725.3385	0.0059
725.5174	0.0081
725.6962	0.0003
725.875	0.0096
726.0538	0.0065
726.2325	-0.0002
726.4112	0.0033
726.59	-0.0003
726.7687	-0.0009
726.9474	0.0132
727.126	0.0006
727.3047	-0.0031
727.4833	0.0028
727.6619	-0.0022
727.8405	-0.0115
728.0191	-0.0045
728.1976	0.0007
728.3762	0.0005
728.5547	-0.0061
728.7332	-0.0186
728.9116	0.0017
729.0901	0.0078
729.2686	-0.0085
729.447	-0.005
729.6254	-0.0048
729.8038	0.0016
729.9821	-0.0081
730.1605	-0.0047
730.3388	-0.0024
730.5171	0.0014
730.6954	-0.0049
730.8737	0.0064
731.0519	0.0043
731.2302	0.0041
731.4084	0.0096
731.5866	0.0066
731.7648	-0.0009
731.9429	-0.0003
732.1211	-0.012
732.2992	0.0028
732.4773	-0.0028
732.6554	-0.0011
732.8335	-0.0022
733.0115	0.0018
733.1896	0.006
733.3676	0.0038
733.5456	0.0062
733.7235	0.0086
733.9015	0.0032
734.0794	0.0012
734.2574	-0.0027
734.4353	0.0029
734.6131	-0.0005
734.791	-0.0032
734.9689	-0.0003
735.1467	0.0104
735.3245	-0.0085
735.5023	-0.0016
735.68	0.0021
735.8578	0.0024
736.0355	-0.0177
736.2132	-0.0036
736.3909	-0.0039
736.5686	-0.0136
736.7463	0.0016
736.9239	-0.0006
737.1015	-0.0137
737.2791	0.009
737.4567	0.0015
737.6343	-0.0007
737.8118	0.0059
737.9894	0.0092
738.1669	-0.006
738.3444	-0.0058
738.5218	-0.006
738.6993	-0.0028
738.8767	-0.0025
739.0541	0.0066
739.2315	-0.0133
739.4089	0.0016
739.5863	0.0031
739.7636	-0.0061
739.9409	-0.0012
740.1182	0.0073
740.2955	0.005
740.4728	-0.0021
740.65	0.0004
740.8272	-0.0009
741.0044	-0.0068
741.1816	0.0081
741.3588	-0.0009
741.5359	-0.001
741.7131	-0.0112
741.8902	0.0052
742.0673	0.0024
742.2444	-0.0043
742.4214	-0.0012
742.5985	0.0002
742.7755	-0.0038
742.9525	-0.008
743.1295	0.0067
743.3064	-0.0039
743.4834	0.0046
743.6603	-0.004
743.8372	-0.0035
744.0141	0.0068
744.191	0.0024
744.3678	-0.001
744.5446	0.0023
744.7215	0.0032
744.8982	-0.0135
745.075	-0.0093
745.2518	-0.0053
745.4285	0.0049
745.6052	-0.0058
745.7819	0.0011
745.9586	-0.0098
746.1353	-0.0092
746.3119	-0.009
746.4885	-0.0167
746.6651	-0.0116
746.8417	-0.0079
747.0183	-0.0107
747.1948	-0.0148
747.3714	-0.0055
747.5479	-0.0058
747.7244	-0.0043
747.9008	-0.0033
748.0773	-0.0024
748.2537	-0.0013
748.4301	-0.0072
748.6065	0.0033
748.7829	0.0001
748.9593	-0.0116
749.1356	-0.0008
749.3119	0.0005
749.4882	-0.011
749.6645	0.0068
749.8408	-0.0009
750.017	-0.0025
750.1933	0.0015
750.3695	-0.0091
750.5457	0.0047
750.7218	-0.0024
750.898	0.0027
751.0741	-0.0004
751.2502	-0.0045
751.4263	-0.0067
751.6024	-0.0015
751.7784	-0.0001
751.9545	-0.0005
752.1305	-0.0021
752.3065	-0.0066
752.4825	0.0062
752.6584	-0.0136
752.8344	-0.0068
753.0103	-0.0113
753.1862	-0.0082
753.3621	0.0027
753.5379	-0.0108
753.7138	-0.0039
753.8896	-0.0095
754.0654	0.0084
754.2412	0.0018
754.417	0.0046
754.5927	-0.0061
754.7685	-0.0056
754.9442	0.0013
755.1199	0.0099
755.2956	0.0022
755.4712	0.0133
755.6469	0.0014
755.8225	-0.0006
755.9981	0.0024
756.1736	0.0099
756.3492	0.0128
756.5248	0.0045
756.7003	0.0076
756.8758	0.0121
757.0513	0.0041
757.2267	0.0024
757.4022	0.0146
757.5776	0.0034
757.753	0.009
757.9284	0.011
758.1038	0.0021
758.2791	0.0026
758.4545	-0.0153
758.6298	-0.0008
758.8051	-0.0054
758.9803	-0.0022
759.1556	-0.0079
759.3308	-0.005
759.506	0.0006
759.6812	0.0022
759.8564	0.0039
760.0316	0.002
760.2067	0.013
760.3819	0.0072
760.557	0.0144
760.732	0.0026
760.9071	-0.0057
761.0821	0.0035
761.2572	0.0072
761.4322	-0.0052
761.6072	-0.004
761.7821	-0.0011
761.9571	-0.0073
762.132	-0.001
762.3069	-0.0127
762.4818	-0.0057
762.6567	-0.007
762.8316	-0.0021
763.0064	0.0021
763.1812	-0.0022
763.356	-0.0085
763.5308	-0.0032
763.7055	0.0035
763.8803	-0.0065
764.055	-0.0021
764.2297	-0.0006
764.4044	-0.0152
764.579	-0.0053
764.7537	-0.0063
764.9283	-0.0036
765.1029	-0.009
765.2775	-0.0085
765.4521	-0.0037
765.6266	-0.0051
765.8011	-0.0055
765.9756	0.0001
766.1501	0.0018
766.3246	-0.0041
766.4991	0.0015
766.6735	-0.0013
766.8479	-0.0113
767.0223	-0.0005
767.1967	-0.0082
767.371	-0.0072
767.5454	-0.0033
767.7197	0.0018
767.894	-0.0073
768.0683	-0.0148
768.2425	-0.0088
768.4168	0.0023
768.591	-0.007
768.7652	-0.0063
768.9394	-0.0015
769.1135	-0.0012
769.2877	-0.0101
769.4618	-0.006
769.6359	-0.0062
769.81	-0.0012
769.984	-0.0042
770.1581	-0.0073
770.3321	0.0011
770.5061	0.0111
770.6801	-0.0108
770.8541	-0.005
771.028	0.0166
771.202	-0.0081
771.3759	0.0046
771.5498	-0.0069
771.7236	0.0032
771.8975	0.0072
772.0713	0.0025
772.2451	-0.0061
772.4189	0.007
772.5927	0.0059
772.7665	0.0133
772.9402	-0.0075
773.1139	-0.0082
773.2876	-0.004
773.4613	-0.0046
773.635	-0.0039
773.8086	-0.0115
773.9822	0.0042
774.1558	-0.002
774.3294	-0.0128
774.503	-0.0055
774.6765	0.0091
774.8501	-0.0048
775.0236	0.0007
775.1971	0.0079
775.3705	-0.0193
775.544	0.0071
775.7174	-0.0088
775.8908	0.0013
776.0642	-0.0015
776.2376	-0.0087
776.4109	-0.0106
776.5843	-0.0015
776.7576	0.0161
776.9309	0.008
777.1041	0.0092
777.2774	0.0018
777.4506	-0.002
777.6238	-0.0023
777.797	-0.0044
777.9702	-0.009
778.1434	-0.0094
778.3165	-0.0132
778.4896	-0.0064
778.6627	0.0073
778.8358	-0.0058
779.0089	-0.0066
779.1819	0.004
779.3549	0.0096
779.5279	0.0124
779.7009	-0.0046
779.8739	-0.0068
780.0468	0.0019
780.2197	0.0021
780.3926	-0.0036
780.5655	-0.0153
780.7384	-0.0083
780.9112	-0.0065
781.0841	-0.0165
781.2569	-0.0063
781.4297	0.005
781.6024	0.0021
781.7752	0.0055
781.9479	0.0054
782.1206	-0.0048
782.2933	-0.0136
782.466	0.0028
782.6386	0.0037
782.8113	0.0097
782.9839	0.0007
783.1565	0.0079
783.329	0.0123
783.5016	0.0082
783.6741	0.0058
783.8466	-0.0042
784.0191	0.0234
784.1916	0.0079
784.3641	0.01
784.5365	0.008
784.7089	0.0092
784.8813	-0.0099
785.0537	-0.0004
785.2261	0.0101
785.3984	-0.022
785.5707	0.0061
785.743	-0.0073
785.9153	-0.0019
786.0876	-0.0017
786.2598	-0.0136
786.432	-0.0106
786.6042	0.0003
786.7764	-0.0086
786.9486	-0.0046
787.1207	0.0051
787.2928	-0.0005
787.4649	0.0164
787.637	0.0074
787.8091	0.0031
787.9811	0.0042
788.1532	-0.0098
788.3252	0.0062
788.4972	-0.0081
788.6691	0.0134
788.8411	0.0098
789.013	-0.0016
789.1849	0.0015
789.3568	-0.0078
789.5287	0.0034
789.7005	-0.0019
789.8723	0.0038
790.0442	0.0117
790.2159	0.0177
790.3877	0.0054
790.5595	-0.0165
790.7312	0.0041
790.9029	-0.0007
791.0746	-0.0101
791.2463	0.0075
791.4179	0.0003
791.5896	-0.0079
791.7612	0.0107
791.9328	0.0083
792.1044	-0.0055
792.2759	-0.0149
792.4474	0.0015
792.619	0.0113
792.7905	0.0058
792.9619	0.0063
793.1334	0.0141
793.3048	0.0182
793.4762	0.0188
793.6476	-0.0065
793.819	-0.002
793.9904	-0.0079
794.1617	-0.0124
794.333	-0.0022
794.5043	-0.0109
794.6756	-0.009
794.8469	0.0036
795.0181	-0.0008
795.1893	-0.011
795.3605	-0.0001
795.5317	0.0061
795.7029	-0.0036
795.874	0.0014
796.0452	-0.0124
796.2163	-0.0083
796.3873	0.0113
796.5584	0.0039
796.7294	0.0007
796.9005	0.0162
797.0715	0.0237
797.2425	-0.0048
797.4134	0.0057
797.5844	-0.0021
797.7553	-0.0191
797.9262	-0.0072
798.0971	-0.0187
798.2679	-0.0003
798.4388	-0.0073
798.6096	-0.0172
798.7804	0.0012
798.9512	0.001
799.122	-0.0092
799.2927	0.0056
799.4635	0.0063
799.6342	-0.0266
799.8049	-0.0203
799.9755	-0.0164
800.1462	-0.0099
800.3168	0.0068
800.4874	-0.0061
800.658	0.0296
800.8286	0.0171
800.9991	0.009
801.1696	0.0103
801.3402	0.0109
801.5106	0.0095
801.6811	0.0014
801.8516	0.0223
802.022	0.0004
802.1924	0.0062
802.3628	0.0189
802.5332	0.0066
802.7035	0.0245
802.8739	-0.0196
803.0442	0.0011
803.2145	0.004
803.3847	-0.0216
803.555	0.0126
803.7252	-0.0153
803.8954	-0.0163
804.0656	-0.0101
804.2358	0.0003
804.4059	0.0104
804.5761	0.0041
804.7462	-0.0065
804.9163	-0.0135
805.0864	-0.0128
805.2564	0.0055
805.4264	0.0096
805.5965	0.0075
805.7665	0.022
805.9364	0.0075
806.1064	0.0394
806.2763	-0.0038
806.4462	0.0236
806.6161	0.0079
806.786	0.0117
806.9559	0.0009
807.1257	0.0169
807.2955	-0.0024
807.4653	0.006
807.6351	-0.0114
807.8048	-0.0009
807.9746	-0.0033
808.1443	0.0102
808.314	-0.0035
808.4837	-0.0011
808.6533	0.0029
808.8229	0.0177
808.9926	-0.0102
809.1622	0.002
809.3317	-0.0109
809.5013	0.0041
809.6708	0.0185
809.8403	0.0154
810.0098	0.0057
810.1793	0.0021
810.3488	0.001
810.5182	-0.0247
810.6876	0.0054
810.857	-0.0061
811.0264	0.0344
811.1958	0.0068
811.3651	0.0254
811.5344	-0.0117
811.7037	0.0021
811.873	-0.0024
812.0422	0.0115
812.2115	-0.0002
812.3807	0.0058
812.5499	0.0199
812.7191	0.0167
812.8882	-0.0045
813.0574	-0.0022
813.2265	-0.0091
813.3956	-0.0048
813.5646	-0.0103
813.7337	0.003
813.9027	0.0138
814.0718	0.0307
814.2407	0.0218
814.4097	0.0003
814.5787	-0.0083
814.7476	-0.0081
814.9165	0.0042
815.0854	-0.0283
815.2543	-0.0161
815.4232	-0.003
815.592	0.0021
815.7608	0.0072
815.9296	0.0015
816.0984	-0.0002
816.2671	-0.021
816.4359	-0.0223
816.6046	0.0166
816.7733	0.0252
816.942	-0.0217
817.1106	0.0476
817.2793	-0.0055
817.4479	-0.0108
817.6165	-0.0012
817.785	0.0042
817.9536	-0.0138
818.1221	0.0023
818.2906	-0.0169
818.4591	-0.0064
818.6276	-0.0191
818.7961	-0.011
818.9645	0.019
819.1329	-0.0056
819.3013	0.0244
819.4697	0.0328
819.638	0.0129
819.8064	0.0035
819.9747	0.0138
820.143	-0.0003
820.3113	0.0033
820.4795	0.0369
820.6477	0.0039
820.816	-0.0076
820.9842	0.011
821.1523	0.0099
821.3205	-0.0049
821.4886	0.0033
821.6567	0.0157
821.8248	0.0188
821.9929	0.0173
822.1609	0.005
822.329	0.0285
822.497	0.0217
822.665	0.0097
822.833	-0.0133
823.0009	0.0169
823.1688	0.0027
823.3367	0.0109
823.5046	0.0141
823.6725	0.0158
823.8404	-0.0252
824.0082	0.0296
824.176	0.0016
824.3438	0.0138
824.5116	0.0211
824.6793	0.0198
824.847	0.0017
825.0147	-0.0084
825.1824	0.0096
825.3501	0.0355
825.5177	-0.0065
825.6854	-0.0299
825.853	0.0259
826.0206	-0.0279
826.1881	0.0136
826.3557	-0.0375
826.5232	0.0205
826.6907	-0.0193
826.8582	0.0143
827.0257	-0.0113
827.1931	0.011
827.3605	-0.0075
827.528	0.0143
827.6953	-0.0249
827.8627	-0.0244
828.03	0.0101
828.1974	-0.0165
828.3647	-0.0332
828.532	0.0031
828.6992	-0.0225
828.8665	0.0107
829.0337	-0.0339
829.2009	-0.0112
829.3681	-0.0065
829.5352	0.0342
829.7024	-0.0305
829.8695	-0.0286
830.0366	0.025
830.2037	0.0146
830.3707	0.0146
830.5378	-0.0156
830.7048	0.0083
830.8718	-0.0042
831.0388	-0.0123
831.2057	-0.0026
831.3727	0.0585
831.5396	0.0029
831.7065	0.0129
831.8734	0.0172
832.0402	0.0165
832.2071	0.0127
832.3739	-0.0295
832.5407	0.0055
832.7075	0.018
832.8742	-0.0011
833.041	-0.0264
833.2077	0.0075
833.3744	0.0231
833.541	-0.0176
833.7077	-0.0067
833.8743	-0.0222
834.0409	0.015
834.2075	0.0215
834.3741	-0.0078
834.5407	0.0243
834.7072	0.0001
834.8737	-0.0025
835.0402	-0.0354
835.2067	0.0212
835.3731	0.0034
835.5395	0.0184
835.706	-0.0114
835.8723	-0.0084
836.0387	0.0251
836.2051	-0.0081
836.3714	-0.004
836.5377	0.0008
836.704	-0.0098
836.8703	0.0063
837.0365	0.0211
837.2027	0.0085
837.3689	0.0278
837.5351	0.0131
837.7013	0.0087
837.8674	-0.0368
838.0335	-0.0499
838.1997	0.0059
838.3657	-0.0007
838.5318	-0.0233
838.6978	0.057
838.8639	0.0365
839.0299	-0.0126
839.1958	-0.016
839.3618	0.0097
839.5277	0.084
839.6937	0.0001
839.8596	-0.0159
840.0254	0.0153
840.1913	0.0408
840.3571	0.031
840.523	0.0022
840.6888	0.0404
840.8545	-0.0359
841.0203	0.0117
841.186	0.0185
841.3517	0.0585
841.5174	0.0319
841.6831	-0.0008
841.8488	0.0886
842.0144	0.0334
842.18	0.0266
842.3456	0.0508
842.5112	-0.0216
842.6767	0.0223
842.8422	-0.0716
843.0077	0.0064
843.1732	-0.0646
843.3387	-0.064
843.5042	-0.0697
843.6696	0.0137
843.835	0.0078
844.0004	0.0495
844.1657	0.0042
844.3311	-0.0441
844.4964	-0.029
844.6617	-0.0371
844.827	0.0049
844.9923	0.0002
845.1575	-0.0045
845.3227	0.0215
845.4879	-0.0065
845.6531	-0.1207
845.8183	-0.0449
845.9834	0.0154
846.1485	-0.0009
846.3136	-0.0304
846.4787	-0.0713
846.6438	0.0784
846.8088	-0.009
846.9738	-0.014
847.1388	-0.0123
847.3038	-0.0884
847.4687	-0.1521
847.6337	0.1239
847.7986	-0.0293
847.9635	0.026
848.1284	0.0665
848.2932	0.1105
848.458	0.0072
848.6228	0.1694
848.7876	0.1064
848.9524	-0.0297
849.1172	0.0109
849.2819	-0.0268
849.4466	-0.0909
849.6113	-0.0678
849.7759	0.0962
849.9406	0.009
850.1052	0.0635
850.2698	-0.0091
850.4344	0.1299
850.599	-0.0691
850.7635	0.0571
850.928	-0.0376
851.0925	0.0666
851.257	-0.0032
851.4215	-0.0289
851.5859	-0.0231
851.7503	0.0191
851.9147	-0.0095
852.0791	-0.1106
852.2434	-0.029
852.4078	0.0568
852.5721	0.0167
852.7364	-0.0215
852.9007	-0.1679
853.0649	-0.0226
853.2291	0.1406
853.3934	-0.0155
853.5575	-0.0169
853.7217	0.035
853.8859	-0.1139
854.05	-0.0448
854.2141	0.0057
854.3782	-0.1049
854.5423	-0.0579
854.7063	0.1947
854.8703	0.1245
855.0343	0.0101
855.1983	-0.1707
855.3623	0.2184
855.5262	0.1499
855.6901	-0.1071
855.854	0.0348
856.0179	0.0422
856.1818	0.1651
856.3456	0.004
856.5094	-0.1036
856.6732	-0.0415
856.837	0.0427
857.0008	0.0876
857.1645	-0.0695
857.3282	0.0992
857.4919	-0.0332
857.6556	-0.0114
857.8192	0.1299
857.9828	0.0421
858.1465	-0.0368
858.31	-0.276
858.4736	-0.1488
858.6372	0.0582
858.8007	-0.1474
858.9642	0.0054
859.1277	0.3788
859.2911	-0.0217
859.4546	-0.0378
859.618	-0.2617
859.7814	-0.093
859.9448	0.0322
860.1081	-0.0044
860.2715	0.304
860.4348	-0.0667
860.5981	-0.0483
860.7614	0.2514
860.9246	-0.1018
861.0879	0.0098
861.2511	0.0325
861.4143	-0.4462
861.5774	0.3915
861.7406	-0.1773
861.9037	0.1087
862.0668	0.1151
862.2299	0.0551
862.393	-0.7286
862.556	0.0008
862.7191	0.1388
862.8821	-0.2995
863.0451	0.0534
863.208	0.2469
863.371	0.0007
863.5339	-0.2444
863.6968	0.3118
863.8597	1.2807
864.0225	-0.1357
864.1854	0.02
864.3482	0.9562
864.511	0.2182
864.6737	-0.0486
864.8365	0.1312
864.9992	-0.2125
865.1619	-0.5057
865.3246	-0
865.4873	0.1002
865.65	0.6716
865.8126	0.4195
865.9752	0.2138
866.1378	-0.4194
866.3004	-0
866.4629	0.2536
866.6254	-0.1054
866.7879	0.4507
866.9504	-0
867.1129	-0
867.2753	0.0612
867.4377	-0.0631
867.6001	-0.4525
867.7625	-0.1655
867.9249	-0.4682
868.0872	0.0772
868.2495	0.1956
868.4118	0.2193
868.5741	-0.061
868.7363	0.0335
868.8986	0.6572
869.0608	-0.1552
869.223	0.141
869.3851	0.2489
869.5473	-0
869.7094	0.2632
869.8715	-0.1936
870.0336	-0
870.1957	-0.7252
870.3577	-0
870.5197	0.0472
870.6817	-0
870.8437	-0.203
871.0057	0.1639
871.1676	0.1041
871.3295	-0.3742
871.4914	-0.4297
871.6533	-0.3306
871.8151	-0.3354
871.977	-0
872.1388	-0
872.3006	1.1083
872.4623	-0
872.6241	-0.0392
872.7858	0.3613
872.9475	-0.3366
873.1092	-0.1191
873.2709	0.9815
873.4325	-0.3624
873.5941	-0.4836
873.7557	-0.4387
873.9173	-0
874.0789	-0.3992
874.2404	-0
874.4019	-0.1579
874.5634	-0.0999
874.7249	-0.1956
874.8863	-0.0792
875.0478	-0.0973
875.2092	-0
875.3706	-0.2
875.5319	-1.035
875.6933	-0
875.8546	-0.0977
876.0159	-0
876.1772	0.0127
876.3385	-0
876.4997	0.1447
876.6609	-0.5466
876.8221	-0.2205
876.9833	-0
877.1445	-0.2918
877.3056	0.3458
877.4667	-0.2424
877.6278	-0
877.7889	-0
877.9499	-0.5019
878.111	-0
878.272	-0.8159
878.433	-0
878.5939	0.3429
878.7549	0.1269
878.9158	-1.0576
879.0767	-0
879.2376	-0
879.3984	-0
879.5593	-0
879.7201	-0.1319
879.8809	-0.7332
880.0417	0.2266
880.2024	0.1148
880.3632	-0
880.5239	0.4249
880.6846	-0
880.8452	-2.1004
881.0059	-1.1931
881.1665	0.3238
881.3271	0.1112
881.4877	-0
881.6483	-0.4246
881.8088	0.2117
881.9693	-0
882.1298	-0
882.2903	-0
