Data from D4ACN5uM420nmA_Absorbance_14-37-09-593.txt Node
Date: Fri Feb 21 14:37:09 GMT 2025
User: LASERRRRR
Spectrometer: FLMT03099
Trigger mode: 0
Integration Time (sec): 1.500000E-2
Scans to average: 1
Electric dark correction enabled: true
Nonlinearity correction enabled: false
Boxcar width: 0
XAxis mode: Wavelengths
Number of Pixels in Spectrum: 3648
>>>>>Begin Spectral Data<<<<<
179.3399	-0.7511
179.5586	-0.7511
179.7771	-0.7511
179.9957	-0.2835
180.2143	-1.2655
180.4329	0.9261
180.6514	-0
180.8699	-0
181.0885	-0
181.307	-0.0808
181.5255	0.0342
181.744	-0
181.9625	0.3772
182.181	-0.4019
182.3994	-0.6634
182.6179	-0.3325
182.8363	0.7601
183.0547	0.051
183.2732	0.0113
183.4916	0.2503
183.71	0.2927
183.9284	0.1036
184.1467	0.1645
184.3651	0.0538
184.5835	0.3395
184.8018	0.0863
185.0201	-0.0161
185.2385	0.1595
185.4568	0.016
185.6751	0.1198
185.8934	0.2907
186.1117	-0.0233
186.3299	0.173
186.5482	0.1936
186.7664	0.1359
186.9847	0.1806
187.2029	0.4828
187.4211	0.1151
187.6393	0.1971
187.8575	0.193
188.0757	0.2532
188.2939	0.0526
188.512	0.3475
188.7302	0.0948
188.9483	0.1629
189.1665	0.4257
189.3846	0.0879
189.6027	0.0273
189.8208	0.2305
190.0389	0.2091
190.257	0.0725
190.475	0.1497
190.6931	-0.0764
190.9111	0.0164
191.1292	-0.0168
191.3472	0.052
191.5652	0.1547
191.7832	0.0948
192.0012	0.0442
192.2192	0.0917
192.4371	0.068
192.6551	0.1474
192.873	0.0897
193.091	0.079
193.3089	0.1803
193.5268	0.1541
193.7447	0.0858
193.9626	0.1437
194.1805	0.2013
194.3984	0.2153
194.6162	0.3419
194.8341	0.3244
195.0519	0.2006
195.2697	0.2551
195.4875	0.2572
195.7054	0.2994
195.9231	0.2143
196.1409	0.3834
196.3587	0.3075
196.5765	0.3393
196.7942	0.2383
197.012	0.3497
197.2297	0.3434
197.4474	0.3331
197.6651	0.3024
197.8828	0.2776
198.1005	0.3772
198.3182	0.3945
198.5358	0.3719
198.7535	0.3713
198.9711	0.39
199.1888	0.3182
199.4064	0.4192
199.624	0.41
199.8416	0.3336
200.0592	0.3517
200.2767	0.378
200.4943	0.456
200.7119	0.3605
200.9294	0.4065
201.1469	0.437
201.3645	0.4176
201.582	0.376
201.7995	0.3995
202.017	0.4059
202.2344	0.403
202.4519	0.393
202.6694	0.3808
202.8868	0.3591
203.1042	0.3786
203.3217	0.3815
203.5391	0.374
203.7565	0.3598
203.9739	0.3794
204.1913	0.3642
204.4086	0.3336
204.626	0.3605
204.8433	0.3287
205.0607	0.3428
205.278	0.3254
205.4953	0.3457
205.7126	0.3336
205.9299	0.3206
206.1472	0.3208
206.3644	0.353
206.5817	0.2903
206.7989	0.3414
207.0162	0.3155
207.2334	0.3249
207.4506	0.3096
207.6678	0.3367
207.885	0.2898
208.1022	0.3175
208.3194	0.3044
208.5365	0.2858
208.7537	0.2912
208.9708	0.2919
209.1879	0.2881
209.405	0.2882
209.6222	0.2494
209.8392	0.3069
210.0563	0.2723
210.2734	0.2624
210.4905	0.2413
210.7075	0.2777
210.9245	0.2394
211.1416	0.2637
211.3586	0.2613
211.5756	0.2348
211.7926	0.2669
212.0096	0.2531
212.2265	0.2736
212.4435	0.2681
212.6604	0.2449
212.8774	0.2573
213.0943	0.2492
213.3112	0.2217
213.5281	0.229
213.745	0.2286
213.9619	0.2528
214.1788	0.2357
214.3956	0.2343
214.6125	0.2547
214.8293	0.2314
215.0461	0.2312
215.2629	0.2305
215.4798	0.2353
215.6965	0.2304
215.9133	0.241
216.1301	0.2323
216.3469	0.2455
216.5636	0.2181
216.7803	0.2442
216.9971	0.2392
217.2138	0.2551
217.4305	0.2346
217.6472	0.2361
217.8639	0.238
218.0805	0.2317
218.2972	0.2427
218.5138	0.2464
218.7305	0.237
218.9471	0.2394
219.1637	0.2634
219.3803	0.2567
219.5969	0.244
219.8135	0.2516
220.0301	0.2527
220.2466	0.246
220.4632	0.2385
220.6797	0.2682
220.8962	0.2524
221.1127	0.2588
221.3292	0.2584
221.5457	0.2582
221.7622	0.2603
221.9787	0.2697
222.1951	0.2557
222.4116	0.2702
222.628	0.2772
222.8444	0.2783
223.0608	0.2717
223.2772	0.2862
223.4936	0.2744
223.71	0.2769
223.9264	0.2736
224.1427	0.2725
224.3591	0.2719
224.5754	0.2895
224.7917	0.2825
225.008	0.3025
225.2243	0.3045
225.4406	0.2839
225.6569	0.3035
225.8732	0.3033
226.0894	0.3061
226.3057	0.3054
226.5219	0.3206
226.7381	0.3149
226.9543	0.3055
227.1705	0.3091
227.3867	0.3081
227.6029	0.3309
227.8191	0.323
228.0352	0.3363
228.2513	0.3556
228.4675	0.3526
228.6836	0.35
228.8997	0.3474
229.1158	0.3458
229.3319	0.3511
229.548	0.3482
229.764	0.3588
229.9801	0.3733
230.1961	0.373
230.4121	0.3778
230.6282	0.3974
230.8442	0.3888
231.0602	0.3822
231.2761	0.3965
231.4921	0.4014
231.7081	0.4009
231.924	0.3983
232.14	0.4027
232.3559	0.405
232.5718	0.4126
232.7877	0.414
233.0036	0.3947
233.2195	0.4165
233.4353	0.4237
233.6512	0.4082
233.867	0.423
234.0829	0.4229
234.2987	0.4345
234.5145	0.4374
234.7303	0.431
234.9461	0.4401
235.1619	0.4524
235.3776	0.436
235.5934	0.4351
235.8091	0.4453
236.0249	0.4476
236.2406	0.4452
236.4563	0.4567
236.672	0.4554
236.8877	0.4464
237.1034	0.4422
237.319	0.4603
237.5347	0.4411
237.7503	0.4419
237.966	0.4682
238.1816	0.4552
238.3972	0.4629
238.6128	0.4621
238.8284	0.4535
239.0439	0.459
239.2595	0.4604
239.475	0.4511
239.6906	0.4628
239.9061	0.4697
240.1216	0.4633
240.3371	0.4648
240.5526	0.4767
240.7681	0.4687
240.9836	0.4589
241.199	0.4612
241.4145	0.4581
241.6299	0.4605
241.8453	0.4451
242.0607	0.4446
242.2761	0.4444
242.4915	0.4372
242.7069	0.429
242.9223	0.4322
243.1376	0.4252
243.353	0.424
243.5683	0.4076
243.7836	0.4045
243.9989	0.3967
244.2142	0.3907
244.4295	0.3885
244.6448	0.3806
244.86	0.3747
245.0753	0.3618
245.2905	0.3554
245.5057	0.3544
245.721	0.3482
245.9362	0.3386
246.1514	0.3291
246.3665	0.3296
246.5817	0.314
246.7969	0.3083
247.012	0.3062
247.2271	0.3019
247.4423	0.2938
247.6574	0.2894
247.8725	0.2862
248.0876	0.2796
248.3026	0.2745
248.5177	0.2616
248.7328	0.2592
248.9478	0.2587
249.1628	0.2573
249.3779	0.2526
249.5929	0.2398
249.8079	0.2435
250.0228	0.2349
250.2378	0.2379
250.4528	0.2359
250.6677	0.2246
250.8827	0.2192
251.0976	0.2203
251.3125	0.2205
251.5274	0.2171
251.7423	0.2153
251.9572	0.2156
252.172	0.2117
252.3869	0.2084
252.6017	0.2037
252.8166	0.205
253.0314	0.1989
253.2462	0.1997
253.461	0.2007
253.6758	0.1969
253.8906	0.1928
254.1053	0.1913
254.3201	0.1984
254.5348	0.1868
254.7496	0.186
254.9643	0.1999
255.179	0.1913
255.3937	0.1934
255.6083	0.1964
255.823	0.1876
256.0377	0.1904
256.2523	0.1917
256.467	0.1906
256.6816	0.1793
256.8962	0.1904
257.1108	0.1926
257.3254	0.1881
257.54	0.1862
257.7545	0.1897
257.9691	0.1833
258.1836	0.1736
258.3981	0.1806
258.6127	0.1807
258.8272	0.1871
259.0417	0.1797
259.2561	0.1858
259.4706	0.18
259.6851	0.1822
259.8995	0.1785
260.114	0.1836
260.3284	0.179
260.5428	0.1792
260.7572	0.1768
260.9716	0.1832
261.186	0.1876
261.4003	0.1809
261.6147	0.1894
261.829	0.1788
262.0433	0.1894
262.2577	0.1806
262.472	0.1819
262.6863	0.1913
262.9005	0.1885
263.1148	0.1857
263.3291	0.1897
263.5433	0.1886
263.7576	0.1939
263.9718	0.1883
264.186	0.1938
264.4002	0.1941
264.6144	0.1976
264.8286	0.1954
265.0427	0.1948
265.2569	0.1991
265.471	0.1977
265.6851	0.1993
265.8993	0.1874
266.1134	0.1978
266.3275	0.1935
266.5415	0.2009
266.7556	0.202
266.9697	0.1959
267.1837	0.1958
267.3978	0.2038
267.6118	0.1947
267.8258	0.2008
268.0398	0.2035
268.2538	0.2063
268.4677	0.2013
268.6817	0.2035
268.8957	0.194
269.1096	0.1918
269.3235	0.1971
269.5374	0.198
269.7514	0.1948
269.9652	0.1947
270.1791	0.1935
270.393	0.1932
270.6068	0.1942
270.8207	0.1891
271.0345	0.1942
271.2483	0.1812
271.4622	0.1882
271.676	0.1901
271.8897	0.1874
272.1035	0.1962
272.3173	0.1919
272.531	0.192
272.7448	0.1911
272.9585	0.1959
273.1722	0.1947
273.3859	0.1995
273.5996	0.1987
273.8133	0.1988
274.0269	0.1989
274.2406	0.2017
274.4542	0.1987
274.6679	0.2032
274.8815	0.2058
275.0951	0.2099
275.3087	0.2132
275.5223	0.2075
275.7358	0.2161
275.9494	0.2113
276.1629	0.2134
276.3765	0.2171
276.59	0.2093
276.8035	0.2107
277.017	0.2182
277.2305	0.2164
277.444	0.2157
277.6574	0.2154
277.8709	0.2208
278.0843	0.2202
278.2978	0.2172
278.5112	0.2147
278.7246	0.2092
278.938	0.2096
279.1513	0.2138
279.3647	0.2079
279.5781	0.2102
279.7914	0.2086
280.0047	0.2128
280.2181	0.2035
280.4314	0.2089
280.6447	0.2085
280.8579	0.2005
281.0712	0.2056
281.2845	0.2024
281.4977	0.2023
281.711	0.1969
281.9242	0.1961
282.1374	0.2027
282.3506	0.1975
282.5638	0.2036
282.7769	0.1909
282.9901	0.1919
283.2033	0.1942
283.4164	0.2012
283.6295	0.1965
283.8426	0.1937
284.0557	0.2006
284.2688	0.1916
284.4819	0.1914
284.695	0.195
284.908	0.1892
285.1211	0.1925
285.3341	0.1939
285.5471	0.19
285.7601	0.1871
285.9731	0.1943
286.1861	0.1934
286.3991	0.1933
286.612	0.191
286.825	0.1861
287.0379	0.1914
287.2508	0.1907
287.4637	0.1928
287.6766	0.1858
287.8895	0.1866
288.1024	0.1886
288.3152	0.1923
288.5281	0.1842
288.7409	0.1908
288.9538	0.1901
289.1666	0.191
289.3794	0.1915
289.5922	0.1853
289.8049	0.1888
290.0177	0.1914
290.2304	0.1884
290.4432	0.1925
290.6559	0.1877
290.8686	0.1881
291.0813	0.1922
291.294	0.1918
291.5067	0.1845
291.7194	0.1834
291.932	0.1871
292.1447	0.1837
292.3573	0.1866
292.5699	0.187
292.7825	0.1786
292.9951	0.1811
293.2077	0.1826
293.4203	0.1861
293.6328	0.1839
293.8454	0.1863
294.0579	0.1877
294.2704	0.1876
294.4829	0.1805
294.6954	0.1791
294.9079	0.1797
295.1204	0.1816
295.3328	0.1872
295.5453	0.1897
295.7577	0.1892
295.9701	0.1838
296.1825	0.1811
296.3949	0.1807
296.6073	0.1858
296.8197	0.1846
297.0321	0.1868
297.2444	0.1836
297.4567	0.1855
297.6691	0.1836
297.8814	0.1865
298.0937	0.1853
298.306	0.187
298.5182	0.1934
298.7305	0.1824
298.9428	0.1848
299.155	0.1829
299.3672	0.1843
299.5794	0.1842
299.7916	0.1908
300.0038	0.1871
300.216	0.1886
300.4282	0.1851
300.6403	0.1937
300.8525	0.1827
301.0646	0.1901
301.2767	0.1842
301.4888	0.1875
301.7009	0.1876
301.913	0.1914
302.125	0.1853
302.3371	0.1859
302.5491	0.1819
302.7612	0.195
302.9732	0.1903
303.1852	0.1827
303.3972	0.187
303.6092	0.1849
303.8211	0.1855
304.0331	0.1852
304.245	0.1858
304.457	0.1841
304.6689	0.184
304.8808	0.1841
305.0927	0.1885
305.3046	0.1808
305.5164	0.1821
305.7283	0.1828
305.9401	0.1761
306.152	0.1785
306.3638	0.1786
306.5756	0.1782
306.7874	0.1793
306.9992	0.1736
307.2109	0.1716
307.4227	0.1702
307.6344	0.1784
307.8462	0.1684
308.0579	0.1778
308.2696	0.169
308.4813	0.1686
308.693	0.168
308.9046	0.1696
309.1163	0.1626
309.328	0.166
309.5396	0.1587
309.7512	0.16
309.9628	0.1603
310.1744	0.1587
310.386	0.1573
310.5976	0.1597
310.8091	0.1546
311.0207	0.1614
311.2322	0.1537
311.4437	0.1548
311.6552	0.1591
311.8667	0.151
312.0782	0.1504
312.2897	0.1548
312.5012	0.1507
312.7126	0.1481
312.924	0.1477
313.1355	0.1483
313.3469	0.1437
313.5583	0.1467
313.7696	0.1479
313.981	0.1554
314.1924	0.1428
314.4037	0.1481
314.6151	0.145
314.8264	0.1483
315.0377	0.1493
315.249	0.145
315.4603	0.1471
315.6716	0.1476
315.8828	0.1424
316.0941	0.1497
316.3053	0.1426
316.5165	0.1481
316.7277	0.1438
316.9389	0.1448
317.1501	0.1464
317.3613	0.1422
317.5724	0.1437
317.7836	0.1411
317.9947	0.1429
318.2058	0.1461
318.417	0.1419
318.6281	0.1445
318.8391	0.1473
319.0502	0.142
319.2613	0.1413
319.4723	0.1434
319.6834	0.1486
319.8944	0.1439
320.1054	0.1418
320.3164	0.1392
320.5274	0.1414
320.7383	0.1402
320.9493	0.1421
321.1602	0.138
321.3712	0.1432
321.5821	0.133
321.793	0.1491
322.0039	0.1418
322.2148	0.1447
322.4257	0.1398
322.6365	0.1401
322.8474	0.1462
323.0582	0.1444
323.269	0.1438
323.4798	0.1481
323.6906	0.1389
323.9014	0.1387
324.1122	0.1366
324.3229	0.1499
324.5337	0.1469
324.7444	0.1514
324.9551	0.1442
325.1658	0.1504
325.3765	0.1492
325.5872	0.1528
325.7979	0.1472
326.0085	0.1473
326.2192	0.1468
326.4298	0.1512
326.6404	0.1547
326.851	0.157
327.0616	0.1519
327.2722	0.152
327.4828	0.1536
327.6933	0.1621
327.9039	0.1558
328.1144	0.1584
328.3249	0.1586
328.5354	0.1592
328.7459	0.1542
328.9564	0.1596
329.1669	0.1623
329.3773	0.1583
329.5878	0.1601
329.7982	0.1638
330.0086	0.1644
330.219	0.1656
330.4294	0.1622
330.6398	0.1596
330.8502	0.1685
331.0605	0.1586
331.2708	0.1632
331.4812	0.1603
331.6915	0.159
331.9018	0.1578
332.1121	0.1692
332.3224	0.1569
332.5326	0.161
332.7429	0.1619
332.9531	0.1583
333.1633	0.1603
333.3735	0.1571
333.5837	0.1619
333.7939	0.1643
334.0041	0.1656
334.2143	0.1555
334.4244	0.168
334.6346	0.1612
334.8447	0.1634
335.0548	0.1674
335.2649	0.1596
335.475	0.1639
335.685	0.163
335.8951	0.1518
336.1051	0.1584
336.3152	0.1574
336.5252	0.1591
336.7352	0.1561
336.9452	0.1582
337.1552	0.1563
337.3652	0.153
337.5751	0.159
337.7851	0.1601
337.995	0.1603
338.2049	0.1548
338.4148	0.1554
338.6247	0.1641
338.8346	0.1541
339.0445	0.1635
339.2543	0.1531
339.4642	0.1576
339.674	0.1545
339.8838	0.1588
340.0936	0.1601
340.3034	0.1564
340.5132	0.1539
340.7229	0.1596
340.9327	0.1723
341.1424	0.159
341.3522	0.1555
341.5619	0.1654
341.7716	0.1634
341.9813	0.1597
342.1909	0.1631
342.4006	0.1673
342.6102	0.1635
342.8199	0.1688
343.0295	0.1604
343.2391	0.1722
343.4487	0.1772
343.6583	0.1751
343.8679	0.1692
344.0774	0.168
344.287	0.1712
344.4965	0.1736
344.706	0.1762
344.9155	0.1733
345.125	0.1773
345.3345	0.1846
345.544	0.1784
345.7534	0.1859
345.9629	0.182
346.1723	0.1881
346.3817	0.1832
346.5911	0.188
346.8005	0.1853
347.0099	0.1841
347.2193	0.1883
347.4286	0.1938
347.638	0.1911
347.8473	0.1935
348.0566	0.1918
348.2659	0.1949
348.4752	0.1884
348.6845	0.1941
348.8937	0.1895
349.103	0.192
349.3122	0.19
349.5214	0.1912
349.7306	0.1928
349.9398	0.1953
350.149	0.1931
350.3582	0.1964
350.5674	0.1997
350.7765	0.1946
350.9856	0.1882
351.1948	0.1961
351.4039	0.2019
351.613	0.1925
351.822	0.196
352.0311	0.1901
352.2402	0.1927
352.4492	0.1942
352.6582	0.1897
352.8672	0.1992
353.0762	0.1915
353.2852	0.1933
353.4942	0.1912
353.7032	0.1949
353.9121	0.1933
354.1211	0.1886
354.33	0.1929
354.5389	0.1924
354.7478	0.186
354.9567	0.1895
355.1655	0.1862
355.3744	0.188
355.5833	0.1888
355.7921	0.1973
356.0009	0.1957
356.2097	0.1821
356.4185	0.191
356.6273	0.1921
356.8361	0.1867
357.0448	0.1874
357.2536	0.1858
357.4623	0.1917
357.671	0.1881
357.8797	0.1925
358.0884	0.1869
358.2971	0.1891
358.5057	0.1919
358.7144	0.1925
358.923	0.1936
359.1316	0.1918
359.3402	0.1909
359.5488	0.1929
359.7574	0.1976
359.966	0.1933
360.1746	0.1924
360.3831	0.2009
360.5916	0.1958
360.8002	0.2027
361.0087	0.1983
361.2172	0.1964
361.4256	0.2001
361.6341	0.1967
361.8426	0.1965
362.051	0.2019
362.2594	0.1944
362.4678	0.1995
362.6762	0.208
362.8846	0.2018
363.093	0.2041
363.3014	0.2015
363.5097	0.1998
363.718	0.2039
363.9264	0.2104
364.1347	0.1983
364.343	0.2075
364.5513	0.2057
364.7595	0.2136
364.9678	0.2052
365.176	0.212
365.3842	0.2192
365.5925	0.2102
365.8007	0.21
366.0089	0.2144
366.217	0.2123
366.4252	0.2099
366.6333	0.2112
366.8415	0.2146
367.0496	0.2151
367.2577	0.2123
367.4658	0.2078
367.6739	0.212
367.882	0.2189
368.09	0.2127
368.2981	0.2234
368.5061	0.2175
368.7141	0.2142
368.9221	0.2254
369.1301	0.2192
369.3381	0.2249
369.5461	0.2155
369.754	0.2213
369.962	0.2177
370.1699	0.2225
370.3778	0.233
370.5857	0.2279
370.7936	0.2208
371.0015	0.2198
371.2093	0.2224
371.4172	0.2169
371.625	0.2202
371.8328	0.2265
372.0406	0.2322
372.2484	0.2315
372.4562	0.2271
372.664	0.2313
372.8717	0.2344
373.0795	0.2288
373.2872	0.2382
373.4949	0.2356
373.7026	0.2282
373.9103	0.2293
374.118	0.2377
374.3256	0.2385
374.5333	0.2346
374.7409	0.2332
374.9485	0.2318
375.1561	0.2391
375.3637	0.2359
375.5713	0.2382
375.7789	0.2316
375.9864	0.2313
376.194	0.2362
376.4015	0.2371
376.609	0.2381
376.8165	0.2414
377.024	0.2389
377.2315	0.2412
377.4389	0.2381
377.6464	0.2413
377.8538	0.2397
378.0612	0.2414
378.2686	0.2333
378.476	0.2554
378.6834	0.2446
378.8908	0.2452
379.0981	0.2454
379.3055	0.2503
379.5128	0.2379
379.7201	0.2443
379.9274	0.2457
380.1347	0.2489
380.342	0.2516
380.5492	0.2458
380.7565	0.2506
380.9637	0.248
381.1709	0.2477
381.3781	0.2566
381.5853	0.2428
381.7925	0.2488
381.9997	0.2475
382.2068	0.2526
382.4139	0.2417
382.6211	0.2527
382.8282	0.2517
383.0353	0.2608
383.2424	0.2524
383.4494	0.2529
383.6565	0.2546
383.8635	0.2461
384.0706	0.2546
384.2776	0.2603
384.4846	0.2588
384.6916	0.2528
384.8986	0.2568
385.1055	0.2598
385.3125	0.2667
385.5194	0.2527
385.7263	0.2544
385.9333	0.2613
386.1402	0.2569
386.347	0.2503
386.5539	0.2555
386.7608	0.2551
386.9676	0.2549
387.1744	0.2508
387.3813	0.2584
387.5881	0.2471
387.7948	0.262
388.0016	0.2588
388.2084	0.2529
388.4151	0.2536
388.6219	0.2434
388.8286	0.262
389.0353	0.2536
389.242	0.2587
389.4487	0.24
389.6553	0.2443
389.862	0.2473
390.0686	0.2562
390.2753	0.2477
390.4819	0.2498
390.6885	0.2441
390.8951	0.2554
391.1016	0.2535
391.3082	0.2457
391.5147	0.2487
391.7213	0.2423
391.9278	0.2414
392.1343	0.242
392.3408	0.2451
392.5473	0.2448
392.7537	0.244
392.9602	0.2346
393.1666	0.2409
393.373	0.2354
393.5794	0.2367
393.7858	0.2317
393.9922	0.2422
394.1986	0.228
394.4049	0.2217
394.6113	0.2259
394.8176	0.2315
395.0239	0.2289
395.2302	0.2266
395.4365	0.2319
395.6428	0.23
395.8491	0.2277
396.0553	0.222
396.2615	0.2217
396.4678	0.2225
396.674	0.2211
396.8802	0.2266
397.0863	0.2172
397.2925	0.2238
397.4987	0.212
397.7048	0.2185
397.9109	0.2204
398.117	0.2187
398.3231	0.2168
398.5292	0.2053
398.7353	0.2155
398.9413	0.2196
399.1474	0.2103
399.3534	0.2092
399.5594	0.219
399.7654	0.2121
399.9714	0.2212
400.1774	0.2137
400.3833	0.2131
400.5893	0.2192
400.7952	0.2208
401.0011	0.2192
401.207	0.2184
401.4129	0.2193
401.6188	0.2126
401.8247	0.2164
402.0305	0.2071
402.2364	0.2115
402.4422	0.2178
402.648	0.2095
402.8538	0.2173
403.0596	0.2084
403.2654	0.2161
403.4711	0.2127
403.6768	0.2122
403.8826	0.2116
404.0883	0.2109
404.294	0.2122
404.4997	0.2092
404.7054	0.2078
404.911	0.2062
405.1167	0.212
405.3223	0.2094
405.5279	0.2117
405.7335	0.2099
405.9391	0.1984
406.1447	0.2149
406.3502	0.2045
406.5558	0.2069
406.7613	0.2126
406.9668	0.2099
407.1724	0.2052
407.3778	0.2028
407.5833	0.2106
407.7888	0.2116
407.9942	0.2127
408.1997	0.2184
408.4051	0.2146
408.6105	0.2172
408.8159	0.2058
409.0213	0.2152
409.2267	0.2124
409.432	0.2057
409.6374	0.2171
409.8427	0.2134
410.048	0.212
410.2533	0.2124
410.4586	0.2138
410.6639	0.218
410.8691	0.2064
411.0744	0.2076
411.2796	0.2106
411.4848	0.2224
411.69	0.2059
411.8952	0.2058
412.1004	0.2128
412.3056	0.2075
412.5107	0.2074
412.7158	0.2214
412.921	0.2052
413.1261	0.2078
413.3312	0.2097
413.5362	0.2173
413.7413	0.2102
413.9464	0.2029
414.1514	0.2103
414.3564	0.2086
414.5614	0.2033
414.7664	0.1967
414.9714	0.2075
415.1764	0.2135
415.3813	0.2024
415.5863	0.213
415.7912	0.1948
415.9961	0.2047
416.201	0.2093
416.4059	0.1979
416.6108	0.2045
416.8156	0.2055
417.0205	0.2117
417.2253	0.199
417.4301	0.2042
417.6349	0.2036
417.8397	0.206
418.0445	0.1886
418.2492	0.1999
418.454	0.1995
418.6587	0.2142
418.8634	0.2057
419.0681	0.2136
419.2728	0.2052
419.4775	0.2119
419.6822	0.1959
419.8868	0.1946
420.0915	0.1935
420.2961	0.1868
420.5007	0.2027
420.7053	0.1872
420.9099	0.1935
421.1144	0.195
421.319	0.1907
421.5235	0.1885
421.728	0.196
421.9325	0.1988
422.137	0.1896
422.3415	0.1785
422.546	0.1826
422.7504	0.1913
422.9549	0.2021
423.1593	0.1806
423.3637	0.1891
423.5681	0.1935
423.7725	0.1903
423.9769	0.1908
424.1812	0.1817
424.3856	0.1809
424.5899	0.1823
424.7942	0.1848
424.9985	0.18
425.2028	0.1831
425.4071	0.1878
425.6113	0.1773
425.8156	0.1833
426.0198	0.1756
426.224	0.1865
426.4282	0.1675
426.6324	0.1714
426.8366	0.1753
427.0407	0.1735
427.2449	0.1697
427.449	0.168
427.6531	0.1879
427.8572	0.1683
428.0613	0.1821
428.2654	0.1711
428.4694	0.1697
428.6735	0.1658
428.8775	0.1691
429.0815	0.1591
429.2855	0.1617
429.4895	0.1569
429.6935	0.1653
429.8975	0.1593
430.1014	0.16
430.3053	0.1557
430.5093	0.1513
430.7132	0.149
430.9171	0.1536
431.1209	0.1519
431.3248	0.1486
431.5286	0.1466
431.7325	0.159
431.9363	0.1444
432.1401	0.1433
432.3439	0.1441
432.5477	0.1354
432.7514	0.1491
432.9552	0.1404
433.1589	0.1354
433.3627	0.1547
433.5664	0.1427
433.7701	0.1377
433.9737	0.1345
434.1774	0.1364
434.3811	0.1309
434.5847	0.1276
434.7883	0.1317
434.9919	0.1239
435.1955	0.1247
435.3991	0.1249
435.6027	0.13
435.8062	0.1351
436.0098	0.1154
436.2133	0.1266
436.4168	0.1216
436.6203	0.1113
436.8238	0.1147
437.0272	0.1175
437.2307	0.106
437.4341	0.1131
437.6375	0.1073
437.841	0.1032
438.0443	0.1127
438.2477	0.1019
438.4511	0.1049
438.6545	0.1091
438.8578	0.1089
439.0611	0.1067
439.2644	0.1023
439.4677	0.0966
439.671	0.094
439.8743	0.0995
440.0775	0.0956
440.2808	0.0858
440.484	0.0876
440.6872	0.0918
440.8904	0.0796
441.0936	0.0966
441.2967	0.0811
441.4999	0.0779
441.703	0.0835
441.9062	0.0804
442.1093	0.0909
442.3124	0.0829
442.5155	0.0771
442.7185	0.0797
442.9216	0.0761
443.1246	0.0797
443.3276	0.0806
443.5307	0.0714
443.7337	0.0737
443.9366	0.0651
444.1396	0.0686
444.3426	0.075
444.5455	0.0679
444.7484	0.074
444.9513	0.0636
445.1542	0.0677
445.3571	0.0582
445.56	0.0618
445.7628	0.0622
445.9657	0.0707
446.1685	0.064
446.3713	0.0577
446.5741	0.0635
446.7769	0.0702
446.9797	0.0634
447.1824	0.0557
447.3852	0.0513
447.5879	0.0605
447.7906	0.0495
447.9933	0.0512
448.196	0.0494
448.3986	0.0506
448.6013	0.0395
448.8039	0.0502
449.0066	0.0553
449.2092	0.0547
449.4118	0.0425
449.6143	0.047
449.8169	0.0407
450.0195	0.0455
450.222	0.0466
450.4245	0.0517
450.627	0.0403
450.8295	0.0402
451.032	0.0311
451.2345	0.0386
451.4369	0.0322
451.6394	0.035
451.8418	0.0429
452.0442	0.0418
452.2466	0.0297
452.449	0.0353
452.6513	0.0327
452.8537	0.0321
453.056	0.0321
453.2583	0.0313
453.4607	0.0187
453.663	0.0355
453.8652	0.0233
454.0675	0.0346
454.2697	0.0269
454.472	0.0282
454.6742	0.0284
454.8764	0.0332
455.0786	0.0298
455.2808	0.0215
455.4829	0.0358
455.6851	0.031
455.8872	0.015
456.0893	0.0261
456.2915	0.0269
456.4935	0.0289
456.6956	0.0234
456.8977	0.0263
457.0997	0.0326
457.3018	0.0199
457.5038	0.0261
457.7058	0.0213
457.9078	0.027
458.1098	0.0206
458.3117	0.0312
458.5137	0.0109
458.7156	0.0186
458.9175	0.0213
459.1194	0.023
459.3213	0.0137
459.5232	0.0209
459.725	0.0215
459.9269	0.0254
460.1287	0.0224
460.3305	0.0299
460.5323	0.0217
460.7341	0.0201
460.9359	0.0118
461.1376	0.0178
461.3394	0.0218
461.5411	0.0273
461.7428	0.0249
461.9445	0.0121
462.1462	0.0121
462.3479	0.0182
462.5495	0.0202
462.7512	0.0343
462.9528	0.0172
463.1544	0.0119
463.356	0.0106
463.5576	0.0317
463.7592	0.0233
463.9607	0.0088
464.1623	0.0105
464.3638	0.0024
464.5653	0.018
464.7668	0.0189
464.9683	0.0137
465.1697	0.0104
465.3712	0.0056
465.5726	0.0122
465.7741	0.0158
465.9755	0.0179
466.1769	0.0029
466.3782	0.0083
466.5796	0.0179
466.7809	0.0093
466.9823	0.0118
467.1836	0.0171
467.3849	0.0117
467.5862	0.0075
467.7875	0.0075
467.9887	0.0179
468.19	0.0113
468.3912	0.0105
468.5924	0.0147
468.7936	0.0196
468.9948	0.0065
469.196	0.0133
469.3972	0.0003
469.5983	0.0111
469.7994	0.0199
470.0006	0.0132
470.2017	0.0112
470.4027	0.0267
470.6038	0.0236
470.8049	0.0033
471.0059	0.0121
471.2069	0.012
471.408	0.0142
471.6089	0.006
471.8099	0.0105
472.0109	0.0123
472.2119	0.0146
472.4128	0.0055
472.6137	0.008
472.8146	0.0091
473.0155	0.0114
473.2164	0.0071
473.4173	0.0012
473.6181	0.0028
473.819	0.0074
474.0198	0.009
474.2206	0.0041
474.4214	0.0049
474.6222	0.0016
474.8229	0.0098
475.0237	0.0121
475.2244	0.0054
475.4251	0.0098
475.6258	0.0051
475.8265	0.0102
476.0272	0.0083
476.2278	0.0114
476.4285	0.0017
476.6291	0.0059
476.8297	0.0076
477.0303	0.0087
477.2309	0.01
477.4315	0.0122
477.632	0.0056
477.8326	0.0115
478.0331	0.0107
478.2336	0.0129
478.4341	0.0075
478.6346	0.0052
478.8351	0.0077
479.0355	0.0134
479.236	0.0092
479.4364	0.0124
479.6368	0.0042
479.8372	0.0037
480.0376	0.0061
480.2379	-0.0018
480.4383	0.0089
480.6386	-0.0024
480.8389	0.0138
481.0392	0.0067
481.2395	0.0117
481.4398	0.0088
481.6401	0.0038
481.8403	0.003
482.0405	0.0041
482.2408	0.0012
482.441	0.008
482.6411	0.0021
482.8413	0.0046
483.0415	0.0118
483.2416	0.0012
483.4417	-0.0016
483.6419	0.004
483.8419	0.0045
484.042	0.0077
484.2421	-0.0019
484.4422	0.002
484.6422	0.0046
484.8422	0.0047
485.0422	0.0035
485.2422	0.0041
485.4422	0.0054
485.6422	0.0066
485.8421	0.0078
486.042	0.016
486.242	0.0041
486.4419	0.0098
486.6417	0.0063
486.8416	0.0068
487.0415	0.0066
487.2413	0.0009
487.4411	0.0059
487.641	-0.0024
487.8408	0.0075
488.0405	0.012
488.2403	-0.003
488.4401	0.0038
488.6398	0.0085
488.8395	0.011
489.0392	0.0058
489.2389	0.0091
489.4386	-0.0034
489.6383	0.0095
489.8379	0.0005
490.0376	0.0072
490.2372	0.0082
490.4368	0.0021
490.6364	0.0012
490.836	0.006
491.0355	0.0038
491.2351	0.005
491.4346	0.0002
491.6341	-0.0047
491.8336	-0.0004
492.0331	-0.0025
492.2326	0.0016
492.432	0.0038
492.6315	0.0025
492.8309	0.0044
493.0303	0.0024
493.2297	0.0078
493.4291	-0.0007
493.6284	0.0026
493.8278	-0.0058
494.0271	0.0025
494.2264	0.0009
494.4257	0.0059
494.625	0.0044
494.8243	-0.0029
495.0236	0.0078
495.2228	0.0059
495.422	0.0059
495.6213	0.003
495.8205	0.0021
496.0196	0.0059
496.2188	0.0016
496.418	0.0025
496.6171	-0.0053
496.8162	0.0063
497.0153	0.0065
497.2144	0.0034
497.4135	0.0058
497.6126	-0.0044
497.8116	-0.0012
498.0107	0.005
498.2097	0.0019
498.4087	0.0037
498.6077	-0.0006
498.8067	0.0018
499.0056	-0.0039
499.2046	0.0081
499.4035	0.0059
499.6024	-0.0071
499.8013	0.0067
500.0002	0.0049
500.199	0.0032
500.3979	-0.008
500.5967	-0.0006
500.7956	0.0071
500.9944	0.003
501.1932	0.0085
501.3919	0.0052
501.5907	0.0075
501.7895	-0.0039
501.9882	0.0026
502.1869	0.0091
502.3856	0.0033
502.5843	-0.0012
502.783	-0.002
502.9816	0.0049
503.1803	0.0023
503.3789	0.0126
503.5775	0.0023
503.7761	-0.0023
503.9747	-0.0007
504.1732	-0.0065
504.3718	0.0091
504.5703	-0.0031
504.7689	-0.0081
504.9674	-0.0027
505.1658	0.002
505.3643	0.0059
505.5628	0.0114
505.7612	0.0104
505.9597	-0.0052
506.1581	-0.004
506.3565	0.0064
506.5549	0.0012
506.7532	-0.0031
506.9516	0.0001
507.1499	-0.0017
507.3482	0.0068
507.5465	0.0037
507.7448	-0.0041
507.9431	0.0043
508.1414	-0.0081
508.3396	0.0033
508.5379	-0.0004
508.7361	0.0035
508.9343	0.0159
509.1325	0.0041
509.3306	-0.0015
509.5288	-0.0077
509.7269	0.0055
509.9251	0.0024
510.1232	0.0006
510.3213	0.0013
510.5193	0.0003
510.7174	-0.0046
510.9154	0.0098
511.1135	-0.0043
511.3115	0.0034
511.5095	-0.0008
511.7075	-0.003
511.9055	-0.005
512.1034	-0.0082
512.3014	0.0044
512.4993	-0.0033
512.6972	0.0034
512.8951	-0
513.093	-0.0048
513.2908	0.0049
513.4887	-0.003
513.6865	0.0037
513.8844	0.0035
514.0822	0.0033
514.2799	-0.0132
514.4777	-0.0066
514.6755	-0.0033
514.8732	0.0003
515.0709	-0.0037
515.2687	-0.0006
515.4664	0.0063
515.664	0.008
515.8617	0.0034
516.0594	0.0043
516.257	-0.001
516.4546	0.0128
516.6522	0.0035
516.8498	-0.0041
517.0474	0.0026
517.2449	-0.0092
517.4425	0.0014
517.64	-0.001
517.8375	-0.0045
518.035	0.0053
518.2325	-0.0086
518.43	-0.0075
518.6274	-0.0051
518.8249	-0.0045
519.0223	0.0145
519.2197	-0.0051
519.4171	-0.0163
519.6145	0.0055
519.8118	-0.0136
520.0092	-0.012
520.2065	0.0025
520.4038	-0.0061
520.6011	-0.0033
520.7984	-0.0037
520.9956	0.0058
521.1929	0.0015
521.3901	-0.0023
521.5874	0.0059
521.7846	-0.0108
521.9818	0.0027
522.1789	-0.0156
522.3761	0.0048
522.5732	0.0013
522.7704	-0.0099
522.9675	-0.0134
523.1646	-0.0027
523.3617	0.0109
523.5587	-0.0068
523.7558	-0.007
523.9528	-0.0016
524.1498	-0.0008
524.3468	0.0052
524.5438	-0.0047
524.7408	-0.0148
524.9378	-0.0019
525.1347	0.0061
525.3316	-0.0088
525.5285	-0.0051
525.7254	-0.001
525.9223	0.0055
526.1192	-0.0016
526.316	0.0048
526.5129	0.0017
526.7097	0.0012
526.9065	-0.0024
527.1033	-0.0004
527.3	0.0006
527.4968	0.0058
527.6935	-0.0039
527.8903	0.0031
528.087	-0.0001
528.2837	0.0059
528.4804	-0.0049
528.677	0.0036
528.8737	0.0063
529.0703	-0.0049
529.2669	0.0065
529.4635	-0.0098
529.6601	-0.0086
529.8567	0.0003
530.0532	-0.0014
530.2498	-0.0103
530.4463	-0.0123
530.6428	-0.0021
530.8393	0.0046
531.0358	-0.0076
531.2322	-0.0038
531.4287	-0.0078
531.6251	-0.0096
531.8215	-0.0087
532.0179	-0.0042
532.2143	-0.0031
532.4107	0.0134
532.607	-0.0087
532.8034	-0.0044
532.9997	-0.006
533.196	0.0021
533.3923	0.0101
533.5886	0.0011
533.7848	0.0044
533.9811	0.0049
534.1773	-0.0017
534.3735	-0.0063
534.5697	0.0018
534.7659	0.0109
534.9621	0.0044
535.1582	0.005
535.3544	0.0065
535.5505	0.0037
535.7466	0.0016
535.9427	0.0066
536.1387	-0.0002
536.3348	0.0125
536.5308	0.0032
536.7269	-0.0071
536.9229	0.0041
537.1189	0.0109
537.3148	-0.0062
537.5108	0.0042
537.7068	0.012
537.9027	-0.0028
538.0986	0.0066
538.2945	-0.0081
538.4904	-0.0007
538.6863	-0.0004
538.8821	0.0005
539.078	0.0038
539.2738	0.006
539.4696	-0.0098
539.6654	0.0056
539.8611	0.0029
540.0569	-0.0012
540.2526	-0.0007
540.4484	-0.0036
540.6441	0.0015
540.8398	0.0077
541.0355	0.0022
541.2311	-0.0012
541.4268	0.0093
541.6224	0.0137
541.818	0.0032
542.0136	0.008
542.2092	0.0072
542.4048	-0.0004
542.6003	0.0062
542.7959	-0.0009
542.9914	0.0011
543.1869	-0.0003
543.3824	0.0006
543.5779	0.0066
543.7734	0.0161
543.9688	0.0058
544.1642	-0.0021
544.3596	0.0179
544.555	-0.0027
544.7504	0.007
544.9458	0.0123
545.1411	-0.0014
545.3365	0.0081
545.5318	0.0116
545.7271	-0.0009
545.9224	-0.0052
546.1177	0.0005
546.3129	-0.0024
546.5081	0.0031
546.7034	0.0007
546.8986	0.0029
547.0938	0.0047
547.289	0.0055
547.4841	0.0068
547.6793	0.0079
547.8744	0.0073
548.0695	-0.0086
548.2646	0.0101
548.4597	0.0039
548.6548	0.0092
548.8498	0.0098
549.0448	0.0052
549.2399	0.0072
549.4349	0.0013
549.6298	0.0076
549.8248	-0.0018
550.0198	0.0109
550.2147	0.0085
550.4096	-0.0014
550.6045	0.0036
550.7994	0.0003
550.9943	0.0033
551.1892	-0.0087
551.384	0.014
551.5788	0.008
551.7737	0.0027
551.9685	-0.0049
552.1632	0.0012
552.358	0.0028
552.5528	0.0039
552.7475	0.0046
552.9422	0.0082
553.1369	0.0105
553.3316	0.016
553.5263	0.0018
553.7209	-0.0027
553.9156	-0.0044
554.1102	0.0069
554.3048	-0.0072
554.4994	0.0005
554.694	0.0089
554.8885	0.0019
555.0831	0.0131
555.2776	0.0039
555.4721	0.0034
555.6666	0.004
555.8611	0.0123
556.0555	0.0081
556.25	0.0097
556.4444	-0.0023
556.6388	-0.0016
556.8332	0.0117
557.0276	0.0062
557.222	0.0031
557.4163	0.0031
557.6107	0.0028
557.805	-0.0021
557.9993	-0.003
558.1936	0.0033
558.3879	-0.002
558.5821	0.0021
558.7764	-0.0008
558.9706	0.0057
559.1648	0.0079
559.359	0.0049
559.5532	0.0097
559.7473	-0.0038
559.9415	0.0058
560.1356	0.0144
560.3297	-0.001
560.5238	0.0024
560.7179	-0.0027
560.9119	0.0022
561.106	-0.0079
561.3	0.0017
561.494	-0.0065
561.688	0.0018
561.882	0.0018
562.076	-0.0034
562.2699	0.0156
562.4639	0.0052
562.6578	0.0126
562.8517	0.0009
563.0456	0.0058
563.2395	0.0073
563.4333	-0.0003
563.6272	-0.0014
563.821	0.0029
564.0148	-0.005
564.2086	-0.0001
564.4024	0.0096
564.5961	0.0045
564.7899	0.011
564.9836	0.0001
565.1773	0.0062
565.371	-0.0022
565.5647	0.0054
565.7584	0.0152
565.952	0.0059
566.1456	0.0041
566.3393	0.0101
566.5329	0.0035
566.7264	0.0055
566.92	0.0041
567.1136	0.0013
567.3071	-0.0042
567.5006	0.0072
567.6941	0.0026
567.8876	-0.0058
568.0811	0.0238
568.2745	-0.0022
568.468	0.0087
568.6614	0.0144
568.8548	0.0079
569.0482	0.0079
569.2416	0.0067
569.4349	0.0113
569.6283	0.0022
569.8216	0.0067
570.0149	0.006
570.2082	0.0187
570.4015	0.003
570.5947	0.0108
570.788	0.0077
570.9812	0.0011
571.1744	0.0065
571.3676	0.0096
571.5608	0.006
571.754	0.0151
571.9471	0.0099
572.1402	0.0062
572.3333	0.0117
572.5264	0.0049
572.7195	0.0045
572.9126	0.0057
573.1057	0.0031
573.2987	0.0048
573.4917	0.0053
573.6847	0.0079
573.8777	0.012
574.0707	0.0108
574.2636	0.0092
574.4566	0.0082
574.6495	0.0059
574.8424	0.0079
575.0353	0.0126
575.2281	0.0125
575.421	0.0054
575.6138	0.0043
575.8067	0.0103
575.9995	0.0052
576.1923	0.0085
576.385	0.0085
576.5778	0.0142
576.7706	0.0118
576.9633	0.0104
577.156	0.0025
577.3487	0.0046
577.5414	0.0071
577.734	0.0057
577.9267	0.008
578.1193	0.0115
578.3119	0.0036
578.5045	0.0068
578.6971	0.0062
578.8897	0.0049
579.0822	0.0157
579.2747	0.0047
579.4673	0.0072
579.6598	0.0077
579.8522	0.0054
580.0447	0.0105
580.2372	0.0054
580.4296	0.0081
580.622	0.0053
580.8144	0.0072
581.0068	0.0047
581.1992	0.0097
581.3915	0.0011
581.5839	0.0075
581.7762	0.0042
581.9685	0.005
582.1608	0.0071
582.353	0.0035
582.5453	0.0119
582.7375	0.0078
582.9298	0.0039
583.122	0.0044
583.3142	0.0125
583.5063	0.0056
583.6985	0.0067
583.8906	0.0074
584.0827	0.0087
584.2749	0.0072
584.4669	0.0073
584.659	0.0088
584.8511	0.0122
585.0431	0.0107
585.2352	0.0063
585.4272	0.0083
585.6192	0.0063
585.8111	0.007
586.0031	0.0019
586.195	0.002
586.387	0.0051
586.5789	0.0121
586.7708	0.012
586.9627	0.006
587.1545	0.0086
587.3464	0.0077
587.5382	0.0039
587.73	0.0095
587.9218	0.0062
588.1136	0.0014
588.3053	0.0067
588.4971	0.0055
588.6888	0.01
588.8805	0.0033
589.0722	0.0095
589.2639	0.0069
589.4556	0.0066
589.6472	0.0102
589.8389	0.0039
590.0305	0.0084
590.2221	0.0103
590.4137	0.0022
590.6052	0.0011
590.7968	0.0119
590.9883	0.0008
591.1798	0.0059
591.3713	0.0054
591.5628	0.0051
591.7543	0.0061
591.9458	0.0048
592.1372	0.0106
592.3286	0.006
592.52	0.0075
592.7114	0.0062
592.9028	0.0097
593.0941	0.0037
593.2855	0.0049
593.4768	0.0131
593.6681	0.0058
593.8594	0.013
594.0506	0.0072
594.2419	0.0101
594.4331	0.01
594.6244	0.006
594.8156	0.0054
595.0067	0.0013
595.1979	0.0055
595.3891	0.0075
595.5802	0.0087
595.7713	0.0059
595.9624	0.008
596.1535	0.005
596.3446	0.0071
596.5357	0.013
596.7267	0.0094
596.9177	0.0032
597.1087	-0.0012
597.2997	0.0088
597.4907	-0.0028
597.6817	0.0089
597.8726	0.0145
598.0635	0.0021
598.2544	0.0077
598.4453	0.0096
598.6362	0.0094
598.827	0.003
599.0179	0.0097
599.2087	0.0111
599.3995	0.0096
599.5903	0.0092
599.7811	0.0094
599.9718	0.0028
600.1626	0.0054
600.3533	0.0067
600.544	0.0048
600.7347	0.01
600.9254	0.0155
601.116	0.0052
601.3067	0.007
601.4973	0.0046
601.6879	0.0046
601.8785	0.0111
602.0691	0.011
602.2596	0.0069
602.4502	0.0036
602.6407	0.0034
602.8312	0.0111
603.0217	0.0054
603.2122	0.0026
603.4027	0.0093
603.5931	0.0076
603.7835	0.0113
603.9739	0.0037
604.1643	0.0109
604.3547	0.0068
604.5451	0.0081
604.7354	0.0008
604.9257	0.001
605.116	-0.0026
605.3063	0.0054
605.4966	0.0071
605.6869	0.0124
605.8771	0.0148
606.0673	0.0046
606.2575	0.0032
606.4477	0.0065
606.6379	0.0046
606.8281	0.0085
607.0182	0.0076
607.2083	0.0087
607.3985	0.0103
607.5885	0.0067
607.7786	0.0036
607.9687	0.0133
608.1587	0.0112
608.3488	0.0113
608.5388	0.0073
608.7288	-0.0001
608.9187	0.004
609.1087	0.0114
609.2986	0.0118
609.4886	0.004
609.6785	0.0096
609.8684	-0.0005
610.0582	0.003
610.2481	0.0018
610.4379	0.0072
610.6278	0.0081
610.8176	0.0055
611.0074	0.0076
611.1971	0.0046
611.3869	0.0088
611.5766	-0.0018
611.7664	0.0069
611.9561	0.0083
612.1458	0.0063
612.3354	0.0143
612.5251	0.0047
612.7147	0.0125
612.9044	0.0105
613.094	0.0075
613.2836	0.0022
613.4731	0.0082
613.6627	0.0028
613.8522	0.0115
614.0417	0.0117
614.2313	0.0071
614.4207	0.0114
614.6102	0.0112
614.7997	0.0167
614.9891	0.0146
615.1785	0.0005
615.3679	0.0096
615.5573	0.0023
615.7467	0.0027
615.9361	0.0042
616.1254	0.0088
616.3147	0.0087
616.504	-0
616.6933	0.0072
616.8826	0.001
617.0718	0.0109
617.2611	0.005
617.4503	0.0046
617.6395	0.01
617.8287	0.011
618.0179	0.0091
618.207	0.0128
618.3961	-0.0046
618.5853	0.0064
618.7744	0.0094
618.9634	0.0037
619.1525	0.0025
619.3416	0.0025
619.5306	0.0078
619.7196	0.0148
619.9086	0.0076
620.0976	-0.0004
620.2866	0.01
620.4755	-0.0007
620.6645	0.0156
620.8534	0.0138
621.0423	0.0067
621.2312	-0.0021
621.42	0.0056
621.6089	-0.0003
621.7977	0.006
621.9865	0.0186
622.1753	0.0025
622.3641	-0.0031
622.5529	0.0095
622.7416	0.0037
622.9303	-0.0014
623.1191	0.0183
623.3078	0.0094
623.4964	0.0099
623.6851	0.016
623.8737	0.0084
624.0624	-0.0073
624.251	0.0026
624.4396	0.0023
624.6282	0.0188
624.8167	0.0064
625.0053	0.0138
625.1938	0.0031
625.3823	0.0054
625.5708	0.009
625.7593	0.0059
625.9477	0.0097
626.1362	0.0069
626.3246	-0.0108
626.513	0.0128
626.7014	0.0112
626.8898	0.0151
627.0781	0.0075
627.2665	0.0073
627.4548	-0.0013
627.6431	0.0105
627.8314	0.0123
628.0197	-0
628.2079	0.0011
628.3962	0.0123
628.5844	0.0207
628.7726	-0.0035
628.9608	0.0077
629.1489	0.0218
629.3371	0.0097
629.5252	0.008
629.7134	-0.0036
629.9015	0.0114
630.0895	-0.0082
630.2776	-0.0003
630.4657	0.0106
630.6537	0.0138
630.8417	-0.0068
631.0297	0.0054
631.2177	0.0054
631.4057	0.0089
631.5936	-0.0063
631.7815	0.0027
631.9695	0.0266
632.1574	0.0085
632.3452	0.0092
632.5331	0.0099
632.7209	0.0094
632.9088	0.0062
633.0966	0.0313
633.2844	0.0142
633.4722	0.0159
633.6599	0.0204
633.8477	0.0161
634.0354	0.0104
634.2231	-0.0007
634.4108	0.0077
634.5985	0.0104
634.7861	0.004
634.9738	-0.0018
635.1614	0.0122
635.349	0.0072
635.5366	0.0168
635.7242	0.002
635.9117	0.0083
636.0993	0.0059
636.2868	-0.0009
636.4743	0.0062
636.6618	-0.0063
636.8492	0.0152
637.0367	-0.0051
637.2241	0.0152
637.4115	0.0267
637.5989	-0.0071
637.7863	0.0238
637.9737	0.0046
638.161	0.0035
638.3484	-0.0058
638.5357	0.0023
638.723	0.0124
638.9103	0.001
639.0975	0.0012
639.2848	0.0191
639.472	0.0061
639.6592	-0.0242
639.8464	0.0051
640.0336	0.0034
640.2208	-0.001
640.4079	-0.0026
640.595	-0.0098
640.7821	0.0079
640.9692	0.0039
641.1563	0.0085
641.3434	0.0157
641.5304	0.0286
641.7174	0.0201
641.9044	0.0105
642.0914	0.0297
642.2784	-0.0161
642.4653	-0.015
642.6523	0.0101
642.8392	0.0035
643.0261	0.0133
643.213	-0.007
643.3999	0.0037
643.5867	0.0086
643.7735	0.008
643.9604	0.0136
644.1472	0.0038
644.3339	-0.0016
644.5207	0.0077
644.7075	0.0002
644.8942	0.0018
645.0809	-0.0082
645.2676	-0.0109
645.4543	0.0036
645.6409	0.0245
645.8276	0.008
646.0142	-0.0025
646.2008	0.0105
646.3874	-0.0137
646.574	0.0045
646.7605	0.0157
646.9471	-0.0006
647.1336	-0.0113
647.3201	0.0022
647.5066	0.0057
647.6931	-0.0017
647.8795	0.0147
648.0659	0.0042
648.2524	0.0071
648.4388	0.0015
648.6252	0.0295
648.8115	-0.0025
648.9979	0.0264
649.1842	0.0008
649.3705	0.0094
649.5568	-0.0144
649.7431	-0.0079
649.9294	-0.0021
650.1156	-0.0132
650.3018	0.0058
650.488	0.0019
650.6742	0.0039
650.8604	0.0161
651.0466	-0.0071
651.2327	-0.0132
651.4188	-0.0101
651.6049	0.0147
651.791	-0.0023
651.9771	0.0066
652.1632	0.0203
652.3492	0.0291
652.5352	0.0084
652.7212	0.0009
652.9072	0.0059
653.0932	0.0196
653.2791	0.0014
653.465	0.0014
653.651	0.0047
653.8369	0.0158
654.0227	0.0088
654.2086	0.0097
654.3944	0.0264
654.5803	0.0065
654.7661	-0.0008
654.9519	-0.0001
655.1377	-0
655.3234	-0
655.5092	-0
655.6949	-0
655.8806	-0
656.0663	-0
656.2519	-0
656.4376	-0
656.6232	-0
656.8088	-0
656.9945	-0
657.18	-0
657.3656	-0
657.5511	-0
657.7367	-0
657.9222	-0
658.1077	-0
658.2932	-0
658.4786	-0
658.6641	-0
658.8495	-0
659.0349	-0
659.2203	-0
659.4057	0.0158
659.591	0.2588
659.7764	0.0341
659.9617	0.0045
660.147	0.0053
660.3323	0.0111
660.5176	0.0088
660.7028	-0.0054
660.888	0.0117
661.0733	0.0246
661.2585	-0.0066
661.4436	0.0118
661.6288	0.019
661.8139	0.006
661.9991	-0.0184
662.1842	0.0045
662.3693	-0.0033
662.5544	0.0142
662.7394	0.0309
662.9245	0.0122
663.1095	-0.0126
663.2945	-0.0188
663.4795	-0.0116
663.6644	0.0109
663.8494	0.0245
664.0343	0.0462
664.2193	-0.0011
664.4042	-0.0034
664.589	0.0056
664.7739	0.0231
664.9587	0.0014
665.1436	0.0054
665.3284	-0.0153
665.5132	-0.0081
665.698	0.0166
665.8827	0.0236
666.0675	-0.0161
666.2522	0.0074
666.4369	0.0179
666.6216	0.0033
666.8063	-0.0028
666.9909	-0.0061
667.1756	-0.0001
667.3602	-0.0158
667.5448	0.0172
667.7294	0.0035
667.9139	0.0087
668.0985	-0.0147
668.283	-0.0007
668.4675	0.0216
668.652	0.0051
668.8365	-0.0037
669.0209	0.0177
669.2054	0.0188
669.3898	0.0028
669.5742	0.0062
669.7586	0.0224
669.943	0.0101
670.1273	0.0157
670.3117	0.0372
670.496	0.0274
670.6803	-0.0091
670.8646	-0.009
671.0488	0.0109
671.2331	-0.0144
671.4173	0.0126
671.6015	0.0088
671.7857	0.002
671.9699	0.0184
672.1541	0.0001
672.3382	0.0066
672.5223	0.01
672.7064	0.0024
672.8905	-0.0124
673.0746	0.0198
673.2587	0.0367
673.4427	0.0122
673.6267	0.0214
673.8107	0.0251
673.9947	0.0118
674.1787	0.0151
674.3626	-0.0109
674.5465	0.0138
674.7304	-0.0023
674.9143	0.0048
675.0982	-0.0053
675.2821	0.0264
675.4659	-0.0044
675.6497	0.0067
675.8335	-0.0078
676.0173	-0.0133
676.2011	0.0093
676.3849	-0.0048
676.5686	0.0138
676.7523	0.0103
676.936	-0.0027
677.1197	-0.0028
677.3034	0.0286
677.487	0.0249
677.6706	-0
677.8542	0.0141
678.0378	0.0088
678.2214	0.0084
678.405	-0.0123
678.5885	0.016
678.772	0.0124
678.9555	0.0056
679.139	0.0103
679.3225	0.0047
679.5059	-0.0057
679.6894	0.0254
679.8728	-0.0013
680.0562	0.0062
680.2395	-0.0082
680.4229	0.002
680.6062	0.0139
680.7896	-0.0085
680.9729	0.0355
681.1562	-0.0003
681.3394	0.0047
681.5227	0.0028
681.7059	-0.0028
681.8891	0.0053
682.0723	-0.0185
682.2555	-0.0071
682.4387	-0.0074
682.6218	0.0073
682.805	0.0133
682.9881	0.0152
683.1712	0.0132
683.3542	0.0345
683.5373	-0.0092
683.7203	0.0064
683.9034	-0.0005
684.0864	-0.0017
684.2694	-0.0131
684.4523	0.0188
684.6353	-0.009
684.8182	-0.0063
685.0011	0.0076
685.184	0.0048
685.3669	0.0301
685.5498	0.0039
685.7326	-0.0032
685.9154	-0.0175
686.0982	0.0176
686.281	-0.0024
686.4638	0.0008
686.6465	0.0045
686.8293	0.0004
687.012	-0.0041
687.1947	0.0087
687.3774	0.0052
687.56	0.0166
687.7427	0.0082
687.9253	-0.0172
688.1079	0.002
688.2905	0.0015
688.4731	0.0198
688.6556	0.009
688.8382	0.0107
689.0207	-0.004
689.2032	0.0292
689.3857	-0.0102
689.5681	-0.0053
689.7506	0.0142
689.933	0.008
690.1154	0.0155
690.2978	-0.0102
690.4802	0.0089
690.6626	0.017
690.8449	0.0127
691.0272	-0.0048
691.2095	-0.0134
691.3918	0.0153
691.5741	0.023
691.7563	-0.0039
691.9386	0.0167
692.1208	0.0141
692.303	-0.0092
692.4852	0.0147
692.6673	0.0009
692.8495	-0.0017
693.0316	0.0153
693.2137	0.025
693.3958	0.01
693.5778	0.0059
693.7599	0.0016
693.9419	0.0027
694.1239	-0.0035
694.3059	0.0213
694.4879	0.0126
694.6699	-0.0104
694.8518	0.013
695.0337	0.0225
695.2157	0.0158
695.3975	0.0228
695.5794	-0.0246
695.7613	0.0023
695.9431	0.0164
696.1249	0.005
696.3067	-0.0182
696.4885	0.0219
696.6703	0.0056
696.852	-0.004
697.0337	0.0169
697.2154	0.0194
697.3971	0.0089
697.5788	0.0201
697.7605	0.0038
697.9421	0.0134
698.1237	-0.0052
698.3053	-0.0092
698.4869	0.0034
698.6685	0.0041
698.85	0.0022
699.0315	-0.0178
699.213	0.0101
699.3945	0.0078
699.576	0.013
699.7575	-0.0165
699.9389	0.0015
700.1203	-0.0013
700.3017	-0.0147
700.4831	0.0018
700.6645	0.0242
700.8458	-0.019
701.0271	0.0183
701.2084	0.0039
701.3897	0.0209
701.571	-0.0164
701.7523	0.0104
701.9335	0.0176
702.1147	0.0348
702.2959	-0.0067
702.4771	-0.0135
702.6583	0.0037
702.8394	-0.0332
703.0205	-0.0007
703.2016	-0.0191
703.3827	-0.0039
703.5638	0.0072
703.7449	0.0338
703.9259	0.0094
704.1069	-0.009
704.2879	0.0122
704.4689	0.0281
704.6499	0.0435
704.8308	0.0083
705.0117	-0.0185
705.1927	0.0379
705.3735	0.0201
705.5544	0.0035
705.7353	0.0003
705.9161	-0.0169
706.0969	0.0276
706.2777	-0.0029
706.4585	-0.0157
706.6393	0.0206
706.82	0.0112
707.0007	0.0099
707.1815	0.0086
707.3621	0.0188
707.5428	0.0198
707.7235	-0.0003
707.9041	0.0176
708.0847	-0.0016
708.2653	0.0318
708.4459	-0.0086
708.6265	-0.0178
708.807	0.009
708.9875	-0.0073
709.168	-0.0078
709.3485	0.0041
709.529	0.0035
709.7095	-0.0007
709.8899	0.0146
710.0703	0.0235
710.2507	0.0193
710.4311	-0.0169
710.6115	0.0251
710.7918	0.0109
710.9721	0.0073
711.1524	0.0018
711.3327	-0.0159
711.513	0.0007
711.6932	-0.0064
711.8735	0.0216
712.0537	-0.0149
712.2339	0.0172
712.4141	0.0187
712.5942	-0.021
712.7744	0.0361
712.9545	-0.0013
713.1346	0.0345
713.3147	0.0216
713.4947	-0.0149
713.6748	-0.0035
713.8548	0.0045
714.0348	0.0215
714.2148	0.0061
714.3948	0.036
714.5748	0.0244
714.7547	0.0066
714.9346	0.0301
715.1145	-0.0004
715.2944	-0.0107
715.4743	0.0122
715.6541	-0.0279
715.834	0.0394
716.0138	0.0066
716.1936	-0.0168
716.3733	-0.0016
716.5531	0.0214
716.7328	0.0266
716.9126	-0.0001
717.0923	-0.0288
717.2719	0.0314
717.4516	0.0152
717.6312	-0.0052
717.8109	-0.0004
717.9905	0.0152
718.1701	0.0172
718.3496	-0.0136
718.5292	0.0083
718.7087	-0.0126
718.8882	0.0006
719.0677	0.0021
719.2472	0.0039
719.4267	0.0154
719.6061	-0.0173
719.7856	0.0349
719.965	0.008
720.1443	-0.0101
720.3237	0.0189
720.5031	-0.0187
720.6824	-0.0132
720.8617	-0.0075
721.041	0.0081
721.2203	-0.0236
721.3995	0.0034
721.5788	0.0139
721.758	-0.016
721.9372	0.0114
722.1164	0.0255
722.2956	0.0174
722.4747	0.0034
722.6538	-0.0144
722.8329	0.0329
723.012	0.0213
723.1911	-0.006
723.3702	0.0063
723.5492	0.0086
723.7282	0.0029
723.9072	0.0012
724.0862	0.0035
724.2652	0.0099
724.4441	0.0032
724.623	0.0045
724.8019	0.0174
724.9808	-0.0021
725.1597	0.0006
725.3385	0.0102
725.5174	0.034
725.6962	-0.0108
725.875	0.0182
726.0538	0.0263
726.2325	0.0172
726.4112	0.0003
726.59	-0.0174
726.7687	-0.0115
726.9474	-0.0097
727.126	0.0162
727.3047	0.0083
727.4833	-0.0016
727.6619	0.0079
727.8405	0.0181
728.0191	0.05
728.1976	-0.0081
728.3762	0.0131
728.5547	-0.0366
728.7332	0.0255
728.9116	0.0127
729.0901	0.0137
729.2686	0.0034
729.447	-0.0082
729.6254	0.0222
729.8038	0.0137
729.9821	0.0031
730.1605	0.0133
730.3388	0.0047
730.5171	0.0022
730.6954	-0.0025
730.8737	0.0175
731.0519	0.0089
731.2302	0.0036
731.4084	-0.0193
731.5866	0.0072
731.7648	0.0177
731.9429	0.0262
732.1211	0.0053
732.2992	-0.0003
732.4773	0.01
732.6554	0.0256
732.8335	0.0266
733.0115	0.0077
733.1896	0.007
733.3676	0.0085
733.5456	0.0099
733.7235	0.0002
733.9015	0.0143
734.0794	-0.0037
734.2574	-0.0239
734.4353	0.0065
734.6131	0.0047
734.791	0.0047
734.9689	-0.0171
735.1467	0.0041
735.3245	0.0152
735.5023	0.0029
735.68	0.0002
735.8578	0.0064
736.0355	0.0005
736.2132	0.0058
736.3909	0.0107
736.5686	0.018
736.7463	-0.0256
736.9239	0.0166
737.1015	0.0165
737.2791	0.0073
737.4567	-0.0004
737.6343	-0.0209
737.8118	0.0216
737.9894	0.0042
738.1669	-0.0209
738.3444	0.0217
738.5218	-0.0012
738.6993	0.0199
738.8767	0.0106
739.0541	0.0007
739.2315	0.0101
739.4089	0.0303
739.5863	-0.0116
739.7636	0.0072
739.9409	0.0231
740.1182	0.0085
740.2955	0.0301
740.4728	0.0052
740.65	-0.0188
740.8272	0.0109
741.0044	-0.0152
741.1816	0.0234
741.3588	-0.0268
741.5359	-0.0129
741.7131	0.017
741.8902	0.0108
742.0673	-0.0119
742.2444	0.0093
742.4214	-0.0004
742.5985	-0.016
742.7755	0.0117
742.9525	0.0057
743.1295	-0.0391
743.3064	-0.0049
743.4834	-0.019
743.6603	0.0609
743.8372	-0.0214
744.0141	0.0174
744.191	0.0166
744.3678	-0.0178
744.5446	-0.0046
744.7215	-0.0027
744.8982	0.0264
745.075	0.052
745.2518	0.01
745.4285	0.0347
745.6052	-0.0226
745.7819	-0.001
745.9586	0.0405
746.1353	-0.0062
746.3119	0.0261
746.4885	0.042
746.6651	-0.0174
746.8417	0.0033
747.0183	0.0183
747.1948	0.0008
747.3714	0.0113
747.5479	0.0357
747.7244	-0.014
747.9008	-0.0229
748.0773	0.0433
748.2537	0.0319
748.4301	0.0102
748.6065	0.0137
748.7829	-0.0422
748.9593	-0.0102
749.1356	0.0324
749.3119	0.0278
749.4882	0.0173
749.6645	0.0283
749.8408	0.0161
750.017	0.0218
750.1933	-0.0367
750.3695	-0.0046
750.5457	-0.0021
750.7218	0.006
750.898	-0.0143
751.0741	0.0249
751.2502	0.0083
751.4263	0.0044
751.6024	-0.0046
751.7784	0.0031
751.9545	-0.007
752.1305	0.0297
752.3065	0.0134
752.4825	0.0076
752.6584	0.0098
752.8344	0.0183
753.0103	-0.0259
753.1862	0.0128
753.3621	-0.0014
753.5379	0.003
753.7138	0.0154
753.8896	0.0038
754.0654	-0.0211
754.2412	0.0062
754.417	0.0188
754.5927	0.0141
754.7685	0.0247
754.9442	0.0145
755.1199	0.0002
755.2956	-0
755.4712	0.0087
755.6469	0.0137
755.8225	0.0135
755.9981	0.0338
756.1736	0.0029
756.3492	-0.0032
756.5248	0.0142
756.7003	-0.0027
756.8758	-0.0022
757.0513	0.002
757.2267	0.0145
757.4022	0.0116
757.5776	0.015
757.753	0.0174
757.9284	-0.0103
758.1038	0.0156
758.2791	0.0103
758.4545	-0.0156
758.6298	0.0154
758.8051	0.0144
758.9803	-0.0026
759.1556	-0.003
759.3308	0.0135
759.506	-0.0167
759.6812	0.0097
759.8564	0.0213
760.0316	-0.0053
760.2067	0.0168
760.3819	-0
760.557	0.0165
760.732	-0.0036
760.9071	0.0179
761.0821	-0.0113
761.2572	0.0212
761.4322	0.0171
761.6072	0.0037
761.7821	-0.0341
761.9571	0.0149
762.132	0.0045
762.3069	0.0267
762.4818	0.0274
762.6567	-0.0026
762.8316	0.0017
763.0064	0.0145
763.1812	0.0124
763.356	-0.0018
763.5308	0.0308
763.7055	-0.0204
763.8803	-0.0095
764.055	0.0005
764.2297	-0.0066
764.4044	0.0022
764.579	0.0142
764.7537	-0.0093
764.9283	0.0214
765.1029	0.0134
765.2775	0.0007
765.4521	0.0099
765.6266	0.0107
765.8011	0.003
765.9756	0.0463
766.1501	-0.0034
766.3246	0.0109
766.4991	-0.0029
766.6735	0.0349
766.8479	0.0262
767.0223	0.0015
767.1967	-0.0007
767.371	0.0004
767.5454	0.0304
767.7197	0.0211
767.894	0.024
768.0683	0.0057
768.2425	0.0241
768.4168	0.0053
768.591	0.0189
768.7652	0.003
768.9394	0.0024
769.1135	0.014
769.2877	0.0183
769.4618	0.0377
769.6359	0.0045
769.81	0.0261
769.984	-0.0004
770.1581	-0.0126
770.3321	0.0207
770.5061	0.0057
770.6801	0.0342
770.8541	0.002
771.028	0.0445
771.202	0.0342
771.3759	0.0145
771.5498	-0.0017
771.7236	0.0017
771.8975	0.0101
772.0713	0.0101
772.2451	-0.0178
772.4189	0.0058
772.5927	-0.0542
772.7665	-0.0026
772.9402	0.0062
773.1139	-0.0121
773.2876	-0.0023
773.4613	0.0079
773.635	0.0193
773.8086	0.013
773.9822	0.0047
774.1558	0.0199
774.3294	-0.0095
774.503	-0.007
774.6765	-0.0069
774.8501	-0.0069
775.0236	-0.0126
775.1971	0.0029
775.3705	-0.0258
775.544	-0.0597
775.7174	0.0064
775.8908	-0.0028
776.0642	0.0287
776.2376	0.0336
776.4109	0.0111
776.5843	-0.0097
776.7576	-0.0303
776.9309	0.0041
777.1041	-0.0192
777.2774	-0.001
777.4506	-0.0386
777.6238	-0.024
777.797	0.0327
777.9702	0.022
778.1434	-0.023
778.3165	-0.0188
778.4896	-0.0103
778.6627	0.022
778.8358	-0.0143
779.0089	-0.0078
779.1819	0.0037
779.3549	0.0069
779.5279	0.0018
779.7009	0.0369
779.8739	0.0304
780.0468	-0.0208
780.2197	0.0338
780.3926	-0.0365
780.5655	-0.0041
780.7384	0.0151
780.9112	0.026
781.0841	0.0041
781.2569	0.004
781.4297	0.0114
781.6024	0.0218
781.7752	0.044
781.9479	0.0433
782.1206	0.0266
782.2933	-0.0074
782.466	0.0251
782.6386	-0.0029
782.8113	0.0075
782.9839	-0.003
783.1565	-0.0195
783.329	0.0051
783.5016	0.0114
783.6741	-0.0019
783.8466	0.0226
784.0191	0.011
784.1916	-0.0528
784.3641	-0.0557
784.5365	0.0162
784.7089	0.0041
784.8813	0.0787
785.0537	0.0202
785.2261	-0.0232
785.3984	0.0104
785.5707	-0.0252
785.743	0.0168
785.9153	-0.0125
786.0876	-0.0099
786.2598	-0.0119
786.432	-0.0154
786.6042	0.0874
786.7764	-0.0143
786.9486	-0.0124
787.1207	0.0475
787.2928	0.0295
787.4649	-0.0203
787.637	0.0419
787.8091	-0.0053
787.9811	0.0208
788.1532	-0.0142
788.3252	0.0117
788.4972	0.0207
788.6691	-0.0048
788.8411	-0.0067
789.013	0.0024
789.1849	-0.0092
789.3568	-0.0025
789.5287	0.0499
789.7005	-0.0067
789.8723	-0.0335
790.0442	-0.0272
790.2159	0.0221
790.3877	0.034
790.5595	0.0332
790.7312	-0.0159
790.9029	-0.0251
791.0746	-0.0013
791.2463	-0.0777
791.4179	-0.0167
791.5896	0.0411
791.7612	0.0352
791.9328	-0.0314
792.1044	0.0044
792.2759	-0.0415
792.4474	-0.0422
792.619	0.0231
792.7905	0.0113
792.9619	0.0692
793.1334	0.0337
793.3048	0.0734
793.4762	0.0058
793.6476	-0.0487
793.819	-0.0328
793.9904	-0.0277
794.1617	-0.0225
794.333	-0.0149
794.5043	0.0395
794.6756	-0.0075
794.8469	-0.0139
795.0181	0.0245
795.1893	0.0255
795.3605	0.0671
795.5317	-0.0064
795.7029	0.0303
795.874	-0.0211
796.0452	0.0314
796.2163	0.0395
796.3873	0.099
796.5584	0.0095
796.7294	-0.0332
796.9005	0.0764
797.0715	-0.0451
797.2425	0.1103
797.4134	0.0156
797.5844	0.0373
797.7553	-0.088
797.9262	0.0246
798.0971	-0.0104
798.2679	0.0273
798.4388	0.0055
798.6096	-0.0241
798.7804	-0.0062
798.9512	-0.0025
799.122	0.0401
799.2927	0.071
799.4635	-0.0426
799.6342	-0.1009
799.8049	0.0798
799.9755	-0.0178
800.1462	-0.0176
800.3168	-0.0463
800.4874	-0.079
800.658	0.1248
800.8286	-0.0049
800.9991	-0.0157
801.1696	0.0457
801.3402	-0.0275
801.5106	-0.0592
801.6811	-0.036
801.8516	0.0434
802.022	0.0869
802.1924	0.0102
802.3628	0.079
802.5332	0.0937
802.7035	0.0755
802.8739	-0.0023
803.0442	-0.0579
803.2145	0.0426
803.3847	0.0335
803.555	0.0595
803.7252	0.0525
803.8954	0.0303
804.0656	-0.028
804.2358	-0.0093
804.4059	0.0887
804.5761	0.0372
804.7462	0.0173
804.9163	0.034
805.0864	-0.0173
805.2564	0.0054
805.4264	0.0304
805.5965	0.0457
805.7665	-0.0108
805.9364	-0.0374
806.1064	0.0363
806.2763	0.0362
806.4462	0.0305
806.6161	0.0205
806.786	-0.0197
806.9559	0.0157
807.1257	-0.0171
807.2955	-0.0253
807.4653	-0.0323
807.6351	0.0275
807.8048	0.0265
807.9746	0.0073
808.1443	-0.0174
808.314	0.0226
808.4837	0.1065
808.6533	-0.0095
808.8229	-0.0348
808.9926	0.0672
809.1622	0.0442
809.3317	-0.0787
809.5013	0.0127
809.6708	0.0236
809.8403	0.0162
810.0098	-0.0194
810.1793	0.0081
810.3488	-0.0872
810.5182	0.1512
810.6876	0.0597
810.857	0.0108
811.0264	-0.0249
811.1958	0.0953
811.3651	-0.0816
811.5344	0.0142
811.7037	0.0567
811.873	-0.0135
812.0422	-0.0527
812.2115	-0.0904
812.3807	-0.1337
812.5499	-0.1097
812.7191	-0.0731
812.8882	0.0154
813.0574	0.0463
813.2265	0.0639
813.3956	0.0695
813.5646	-0.0289
813.7337	0.0051
813.9027	-0.1071
814.0718	-0.0314
814.2407	-0.0372
814.4097	0.0716
814.5787	0.0555
814.7476	-0.0215
814.9165	0.0328
815.0854	-0.0115
815.2543	0.0139
815.4232	0.0441
815.592	0.0228
815.7608	-0.1042
815.9296	0.0435
816.0984	0.1246
816.2671	-0.231
816.4359	0.0448
816.6046	0.0181
816.7733	0.0134
816.942	-0.0694
817.1106	0.0663
817.2793	-0.0769
817.4479	-0.0493
817.6165	-0.0095
817.785	0.0157
817.9536	-0.0391
818.1221	-0.0283
818.2906	-0.057
818.4591	0.0514
818.6276	0.0095
818.7961	0.0156
818.9645	0.0654
819.1329	0.0296
819.3013	-0.0598
819.4697	0.0101
819.638	-0.0786
819.8064	-0.0643
819.9747	-0.05
820.143	-0.1718
820.3113	-0.0644
820.4795	0.0134
820.6477	0.0694
820.816	0.0731
820.9842	-0.0265
821.1523	0.046
821.3205	0.0534
821.4886	-0.0223
821.6567	-0.0306
821.8248	0.1027
821.9929	-0.1553
822.1609	0.0096
822.329	-0.0319
822.497	0.0146
822.665	-0.0286
822.833	-0.2153
823.0009	-0.0534
823.1688	-0.0213
823.3367	-0.1972
823.5046	0.1175
823.6725	-0.081
823.8404	0.1261
824.0082	0.1487
824.176	0.0638
824.3438	0.1214
824.5116	-0.01
824.6793	0.2404
824.847	-0.0345
825.0147	-0.1987
825.1824	-0.014
825.3501	-0.1889
825.5177	-0.0942
825.6854	-0.2687
825.853	-0.0621
826.0206	-0.1139
826.1881	-0.0948
826.3557	0.048
826.5232	0.0784
826.6907	-0.0255
826.8582	-0.1162
827.0257	0.1842
827.1931	-0.0246
827.3605	-0.0044
827.528	-0.0724
827.6953	-0.1495
827.8627	0.1323
828.03	0.1198
828.1974	0.0416
828.3647	0.1274
828.532	0.0725
828.6992	0.08
828.8665	-0.2138
829.0337	0.1297
829.2009	-0.0694
829.3681	-0.0788
829.5352	-0.1837
829.7024	0.0036
829.8695	0.007
830.0366	0.0526
830.2037	0.0478
830.3707	0.0216
830.5378	-0.1122
830.7048	-0.171
830.8718	0.3057
831.0388	0.0619
831.2057	-0.0388
831.3727	-0.5055
831.5396	-0.0104
831.7065	-1.1684
831.8734	0.2892
832.0402	0.2346
832.2071	-0.6151
832.3739	-0.3428
832.5407	-1.948
832.7075	-0.2257
832.8742	-0.1248
833.041	0.1429
833.2077	0.4911
833.3744	0.0202
833.541	0.0182
833.7077	-0.1776
833.8743	0.3099
834.0409	0.0898
834.2075	0.0457
834.3741	-0.1684
834.5407	-0.0879
834.7072	-0.0046
834.8737	0.1704
835.0402	0.0547
835.2067	0.1378
835.3731	-0.1497
835.5395	0.0068
835.706	-0.0117
835.8723	-0.2151
836.0387	-0.1105
836.2051	-0.0172
836.3714	0.1154
836.5377	0.3097
836.704	0.4925
836.8703	-0.2761
837.0365	-0.9246
837.2027	-0.0742
837.3689	0.0766
837.5351	0.3857
837.7013	-0.2225
837.8674	-0.3797
838.0335	0.1109
838.1997	-0.2295
838.3657	-0
838.5318	-0.8484
838.6978	0.7258
838.8639	-0.2461
839.0299	-0.0402
839.1958	0.0477
839.3618	0.156
839.5277	0.1058
839.6937	-0.1923
839.8596	-0.436
840.0254	-0.0415
840.1913	0.2523
840.3571	-0.3418
840.523	-0
840.6888	0.4054
840.8545	-0.6052
841.0203	0.1812
841.186	-0.1285
841.3517	-0.2799
841.5174	0.1057
841.6831	-0.0996
841.8488	-0.049
842.0144	-0.1415
842.18	-0
842.3456	-0.6224
842.5112	-0
842.6767	-0.0486
842.8422	-0.3931
843.0077	0.1336
843.1732	-0.5362
843.3387	0.4075
843.5042	-0
843.6696	-0.0456
843.835	-0.2375
844.0004	-0.449
844.1657	-0.4771
844.3311	-0.1643
844.4964	-0.2046
844.6617	0.0447
844.827	-0
844.9923	0.0345
845.1575	0.2801
845.3227	-0.2428
845.4879	-0.3397
845.6531	0.2667
845.8183	0.6074
845.9834	0.0243
846.1485	0.0096
846.3136	-0.1712
846.4787	-0
846.6438	-0.1179
846.8088	0.3438
846.9738	-0
847.1388	0.0048
847.3038	0.4138
847.4687	-0
847.6337	-0.4771
847.7986	-0.4052
847.9635	0.2709
848.1284	0.4724
848.2932	0.6749
848.458	-1.0086
848.6228	0.2677
848.7876	-0
848.9524	-0.091
849.1172	-1.9131
849.2819	-0
849.4466	0.686
849.6113	0.1638
849.7759	-0.2425
849.9406	0.0741
850.1052	-0
850.2698	-0
850.4344	-0.9446
850.599	-0.2228
850.7635	0.5985
850.928	0.0071
851.0925	0.3469
851.257	-0.1077
851.4215	-0
851.5859	-0.0012
851.7503	-0
851.9147	-0.0602
852.0791	-0.2633
852.2434	-0.1297
852.4078	1.7901
852.5721	-0
852.7364	0.5134
852.9007	-0.2903
853.0649	-0.4022
853.2291	0.0913
853.3934	-0
853.5575	-0.1634
853.7217	0.2796
853.8859	-0
854.05	-0.5525
854.2141	0.6696
854.3782	0.1124
854.5423	-0.1485
854.7063	0.4442
854.8703	-0.1304
855.0343	-0.2816
855.1983	0.2725
855.3623	0.0071
855.5262	-0
855.6901	0.367
855.854	0.1613
856.0179	0.1914
856.1818	-0
856.3456	0.459
856.5094	-0.8708
856.6732	-0.7153
856.837	-0.9986
857.0008	-0.7543
857.1645	-0
857.3282	-0.4131
857.4919	0.8556
857.6556	-0.5922
857.8192	-0.2398
857.9828	-0.2987
858.1465	-0.0621
858.31	-0
858.4736	0.5058
858.6372	-0.4848
858.8007	-0.1309
858.9642	0.0878
859.1277	-0
859.2911	-0.1244
859.4546	-1.4314
859.618	0.0322
859.7814	-0.131
859.9448	-0.5107
860.1081	-0
860.2715	-0
860.4348	-0.1961
860.5981	0.2218
860.7614	0.3042
860.9246	0.5841
861.0879	-0.1598
861.2511	-0
861.4143	-0.4771
861.5774	-0.0526
861.7406	0.5048
861.9037	-0.7611
862.0668	-0.2808
862.2299	0.1831
862.393	-0
862.556	-0.2317
862.7191	-0
862.8821	0.306
863.0451	-0.1218
863.208	-0.3435
863.371	-0.6196
863.5339	0.4136
863.6968	0.2327
863.8597	-0.2808
864.0225	-0.2148
864.1854	0.0872
864.3482	0.1691
864.511	-0.0758
864.6737	-0
864.8365	-0.1091
864.9992	-0
865.1619	0.0872
865.3246	-1.3464
865.4873	0.3058
865.65	0.1867
865.8126	0.289
865.9752	-0.2791
866.1378	0.4716
866.3004	-0.154
866.4629	-2.1192
866.6254	-0.0417
866.7879	0.0179
866.9504	-0
867.1129	-0.3514
867.2753	0.0092
867.4377	-0.2823
867.6001	-0.5697
867.7625	0.0092
867.9249	-0.297
868.0872	-0
868.2495	0.0692
868.4118	0.322
868.5741	-0.0553
868.7363	-0
868.8986	-0
869.0608	-0.2924
869.223	-0.3405
869.3851	-0
869.5473	-0.219
869.7094	-0
869.8715	-0.1224
870.0336	-0.0937
870.1957	-0.5545
870.3577	-0.073
870.5197	-0.1104
870.6817	-0.9038
870.8437	-0.2087
871.0057	0.6971
871.1676	0.1361
871.3295	-0.2606
871.4914	-1.3464
871.6533	0.7755
871.8151	0.3846
871.977	-0
872.1388	-0
872.3006	-0.2377
872.4623	-0.655
872.6241	-0
872.7858	-0.0428
872.9475	0.2577
873.1092	-0.0415
873.2709	0.5579
873.4325	-1.6614
873.5941	-0
873.7557	-0
873.9173	-0.3334
874.0789	0.4303
874.2404	-0.3469
874.4019	0.2117
874.5634	-0
874.7249	0.529
874.8863	-0.2937
875.0478	-0.1474
875.2092	0.4335
875.3706	0.1199
875.5319	-0.2135
875.6933	-0
875.8546	1.2888
876.0159	-0
876.1772	-0
876.3385	-0
876.4997	-0
876.6609	-0
876.8221	-0.064
876.9833	-0
877.1445	0.1701
877.3056	-0.6192
877.4667	-0
877.6278	-0
877.7889	1.2908
877.9499	-0
878.111	-0.1317
878.272	-0.4067
878.433	-0.3064
878.5939	0.1934
878.7549	0.7179
878.9158	-0.1641
879.0767	0.2157
879.2376	-0.4885
879.3984	0.266
879.5593	0.1952
879.7201	-1.9395
879.8809	-0.2955
880.0417	0.0801
880.2024	0.5392
880.3632	-0.587
880.5239	-0
880.6846	1.0586
880.8452	-0
881.0059	-0.7566
881.1665	-0.1119
881.3271	-0
881.4877	1.8203
881.6483	-0.2009
881.8088	-0
881.9693	-0
882.1298	-0
882.2903	-0
