Data from D4ACN5uM420nmA_Absorbance_14-37-08-891.txt Node
Date: Fri Feb 21 14:37:08 GMT 2025
User: LASERRRRR
Spectrometer: FLMT03099
Trigger mode: 0
Integration Time (sec): 1.500000E-2
Scans to average: 1
Electric dark correction enabled: true
Nonlinearity correction enabled: false
Boxcar width: 0
XAxis mode: Wavelengths
Number of Pixels in Spectrum: 3648
>>>>>Begin Spectral Data<<<<<
179.3399	0.1809
179.5586	0.1809
179.7771	0.1809
179.9957	-0.1273
180.2143	-0
180.4329	-0
180.6514	-0.4329
180.8699	-0
181.0885	-0
181.307	0.0926
181.5255	-0.012
181.744	0.5406
181.9625	0.9655
182.181	-0.0141
182.3994	-0.2541
182.6179	-0.1053
182.8363	-0
183.0547	0.0857
183.2732	0.0184
183.4916	0.1812
183.71	0.2433
183.9284	0.0231
184.1467	-0.0661
184.3651	0.0574
184.5835	0.174
184.8018	0.3553
185.0201	0.1352
185.2385	0.1628
185.4568	0.1004
185.6751	0.2267
185.8934	0.1728
186.1117	0.0459
186.3299	0.1854
186.5482	0.2843
186.7664	0.0758
186.9847	0.0418
187.2029	0.3483
187.4211	0.0691
187.6393	0.3292
187.8575	0.4232
188.0757	0.5462
188.2939	0.0647
188.512	0.1676
188.7302	0.2216
188.9483	0.331
189.1665	0.5592
189.3846	0.2809
189.6027	0.2893
189.8208	0.5023
190.0389	0.3435
190.257	0.2028
190.475	0.1377
190.6931	0.286
190.9111	0.061
191.1292	0.1068
191.3472	0.1522
191.5652	0.2041
191.7832	0.3251
192.0012	0.0877
192.2192	0.19
192.4371	0.0742
192.6551	0.1468
192.873	0.116
193.091	0.117
193.3089	0.1357
193.5268	0.2019
193.7447	0.1902
193.9626	0.2088
194.1805	0.2371
194.3984	0.2993
194.6162	0.1503
194.8341	0.3437
195.0519	0.2037
195.2697	0.2333
195.4875	0.3163
195.7054	0.2276
195.9231	0.1552
196.1409	0.2951
196.3587	0.3055
196.5765	0.3467
196.7942	0.3367
197.012	0.3632
197.2297	0.3054
197.4474	0.3443
197.6651	0.3301
197.8828	0.3881
198.1005	0.4295
198.3182	0.3593
198.5358	0.3691
198.7535	0.4059
198.9711	0.3826
199.1888	0.3852
199.4064	0.4729
199.624	0.3759
199.8416	0.3421
200.0592	0.4217
200.2767	0.3856
200.4943	0.4446
200.7119	0.3549
200.9294	0.3957
201.1469	0.403
201.3645	0.4716
201.582	0.3897
201.7995	0.436
202.017	0.4097
202.2344	0.415
202.4519	0.4227
202.6694	0.4258
202.8868	0.4163
203.1042	0.3962
203.3217	0.3969
203.5391	0.407
203.7565	0.3531
203.9739	0.3779
204.1913	0.366
204.4086	0.3494
204.626	0.372
204.8433	0.3726
205.0607	0.3816
205.278	0.3543
205.4953	0.3774
205.7126	0.3544
205.9299	0.3096
206.1472	0.3033
206.3644	0.3348
206.5817	0.3303
206.7989	0.3502
207.0162	0.3
207.2334	0.3175
207.4506	0.2893
207.6678	0.2963
207.885	0.3032
208.1022	0.2988
208.3194	0.3043
208.5365	0.3098
208.7537	0.303
208.9708	0.2978
209.1879	0.3057
209.405	0.2786
209.6222	0.2708
209.8392	0.2705
210.0563	0.2607
210.2734	0.2656
210.4905	0.2636
210.7075	0.2672
210.9245	0.2544
211.1416	0.2673
211.3586	0.248
211.5756	0.2448
211.7926	0.2595
212.0096	0.258
212.2265	0.2525
212.4435	0.2514
212.6604	0.2526
212.8774	0.2387
213.0943	0.2654
213.3112	0.2401
213.5281	0.247
213.745	0.2445
213.9619	0.244
214.1788	0.2761
214.3956	0.2371
214.6125	0.2476
214.8293	0.2727
215.0461	0.2521
215.2629	0.2393
215.4798	0.2277
215.6965	0.2504
215.9133	0.2311
216.1301	0.2445
216.3469	0.2372
216.5636	0.2241
216.7803	0.236
216.9971	0.2613
217.2138	0.2499
217.4305	0.2287
217.6472	0.2504
217.8639	0.2414
218.0805	0.253
218.2972	0.2433
218.5138	0.2499
218.7305	0.2569
218.9471	0.2403
219.1637	0.2647
219.3803	0.2516
219.5969	0.2407
219.8135	0.2606
220.0301	0.2535
220.2466	0.2436
220.4632	0.2421
220.6797	0.2482
220.8962	0.2513
221.1127	0.2606
221.3292	0.2639
221.5457	0.2673
221.7622	0.2593
221.9787	0.2761
222.1951	0.2722
222.4116	0.2652
222.628	0.2786
222.8444	0.2743
223.0608	0.2697
223.2772	0.276
223.4936	0.2732
223.71	0.2814
223.9264	0.2891
224.1427	0.2902
224.3591	0.2854
224.5754	0.2825
224.7917	0.282
225.008	0.2936
225.2243	0.2977
225.4406	0.3013
225.6569	0.2956
225.8732	0.3192
226.0894	0.3066
226.3057	0.3102
226.5219	0.3112
226.7381	0.3215
226.9543	0.315
227.1705	0.3015
227.3867	0.322
227.6029	0.3228
227.8191	0.3278
228.0352	0.3429
228.2513	0.3431
228.4675	0.337
228.6836	0.3481
228.8997	0.3429
229.1158	0.3529
229.3319	0.3676
229.548	0.3485
229.764	0.3628
229.9801	0.3799
230.1961	0.3726
230.4121	0.3758
230.6282	0.3814
230.8442	0.3916
231.0602	0.389
231.2761	0.394
231.4921	0.3876
231.7081	0.3931
231.924	0.3998
232.14	0.3983
232.3559	0.4165
232.5718	0.4042
232.7877	0.4067
233.0036	0.4128
233.2195	0.4251
233.4353	0.4162
233.6512	0.4238
233.867	0.4262
234.0829	0.4253
234.2987	0.4277
234.5145	0.4375
234.7303	0.4355
234.9461	0.4481
235.1619	0.4452
235.3776	0.4416
235.5934	0.4435
235.8091	0.4452
236.0249	0.4454
236.2406	0.4568
236.4563	0.4559
236.672	0.4427
236.8877	0.4497
237.1034	0.4429
237.319	0.4453
237.5347	0.4551
237.7503	0.4469
237.966	0.4692
238.1816	0.4484
238.3972	0.4708
238.6128	0.474
238.8284	0.4658
239.0439	0.4655
239.2595	0.4726
239.475	0.4658
239.6906	0.46
239.9061	0.4596
240.1216	0.4543
240.3371	0.4609
240.5526	0.4646
240.7681	0.4656
240.9836	0.4595
241.199	0.4507
241.4145	0.4635
241.6299	0.4669
241.8453	0.4443
242.0607	0.4384
242.2761	0.4452
242.4915	0.4363
242.7069	0.4304
242.9223	0.4291
243.1376	0.423
243.353	0.4131
243.5683	0.4107
243.7836	0.3992
243.9989	0.3928
244.2142	0.3846
244.4295	0.3777
244.6448	0.3766
244.86	0.3712
245.0753	0.349
245.2905	0.3559
245.5057	0.3488
245.721	0.3518
245.9362	0.3398
246.1514	0.3321
246.3665	0.3203
246.5817	0.3069
246.7969	0.3026
247.012	0.3098
247.2271	0.3037
247.4423	0.2974
247.6574	0.2884
247.8725	0.2845
248.0876	0.28
248.3026	0.275
248.5177	0.2632
248.7328	0.2629
248.9478	0.2611
249.1628	0.2549
249.3779	0.246
249.5929	0.2445
249.8079	0.2424
250.0228	0.2321
250.2378	0.2365
250.4528	0.2381
250.6677	0.2292
250.8827	0.2227
251.0976	0.2194
251.3125	0.2205
251.5274	0.2148
251.7423	0.2123
251.9572	0.2134
252.172	0.2095
252.3869	0.2116
252.6017	0.2015
252.8166	0.2091
253.0314	0.2034
253.2462	0.206
253.461	0.1988
253.6758	0.1992
253.8906	0.1977
254.1053	0.199
254.3201	0.2031
254.5348	0.1952
254.7496	0.1846
254.9643	0.1963
255.179	0.1882
255.3937	0.1968
255.6083	0.191
255.823	0.1936
256.0377	0.1911
256.2523	0.192
256.467	0.1912
256.6816	0.1879
256.8962	0.1906
257.1108	0.1936
257.3254	0.1817
257.54	0.1784
257.7545	0.1882
257.9691	0.1797
258.1836	0.1851
258.3981	0.1915
258.6127	0.1764
258.8272	0.1849
259.0417	0.1838
259.2561	0.1784
259.4706	0.1816
259.6851	0.1836
259.8995	0.1829
260.114	0.1895
260.3284	0.179
260.5428	0.1884
260.7572	0.1842
260.9716	0.1873
261.186	0.1818
261.4003	0.1815
261.6147	0.18
261.829	0.1859
262.0433	0.1832
262.2577	0.1835
262.472	0.1875
262.6863	0.1878
262.9005	0.1867
263.1148	0.1913
263.3291	0.1829
263.5433	0.1901
263.7576	0.1903
263.9718	0.1861
264.186	0.1877
264.4002	0.1912
264.6144	0.1948
264.8286	0.194
265.0427	0.1981
265.2569	0.1951
265.471	0.1945
265.6851	0.1958
265.8993	0.1904
266.1134	0.1953
266.3275	0.1986
266.5415	0.1934
266.7556	0.1936
266.9697	0.1935
267.1837	0.1948
267.3978	0.1984
267.6118	0.1923
267.8258	0.1936
268.0398	0.1988
268.2538	0.1931
268.4677	0.1931
268.6817	0.1928
268.8957	0.1884
269.1096	0.1898
269.3235	0.185
269.5374	0.1973
269.7514	0.1929
269.9652	0.1922
270.1791	0.1903
270.393	0.1877
270.6068	0.1879
270.8207	0.189
271.0345	0.1889
271.2483	0.1865
271.4622	0.1857
271.676	0.1911
271.8897	0.1905
272.1035	0.19
272.3173	0.1912
272.531	0.1889
272.7448	0.1923
272.9585	0.182
273.1722	0.1872
273.3859	0.1987
273.5996	0.1912
273.8133	0.1979
274.0269	0.1904
274.2406	0.192
274.4542	0.1886
274.6679	0.1998
274.8815	0.1966
275.0951	0.2077
275.3087	0.1973
275.5223	0.2041
275.7358	0.2045
275.9494	0.2033
276.1629	0.2039
276.3765	0.2074
276.59	0.2022
276.8035	0.2054
277.017	0.2045
277.2305	0.207
277.444	0.2095
277.6574	0.2052
277.8709	0.2123
278.0843	0.2089
278.2978	0.2073
278.5112	0.2077
278.7246	0.2082
278.938	0.2047
279.1513	0.2071
279.3647	0.2093
279.5781	0.1994
279.7914	0.2017
280.0047	0.2031
280.2181	0.2022
280.4314	0.199
280.6447	0.2014
280.8579	0.1965
281.0712	0.2002
281.2845	0.1964
281.4977	0.1926
281.711	0.1946
281.9242	0.1965
282.1374	0.1983
282.3506	0.1982
282.5638	0.1942
282.7769	0.1945
282.9901	0.1936
283.2033	0.1956
283.4164	0.1936
283.6295	0.1959
283.8426	0.19
284.0557	0.1981
284.2688	0.1945
284.4819	0.19
284.695	0.1964
284.908	0.1911
285.1211	0.1926
285.3341	0.1902
285.5471	0.1955
285.7601	0.1925
285.9731	0.1874
286.1861	0.1938
286.3991	0.1934
286.612	0.1879
286.825	0.1884
287.0379	0.1963
287.2508	0.1846
287.4637	0.1918
287.6766	0.1924
287.8895	0.192
288.1024	0.1983
288.3152	0.1927
288.5281	0.1858
288.7409	0.1967
288.9538	0.1878
289.1666	0.1889
289.3794	0.1909
289.5922	0.1889
289.8049	0.1969
290.0177	0.1951
290.2304	0.1899
290.4432	0.1966
290.6559	0.1894
290.8686	0.1886
291.0813	0.1925
291.294	0.1944
291.5067	0.1821
291.7194	0.1941
291.932	0.1927
292.1447	0.1866
292.3573	0.1955
292.5699	0.19
292.7825	0.1862
292.9951	0.1912
293.2077	0.1816
293.4203	0.1864
293.6328	0.187
293.8454	0.1865
294.0579	0.1948
294.2704	0.1958
294.4829	0.1839
294.6954	0.1909
294.9079	0.1905
295.1204	0.1842
295.3328	0.1906
295.5453	0.1909
295.7577	0.1859
295.9701	0.1903
296.1825	0.1875
296.3949	0.188
296.6073	0.1882
296.8197	0.1889
297.0321	0.1874
297.2444	0.186
297.4567	0.1895
297.6691	0.1867
297.8814	0.1884
298.0937	0.1866
298.306	0.1863
298.5182	0.1967
298.7305	0.1919
298.9428	0.1921
299.155	0.1785
299.3672	0.1868
299.5794	0.1876
299.7916	0.1898
300.0038	0.1938
300.216	0.1879
300.4282	0.187
300.6403	0.1943
300.8525	0.1874
301.0646	0.191
301.2767	0.1895
301.4888	0.1885
301.7009	0.1944
301.913	0.1879
302.125	0.194
302.3371	0.1908
302.5491	0.1886
302.7612	0.1906
302.9732	0.1931
303.1852	0.1861
303.3972	0.1883
303.6092	0.1931
303.8211	0.1871
304.0331	0.1898
304.245	0.1873
304.457	0.1878
304.6689	0.1864
304.8808	0.1846
305.0927	0.1878
305.3046	0.1786
305.5164	0.1806
305.7283	0.1868
305.9401	0.1703
306.152	0.1832
306.3638	0.1789
306.5756	0.187
306.7874	0.1813
306.9992	0.1726
307.2109	0.1688
307.4227	0.1786
307.6344	0.1823
307.8462	0.175
308.0579	0.1762
308.2696	0.1688
308.4813	0.1725
308.693	0.1718
308.9046	0.1681
309.1163	0.1628
309.328	0.1644
309.5396	0.1622
309.7512	0.1564
309.9628	0.1634
310.1744	0.1589
310.386	0.1561
310.5976	0.1549
310.8091	0.1544
311.0207	0.1612
311.2322	0.1531
311.4437	0.1549
311.6552	0.1553
311.8667	0.1617
312.0782	0.1494
312.2897	0.1538
312.5012	0.1459
312.7126	0.1467
312.924	0.1482
313.1355	0.1488
313.3469	0.1529
313.5583	0.1458
313.7696	0.1389
313.981	0.1539
314.1924	0.1441
314.4037	0.1447
314.6151	0.1438
314.8264	0.148
315.0377	0.1368
315.249	0.1459
315.4603	0.1386
315.6716	0.142
315.8828	0.1479
316.0941	0.1432
316.3053	0.1409
316.5165	0.1443
316.7277	0.1404
316.9389	0.1444
317.1501	0.14
317.3613	0.1377
317.5724	0.1378
317.7836	0.1348
317.9947	0.1362
318.2058	0.1399
318.417	0.1356
318.6281	0.1376
318.8391	0.1435
319.0502	0.141
319.2613	0.139
319.4723	0.1407
319.6834	0.1402
319.8944	0.1387
320.1054	0.1355
320.3164	0.1328
320.5274	0.1368
320.7383	0.1415
320.9493	0.1391
321.1602	0.1372
321.3712	0.1398
321.5821	0.1338
321.793	0.1496
322.0039	0.1442
322.2148	0.1343
322.4257	0.138
322.6365	0.1356
322.8474	0.1472
323.0582	0.1381
323.269	0.1481
323.4798	0.1369
323.6906	0.1385
323.9014	0.1404
324.1122	0.1347
324.3229	0.1403
324.5337	0.1469
324.7444	0.1432
324.9551	0.1452
325.1658	0.1468
325.3765	0.1464
325.5872	0.1444
325.7979	0.146
326.0085	0.1461
326.2192	0.1455
326.4298	0.1472
326.6404	0.1528
326.851	0.1474
327.0616	0.1481
327.2722	0.149
327.4828	0.147
327.6933	0.1603
327.9039	0.1425
328.1144	0.1539
328.3249	0.1502
328.5354	0.1506
328.7459	0.1526
328.9564	0.1547
329.1669	0.1601
329.3773	0.1542
329.5878	0.1479
329.7982	0.1576
330.0086	0.1602
330.219	0.1516
330.4294	0.1555
330.6398	0.1572
330.8502	0.1588
331.0605	0.1562
331.2708	0.1573
331.4812	0.1515
331.6915	0.1595
331.9018	0.1518
332.1121	0.1608
332.3224	0.1569
332.5326	0.1525
332.7429	0.1509
332.9531	0.1547
333.1633	0.1492
333.3735	0.1484
333.5837	0.1594
333.7939	0.1444
334.0041	0.1595
334.2143	0.1608
334.4244	0.1585
334.6346	0.1553
334.8447	0.1547
335.0548	0.1568
335.2649	0.1564
335.475	0.16
335.685	0.1604
335.8951	0.1508
336.1051	0.1601
336.3152	0.154
336.5252	0.1511
336.7352	0.1518
336.9452	0.1598
337.1552	0.1513
337.3652	0.1534
337.5751	0.1508
337.7851	0.1552
337.995	0.1538
338.2049	0.1576
338.4148	0.1544
338.6247	0.1556
338.8346	0.1565
339.0445	0.1638
339.2543	0.1557
339.4642	0.1541
339.674	0.1562
339.8838	0.1598
340.0936	0.1544
340.3034	0.1546
340.5132	0.151
340.7229	0.1598
340.9327	0.1603
341.1424	0.1614
341.3522	0.1568
341.5619	0.163
341.7716	0.1648
341.9813	0.1663
342.1909	0.1616
342.4006	0.1649
342.6102	0.1661
342.8199	0.1664
343.0295	0.1585
343.2391	0.171
343.4487	0.1657
343.6583	0.1738
343.8679	0.157
344.0774	0.1675
344.287	0.17
344.4965	0.1701
344.706	0.1735
344.9155	0.1658
345.125	0.173
345.3345	0.1794
345.544	0.1738
345.7534	0.1804
345.9629	0.1841
346.1723	0.1797
346.3817	0.1765
346.5911	0.1875
346.8005	0.1837
347.0099	0.1771
347.2193	0.1853
347.4286	0.1892
347.638	0.184
347.8473	0.1852
348.0566	0.1794
348.2659	0.1802
348.4752	0.1836
348.6845	0.1853
348.8937	0.1863
349.103	0.1855
349.3122	0.1909
349.5214	0.1878
349.7306	0.1918
349.9398	0.1886
350.149	0.1865
350.3582	0.1937
350.5674	0.1888
350.7765	0.1869
350.9856	0.1896
351.1948	0.187
351.4039	0.1893
351.613	0.1917
351.822	0.2002
352.0311	0.1926
352.2402	0.1955
352.4492	0.1868
352.6582	0.1919
352.8672	0.1902
353.0762	0.1933
353.2852	0.1877
353.4942	0.1969
353.7032	0.1889
353.9121	0.1869
354.1211	0.1994
354.33	0.1903
354.5389	0.1889
354.7478	0.1873
354.9567	0.1924
355.1655	0.1902
355.3744	0.1849
355.5833	0.1871
355.7921	0.1946
356.0009	0.1864
356.2097	0.1841
356.4185	0.1936
356.6273	0.1889
356.8361	0.1956
357.0448	0.189
357.2536	0.1887
357.4623	0.1921
357.671	0.1938
357.8797	0.1976
358.0884	0.1921
358.2971	0.1869
358.5057	0.1951
358.7144	0.1986
358.923	0.1965
359.1316	0.1946
359.3402	0.1948
359.5488	0.1966
359.7574	0.2028
359.966	0.197
360.1746	0.1957
360.3831	0.208
360.5916	0.1974
360.8002	0.2098
361.0087	0.203
361.2172	0.2024
361.4256	0.2035
361.6341	0.2072
361.8426	0.2022
362.051	0.2089
362.2594	0.2021
362.4678	0.2062
362.6762	0.205
362.8846	0.2065
363.093	0.2087
363.3014	0.2172
363.5097	0.2105
363.718	0.2047
363.9264	0.2109
364.1347	0.2146
364.343	0.2151
364.5513	0.2097
364.7595	0.2185
364.9678	0.2132
365.176	0.2172
365.3842	0.2131
365.5925	0.2152
365.8007	0.214
366.0089	0.2235
366.217	0.2168
366.4252	0.2187
366.6333	0.2236
366.8415	0.2229
367.0496	0.2183
367.2577	0.2196
367.4658	0.2207
367.6739	0.2237
367.882	0.2228
368.09	0.221
368.2981	0.2289
368.5061	0.2285
368.7141	0.2239
368.9221	0.2279
369.1301	0.2271
369.3381	0.233
369.5461	0.2346
369.754	0.2314
369.962	0.2307
370.1699	0.241
370.3778	0.2319
370.5857	0.2415
370.7936	0.237
371.0015	0.2313
371.2093	0.23
371.4172	0.2406
371.625	0.2359
371.8328	0.2339
372.0406	0.2374
372.2484	0.2322
372.4562	0.2412
372.664	0.2434
372.8717	0.2402
373.0795	0.2456
373.2872	0.2468
373.4949	0.242
373.7026	0.2345
373.9103	0.2324
374.118	0.2429
374.3256	0.2467
374.5333	0.2426
374.7409	0.2381
374.9485	0.2479
375.1561	0.2527
375.3637	0.2338
375.5713	0.2539
375.7789	0.2522
375.9864	0.2485
376.194	0.2461
376.4015	0.2559
376.609	0.2515
376.8165	0.2491
377.024	0.2497
377.2315	0.2541
377.4389	0.2459
377.6464	0.2563
377.8538	0.2554
378.0612	0.248
378.2686	0.2532
378.476	0.2602
378.6834	0.261
378.8908	0.2565
379.0981	0.2497
379.3055	0.2612
379.5128	0.248
379.7201	0.2599
379.9274	0.2594
380.1347	0.2636
380.342	0.261
380.5492	0.2633
380.7565	0.2578
380.9637	0.2682
381.1709	0.263
381.3781	0.2673
381.5853	0.2583
381.7925	0.2562
381.9997	0.2657
382.2068	0.2658
382.4139	0.2597
382.6211	0.2681
382.8282	0.273
383.0353	0.2698
383.2424	0.2626
383.4494	0.274
383.6565	0.2703
383.8635	0.2669
384.0706	0.2704
384.2776	0.2647
384.4846	0.269
384.6916	0.2702
384.8986	0.2722
385.1055	0.2795
385.3125	0.2788
385.5194	0.2783
385.7263	0.2651
385.9333	0.2793
386.1402	0.2727
386.347	0.269
386.5539	0.2624
386.7608	0.2746
386.9676	0.2688
387.1744	0.263
387.3813	0.2725
387.5881	0.2662
387.7948	0.2797
388.0016	0.2713
388.2084	0.2646
388.4151	0.2674
388.6219	0.2638
388.8286	0.2681
389.0353	0.2681
389.242	0.2717
389.4487	0.2656
389.6553	0.2622
389.862	0.2519
390.0686	0.2668
390.2753	0.265
390.4819	0.2674
390.6885	0.2674
390.8951	0.2603
391.1016	0.2612
391.3082	0.2641
391.5147	0.2576
391.7213	0.256
391.9278	0.2494
392.1343	0.2509
392.3408	0.2496
392.5473	0.2537
392.7537	0.2507
392.9602	0.2517
393.1666	0.2491
393.373	0.2458
393.5794	0.245
393.7858	0.2485
393.9922	0.2407
394.1986	0.2452
394.4049	0.2524
394.6113	0.2522
394.8176	0.2474
395.0239	0.2349
395.2302	0.2466
395.4365	0.2418
395.6428	0.2395
395.8491	0.2326
396.0553	0.2328
396.2615	0.239
396.4678	0.2398
396.674	0.24
396.8802	0.2317
397.0863	0.2313
397.2925	0.2388
397.4987	0.233
397.7048	0.233
397.9109	0.2251
398.117	0.2313
398.3231	0.224
398.5292	0.2183
398.7353	0.2329
398.9413	0.23
399.1474	0.234
399.3534	0.2399
399.5594	0.2369
399.7654	0.2298
399.9714	0.2231
400.1774	0.2287
400.3833	0.2304
400.5893	0.2228
400.7952	0.235
401.0011	0.2252
401.207	0.2236
401.4129	0.22
401.6188	0.2363
401.8247	0.239
402.0305	0.2241
402.2364	0.238
402.4422	0.2369
402.648	0.2278
402.8538	0.2228
403.0596	0.2226
403.2654	0.2316
403.4711	0.2271
403.6768	0.2205
403.8826	0.2201
404.0883	0.2259
404.294	0.2262
404.4997	0.2225
404.7054	0.2262
404.911	0.2256
405.1167	0.2348
405.3223	0.2199
405.5279	0.2256
405.7335	0.2269
405.9391	0.2225
406.1447	0.2334
406.3502	0.2301
406.5558	0.2253
406.7613	0.2256
406.9668	0.2255
407.1724	0.2262
407.3778	0.2235
407.5833	0.211
407.7888	0.2281
407.9942	0.2232
408.1997	0.2314
408.4051	0.2249
408.6105	0.2336
408.8159	0.2288
409.0213	0.2195
409.2267	0.2263
409.432	0.2313
409.6374	0.2302
409.8427	0.2204
410.048	0.2174
410.2533	0.2301
410.4586	0.2185
410.6639	0.2341
410.8691	0.2176
411.0744	0.2285
411.2796	0.2279
411.4848	0.2299
411.69	0.2155
411.8952	0.2163
412.1004	0.2246
412.3056	0.2149
412.5107	0.2254
412.7158	0.231
412.921	0.2263
413.1261	0.2189
413.3312	0.2262
413.5362	0.2361
413.7413	0.2216
413.9464	0.2082
414.1514	0.2282
414.3564	0.207
414.5614	0.2221
414.7664	0.2152
414.9714	0.2081
415.1764	0.2211
415.3813	0.2182
415.5863	0.2141
415.7912	0.2143
415.9961	0.2197
416.201	0.2251
416.4059	0.2281
416.6108	0.225
416.8156	0.2153
417.0205	0.2225
417.2253	0.2061
417.4301	0.2185
417.6349	0.2152
417.8397	0.2179
418.0445	0.2104
418.2492	0.2185
418.454	0.2172
418.6587	0.2202
418.8634	0.2198
419.0681	0.2185
419.2728	0.2147
419.4775	0.2257
419.6822	0.215
419.8868	0.2123
420.0915	0.2094
420.2961	0.2025
420.5007	0.2146
420.7053	0.2105
420.9099	0.215
421.1144	0.2036
421.319	0.2032
421.5235	0.2094
421.728	0.2123
421.9325	0.2038
422.137	0.204
422.3415	0.2055
422.546	0.195
422.7504	0.1979
422.9549	0.2104
423.1593	0.2007
423.3637	0.1931
423.5681	0.2001
423.7725	0.1998
423.9769	0.1985
424.1812	0.1936
424.3856	0.1766
424.5899	0.1984
424.7942	0.1883
424.9985	0.2011
425.2028	0.1931
425.4071	0.1892
425.6113	0.1941
425.8156	0.1885
426.0198	0.1905
426.224	0.2009
426.4282	0.1796
426.6324	0.1872
426.8366	0.1888
427.0407	0.1853
427.2449	0.1784
427.449	0.1801
427.6531	0.2057
427.8572	0.1822
428.0613	0.1815
428.2654	0.1787
428.4694	0.1807
428.6735	0.1731
428.8775	0.1806
429.0815	0.1761
429.2855	0.1735
429.4895	0.1703
429.6935	0.1704
429.8975	0.1664
430.1014	0.1728
430.3053	0.1717
430.5093	0.1723
430.7132	0.163
430.9171	0.1631
431.1209	0.1657
431.3248	0.1512
431.5286	0.1592
431.7325	0.1641
431.9363	0.1565
432.1401	0.147
432.3439	0.1648
432.5477	0.144
432.7514	0.1526
432.9552	0.1529
433.1589	0.1462
433.3627	0.1516
433.5664	0.1365
433.7701	0.1418
433.9737	0.1423
434.1774	0.1445
434.3811	0.1292
434.5847	0.1402
434.7883	0.1382
434.9919	0.1374
435.1955	0.1367
435.3991	0.137
435.6027	0.1351
435.8062	0.146
436.0098	0.125
436.2133	0.1302
436.4168	0.1197
436.6203	0.1177
436.8238	0.1213
437.0272	0.1237
437.2307	0.1133
437.4341	0.1237
437.6375	0.1237
437.841	0.1143
438.0443	0.1188
438.2477	0.1135
438.4511	0.0948
438.6545	0.1062
438.8578	0.1078
439.0611	0.1156
439.2644	0.1187
439.4677	0.1056
439.671	0.0998
439.8743	0.1048
440.0775	0.0989
440.2808	0.0956
440.484	0.0898
440.6872	0.0984
440.8904	0.0939
441.0936	0.0938
441.2967	0.0842
441.4999	0.0878
441.703	0.0925
441.9062	0.0887
442.1093	0.0976
442.3124	0.0906
442.5155	0.0852
442.7185	0.0794
442.9216	0.0826
443.1246	0.0792
443.3276	0.0868
443.5307	0.0696
443.7337	0.0889
443.9366	0.0719
444.1396	0.0747
444.3426	0.0702
444.5455	0.0704
444.7484	0.0679
444.9513	0.077
445.1542	0.0782
445.3571	0.0677
445.56	0.0664
445.7628	0.064
445.9657	0.0642
446.1685	0.0741
446.3713	0.0679
446.5741	0.0711
446.7769	0.0732
446.9797	0.0702
447.1824	0.058
447.3852	0.0524
447.5879	0.0513
447.7906	0.0486
447.9933	0.0503
448.196	0.0509
448.3986	0.0481
448.6013	0.0475
448.8039	0.0528
449.0066	0.0548
449.2092	0.0613
449.4118	0.0521
449.6143	0.0548
449.8169	0.0471
450.0195	0.0495
450.222	0.0458
450.4245	0.0549
450.627	0.0531
450.8295	0.0377
451.032	0.0487
451.2345	0.038
451.4369	0.043
451.6394	0.0541
451.8418	0.0413
452.0442	0.046
452.2466	0.0366
452.449	0.0481
452.6513	0.0326
452.8537	0.0447
453.056	0.0323
453.2583	0.0316
453.4607	0.0285
453.663	0.0414
453.8652	0.0237
454.0675	0.0342
454.2697	0.0364
454.472	0.0334
454.6742	0.0378
454.8764	0.0361
455.0786	0.0313
455.2808	0.0307
455.4829	0.0293
455.6851	0.0345
455.8872	0.0275
456.0893	0.0233
456.2915	0.0271
456.4935	0.0364
456.6956	0.0248
456.8977	0.0287
457.0997	0.0246
457.3018	0.0295
457.5038	0.0359
457.7058	0.0259
457.9078	0.0362
458.1098	0.0277
458.3117	0.0312
458.5137	0.0112
458.7156	0.026
458.9175	0.0239
459.1194	0.023
459.3213	0.0225
459.5232	0.0283
459.725	0.0219
459.9269	0.0218
460.1287	0.0208
460.3305	0.0209
460.5323	0.0208
460.7341	0.0207
460.9359	0.0066
461.1376	0.0221
461.3394	0.0185
461.5411	0.025
461.7428	0.0272
461.9445	0.0148
462.1462	0.0174
462.3479	0.0179
462.5495	0.0213
462.7512	0.0285
462.9528	0.0068
463.1544	0.0139
463.356	0.0118
463.5576	0.0256
463.7592	0.0172
463.9607	0.0166
464.1623	0.0161
464.3638	0.0069
464.5653	0.0197
464.7668	0.0279
464.9683	0.0222
465.1697	0.0181
465.3712	0.0084
465.5726	0.0114
465.7741	0.0212
465.9755	0.0168
466.1769	0.0156
466.3782	0.0093
466.5796	0.0233
466.7809	0.0202
466.9823	0.0187
467.1836	0.0143
467.3849	0.0103
467.5862	0.0118
467.7875	0.009
467.9887	0.012
468.19	0.0205
468.3912	0.0215
468.5924	0.0124
468.7936	0.0084
468.9948	0.0091
469.196	0.0041
469.3972	0.0156
469.5983	0.0132
469.7994	0.0131
470.0006	0.0179
470.2017	0.0153
470.4027	0.0324
470.6038	0.012
470.8049	0.0135
471.0059	0.0221
471.2069	0.0159
471.408	0.0192
471.6089	0.0261
471.8099	0.0191
472.0109	0.0108
472.2119	0.0205
472.4128	0.0042
472.6137	0.0123
472.8146	0.0099
473.0155	0.025
473.2164	0.0159
473.4173	0.0095
473.6181	0.0055
473.819	0.0091
474.0198	0.013
474.2206	0.0062
474.4214	0.0109
474.6222	0.0015
474.8229	0.0104
475.0237	0.014
475.2244	0.0102
475.4251	0.0125
475.6258	0.0129
475.8265	0.0099
476.0272	0.0034
476.2278	0.0128
476.4285	0.0106
476.6291	0.0097
476.8297	0.018
477.0303	0.0042
477.2309	0.0233
477.4315	0.021
477.632	0.0065
477.8326	0.0215
478.0331	0.0163
478.2336	0.0097
478.4341	0.0216
478.6346	0.0113
478.8351	0.0086
479.0355	0.014
479.236	0.0183
479.4364	0.011
479.6368	0.0153
479.8372	0.0079
480.0376	0.01
480.2379	0.0125
480.4383	0.013
480.6386	-0.0028
480.8389	0.0144
481.0392	0.0052
481.2395	0.0258
481.4398	0.0154
481.6401	0.0127
481.8403	0.005
482.0405	0.0128
482.2408	0.0121
482.441	0.0064
482.6411	0.0099
482.8413	0.0026
483.0415	0.0114
483.2416	0.0107
483.4417	0.0144
483.6419	0.0009
483.8419	0.011
484.042	0.0128
484.2421	0.0057
484.4422	0.0124
484.6422	0.0091
484.8422	0.0116
485.0422	0.0103
485.2422	0.0072
485.4422	0.0102
485.6422	0.0059
485.8421	0.0053
486.042	0.018
486.242	0.004
486.4419	0.0108
486.6417	0.0082
486.8416	0.0076
487.0415	0.0046
487.2413	0.0065
487.4411	0.0117
487.641	0.0063
487.8408	0.019
488.0405	0.0167
488.2403	0.0078
488.4401	0.007
488.6398	0.016
488.8395	0.0168
489.0392	0.0183
489.2389	0.0142
489.4386	0.0047
489.6383	0.0157
489.8379	0.007
490.0376	0.0144
490.2372	0.007
490.4368	0.0034
490.6364	0.003
490.836	0.0123
491.0355	-0.006
491.2351	0.0064
491.4346	0.0114
491.6341	0.0012
491.8336	0.0209
492.0331	0.0097
492.2326	0.0186
492.432	0.0148
492.6315	0.0153
492.8309	0.0209
493.0303	0.0105
493.2297	0.0112
493.4291	0.0189
493.6284	0.0128
493.8278	0.0133
494.0271	0.0076
494.2264	0.0076
494.4257	0.015
494.625	0.0129
494.8243	-0.0033
495.0236	0.0107
495.2228	0.0113
495.422	0.0112
495.6213	0.0158
495.8205	0.0049
496.0196	0.0113
496.2188	0.0128
496.418	0.008
496.6171	0.0097
496.8162	0.0043
497.0153	0.0056
497.2144	0.0124
497.4135	0.0106
497.6126	0.006
497.8116	0.0005
498.0107	0.0109
498.2097	0.0126
498.4087	0.0071
498.6077	0.0005
498.8067	0.0131
499.0056	0.0053
499.2046	0.0086
499.4035	0.0098
499.6024	0.0031
499.8013	0.0123
500.0002	0.0062
500.199	0.0188
500.3979	0.0029
500.5967	0.0049
500.7956	0.0103
500.9944	0.0142
501.1932	0.0176
501.3919	0.0158
501.5907	0.0098
501.7895	0.0046
501.9882	0.0133
502.1869	0.0138
502.3856	0.0053
502.5843	0.0083
502.783	0.0045
502.9816	0.0088
503.1803	0.0062
503.3789	0.0174
503.5775	0.0131
503.7761	-0.0007
503.9747	0.0111
504.1732	0.0086
504.3718	0.0117
504.5703	0.0078
504.7689	0.0047
504.9674	0.0093
505.1658	0.0105
505.3643	0.0168
505.5628	0.0066
505.7612	0.0092
505.9597	0.0093
506.1581	0.0095
506.3565	0.008
506.5549	0.007
506.7532	0.0065
506.9516	0.0103
507.1499	0.009
507.3482	0.0088
507.5465	0.0107
507.7448	0.0147
507.9431	0.015
508.1414	0.0119
508.3396	0.0049
508.5379	0.0111
508.7361	0.0073
508.9343	0.0173
509.1325	0.0222
509.3306	0.0094
509.5288	0.0069
509.7269	0.0189
509.9251	0.0158
510.1232	0.0133
510.3213	0.0174
510.5193	0.0053
510.7174	0.0045
510.9154	0.0152
511.1135	0.0009
511.3115	0.008
511.5095	0.0061
511.7075	0.0112
511.9055	0.0199
512.1034	0.0185
512.3014	0.0068
512.4993	0.0148
512.6972	0.0037
512.8951	0.0148
513.093	0.01
513.2908	0.0249
513.4887	0.0104
513.6865	0.0143
513.8844	0.0136
514.0822	0.0186
514.2799	-0.0002
514.4777	0.0055
514.6755	0.0112
514.8732	0.0085
515.0709	0.0178
515.2687	0.0052
515.4664	0.0177
515.664	0.0208
515.8617	0.0162
516.0594	0.0048
516.257	0.0045
516.4546	0.0179
516.6522	0.0138
516.8498	0.0087
517.0474	0.0154
517.2449	0.007
517.4425	0.0082
517.64	0.0227
517.8375	0.0131
518.035	-0.0038
518.2325	0.0097
518.43	0.0118
518.6274	0.0107
518.8249	0.0033
519.0223	0.0218
519.2197	0.0147
519.4171	0.0105
519.6145	0.0147
519.8118	-0.0024
520.0092	0.0042
520.2065	0.0169
520.4038	0.0128
520.6011	0.0178
520.7984	0.0081
520.9956	0.0161
521.1929	0.0143
521.3901	0.0105
521.5874	0.0162
521.7846	-0.0005
521.9818	0.0039
522.1789	0.0145
522.3761	0.0164
522.5732	0.0182
522.7704	-0.0051
522.9675	0.0052
523.1646	0.007
523.3617	0.0171
523.5587	0.0141
523.7558	0.0161
523.9528	0.0079
524.1498	0.0177
524.3468	0.0145
524.5438	0.0223
524.7408	0.0036
524.9378	0.0158
525.1347	0.014
525.3316	0.0129
525.5285	0.0069
525.7254	0.0117
525.9223	0.0151
526.1192	0.0164
526.316	0.0185
526.5129	0.0197
526.7097	0.0031
526.9065	0.0063
527.1033	0.0102
527.3	0.0111
527.4968	0.0136
527.6935	0.0035
527.8903	0.012
528.087	-0.0017
528.2837	0.0163
528.4804	0.012
528.677	0.0181
528.8737	0.0088
529.0703	0.0056
529.2669	0.0107
529.4635	0.0094
529.6601	0.0152
529.8567	0.0028
530.0532	0.0068
530.2498	0.0048
530.4463	0.0048
530.6428	0.0164
530.8393	0.0152
531.0358	0.0122
531.2322	0.0049
531.4287	0.0086
531.6251	0.0038
531.8215	0.0102
532.0179	0.0126
532.2143	0.0027
532.4107	0.0152
532.607	0.0077
532.8034	0.001
532.9997	0.0037
533.196	-0.0038
533.3923	0.0173
533.5886	0.009
533.7848	0.0091
533.9811	0.008
534.1773	0.021
534.3735	0.0086
534.5697	0.0133
534.7659	0.0136
534.9621	0.0075
535.1582	0.0087
535.3544	0.0117
535.5505	0.0131
535.7466	0.014
535.9427	0.0141
536.1387	0.0094
536.3348	0.0166
536.5308	0.0147
536.7269	0.0023
536.9229	0.0132
537.1189	0.0199
537.3148	0.005
537.5108	0.0222
537.7068	0.0127
537.9027	0.0011
538.0986	0.0062
538.2945	0.0079
538.4904	-0.0068
538.6863	0.0089
538.8821	0.0201
539.078	0.0187
539.2738	0.02
539.4696	0.0027
539.6654	0.0127
539.8611	0.0109
540.0569	0.0055
540.2526	0.0154
540.4484	0.004
540.6441	0.0109
540.8398	0.0112
541.0355	-0.0015
541.2311	0.0102
541.4268	0.0166
541.6224	0.0096
541.818	0.0095
542.0136	0.0035
542.2092	0.0175
542.4048	0.0185
542.6003	0.0019
542.7959	0.0117
542.9914	0.012
543.1869	0.0101
543.3824	0.0139
543.5779	0.0163
543.7734	0.017
543.9688	0.0166
544.1642	0.0067
544.3596	0.0084
544.555	0.0086
544.7504	0.0098
544.9458	0.0071
545.1411	0.0128
545.3365	0.0122
545.5318	0.0112
545.7271	0.0143
545.9224	0.0068
546.1177	0.0155
546.3129	0.0031
546.5081	0.0146
546.7034	0.0095
546.8986	0.0117
547.0938	0.0176
547.289	0.0126
547.4841	0.02
547.6793	0.0036
547.8744	0.011
548.0695	0.0077
548.2646	0.0094
548.4597	0.0075
548.6548	0.0188
548.8498	0.0157
549.0448	0.0133
549.2399	0.0121
549.4349	0.0203
549.6298	0.0073
549.8248	0.0108
550.0198	0.0134
550.2147	0.0103
550.4096	0.006
550.6045	0.0122
550.7994	0.0068
550.9943	0.014
551.1892	-0.0039
551.384	0.0078
551.5788	0.0032
551.7737	0.0123
551.9685	0.0086
552.1632	0.0037
552.358	0.005
552.5528	0.0185
552.7475	0.0125
552.9422	0.0178
553.1369	0.0104
553.3316	0.0138
553.5263	0.0219
553.7209	0.0145
553.9156	0.0069
554.1102	0.0148
554.3048	0.0008
554.4994	0.0114
554.694	0.0159
554.8885	0.0158
555.0831	0.0168
555.2776	0.014
555.4721	0.0122
555.6666	0.0039
555.8611	0.0095
556.0555	0.0138
556.25	0.0068
556.4444	0.0089
556.6388	0.0077
556.8332	0.0149
557.0276	0.0133
557.222	0.0086
557.4163	0.0095
557.6107	0.0135
557.805	0.0052
557.9993	0.0104
558.1936	0.003
558.3879	0.0209
558.5821	0.0036
558.7764	0.0029
558.9706	-0.0003
559.1648	0.0151
559.359	0.0048
559.5532	0.0073
559.7473	0.0051
559.9415	0.0055
560.1356	0.0194
560.3297	0.0074
560.5238	0.0173
560.7179	0.0057
560.9119	0.0165
561.106	-0.0016
561.3	0.008
561.494	-0.0001
561.688	0.0152
561.882	0.0008
562.076	0.0139
562.2699	0.02
562.4639	0.0218
562.6578	0.025
562.8517	0.0092
563.0456	0.0154
563.2395	0.0099
563.4333	0.0066
563.6272	0.0117
563.821	0.0133
564.0148	0.016
564.2086	0.0121
564.4024	0.0117
564.5961	0.0099
564.7899	0.0169
564.9836	0.0084
565.1773	0.0215
565.371	0.0051
565.5647	0.0141
565.7584	0.0165
565.952	0.0059
566.1456	0.0026
566.3393	0.0182
566.5329	0.0107
566.7264	0.0106
566.92	0.0061
567.1136	0.0024
567.3071	0.0029
567.5006	0.0027
567.6941	0.0052
567.8876	0.0066
568.0811	0.0152
568.2745	0.0024
568.468	0.0071
568.6614	0.0093
568.8548	0.0091
569.0482	0.0093
569.2416	0.009
569.4349	0.0083
569.6283	0.0076
569.8216	0.0135
570.0149	0.0047
570.2082	0.0121
570.4015	0.0057
570.5947	0.0067
570.788	0.0146
570.9812	0.0068
571.1744	0.0088
571.3676	0.0069
571.5608	0.0064
571.754	0.0107
571.9471	0.0125
572.1402	0.0047
572.3333	0.0108
572.5264	0.007
572.7195	0.0048
572.9126	0.0083
573.1057	0.0091
573.2987	0.0102
573.4917	0.003
573.6847	0.0032
573.8777	0.0151
574.0707	0.0097
574.2636	0.0093
574.4566	0.0081
574.6495	0.0042
574.8424	0.0117
575.0353	0.0104
575.2281	0.0161
575.421	0.0012
575.6138	0.0104
575.8067	0.0087
575.9995	0.0054
576.1923	0.0158
576.385	0.0113
576.5778	0.0134
576.7706	0.0055
576.9633	0.0081
577.156	0.002
577.3487	0.0091
577.5414	0.0068
577.734	0.0056
577.9267	0.0098
578.1193	0.009
578.3119	0.0068
578.5045	0.009
578.6971	0.009
578.8897	0.0062
579.0822	0.0116
579.2747	0.0043
579.4673	0.0065
579.6598	0.012
579.8522	0.0044
580.0447	0.0088
580.2372	0.0116
580.4296	0.0071
580.622	0.0082
580.8144	0.0118
581.0068	0.0076
581.1992	0.0078
581.3915	0.0009
581.5839	0.0064
581.7762	0.0063
581.9685	0.0103
582.1608	0.0089
582.353	0.0071
582.5453	0.009
582.7375	0.0124
582.9298	0.0026
583.122	0.0084
583.3142	0.0089
583.5063	0.0078
583.6985	0.0082
583.8906	0.0045
584.0827	0.0118
584.2749	0.0067
584.4669	0.0067
584.659	0.0118
584.8511	0.0141
585.0431	0.0098
585.2352	0.0086
585.4272	0.0089
585.6192	0.0051
585.8111	0.0073
586.0031	0.0093
586.195	0.0045
586.387	0.0055
586.5789	0.0068
586.7708	0.0128
586.9627	0.0093
587.1545	0.0048
587.3464	0.0088
587.5382	0.0061
587.73	0.0124
587.9218	0.0074
588.1136	0.0033
588.3053	0.0117
588.4971	0.0036
588.6888	0.0047
588.8805	0.0066
589.0722	0.0163
589.2639	0.0065
589.4556	0.0108
589.6472	0.0162
589.8389	0.007
590.0305	0.0103
590.2221	0.0087
590.4137	0.0062
590.6052	0.0019
590.7968	0.0075
590.9883	0.0122
591.1798	0.0072
591.3713	0.0056
591.5628	0.0106
591.7543	0.0061
591.9458	0.0096
592.1372	0.0108
592.3286	0.006
592.52	0.0097
592.7114	0.009
592.9028	0.0137
593.0941	0.0027
593.2855	0.0078
593.4768	0.0175
593.6681	0.0136
593.8594	0.0125
594.0506	0.0039
594.2419	0.0096
594.4331	0.012
594.6244	0.0041
594.8156	0.006
595.0067	-0.0018
595.1979	0.0092
595.3891	0.0083
595.5802	0.018
595.7713	0.0119
595.9624	0.0113
596.1535	0.0138
596.3446	0.0042
596.5357	0.0112
596.7267	0.0064
596.9177	0.0084
597.1087	0.0041
597.2997	0.0085
597.4907	0.0041
597.6817	0.0127
597.8726	0.0131
598.0635	0.0031
598.2544	0.0112
598.4453	0.0074
598.6362	0.0074
598.827	0.0051
599.0179	0.003
599.2087	0.0149
599.3995	0.0106
599.5903	0.0137
599.7811	0.0165
599.9718	0.0042
600.1626	0.0064
600.3533	0.0052
600.544	0.0095
600.7347	0.0042
600.9254	0.0168
601.116	0.0073
601.3067	0.0096
601.4973	0.0132
601.6879	0.0076
601.8785	0.0083
602.0691	0.0106
602.2596	0.0159
602.4502	0.0117
602.6407	0.0085
602.8312	0.0106
603.0217	0.0132
603.2122	0.0097
603.4027	0.0089
603.5931	0.0077
603.7835	0.0123
603.9739	0.007
604.1643	0.0113
604.3547	0.0102
604.5451	0.0174
604.7354	0.0009
604.9257	0.0026
605.116	0.0025
605.3063	0.0123
605.4966	0.0074
605.6869	0.01
605.8771	0.0123
606.0673	0.0084
606.2575	0.0061
606.4477	0.0148
606.6379	0.005
606.8281	0.0023
607.0182	0.0091
607.2083	0.0103
607.3985	0.0084
607.5885	0.0106
607.7786	0.0073
607.9687	0.0147
608.1587	0.0117
608.3488	0.012
608.5388	0.005
608.7288	0.0016
608.9187	0.0155
609.1087	0.0173
609.2986	0.0155
609.4886	0.0064
609.6785	0.0043
609.8684	0.003
610.0582	0.0087
610.2481	-0.0006
610.4379	0.0093
610.6278	0.0111
610.8176	0.012
611.0074	0.0106
611.1971	0.0117
611.3869	0.0095
611.5766	0.005
611.7664	0.012
611.9561	0.0088
612.1458	0.0135
612.3354	0.0121
612.5251	0.0098
612.7147	0.0101
612.9044	0.0049
613.094	0.0145
613.2836	0.0075
613.4731	0.0066
613.6627	0.0115
613.8522	0.0107
614.0417	0.0151
614.2313	0.011
614.4207	0.0088
614.6102	0.0103
614.7997	0.0155
614.9891	0.006
615.1785	0.0002
615.3679	0.0124
615.5573	0.0036
615.7467	0.0034
615.9361	0.0055
616.1254	0.0155
616.3147	0.0056
616.504	0.0086
616.6933	0.0173
616.8826	0.0028
617.0718	0.0124
617.2611	0.0101
617.4503	0.0085
617.6395	0.0106
617.8287	0.0099
618.0179	0.0127
618.207	0.0093
618.3961	0.0119
618.5853	0.0087
618.7744	0.0064
618.9634	0.0197
619.1525	0.0087
619.3416	0.0082
619.5306	0.0147
619.7196	0.0141
619.9086	0.0049
620.0976	0.005
620.2866	0.0142
620.4755	0.0073
620.6645	0.0129
620.8534	0.004
621.0423	0.0134
621.2312	0.0051
621.42	0.0043
621.6089	0.0031
621.7977	0.011
621.9865	0.0101
622.1753	0.0084
622.3641	0.0033
622.5529	0.0007
622.7416	-0.0026
622.9303	0.0044
623.1191	0.0129
623.3078	0.013
623.4964	0.0111
623.6851	0.0132
623.8737	0.0008
624.0624	-0.0088
624.251	0.0084
624.4396	0.0106
624.6282	0.0068
624.8167	0.0037
625.0053	0.0134
625.1938	0.0028
625.3823	0.0163
625.5708	0.0087
625.7593	-0.0004
625.9477	0.0149
626.1362	0.0036
626.3246	0.0027
626.513	0.0204
626.7014	0.0137
626.8898	0.0164
627.0781	0.0163
627.2665	0.0069
627.4548	-0.0038
627.6431	0.0192
627.8314	0.0223
628.0197	0.0188
628.2079	0.0001
628.3962	0.0195
628.5844	0.0114
628.7726	0.0048
628.9608	0.0104
629.1489	0.0235
629.3371	0.0098
629.5252	0.0115
629.7134	-0.0018
629.9015	0.0179
630.0895	-0.0181
630.2776	0.0136
630.4657	0.0144
630.6537	0.0159
630.8417	0.0029
631.0297	0.0086
631.2177	0.0155
631.4057	0.0056
631.5936	0.0024
631.7815	0.0108
631.9695	0.0148
632.1574	0.0084
632.3452	0.0037
632.5331	0.023
632.7209	0.0161
632.9088	0.0201
633.0966	0.0224
633.2844	0.0245
633.4722	0.0124
633.6599	0.0328
633.8477	0.0064
634.0354	0.0144
634.2231	-0.0045
634.4108	0.011
634.5985	0.0144
634.7861	0.0076
634.9738	-0.0017
635.1614	0.0138
635.349	0.0151
635.5366	0.0135
635.7242	0.012
635.9117	0.018
636.0993	0.0166
636.2868	-0.0025
636.4743	0.0171
636.6618	-0.0088
636.8492	0.0211
637.0367	0.0119
637.2241	0.0047
637.4115	0.0245
637.5989	0.0185
637.7863	0.0303
637.9737	0.0037
638.161	0.0264
638.3484	-0.0085
638.5357	-0.0063
638.723	0.0233
638.9103	-0.0112
639.0975	0.0075
639.2848	0.0174
639.472	0.006
639.6592	-0.0022
639.8464	0.0054
640.0336	0.0177
640.2208	0.0013
640.4079	0.0179
640.595	0.0053
640.7821	0.0249
640.9692	0.0149
641.1563	0.0099
641.3434	0.0148
641.5304	0.0284
641.7174	0.0276
641.9044	0.0001
642.0914	0.0448
642.2784	-0.018
642.4653	-0.0039
642.6523	0.0101
642.8392	0.0123
643.0261	0.013
643.213	0.0239
643.3999	0.0236
643.5867	0.0093
643.7735	-0.0056
643.9604	0.0211
644.1472	0.0036
644.3339	0.0036
644.5207	0.0101
644.7075	-0.0011
644.8942	-0.0128
645.0809	0.0049
645.2676	0.0055
645.4543	0.0052
645.6409	0.0094
645.8276	0.0092
646.0142	0.0155
646.2008	0.0115
646.3874	0.0162
646.574	-0.0024
646.7605	0.0195
646.9471	-0.0001
647.1336	-0.0245
647.3201	0.0164
647.5066	0.0081
647.6931	0.0167
647.8795	0.0103
648.0659	0.0059
648.2524	0.003
648.4388	0.0011
648.6252	0.0207
648.8115	0.003
648.9979	0.0183
649.1842	0.009
649.3705	0.0124
649.5568	-0.0043
649.7431	0.0166
649.9294	0.002
650.1156	-0.0194
650.3018	0.007
650.488	0.0197
650.6742	0.0332
650.8604	0.0264
651.0466	0.0088
651.2327	0.007
651.4188	0.0099
651.6049	0.0331
651.791	0.0009
651.9771	0.0255
652.1632	0.0198
652.3492	0.0025
652.5352	0.0323
652.7212	0.0104
652.9072	0.0246
653.0932	0.0106
653.2791	0.0185
653.465	0.0251
653.651	0.0016
653.8369	0.0053
654.0227	0.0111
654.2086	0.0101
654.3944	0.0162
654.5803	0.0036
654.7661	0.0095
654.9519	0.0024
655.1377	0.0001
655.3234	0.0001
655.5092	0.0001
655.6949	0.0001
655.8806	0.0001
656.0663	0.0001
656.2519	0.0001
656.4376	0.0001
656.6232	0.0001
656.8088	0.0001
656.9945	0.0001
657.18	0.0001
657.3656	0.0001
657.5511	0.0001
657.7367	0.0001
657.9222	0.0001
658.1077	0.0001
658.2932	0.0001
658.4786	0.0001
658.6641	0.0001
658.8495	0.0001
659.0349	0.0001
659.2203	0.0001
659.4057	0.0227
659.591	0.315
659.7764	0.0291
659.9617	0.0235
660.147	0.0097
660.3323	0.0208
660.5176	0.0094
660.7028	0.0085
660.888	-0.0077
661.0733	0.0033
661.2585	-0.0008
661.4436	0.0203
661.6288	0.0235
661.8139	-0.0006
661.9991	-0.0179
662.1842	0.0127
662.3693	0.0199
662.5544	0.0193
662.7394	0.0258
662.9245	0.0015
663.1095	-0.0132
663.2945	0.0107
663.4795	0.0134
663.6644	-0.0004
663.8494	0.0212
664.0343	0.0237
664.2193	0.0057
664.4042	0.0038
664.589	0.0151
664.7739	0.0001
664.9587	-0.0156
665.1436	-0.0173
665.3284	0.0259
665.5132	-0.0124
665.698	0.0254
665.8827	0.0256
666.0675	0.0059
666.2522	0.0208
666.4369	0.0044
666.6216	0.0307
666.8063	0.0046
666.9909	0.0101
667.1756	-0.006
667.3602	-0.0053
667.5448	-0.0011
667.7294	0.0215
667.9139	-0.0165
668.0985	0.0053
668.283	-0.0018
668.4675	0.0274
668.652	0.0312
668.8365	0.0206
669.0209	0.022
669.2054	0.0387
669.3898	0.0206
669.5742	0.0255
669.7586	0.0044
669.943	0.0321
670.1273	0.0027
670.3117	0.0259
670.496	0.0199
670.6803	0.0163
670.8646	-0.0104
671.0488	0.0268
671.2331	-0.0061
671.4173	0.0137
671.6015	-0.0054
671.7857	0.0076
671.9699	0.023
672.1541	0.0122
672.3382	0.0179
672.5223	0.0051
672.7064	0.0178
672.8905	0.0004
673.0746	0.019
673.2587	0.025
673.4427	0.0176
673.6267	0.0222
673.8107	0.0268
673.9947	0.0283
674.1787	0.0106
674.3626	-0.0026
674.5465	0.0157
674.7304	0.0051
674.9143	0.0015
675.0982	0.0204
675.2821	0.016
675.4659	0.0061
675.6497	0.0132
675.8335	0.0132
676.0173	-0.0038
676.2011	0.0107
676.3849	0.0283
676.5686	0.0262
676.7523	0.0295
676.936	0.0031
677.1197	0.0035
677.3034	0.0197
677.487	-0.005
677.6706	0.0196
677.8542	0.0111
678.0378	0.0039
678.2214	0.0078
678.405	0.0111
678.5885	0.0183
678.772	0.0186
678.9555	0.0043
679.139	0.0234
679.3225	0.0147
679.5059	0.0106
679.6894	0.0084
679.8728	0.0051
680.0562	0.002
680.2395	0.0063
680.4229	-0.0038
680.6062	-0.0003
680.7896	-0.0057
680.9729	0.016
681.1562	-0.0115
681.3394	-0.0019
681.5227	-0.001
681.7059	0.0156
681.8891	0.0162
682.0723	0.0131
682.2555	0.0103
682.4387	0.0179
682.6218	0.016
682.805	0.0219
682.9881	0.0353
683.1712	0.0276
683.3542	0.0311
683.5373	-0.0052
683.7203	0.018
683.9034	0.0093
684.0864	0.0093
684.2694	0.0005
684.4523	0.0162
684.6353	0.0106
684.8182	-0.0047
685.0011	0.0222
685.184	0.0143
685.3669	0.0253
685.5498	-0.0135
685.7326	0.0026
685.9154	-0.0005
686.0982	0.01
686.281	0.0085
686.4638	0.001
686.6465	0.0074
686.8293	-0.0018
687.012	0.0263
687.1947	0.0044
687.3774	0.004
687.56	0.015
687.7427	0.0206
687.9253	-0.0273
688.1079	0.0225
688.2905	-0.0004
688.4731	0.0295
688.6556	0.0277
688.8382	-0.0232
689.0207	0.0218
689.2032	0.0195
689.3857	0.0147
689.5681	-0.0042
689.7506	0.0439
689.933	0.0008
690.1154	0.0137
690.2978	0.0201
690.4802	0.0142
690.6626	-0.0055
690.8449	0.0137
691.0272	0.0035
691.2095	-0.0174
691.3918	0.0072
691.5741	0.001
691.7563	0.0148
691.9386	0.0315
692.1208	0.0138
692.303	0.0147
692.4852	0.0158
692.6673	0.0217
692.8495	0.0038
693.0316	0.0187
693.2137	0.0204
693.3958	0.0157
693.5778	-0.0019
693.7599	0.0177
693.9419	-0.0077
694.1239	0.0106
694.3059	0.0129
694.4879	0.0171
694.6699	0.0225
694.8518	0.0118
695.0337	0.0026
695.2157	0.0412
695.3975	0.0044
695.5794	0.0013
695.7613	-0.0006
695.9431	0.0006
696.1249	0.0415
696.3067	-0.0022
696.4885	0.0177
696.6703	0.0082
696.852	0.0092
697.0337	0.0257
697.2154	0.0232
697.3971	0.0211
697.5788	0.0165
697.7605	0.004
697.9421	0.0174
698.1237	0.0271
698.3053	0.0028
698.4869	0.0101
698.6685	-0.001
698.85	0.0302
699.0315	-0.0106
699.213	0.0398
699.3945	-0.0095
699.576	0.0053
699.7575	0.0215
699.9389	-0.0056
700.1203	0.0157
700.3017	0.0034
700.4831	0.014
700.6645	0.0334
700.8458	0.0022
701.0271	0.021
701.2084	0.0198
701.3897	0.0096
701.571	0.0006
701.7523	0.0232
701.9335	0.028
702.1147	0.0136
702.2959	0.0104
702.4771	0.0162
702.6583	0.0005
702.8394	-0.0137
703.0205	0.0306
703.2016	-0.0143
703.3827	-0.0168
703.5638	0.0075
703.7449	0.0366
703.9259	0.0086
704.1069	0.0019
704.2879	-0.0029
704.4689	0.0191
704.6499	0.0058
704.8308	0.0087
705.0117	0.0096
705.1927	-0.0031
705.3735	0.0144
705.5544	0.0025
705.7353	0.0302
705.9161	-0.0002
706.0969	0.011
706.2777	0.009
706.4585	0.0184
706.6393	0.0293
706.82	0.0171
707.0007	0.0003
707.1815	-0.001
707.3621	0.04
707.5428	0.0155
707.7235	0.0277
707.9041	0.0415
708.0847	0.0096
708.2653	0.0537
708.4459	0.0153
708.6265	-0.0274
708.807	0.0366
708.9875	0.0139
709.168	0.0073
709.3485	0.027
709.529	0.022
709.7095	-0.0076
709.8899	0.0025
710.0703	0.0182
710.2507	0.0144
710.4311	-0.0189
710.6115	0.0221
710.7918	0.0258
710.9721	0.004
711.1524	-0.006
711.3327	-0.0216
711.513	0.0177
711.6932	0.0308
711.8735	0.0274
712.0537	-0.007
712.2339	-0.0046
712.4141	0.051
712.5942	0.012
712.7744	0.0215
712.9545	0.0086
713.1346	0.024
713.3147	0.0098
713.4947	0.0147
713.6748	0.0023
713.8548	0.0343
714.0348	0.0209
714.2148	0.0198
714.3948	0.0126
714.5748	0.0293
714.7547	0.0182
714.9346	0.0238
715.1145	0.0147
715.2944	-0.0129
715.4743	0.0337
715.6541	-0.0344
715.834	0.045
716.0138	0.0257
716.1936	-0.0097
716.3733	0.012
716.5531	0.014
716.7328	0.0519
716.9126	0.0342
717.0923	0.0052
717.2719	0.0113
717.4516	0.0078
717.6312	0.0078
717.8109	0.0218
717.9905	0.0162
718.1701	0.0197
718.3496	0.022
718.5292	0.004
718.7087	-0.0116
718.8882	0.0143
719.0677	0.0239
719.2472	-0.0016
719.4267	0.0088
719.6061	0.0002
719.7856	0.0483
719.965	0.0236
720.1443	-0.0021
720.3237	-0.0107
720.5031	0.0087
720.6824	0.0252
720.8617	-0.0031
721.041	0.0282
721.2203	0.0031
721.3995	0.006
721.5788	0.0257
721.758	-0.0022
721.9372	0.0129
722.1164	0.002
722.2956	-0.0084
722.4747	0.0227
722.6538	0.0051
722.8329	0.0205
723.012	0.0194
723.1911	-0.0196
723.3702	0.016
723.5492	0.0098
723.7282	0.0024
723.9072	0.0132
724.0862	-0.0142
724.2652	0.0028
724.4441	-0.0026
724.623	0.0221
724.8019	-0.0111
724.9808	0.0043
725.1597	0.0232
725.3385	0.0074
725.5174	0.0108
725.6962	0.0226
725.875	0.0264
726.0538	0.0229
726.2325	0.0175
726.4112	-0.0087
726.59	-0.0252
726.7687	0.0048
726.9474	0.0146
727.126	0.0157
727.3047	0.0106
727.4833	0.0198
727.6619	0.0067
727.8405	0.005
728.0191	0.0332
728.1976	0.0059
728.3762	0.0401
728.5547	-0.0059
728.7332	0.0103
728.9116	0.0112
729.0901	0.0104
729.2686	0.0104
729.447	0.0072
729.6254	0.0145
729.8038	0.0081
729.9821	-0.0177
730.1605	0.0179
730.3388	0.0178
730.5171	0.0216
730.6954	-0.0016
730.8737	-0.0013
731.0519	0.006
731.2302	0.0149
731.4084	0.0209
731.5866	0.001
731.7648	0.017
731.9429	0.0137
732.1211	-0.0072
732.2992	0.001
732.4773	0.0247
732.6554	0.0146
732.8335	0.0149
733.0115	0.0119
733.1896	0.0082
733.3676	0.035
733.5456	0.0126
733.7235	0.0078
733.9015	0.0065
734.0794	0.0103
734.2574	-0.0127
734.4353	0.0326
734.6131	0.0237
734.791	0.0217
734.9689	0.0079
735.1467	-0.0086
735.3245	0.0353
735.5023	0.0136
735.68	0.0079
735.8578	0.0127
736.0355	0.0211
736.2132	0.0188
736.3909	0.0278
736.5686	0.0089
736.7463	-0.0095
736.9239	0.0267
737.1015	-0.0019
737.2791	0.0018
737.4567	0.0093
737.6343	0.0166
737.8118	0.0489
737.9894	-0.0071
738.1669	-0.0126
738.3444	0.048
738.5218	0.0063
738.6993	0.0294
738.8767	0.0285
739.0541	0.0074
739.2315	0.0039
739.4089	0.024
739.5863	0.0233
739.7636	0.0146
739.9409	-0.0023
740.1182	0.0049
740.2955	0.0193
740.4728	0.0037
740.65	0.0083
740.8272	0.0356
741.0044	-0.0101
741.1816	0.02
741.3588	-0.0002
741.5359	0.0068
741.7131	0.0069
741.8902	-0.0059
742.0673	-0.0092
742.2444	0.0375
742.4214	0.0184
742.5985	0.0028
742.7755	0.0211
742.9525	0.0008
743.1295	-0.0199
743.3064	0.0101
743.4834	0.0243
743.6603	0.0351
743.8372	-0.0264
744.0141	0.0339
744.191	0.0059
744.3678	-0.0272
744.5446	0.0177
744.7215	0.0083
744.8982	0.0392
745.075	0.0845
745.2518	0.0183
745.4285	0.0304
745.6052	-0.0414
745.7819	0.0247
745.9586	-0.01
746.1353	0.0159
746.3119	0.0229
746.4885	0.0522
746.6651	0.016
746.8417	-0.0199
747.0183	0.048
747.1948	0.0125
747.3714	0.035
747.5479	0.0231
747.7244	0.0308
747.9008	-0.0096
748.0773	0.026
748.2537	0.0126
748.4301	0.0237
748.6065	-0.0239
748.7829	-0.0343
748.9593	-0.0111
749.1356	0.0279
749.3119	0.0373
749.4882	0.013
749.6645	0.0078
749.8408	0.0154
750.017	0.0221
750.1933	-0.0102
750.3695	0.0022
750.5457	0.0129
750.7218	0.0005
750.898	0.0012
751.0741	0.0076
751.2502	0.0181
751.4263	0.0101
751.6024	0.0137
751.7784	-0.0012
751.9545	0.0054
752.1305	0.0361
752.3065	0.0065
752.4825	-0.0018
752.6584	-0.0048
752.8344	0.0091
753.0103	-0.0055
753.1862	0.0266
753.3621	0.0048
753.5379	-0.0011
753.7138	0.0329
753.8896	0.0181
754.0654	-0.0081
754.2412	0.0146
754.417	0.038
754.5927	0.0144
754.7685	-0.0092
754.9442	0.0072
755.1199	0.0256
755.2956	0.0261
755.4712	0.0083
755.6469	0.0089
755.8225	0.0356
755.9981	0.0061
756.1736	0.0134
756.3492	-0.0023
756.5248	0.0189
756.7003	0.0183
756.8758	0.007
757.0513	-0.012
757.2267	0.0073
757.4022	0.019
757.5776	0.0051
757.753	0.0191
757.9284	0.0179
758.1038	0.0181
758.2791	0.0214
758.4545	-0.0176
758.6298	-0.0004
758.8051	0.0222
758.9803	0.0013
759.1556	0.007
759.3308	0.0151
759.506	0.0144
759.6812	0.0006
759.8564	-0.0038
760.0316	0.0173
760.2067	0.0128
760.3819	-0.0009
760.557	-0.0055
760.732	0.0022
760.9071	0.023
761.0821	-0.008
761.2572	0.0194
761.4322	-0.0141
761.6072	0.0137
761.7821	-0.0438
761.9571	0.0256
762.132	-0.007
762.3069	0.0096
762.4818	0.0468
762.6567	0.0166
762.8316	0.0352
763.0064	0.0045
763.1812	0.013
763.356	-0.004
763.5308	0.0096
763.7055	0.0131
763.8803	0.0072
764.055	-0.0074
764.2297	-0.0048
764.4044	0.015
764.579	0.0134
764.7537	0.0147
764.9283	0.0246
765.1029	0.0247
765.2775	0.0046
765.4521	-0.0079
765.6266	0.0125
765.8011	0.0264
765.9756	0.0071
766.1501	0.0007
766.3246	0.0178
766.4991	-0.0007
766.6735	0.0476
766.8479	0.0111
767.0223	-0.0089
767.1967	0.0296
767.371	0.0123
767.5454	0.0233
767.7197	0.0338
767.894	0.0243
768.0683	0.028
768.2425	0.0292
768.4168	0.0069
768.591	0.0126
768.7652	-0.0117
768.9394	0.0002
769.1135	-0.0096
769.2877	0.0169
769.4618	0.0262
769.6359	0.0117
769.81	0.0225
769.984	0.0136
770.1581	0.004
770.3321	0.0308
770.5061	0.023
770.6801	0.0182
770.8541	0.0037
771.028	0.0434
771.202	0.0203
771.3759	0.0144
771.5498	0.016
771.7236	0.012
771.8975	0.0515
772.0713	0.043
772.2451	-0.006
772.4189	0.0502
772.5927	-0.0252
772.7665	-0.013
772.9402	0.019
773.1139	0.0081
773.2876	-0.0002
773.4613	0.0277
773.635	0.0325
773.8086	0.0355
773.9822	0.0405
774.1558	0.0477
774.3294	0.017
774.503	0.035
774.6765	0.0501
774.8501	0.0087
775.0236	0.0526
775.1971	-0.0064
775.3705	0.0091
775.544	-0.0624
775.7174	0.0354
775.8908	0.0156
776.0642	-0.0093
776.2376	0.0788
776.4109	0.0763
776.5843	0.0212
776.7576	0.0536
776.9309	0.079
777.1041	-0.0004
777.2774	0.0114
777.4506	0.0109
777.6238	-0.0012
777.797	0.0295
777.9702	0.0246
778.1434	-0.0015
778.3165	0.0173
778.4896	-0.04
778.6627	0.0336
778.8358	0.0009
779.0089	-0.019
779.1819	0.0257
779.3549	0.0217
779.5279	-0.0181
779.7009	0.0566
779.8739	0.0685
780.0468	-0.0052
780.2197	-0.0016
780.3926	0.0123
780.5655	0.03
780.7384	0.0003
780.9112	0.0339
781.0841	0.0345
781.2569	0.0315
781.4297	-0.0034
781.6024	0.0265
781.7752	0.0321
781.9479	0.0421
782.1206	0.0378
782.2933	-0.007
782.466	0.0138
782.6386	0.009
782.8113	0.005
782.9839	-0.0055
783.1565	0.0103
783.329	0.0347
783.5016	0.0107
783.6741	0.0274
783.8466	0.063
784.0191	0.0221
784.1916	-0.0128
784.3641	-0.0594
784.5365	-0.0026
784.7089	0.0158
784.8813	0.0769
785.0537	0.0243
785.2261	0.0343
785.3984	0.0088
785.5707	-0.0032
785.743	0.0444
785.9153	0.0464
786.0876	-0.0064
786.2598	0.0461
786.432	0.0019
786.6042	0.0339
786.7764	-0.0289
786.9486	-0.0212
787.1207	0.0684
787.2928	0.034
787.4649	-0.0248
787.637	0.0063
787.8091	-0.0101
787.9811	0.0259
788.1532	0.0374
788.3252	0.0003
788.4972	0.0172
788.6691	0.0269
788.8411	0.0046
789.013	0.0242
789.1849	-0.0031
789.3568	0.0036
789.5287	0.0624
789.7005	-0.0392
789.8723	-0.0023
790.0442	-0.0302
790.2159	-0.0096
790.3877	0.0575
790.5595	0.0548
790.7312	-0.0122
790.9029	0.0249
791.0746	0.0029
791.2463	-0.055
791.4179	-0.0088
791.5896	0.0187
791.7612	0.1066
791.9328	0.0096
792.1044	0.0229
792.2759	0.0007
792.4474	-0.0318
792.619	-0.0279
792.7905	0.0193
792.9619	0.075
793.1334	0.1258
793.3048	0.1325
793.4762	0.0265
793.6476	-0.0181
793.819	0.016
793.9904	-0.0169
794.1617	-0.0095
794.333	0.0003
794.5043	0.078
794.6756	0.0027
794.8469	0.009
795.0181	-0.0028
795.1893	0.0188
795.3605	0.0447
795.5317	-0.0011
795.7029	0.0081
795.874	0.0005
796.0452	0.0723
796.2163	0.0574
796.3873	0.0482
796.5584	0.0576
796.7294	0.013
796.9005	0.0173
797.0715	0.0354
797.2425	0.0735
797.4134	0.1069
797.5844	0.0677
797.7553	-0.0093
797.9262	0.1035
798.0971	0.0241
798.2679	0.018
798.4388	0.0371
798.6096	0.0077
798.7804	0.0838
798.9512	0.0501
799.122	-0.0169
799.2927	0.077
799.4635	-0.069
799.6342	-0.0401
799.8049	0.0007
799.9755	-0.0349
800.1462	0.0453
800.3168	0.0237
800.4874	-0.0966
800.658	0.0894
800.8286	0.0844
800.9991	0.0269
801.1696	0.0023
801.3402	0.0218
801.5106	-0.0687
801.6811	0.048
801.8516	0.0257
802.022	0.0068
802.1924	0.1639
802.3628	0.0254
802.5332	0.0458
802.7035	0.1083
802.8739	-0.0771
803.0442	0.0548
803.2145	0.0495
803.3847	-0.0068
803.555	0.0852
803.7252	0.048
803.8954	-0.0933
804.0656	0.0355
804.2358	0.0084
804.4059	0.0978
804.5761	0.0513
804.7462	0.0205
804.9163	0.0105
805.0864	-0.0161
805.2564	0.0225
805.4264	-0.0231
805.5965	0.033
805.7665	-0.0426
805.9364	0.0151
806.1064	-0.004
806.2763	0.0432
806.4462	0.0273
806.6161	0.0212
806.786	0.0549
806.9559	-0.0194
807.1257	0.0545
807.2955	-0.0453
807.4653	0.0539
807.6351	0.061
807.8048	0.0438
807.9746	0.0508
808.1443	0.0244
808.314	0.0663
808.4837	0.0509
808.6533	-0.0366
808.8229	0.0008
808.9926	0.0077
809.1622	0.003
809.3317	-0.0338
809.5013	0.104
809.6708	0.0094
809.8403	-0.0134
810.0098	-0.0265
810.1793	-0.0112
810.3488	0.0089
810.5182	0.1035
810.6876	0.0591
810.857	0.0148
811.0264	-0.0302
811.1958	0.1191
811.3651	0.1109
811.5344	0.1127
811.7037	0.0229
811.873	0.0621
812.0422	-0.1398
812.2115	0.018
812.3807	0.1004
812.5499	0.0659
812.7191	0.0372
812.8882	0.1875
813.0574	-0.0384
813.2265	0.1423
813.3956	0.0182
813.5646	0.0418
813.7337	0.0904
813.9027	-0.0811
814.0718	0.0094
814.2407	0.0631
814.4097	0.1341
814.5787	0.0754
814.7476	0.0112
814.9165	0.044
815.0854	0.0049
815.2543	0.0014
815.4232	0.0601
815.592	0.0275
815.7608	-0.0652
815.9296	-0.1177
816.0984	0.1943
816.2671	-0.1766
816.4359	0.2051
816.6046	0.137
816.7733	-0.062
816.942	-0.0219
817.1106	0.0683
817.2793	-0.0371
817.4479	-0.0392
817.6165	0.0067
817.785	0.0293
817.9536	-0.0232
818.1221	-0.0029
818.2906	-0.1049
818.4591	0.0195
818.6276	0.0346
818.7961	-0.0464
818.9645	0.1456
819.1329	0.2749
819.3013	-0.0378
819.4697	-0.1406
819.638	0.1398
819.8064	0.0543
819.9747	0.1225
820.143	-0.1216
820.3113	-0.0013
820.4795	0.0538
820.6477	0.0714
820.816	0.0971
820.9842	0.0993
821.1523	-0.03
821.3205	-0.0049
821.4886	-0.04
821.6567	-0.0334
821.8248	0.1131
821.9929	-0.0976
822.1609	-0.075
822.329	-0.0158
822.497	0.0456
822.665	-0.0778
822.833	0.0501
823.0009	0.0313
823.1688	0.0666
823.3367	-0.2153
823.5046	-0.0275
823.6725	0.0506
823.8404	-0.0558
824.0082	0.0351
824.176	-0.0216
824.3438	0.3306
824.5116	-0.0231
824.6793	0.1423
824.847	0.1484
825.0147	0.1449
825.1824	0.1516
825.3501	0.0343
825.5177	-0.0444
825.6854	-0.012
825.853	0.0911
826.0206	0.0131
826.1881	0.0606
826.3557	0.4163
826.5232	0.1369
826.6907	-0.0348
826.8582	-0.1235
827.0257	0.188
827.1931	0.0937
827.3605	-0.0586
827.528	-0.0417
827.6953	-0.2379
827.8627	-0.0275
828.03	0.0752
828.1974	-0.0834
828.3647	0.1643
828.532	-0.0201
828.6992	0.0592
828.8665	0.0336
829.0337	0.0176
829.2009	-0.1631
829.3681	-0.0873
829.5352	-0.1851
829.7024	0.0297
829.8695	0.0463
830.0366	0.1121
830.2037	0.2353
830.3707	0.0274
830.5378	0.1319
830.7048	-0.1394
830.8718	0.063
831.0388	-0.084
831.2057	-0.0498
831.3727	0.3571
831.5396	0.1393
831.7065	-0.9652
831.8734	0.4808
832.0402	0.2123
832.2071	-0
832.3739	1.0979
832.5407	-1.1883
832.7075	-0.4685
832.8742	0.3753
833.041	0.2846
833.2077	0.4518
833.3744	-0.0795
833.541	0.2078
833.7077	0.0572
833.8743	0.0758
834.0409	0.2425
834.2075	0.0566
834.3741	-0.1082
834.5407	-0.294
834.7072	0.058
834.8737	0.1582
835.0402	0.0945
835.2067	-0.0863
835.3731	-0.0575
835.5395	0.0134
835.706	0.0729
835.8723	-0.0253
836.0387	0.6964
836.2051	1.428
836.3714	0.3409
836.5377	0.1138
836.704	0.3469
836.8703	-0.1373
837.0365	0.0348
837.2027	0.2319
837.3689	0.0459
837.5351	0.1244
837.7013	0.0711
837.8674	-0.4879
838.0335	0.1897
838.1997	-0.1574
838.3657	-0
838.5318	-0.5814
838.6978	0.3094
838.8639	-0.4211
839.0299	0.018
839.1958	0.396
839.3618	-0
839.5277	-0.0559
839.6937	0.2387
839.8596	0.0286
840.0254	0.1684
840.1913	0.4876
840.3571	0.2776
840.523	-0
840.6888	0.4173
840.8545	-0
841.0203	0.3318
841.186	0.1657
841.3517	-0.2713
841.5174	0.1535
841.6831	-0.0279
841.8488	-0.0434
842.0144	0.6492
842.18	0.2341
842.3456	-0.6078
842.5112	-0.9279
842.6767	0.1103
842.8422	-0
843.0077	-0.0717
843.1732	0.0348
843.3387	0.1706
843.5042	0.1589
843.6696	0.7571
843.835	0.3347
844.0004	-0.3485
844.1657	-0
844.3311	-0.1691
844.4964	-0.2125
844.6617	0.27
844.827	-0
844.9923	0.5373
845.1575	-0
845.3227	0.0554
845.4879	-0.3418
845.6531	0.3764
845.8183	0.3552
845.9834	-0
846.1485	0.2989
846.3136	-0.3544
846.4787	-0
846.6438	-0.3383
846.8088	0.1078
846.9738	-0
847.1388	0.648
847.3038	0.258
847.4687	-0
847.6337	0.3257
847.7986	-0.2627
847.9635	-0
848.1284	1.0905
848.2932	0.0207
848.458	-0
848.6228	0.4841
848.7876	0.2849
848.9524	0.0538
849.1172	-1.4382
849.2819	-0
849.4466	0.5124
849.6113	-0.0034
849.7759	0.2034
849.9406	-0.1932
850.1052	-1.1015
850.2698	-0.0378
850.4344	-0.8103
850.599	0.269
850.7635	0.0808
850.928	-0.1683
851.0925	0.6348
851.257	-0.0185
851.4215	0.1431
851.5859	0.0406
851.7503	0.2681
851.9147	1.1639
852.0791	0.3818
852.2434	-0
852.4078	-0
852.5721	-0
852.7364	0.0169
852.9007	0.1902
853.0649	0.6241
853.2291	0.6682
853.3934	-0
853.5575	-0.1884
853.7217	0.5473
853.8859	-0.2541
854.05	0.2909
854.2141	-0
854.3782	0.1292
854.5423	-0.427
854.7063	-0.0307
854.8703	0.1582
855.0343	0.005
855.1983	-0.0179
855.3623	0.0135
855.5262	-0
855.6901	0.1921
855.854	0.1766
856.0179	0.3615
856.1818	0.6949
856.3456	0.566
856.5094	-0
856.6732	-0.5983
856.837	-1.0028
857.0008	-0
857.1645	0.3888
857.3282	-0.3924
857.4919	0.7907
857.6556	0.4
857.8192	-0.2154
857.9828	-0.2709
858.1465	0.021
858.31	-0
858.4736	-0.6544
858.6372	-0
858.8007	-0.2535
858.9642	0.1795
859.1277	0.9773
859.2911	-0.1498
859.4546	-1.5563
859.618	0.5529
859.7814	0.1121
859.9448	-0
860.1081	-0.5799
860.2715	-1.5958
860.4348	-0.1271
860.5981	0.1841
860.7614	0.0638
860.9246	0.38
861.0879	-0.0857
861.2511	-0.3091
861.4143	-0
861.5774	-0.2221
861.7406	-0
861.9037	-0
862.0668	-0.992
862.2299	-0
862.393	1.2153
862.556	-0
862.7191	-0.2223
862.8821	0.2946
863.0451	-0.2763
863.208	-0.48
863.371	-0.7196
863.5339	0.2107
863.6968	-0
863.8597	-0
864.0225	-0
864.1854	-0
864.3482	-0.8183
864.511	0.7299
864.6737	-0.0185
864.8365	0.7411
864.9992	-0
865.1619	-0
865.3246	-0.9823
865.4873	-0.0744
865.65	-0
865.8126	0.1328
865.9752	-0.1776
866.1378	0.3059
866.3004	0.3422
866.4629	-1.5958
866.6254	-0
866.7879	0.4104
866.9504	0.1726
867.1129	0.1639
867.2753	-0.0459
867.4377	-0.0352
867.6001	-0.58
867.7625	-0.0837
867.9249	-0
868.0872	-0
868.2495	0.6944
868.4118	-0
868.5741	-0
868.7363	-0
868.8986	-0.6431
869.0608	-0
869.223	0.2299
869.3851	-0
869.5473	-0.1155
869.7094	0.0578
869.8715	-0.9642
870.0336	-0.0437
870.1957	-0
870.3577	0.7907
870.5197	-0.2944
870.6817	-1.1986
870.8437	-0
871.0057	-0
871.1676	-0.0258
871.3295	-0
871.4914	-0
871.6533	-0.4521
871.8151	0.2551
871.977	-0.3984
872.1388	0.5137
872.3006	-0.3474
872.4623	-0.9219
872.6241	-0
872.7858	-0
872.9475	-0.0755
873.1092	0.5397
873.2709	0.2519
873.4325	-1.0792
873.5941	0.4327
873.7557	-0
873.9173	-0.2102
874.0789	-0.0104
874.2404	-0
874.4019	0.2086
874.5634	-0
874.7249	0.471
874.8863	0.1618
875.0478	-0.2932
875.2092	0.3598
875.3706	-0.0134
875.5319	-0.0337
875.6933	0.0383
875.8546	0.5618
876.0159	0.6735
876.1772	-0
876.3385	-0
876.4997	0.1192
876.6609	-0
876.8221	-0
876.9833	-0
877.1445	0.2241
877.3056	-0
877.4667	-0.1654
877.6278	-0
877.7889	-0.2936
877.9499	0.4716
878.111	-0.1372
878.272	-0
878.433	-0.0588
878.5939	-0
878.7549	-0
878.9158	-0
879.0767	-0
879.2376	-0
879.3984	0.5637
879.5593	0.2922
879.7201	-0
879.8809	0.6176
880.0417	0.0063
880.2024	0.8993
880.3632	-0
880.5239	-0.1818
880.6846	-0
880.8452	-0.1195
881.0059	-0
881.1665	-0
881.3271	0.0579
881.4877	0.6162
881.6483	-1.2637
881.8088	-0.7629
881.9693	-0
882.1298	-0
882.2903	-0
