Data from D4ACN5uM420nmA_Absorbance_14-37-08-847.txt Node
Date: Fri Feb 21 14:37:08 GMT 2025
User: LASERRRRR
Spectrometer: FLMT03099
Trigger mode: 0
Integration Time (sec): 1.500000E-2
Scans to average: 1
Electric dark correction enabled: true
Nonlinearity correction enabled: false
Boxcar width: 0
XAxis mode: Wavelengths
Number of Pixels in Spectrum: 3648
>>>>>Begin Spectral Data<<<<<
179.3399	0.4276
179.5586	0.4276
179.7771	0.4276
179.9957	0.4507
180.2143	-0
180.4329	0.3185
180.6514	-0
180.8699	-0.1061
181.0885	-0
181.307	0.1062
181.5255	0.1378
181.744	-0
181.9625	0.2362
182.181	1.179
182.3994	-0.4353
182.6179	-0.1774
182.8363	0.7505
183.0547	-0.1214
183.2732	0.0358
183.4916	0.1917
183.71	0.1918
183.9284	0.2696
184.1467	0.1474
184.3651	-0.057
184.5835	0.4215
184.8018	0.1395
185.0201	0.0532
185.2385	0.0791
185.4568	-0.004
185.6751	0.2108
185.8934	0.0526
186.1117	-0.0652
186.3299	0.151
186.5482	0.2101
186.7664	0.449
186.9847	0.265
187.2029	0.3049
187.4211	0.0252
187.6393	0.4557
187.8575	0.352
188.0757	0.2935
188.2939	0.0393
188.512	0.4098
188.7302	0.1441
188.9483	0.0452
189.1665	0.4922
189.3846	0.3204
189.6027	0.1052
189.8208	0.3212
190.0389	0.154
190.257	-0.0008
190.475	0.22
190.6931	0.024
190.9111	-0.1047
191.1292	0.199
191.3472	0.2138
191.5652	0.2941
191.7832	0.1745
192.0012	0.2367
192.2192	0.097
192.4371	0.1796
192.6551	0.1423
192.873	0.1893
193.091	0.1443
193.3089	0.2407
193.5268	0.2961
193.7447	0.1498
193.9626	0.1884
194.1805	0.1676
194.3984	0.1877
194.6162	0.1488
194.8341	0.2496
195.0519	0.3053
195.2697	0.2044
195.4875	0.334
195.7054	0.2676
195.9231	0.2202
196.1409	0.3149
196.3587	0.3535
196.5765	0.3331
196.7942	0.316
197.012	0.3218
197.2297	0.307
197.4474	0.4778
197.6651	0.3415
197.8828	0.3607
198.1005	0.3907
198.3182	0.3812
198.5358	0.3693
198.7535	0.4454
198.9711	0.4224
199.1888	0.331
199.4064	0.4434
199.624	0.3683
199.8416	0.3971
200.0592	0.3725
200.2767	0.4179
200.4943	0.3921
200.7119	0.3851
200.9294	0.3968
201.1469	0.3805
201.3645	0.4509
201.582	0.4077
201.7995	0.4452
202.017	0.4288
202.2344	0.4086
202.4519	0.3776
202.6694	0.3893
202.8868	0.393
203.1042	0.4142
203.3217	0.3942
203.5391	0.4043
203.7565	0.3936
203.9739	0.3556
204.1913	0.3635
204.4086	0.3558
204.626	0.3753
204.8433	0.3691
205.0607	0.374
205.278	0.3479
205.4953	0.3181
205.7126	0.3351
205.9299	0.3151
206.1472	0.3537
206.3644	0.3583
206.5817	0.3299
206.7989	0.3318
207.0162	0.3245
207.2334	0.3105
207.4506	0.3251
207.6678	0.3057
207.885	0.3237
208.1022	0.3068
208.3194	0.2864
208.5365	0.3404
208.7537	0.2832
208.9708	0.2631
209.1879	0.2925
209.405	0.2816
209.6222	0.2698
209.8392	0.2999
210.0563	0.2557
210.2734	0.2726
210.4905	0.2757
210.7075	0.2736
210.9245	0.2674
211.1416	0.2795
211.3586	0.2579
211.5756	0.2555
211.7926	0.2572
212.0096	0.2643
212.2265	0.2478
212.4435	0.2534
212.6604	0.2469
212.8774	0.2349
213.0943	0.2585
213.3112	0.2423
213.5281	0.2361
213.745	0.2378
213.9619	0.2453
214.1788	0.2612
214.3956	0.2384
214.6125	0.2405
214.8293	0.2548
215.0461	0.2369
215.2629	0.2482
215.4798	0.2382
215.6965	0.2489
215.9133	0.23
216.1301	0.2408
216.3469	0.2396
216.5636	0.2324
216.7803	0.251
216.9971	0.2447
217.2138	0.2538
217.4305	0.258
217.6472	0.2307
217.8639	0.244
218.0805	0.2426
218.2972	0.2268
218.5138	0.2426
218.7305	0.2438
218.9471	0.239
219.1637	0.2677
219.3803	0.2618
219.5969	0.2522
219.8135	0.2559
220.0301	0.2551
220.2466	0.2529
220.4632	0.2511
220.6797	0.254
220.8962	0.2541
221.1127	0.2665
221.3292	0.255
221.5457	0.2659
221.7622	0.2643
221.9787	0.2712
222.1951	0.267
222.4116	0.2608
222.628	0.286
222.8444	0.2616
223.0608	0.2675
223.2772	0.2778
223.4936	0.2776
223.71	0.2819
223.9264	0.2948
224.1427	0.2897
224.3591	0.2842
224.5754	0.2914
224.7917	0.2901
225.008	0.2794
225.2243	0.2994
225.4406	0.2879
225.6569	0.2956
225.8732	0.2999
226.0894	0.3031
226.3057	0.3039
226.5219	0.3158
226.7381	0.313
226.9543	0.3173
227.1705	0.3184
227.3867	0.3193
227.6029	0.3227
227.8191	0.3152
228.0352	0.3373
228.2513	0.3498
228.4675	0.3439
228.6836	0.3479
228.8997	0.341
229.1158	0.3644
229.3319	0.3578
229.548	0.358
229.764	0.3593
229.9801	0.3674
230.1961	0.3646
230.4121	0.3616
230.6282	0.3894
230.8442	0.3914
231.0602	0.3921
231.2761	0.3805
231.4921	0.3897
231.7081	0.3972
231.924	0.3995
232.14	0.3973
232.3559	0.4182
232.5718	0.4121
232.7877	0.42
233.0036	0.4085
233.2195	0.4208
233.4353	0.425
233.6512	0.4316
233.867	0.4368
234.0829	0.4213
234.2987	0.4285
234.5145	0.4371
234.7303	0.4376
234.9461	0.4436
235.1619	0.4394
235.3776	0.4359
235.5934	0.4468
235.8091	0.4515
236.0249	0.4547
236.2406	0.4426
236.4563	0.4465
236.672	0.4442
236.8877	0.4484
237.1034	0.4418
237.319	0.4505
237.5347	0.458
237.7503	0.4517
237.966	0.4611
238.1816	0.4503
238.3972	0.4618
238.6128	0.4697
238.8284	0.4672
239.0439	0.4748
239.2595	0.466
239.475	0.4627
239.6906	0.4623
239.9061	0.4727
240.1216	0.4556
240.3371	0.4601
240.5526	0.4615
240.7681	0.4646
240.9836	0.4638
241.199	0.4657
241.4145	0.4582
241.6299	0.4646
241.8453	0.4477
242.0607	0.4498
242.2761	0.4421
242.4915	0.435
242.7069	0.4266
242.9223	0.4321
243.1376	0.421
243.353	0.4139
243.5683	0.409
243.7836	0.4034
243.9989	0.3928
244.2142	0.3921
244.4295	0.3741
244.6448	0.373
244.86	0.3711
245.0753	0.3629
245.2905	0.356
245.5057	0.353
245.721	0.3413
245.9362	0.3366
246.1514	0.3273
246.3665	0.3206
246.5817	0.3039
246.7969	0.3153
247.012	0.3
247.2271	0.3051
247.4423	0.2919
247.6574	0.2931
247.8725	0.2816
248.0876	0.277
248.3026	0.2707
248.5177	0.2641
248.7328	0.2633
248.9478	0.2662
249.1628	0.2584
249.3779	0.2491
249.5929	0.2465
249.8079	0.2396
250.0228	0.236
250.2378	0.2355
250.4528	0.2373
250.6677	0.236
250.8827	0.2252
251.0976	0.225
251.3125	0.2231
251.5274	0.2217
251.7423	0.2134
251.9572	0.2103
252.172	0.2137
252.3869	0.2126
252.6017	0.2112
252.8166	0.1992
253.0314	0.2007
253.2462	0.1993
253.461	0.2007
253.6758	0.1952
253.8906	0.2007
254.1053	0.1971
254.3201	0.1975
254.5348	0.1902
254.7496	0.1873
254.9643	0.1921
255.179	0.189
255.3937	0.1925
255.6083	0.1954
255.823	0.1951
256.0377	0.1877
256.2523	0.19
256.467	0.1871
256.6816	0.1902
256.8962	0.1873
257.1108	0.188
257.3254	0.1816
257.54	0.1806
257.7545	0.1926
257.9691	0.1873
258.1836	0.1774
258.3981	0.185
258.6127	0.1825
258.8272	0.1871
259.0417	0.1805
259.2561	0.1822
259.4706	0.1786
259.6851	0.1884
259.8995	0.1768
260.114	0.1802
260.3284	0.1797
260.5428	0.183
260.7572	0.1791
260.9716	0.1873
261.186	0.1796
261.4003	0.1826
261.6147	0.1828
261.829	0.1853
262.0433	0.1811
262.2577	0.1827
262.472	0.1811
262.6863	0.193
262.9005	0.1837
263.1148	0.1877
263.3291	0.1886
263.5433	0.1913
263.7576	0.1921
263.9718	0.1824
264.186	0.1905
264.4002	0.19
264.6144	0.1951
264.8286	0.1963
265.0427	0.1934
265.2569	0.1938
265.471	0.1888
265.6851	0.1941
265.8993	0.1925
266.1134	0.1926
266.3275	0.1927
266.5415	0.1927
266.7556	0.1976
266.9697	0.1984
267.1837	0.1936
267.3978	0.1936
267.6118	0.1892
267.8258	0.1935
268.0398	0.2023
268.2538	0.1996
268.4677	0.1938
268.6817	0.1946
268.8957	0.1853
269.1096	0.1897
269.3235	0.1899
269.5374	0.1908
269.7514	0.1957
269.9652	0.1887
270.1791	0.1895
270.393	0.1894
270.6068	0.1843
270.8207	0.1899
271.0345	0.1876
271.2483	0.1854
271.4622	0.1949
271.676	0.1898
271.8897	0.1887
272.1035	0.1946
272.3173	0.1885
272.531	0.1865
272.7448	0.1934
272.9585	0.1853
273.1722	0.1909
273.3859	0.189
273.5996	0.1897
273.8133	0.1961
274.0269	0.1941
274.2406	0.192
274.4542	0.1959
274.6679	0.1986
274.8815	0.1984
275.0951	0.2084
275.3087	0.1997
275.5223	0.1995
275.7358	0.204
275.9494	0.2004
276.1629	0.2031
276.3765	0.2033
276.59	0.2037
276.8035	0.1977
277.017	0.2123
277.2305	0.2088
277.444	0.2057
277.6574	0.2084
277.8709	0.2122
278.0843	0.2084
278.2978	0.2105
278.5112	0.2093
278.7246	0.2028
278.938	0.2044
279.1513	0.2036
279.3647	0.2099
279.5781	0.203
279.7914	0.1976
280.0047	0.2
280.2181	0.2018
280.4314	0.2018
280.6447	0.2023
280.8579	0.1935
281.0712	0.1994
281.2845	0.1992
281.4977	0.1974
281.711	0.1957
281.9242	0.2002
282.1374	0.1927
282.3506	0.1947
282.5638	0.1949
282.7769	0.1893
282.9901	0.1933
283.2033	0.192
283.4164	0.1933
283.6295	0.1946
283.8426	0.1865
284.0557	0.1992
284.2688	0.1933
284.4819	0.1871
284.695	0.1975
284.908	0.1901
285.1211	0.1945
285.3341	0.1911
285.5471	0.1945
285.7601	0.1925
285.9731	0.1894
286.1861	0.1933
286.3991	0.1892
286.612	0.1962
286.825	0.1955
287.0379	0.192
287.2508	0.1887
287.4637	0.1912
287.6766	0.1913
287.8895	0.1906
288.1024	0.1925
288.3152	0.1966
288.5281	0.185
288.7409	0.1893
288.9538	0.1946
289.1666	0.1928
289.3794	0.19
289.5922	0.1888
289.8049	0.1843
290.0177	0.1924
290.2304	0.1872
290.4432	0.1901
290.6559	0.1917
290.8686	0.1941
291.0813	0.1887
291.294	0.1875
291.5067	0.1852
291.7194	0.1947
291.932	0.1901
292.1447	0.1938
292.3573	0.1899
292.5699	0.1902
292.7825	0.188
292.9951	0.1879
293.2077	0.1922
293.4203	0.1866
293.6328	0.1885
293.8454	0.1929
294.0579	0.1862
294.2704	0.1879
294.4829	0.1903
294.6954	0.1928
294.9079	0.1848
295.1204	0.1822
295.3328	0.1917
295.5453	0.1903
295.7577	0.1882
295.9701	0.1939
296.1825	0.1919
296.3949	0.1821
296.6073	0.1864
296.8197	0.1831
297.0321	0.192
297.2444	0.1887
297.4567	0.1888
297.6691	0.1889
297.8814	0.187
298.0937	0.1918
298.306	0.1867
298.5182	0.1935
298.7305	0.1915
298.9428	0.1857
299.155	0.1816
299.3672	0.1831
299.5794	0.1914
299.7916	0.1884
300.0038	0.1862
300.216	0.1836
300.4282	0.1914
300.6403	0.1919
300.8525	0.1884
301.0646	0.1851
301.2767	0.1878
301.4888	0.1893
301.7009	0.1938
301.913	0.1908
302.125	0.1902
302.3371	0.1907
302.5491	0.1884
302.7612	0.1937
302.9732	0.19
303.1852	0.1905
303.3972	0.1947
303.6092	0.1862
303.8211	0.1906
304.0331	0.1866
304.245	0.1888
304.457	0.1896
304.6689	0.1836
304.8808	0.1848
305.0927	0.1903
305.3046	0.1848
305.5164	0.188
305.7283	0.1847
305.9401	0.1756
306.152	0.174
306.3638	0.1806
306.5756	0.1875
306.7874	0.1757
306.9992	0.1775
307.2109	0.1757
307.4227	0.1765
307.6344	0.1786
307.8462	0.1654
308.0579	0.1773
308.2696	0.1737
308.4813	0.1709
308.693	0.1642
308.9046	0.1745
309.1163	0.1666
309.328	0.1639
309.5396	0.1622
309.7512	0.1602
309.9628	0.1577
310.1744	0.1584
310.386	0.1571
310.5976	0.1554
310.8091	0.157
311.0207	0.1576
311.2322	0.1575
311.4437	0.1524
311.6552	0.1542
311.8667	0.1551
312.0782	0.1489
312.2897	0.153
312.5012	0.1487
312.7126	0.1451
312.924	0.1514
313.1355	0.1426
313.3469	0.1422
313.5583	0.1483
313.7696	0.1429
313.981	0.1492
314.1924	0.1419
314.4037	0.1417
314.6151	0.1424
314.8264	0.1488
315.0377	0.1426
315.249	0.1413
315.4603	0.1416
315.6716	0.1484
315.8828	0.144
316.0941	0.1432
316.3053	0.1356
316.5165	0.1446
316.7277	0.1365
316.9389	0.1436
317.1501	0.1426
317.3613	0.1398
317.5724	0.1368
317.7836	0.1372
317.9947	0.1361
318.2058	0.1387
318.417	0.1374
318.6281	0.1462
318.8391	0.1417
319.0502	0.1385
319.2613	0.14
319.4723	0.1375
319.6834	0.1415
319.8944	0.1391
320.1054	0.1413
320.3164	0.1365
320.5274	0.1392
320.7383	0.1435
320.9493	0.1335
321.1602	0.1371
321.3712	0.1373
321.5821	0.1327
321.793	0.1465
322.0039	0.1426
322.2148	0.1418
322.4257	0.1336
322.6365	0.1456
322.8474	0.1446
323.0582	0.144
323.269	0.1397
323.4798	0.1388
323.6906	0.1381
323.9014	0.1364
324.1122	0.139
324.3229	0.1433
324.5337	0.1394
324.7444	0.1406
324.9551	0.1438
325.1658	0.1459
325.3765	0.1448
325.5872	0.1503
325.7979	0.14
326.0085	0.1385
326.2192	0.1373
326.4298	0.1491
326.6404	0.1461
326.851	0.1434
327.0616	0.1469
327.2722	0.1432
327.4828	0.1507
327.6933	0.1548
327.9039	0.1501
328.1144	0.1556
328.3249	0.1548
328.5354	0.1527
328.7459	0.1501
328.9564	0.1543
329.1669	0.1539
329.3773	0.1567
329.5878	0.1527
329.7982	0.1532
330.0086	0.1582
330.219	0.1477
330.4294	0.1533
330.6398	0.1591
330.8502	0.1603
331.0605	0.1543
331.2708	0.1534
331.4812	0.1543
331.6915	0.1593
331.9018	0.1558
332.1121	0.1591
332.3224	0.1532
332.5326	0.1523
332.7429	0.1496
332.9531	0.1597
333.1633	0.1493
333.3735	0.15
333.5837	0.1532
333.7939	0.1571
334.0041	0.1572
334.2143	0.1614
334.4244	0.1604
334.6346	0.1516
334.8447	0.1584
335.0548	0.1586
335.2649	0.1656
335.475	0.1565
335.685	0.1609
335.8951	0.1537
336.1051	0.1565
336.3152	0.1539
336.5252	0.1575
336.7352	0.1535
336.9452	0.1575
337.1552	0.1539
337.3652	0.144
337.5751	0.1518
337.7851	0.1547
337.995	0.1559
338.2049	0.1541
338.4148	0.1546
338.6247	0.1561
338.8346	0.158
339.0445	0.1591
339.2543	0.1515
339.4642	0.1532
339.674	0.1525
339.8838	0.156
340.0936	0.1557
340.3034	0.1494
340.5132	0.1552
340.7229	0.1573
340.9327	0.1671
341.1424	0.1585
341.3522	0.1578
341.5619	0.1597
341.7716	0.1591
341.9813	0.1713
342.1909	0.1643
342.4006	0.1629
342.6102	0.163
342.8199	0.1676
343.0295	0.1628
343.2391	0.1707
343.4487	0.1627
343.6583	0.1761
343.8679	0.1641
344.0774	0.1674
344.287	0.1719
344.4965	0.1736
344.706	0.1734
344.9155	0.167
345.125	0.1664
345.3345	0.1835
345.544	0.1743
345.7534	0.1763
345.9629	0.1762
346.1723	0.1796
346.3817	0.1786
346.5911	0.1761
346.8005	0.179
347.0099	0.1785
347.2193	0.1829
347.4286	0.1907
347.638	0.1815
347.8473	0.1962
348.0566	0.184
348.2659	0.1834
348.4752	0.1888
348.6845	0.1863
348.8937	0.1821
349.103	0.1921
349.3122	0.1867
349.5214	0.1882
349.7306	0.1947
349.9398	0.1952
350.149	0.182
350.3582	0.195
350.5674	0.1896
350.7765	0.201
350.9856	0.1879
351.1948	0.1907
351.4039	0.1942
351.613	0.1946
351.822	0.1953
352.0311	0.1954
352.2402	0.1929
352.4492	0.1883
352.6582	0.195
352.8672	0.1887
353.0762	0.19
353.2852	0.1933
353.4942	0.1948
353.7032	0.1871
353.9121	0.1877
354.1211	0.1895
354.33	0.1874
354.5389	0.1839
354.7478	0.1863
354.9567	0.1903
355.1655	0.1932
355.3744	0.188
355.5833	0.185
355.7921	0.1958
356.0009	0.1964
356.2097	0.1831
356.4185	0.1898
356.6273	0.1818
356.8361	0.1887
357.0448	0.1866
357.2536	0.1956
357.4623	0.1924
357.671	0.1965
357.8797	0.2006
358.0884	0.1891
358.2971	0.1954
358.5057	0.192
358.7144	0.1971
358.923	0.1995
359.1316	0.2006
359.3402	0.1946
359.5488	0.1962
359.7574	0.2044
359.966	0.1973
360.1746	0.1949
360.3831	0.2042
360.5916	0.2018
360.8002	0.2093
361.0087	0.2039
361.2172	0.2021
361.4256	0.205
361.6341	0.2034
361.8426	0.2034
362.051	0.2104
362.2594	0.2051
362.4678	0.1997
362.6762	0.206
362.8846	0.2009
363.093	0.2083
363.3014	0.212
363.5097	0.2065
363.718	0.2091
363.9264	0.2078
364.1347	0.2101
364.343	0.2101
364.5513	0.2105
364.7595	0.215
364.9678	0.2113
365.176	0.2152
365.3842	0.2199
365.5925	0.2141
365.8007	0.2203
366.0089	0.2148
366.217	0.2162
366.4252	0.2183
366.6333	0.2234
366.8415	0.2268
367.0496	0.221
367.2577	0.224
367.4658	0.2221
367.6739	0.2181
367.882	0.2278
368.09	0.2244
368.2981	0.2308
368.5061	0.2241
368.7141	0.2173
368.9221	0.2397
369.1301	0.2301
369.3381	0.2378
369.5461	0.2254
369.754	0.2285
369.962	0.227
370.1699	0.2372
370.3778	0.2376
370.5857	0.231
370.7936	0.2309
371.0015	0.2433
371.2093	0.2345
371.4172	0.2374
371.625	0.231
371.8328	0.2241
372.0406	0.2421
372.2484	0.2381
372.4562	0.2416
372.664	0.2391
372.8717	0.2392
373.0795	0.2419
373.2872	0.2429
373.4949	0.2472
373.7026	0.2465
373.9103	0.2379
374.118	0.243
374.3256	0.2505
374.5333	0.2406
374.7409	0.2374
374.9485	0.2381
375.1561	0.244
375.3637	0.2434
375.5713	0.2516
375.7789	0.2531
375.9864	0.2512
376.194	0.2525
376.4015	0.2489
376.609	0.2646
376.8165	0.2495
377.024	0.2477
377.2315	0.2535
377.4389	0.2488
377.6464	0.2697
377.8538	0.2517
378.0612	0.2565
378.2686	0.2506
378.476	0.2595
378.6834	0.252
378.8908	0.2638
379.0981	0.2609
379.3055	0.2594
379.5128	0.2552
379.7201	0.2623
379.9274	0.2629
380.1347	0.2563
380.342	0.2709
380.5492	0.2575
380.7565	0.2594
380.9637	0.2577
381.1709	0.2617
381.3781	0.2707
381.5853	0.2622
381.7925	0.262
381.9997	0.2657
382.2068	0.2649
382.4139	0.2604
382.6211	0.2599
382.8282	0.2762
383.0353	0.2672
383.2424	0.2639
383.4494	0.2627
383.6565	0.2732
383.8635	0.2637
384.0706	0.2749
384.2776	0.2697
384.4846	0.2675
384.6916	0.2673
384.8986	0.2726
385.1055	0.2845
385.3125	0.2801
385.5194	0.276
385.7263	0.2664
385.9333	0.2733
386.1402	0.2734
386.347	0.27
386.5539	0.282
386.7608	0.2759
386.9676	0.2741
387.1744	0.2702
387.3813	0.2692
387.5881	0.262
387.7948	0.2775
388.0016	0.2843
388.2084	0.2668
388.4151	0.2727
388.6219	0.2647
388.8286	0.2652
389.0353	0.2692
389.242	0.2662
389.4487	0.262
389.6553	0.2628
389.862	0.2615
390.0686	0.2791
390.2753	0.2689
390.4819	0.2672
390.6885	0.2589
390.8951	0.2604
391.1016	0.2626
391.3082	0.2652
391.5147	0.2595
391.7213	0.2511
391.9278	0.257
392.1343	0.2566
392.3408	0.2584
392.5473	0.2526
392.7537	0.2528
392.9602	0.2436
393.1666	0.2451
393.373	0.2529
393.5794	0.2496
393.7858	0.2512
393.9922	0.2476
394.1986	0.248
394.4049	0.2416
394.6113	0.2435
394.8176	0.2407
395.0239	0.2331
395.2302	0.231
395.4365	0.239
395.6428	0.2425
395.8491	0.2477
396.0553	0.2305
396.2615	0.2406
396.4678	0.2402
396.674	0.2381
396.8802	0.2421
397.0863	0.2332
397.2925	0.2336
397.4987	0.2323
397.7048	0.241
397.9109	0.2216
398.117	0.2352
398.3231	0.2407
398.5292	0.2293
398.7353	0.2252
398.9413	0.2231
399.1474	0.2279
399.3534	0.2304
399.5594	0.2388
399.7654	0.2215
399.9714	0.2287
400.1774	0.2195
400.3833	0.2286
400.5893	0.2321
400.7952	0.2279
401.0011	0.2311
401.207	0.2235
401.4129	0.2292
401.6188	0.2242
401.8247	0.2437
402.0305	0.2272
402.2364	0.2351
402.4422	0.2281
402.648	0.2272
402.8538	0.2309
403.0596	0.2304
403.2654	0.2258
403.4711	0.215
403.6768	0.2241
403.8826	0.2326
404.0883	0.2245
404.294	0.2307
404.4997	0.2311
404.7054	0.2347
404.911	0.231
405.1167	0.2315
405.3223	0.2203
405.5279	0.2236
405.7335	0.23
405.9391	0.2319
406.1447	0.2293
406.3502	0.2336
406.5558	0.2293
406.7613	0.2308
406.9668	0.2291
407.1724	0.2254
407.3778	0.2337
407.5833	0.2272
407.7888	0.2254
407.9942	0.2304
408.1997	0.2244
408.4051	0.2261
408.6105	0.2337
408.8159	0.2266
409.0213	0.2313
409.2267	0.2321
409.432	0.2323
409.6374	0.2245
409.8427	0.2356
410.048	0.2308
410.2533	0.2225
410.4586	0.2125
410.6639	0.2231
410.8691	0.2193
411.0744	0.2248
411.2796	0.2237
411.4848	0.2217
411.69	0.2168
411.8952	0.2207
412.1004	0.2247
412.3056	0.2239
412.5107	0.2258
412.7158	0.2295
412.921	0.2287
413.1261	0.2324
413.3312	0.2208
413.5362	0.227
413.7413	0.2205
413.9464	0.2164
414.1514	0.2306
414.3564	0.2215
414.5614	0.2194
414.7664	0.2088
414.9714	0.218
415.1764	0.2254
415.3813	0.2173
415.5863	0.2221
415.7912	0.2202
415.9961	0.2259
416.201	0.2375
416.4059	0.2283
416.6108	0.2192
416.8156	0.2118
417.0205	0.2253
417.2253	0.2219
417.4301	0.2192
417.6349	0.2129
417.8397	0.2128
418.0445	0.2174
418.2492	0.2119
418.454	0.2207
418.6587	0.212
418.8634	0.2261
419.0681	0.2227
419.2728	0.2226
419.4775	0.2302
419.6822	0.2099
419.8868	0.207
420.0915	0.2102
420.2961	0.2165
420.5007	0.2043
420.7053	0.2055
420.9099	0.2138
421.1144	0.2069
421.319	0.2129
421.5235	0.2095
421.728	0.2173
421.9325	0.2052
422.137	0.2047
422.3415	0.2055
422.546	0.2028
422.7504	0.2006
422.9549	0.2093
423.1593	0.1967
423.3637	0.2015
423.5681	0.2007
423.7725	0.2101
423.9769	0.2075
424.1812	0.1924
424.3856	0.1922
424.5899	0.1948
424.7942	0.1972
424.9985	0.191
425.2028	0.1968
425.4071	0.1945
425.6113	0.1917
425.8156	0.192
426.0198	0.1953
426.224	0.1879
426.4282	0.185
426.6324	0.1903
426.8366	0.1908
427.0407	0.1871
427.2449	0.178
427.449	0.1838
427.6531	0.1956
427.8572	0.1719
428.0613	0.1833
428.2654	0.1841
428.4694	0.1743
428.6735	0.1755
428.8775	0.1703
429.0815	0.1746
429.2855	0.1751
429.4895	0.1733
429.6935	0.1777
429.8975	0.1571
430.1014	0.1766
430.3053	0.1753
430.5093	0.1662
430.7132	0.16
430.9171	0.1607
431.1209	0.1679
431.3248	0.1626
431.5286	0.1621
431.7325	0.1723
431.9363	0.1568
432.1401	0.1535
432.3439	0.1556
432.5477	0.1449
432.7514	0.1488
432.9552	0.1521
433.1589	0.1449
433.3627	0.1555
433.5664	0.1399
433.7701	0.146
433.9737	0.1479
434.1774	0.1492
434.3811	0.1416
434.5847	0.1452
434.7883	0.1377
434.9919	0.1358
435.1955	0.1387
435.3991	0.1343
435.6027	0.1313
435.8062	0.1403
436.0098	0.1279
436.2133	0.1298
436.4168	0.1267
436.6203	0.1273
436.8238	0.1178
437.0272	0.1236
437.2307	0.1171
437.4341	0.1209
437.6375	0.1202
437.841	0.1114
438.0443	0.1218
438.2477	0.1059
438.4511	0.1034
438.6545	0.1129
438.8578	0.1151
439.0611	0.1095
439.2644	0.1082
439.4677	0.102
439.671	0.0978
439.8743	0.1105
440.0775	0.0969
440.2808	0.1072
440.484	0.0969
440.6872	0.1016
440.8904	0.087
441.0936	0.0947
441.2967	0.085
441.4999	0.0905
441.703	0.0902
441.9062	0.091
442.1093	0.0938
442.3124	0.0796
442.5155	0.0914
442.7185	0.0788
442.9216	0.0841
443.1246	0.0788
443.3276	0.0823
443.5307	0.0657
443.7337	0.0782
443.9366	0.0808
444.1396	0.0739
444.3426	0.0799
444.5455	0.0665
444.7484	0.0696
444.9513	0.0728
445.1542	0.0778
445.3571	0.0722
445.56	0.073
445.7628	0.0682
445.9657	0.0648
446.1685	0.0716
446.3713	0.0643
446.5741	0.0676
446.7769	0.0616
446.9797	0.0665
447.1824	0.0604
447.3852	0.045
447.5879	0.0558
447.7906	0.0558
447.9933	0.0574
448.196	0.0525
448.3986	0.0577
448.6013	0.0428
448.8039	0.0549
449.0066	0.0605
449.2092	0.0632
449.4118	0.0494
449.6143	0.0548
449.8169	0.0452
450.0195	0.053
450.222	0.0591
450.4245	0.0536
450.627	0.0522
450.8295	0.0425
451.032	0.0458
451.2345	0.0355
451.4369	0.0454
451.6394	0.0421
451.8418	0.0425
452.0442	0.0426
452.2466	0.0319
452.449	0.0363
452.6513	0.0408
452.8537	0.0395
453.056	0.0375
453.2583	0.0335
453.4607	0.0317
453.663	0.047
453.8652	0.0355
454.0675	0.0357
454.2697	0.0362
454.472	0.0341
454.6742	0.0265
454.8764	0.0356
455.0786	0.0327
455.2808	0.0335
455.4829	0.0334
455.6851	0.0312
455.8872	0.0191
456.0893	0.025
456.2915	0.021
456.4935	0.032
456.6956	0.0243
456.8977	0.0313
457.0997	0.0378
457.3018	0.0259
457.5038	0.0402
457.7058	0.0302
457.9078	0.017
458.1098	0.0268
458.3117	0.0348
458.5137	0.0127
458.7156	0.0276
458.9175	0.0243
459.1194	0.0276
459.3213	0.0149
459.5232	0.0365
459.725	0.0236
459.9269	0.0231
460.1287	0.0182
460.3305	0.0264
460.5323	0.0179
460.7341	0.0243
460.9359	0.0143
461.1376	0.025
461.3394	0.0233
461.5411	0.0154
461.7428	0.0204
461.9445	0.0179
462.1462	0.0214
462.3479	0.0192
462.5495	0.0252
462.7512	0.0327
462.9528	0.0125
463.1544	0.011
463.356	0.0045
463.5576	0.023
463.7592	0.0227
463.9607	0.0193
464.1623	0.0212
464.3638	0.0174
464.5653	0.0125
464.7668	0.0226
464.9683	0.0162
465.1697	0.0132
465.3712	0.0117
465.5726	0.0143
465.7741	0.0169
465.9755	0.0104
466.1769	0.0106
466.3782	0.0114
466.5796	0.0203
466.7809	0.0185
466.9823	0.014
467.1836	0.0188
467.3849	0.0171
467.5862	0.0054
467.7875	0.0171
467.9887	0.0208
468.19	0.018
468.3912	0.0234
468.5924	0.0102
468.7936	0.0045
468.9948	0.0097
469.196	0.013
469.3972	0.004
469.5983	0.0192
469.7994	0.0217
470.0006	0.0174
470.2017	0.0141
470.4027	0.0303
470.6038	0.0157
470.8049	0.0139
471.0059	0.0195
471.2069	0.0184
471.408	0.0172
471.6089	0.0148
471.8099	0.013
472.0109	0.0151
472.2119	0.0156
472.4128	0.0109
472.6137	0.0154
472.8146	0.0125
473.0155	0.0182
473.2164	0.012
473.4173	0.0021
473.6181	-0.0014
473.819	0.0107
474.0198	0.0173
474.2206	0.003
474.4214	0.0104
474.6222	0.0022
474.8229	0.0094
475.0237	0.0109
475.2244	0.0113
475.4251	0.0098
475.6258	0.0077
475.8265	0.0169
476.0272	0.0087
476.2278	0.0153
476.4285	0.0178
476.6291	0.011
476.8297	0.0183
477.0303	0.001
477.2309	0.0138
477.4315	0.0104
477.632	0.0042
477.8326	0.0146
478.0331	0.0148
478.2336	0.0035
478.4341	0.0176
478.6346	0.005
478.8351	0.0091
479.0355	0.0219
479.236	0.0224
479.4364	0.0085
479.6368	0.0109
479.8372	0.0094
480.0376	0.012
480.2379	0.023
480.4383	0.0093
480.6386	-0.0034
480.8389	0.0084
481.0392	0.0046
481.2395	0.0137
481.4398	0.0121
481.6401	0.0092
481.8403	0.0103
482.0405	0.0104
482.2408	0.0127
482.441	0.0144
482.6411	0.0052
482.8413	0.0041
483.0415	0.0123
483.2416	0.0074
483.4417	0.0101
483.6419	0.0086
483.8419	0.0104
484.042	0.0134
484.2421	0.0068
484.4422	0.0075
484.6422	0.0066
484.8422	0.0061
485.0422	0.0082
485.2422	0.0067
485.4422	0.0084
485.6422	0.0073
485.8421	0.0065
486.042	0.0125
486.242	0.0075
486.4419	0.0067
486.6417	0.0067
486.8416	0.0089
487.0415	0.0075
487.2413	0.0077
487.4411	0.0079
487.641	0.0116
487.8408	0.0124
488.0405	0.0191
488.2403	0.0086
488.4401	0.0094
488.6398	0.0154
488.8395	0.0128
489.0392	0.0096
489.2389	0.0212
489.4386	0.0026
489.6383	0.0099
489.8379	0.0073
490.0376	0.0121
490.2372	0.0058
490.4368	0.0075
490.6364	0.0007
490.836	0.0083
491.0355	0.0014
491.2351	0.0092
491.4346	0.0108
491.6341	0.0067
491.8336	0.0138
492.0331	0.0019
492.2326	0.0119
492.432	0.0061
492.6315	0.0192
492.8309	0.0162
493.0303	0.0086
493.2297	0.0149
493.4291	0.0138
493.6284	0.0154
493.8278	0.012
494.0271	0.0111
494.2264	0.0141
494.4257	0.0097
494.625	0.0081
494.8243	0.0001
495.0236	0.0129
495.2228	0.0154
495.422	0.0104
495.6213	0.0089
495.8205	0.0141
496.0196	0.0143
496.2188	0.0123
496.418	0.011
496.6171	0.012
496.8162	0.0134
497.0153	0.0162
497.2144	0.0108
497.4135	0.0063
497.6126	0.0101
497.8116	0.0097
498.0107	0.0031
498.2097	0.0097
498.4087	0.0093
498.6077	-0.0006
498.8067	0.0094
499.0056	0.004
499.2046	0.0144
499.4035	0.0071
499.6024	0.0027
499.8013	0.0125
500.0002	0.0112
500.199	0.0165
500.3979	-0.0001
500.5967	0.0098
500.7956	0.0056
500.9944	0.007
501.1932	0.0191
501.3919	0.0096
501.5907	0.0127
501.7895	0.0112
501.9882	0.0094
502.1869	0.0158
502.3856	0.0082
502.5843	0.0039
502.783	0.0045
502.9816	0.0149
503.1803	0.0121
503.3789	0.0163
503.5775	0.0117
503.7761	0.0047
503.9747	0.0134
504.1732	0.007
504.3718	0.0179
504.5703	0.0081
504.7689	-0.0008
504.9674	0.0109
505.1658	0.0016
505.3643	0.0123
505.5628	0.0085
505.7612	0.0189
505.9597	0.0027
506.1581	0.0028
506.3565	0.013
506.5549	0.0064
506.7532	-0.0011
506.9516	0.0065
507.1499	0.0108
507.3482	0.0023
507.5465	0.0084
507.7448	0.0096
507.9431	0.0126
508.1414	0.0053
508.3396	0.0113
508.5379	0.0126
508.7361	0.0115
508.9343	0.0179
509.1325	0.0185
509.3306	0.0131
509.5288	0.0016
509.7269	0.0194
509.9251	0.0076
510.1232	0.0115
510.3213	0.0164
510.5193	0.0049
510.7174	0.0051
510.9154	0.0169
511.1135	0.0081
511.3115	0.0071
511.5095	0.0125
511.7075	0.0132
511.9055	0.0047
512.1034	0.0082
512.3014	0.0036
512.4993	0.0112
512.6972	0.0116
512.8951	0.0044
513.093	0.0062
513.2908	0.0186
513.4887	0.0129
513.6865	0.007
513.8844	0.0081
514.0822	0.0191
514.2799	0.0089
514.4777	0.0083
514.6755	0.0034
514.8732	0.0133
515.0709	0.0078
515.2687	0.0143
515.4664	0.0119
515.664	0.0121
515.8617	0.0135
516.0594	0.0117
516.257	0.0131
516.4546	0.021
516.6522	0.0144
516.8498	0.0086
517.0474	0.0201
517.2449	0.0113
517.4425	0.0172
517.64	0.0012
517.8375	0.0202
518.035	0.0037
518.2325	0.0068
518.43	0.0037
518.6274	0.0069
518.8249	0.0057
519.0223	0.0144
519.2197	-0.0013
519.4171	0.0124
519.6145	0.0227
519.8118	0.0093
520.0092	-0.0021
520.2065	0.0086
520.4038	0.0113
520.6011	0.0159
520.7984	0.0075
520.9956	0.0194
521.1929	0.0108
521.3901	0.003
521.5874	0.0141
521.7846	0.0033
521.9818	0.012
522.1789	0.0125
522.3761	0.0139
522.5732	0.0123
522.7704	0.0032
522.9675	-0.0016
523.1646	0.0043
523.3617	0.0152
523.5587	0.0043
523.7558	0.0154
523.9528	0.0163
524.1498	0.0153
524.3468	0.0113
524.5438	-0.0009
524.7408	0.0007
524.9378	0.0177
525.1347	0.0217
525.3316	0.0215
525.5285	0.0129
525.7254	0.0079
525.9223	0.023
526.1192	0.0082
526.316	0.01
526.5129	0.0162
526.7097	0.0131
526.9065	0.0187
527.1033	0.015
527.3	0.0065
527.4968	0.0134
527.6935	0.0051
527.8903	0.0123
528.087	0.0087
528.2837	0.0106
528.4804	0.0084
528.677	0.0133
528.8737	0.0038
529.0703	0.0064
529.2669	0.0171
529.4635	0.003
529.6601	0.0049
529.8567	0.0098
530.0532	0.0114
530.2498	0.0026
530.4463	-0.0037
530.6428	0.0137
530.8393	0.0215
531.0358	0.0124
531.2322	0.0045
531.4287	0.0076
531.6251	-0.0058
531.8215	0.0097
532.0179	0.0128
532.2143	0.0093
532.4107	0.0102
532.607	0.0085
532.8034	0.0042
532.9997	0.0056
533.196	0.0043
533.3923	0.021
533.5886	0.0145
533.7848	0.0166
533.9811	0.0087
534.1773	0.0183
534.3735	0.0081
534.5697	-0
534.7659	0.0127
534.9621	0.0168
535.1582	0.0133
535.3544	0.0084
535.5505	0.0156
535.7466	0.0035
535.9427	0.0053
536.1387	0.0063
536.3348	0.0197
536.5308	0.0081
536.7269	0.0099
536.9229	0.017
537.1189	0.0162
537.3148	0.0123
537.5108	0.0128
537.7068	0.0143
537.9027	-0
538.0986	0.0161
538.2945	0.0033
538.4904	0.0067
538.6863	0.0053
538.8821	0.0135
539.078	0.0084
539.2738	0.0155
539.4696	0.0044
539.6654	0.0113
539.8611	0.0103
540.0569	0.0095
540.2526	0.0128
540.4484	0.004
540.6441	0.0086
540.8398	0.0136
541.0355	0.0082
541.2311	0.012
541.4268	0.0221
541.6224	0.0151
541.818	0.0121
542.0136	0.0166
542.2092	0.0115
542.4048	0.0075
542.6003	0.0041
542.7959	0.011
542.9914	0.0103
543.1869	0.0056
543.3824	0.0138
543.5779	0.0231
543.7734	0.02
543.9688	0.0158
544.1642	0.0051
544.3596	0.0174
544.555	0.005
544.7504	0.0127
544.9458	0.0051
545.1411	-0.0016
545.3365	0.0148
545.5318	0.0105
545.7271	0.0144
545.9224	0.0116
546.1177	0.0158
546.3129	0.0092
546.5081	0.0064
546.7034	0.0042
546.8986	0.0159
547.0938	0.0154
547.289	0.0169
547.4841	0.0114
547.6793	0.0115
547.8744	0.0157
548.0695	0.008
548.2646	0.0134
548.4597	0.0036
548.6548	0.0143
548.8498	0.0137
549.0448	0.0055
549.2399	0.0233
549.4349	0.0087
549.6298	0.0101
549.8248	0.0086
550.0198	0.016
550.2147	0.0117
550.4096	-0.0016
550.6045	-0.0026
550.7994	0.0154
550.9943	0.0176
551.1892	-0.0042
551.384	0.0245
551.5788	0.0071
551.7737	0.0095
551.9685	0.0068
552.1632	-0.0007
552.358	0.0126
552.5528	0.0178
552.7475	0.0095
552.9422	0.015
553.1369	0.0149
553.3316	0.0118
553.5263	0.0071
553.7209	0.0089
553.9156	0.0098
554.1102	0.0164
554.3048	0.0003
554.4994	0.0042
554.694	0.0133
554.8885	0.0089
555.0831	0.0137
555.2776	0.0103
555.4721	0.0138
555.6666	0.019
555.8611	0.0128
556.0555	0.0091
556.25	0.0179
556.4444	0.0119
556.6388	0.0105
556.8332	0.0096
557.0276	0.013
557.222	0.0054
557.4163	0.014
557.6107	0.0102
557.805	0.0034
557.9993	0.0125
558.1936	0.0068
558.3879	0.0128
558.5821	0.0069
558.7764	0.0091
558.9706	0.0004
559.1648	0.0138
559.359	0.0105
559.5532	0.009
559.7473	0.003
559.9415	0.006
560.1356	0.0185
560.3297	0.0107
560.5238	0.0111
560.7179	0.0038
560.9119	0.0013
561.106	0.0022
561.3	0.0095
561.494	-0.0013
561.688	0.0064
561.882	0.0035
562.076	0.0119
562.2699	0.0142
562.4639	0.0191
562.6578	0.0122
562.8517	0.0134
563.0456	0.0026
563.2395	0.0058
563.4333	-0.0002
563.6272	0.0143
563.821	0.0189
564.0148	0.0082
564.2086	0.0118
564.4024	0.0127
564.5961	0.003
564.7899	0.0144
564.9836	0.0065
565.1773	0.0205
565.371	0.0072
565.5647	0.0101
565.7584	0.0179
565.952	0.0113
566.1456	0.011
566.3393	0.0035
566.5329	0.0103
566.7264	0.0135
566.92	-0
567.1136	0.0071
567.3071	-0.0015
567.5006	0.0152
567.6941	0.0101
567.8876	0.0052
568.0811	0.0211
568.2745	0.0055
568.468	0.0083
568.6614	0.0188
568.8548	0.0091
569.0482	0.0113
569.2416	0.0092
569.4349	0.0079
569.6283	0.0082
569.8216	0.0126
570.0149	0.0032
570.2082	0.0149
570.4015	0.0103
570.5947	0.0094
570.788	0.0131
570.9812	0.006
571.1744	0.0079
571.3676	0.013
571.5608	0.0043
571.754	0.0153
571.9471	0.0125
572.1402	0.0094
572.3333	0.0118
572.5264	0.0097
572.7195	0.0096
572.9126	0.0095
573.1057	0.0091
573.2987	0.0101
573.4917	0.0077
573.6847	0.0055
573.8777	0.0103
574.0707	0.0043
574.2636	0.0047
574.4566	0.0038
574.6495	0.008
574.8424	0.0085
575.0353	0.0088
575.2281	0.0149
575.421	0.0047
575.6138	0.0093
575.8067	0.0112
575.9995	0.0098
576.1923	0.011
576.385	0.0098
576.5778	0.0107
576.7706	0.0078
576.9633	0.0091
577.156	0.0029
577.3487	0.0083
577.5414	0.0049
577.734	0.0081
577.9267	0.0099
578.1193	0.0114
578.3119	0.0045
578.5045	0.0115
578.6971	0.0038
578.8897	0.0055
579.0822	0.0111
579.2747	0.003
579.4673	0.0111
579.6598	0.0118
579.8522	0.0062
580.0447	0.0113
580.2372	0.0163
580.4296	0.0127
580.622	0.0051
580.8144	0.0087
581.0068	0.0098
581.1992	0.008
581.3915	0.0002
581.5839	0.0078
581.7762	0.0067
581.9685	0.0081
582.1608	0.0049
582.353	0.008
582.5453	0.0092
582.7375	0.0105
582.9298	0.0057
583.122	0.0047
583.3142	0.0149
583.5063	0.0086
583.6985	0.0029
583.8906	0.0082
584.0827	0.0097
584.2749	0.0024
584.4669	0.0063
584.659	0.0091
584.8511	0.0114
585.0431	0.0079
585.2352	0.0099
585.4272	0.0106
585.6192	0.0049
585.8111	0.0073
586.0031	0.0097
586.195	0.0092
586.387	0.0078
586.5789	0.0125
586.7708	0.0121
586.9627	0.0111
587.1545	0.0108
587.3464	0.0094
587.5382	0.0113
587.73	0.0125
587.9218	0.0084
588.1136	0.0051
588.3053	0.0096
588.4971	0.0066
588.6888	0.0064
588.8805	0.0065
589.0722	0.0121
589.2639	0.0098
589.4556	0.0104
589.6472	0.0078
589.8389	0.0062
590.0305	-0.0004
590.2221	0.0081
590.4137	0.0053
590.6052	0.0131
590.7968	0.0047
590.9883	0.0034
591.1798	0.0077
591.3713	0.0042
591.5628	0.0093
591.7543	0.011
591.9458	0.0032
592.1372	0.0072
592.3286	0.0082
592.52	0.0081
592.7114	0.0092
592.9028	0.0145
593.0941	0.0024
593.2855	0.009
593.4768	0.0155
593.6681	0.01
593.8594	0.0109
594.0506	0.0131
594.2419	0.0107
594.4331	0.0084
594.6244	0.004
594.8156	0.0059
595.0067	0.0026
595.1979	0.0027
595.3891	0.007
595.5802	0.0177
595.7713	0.011
595.9624	0.0103
596.1535	0.0098
596.3446	0.0076
596.5357	0.0115
596.7267	0.0119
596.9177	0.007
597.1087	0.0044
597.2997	0.0105
597.4907	0.006
597.6817	0.0073
597.8726	0.0078
598.0635	0.0042
598.2544	0.0083
598.4453	0.0103
598.6362	0.0083
598.827	0.0034
599.0179	0.0066
599.2087	0.0127
599.3995	0.0077
599.5903	0.0078
599.7811	0.0143
599.9718	0.0068
600.1626	0.0062
600.3533	0.0083
600.544	0.009
600.7347	0.0096
600.9254	0.0155
601.116	0.0089
601.3067	0.0002
601.4973	0.0165
601.6879	0.0089
601.8785	0.0126
602.0691	0.0132
602.2596	0.0021
602.4502	0.0081
602.6407	0.009
602.8312	0.0123
603.0217	0.01
603.2122	0.0125
603.4027	0.0103
603.5931	0.0123
603.7835	0.0075
603.9739	0.0039
604.1643	0.0104
604.3547	0.0119
604.5451	0.0148
604.7354	0.0015
604.9257	0.0073
605.116	0.004
605.3063	0.0082
605.4966	0.0109
605.6869	0.0143
605.8771	0.009
606.0673	0.0095
606.2575	0.0052
606.4477	0.01
606.6379	0.0026
606.8281	-0.0002
607.0182	0.0037
607.2083	0.0116
607.3985	0.0118
607.5885	0.0138
607.7786	0.0121
607.9687	0.0157
608.1587	0.0134
608.3488	0.0129
608.5388	0.0018
608.7288	0.0066
608.9187	0.0104
609.1087	0.0075
609.2986	0.0155
609.4886	0.0065
609.6785	0.0146
609.8684	0.0035
610.0582	0.0072
610.2481	0.0021
610.4379	0.01
610.6278	0.01
610.8176	0.0153
611.0074	0.0086
611.1971	0.0057
611.3869	0.0074
611.5766	-0.0021
611.7664	0.0189
611.9561	0.0114
612.1458	0.0159
612.3354	0.012
612.5251	0.0047
612.7147	0.0122
612.9044	0.0088
613.094	0.0095
613.2836	0.0072
613.4731	0.0022
613.6627	0.0097
613.8522	0.0091
614.0417	0.0156
614.2313	0.0139
614.4207	0.0128
614.6102	0.0114
614.7997	0.0146
614.9891	0.0046
615.1785	0.0022
615.3679	0.0077
615.5573	0.0094
615.7467	0.0049
615.9361	0.0107
616.1254	0.0187
616.3147	0.0075
616.504	0.0095
616.6933	0.0018
616.8826	-0.0028
617.0718	0.0133
617.2611	0.0067
617.4503	0.0082
617.6395	0.0105
617.8287	0.0119
618.0179	0.0083
618.207	0.0236
618.3961	0.0038
618.5853	0.0058
618.7744	0.0134
618.9634	0.0147
619.1525	0.0105
619.3416	0.013
619.5306	0.009
619.7196	0.0158
619.9086	0.0056
620.0976	0.0024
620.2866	0.0109
620.4755	0.0066
620.6645	0.0205
620.8534	0.0048
621.0423	0.0066
621.2312	-0.0027
621.42	0.0073
621.6089	0.0015
621.7977	0.0217
621.9865	0.0077
622.1753	-0.0011
622.3641	0.0006
622.5529	0.0038
622.7416	0.0068
622.9303	0.0112
623.1191	0.0026
623.3078	0.0129
623.4964	0.0067
623.6851	0.0071
623.8737	0.0072
624.0624	0.0001
624.251	0.0087
624.4396	0.0036
624.6282	0.0151
624.8167	0.0077
625.0053	0.0147
625.1938	0.0048
625.3823	0.0107
625.5708	-0.0004
625.7593	0.0033
625.9477	0.013
626.1362	0.0095
626.3246	0.0187
626.513	-0.0024
626.7014	0.0145
626.8898	0.0175
627.0781	0.0147
627.2665	0.0183
627.4548	0.0074
627.6431	0.0192
627.8314	0.0169
628.0197	0.0168
628.2079	0.0037
628.3962	0.0078
628.5844	0.0001
628.7726	0.006
628.9608	0.0032
629.1489	0.0082
629.3371	-0.0085
629.5252	0.005
629.7134	0.0092
629.9015	0.0138
630.0895	-0.0038
630.2776	0.003
630.4657	0.0162
630.6537	0.0071
630.8417	-0.0074
631.0297	0.0021
631.2177	0.0109
631.4057	0.0146
631.5936	0.0062
631.7815	0.013
631.9695	0.0237
632.1574	0.0063
632.3452	0.0128
632.5331	0.0123
632.7209	0.0168
632.9088	0.0122
633.0966	0.0353
633.2844	0.0122
633.4722	0.0227
633.6599	0.0243
633.8477	0.0189
634.0354	0.0243
634.2231	0.0058
634.4108	0.0073
634.5985	0.0261
634.7861	0.0001
634.9738	-0.0027
635.1614	0.0244
635.349	0.0052
635.5366	0.0097
635.7242	0.0104
635.9117	0.02
636.0993	0.0196
636.2868	0.0177
636.4743	0.0213
636.6618	-0.0099
636.8492	0.0183
637.0367	0.006
637.2241	0.0129
637.4115	0.0281
637.5989	0.0135
637.7863	0.0339
637.9737	0.0076
638.161	0.0121
638.3484	-0.002
638.5357	0.0074
638.723	0.0103
638.9103	-0.0043
639.0975	0.0079
639.2848	0.0215
639.472	0.0149
639.6592	-0.0062
639.8464	0.0009
640.0336	0.0176
640.2208	0.011
640.4079	0.0055
640.595	-0.0017
640.7821	0.0179
640.9692	0.0035
641.1563	0.0032
641.3434	0.0049
641.5304	0.0127
641.7174	0.0192
641.9044	0.0172
642.0914	0.0391
642.2784	0.0081
642.4653	-0.0026
642.6523	0.013
642.8392	0.0076
643.0261	0.0108
643.213	0.0061
643.3999	0.0302
643.5867	0.0124
643.7735	0.022
643.9604	0.0209
644.1472	0.0335
644.3339	-0.003
644.5207	0.0171
644.7075	0.0067
644.8942	-0.0114
645.0809	0.0047
645.2676	-0.0119
645.4543	0.0016
645.6409	0.0262
645.8276	0.0241
646.0142	0.0229
646.2008	-0.0101
646.3874	0.0002
646.574	0.0034
646.7605	0.0231
646.9471	0.008
647.1336	-0.0138
647.3201	0.0139
647.5066	0.005
647.6931	0.0105
647.8795	0.0261
648.0659	0.0321
648.2524	0.0225
648.4388	0.0077
648.6252	0.0164
648.8115	0.0059
648.9979	0.0184
649.1842	0.0153
649.3705	0.0156
649.5568	0.0112
649.7431	0.0124
649.9294	0.002
650.1156	0.0007
650.3018	0.0187
650.488	0.0077
650.6742	0.0215
650.8604	0.0034
651.0466	0.0046
651.2327	0.0137
651.4188	0.013
651.6049	0.0159
651.791	0.0072
651.9771	-0.0015
652.1632	0.007
652.3492	0.0074
652.5352	0.0218
652.7212	0.0076
652.9072	0.0187
653.0932	0.0033
653.2791	0.0221
653.465	0.0097
653.651	0.0097
653.8369	0.0052
654.0227	0.0051
654.2086	0.0194
654.3944	0.0197
654.5803	0.0144
654.7661	0.0062
654.9519	0.0002
655.1377	0.0002
655.3234	0.0002
655.5092	0.0002
655.6949	0.0002
655.8806	0.0002
656.0663	0.0002
656.2519	0.0002
656.4376	0.0002
656.6232	0.0002
656.8088	0.0002
656.9945	0.0002
657.18	0.0002
657.3656	0.0002
657.5511	0.0002
657.7367	0.0002
657.9222	0.0002
658.1077	0.0002
658.2932	0.0002
658.4786	0.0002
658.6641	0.0002
658.8495	0.0002
659.0349	0.0002
659.2203	0.0002
659.4057	0.0145
659.591	0.2943
659.7764	0.0379
659.9617	0.0256
660.147	0.0167
660.3323	0.0306
660.5176	0.0257
660.7028	-0.0001
660.888	0.0075
661.0733	0.0316
661.2585	-0.0129
661.4436	0.0165
661.6288	0.0197
661.8139	0.0127
661.9991	-0.0008
662.1842	0.0071
662.3693	0.0197
662.5544	0.0191
662.7394	0.0225
662.9245	0.0043
663.1095	0.0111
663.2945	-0.0101
663.4795	0.0152
663.6644	0.0142
663.8494	0.0177
664.0343	0.0174
664.2193	-0.0009
664.4042	0.017
664.589	0.0114
664.7739	0.0182
664.9587	-0.0047
665.1436	-0.0035
665.3284	0.0241
665.5132	-0.0116
665.698	0.0217
665.8827	0.0194
666.0675	-0.0097
666.2522	0.0231
666.4369	0.0131
666.6216	0.0151
666.8063	0.0172
666.9909	0.0256
667.1756	-0.0014
667.3602	0.0062
667.5448	0.0309
667.7294	0.0252
667.9139	0.0027
668.0985	0.0218
668.283	0.0064
668.4675	0.0261
668.652	0.0123
668.8365	0.0185
669.0209	-0.0017
669.2054	0.0086
669.3898	-0.0026
669.5742	0.0252
669.7586	0.0237
669.943	0.0051
670.1273	-0.0042
670.3117	0.0224
670.496	0.0015
670.6803	0.0124
670.8646	0.0066
671.0488	0.041
671.2331	-0.0102
671.4173	0.0095
671.6015	0.0212
671.7857	0.0053
671.9699	0.0166
672.1541	0.011
672.3382	0.0029
672.5223	0.0155
672.7064	0.0004
672.8905	-0.0199
673.0746	0.0146
673.2587	0.013
673.4427	0.0196
673.6267	0.0073
673.8107	0.0114
673.9947	0.0109
674.1787	0.0144
674.3626	0.0062
674.5465	0.0204
674.7304	0.0025
674.9143	0.0254
675.0982	0.0058
675.2821	0.0122
675.4659	0.0002
675.6497	-0.0039
675.8335	-0.006
676.0173	0.007
676.2011	0.0151
676.3849	0.0173
676.5686	0.0382
676.7523	0.0089
676.936	0.0026
677.1197	0.0144
677.3034	0.0326
677.487	0.0117
677.6706	0.0174
677.8542	0.0104
678.0378	0.0136
678.2214	0.0109
678.405	-0.001
678.5885	0.0228
678.772	0.003
678.9555	0.0101
679.139	0.0294
679.3225	-0.0036
679.5059	0.0059
679.6894	0.0217
679.8728	0.0263
680.0562	0.0123
680.2395	-0.0098
680.4229	0.0159
680.6062	-0.0108
680.7896	0.0029
680.9729	0.0255
681.1562	0.0121
681.3394	0.0172
681.5227	0.0245
681.7059	0.0202
681.8891	0.0179
682.0723	-0.0048
682.2555	0.0065
682.4387	0.0054
682.6218	0.0147
682.805	0.0174
682.9881	0.0194
683.1712	0.0166
683.3542	0.0311
683.5373	0.0023
683.7203	0.0132
683.9034	0.0042
684.0864	0.0077
684.2694	0.0095
684.4523	0.0032
684.6353	0.0064
684.8182	0.0027
685.0011	0.0228
685.184	0.0043
685.3669	0.012
685.5498	0.017
685.7326	0.0051
685.9154	0.0088
686.0982	0.0192
686.281	0.0145
686.4638	0.0188
686.6465	0.0102
686.8293	-0.0021
687.012	0.0167
687.1947	0.0087
687.3774	0.0133
687.56	0.0093
687.7427	0.0047
687.9253	-0.0206
688.1079	0.0458
688.2905	0.0017
688.4731	0.0095
688.6556	-0.0152
688.8382	-0.0218
689.0207	0.003
689.2032	0.0253
689.3857	0.0052
689.5681	0.0055
689.7506	0.0419
689.933	0.0108
690.1154	0.0117
690.2978	0.0163
690.4802	0.0288
690.6626	0.013
690.8449	0.0155
691.0272	0.0029
691.2095	-0.0199
691.3918	0.0065
691.5741	-0.0027
691.7563	0.0205
691.9386	0.0203
692.1208	0.0091
692.303	-0.0058
692.4852	0.0086
692.6673	0.0075
692.8495	-0.0032
693.0316	0.0028
693.2137	0.0067
693.3958	0.0149
693.5778	0.0044
693.7599	0.0009
693.9419	-0.0049
694.1239	0.0188
694.3059	0.0315
694.4879	-0.0023
694.6699	0.0042
694.8518	0.0037
695.0337	0.025
695.2157	0.0546
695.3975	0.0122
695.5794	-0.0151
695.7613	0.0128
695.9431	0.0123
696.1249	0.0317
696.3067	0.0137
696.4885	0.0223
696.6703	-0.0013
696.852	0.004
697.0337	0.0265
697.2154	0.0229
697.3971	0.02
697.5788	0.0296
697.7605	0.0092
697.9421	0.0252
698.1237	0.0145
698.3053	0.0082
698.4869	0.0107
698.6685	-0.0048
698.85	0.0386
699.0315	-0.0063
699.213	0.0126
699.3945	0.0189
699.576	0.0123
699.7575	0.0192
699.9389	0.0223
700.1203	0.0178
700.3017	-0.0059
700.4831	0.0242
700.6645	0.0363
700.8458	0.0177
701.0271	0.0387
701.2084	0.0215
701.3897	0.0093
701.571	-0.0061
701.7523	0.0218
701.9335	0.0183
702.1147	0.0262
702.2959	-0.0001
702.4771	0.026
702.6583	0.0163
702.8394	0.0026
703.0205	0.0082
703.2016	0.0006
703.3827	0.0277
703.5638	0.0079
703.7449	0.0099
703.9259	0.0313
704.1069	-0.0102
704.2879	0.0341
704.4689	0.0169
704.6499	0.048
704.8308	0.015
705.0117	0.0321
705.1927	0.04
705.3735	0.0086
705.5544	0.0296
705.7353	0.0028
705.9161	-0.0205
706.0969	0.0134
706.2777	0.0152
706.4585	0.015
706.6393	0.0118
706.82	0.0073
707.0007	0.0112
707.1815	0.0043
707.3621	0.0471
707.5428	0.0033
707.7235	0.0102
707.9041	0.0273
708.0847	0.0075
708.2653	0.0356
708.4459	0.0228
708.6265	0.0135
708.807	-0.0039
708.9875	-0.0001
709.168	0.0183
709.3485	0.0134
709.529	0.0209
709.7095	-0.0143
709.8899	0.0224
710.0703	0.0337
710.2507	0.0065
710.4311	0.0009
710.6115	0.0313
710.7918	0.0217
710.9721	0.0176
711.1524	-0.0132
711.3327	-0.0174
711.513	-0.0131
711.6932	0.005
711.8735	0.0325
712.0537	-0.0062
712.2339	0.0084
712.4141	0.0321
712.5942	0.0087
712.7744	0.0233
712.9545	0.0044
713.1346	0.0296
713.3147	0.0233
713.4947	0.0086
713.6748	0.0042
713.8548	0.005
714.0348	0.0107
714.2148	0.0033
714.3948	0.0136
714.5748	0.025
714.7547	0.0255
714.9346	0.0322
715.1145	0.0009
715.2944	-0.0041
715.4743	0.0288
715.6541	0.0107
715.834	0.0281
716.0138	-0.0091
716.1936	0.0031
716.3733	0.0157
716.5531	0.0086
716.7328	0.0271
716.9126	0.0236
717.0923	-0.0288
717.2719	0.0236
717.4516	0.0015
717.6312	0.0173
717.8109	0.0298
717.9905	0.0148
718.1701	0.0435
718.3496	0.0254
718.5292	0.0133
718.7087	-0.0045
718.8882	0.0454
719.0677	-0.0037
719.2472	0.0003
719.4267	-0.0207
719.6061	-0.0031
719.7856	0.0506
719.965	0.0007
720.1443	-0.0177
720.3237	-0.0083
720.5031	-0.0031
720.6824	0.0099
720.8617	-0.0053
721.041	0.0252
721.2203	0.006
721.3995	0.0011
721.5788	0.0003
721.758	-0.0096
721.9372	0.0101
722.1164	0.002
722.2956	0.0128
722.4747	0.0132
722.6538	0.0052
722.8329	0.0375
723.012	-0.0043
723.1911	0.0067
723.3702	0.0442
723.5492	-0.0202
723.7282	0.0224
723.9072	0.0335
724.0862	0.0035
724.2652	0.0214
724.4441	0.0238
724.623	0.0003
724.8019	0.01
724.9808	0.0365
725.1597	0.0061
725.3385	0.0178
725.5174	0.006
725.6962	0.003
725.875	0.0304
726.0538	0.0356
726.2325	0.0561
726.4112	-0.0148
726.59	-0.0204
726.7687	-0.0091
726.9474	0.0296
727.126	0.0613
727.3047	0.0107
727.4833	0.0299
727.6619	-0.0079
727.8405	0.017
728.0191	0.0431
728.1976	0.0176
728.3762	0.0167
728.5547	0.0177
728.7332	0.0284
728.9116	0.0003
729.0901	0.0006
729.2686	0.0189
729.447	0.0076
729.6254	0.0088
729.8038	0.0127
729.9821	-0.0001
730.1605	0.0174
730.3388	-0.0155
730.5171	0.0089
730.6954	-0.0015
730.8737	0.0135
731.0519	0.0025
731.2302	0.0233
731.4084	0.0288
731.5866	-0.003
731.7648	0.0038
731.9429	0.0265
732.1211	0.0011
732.2992	0.0081
732.4773	-0.0035
732.6554	-0.0205
732.8335	0.0425
733.0115	0.0302
733.1896	0.0086
733.3676	0.0191
733.5456	0.0043
733.7235	0.0017
733.9015	0.0138
734.0794	0.0163
734.2574	-0.017
734.4353	0.0143
734.6131	0.0101
734.791	0.007
734.9689	0.0065
735.1467	-0.0123
735.3245	0.0386
735.5023	0.0046
735.68	0.0155
735.8578	0.0127
736.0355	0.0165
736.2132	0.0183
736.3909	-0.0006
736.5686	0.0029
736.7463	0.0019
736.9239	0.0221
737.1015	0.0245
737.2791	0.0237
737.4567	0.0158
737.6343	0.017
737.8118	0.0142
737.9894	0.0142
738.1669	0.0039
738.3444	0.019
738.5218	-0.0141
738.6993	0.0161
738.8767	0.0002
739.0541	0.0188
739.2315	-0.0017
739.4089	0.0279
739.5863	0.0187
739.7636	-0.009
739.9409	0.0128
740.1182	0.0265
740.2955	0.033
740.4728	-0.0133
740.65	-0.0157
740.8272	0.0373
741.0044	0.0155
741.1816	0.0328
741.3588	0.0053
741.5359	-0.0076
741.7131	-0.0114
741.8902	0.0116
742.0673	-0.0115
742.2444	0.052
742.4214	0.0114
742.5985	0.0016
742.7755	0.0153
742.9525	-0.0058
743.1295	0.0009
743.3064	0.0013
743.4834	0.0388
743.6603	0.0264
743.8372	-0.0219
744.0141	0.0345
744.191	-0.0034
744.3678	-0.0016
744.5446	0.0118
744.7215	0.0008
744.8982	0.0418
745.075	0.0645
745.2518	0.0137
745.4285	0.0388
745.6052	-0.0258
745.7819	0.0175
745.9586	0.023
746.1353	-0.0146
746.3119	0.0128
746.4885	0.0211
746.6651	0.0256
746.8417	0.0219
747.0183	0.0425
747.1948	0.0261
747.3714	0.0391
747.5479	0.0345
747.7244	-0.0129
747.9008	0.0123
748.0773	0.0534
748.2537	0.0242
748.4301	0.0092
748.6065	0.0231
748.7829	-0.0193
748.9593	0.008
749.1356	-0.0011
749.3119	0.0271
749.4882	0.0207
749.6645	0.0084
749.8408	0.0297
750.017	0.0289
750.1933	0.0085
750.3695	0.0006
750.5457	-0.0001
750.7218	0.0099
750.898	0.0009
751.0741	-0.0014
751.2502	0.0118
751.4263	0.0286
751.6024	0.0188
751.7784	0.0123
751.9545	0.0249
752.1305	0.0188
752.3065	0.0085
752.4825	-0.0104
752.6584	0.026
752.8344	0.0292
753.0103	-0.0122
753.1862	0.0092
753.3621	0.0022
753.5379	0.0135
753.7138	-0.0008
753.8896	-0.0043
754.0654	0.0073
754.2412	0.0186
754.417	0.0125
754.5927	0.0226
754.7685	-0.0026
754.9442	0.022
755.1199	0.0135
755.2956	0.0212
755.4712	0.0102
755.6469	0.0175
755.8225	-0.0086
755.9981	0.0132
756.1736	-0.001
756.3492	0.0135
756.5248	0.0201
756.7003	-0.0014
756.8758	0.0275
757.0513	-0.0027
757.2267	0.0232
757.4022	0.0017
757.5776	0.0084
757.753	0.021
757.9284	0.0075
758.1038	0.0406
758.2791	0.038
758.4545	-0.0058
758.6298	0.0048
758.8051	0.0103
758.9803	0.0091
759.1556	-0.0021
759.3308	0.0013
759.506	0.0024
759.6812	0.0094
759.8564	0.0054
760.0316	-0.0084
760.2067	0.019
760.3819	0.0103
760.557	-0.009
760.732	0.0204
760.9071	0.0338
761.0821	0.0005
761.2572	0.0086
761.4322	0.0236
761.6072	0.0294
761.7821	-0.025
761.9571	0.0576
762.132	-0.0012
762.3069	0.0278
762.4818	0.0126
762.6567	-0.0116
762.8316	0.0136
763.0064	0.0218
763.1812	0.0049
763.356	0.0098
763.5308	0.0177
763.7055	0.0021
763.8803	0.0076
764.055	0.0056
764.2297	-0.0103
764.4044	0.0229
764.579	-0.0021
764.7537	0.0082
764.9283	0.0104
765.1029	0.0094
765.2775	0.0357
765.4521	0.0099
765.6266	0.0155
765.8011	0.0179
765.9756	0.0161
766.1501	0.011
766.3246	0.0304
766.4991	0.0155
766.6735	0.0526
766.8479	-0.0012
767.0223	0.0194
767.1967	-0.008
767.371	0.0426
767.5454	0.0161
767.7197	0.0425
767.894	0.0218
768.0683	0.0235
768.2425	0.0102
768.4168	0.0331
768.591	0.0084
768.7652	0.0022
768.9394	-0.0142
769.1135	-0.0204
769.2877	0.0007
769.4618	0.0439
769.6359	0.0045
769.81	0.004
769.984	-0.0053
770.1581	0.0358
770.3321	0.0331
770.5061	-0.0138
770.6801	0.0059
770.8541	0.0161
771.028	0.0621
771.202	0.0335
771.3759	0.014
771.5498	0.0218
771.7236	0.0167
771.8975	0.0171
772.0713	0.0371
772.2451	-0.0021
772.4189	0.0132
772.5927	-0.0153
772.7665	0.0245
772.9402	0.0422
773.1139	-0.0148
773.2876	-0.019
773.4613	0.0449
773.635	0.0459
773.8086	0.0449
773.9822	0.0095
774.1558	0.0655
774.3294	0.015
774.503	0.0366
774.6765	0.0502
774.8501	0.0033
775.0236	0.0673
775.1971	0.0193
775.3705	-0.0041
775.544	-0.035
775.7174	-0.0018
775.8908	-0.0054
776.0642	0.0322
776.2376	0.0176
776.4109	0.0041
776.5843	0.0095
776.7576	-0.0094
776.9309	-0.0117
777.1041	-0.0193
777.2774	-0.0196
777.4506	-0.0162
777.6238	0.0122
777.797	0.0296
777.9702	0.0199
778.1434	0.0286
778.3165	-0.0159
778.4896	-0.0138
778.6627	0.0181
778.8358	0.0098
779.0089	-0.0325
779.1819	0.0456
779.3549	0.0285
779.5279	-0.0028
779.7009	0.061
779.8739	0.0253
780.0468	-0.0058
780.2197	0.0461
780.3926	-0.0168
780.5655	0.0301
780.7384	0.0156
780.9112	0.022
781.0841	0.0365
781.2569	0.0155
781.4297	0.0364
781.6024	0.0204
781.7752	0.0551
781.9479	0.058
782.1206	0.016
782.2933	0.0172
782.466	0.0376
782.6386	-0.0036
782.8113	0.0069
782.9839	0.0178
783.1565	0.0201
783.329	0.0098
783.5016	0.0033
783.6741	-0.0146
783.8466	0.0408
784.0191	0.0288
784.1916	-0.0049
784.3641	-0.0139
784.5365	0.0177
784.7089	-0.03
784.8813	0.0577
785.0537	0.0074
785.2261	-0.0162
785.3984	0.0103
785.5707	-0.0097
785.743	0.0595
785.9153	-0.0039
786.0876	-0.0605
786.2598	-0.0054
786.432	0.0266
786.6042	0.0599
786.7764	-0.0197
786.9486	-0.0104
787.1207	0.0412
787.2928	0.0093
787.4649	-0.0059
787.637	0.0148
787.8091	0.0326
787.9811	0.0481
788.1532	0.0079
788.3252	0.0244
788.4972	0.0259
788.6691	0.0063
788.8411	0.024
789.013	0.0061
789.1849	-0.0016
789.3568	0.035
789.5287	0.0729
789.7005	0.026
789.8723	0.0298
790.0442	-0.0197
790.2159	0.0375
790.3877	0.0556
790.5595	0.0354
790.7312	0.0297
790.9029	-0.0023
791.0746	0.01
791.2463	-0.0218
791.4179	0.0488
791.5896	0.0654
791.7612	0.0362
791.9328	0.0175
792.1044	0.002
792.2759	-0.0197
792.4474	-0.0207
792.619	0.029
792.7905	-0.0014
792.9619	0.0455
793.1334	0.0955
793.3048	0.0203
793.4762	0.0384
793.6476	-0.0285
793.819	0.0038
793.9904	0.0267
794.1617	0.0067
794.333	0.001
794.5043	0.07
794.6756	0.0211
794.8469	0.0066
795.0181	0.0386
795.1893	0.0235
795.3605	0.0224
795.5317	-0.0271
795.7029	0.0143
795.874	0.046
796.0452	0.0491
796.2163	0.037
796.3873	0.0703
796.5584	-0.0068
796.7294	0.0289
796.9005	0.0642
797.0715	-0.0701
797.2425	0.1058
797.4134	0.1006
797.5844	0.0593
797.7553	-0.0571
797.9262	0.0977
798.0971	0.0538
798.2679	-0.0273
798.4388	0.06
798.6096	0.0426
798.7804	0.0058
798.9512	0.0569
799.122	0.0485
799.2927	0.0119
799.4635	-0.0726
799.6342	-0.0125
799.8049	0.0495
799.9755	0.0111
800.1462	0.0803
800.3168	0.0144
800.4874	-0.0878
800.658	0.1198
800.8286	0.102
800.9991	-0.0437
801.1696	0.0313
801.3402	0.0285
801.5106	-0.0047
801.6811	-0.0616
801.8516	0.0898
802.022	0.0557
802.1924	0.0164
802.3628	0.1104
802.5332	0.0668
802.7035	0.0849
802.8739	-0.0101
803.0442	-0.0895
803.2145	0.1149
803.3847	0.0435
803.555	0.0761
803.7252	-0.0491
803.8954	0.039
804.0656	0.0309
804.2358	0.0641
804.4059	0.0539
804.5761	-0.0024
804.7462	-0.0508
804.9163	0.0637
805.0864	-0.0107
805.2564	0.0309
805.4264	0.0428
805.5965	0.1696
805.7665	0.0394
805.9364	0.0776
806.1064	-0.0049
806.2763	0.023
806.4462	0.0265
806.6161	0.0401
806.786	0.015
806.9559	0.0217
807.1257	0.0028
807.2955	-0.0158
807.4653	0.0192
807.6351	0.0843
807.8048	0.0852
807.9746	0.0482
808.1443	-0.0044
808.314	0.0213
808.4837	0.0742
808.6533	-0.0217
808.8229	0.0052
808.9926	0.0191
809.1622	0.0389
809.3317	0.0118
809.5013	0.0032
809.6708	-0.0324
809.8403	0.0456
810.0098	0.0728
810.1793	0.0551
810.3488	0.0294
810.5182	0.1246
810.6876	0.0254
810.857	-0.0304
811.0264	-0.0154
811.1958	0.1786
811.3651	-0.0388
811.5344	0.1913
811.7037	0.0184
811.873	0.1618
812.0422	-0.0853
812.2115	0.0512
812.3807	-0.0008
812.5499	0.0179
812.7191	-0.0406
812.8882	-0.1132
813.0574	0.1116
813.2265	0.0797
813.3956	0.0143
813.5646	0.0981
813.7337	0.1252
813.9027	-0.0205
814.0718	0.0583
814.2407	0.0278
814.4097	0.1251
814.5787	0.0727
814.7476	0.004
814.9165	0.0921
815.0854	-0.047
815.2543	0.0113
815.4232	0.1119
815.592	-0.0274
815.7608	0.0735
815.9296	0.1927
816.0984	0.4122
816.2671	-0.4162
816.4359	0.1347
816.6046	0.0577
816.7733	-0.0761
816.942	-0.065
817.1106	0.0879
817.2793	-0.0648
817.4479	0.0735
817.6165	0.0594
817.785	0.0649
817.9536	-0.1017
818.1221	0.0759
818.2906	-0.1019
818.4591	0.0389
818.6276	-0.0127
818.7961	0.022
818.9645	-0.0277
819.1329	0.2531
819.3013	0.0753
819.4697	0.063
819.638	0.072
819.8064	0.0125
819.9747	0.1276
820.143	-0.1151
820.3113	0.1512
820.4795	0.128
820.6477	0.1689
820.816	0.0676
820.9842	0.1444
821.1523	0.075
821.3205	-0.0085
821.4886	0.0381
821.6567	-0.0262
821.8248	0.1315
821.9929	-0.1067
822.1609	-0.0108
822.329	0.1136
822.497	0.1302
822.665	0.0362
822.833	0.1292
823.0009	-0.1277
823.1688	0.0981
823.3367	-0.1493
823.5046	0.1825
823.6725	-0.0008
823.8404	0.1801
824.0082	-0.0836
824.176	0.1392
824.3438	0.5865
824.5116	-0.0434
824.6793	0.226
824.847	-0.1641
825.0147	0.0153
825.1824	0.0345
825.3501	-0.0395
825.5177	0.043
825.6854	-0.0256
825.853	0.0392
826.0206	-0.0354
826.1881	-0.0585
826.3557	0.0805
826.5232	0.1941
826.6907	0.0518
826.8582	-0.0895
827.0257	0.3914
827.1931	-0.0007
827.3605	-0.0375
827.528	-0.0772
827.6953	-0.0922
827.8627	-0.0934
828.03	0.1295
828.1974	0.0679
828.3647	0.1164
828.532	0.0536
828.6992	0.1536
828.8665	-0.1442
829.0337	-0.0471
829.2009	-0.073
829.3681	0.0391
829.5352	-0.1674
829.7024	0.1359
829.8695	0.0106
830.0366	0.2508
830.2037	-0.006
830.3707	0.0279
830.5378	-0.0069
830.7048	-0.0812
830.8718	-0.0011
831.0388	0.1806
831.2057	0.06
831.3727	-0.0453
831.5396	0.1208
831.7065	-0.9114
831.8734	-0
832.0402	0.3576
832.2071	-0.1874
832.3739	-0.2019
832.5407	-1.9138
832.7075	-0.4311
832.8742	-0
833.041	0.3931
833.2077	0.4896
833.3744	0.2159
833.541	-0.0012
833.7077	-0.1012
833.8743	0.1838
834.0409	0.2808
834.2075	0.0812
834.3741	-0.164
834.5407	0.4907
834.7072	0.224
834.8737	0.3779
835.0402	-0
835.2067	0.1106
835.3731	0.0264
835.5395	0.0296
835.706	0.0514
835.8723	0.0418
836.0387	0.3535
836.2051	-0.0622
836.3714	0.1716
836.5377	0.248
836.704	0.5853
836.8703	-0.1683
837.0365	-0.6744
837.2027	-0.0326
837.3689	0.824
837.5351	0.3843
837.7013	-0.1791
837.8674	-0.1754
838.0335	0.048
838.1997	0.2359
838.3657	-0.0637
838.5318	-0.3124
838.6978	-0
838.8639	-0.6986
839.0299	-0.053
839.1958	0.0322
839.3618	0.4399
839.5277	0.3333
839.6937	-0.0957
839.8596	0.0421
840.0254	-0.1377
840.1913	-0.3155
840.3571	0.0614
840.523	-0
840.6888	0.0046
840.8545	1.243
841.0203	0.0866
841.186	0.0449
841.3517	-0.0787
841.5174	0.0919
841.6831	0.0183
841.8488	0.0064
842.0144	0.1745
842.18	0.4122
842.3456	-0.3892
842.5112	-1.1944
842.6767	0.0936
842.8422	0.0731
843.0077	0.3588
843.1732	-0.4094
843.3387	0.1544
843.5042	-0
843.6696	0.117
843.835	0.9553
844.0004	-0.3242
844.1657	-1.1955
844.3311	0.2
844.4964	-0.7081
844.6617	0.3801
844.827	-0
844.9923	0.4229
845.1575	-0.2199
845.3227	-0.005
845.4879	-0.2891
845.6531	0.9115
845.8183	0.3189
845.9834	1.2638
846.1485	0.1239
846.3136	0.0457
846.4787	-0
846.6438	-0.2099
846.8088	0.2808
846.9738	-0
847.1388	-0.0398
847.3038	0.3773
847.4687	0.4311
847.6337	-0.6459
847.7986	-0.3057
847.9635	0.0191
848.1284	-0
848.2932	0.1132
848.458	-0
848.6228	-0
848.7876	0.1401
848.9524	1.2122
849.1172	-1.9228
849.2819	-0
849.4466	0.7139
849.6113	0.1512
849.7759	-0
849.9406	-0.2289
850.1052	0.2788
850.2698	-0
850.4344	-0.4973
850.599	0.1409
850.7635	-0.1815
850.928	0.3353
851.0925	0.2773
851.257	-0
851.4215	0.1269
851.5859	0.0989
851.7503	0.8033
851.9147	0.2699
852.0791	0.4778
852.2434	0.8772
852.4078	-0
852.5721	-0
852.7364	0.344
852.9007	0.141
853.0649	-0
853.2291	0.2237
853.3934	-0
853.5575	0.2164
853.7217	0.4151
853.8859	-0
854.05	0.4105
854.2141	0.2089
854.3782	-0.134
854.5423	0.2103
854.7063	0.3291
854.8703	0.1493
855.0343	-0.0729
855.1983	-0.0238
855.3623	0.042
855.5262	0.0067
855.6901	0.2769
855.854	0.3005
856.0179	-0
856.1818	-0
856.3456	0.2801
856.5094	-0.6206
856.6732	-0
856.837	-1.5112
857.0008	-0
857.1645	0.7083
857.3282	-0.6611
857.4919	-0.0865
857.6556	-0.2439
857.8192	0.3001
857.9828	-0.3158
858.1465	0.0371
858.31	0.6684
858.4736	-0.7543
858.6372	-0
858.8007	0.3393
858.9642	1.1942
859.1277	0.4108
859.2911	-0.1047
859.4546	-1.4281
859.618	0.0774
859.7814	-0.5325
859.9448	-0
860.1081	-0.3064
860.2715	-0
860.4348	-0
860.5981	-0
860.7614	-0
860.9246	0.7602
861.0879	0.7518
861.2511	-0.7006
861.4143	-0
861.5774	-0.379
861.7406	-0.2079
861.9037	-0
862.0668	-0
862.2299	0.6902
862.393	0.5021
862.556	-0.1074
862.7191	-0.0069
862.8821	0.0576
863.0451	-0
863.208	-0
863.371	-0.2376
863.5339	0.8479
863.6968	-0
863.8597	-0
864.0225	-0.0637
864.1854	0.1215
864.3482	-1.1881
864.511	-0.0766
864.6737	-0
864.8365	0.3562
864.9992	-0
865.1619	-0
865.3246	-1.7259
865.4873	-0
865.65	-0
865.8126	-0
865.9752	1.4698
866.1378	0.9549
866.3004	0.1812
866.4629	-1.9402
866.6254	-0
866.7879	0.1139
866.9504	-0.4472
867.1129	-0.0623
867.2753	-0.0541
867.4377	0.2849
867.6001	-0.4206
867.7625	0.2389
867.9249	0.3611
868.0872	-0
868.2495	-0
868.4118	-0
868.5741	-0.2376
868.7363	-0
868.8986	-0.7665
869.0608	-0
869.223	0.0599
869.3851	-0
869.5473	0.5631
869.7094	0.7248
869.8715	-0
870.0336	0.1779
870.1957	-0
870.3577	-0
870.5197	1.1341
870.6817	-0.5003
870.8437	-0.0539
871.0057	-0
871.1676	0.2327
871.3295	-0
871.4914	-1.7259
871.6533	-0.4425
871.8151	0.652
871.977	-0.3616
872.1388	-0.3878
872.3006	-0
872.4623	-0
872.6241	-0
872.7858	0.4124
872.9475	-0
873.1092	0.7843
873.2709	0.4206
873.4325	-0
873.5941	-0.5255
873.7557	-0
873.9173	0.7868
874.0789	1.0835
874.2404	-0
874.4019	-0.0591
874.5634	0.6223
874.7249	0.8875
874.8863	0.1558
875.0478	-0.1667
875.2092	0.4589
875.3706	0.9894
875.5319	-0.1499
875.6933	-0
875.8546	-0
876.0159	0.278
876.1772	-0
876.3385	-0
876.4997	-0
876.6609	0.789
876.8221	-0
876.9833	0.0459
877.1445	0.569
877.3056	-0.9464
877.4667	-0.7257
877.6278	-0
877.7889	-0.1584
877.9499	-0
878.111	-0.4877
878.272	-0.2024
878.433	-0
878.5939	0.4967
878.7549	-0.1031
878.9158	-0
879.0767	-0.3309
879.2376	-0
879.3984	0.6594
879.5593	-0
879.7201	-0
879.8809	-0
880.0417	-0.0335
880.2024	-0
880.3632	0.8006
880.5239	0.3585
880.6846	-0.5827
880.8452	-0.2177
881.0059	-0.8627
881.1665	-0.1127
881.3271	-0.0266
881.4877	-0
881.6483	-1.3283
881.8088	-0
881.9693	-0
882.1298	-0
882.2903	-0
