Data from D4ACN5uM420nmA_Absorbance_14-37-09-233.txt Node
Date: Fri Feb 21 14:37:09 GMT 2025
User: LASERRRRR
Spectrometer: FLMT03099
Trigger mode: 0
Integration Time (sec): 1.500000E-2
Scans to average: 1
Electric dark correction enabled: true
Nonlinearity correction enabled: false
Boxcar width: 0
XAxis mode: Wavelengths
Number of Pixels in Spectrum: 3648
>>>>>Begin Spectral Data<<<<<
179.3399	-0.0538
179.5586	-0.0538
179.7771	-0.0538
179.9957	-0.1009
180.2143	-1.1139
180.4329	-0
180.6514	-0
180.8699	0.3292
181.0885	-0
181.307	0.2588
181.5255	0.0957
181.744	-0.1099
181.9625	0.7259
182.181	0.1661
182.3994	-0.5015
182.6179	-0.4641
182.8363	-0
183.0547	0.275
183.2732	0.0963
183.4916	0.2456
183.71	0.3416
183.9284	0.0379
184.1467	-0
184.3651	0.031
184.5835	0.172
184.8018	-0.0037
185.0201	0.3147
185.2385	0.2018
185.4568	0.1934
185.6751	0.1998
185.8934	0.154
186.1117	0.292
186.3299	0.104
186.5482	0.0945
186.7664	0.1312
186.9847	0.322
187.2029	-0.0042
187.4211	0.1879
187.6393	0.5165
187.8575	0.194
188.0757	0.4285
188.2939	0.0757
188.512	0.2102
188.7302	0.2297
188.9483	0.3963
189.1665	0.3755
189.3846	0.0402
189.6027	0.12
189.8208	0.3167
190.0389	0.1671
190.257	0.0264
190.475	-0.0577
190.6931	0.0286
190.9111	0.255
191.1292	0.09
191.3472	0.0632
191.5652	0.1187
191.7832	0.1754
192.0012	0.1732
192.2192	0.0894
192.4371	0.0914
192.6551	0.1942
192.873	0.166
193.091	0.0793
193.3089	0.2269
193.5268	0.2212
193.7447	0.1313
193.9626	0.1523
194.1805	0.1587
194.3984	0.1606
194.6162	0.2533
194.8341	0.2362
195.0519	0.2295
195.2697	0.2341
195.4875	0.3004
195.7054	0.2745
195.9231	0.2298
196.1409	0.2863
196.3587	0.3046
196.5765	0.3027
196.7942	0.3216
197.012	0.4171
197.2297	0.2915
197.4474	0.3492
197.6651	0.3279
197.8828	0.3305
198.1005	0.4519
198.3182	0.3674
198.5358	0.3518
198.7535	0.4039
198.9711	0.3478
199.1888	0.3247
199.4064	0.4302
199.624	0.4018
199.8416	0.3386
200.0592	0.3767
200.2767	0.3851
200.4943	0.4418
200.7119	0.4046
200.9294	0.4206
201.1469	0.4504
201.3645	0.502
201.582	0.4002
201.7995	0.3969
202.017	0.3911
202.2344	0.4112
202.4519	0.4222
202.6694	0.3776
202.8868	0.3909
203.1042	0.4106
203.3217	0.3435
203.5391	0.3887
203.7565	0.3285
203.9739	0.3629
204.1913	0.3416
204.4086	0.3598
204.626	0.3564
204.8433	0.3391
205.0607	0.3473
205.278	0.3312
205.4953	0.3152
205.7126	0.3161
205.9299	0.3157
206.1472	0.3405
206.3644	0.326
206.5817	0.3073
206.7989	0.3376
207.0162	0.2966
207.2334	0.306
207.4506	0.3042
207.6678	0.3032
207.885	0.2915
208.1022	0.3197
208.3194	0.3142
208.5365	0.2883
208.7537	0.3028
208.9708	0.2991
209.1879	0.2867
209.405	0.2702
209.6222	0.2594
209.8392	0.2889
210.0563	0.2804
210.2734	0.2717
210.4905	0.2663
210.7075	0.244
210.9245	0.2678
211.1416	0.278
211.3586	0.273
211.5756	0.2425
211.7926	0.2552
212.0096	0.2634
212.2265	0.2588
212.4435	0.2368
212.6604	0.2264
212.8774	0.2449
213.0943	0.2396
213.3112	0.2314
213.5281	0.2521
213.745	0.2322
213.9619	0.2331
214.1788	0.2558
214.3956	0.2538
214.6125	0.2343
214.8293	0.2382
215.0461	0.2444
215.2629	0.2478
215.4798	0.236
215.6965	0.2289
215.9133	0.2235
216.1301	0.2362
216.3469	0.2556
216.5636	0.2375
216.7803	0.2359
216.9971	0.2354
217.2138	0.2444
217.4305	0.2444
217.6472	0.2302
217.8639	0.2356
218.0805	0.2493
218.2972	0.2156
218.5138	0.243
218.7305	0.2378
218.9471	0.231
219.1637	0.2503
219.3803	0.2432
219.5969	0.2453
219.8135	0.252
220.0301	0.2522
220.2466	0.2645
220.4632	0.2516
220.6797	0.2467
220.8962	0.2513
221.1127	0.2519
221.3292	0.2663
221.5457	0.2709
221.7622	0.27
221.9787	0.2739
222.1951	0.2627
222.4116	0.2493
222.628	0.2641
222.8444	0.2839
223.0608	0.2735
223.2772	0.2802
223.4936	0.2772
223.71	0.2744
223.9264	0.2817
224.1427	0.2759
224.3591	0.2772
224.5754	0.2959
224.7917	0.2849
225.008	0.2875
225.2243	0.2908
225.4406	0.2859
225.6569	0.3034
225.8732	0.3003
226.0894	0.2995
226.3057	0.2995
226.5219	0.3051
226.7381	0.3134
226.9543	0.3038
227.1705	0.3096
227.3867	0.3175
227.6029	0.3325
227.8191	0.3298
228.0352	0.3355
228.2513	0.3532
228.4675	0.3418
228.6836	0.347
228.8997	0.3387
229.1158	0.3458
229.3319	0.3596
229.548	0.3497
229.764	0.3599
229.9801	0.3689
230.1961	0.3706
230.4121	0.3751
230.6282	0.3786
230.8442	0.3929
231.0602	0.3823
231.2761	0.3827
231.4921	0.386
231.7081	0.3936
231.924	0.402
232.14	0.4002
232.3559	0.408
232.5718	0.4165
232.7877	0.4135
233.0036	0.4085
233.2195	0.4236
233.4353	0.4204
233.6512	0.4155
233.867	0.4373
234.0829	0.4275
234.2987	0.4296
234.5145	0.4384
234.7303	0.431
234.9461	0.4425
235.1619	0.434
235.3776	0.4428
235.5934	0.447
235.8091	0.4431
236.0249	0.4541
236.2406	0.4349
236.4563	0.4481
236.672	0.4478
236.8877	0.4456
237.1034	0.4507
237.319	0.4547
237.5347	0.4433
237.7503	0.4474
237.966	0.4644
238.1816	0.4448
238.3972	0.4577
238.6128	0.4619
238.8284	0.4666
239.0439	0.462
239.2595	0.47
239.475	0.4539
239.6906	0.4595
239.9061	0.466
240.1216	0.4626
240.3371	0.474
240.5526	0.4617
240.7681	0.4617
240.9836	0.4581
241.199	0.4599
241.4145	0.4559
241.6299	0.452
241.8453	0.4447
242.0607	0.4472
242.2761	0.4448
242.4915	0.4441
242.7069	0.4261
242.9223	0.4301
243.1376	0.4152
243.353	0.4169
243.5683	0.4093
243.7836	0.3977
243.9989	0.3917
244.2142	0.3848
244.4295	0.3892
244.6448	0.377
244.86	0.3659
245.0753	0.3633
245.2905	0.356
245.5057	0.3423
245.721	0.3487
245.9362	0.3442
246.1514	0.3309
246.3665	0.322
246.5817	0.313
246.7969	0.3107
247.012	0.3069
247.2271	0.2984
247.4423	0.2944
247.6574	0.2915
247.8725	0.2844
248.0876	0.275
248.3026	0.2749
248.5177	0.264
248.7328	0.2585
248.9478	0.2596
249.1628	0.2563
249.3779	0.2458
249.5929	0.2442
249.8079	0.2431
250.0228	0.2361
250.2378	0.2325
250.4528	0.2418
250.6677	0.2319
250.8827	0.2233
251.0976	0.2198
251.3125	0.2289
251.5274	0.2137
251.7423	0.2148
251.9572	0.2141
252.172	0.2104
252.3869	0.2078
252.6017	0.207
252.8166	0.2051
253.0314	0.2023
253.2462	0.2024
253.461	0.2011
253.6758	0.2011
253.8906	0.1956
254.1053	0.1972
254.3201	0.1981
254.5348	0.1884
254.7496	0.184
254.9643	0.1941
255.179	0.1885
255.3937	0.1881
255.6083	0.1989
255.823	0.1883
256.0377	0.186
256.2523	0.1885
256.467	0.1947
256.6816	0.1901
256.8962	0.1891
257.1108	0.1899
257.3254	0.1818
257.54	0.1867
257.7545	0.1895
257.9691	0.1849
258.1836	0.1755
258.3981	0.1872
258.6127	0.1772
258.8272	0.1887
259.0417	0.1804
259.2561	0.1754
259.4706	0.1814
259.6851	0.1848
259.8995	0.1803
260.114	0.1816
260.3284	0.1813
260.5428	0.1764
260.7572	0.1746
260.9716	0.1802
261.186	0.1814
261.4003	0.1836
261.6147	0.1794
261.829	0.1812
262.0433	0.1871
262.2577	0.1809
262.472	0.1897
262.6863	0.1828
262.9005	0.1872
263.1148	0.1842
263.3291	0.184
263.5433	0.1886
263.7576	0.1933
263.9718	0.1872
264.186	0.1897
264.4002	0.19
264.6144	0.1987
264.8286	0.1914
265.0427	0.198
265.2569	0.1955
265.471	0.1929
265.6851	0.194
265.8993	0.1914
266.1134	0.1922
266.3275	0.1982
266.5415	0.1985
266.7556	0.1978
266.9697	0.1987
267.1837	0.1945
267.3978	0.2042
267.6118	0.1918
267.8258	0.2012
268.0398	0.2007
268.2538	0.201
268.4677	0.1944
268.6817	0.1931
268.8957	0.1904
269.1096	0.1892
269.3235	0.1888
269.5374	0.1959
269.7514	0.1943
269.9652	0.194
270.1791	0.195
270.393	0.1902
270.6068	0.1888
270.8207	0.1913
271.0345	0.1903
271.2483	0.1894
271.4622	0.1896
271.676	0.1917
271.8897	0.1922
272.1035	0.1928
272.3173	0.1922
272.531	0.1883
272.7448	0.1925
272.9585	0.1882
273.1722	0.1856
273.3859	0.1954
273.5996	0.1924
273.8133	0.1979
274.0269	0.1962
274.2406	0.1935
274.4542	0.1952
274.6679	0.1967
274.8815	0.1989
275.0951	0.2106
275.3087	0.2066
275.5223	0.2076
275.7358	0.2031
275.9494	0.2047
276.1629	0.2105
276.3765	0.2072
276.59	0.2062
276.8035	0.2109
277.017	0.2116
277.2305	0.215
277.444	0.2097
277.6574	0.211
277.8709	0.2219
278.0843	0.2096
278.2978	0.2134
278.5112	0.2108
278.7246	0.2042
278.938	0.209
279.1513	0.2147
279.3647	0.205
279.5781	0.2077
279.7914	0.2092
280.0047	0.2013
280.2181	0.1983
280.4314	0.2076
280.6447	0.2004
280.8579	0.1993
281.0712	0.2072
281.2845	0.2008
281.4977	0.2038
281.711	0.199
281.9242	0.1948
282.1374	0.1988
282.3506	0.1966
282.5638	0.1982
282.7769	0.1877
282.9901	0.1932
283.2033	0.1929
283.4164	0.1916
283.6295	0.1979
283.8426	0.1912
284.0557	0.1937
284.2688	0.1994
284.4819	0.1884
284.695	0.2007
284.908	0.1932
285.1211	0.1951
285.3341	0.185
285.5471	0.193
285.7601	0.1905
285.9731	0.1911
286.1861	0.1906
286.3991	0.1966
286.612	0.1884
286.825	0.1892
287.0379	0.1937
287.2508	0.1908
287.4637	0.1866
287.6766	0.1849
287.8895	0.19
288.1024	0.1914
288.3152	0.1934
288.5281	0.1875
288.7409	0.1947
288.9538	0.184
289.1666	0.19
289.3794	0.1843
289.5922	0.1866
289.8049	0.186
290.0177	0.1933
290.2304	0.1854
290.4432	0.194
290.6559	0.1913
290.8686	0.1879
291.0813	0.1855
291.294	0.1913
291.5067	0.189
291.7194	0.1844
291.932	0.1882
292.1447	0.19
292.3573	0.189
292.5699	0.1852
292.7825	0.1784
292.9951	0.1876
293.2077	0.1826
293.4203	0.1846
293.6328	0.1875
293.8454	0.193
294.0579	0.1812
294.2704	0.1905
294.4829	0.186
294.6954	0.184
294.9079	0.1858
295.1204	0.1845
295.3328	0.1892
295.5453	0.1847
295.7577	0.1869
295.9701	0.1849
296.1825	0.1899
296.3949	0.1798
296.6073	0.1819
296.8197	0.1811
297.0321	0.1849
297.2444	0.1839
297.4567	0.1872
297.6691	0.1811
297.8814	0.1869
298.0937	0.1835
298.306	0.1809
298.5182	0.1918
298.7305	0.191
298.9428	0.1908
299.155	0.1807
299.3672	0.1858
299.5794	0.1855
299.7916	0.1821
300.0038	0.1912
300.216	0.1821
300.4282	0.185
300.6403	0.1908
300.8525	0.1922
301.0646	0.1851
301.2767	0.1912
301.4888	0.1891
301.7009	0.1929
301.913	0.1928
302.125	0.1891
302.3371	0.1868
302.5491	0.1913
302.7612	0.1914
302.9732	0.193
303.1852	0.1871
303.3972	0.1856
303.6092	0.19
303.8211	0.1848
304.0331	0.1833
304.245	0.1876
304.457	0.1874
304.6689	0.1851
304.8808	0.182
305.0927	0.1816
305.3046	0.1839
305.5164	0.1813
305.7283	0.1815
305.9401	0.174
306.152	0.1819
306.3638	0.1861
306.5756	0.182
306.7874	0.1775
306.9992	0.1752
307.2109	0.1736
307.4227	0.1719
307.6344	0.1736
307.8462	0.1721
308.0579	0.179
308.2696	0.168
308.4813	0.174
308.693	0.1628
308.9046	0.1694
309.1163	0.1649
309.328	0.1637
309.5396	0.1624
309.7512	0.1601
309.9628	0.1597
310.1744	0.1574
310.386	0.1518
310.5976	0.1574
310.8091	0.1583
311.0207	0.1539
311.2322	0.1517
311.4437	0.1541
311.6552	0.1567
311.8667	0.1565
312.0782	0.1499
312.2897	0.1541
312.5012	0.1488
312.7126	0.1496
312.924	0.1532
313.1355	0.1509
313.3469	0.1479
313.5583	0.1451
313.7696	0.1447
313.981	0.1502
314.1924	0.1452
314.4037	0.15
314.6151	0.1451
314.8264	0.1492
315.0377	0.1446
315.249	0.1462
315.4603	0.1348
315.6716	0.1419
315.8828	0.144
316.0941	0.1447
316.3053	0.1402
316.5165	0.1514
316.7277	0.1337
316.9389	0.1418
317.1501	0.145
317.3613	0.1373
317.5724	0.1421
317.7836	0.1385
317.9947	0.1349
318.2058	0.1377
318.417	0.14
318.6281	0.1391
318.8391	0.1434
319.0502	0.1361
319.2613	0.1454
319.4723	0.1416
319.6834	0.1419
319.8944	0.1368
320.1054	0.141
320.3164	0.1387
320.5274	0.1403
320.7383	0.1442
320.9493	0.1436
321.1602	0.1424
321.3712	0.1382
321.5821	0.1349
321.793	0.149
322.0039	0.147
322.2148	0.1387
322.4257	0.1365
322.6365	0.1386
322.8474	0.1453
323.0582	0.1417
323.269	0.1434
323.4798	0.1397
323.6906	0.138
323.9014	0.1398
324.1122	0.1355
324.3229	0.1453
324.5337	0.1455
324.7444	0.1492
324.9551	0.1465
325.1658	0.1418
325.3765	0.1479
325.5872	0.1471
325.7979	0.1465
326.0085	0.1473
326.2192	0.1448
326.4298	0.1531
326.6404	0.1515
326.851	0.145
327.0616	0.1499
327.2722	0.1508
327.4828	0.1474
327.6933	0.1538
327.9039	0.148
328.1144	0.1529
328.3249	0.1532
328.5354	0.1543
328.7459	0.1496
328.9564	0.1554
329.1669	0.1547
329.3773	0.1541
329.5878	0.1578
329.7982	0.1577
330.0086	0.1552
330.219	0.1502
330.4294	0.1644
330.6398	0.157
330.8502	0.1655
331.0605	0.1595
331.2708	0.1585
331.4812	0.1592
331.6915	0.156
331.9018	0.1586
332.1121	0.1608
332.3224	0.1549
332.5326	0.1545
332.7429	0.156
332.9531	0.16
333.1633	0.1563
333.3735	0.1546
333.5837	0.1579
333.7939	0.1567
334.0041	0.1646
334.2143	0.1575
334.4244	0.1611
334.6346	0.1562
334.8447	0.1532
335.0548	0.1588
335.2649	0.159
335.475	0.1601
335.685	0.1657
335.8951	0.1528
336.1051	0.1603
336.3152	0.1579
336.5252	0.1562
336.7352	0.1544
336.9452	0.158
337.1552	0.1519
337.3652	0.155
337.5751	0.1609
337.7851	0.1625
337.995	0.1586
338.2049	0.152
338.4148	0.1616
338.6247	0.1625
338.8346	0.1525
339.0445	0.1584
339.2543	0.1541
339.4642	0.1549
339.674	0.1566
339.8838	0.1548
340.0936	0.1619
340.3034	0.154
340.5132	0.1502
340.7229	0.1543
340.9327	0.1712
341.1424	0.1616
341.3522	0.1514
341.5619	0.1614
341.7716	0.1616
341.9813	0.1691
342.1909	0.1611
342.4006	0.1671
342.6102	0.1645
342.8199	0.1698
343.0295	0.1601
343.2391	0.1669
343.4487	0.1725
343.6583	0.1696
343.8679	0.1691
344.0774	0.1663
344.287	0.1691
344.4965	0.1669
344.706	0.1749
344.9155	0.1736
345.125	0.1719
345.3345	0.1837
345.544	0.175
345.7534	0.1785
345.9629	0.177
346.1723	0.1797
346.3817	0.1805
346.5911	0.1848
346.8005	0.1868
347.0099	0.1888
347.2193	0.1878
347.4286	0.1902
347.638	0.1902
347.8473	0.1846
348.0566	0.1845
348.2659	0.1836
348.4752	0.1889
348.6845	0.1896
348.8937	0.1864
349.103	0.1906
349.3122	0.1879
349.5214	0.185
349.7306	0.1933
349.9398	0.1909
350.149	0.1956
350.3582	0.1935
350.5674	0.1917
350.7765	0.2001
350.9856	0.1872
351.1948	0.1927
351.4039	0.1985
351.613	0.1949
351.822	0.1967
352.0311	0.1929
352.2402	0.1912
352.4492	0.1929
352.6582	0.1945
352.8672	0.1954
353.0762	0.1941
353.2852	0.1892
353.4942	0.1909
353.7032	0.1824
353.9121	0.1889
354.1211	0.1898
354.33	0.1894
354.5389	0.1887
354.7478	0.1812
354.9567	0.1901
355.1655	0.1922
355.3744	0.1822
355.5833	0.1882
355.7921	0.1912
356.0009	0.195
356.2097	0.1851
356.4185	0.1848
356.6273	0.183
356.8361	0.1878
357.0448	0.1935
357.2536	0.1854
357.4623	0.1954
357.671	0.1904
357.8797	0.1933
358.0884	0.1804
358.2971	0.1927
358.5057	0.1955
358.7144	0.1854
358.923	0.196
359.1316	0.1934
359.3402	0.1905
359.5488	0.1866
359.7574	0.1959
359.966	0.1986
360.1746	0.1939
360.3831	0.2011
360.5916	0.1983
360.8002	0.2033
361.0087	0.1967
361.2172	0.1923
361.4256	0.1987
361.6341	0.2062
361.8426	0.1977
362.051	0.2054
362.2594	0.2011
362.4678	0.2028
362.6762	0.2001
362.8846	0.2059
363.093	0.197
363.3014	0.2038
363.5097	0.2021
363.718	0.1997
363.9264	0.2072
364.1347	0.2083
364.343	0.2073
364.5513	0.2112
364.7595	0.2105
364.9678	0.2103
365.176	0.2087
365.3842	0.211
365.5925	0.2084
365.8007	0.2134
366.0089	0.2211
366.217	0.214
366.4252	0.2139
366.6333	0.2125
366.8415	0.2151
367.0496	0.2154
367.2577	0.2168
367.4658	0.2107
367.6739	0.2086
367.882	0.2199
368.09	0.2134
368.2981	0.2194
368.5061	0.2226
368.7141	0.2141
368.9221	0.2301
369.1301	0.2325
369.3381	0.2259
369.5461	0.2239
369.754	0.2296
369.962	0.2222
370.1699	0.2285
370.3778	0.2402
370.5857	0.2191
370.7936	0.225
371.0015	0.232
371.2093	0.2238
371.4172	0.2314
371.625	0.2248
371.8328	0.2255
372.0406	0.2354
372.2484	0.2356
372.4562	0.2283
372.664	0.2272
372.8717	0.2279
373.0795	0.2423
373.2872	0.246
373.4949	0.2338
373.7026	0.2342
373.9103	0.2336
374.118	0.2438
374.3256	0.2374
374.5333	0.2393
374.7409	0.2412
374.9485	0.2406
375.1561	0.2437
375.3637	0.2291
375.5713	0.2446
375.7789	0.245
375.9864	0.2425
376.194	0.2412
376.4015	0.246
376.609	0.2446
376.8165	0.2449
377.024	0.2362
377.2315	0.2444
377.4389	0.2388
377.6464	0.2505
377.8538	0.2473
378.0612	0.2517
378.2686	0.251
378.476	0.2432
378.6834	0.2453
378.8908	0.2488
379.0981	0.2487
379.3055	0.2553
379.5128	0.2483
379.7201	0.2486
379.9274	0.2505
380.1347	0.2483
380.342	0.261
380.5492	0.257
380.7565	0.2457
380.9637	0.246
381.1709	0.2535
381.3781	0.2566
381.5853	0.2504
381.7925	0.2588
381.9997	0.2524
382.2068	0.2589
382.4139	0.254
382.6211	0.2567
382.8282	0.2614
383.0353	0.2614
383.2424	0.266
383.4494	0.2582
383.6565	0.2623
383.8635	0.2573
384.0706	0.2706
384.2776	0.2646
384.4846	0.2682
384.6916	0.2547
384.8986	0.2656
385.1055	0.2614
385.3125	0.2667
385.5194	0.2644
385.7263	0.2562
385.9333	0.2631
386.1402	0.2619
386.347	0.2572
386.5539	0.2598
386.7608	0.2574
386.9676	0.2613
387.1744	0.2578
387.3813	0.2628
387.5881	0.2532
387.7948	0.2585
388.0016	0.2658
388.2084	0.2581
388.4151	0.2605
388.6219	0.255
388.8286	0.262
389.0353	0.254
389.242	0.2641
389.4487	0.2538
389.6553	0.2555
389.862	0.2589
390.0686	0.2671
390.2753	0.2581
390.4819	0.2539
390.6885	0.2534
390.8951	0.2564
391.1016	0.255
391.3082	0.2582
391.5147	0.2484
391.7213	0.2485
391.9278	0.2497
392.1343	0.2514
392.3408	0.2476
392.5473	0.247
392.7537	0.2439
392.9602	0.2528
393.1666	0.2444
393.373	0.242
393.5794	0.2436
393.7858	0.2448
393.9922	0.2333
394.1986	0.241
394.4049	0.2362
394.6113	0.2434
394.8176	0.2412
395.0239	0.2287
395.2302	0.2322
395.4365	0.2416
395.6428	0.2339
395.8491	0.2349
396.0553	0.2331
396.2615	0.228
396.4678	0.233
396.674	0.2196
396.8802	0.2232
397.0863	0.2238
397.2925	0.2209
397.4987	0.2225
397.7048	0.2267
397.9109	0.2197
398.117	0.2242
398.3231	0.217
398.5292	0.2159
398.7353	0.2182
398.9413	0.2273
399.1474	0.2188
399.3534	0.2292
399.5594	0.2256
399.7654	0.2124
399.9714	0.2338
400.1774	0.2209
400.3833	0.224
400.5893	0.2192
400.7952	0.2324
401.0011	0.2193
401.207	0.2179
401.4129	0.2241
401.6188	0.2251
401.8247	0.2303
402.0305	0.2158
402.2364	0.2244
402.4422	0.2165
402.648	0.2199
402.8538	0.2255
403.0596	0.2164
403.2654	0.2197
403.4711	0.2132
403.6768	0.2206
403.8826	0.2217
404.0883	0.2181
404.294	0.2184
404.4997	0.2173
404.7054	0.2239
404.911	0.2135
405.1167	0.22
405.3223	0.2128
405.5279	0.2168
405.7335	0.2174
405.9391	0.218
406.1447	0.2245
406.3502	0.215
406.5558	0.2126
406.7613	0.2132
406.9668	0.2077
407.1724	0.2197
407.3778	0.2231
407.5833	0.2139
407.7888	0.2196
407.9942	0.2026
408.1997	0.2117
408.4051	0.2144
408.6105	0.2217
408.8159	0.2264
409.0213	0.2108
409.2267	0.2229
409.432	0.2281
409.6374	0.212
409.8427	0.2259
410.048	0.2161
410.2533	0.202
410.4586	0.2082
410.6639	0.2203
410.8691	0.2086
411.0744	0.2081
411.2796	0.2149
411.4848	0.2257
411.69	0.2207
411.8952	0.225
412.1004	0.2133
412.3056	0.2112
412.5107	0.2149
412.7158	0.2222
412.921	0.218
413.1261	0.2147
413.3312	0.2239
413.5362	0.2301
413.7413	0.2193
413.9464	0.2078
414.1514	0.2112
414.3564	0.2066
414.5614	0.213
414.7664	0.2118
414.9714	0.2069
415.1764	0.214
415.3813	0.2099
415.5863	0.2122
415.7912	0.2073
415.9961	0.215
416.201	0.2181
416.4059	0.2161
416.6108	0.2115
416.8156	0.2072
417.0205	0.2082
417.2253	0.2131
417.4301	0.2145
417.6349	0.205
417.8397	0.206
418.0445	0.2004
418.2492	0.2052
418.454	0.2029
418.6587	0.2039
418.8634	0.2056
419.0681	0.2095
419.2728	0.205
419.4775	0.2187
419.6822	0.2025
419.8868	0.1975
420.0915	0.202
420.2961	0.1969
420.5007	0.2076
420.7053	0.2034
420.9099	0.2028
421.1144	0.2013
421.319	0.1991
421.5235	0.191
421.728	0.2026
421.9325	0.1871
422.137	0.1951
422.3415	0.1851
422.546	0.1934
422.7504	0.1884
422.9549	0.2048
423.1593	0.1916
423.3637	0.1878
423.5681	0.1931
423.7725	0.1894
423.9769	0.1879
424.1812	0.179
424.3856	0.1815
424.5899	0.1841
424.7942	0.1884
424.9985	0.1841
425.2028	0.1987
425.4071	0.1904
425.6113	0.1798
425.8156	0.1734
426.0198	0.1882
426.224	0.172
426.4282	0.1789
426.6324	0.1761
426.8366	0.181
427.0407	0.1831
427.2449	0.1706
427.449	0.1686
427.6531	0.1826
427.8572	0.1794
428.0613	0.1784
428.2654	0.1823
428.4694	0.1639
428.6735	0.1679
428.8775	0.1652
429.0815	0.1591
429.2855	0.176
429.4895	0.1658
429.6935	0.1657
429.8975	0.1556
430.1014	0.159
430.3053	0.1676
430.5093	0.1609
430.7132	0.1512
430.9171	0.1546
431.1209	0.1587
431.3248	0.1561
431.5286	0.1515
431.7325	0.1595
431.9363	0.1489
432.1401	0.1537
432.3439	0.1587
432.5477	0.1374
432.7514	0.1486
432.9552	0.1537
433.1589	0.1354
433.3627	0.1442
433.5664	0.1357
433.7701	0.149
433.9737	0.1425
434.1774	0.1349
434.3811	0.13
434.5847	0.1284
434.7883	0.139
434.9919	0.1225
435.1955	0.133
435.3991	0.1332
435.6027	0.1248
435.8062	0.1324
436.0098	0.1286
436.2133	0.1272
436.4168	0.1198
436.6203	0.1159
436.8238	0.1146
437.0272	0.115
437.2307	0.1206
437.4341	0.1194
437.6375	0.1139
437.841	0.1134
438.0443	0.1098
438.2477	0.1069
438.4511	0.1072
438.6545	0.1141
438.8578	0.1116
439.0611	0.1138
439.2644	0.1129
439.4677	0.1139
439.671	0.0985
439.8743	0.1018
440.0775	0.0941
440.2808	0.0981
440.484	0.0936
440.6872	0.0949
440.8904	0.088
441.0936	0.0918
441.2967	0.088
441.4999	0.0855
441.703	0.0872
441.9062	0.0924
442.1093	0.0952
442.3124	0.0743
442.5155	0.0762
442.7185	0.0764
442.9216	0.0813
443.1246	0.0815
443.3276	0.085
443.5307	0.0675
443.7337	0.0708
443.9366	0.0606
444.1396	0.0683
444.3426	0.0694
444.5455	0.0693
444.7484	0.0652
444.9513	0.0652
445.1542	0.0831
445.3571	0.0695
445.56	0.0637
445.7628	0.0666
445.9657	0.0606
446.1685	0.0629
446.3713	0.0585
446.5741	0.0642
446.7769	0.057
446.9797	0.0646
447.1824	0.063
447.3852	0.0421
447.5879	0.0514
447.7906	0.0473
447.9933	0.0613
448.196	0.0416
448.3986	0.0518
448.6013	0.0417
448.8039	0.0532
449.0066	0.0574
449.2092	0.0576
449.4118	0.0515
449.6143	0.0555
449.8169	0.0421
450.0195	0.0466
450.222	0.0472
450.4245	0.0461
450.627	0.0429
450.8295	0.0401
451.032	0.0398
451.2345	0.0384
451.4369	0.0423
451.6394	0.049
451.8418	0.0414
452.0442	0.0418
452.2466	0.0261
452.449	0.0419
452.6513	0.033
452.8537	0.0304
453.056	0.0412
453.2583	0.0338
453.4607	0.0253
453.663	0.043
453.8652	0.0212
454.0675	0.0389
454.2697	0.0289
454.472	0.0292
454.6742	0.0349
454.8764	0.0378
455.0786	0.0325
455.2808	0.0151
455.4829	0.031
455.6851	0.0251
455.8872	0.0203
456.0893	0.0329
456.2915	0.0206
456.4935	0.0258
456.6956	0.0266
456.8977	0.0267
457.0997	0.03
457.3018	0.022
457.5038	0.0359
457.7058	0.0232
457.9078	0.031
458.1098	0.0229
458.3117	0.0303
458.5137	0.0096
458.7156	0.0204
458.9175	0.0266
459.1194	0.0198
459.3213	0.0126
459.5232	0.0272
459.725	0.0241
459.9269	0.0276
460.1287	0.0104
460.3305	0.0259
460.5323	0.0179
460.7341	0.0159
460.9359	0.0083
461.1376	0.0155
461.3394	0.0211
461.5411	0.0259
461.7428	0.0238
461.9445	0.0156
462.1462	0.0182
462.3479	0.0077
462.5495	0.0243
462.7512	0.0256
462.9528	0.0158
463.1544	0.0104
463.356	0.0069
463.5576	0.0243
463.7592	0.0201
463.9607	0.0197
464.1623	0.0214
464.3638	0.0085
464.5653	0.0127
464.7668	0.0158
464.9683	0.0129
465.1697	0.0126
465.3712	0.0041
465.5726	0.016
465.7741	0.0179
465.9755	0.0106
466.1769	0.0131
466.3782	0.009
466.5796	0.0112
466.7809	0.0153
466.9823	0.0129
467.1836	0.0103
467.3849	0.0108
467.5862	0.0026
467.7875	0.0089
467.9887	0.014
468.19	0.0072
468.3912	0.0109
468.5924	0.0199
468.7936	0.0214
468.9948	0.0007
469.196	0.0107
469.3972	0.006
469.5983	0.0126
469.7994	0.006
470.0006	0.0069
470.2017	0.008
470.4027	0.0289
470.6038	0.0148
470.8049	0.0034
471.0059	0.0153
471.2069	0.0111
471.408	0.0251
471.6089	0.0093
471.8099	0.0151
472.0109	0.0051
472.2119	0.0206
472.4128	0.0061
472.6137	0.0073
472.8146	0.0123
473.0155	0.0204
473.2164	0.0052
473.4173	-0.0027
473.6181	0.0035
473.819	0.0148
474.0198	-0.0041
474.2206	-0.0002
474.4214	0.0025
474.6222	-0.0045
474.8229	0.0035
475.0237	0.0085
475.2244	0.0094
475.4251	-0.0007
475.6258	0.0019
475.8265	-0.001
476.0272	0.0031
476.2278	0.0155
476.4285	0.0022
476.6291	0.0046
476.8297	0.0036
477.0303	0.0042
477.2309	0.0108
477.4315	0.0025
477.632	-0.0044
477.8326	0.0056
478.0331	0.01
478.2336	0.0047
478.4341	0.0086
478.6346	0.0033
478.8351	-0.0031
479.0355	0.0083
479.236	0.0204
479.4364	0.005
479.6368	0.0023
479.8372	0.0032
480.0376	0.0001
480.2379	0.008
480.4383	0.0126
480.6386	0.0018
480.8389	0.0046
481.0392	0.0071
481.2395	0.0058
481.4398	0.0064
481.6401	0.0118
481.8403	0.0051
482.0405	0.0099
482.2408	-0.0026
482.441	0.0065
482.6411	0.0091
482.8413	-0.0052
483.0415	0.0083
483.2416	0.0054
483.4417	0.0063
483.6419	0.0004
483.8419	0.0053
484.042	0.0015
484.2421	-0.0018
484.4422	0.0089
484.6422	0.0053
484.8422	0.0047
485.0422	0.0088
485.2422	0.0068
485.4422	0.0041
485.6422	0.008
485.8421	0.0071
486.042	0.0153
486.242	0.0058
486.4419	0.0073
486.6417	0.0017
486.8416	0.0085
487.0415	0
487.2413	-0.0014
487.4411	0.0066
487.641	0.0009
487.8408	0.0112
488.0405	0.0103
488.2403	-0.0037
488.4401	0.0054
488.6398	-0.0011
488.8395	0.0042
489.0392	0.0068
489.2389	0.0044
489.4386	0.0002
489.6383	0.009
489.8379	-0.0035
490.0376	0.0052
490.2372	0.0008
490.4368	-0.0059
490.6364	-0.0008
490.836	0.0017
491.0355	-0.0042
491.2351	0.0061
491.4346	0.0042
491.6341	0.0001
491.8336	-0.0023
492.0331	0.0034
492.2326	0.0029
492.432	-0.0008
492.6315	0.0027
492.8309	0.0079
493.0303	0.0088
493.2297	0.0063
493.4291	0.0035
493.6284	0.0125
493.8278	0.0005
494.0271	0.0032
494.2264	-0.0006
494.4257	0.0049
494.625	0.0019
494.8243	-0.0042
495.0236	0.0079
495.2228	0.01
495.422	0.0079
495.6213	0.0041
495.8205	-0.0025
496.0196	0.0029
496.2188	-0.0011
496.418	-0.0042
496.6171	0.001
496.8162	0.0079
497.0153	0.0026
497.2144	-0.0034
497.4135	-0.0029
497.6126	-0.0002
497.8116	-0.0065
498.0107	-0.0002
498.2097	0.0028
498.4087	0.0044
498.6077	-0.0055
498.8067	0.0004
499.0056	-0.0064
499.2046	0.0054
499.4035	0.0071
499.6024	-0.0053
499.8013	0.0048
500.0002	0.0101
500.199	0.015
500.3979	-0.0066
500.5967	0.001
500.7956	0.0051
500.9944	0.0033
501.1932	0.0034
501.3919	0.0042
501.5907	0.0101
501.7895	-0.0005
501.9882	0.0018
502.1869	0.0131
502.3856	-0.0038
502.5843	0.0024
502.783	0.0024
502.9816	0.0093
503.1803	0
503.3789	0.0095
503.5775	-0.0008
503.7761	-0.0124
503.9747	0.004
504.1732	-0.0025
504.3718	0.012
504.5703	0.0028
504.7689	-0.0057
504.9674	0.0024
505.1658	0.001
505.3643	0.0015
505.5628	0.0068
505.7612	0.0068
505.9597	-0.003
506.1581	-0.0023
506.3565	-0.0026
506.5549	0.0019
506.7532	-0.0059
506.9516	0.0037
507.1499	-0.0023
507.3482	0.0011
507.5465	0.0044
507.7448	0.0118
507.9431	0.0122
508.1414	0.0002
508.3396	-0.0048
508.5379	0.0004
508.7361	0.0015
508.9343	0.01
509.1325	0.0086
509.3306	0.0016
509.5288	-0.0011
509.7269	0.0083
509.9251	-0.0005
510.1232	0.0031
510.3213	0.0018
510.5193	0.0066
510.7174	-0.0079
510.9154	0.0121
511.1135	-0.0016
511.3115	-0.0026
511.5095	-0.0013
511.7075	-0.0014
511.9055	0.0053
512.1034	-0.0041
512.3014	0.0059
512.4993	0.0029
512.6972	-0.0082
512.8951	-0.0016
513.093	-0.0077
513.2908	0.0135
513.4887	-0.0013
513.6865	-0.0015
513.8844	0.0033
514.0822	-0.0027
514.2799	-0.0051
514.4777	-0.0022
514.6755	-0.0044
514.8732	-0.0077
515.0709	-0.0041
515.2687	-0.002
515.4664	0.0102
515.664	0.0051
515.8617	-0.0021
516.0594	0.0007
516.257	-0.0061
516.4546	0.0052
516.6522	-0.0021
516.8498	0.0047
517.0474	-0.0062
517.2449	-0.0088
517.4425	0.0051
517.64	-0.002
517.8375	-0.0024
518.035	-0.0012
518.2325	-0.0098
518.43	-0.0028
518.6274	0.0006
518.8249	-0.0098
519.0223	0.0078
519.2197	-0.0017
519.4171	-0.0041
519.6145	-0.0013
519.8118	-0.0118
520.0092	-0.0058
520.2065	0.0044
520.4038	-0.0069
520.6011	0.0035
520.7984	-0.0021
520.9956	0.0011
521.1929	-0.0014
521.3901	-0.0029
521.5874	0.0088
521.7846	-0.0085
521.9818	-0.0059
522.1789	-0.0099
522.3761	0.0096
522.5732	-0.004
522.7704	-0.0172
522.9675	-0.0156
523.1646	0.0014
523.3617	0.0095
523.5587	-0.0088
523.7558	-0.0037
523.9528	0.0082
524.1498	-0.011
524.3468	0.0034
524.5438	-0.0004
524.7408	-0.0062
524.9378	0.0004
525.1347	0.0019
525.3316	-0.0038
525.5285	-0.0036
525.7254	0.0074
525.9223	0.0156
526.1192	0.0026
526.316	0.0019
526.5129	-0.0041
526.7097	0.0052
526.9065	-0.0024
527.1033	0.0026
527.3	0.0016
527.4968	-0.0007
527.6935	-0.0043
527.8903	0.0054
528.087	-0.0015
528.2837	0.0041
528.4804	-0.0125
528.677	-0.0015
528.8737	0.004
529.0703	-0.0019
529.2669	0.0057
529.4635	-0.0064
529.6601	-0.0011
529.8567	-0.01
530.0532	0.0021
530.2498	-0.0021
530.4463	-0.0149
530.6428	0.0016
530.8393	0.0024
531.0358	-0.0053
531.2322	-0.0035
531.4287	-0.0026
531.6251	-0.0174
531.8215	-0.01
532.0179	-0.0041
532.2143	0.0112
532.4107	0.0004
532.607	-0.0018
532.8034	-0.0022
532.9997	-0.0049
533.196	-0.0112
533.3923	0.0002
533.5886	0.0159
533.7848	-0.0015
533.9811	0.0083
534.1773	-0.0044
534.3735	-0.0043
534.5697	0.0012
534.7659	0.0059
534.9621	0.0051
535.1582	-0.004
535.3544	-0.002
535.5505	0.0045
535.7466	-0.0029
535.9427	0.0035
536.1387	-0.0077
536.3348	0.003
536.5308	0.0046
536.7269	0.0065
536.9229	-0.0028
537.1189	0.0155
537.3148	-0.0052
537.5108	0.0015
537.7068	0.0064
537.9027	-0.0179
538.0986	0.0044
538.2945	0.001
538.4904	-0.0045
538.6863	0.0025
538.8821	-0.0023
539.078	0.0026
539.2738	0.0012
539.4696	-0.0043
539.6654	0.002
539.8611	-0.0002
540.0569	-0.005
540.2526	0.003
540.4484	-0.0042
540.6441	0.0052
540.8398	0.0168
541.0355	0.0018
541.2311	-0.0028
541.4268	0.0103
541.6224	0.004
541.818	-0.001
542.0136	0.0067
542.2092	-0.0026
542.4048	0.0009
542.6003	0.0001
542.7959	0.0012
542.9914	-0.0046
543.1869	0.0066
543.3824	-0.0071
543.5779	0.0072
543.7734	0.0133
543.9688	0.0061
544.1642	-0.0097
544.3596	-0.0037
544.555	0.0066
544.7504	0.0085
544.9458	0.0031
545.1411	0.0026
545.3365	-0.0005
545.5318	0.0059
545.7271	0.0103
545.9224	-0.0081
546.1177	-0.0025
546.3129	0.0079
546.5081	-0.0038
546.7034	-0.001
546.8986	-0.0002
547.0938	0.0133
547.289	0.0055
547.4841	0.007
547.6793	-0.0006
547.8744	0.0093
548.0695	-0.0046
548.2646	0.0009
548.4597	-0.0067
548.6548	0.0102
548.8498	0.006
549.0448	0.0013
549.2399	0.0067
549.4349	0.0089
549.6298	0.0074
549.8248	-0.0072
550.0198	0.0022
550.2147	0.0045
550.4096	-0.0113
550.6045	0.0055
550.7994	0.0027
550.9943	0.0045
551.1892	-0.0063
551.384	0.0013
551.5788	0.0024
551.7737	-0.0015
551.9685	0.0032
552.1632	0.0015
552.358	0.0016
552.5528	0.0031
552.7475	0.0036
552.9422	0.0052
553.1369	0.0081
553.3316	0.0115
553.5263	0.0001
553.7209	0.007
553.9156	0.0044
554.1102	0.0084
554.3048	-0.0034
554.4994	-0.0044
554.694	0.0093
554.8885	0.0139
555.0831	0.0148
555.2776	0.0057
555.4721	0.0021
555.6666	0.0016
555.8611	0.0016
556.0555	-0.003
556.25	-0.0022
556.4444	0.0032
556.6388	0.002
556.8332	-0.006
557.0276	0.0012
557.222	-0.0033
557.4163	0.0051
557.6107	-0.0013
557.805	-0.0049
557.9993	0.0088
558.1936	-0.0006
558.3879	0.0032
558.5821	0.0004
558.7764	-0.0074
558.9706	-0.0066
559.1648	0.0075
559.359	-0.0004
559.5532	0.0047
559.7473	-0.0075
559.9415	-0.0104
560.1356	0.0162
560.3297	-0.0077
560.5238	0.0052
560.7179	-0.0048
560.9119	0.0061
561.106	-0.0076
561.3	0.0031
561.494	-0.0056
561.688	-0.0058
561.882	-0.0002
562.076	0.0046
562.2699	0.0116
562.4639	0.0183
562.6578	0.01
562.8517	0.0007
563.0456	-0.0005
563.2395	0.0037
563.4333	0.0044
563.6272	0.0069
563.821	0.02
564.0148	0.0029
564.2086	0.0046
564.4024	0.0097
564.5961	0.0112
564.7899	0.0076
564.9836	0.0055
565.1773	0.0072
565.371	0.004
565.5647	0.0065
565.7584	0.0121
565.952	0.0069
566.1456	0.0027
566.3393	0.0105
566.5329	-0.0043
566.7264	0.0093
566.92	0.0031
567.1136	0.0007
567.3071	-0.0042
567.5006	0.0026
567.6941	0.0025
567.8876	0.0108
568.0811	0.0149
568.2745	-0.0017
568.468	0.011
568.6614	0.0077
568.8548	0.0085
569.0482	0.005
569.2416	0.0011
569.4349	0.0102
569.6283	0.0052
569.8216	0.0108
570.0149	-0.0001
570.2082	0.0167
570.4015	0.0087
570.5947	0.0069
570.788	0.012
570.9812	0.0007
571.1744	0.006
571.3676	0.0054
571.5608	0.0057
571.754	0.018
571.9471	0.0124
572.1402	0.0084
572.3333	0.012
572.5264	0.0089
572.7195	0.0038
572.9126	0.0061
573.1057	0.0081
573.2987	0.009
573.4917	0.0033
573.6847	0.0058
573.8777	0.0118
574.0707	0.0091
574.2636	0.0079
574.4566	0.004
574.6495	0.0062
574.8424	0.0042
575.0353	0.012
575.2281	0.011
575.421	0.0022
575.6138	0.0055
575.8067	0.0105
575.9995	0.005
576.1923	0.0054
576.385	0.0072
576.5778	0.0099
576.7706	0.0098
576.9633	0.0124
577.156	-0.0012
577.3487	0.0086
577.5414	0.0056
577.734	0.007
577.9267	0.0086
578.1193	0.0062
578.3119	0.0066
578.5045	0.01
578.6971	0.0041
578.8897	0.0082
579.0822	0.0095
579.2747	0.0042
579.4673	0.0082
579.6598	0.0064
579.8522	0.0092
580.0447	0.0048
580.2372	0.005
580.4296	0.0092
580.622	0.0037
580.8144	0.007
581.0068	0.0049
581.1992	0.0064
581.3915	0.0003
581.5839	0.0062
581.7762	0.0064
581.9685	0.0068
582.1608	0.0054
582.353	0.0055
582.5453	0.004
582.7375	0.0119
582.9298	0.0043
583.122	0.0021
583.3142	0.0098
583.5063	0.0015
583.6985	0.0018
583.8906	0.0044
584.0827	0.0107
584.2749	0.0079
584.4669	0.0078
584.659	0.0114
584.8511	0.0089
585.0431	0.007
585.2352	0.0089
585.4272	0.0075
585.6192	0.0121
585.8111	0.0023
586.0031	0.0022
586.195	0.0031
586.387	0.0013
586.5789	0.0085
586.7708	0.0084
586.9627	0.0075
587.1545	0.0075
587.3464	0.0081
587.5382	0.0094
587.73	0.01
587.9218	0.0078
588.1136	0.0012
588.3053	0.0057
588.4971	0.0035
588.6888	0.0036
588.8805	0.0125
589.0722	0.018
589.2639	0.0008
589.4556	0.0071
589.6472	0.009
589.8389	0.0094
590.0305	0.0041
590.2221	0.0115
590.4137	0.002
590.6052	0.006
590.7968	0.009
590.9883	0.0069
591.1798	0.0021
591.3713	0.0047
591.5628	0.0033
591.7543	0.0039
591.9458	-0.0003
592.1372	0.0069
592.3286	0.0026
592.52	0.0035
592.7114	0.0057
592.9028	0.0115
593.0941	0.0072
593.2855	0.0066
593.4768	0.0142
593.6681	0.0151
593.8594	0.0109
594.0506	0.0038
594.2419	-0
594.4331	0.0078
594.6244	0.0024
594.8156	0.0036
595.0067	0.0046
595.1979	0.0053
595.3891	0.0065
595.5802	0.0125
595.7713	0.0106
595.9624	0.0127
596.1535	0.0073
596.3446	0.0034
596.5357	0.0128
596.7267	0.0094
596.9177	0.0042
597.1087	0.0086
597.2997	0.0074
597.4907	-0.0008
597.6817	0.0096
597.8726	0.0081
598.0635	0.0013
598.2544	0.0076
598.4453	0.0112
598.6362	0.0044
598.827	0.0073
599.0179	0.0082
599.2087	0.0117
599.3995	0.0122
599.5903	0.0085
599.7811	0.018
599.9718	0.005
600.1626	0.0085
600.3533	0.009
600.544	0.0088
600.7347	0.0098
600.9254	0.0113
601.116	0.0043
601.3067	0.0067
601.4973	0.0092
601.6879	0.0051
601.8785	0.0041
602.0691	0.0036
602.2596	0.0049
602.4502	0.0109
602.6407	0.0096
602.8312	0.0062
603.0217	0.0107
603.2122	0.0043
603.4027	0.0075
603.5931	0.005
603.7835	0.003
603.9739	0.0053
604.1643	0.0148
604.3547	0.01
604.5451	0.0136
604.7354	0.0088
604.9257	0.0083
605.116	0.0009
605.3063	0.0113
605.4966	0.0052
605.6869	0.0142
605.8771	0.0134
606.0673	0.0079
606.2575	0.0044
606.4477	0.0055
606.6379	0.0044
606.8281	0.0006
607.0182	0.0044
607.2083	0.0098
607.3985	0.0107
607.5885	0.0079
607.7786	0.0066
607.9687	0.01
608.1587	0.0093
608.3488	0.0064
608.5388	-0.0007
608.7288	0.001
608.9187	0.0061
609.1087	0.0115
609.2986	0.0094
609.4886	0.0066
609.6785	0.0069
609.8684	0.0058
610.0582	0.0015
610.2481	0.0019
610.4379	0.0057
610.6278	0.0041
610.8176	0.0146
611.0074	0.0085
611.1971	0.0074
611.3869	0.0018
611.5766	0.0008
611.7664	0.0129
611.9561	0.0097
612.1458	0.0055
612.3354	0.0068
612.5251	0.0031
612.7147	0.0092
612.9044	0.0062
613.094	0.0069
613.2836	0.0073
613.4731	0.0036
613.6627	0.0098
613.8522	0.0128
614.0417	0.0082
614.2313	0.0021
614.4207	0.013
614.6102	0.006
614.7997	0.0144
614.9891	0.0078
615.1785	0.0018
615.3679	0.0105
615.5573	0.0044
615.7467	0.0047
615.9361	0.0087
616.1254	0.0162
616.3147	0.0038
616.504	0.0005
616.6933	0.0119
616.8826	0.0045
617.0718	0.0069
617.2611	0.0061
617.4503	0.0064
617.6395	0.0089
617.8287	0.0139
618.0179	0.003
618.207	0.0145
618.3961	0.0014
618.5853	0.0116
618.7744	0.0073
618.9634	0.0058
619.1525	0.0048
619.3416	0.0121
619.5306	0.0043
619.7196	0.0018
619.9086	0.0102
620.0976	0.0017
620.2866	0.0156
620.4755	0.0044
620.6645	0.0059
620.8534	0.0038
621.0423	0.0039
621.2312	0.0089
621.42	0.0101
621.6089	0.0024
621.7977	0.0084
621.9865	0.0092
622.1753	-0
622.3641	-0.0029
622.5529	-0.0063
622.7416	0.0016
622.9303	0.0095
623.1191	0.0144
623.3078	0.0152
623.4964	0.0163
623.6851	0.0124
623.8737	0.0047
624.0624	-0.0077
624.251	0.0125
624.4396	0.0021
624.6282	0.0094
624.8167	0.005
625.0053	0.0131
625.1938	0.0058
625.3823	0.0104
625.5708	0.0036
625.7593	0.0087
625.9477	0.0123
626.1362	-0.0021
626.3246	-0.0046
626.513	0.0002
626.7014	0.0022
626.8898	0.0126
627.0781	0.0177
627.2665	0.0229
627.4548	0.0045
627.6431	0.016
627.8314	0.0093
628.0197	0.0014
628.2079	-0.0005
628.3962	0.0149
628.5844	0.0156
628.7726	0.0112
628.9608	0.0002
629.1489	0.0144
629.3371	0.0056
629.5252	0.0011
629.7134	-0.0135
629.9015	0.0065
630.0895	-0.0108
630.2776	0.0103
630.4657	0.0112
630.6537	0.007
630.8417	-0.0079
631.0297	-0.0005
631.2177	-0.0011
631.4057	0.0081
631.5936	0.0019
631.7815	0.0111
631.9695	0.0132
632.1574	0.0154
632.3452	0.0097
632.5331	-0.0018
632.7209	0.02
632.9088	0.0074
633.0966	0.0306
633.2844	-0.002
633.4722	0.0128
633.6599	0.0188
633.8477	-0.0005
634.0354	0.0164
634.2231	-0.0149
634.4108	0.0038
634.5985	0.0102
634.7861	0.0016
634.9738	0.0047
635.1614	0.0013
635.349	-0.0034
635.5366	-0.0069
635.7242	0.001
635.9117	0.0211
636.0993	0.015
636.2868	0.0003
636.4743	0.0015
636.6618	0.0047
636.8492	0.0054
637.0367	-0.0012
637.2241	0.0138
637.4115	0.0135
637.5989	0.0056
637.7863	0.0194
637.9737	0.0067
638.161	0.0195
638.3484	0.0012
638.5357	0.0053
638.723	0.023
638.9103	-0.0014
639.0975	0.0133
639.2848	0.0149
639.472	-0.0002
639.6592	-0.017
639.8464	0.0073
640.0336	0.0017
640.2208	0.0069
640.4079	0.0024
640.595	0.0091
640.7821	0.0107
640.9692	-0.0002
641.1563	0.016
641.3434	0.0022
641.5304	0.0002
641.7174	0.0089
641.9044	-0.0022
642.0914	0.0325
642.2784	-0.0066
642.4653	-0.0097
642.6523	0.0079
642.8392	-0.0107
643.0261	0.0243
643.213	0.0098
643.3999	0.0277
643.5867	0.0233
643.7735	-0.0005
643.9604	0.0164
644.1472	-0.0029
644.3339	-0.0023
644.5207	0.0035
644.7075	0.0048
644.8942	0.0033
645.0809	0.0105
645.2676	-0.0108
645.4543	0.0073
645.6409	0.0134
645.8276	0.0098
646.0142	0.0016
646.2008	0.0027
646.3874	-0.0006
646.574	-0.004
646.7605	-0.002
646.9471	-0.0098
647.1336	-0.0145
647.3201	-0.0061
647.5066	0.0219
647.6931	-0.0006
647.8795	0.0066
648.0659	-0.0106
648.2524	0.0048
648.4388	0.0095
648.6252	0.0101
648.8115	0.001
648.9979	0.008
649.1842	0.0059
649.3705	0.0123
649.5568	-0.0022
649.7431	0.003
649.9294	0.005
650.1156	-0.016
650.3018	0.0218
650.488	0.0052
650.6742	0.0177
650.8604	0.0045
651.0466	-0.0007
651.2327	0.0068
651.4188	0.0007
651.6049	0.0175
651.791	-0.002
651.9771	-0.0006
652.1632	0.0123
652.3492	0.002
652.5352	0.0087
652.7212	-0.0014
652.9072	0.0027
653.0932	0.0089
653.2791	0.014
653.465	-0.0006
653.651	-0.0002
653.8369	0.0077
654.0227	0.0002
654.2086	0.0132
654.3944	0.0065
654.5803	0.0022
654.7661	0.0017
654.9519	0.0004
655.1377	0.0001
655.3234	0.0001
655.5092	0.0001
655.6949	0.0001
655.8806	0.0001
656.0663	0.0001
656.2519	0.0001
656.4376	0.0001
656.6232	0.0001
656.8088	0.0001
656.9945	0.0001
657.18	0.0001
657.3656	0.0001
657.5511	0.0001
657.7367	0.0001
657.9222	0.0001
658.1077	0.0001
658.2932	0.0001
658.4786	0.0001
658.6641	0.0001
658.8495	0.0001
659.0349	0.0001
659.2203	0.0001
659.4057	0.0016
659.591	0.2687
659.7764	0.0224
659.9617	0.0148
660.147	0.0118
660.3323	0.0073
660.5176	0.0178
660.7028	-0.0011
660.888	0.0181
661.0733	0.0092
661.2585	0.0022
661.4436	0.0118
661.6288	0.0271
661.8139	-0.0023
661.9991	-0.0198
662.1842	0.0056
662.3693	0.0166
662.5544	0.0219
662.7394	0.0053
662.9245	0.0148
663.1095	-0.0025
663.2945	-0.0152
663.4795	-0.0046
663.6644	0.0162
663.8494	0.0124
664.0343	0.0051
664.2193	-0.0018
664.4042	0.0104
664.589	-0.0007
664.7739	0.0084
664.9587	-0.0088
665.1436	-0.0051
665.3284	0.0058
665.5132	-0.0219
665.698	0.013
665.8827	0.0065
666.0675	-0.0298
666.2522	0.0229
666.4369	0.0102
666.6216	-0
666.8063	-0.0074
666.9909	0.0058
667.1756	-0.0168
667.3602	0.0079
667.5448	-0.0156
667.7294	0.0097
667.9139	0.001
668.0985	0.0229
668.283	-0
668.4675	0.035
668.652	0.0084
668.8365	0.0101
669.0209	0.0108
669.2054	0.01
669.3898	-0.0006
669.5742	0.0187
669.7586	0.0212
669.943	0.0102
670.1273	-0.0149
670.3117	-0.003
670.496	0.0016
670.6803	0.0146
670.8646	-0.0127
671.0488	0.016
671.2331	0.0007
671.4173	0.0187
671.6015	-0.0049
671.7857	0.0157
671.9699	0.0089
672.1541	-0.0007
672.3382	-0.0023
672.5223	0.0023
672.7064	0.0078
672.8905	0.0073
673.0746	0.0223
673.2587	0.0232
673.4427	-0.0119
673.6267	0.0148
673.8107	0.0076
673.9947	0.0098
674.1787	0.0253
674.3626	0.0063
674.5465	0.0346
674.7304	0.002
674.9143	0.0013
675.0982	0.0071
675.2821	-0.0014
675.4659	0.0015
675.6497	0.0038
675.8335	0.0155
676.0173	-0.0109
676.2011	0.0164
676.3849	0.0009
676.5686	0.0042
676.7523	-0
676.936	-0.0062
677.1197	-0.0003
677.3034	0.0349
677.487	0.0217
677.6706	-0.0038
677.8542	0.0091
678.0378	-0.0162
678.2214	0.0179
678.405	0.0037
678.5885	0.0081
678.772	0.0131
678.9555	0.0044
679.139	0.0204
679.3225	0.0046
679.5059	-0.0083
679.6894	0.0083
679.8728	0.001
680.0562	0.0174
680.2395	-0.0042
680.4229	-0.0076
680.6062	-0.0023
680.7896	-0.0161
680.9729	0.0178
681.1562	-0.0139
681.3394	-0.002
681.5227	0.0097
681.7059	0.0073
681.8891	0.0024
682.0723	-0.0047
682.2555	-0
682.4387	0.0161
682.6218	0.0125
682.805	0.0037
682.9881	0.0209
683.1712	0.0172
683.3542	-0.0002
683.5373	0.0028
683.7203	0.0128
683.9034	-0.0026
684.0864	0.0136
684.2694	0.0004
684.4523	0.0094
684.6353	0.0129
684.8182	0.0036
685.0011	0.0081
685.184	-0.0049
685.3669	0.023
685.5498	0.0016
685.7326	-0.0054
685.9154	0.0022
686.0982	0.0133
686.281	0.0137
686.4638	0.007
686.6465	-0.0078
686.8293	-0.0083
687.012	0.0234
687.1947	-0
687.3774	0.03
687.56	-0.0031
687.7427	0.0032
687.9253	-0.0149
688.1079	0.0144
688.2905	-0.0048
688.4731	0.0169
688.6556	0.0105
688.8382	-0.0301
689.0207	0.0261
689.2032	0.014
689.3857	0.0016
689.5681	0.0092
689.7506	0.0134
689.933	0.0053
690.1154	0.0011
690.2978	-0.0088
690.4802	0.0232
690.6626	0.0126
690.8449	0.0138
691.0272	-0.0058
691.2095	-0.0223
691.3918	0.0187
691.5741	0.0081
691.7563	0.0223
691.9386	0.0184
692.1208	0.0283
692.303	0.0058
692.4852	-0.004
692.6673	-0.0124
692.8495	0.0074
693.0316	0.0141
693.2137	0.0014
693.3958	0.013
693.5778	-0.0055
693.7599	0.0063
693.9419	-0.0123
694.1239	-0.0027
694.3059	0.012
694.4879	0.0098
694.6699	-0
694.8518	0.0016
695.0337	0.0291
695.2157	0.0296
695.3975	0.0019
695.5794	-0.015
695.7613	0.0052
695.9431	-0.0395
696.1249	0.0308
696.3067	0.0045
696.4885	0.0221
696.6703	0.0145
696.852	0.0027
697.0337	0.0272
697.2154	0.0089
697.3971	0.0196
697.5788	0.0197
697.7605	-0.0118
697.9421	0.0157
698.1237	0.009
698.3053	-0.0076
698.4869	-0.01
698.6685	-0.0027
698.85	0.0363
699.0315	-0.0105
699.213	0.0232
699.3945	-0.0024
699.576	0.0068
699.7575	0.0167
699.9389	0.0055
700.1203	0.0167
700.3017	0.0279
700.4831	0.0417
700.6645	0.011
700.8458	-0.0102
701.0271	0.0321
701.2084	-0.0089
701.3897	-0.0015
701.571	-0.0267
701.7523	0.0063
701.9335	0.0265
702.1147	0.022
702.2959	-0.0221
702.4771	0.0176
702.6583	-0.0025
702.8394	-0.0178
703.0205	0.013
703.2016	-0.0135
703.3827	0.007
703.5638	-0.0011
703.7449	0.0178
703.9259	0.0095
704.1069	-0.0239
704.2879	0.0262
704.4689	0.0093
704.6499	0.0078
704.8308	-0
705.0117	0.0103
705.1927	0.0125
705.3735	0.0365
705.5544	0.0273
705.7353	0.0206
705.9161	-0.0096
706.0969	0.0114
706.2777	0.0142
706.4585	0.0029
706.6393	0.0231
706.82	0.0002
707.0007	-0.0022
707.1815	0.0149
707.3621	0.0305
707.5428	0.008
707.7235	-0.0002
707.9041	0.0208
708.0847	0.0079
708.2653	0.0267
708.4459	0.0127
708.6265	0.0129
708.807	0.0176
708.9875	-0
709.168	0.0046
709.3485	0.016
709.529	0.0014
709.7095	-0.0241
709.8899	0.0013
710.0703	0.0379
710.2507	-0.0012
710.4311	-0.014
710.6115	0.0274
710.7918	0.0205
710.9721	0.0159
711.1524	-0.0174
711.3327	-0.0158
711.513	-0.0095
711.6932	0.0072
711.8735	0.025
712.0537	-0.0081
712.2339	0.0148
712.4141	0.035
712.5942	-0.004
712.7744	0.0199
712.9545	0.008
713.1346	0.0124
713.3147	0.0128
713.4947	0.0109
713.6748	0.0027
713.8548	0.0181
714.0348	0.0108
714.2148	0.0059
714.3948	0.0265
714.5748	0.0148
714.7547	0.0193
714.9346	0.0354
715.1145	-0.0153
715.2944	-0.0106
715.4743	0.0178
715.6541	0.0043
715.834	0.0338
716.0138	0.0209
716.1936	-0.0136
716.3733	0.0071
716.5531	0.0109
716.7328	0.0223
716.9126	0.0184
717.0923	-0.0127
717.2719	-0.0094
717.4516	0.0141
717.6312	-0.0302
717.8109	0.0201
717.9905	-0.0042
718.1701	0.0127
718.3496	0.016
718.5292	-0.0064
718.7087	0.0015
718.8882	0.0229
719.0677	0.0179
719.2472	-0.0114
719.4267	0.0022
719.6061	-0.033
719.7856	0.0248
719.965	-0.0042
720.1443	0.0131
720.3237	-0.007
720.5031	0.0187
720.6824	-0.0138
720.8617	-0.0011
721.041	0.0212
721.2203	-0.008
721.3995	0.0023
721.5788	-0.0116
721.758	0.0038
721.9372	0.0024
722.1164	-0.0168
722.2956	0.0098
722.4747	-0.0009
722.6538	-0.0169
722.8329	0.0279
723.012	0.0112
723.1911	0.0204
723.3702	0.0326
723.5492	0.0215
723.7282	-0.0185
723.9072	0.0134
724.0862	0.0054
724.2652	0.0095
724.4441	0.0012
724.623	-0.0034
724.8019	0.0101
724.9808	0.0238
725.1597	0.0138
725.3385	-0.0054
725.5174	0.002
725.6962	0.0082
725.875	0.009
726.0538	0.0017
726.2325	0.0323
726.4112	-0.0129
726.59	-0.0114
726.7687	-0.0016
726.9474	0.0086
727.126	0.031
727.3047	-0.0166
727.4833	-0.0037
727.6619	-0.0085
727.8405	-0.0065
728.0191	0.033
728.1976	0.0053
728.3762	0.0004
728.5547	-0.0157
728.7332	-0.0119
728.9116	0.0159
729.0901	0.0063
729.2686	0.0144
729.447	-0.0255
729.6254	-0.0115
729.8038	-0
729.9821	-0
730.1605	0.0115
730.3388	0.019
730.5171	0.0254
730.6954	-0.0129
730.8737	0.0138
731.0519	-0.0061
731.2302	0.0417
731.4084	-0.0104
731.5866	-0.0006
731.7648	-0.0138
731.9429	0.002
732.1211	-0.0006
732.2992	0.0096
732.4773	-0.0003
732.6554	-0.0048
732.8335	0.026
733.0115	0.018
733.1896	-0.0124
733.3676	0.0271
733.5456	0.0027
733.7235	-0.0174
733.9015	0.0066
734.0794	-0.008
734.2574	-0.0243
734.4353	0.0118
734.6131	0.015
734.791	0.0042
734.9689	-0.0026
735.1467	-0.0022
735.3245	0.0214
735.5023	0.0179
735.68	0.0167
735.8578	0.0131
736.0355	-0.0071
736.2132	-0.0153
736.3909	0.0187
736.5686	-0.0123
736.7463	-0.0127
736.9239	0.0219
737.1015	0.0215
737.2791	0.0185
737.4567	0.0246
737.6343	-0.0188
737.8118	0.0257
737.9894	-0.0007
738.1669	-0.003
738.3444	0.0453
738.5218	-0.0224
738.6993	0.001
738.8767	-0.0106
739.0541	-0.001
739.2315	-0.0016
739.4089	0.0203
739.5863	0.0061
739.7636	0.0094
739.9409	0.0077
740.1182	-0.0031
740.2955	0.0023
740.4728	-0.0128
740.65	-0.0065
740.8272	0.0439
741.0044	-0
741.1816	0.0181
741.3588	-0.0373
741.5359	-0.0079
741.7131	0.0176
741.8902	-0.0118
742.0673	-0.0387
742.2444	0.0357
742.4214	0.0297
742.5985	0.0101
742.7755	0.0114
742.9525	-0.0499
743.1295	-0.0144
743.3064	-0.0024
743.4834	-0.002
743.6603	0.0417
743.8372	-0.0382
744.0141	0.0535
744.191	0.0038
744.3678	-0.0097
744.5446	-0.019
744.7215	0.0181
744.8982	0.0183
745.075	0.0302
745.2518	0.0176
745.4285	0.0224
745.6052	-0.0322
745.7819	0.0142
745.9586	-0.0031
746.1353	0.0031
746.3119	0.0028
746.4885	0.0055
746.6651	-0.0056
746.8417	0.0107
747.0183	0.0303
747.1948	-0.0252
747.3714	0.0226
747.5479	0.0281
747.7244	-0.0193
747.9008	0.0084
748.0773	0.0245
748.2537	0.0022
748.4301	0.027
748.6065	-0.0181
748.7829	-0.0123
748.9593	0.0019
749.1356	0.0003
749.3119	0.0265
749.4882	0.0304
749.6645	-0.011
749.8408	0.0118
750.017	0.0071
750.1933	-0.0124
750.3695	0.0029
750.5457	-0.0094
750.7218	-0.0013
750.898	-0.0053
751.0741	-0.0057
751.2502	-0.0003
751.4263	0.0022
751.6024	0.0192
751.7784	0.0146
751.9545	0.0188
752.1305	0.0084
752.3065	-0.0085
752.4825	-0.002
752.6584	0.0245
752.8344	0.0196
753.0103	0.0054
753.1862	0.0234
753.3621	-0.0235
753.5379	-0.0109
753.7138	0.0065
753.8896	0.0165
754.0654	-0.0069
754.2412	0.0024
754.417	0.0327
754.5927	0.0124
754.7685	0.0248
754.9442	0.0034
755.1199	0.0226
755.2956	0.0096
755.4712	-0.0109
755.6469	-0.0071
755.8225	0.0258
755.9981	0.0003
756.1736	0.0099
756.3492	0.0163
756.5248	0.0129
756.7003	-0.008
756.8758	0.0045
757.0513	0.0004
757.2267	-0.0037
757.4022	0.0034
757.5776	0.0289
757.753	0.0137
757.9284	-0.0031
758.1038	0.0159
758.2791	0.0103
758.4545	-0.0114
758.6298	0.0081
758.8051	0.0153
758.9803	0.0021
759.1556	-0.003
759.3308	-0.0043
759.506	-0.0004
759.6812	-0.0019
759.8564	-0.006
760.0316	-0.0061
760.2067	0.0231
760.3819	0.0049
760.557	-0.0038
760.732	-0.0009
760.9071	0.0273
761.0821	-0.0138
761.2572	0.0183
761.4322	0.0166
761.6072	0.0051
761.7821	-0.0146
761.9571	0.0258
762.132	-0.0034
762.3069	0.0256
762.4818	-0
762.6567	-0.0044
762.8316	0.0346
763.0064	0.0007
763.1812	0.0078
763.356	-0.0279
763.5308	0.0225
763.7055	-0.0089
763.8803	0.0088
764.055	-0.0182
764.2297	-0.0075
764.4044	0.0092
764.579	0.0028
764.7537	-0.0088
764.9283	0.0014
765.1029	0.0005
765.2775	-0.0013
765.4521	0.0258
765.6266	0.0022
765.8011	0.0194
765.9756	0.0165
766.1501	0.026
766.3246	0.0078
766.4991	-0
766.6735	0.0114
766.8479	0.019
767.0223	0.0005
767.1967	0.025
767.371	0.0104
767.5454	0.029
767.7197	0.0195
767.894	0.049
768.0683	0.0065
768.2425	0.0039
768.4168	0.0198
768.591	0.0139
768.7652	0.0038
768.9394	-0.0029
769.1135	-0.0094
769.2877	0.0205
769.4618	0.009
769.6359	-0
769.81	-0.0045
769.984	0.0091
770.1581	-0.0007
770.3321	0.0276
770.5061	-0.0092
770.6801	-0.0082
770.8541	0.0147
771.028	0.0188
771.202	0.0268
771.3759	-0.0189
771.5498	0.0119
771.7236	0.0036
771.8975	0.0144
772.0713	-0.0027
772.2451	-0.0181
772.4189	0.0019
772.5927	-0.0346
772.7665	-0.0157
772.9402	0.0326
773.1139	-0.0168
773.2876	0.0157
773.4613	0.0383
773.635	0.0128
773.8086	0.0097
773.9822	0.0556
774.1558	0.0473
774.3294	-0.0154
774.503	-0.0041
774.6765	0.0317
774.8501	-0.0068
775.0236	0.0216
775.1971	-0.0201
775.3705	-0.0062
775.544	-0.0392
775.7174	0.0066
775.8908	-0.0026
776.0642	0.0025
776.2376	0.0118
776.4109	-0.037
776.5843	-0.0113
776.7576	0.0094
776.9309	0.042
777.1041	-0.0096
777.2774	-0.0147
777.4506	0.0052
777.6238	-0.0155
777.797	-0.0226
777.9702	-0.002
778.1434	0.0183
778.3165	-0.0193
778.4896	-0.0292
778.6627	0.0237
778.8358	-0.0209
779.0089	-0.0136
779.1819	0.0092
779.3549	0.0165
779.5279	-0.0325
779.7009	0.0384
779.8739	0.0564
780.0468	-0.0077
780.2197	0.0101
780.3926	-0.002
780.5655	0.0223
780.7384	-0.0082
780.9112	0.0346
781.0841	0.0257
781.2569	0.0293
781.4297	0.0064
781.6024	0.012
781.7752	0.0457
781.9479	0.0504
782.1206	-0.0104
782.2933	-0
782.466	-0.0228
782.6386	-0
782.8113	0.0106
782.9839	-0.0104
783.1565	0.0226
783.329	-0.0181
783.5016	-0.009
783.6741	-0.0238
783.8466	0.0327
784.0191	-0
784.1916	-0.0008
784.3641	-0.0193
784.5365	0.0108
784.7089	0.0093
784.8813	0.0602
785.0537	0.0069
785.2261	0.0371
785.3984	-0.0156
785.5707	-0.0216
785.743	0.0396
785.9153	-0.0416
786.0876	-0.0344
786.2598	0.0037
786.432	0.019
786.6042	0.0138
786.7764	0.004
786.9486	-0.049
787.1207	0.0805
787.2928	0.0325
787.4649	-0.0318
787.637	0.003
787.8091	0.0113
787.9811	0.0489
788.1532	0.0157
788.3252	0.0006
788.4972	0.0232
788.6691	0.0143
788.8411	-0.0066
789.013	0.0013
789.1849	-0.0077
789.3568	0.0104
789.5287	0.0534
789.7005	-0.0066
789.8723	-0.0201
790.0442	-0.0688
790.2159	0.031
790.3877	0.0117
790.5595	0.0588
790.7312	-0.0373
790.9029	-0.0091
791.0746	0.0594
791.2463	-0.0215
791.4179	0.0479
791.5896	0.0069
791.7612	-0
791.9328	-0.0062
792.1044	0.0319
792.2759	-0.0074
792.4474	-0.0292
792.619	-0.021
792.7905	0.0282
792.9619	0.039
793.1334	0.0885
793.3048	0.0339
793.4762	0.0287
793.6476	-0.0109
793.819	0.0013
793.9904	-0.0066
794.1617	-0.0123
794.333	0.0147
794.5043	0.0315
794.6756	-0.0164
794.8469	0.0283
795.0181	0.0057
795.1893	0.0425
795.3605	0.0168
795.5317	-0
795.7029	0.0008
795.874	-0.0174
796.0452	0.0219
796.2163	0.0887
796.3873	0.0937
796.5584	0.0602
796.7294	-0.0132
796.9005	-0.0484
797.0715	0.0226
797.2425	0.0934
797.4134	0.0412
797.5844	-0.0098
797.7553	-0.0512
797.9262	0.1102
798.0971	0.0721
798.2679	-0.0036
798.4388	0.0815
798.6096	0.0475
798.7804	0.0422
798.9512	0.0178
799.122	0.0417
799.2927	0.1093
799.4635	-0.0647
799.6342	-0.0195
799.8049	0.0726
799.9755	-0.0221
800.1462	0.0209
800.3168	0.0147
800.4874	-0.1273
800.658	0.0359
800.8286	-0
800.9991	-0.0801
801.1696	0.0428
801.3402	-0.0685
801.5106	-0.0839
801.6811	-0
801.8516	0.0673
802.022	0.0333
802.1924	-0.0691
802.3628	0.0039
802.5332	0.0722
802.7035	0.0194
802.8739	0.0138
803.0442	-0.0111
803.2145	0.0767
803.3847	-0.0167
803.555	0.0509
803.7252	-0.0174
803.8954	-0.0113
804.0656	-0.0148
804.2358	0.0282
804.4059	0.0206
804.5761	-0
804.7462	0.023
804.9163	0.0499
805.0864	-0.0615
805.2564	-0.0167
805.4264	-0.0424
805.5965	0.0306
805.7665	-0.0179
805.9364	-0.0485
806.1064	-0.025
806.2763	0.0163
806.4462	0.08
806.6161	0.0018
806.786	0.0311
806.9559	0.0219
807.1257	-0.0284
807.2955	-0.0429
807.4653	0.0145
807.6351	0.0423
807.8048	-0.0609
807.9746	0.0472
808.1443	-0.03
808.314	0.0482
808.4837	0.0866
808.6533	-0.0123
808.8229	0.0184
808.9926	0.0565
809.1622	0.0071
809.3317	-0.0457
809.5013	-0
809.6708	0.0473
809.8403	0.0065
810.0098	0.0449
810.1793	0.0021
810.3488	-0.0693
810.5182	0.1209
810.6876	0.0118
810.857	0.0825
811.0264	-0.0885
811.1958	0.0636
811.3651	-0.0296
811.5344	0.0497
811.7037	0.0845
811.873	0.0992
812.0422	-0.126
812.2115	0.0239
812.3807	-0.0253
812.5499	0.0185
812.7191	-0.1127
812.8882	-0.2038
813.0574	0.1124
813.2265	-0.0513
813.3956	0.119
813.5646	-0.0023
813.7337	-0.049
813.9027	-0.0336
814.0718	0.0172
814.2407	0.0676
814.4097	-0.0028
814.5787	0.0731
814.7476	0.0301
814.9165	0.102
815.0854	-0.0363
815.2543	0.0071
815.4232	0.0526
815.592	0.0507
815.7608	-0.0386
815.9296	-0.0055
816.0984	0.0522
816.2671	-0.1915
816.4359	0.1568
816.6046	-0.0407
816.7733	0.0069
816.942	0.0631
817.1106	0.1392
817.2793	-0.049
817.4479	0.1707
817.6165	0.035
817.785	0.1011
817.9536	-0.1978
818.1221	0.0572
818.2906	-0.0985
818.4591	0.0619
818.6276	0.0278
818.7961	-0.0032
818.9645	0.0965
819.1329	0.1037
819.3013	-0.0703
819.4697	-0.0213
819.638	-0.0176
819.8064	0.0485
819.9747	0.0448
820.143	-0.0117
820.3113	0.0714
820.4795	0.0138
820.6477	0.0618
820.816	0.0352
820.9842	0.0499
821.1523	0.0675
821.3205	-0.0691
821.4886	-0.0629
821.6567	-0.1492
821.8248	0.1367
821.9929	-0.1465
822.1609	0.0572
822.329	0.012
822.497	0.044
822.665	-0.1395
822.833	-0.0942
823.0009	0.0366
823.1688	0.1812
823.3367	-0.1444
823.5046	0.0138
823.6725	-0.1043
823.8404	0.0508
824.0082	0.0851
824.176	-0.0519
824.3438	-0.0099
824.5116	-0.0157
824.6793	0.1439
824.847	0.1601
825.0147	-0.0562
825.1824	0.2957
825.3501	-0.0196
825.5177	-0.0035
825.6854	-0.2043
825.853	0.253
826.0206	0.0964
826.1881	0.1453
826.3557	-0.1332
826.5232	0.1715
826.6907	0.1001
826.8582	-0.0956
827.0257	0.0788
827.1931	0.0465
827.3605	-0.1137
827.528	0.0673
827.6953	-0.1229
827.8627	-0.0296
828.03	0.0589
828.1974	0.0136
828.3647	0.0999
828.532	-0.0513
828.6992	0.1427
828.8665	-0.3646
829.0337	-0.0148
829.2009	-0.1483
829.3681	-0.0965
829.5352	-0.2769
829.7024	-0.0416
829.8695	-0.0601
830.0366	0.2574
830.2037	0.0958
830.3707	0.1003
830.5378	-0.1072
830.7048	-0.1065
830.8718	0.1017
831.0388	0.1826
831.2057	-0.1111
831.3727	-0.4243
831.5396	0.0353
831.7065	-0.7494
831.8734	0.1385
832.0402	0.1306
832.2071	0.8643
832.3739	-0.1699
832.5407	-1.8091
832.7075	0.338
832.8742	-0
833.041	0.0865
833.2077	0.4107
833.3744	0.155
833.541	-0.1277
833.7077	-0.0183
833.8743	0.3113
834.0409	-0.0034
834.2075	0.2286
834.3741	-0.2846
834.5407	0.0334
834.7072	0.0205
834.8737	0.5536
835.0402	0.1601
835.2067	0.1043
835.3731	-0.0054
835.5395	-0.0651
835.706	-0.2549
835.8723	0.5327
836.0387	0.4019
836.2051	0.0516
836.3714	0.1741
836.5377	-0.1238
836.704	0.2514
836.8703	-0.1181
837.0365	-0.5608
837.2027	0.1181
837.3689	0.5417
837.5351	0.5768
837.7013	0.0204
837.8674	-0.5555
838.0335	-0.0252
838.1997	-0.0932
838.3657	0.1562
838.5318	-0.6373
838.6978	-0
838.8639	-0.5273
839.0299	-0.0265
839.1958	0.146
839.3618	-0
839.5277	0.0261
839.6937	-0.0585
839.8596	-0.1042
840.0254	-0.2199
840.1913	0.0565
840.3571	-0.0289
840.523	-0
840.6888	-0.0181
840.8545	0.0641
841.0203	0.0691
841.186	-0.099
841.3517	-0.0183
841.5174	0.1566
841.6831	-0.0129
841.8488	-0.077
842.0144	0.2085
842.18	0.1988
842.3456	-0.6451
842.5112	-0
842.6767	0.2829
842.8422	-0.2094
843.0077	0.1259
843.1732	-0.3258
843.3387	-0
843.5042	-0.2107
843.6696	0.4746
843.835	-0.0244
844.0004	-0.2375
844.1657	-1.1139
844.3311	-0.027
844.4964	0.1152
844.6617	0.0381
844.827	0.2486
844.9923	0.4392
845.1575	-0.2942
845.3227	-0.4262
845.4879	-0.0804
845.6531	0.3237
845.8183	0.3237
845.9834	-0.3069
846.1485	0.3709
846.3136	0.442
846.4787	-0
846.6438	0.4492
846.8088	-0.0977
846.9738	-0
847.1388	0.201
847.3038	-0
847.4687	-0
847.6337	-0.5943
847.7986	0.2928
847.9635	-0.174
848.1284	0.9096
848.2932	0.4758
848.458	-0
848.6228	-0
848.7876	0.4543
848.9524	0.1515
849.1172	-1.853
849.2819	-0.9681
849.4466	0.0515
849.6113	0.3564
849.7759	-0
849.9406	0.1987
850.1052	-0.9334
850.2698	-0
850.4344	0.6803
850.599	0.1269
850.7635	0.1407
850.928	1.9466
851.0925	0.4716
851.257	0.2933
851.4215	0.2404
851.5859	0.8628
851.7503	-0
851.9147	0.1
852.0791	-0.1801
852.2434	0.0943
852.4078	-0
852.5721	0.1025
852.7364	-0.126
852.9007	-0.0574
853.0649	-0
853.2291	0.0599
853.3934	1.4378
853.5575	0.4752
853.7217	-0.0271
853.8859	-0.6342
854.05	-0.4757
854.2141	0.9567
854.3782	0.3082
854.5423	-0.3061
854.7063	0.1972
854.8703	-0.1238
855.0343	0.1065
855.1983	-0.1123
855.3623	0.1261
855.5262	-0
855.6901	0.4642
855.854	0.0634
856.0179	-0.3488
856.1818	1.0949
856.3456	0.4829
856.5094	-0.1661
856.6732	-0.2111
856.837	-1.3481
857.0008	0.0538
857.1645	0.0228
857.3282	-0.3216
857.4919	0.2061
857.6556	1.4792
857.8192	-0.2126
857.9828	-0.0325
858.1465	-0.1692
858.31	-0
858.4736	-0.7259
858.6372	-0.2697
858.8007	0.3462
858.9642	0.2102
859.1277	0.1958
859.2911	-0.5113
859.4546	-0
859.618	0.2296
859.7814	-0.3785
859.9448	-0
860.1081	-0
860.2715	-0
860.4348	0.0855
860.5981	0.3672
860.7614	-0
860.9246	-0.0489
861.0879	-0.1089
861.2511	-0.3288
861.4143	-0
861.5774	0.0988
861.7406	0.2703
861.9037	-0.3603
862.0668	-0
862.2299	0.211
862.393	0.1577
862.556	-0
862.7191	0.2111
862.8821	0.0974
863.0451	-0
863.208	-0.2137
863.371	-0
863.5339	0.5352
863.6968	0.1522
863.8597	-0.3823
864.0225	-0
864.1854	-0
864.3482	-0
864.511	-0.0542
864.6737	-0
864.8365	0.1203
864.9992	0.5666
865.1619	-0.2319
865.3246	-2.0652
865.4873	-0
865.65	1.1853
865.8126	-0
865.9752	0.0988
866.1378	0.2214
866.3004	-0.2121
866.4629	-1.9115
866.6254	-0.3441
866.7879	-0.399
866.9504	-0
867.1129	-0.0288
867.2753	-0.089
867.4377	-0.1522
867.6001	-0
867.7625	-0.0317
867.9249	-0
868.0872	-0
868.2495	-0
868.4118	0
868.5741	-0.4389
868.7363	0
868.8986	0.1914
869.0608	1.2587
869.223	-0.4753
869.3851	-0
869.5473	-0.1686
869.7094	-0.0156
869.8715	-0.9587
870.0336	-0.0366
870.1957	-0.3366
870.3577	0.1937
870.5197	-0.0724
870.6817	-0.4012
870.8437	-0.4991
871.0057	-0
871.1676	0.0252
871.3295	-0
871.4914	-0
871.6533	-0.3104
871.8151	-0
871.977	-0.1209
872.1388	-0.2594
872.3006	-0.761
872.4623	0.4063
872.6241	-0
872.7858	0.2658
872.9475	-0.0422
873.1092	-0.1181
873.2709	-0
873.4325	-1.7853
873.5941	-0.7634
873.7557	-0
873.9173	-0
874.0789	-0.049
874.2404	-0
874.4019	0.0487
874.5634	-0
874.7249	-0
874.8863	-0
875.0478	-0.2971
875.2092	0.7692
875.3706	0.0649
875.5319	-0
875.6933	0.1936
875.8546	-0
876.0159	0.2138
876.1772	-0
876.3385	-0
876.4997	0.0915
876.6609	0.4927
876.8221	-0
876.9833	-0.3066
877.1445	0.3755
877.3056	-0
877.4667	-0.935
877.6278	0.5446
877.7889	-0.0954
877.9499	0.6331
878.111	-0.7736
878.272	-0
878.433	0.8183
878.5939	-0
878.7549	-0
878.9158	-0
879.0767	-0
879.2376	-0
879.3984	0.7432
879.5593	-0
879.7201	-1.3671
879.8809	0.4012
880.0417	-0.2465
880.2024	0.2064
880.3632	-0.1813
880.5239	-0.0267
880.6846	-0.4743
880.8452	-0.1786
881.0059	-0
881.1665	-0.0586
881.3271	0.615
881.4877	-0
881.6483	-1.3595
881.8088	-0
881.9693	-0
882.1298	-0
882.2903	-0
