Data from D4ACN5uM420nmA_Absorbance_14-37-08-156.txt Node
Date: Fri Feb 21 14:37:08 GMT 2025
User: LASERRRRR
Spectrometer: FLMT03099
Trigger mode: 0
Integration Time (sec): 1.500000E-2
Scans to average: 1
Electric dark correction enabled: true
Nonlinearity correction enabled: false
Boxcar width: 0
XAxis mode: Wavelengths
Number of Pixels in Spectrum: 3648
>>>>>Begin Spectral Data<<<<<
179.3399	-0.0663
179.5586	-0.0663
179.7771	-0.0663
179.9957	-0.2536
180.2143	-1.3072
180.4329	0.7248
180.6514	-0
180.8699	-0
181.0885	-0
181.307	0.4045
181.5255	0.309
181.744	0.9508
181.9625	-0
182.181	-0.2952
182.3994	-0.2503
182.6179	-0
182.8363	-0
183.0547	-0.2808
183.2732	0.1203
183.4916	0.3236
183.71	0.1829
183.9284	0.135
184.1467	0.2172
184.3651	0.375
184.5835	0.245
184.8018	0.1888
185.0201	0.2187
185.2385	0.3699
185.4568	0.3276
185.6751	0.097
185.8934	0.2072
186.1117	-0.1503
186.3299	0.1304
186.5482	0.0712
186.7664	-0.0879
186.9847	-0.0058
187.2029	0.0162
187.4211	-0.0221
187.6393	0.1677
187.8575	0.0806
188.0757	0.3715
188.2939	0.0147
188.512	0.1684
188.7302	0.0461
188.9483	0.1888
189.1665	0.7433
189.3846	0.0609
189.6027	0.0628
189.8208	0.1234
190.0389	0.2926
190.257	0.334
190.475	-0.0235
190.6931	0.1704
190.9111	0.2457
191.1292	0.0609
191.3472	0.163
191.5652	0.1943
191.7832	0.296
192.0012	0.2142
192.2192	0.123
192.4371	0.171
192.6551	0.1802
192.873	0.1164
193.091	0.0988
193.3089	0.1551
193.5268	0.3395
193.7447	0.233
193.9626	0.1295
194.1805	0.187
194.3984	0.2032
194.6162	0.1977
194.8341	0.2379
195.0519	0.1276
195.2697	0.2711
195.4875	0.2607
195.7054	0.2249
195.9231	0.1687
196.1409	0.3951
196.3587	0.3156
196.5765	0.3153
196.7942	0.2298
197.012	0.2969
197.2297	0.2809
197.4474	0.3246
197.6651	0.2639
197.8828	0.3513
198.1005	0.4389
198.3182	0.3786
198.5358	0.3718
198.7535	0.4137
198.9711	0.3863
199.1888	0.3454
199.4064	0.4086
199.624	0.3478
199.8416	0.3672
200.0592	0.409
200.2767	0.4478
200.4943	0.4286
200.7119	0.3995
200.9294	0.3817
201.1469	0.3823
201.3645	0.4428
201.582	0.368
201.7995	0.3958
202.017	0.3902
202.2344	0.411
202.4519	0.4072
202.6694	0.4015
202.8868	0.3612
203.1042	0.3863
203.3217	0.38
203.5391	0.3953
203.7565	0.3643
203.9739	0.3549
204.1913	0.3439
204.4086	0.3276
204.626	0.3635
204.8433	0.3501
205.0607	0.3728
205.278	0.3181
205.4953	0.3467
205.7126	0.347
205.9299	0.3343
206.1472	0.3258
206.3644	0.3415
206.5817	0.337
206.7989	0.3077
207.0162	0.3145
207.2334	0.3335
207.4506	0.2955
207.6678	0.2877
207.885	0.3117
208.1022	0.306
208.3194	0.3072
208.5365	0.3194
208.7537	0.2932
208.9708	0.2758
209.1879	0.2775
209.405	0.2896
209.6222	0.267
209.8392	0.2928
210.0563	0.273
210.2734	0.274
210.4905	0.2855
210.7075	0.265
210.9245	0.2547
211.1416	0.2704
211.3586	0.2714
211.5756	0.2359
211.7926	0.2771
212.0096	0.2679
212.2265	0.2392
212.4435	0.2655
212.6604	0.2296
212.8774	0.223
213.0943	0.247
213.3112	0.2425
213.5281	0.2431
213.745	0.2375
213.9619	0.2393
214.1788	0.2569
214.3956	0.2447
214.6125	0.2547
214.8293	0.2464
215.0461	0.2284
215.2629	0.2466
215.4798	0.2348
215.6965	0.2534
215.9133	0.2531
216.1301	0.2265
216.3469	0.2377
216.5636	0.2459
216.7803	0.2261
216.9971	0.2535
217.2138	0.2626
217.4305	0.2584
217.6472	0.2396
217.8639	0.2448
218.0805	0.2507
218.2972	0.2456
218.5138	0.2627
218.7305	0.2451
218.9471	0.2227
219.1637	0.2623
219.3803	0.2511
219.5969	0.2481
219.8135	0.2605
220.0301	0.2602
220.2466	0.2627
220.4632	0.2525
220.6797	0.2461
220.8962	0.2608
221.1127	0.2569
221.3292	0.27
221.5457	0.2747
221.7622	0.264
221.9787	0.2758
222.1951	0.2698
222.4116	0.2686
222.628	0.2803
222.8444	0.2763
223.0608	0.2709
223.2772	0.2797
223.4936	0.2692
223.71	0.2897
223.9264	0.2878
224.1427	0.2824
224.3591	0.2839
224.5754	0.2837
224.7917	0.2916
225.008	0.2934
225.2243	0.3083
225.4406	0.2923
225.6569	0.3031
225.8732	0.3087
226.0894	0.3122
226.3057	0.3097
226.5219	0.3136
226.7381	0.3139
226.9543	0.3219
227.1705	0.313
227.3867	0.3193
227.6029	0.3318
227.8191	0.3427
228.0352	0.3323
228.2513	0.3518
228.4675	0.3409
228.6836	0.3359
228.8997	0.3432
229.1158	0.3595
229.3319	0.3457
229.548	0.3628
229.764	0.3636
229.9801	0.3652
230.1961	0.3697
230.4121	0.368
230.6282	0.3867
230.8442	0.3919
231.0602	0.3785
231.2761	0.3817
231.4921	0.3876
231.7081	0.3907
231.924	0.4065
232.14	0.406
232.3559	0.3979
232.5718	0.4066
232.7877	0.4225
233.0036	0.4076
233.2195	0.4108
233.4353	0.4106
233.6512	0.4167
233.867	0.4262
234.0829	0.4333
234.2987	0.4176
234.5145	0.4348
234.7303	0.4448
234.9461	0.4474
235.1619	0.4467
235.3776	0.4387
235.5934	0.4285
235.8091	0.4527
236.0249	0.4435
236.2406	0.4408
236.4563	0.4452
236.672	0.4511
236.8877	0.4589
237.1034	0.4457
237.319	0.4469
237.5347	0.4443
237.7503	0.4604
237.966	0.4594
238.1816	0.4506
238.3972	0.4494
238.6128	0.4642
238.8284	0.4588
239.0439	0.4614
239.2595	0.4528
239.475	0.4655
239.6906	0.4656
239.9061	0.4584
240.1216	0.4625
240.3371	0.4632
240.5526	0.464
240.7681	0.4616
240.9836	0.4557
241.199	0.4645
241.4145	0.4621
241.6299	0.4581
241.8453	0.4473
242.0607	0.4446
242.2761	0.4385
242.4915	0.4342
242.7069	0.4267
242.9223	0.4312
243.1376	0.4135
243.353	0.4187
243.5683	0.4041
243.7836	0.3977
243.9989	0.3785
244.2142	0.3876
244.4295	0.3781
244.6448	0.3826
244.86	0.3645
245.0753	0.354
245.2905	0.3501
245.5057	0.3474
245.721	0.3446
245.9362	0.3282
246.1514	0.324
246.3665	0.3141
246.5817	0.3068
246.7969	0.3018
247.012	0.2999
247.2271	0.2989
247.4423	0.2886
247.6574	0.2892
247.8725	0.2773
248.0876	0.2722
248.3026	0.2716
248.5177	0.2634
248.7328	0.2571
248.9478	0.2571
249.1628	0.2555
249.3779	0.248
249.5929	0.2465
249.8079	0.2382
250.0228	0.2373
250.2378	0.2367
250.4528	0.2331
250.6677	0.2297
250.8827	0.2215
251.0976	0.2201
251.3125	0.2212
251.5274	0.2151
251.7423	0.2159
251.9572	0.2125
252.172	0.2097
252.3869	0.2124
252.6017	0.2099
252.8166	0.2078
253.0314	0.2022
253.2462	0.2027
253.461	0.2023
253.6758	0.197
253.8906	0.1969
254.1053	0.1967
254.3201	0.1966
254.5348	0.1926
254.7496	0.1894
254.9643	0.1905
255.179	0.1864
255.3937	0.1915
255.6083	0.1931
255.823	0.1961
256.0377	0.1825
256.2523	0.1866
256.467	0.1874
256.6816	0.1848
256.8962	0.1811
257.1108	0.185
257.3254	0.1876
257.54	0.1857
257.7545	0.1922
257.9691	0.1826
258.1836	0.1816
258.3981	0.1819
258.6127	0.1783
258.8272	0.182
259.0417	0.1746
259.2561	0.1816
259.4706	0.1798
259.6851	0.1831
259.8995	0.1776
260.114	0.1798
260.3284	0.1776
260.5428	0.1851
260.7572	0.1787
260.9716	0.1854
261.186	0.1804
261.4003	0.1802
261.6147	0.1774
261.829	0.1816
262.0433	0.1858
262.2577	0.1816
262.472	0.1828
262.6863	0.1885
262.9005	0.1809
263.1148	0.181
263.3291	0.1867
263.5433	0.1845
263.7576	0.1829
263.9718	0.1869
264.186	0.1884
264.4002	0.192
264.6144	0.1964
264.8286	0.1908
265.0427	0.19
265.2569	0.1924
265.471	0.1924
265.6851	0.1866
265.8993	0.1883
266.1134	0.1916
266.3275	0.1908
266.5415	0.1913
266.7556	0.2031
266.9697	0.194
267.1837	0.1885
267.3978	0.1857
267.6118	0.1859
267.8258	0.1969
268.0398	0.1915
268.2538	0.1961
268.4677	0.19
268.6817	0.1896
268.8957	0.185
269.1096	0.1785
269.3235	0.186
269.5374	0.1881
269.7514	0.1886
269.9652	0.1838
270.1791	0.1827
270.393	0.1819
270.6068	0.1849
270.8207	0.1853
271.0345	0.1827
271.2483	0.1788
271.4622	0.1849
271.676	0.1844
271.8897	0.1806
272.1035	0.187
272.3173	0.1822
272.531	0.1853
272.7448	0.1858
272.9585	0.1813
273.1722	0.1775
273.3859	0.1861
273.5996	0.1853
273.8133	0.1849
274.0269	0.1799
274.2406	0.1893
274.4542	0.1864
274.6679	0.1894
274.8815	0.193
275.0951	0.1946
275.3087	0.1914
275.5223	0.1866
275.7358	0.1913
275.9494	0.1936
276.1629	0.1969
276.3765	0.1907
276.59	0.1909
276.8035	0.1944
277.017	0.1924
277.2305	0.1912
277.444	0.1989
277.6574	0.1967
277.8709	0.1979
278.0843	0.1998
278.2978	0.1998
278.5112	0.197
278.7246	0.1968
278.938	0.1927
279.1513	0.1996
279.3647	0.1941
279.5781	0.1961
279.7914	0.195
280.0047	0.1971
280.2181	0.189
280.4314	0.2001
280.6447	0.2016
280.8579	0.1938
281.0712	0.1929
281.2845	0.1923
281.4977	0.1992
281.711	0.1924
281.9242	0.1969
282.1374	0.1942
282.3506	0.1962
282.5638	0.1888
282.7769	0.186
282.9901	0.188
283.2033	0.1933
283.4164	0.1895
283.6295	0.1917
283.8426	0.1866
284.0557	0.1915
284.2688	0.1931
284.4819	0.1915
284.695	0.1913
284.908	0.188
285.1211	0.1961
285.3341	0.1864
285.5471	0.1943
285.7601	0.1874
285.9731	0.1902
286.1861	0.1952
286.3991	0.1946
286.612	0.1882
286.825	0.1915
287.0379	0.1897
287.2508	0.1936
287.4637	0.192
287.6766	0.1889
287.8895	0.1923
288.1024	0.195
288.3152	0.1929
288.5281	0.1878
288.7409	0.196
288.9538	0.1974
289.1666	0.1924
289.3794	0.1915
289.5922	0.1843
289.8049	0.1923
290.0177	0.1949
290.2304	0.1928
290.4432	0.1953
290.6559	0.196
290.8686	0.193
291.0813	0.1905
291.294	0.1963
291.5067	0.1951
291.7194	0.1939
291.932	0.1943
292.1447	0.1923
292.3573	0.196
292.5699	0.1913
292.7825	0.1919
292.9951	0.1897
293.2077	0.193
293.4203	0.1872
293.6328	0.1945
293.8454	0.1924
294.0579	0.1939
294.2704	0.1953
294.4829	0.196
294.6954	0.1959
294.9079	0.1857
295.1204	0.1889
295.3328	0.1981
295.5453	0.1934
295.7577	0.1912
295.9701	0.1937
296.1825	0.1951
296.3949	0.1879
296.6073	0.1892
296.8197	0.1883
297.0321	0.1917
297.2444	0.1929
297.4567	0.1936
297.6691	0.1885
297.8814	0.1934
298.0937	0.1918
298.306	0.1886
298.5182	0.1968
298.7305	0.1948
298.9428	0.1893
299.155	0.1888
299.3672	0.196
299.5794	0.1937
299.7916	0.1911
300.0038	0.1923
300.216	0.193
300.4282	0.1946
300.6403	0.1917
300.8525	0.187
301.0646	0.1899
301.2767	0.1969
301.4888	0.1872
301.7009	0.1918
301.913	0.191
302.125	0.1945
302.3371	0.1954
302.5491	0.1931
302.7612	0.1981
302.9732	0.1924
303.1852	0.1906
303.3972	0.1922
303.6092	0.1975
303.8211	0.1854
304.0331	0.1901
304.245	0.192
304.457	0.1871
304.6689	0.1911
304.8808	0.1884
305.0927	0.193
305.3046	0.1897
305.5164	0.1885
305.7283	0.1843
305.9401	0.177
306.152	0.1811
306.3638	0.1821
306.5756	0.186
306.7874	0.1798
306.9992	0.178
307.2109	0.1793
307.4227	0.1745
307.6344	0.1761
307.8462	0.1758
308.0579	0.1649
308.2696	0.173
308.4813	0.1659
308.693	0.16
308.9046	0.1715
309.1163	0.1663
309.328	0.1642
309.5396	0.1634
309.7512	0.1585
309.9628	0.1597
310.1744	0.1625
310.386	0.1519
310.5976	0.1544
310.8091	0.1576
311.0207	0.1521
311.2322	0.15
311.4437	0.1485
311.6552	0.1489
311.8667	0.1512
312.0782	0.1501
312.2897	0.1502
312.5012	0.1482
312.7126	0.1426
312.924	0.1477
313.1355	0.1427
313.3469	0.1452
313.5583	0.1462
313.7696	0.1383
313.981	0.1444
314.1924	0.1407
314.4037	0.144
314.6151	0.14
314.8264	0.1386
315.0377	0.14
315.249	0.1428
315.4603	0.139
315.6716	0.14
315.8828	0.1374
316.0941	0.1386
316.3053	0.135
316.5165	0.1394
316.7277	0.1377
316.9389	0.1397
317.1501	0.1388
317.3613	0.1317
317.5724	0.1332
317.7836	0.1294
317.9947	0.1314
318.2058	0.1318
318.417	0.133
318.6281	0.1285
318.8391	0.1365
319.0502	0.1374
319.2613	0.1303
319.4723	0.1295
319.6834	0.1403
319.8944	0.1317
320.1054	0.1353
320.3164	0.1271
320.5274	0.1341
320.7383	0.1333
320.9493	0.1352
321.1602	0.1287
321.3712	0.1329
321.5821	0.1349
321.793	0.1428
322.0039	0.1327
322.2148	0.135
322.4257	0.1307
322.6365	0.1291
322.8474	0.1357
323.0582	0.1389
323.269	0.1368
323.4798	0.1402
323.6906	0.1344
323.9014	0.1356
324.1122	0.1381
324.3229	0.136
324.5337	0.1382
324.7444	0.1427
324.9551	0.1456
325.1658	0.1389
325.3765	0.1387
325.5872	0.1414
325.7979	0.1391
326.0085	0.1362
326.2192	0.1396
326.4298	0.1416
326.6404	0.1438
326.851	0.1366
327.0616	0.1452
327.2722	0.1415
327.4828	0.1381
327.6933	0.1483
327.9039	0.1428
328.1144	0.1416
328.3249	0.1425
328.5354	0.1474
328.7459	0.1447
328.9564	0.1448
329.1669	0.1547
329.3773	0.1421
329.5878	0.1488
329.7982	0.1449
330.0086	0.1442
330.219	0.1425
330.4294	0.1499
330.6398	0.1483
330.8502	0.1497
331.0605	0.1478
331.2708	0.1428
331.4812	0.1456
331.6915	0.1484
331.9018	0.1535
332.1121	0.1508
332.3224	0.1529
332.5326	0.1411
332.7429	0.1507
332.9531	0.151
333.1633	0.1422
333.3735	0.149
333.5837	0.1462
333.7939	0.1468
334.0041	0.1573
334.2143	0.1464
334.4244	0.1532
334.6346	0.1429
334.8447	0.1497
335.0548	0.1574
335.2649	0.1476
335.475	0.1546
335.685	0.1558
335.8951	0.15
336.1051	0.1502
336.3152	0.1541
336.5252	0.1476
336.7352	0.1462
336.9452	0.1499
337.1552	0.1459
337.3652	0.1443
337.5751	0.1501
337.7851	0.1561
337.995	0.1472
338.2049	0.146
338.4148	0.1493
338.6247	0.1531
338.8346	0.1489
339.0445	0.1514
339.2543	0.1558
339.4642	0.1511
339.674	0.1528
339.8838	0.1574
340.0936	0.156
340.3034	0.1485
340.5132	0.1504
340.7229	0.1579
340.9327	0.1545
341.1424	0.1513
341.3522	0.1464
341.5619	0.1619
341.7716	0.1571
341.9813	0.1652
342.1909	0.1643
342.4006	0.1565
342.6102	0.1593
342.8199	0.1619
343.0295	0.1588
343.2391	0.1604
343.4487	0.165
343.6583	0.165
343.8679	0.1532
344.0774	0.1589
344.287	0.1584
344.4965	0.169
344.706	0.1687
344.9155	0.1673
345.125	0.1621
345.3345	0.1733
345.544	0.1657
345.7534	0.1734
345.9629	0.1744
346.1723	0.1753
346.3817	0.1682
346.5911	0.1683
346.8005	0.185
347.0099	0.1745
347.2193	0.1841
347.4286	0.1871
347.638	0.1781
347.8473	0.1774
348.0566	0.1768
348.2659	0.1831
348.4752	0.1862
348.6845	0.1784
348.8937	0.1823
349.103	0.182
349.3122	0.1811
349.5214	0.187
349.7306	0.1873
349.9398	0.1768
350.149	0.1819
350.3582	0.1826
350.5674	0.1871
350.7765	0.182
350.9856	0.1768
351.1948	0.182
351.4039	0.1824
351.613	0.1864
351.822	0.1905
352.0311	0.1909
352.2402	0.186
352.4492	0.1878
352.6582	0.1925
352.8672	0.1893
353.0762	0.1929
353.2852	0.1881
353.4942	0.1971
353.7032	0.1892
353.9121	0.185
354.1211	0.19
354.33	0.1932
354.5389	0.1856
354.7478	0.1872
354.9567	0.1926
355.1655	0.1886
355.3744	0.1923
355.5833	0.1896
355.7921	0.1989
356.0009	0.1892
356.2097	0.186
356.4185	0.1948
356.6273	0.1949
356.8361	0.1898
357.0448	0.1925
357.2536	0.1928
357.4623	0.1902
357.671	0.1906
357.8797	0.1911
358.0884	0.1973
358.2971	0.1953
358.5057	0.1944
358.7144	0.1924
358.923	0.2017
359.1316	0.202
359.3402	0.2026
359.5488	0.1949
359.7574	0.2029
359.966	0.2014
360.1746	0.1992
360.3831	0.2139
360.5916	0.2083
360.8002	0.2016
361.0087	0.1971
361.2172	0.2049
361.4256	0.2073
361.6341	0.2061
361.8426	0.2086
362.051	0.2177
362.2594	0.2042
362.4678	0.2073
362.6762	0.217
362.8846	0.2163
363.093	0.2192
363.3014	0.2182
363.5097	0.2168
363.718	0.223
363.9264	0.2174
364.1347	0.2177
364.343	0.2234
364.5513	0.2287
364.7595	0.228
364.9678	0.2225
365.176	0.2304
365.3842	0.2226
365.5925	0.2246
365.8007	0.2264
366.0089	0.2298
366.217	0.2243
366.4252	0.2244
366.6333	0.231
366.8415	0.2345
367.0496	0.2292
367.2577	0.2298
367.4658	0.2312
367.6739	0.2331
367.882	0.2348
368.09	0.2258
368.2981	0.2316
368.5061	0.2305
368.7141	0.2327
368.9221	0.2434
369.1301	0.2385
369.3381	0.2387
369.5461	0.2371
369.754	0.2363
369.962	0.2415
370.1699	0.248
370.3778	0.2496
370.5857	0.2424
370.7936	0.2441
371.0015	0.2427
371.2093	0.2424
371.4172	0.2411
371.625	0.2419
371.8328	0.2375
372.0406	0.2475
372.2484	0.2442
372.4562	0.2466
372.664	0.2525
372.8717	0.2489
373.0795	0.2557
373.2872	0.2568
373.4949	0.2578
373.7026	0.2457
373.9103	0.2512
374.118	0.2646
374.3256	0.2635
374.5333	0.2521
374.7409	0.2573
374.9485	0.2515
375.1561	0.2607
375.3637	0.2518
375.5713	0.2662
375.7789	0.2562
375.9864	0.2615
376.194	0.2677
376.4015	0.2609
376.609	0.2642
376.8165	0.265
377.024	0.2604
377.2315	0.2607
377.4389	0.2596
377.6464	0.2674
377.8538	0.2681
378.0612	0.2792
378.2686	0.2638
378.476	0.2787
378.6834	0.271
378.8908	0.2728
379.0981	0.2743
379.3055	0.2678
379.5128	0.2658
379.7201	0.2682
379.9274	0.2714
380.1347	0.2736
380.342	0.2787
380.5492	0.2775
380.7565	0.2673
380.9637	0.2878
381.1709	0.2749
381.3781	0.2873
381.5853	0.271
381.7925	0.2751
381.9997	0.2851
382.2068	0.2893
382.4139	0.2825
382.6211	0.2873
382.8282	0.2828
383.0353	0.288
383.2424	0.2802
383.4494	0.286
383.6565	0.2836
383.8635	0.2859
384.0706	0.2936
384.2776	0.2799
384.4846	0.2863
384.6916	0.285
384.8986	0.2979
385.1055	0.2914
385.3125	0.2963
385.5194	0.2944
385.7263	0.2912
385.9333	0.2869
386.1402	0.2884
386.347	0.2904
386.5539	0.2903
386.7608	0.2789
386.9676	0.2863
387.1744	0.2869
387.3813	0.2908
387.5881	0.277
387.7948	0.2914
388.0016	0.2942
388.2084	0.2819
388.4151	0.2895
388.6219	0.2735
388.8286	0.2865
389.0353	0.2863
389.242	0.2895
389.4487	0.2806
389.6553	0.2823
389.862	0.2741
390.0686	0.2824
390.2753	0.2784
390.4819	0.284
390.6885	0.276
390.8951	0.2837
391.1016	0.2816
391.3082	0.2832
391.5147	0.2709
391.7213	0.2714
391.9278	0.2651
392.1343	0.2733
392.3408	0.2722
392.5473	0.2679
392.7537	0.2721
392.9602	0.2608
393.1666	0.2716
393.373	0.266
393.5794	0.2589
393.7858	0.2661
393.9922	0.2615
394.1986	0.2551
394.4049	0.2581
394.6113	0.2672
394.8176	0.2639
395.0239	0.2564
395.2302	0.2579
395.4365	0.2547
395.6428	0.2581
395.8491	0.258
396.0553	0.2521
396.2615	0.2551
396.4678	0.2586
396.674	0.244
396.8802	0.2509
397.0863	0.2479
397.2925	0.248
397.4987	0.2424
397.7048	0.2515
397.9109	0.2442
398.117	0.2425
398.3231	0.2457
398.5292	0.238
398.7353	0.242
398.9413	0.2411
399.1474	0.2449
399.3534	0.2469
399.5594	0.2457
399.7654	0.2461
399.9714	0.2421
400.1774	0.2363
400.3833	0.248
400.5893	0.2369
400.7952	0.252
401.0011	0.2437
401.207	0.2483
401.4129	0.2385
401.6188	0.2424
401.8247	0.2403
402.0305	0.2408
402.2364	0.2454
402.4422	0.2405
402.648	0.2425
402.8538	0.2399
403.0596	0.2319
403.2654	0.2462
403.4711	0.2303
403.6768	0.2466
403.8826	0.2387
404.0883	0.2455
404.294	0.2445
404.4997	0.2421
404.7054	0.2445
404.911	0.2371
405.1167	0.2482
405.3223	0.2367
405.5279	0.2378
405.7335	0.2481
405.9391	0.235
406.1447	0.2446
406.3502	0.2424
406.5558	0.2405
406.7613	0.2339
406.9668	0.2307
407.1724	0.2394
407.3778	0.2384
407.5833	0.2368
407.7888	0.2517
407.9942	0.2393
408.1997	0.2482
408.4051	0.2529
408.6105	0.2445
408.8159	0.2441
409.0213	0.2513
409.2267	0.2424
409.432	0.2367
409.6374	0.2445
409.8427	0.2454
410.048	0.2502
410.2533	0.2357
410.4586	0.2345
410.6639	0.2352
410.8691	0.2355
411.0744	0.2293
411.2796	0.2398
411.4848	0.2448
411.69	0.2342
411.8952	0.2455
412.1004	0.2407
412.3056	0.2395
412.5107	0.2367
412.7158	0.244
412.921	0.237
413.1261	0.2389
413.3312	0.2371
413.5362	0.2486
413.7413	0.2358
413.9464	0.2272
414.1514	0.2418
414.3564	0.2311
414.5614	0.2292
414.7664	0.2355
414.9714	0.2262
415.1764	0.2316
415.3813	0.2349
415.5863	0.2331
415.7912	0.235
415.9961	0.231
416.201	0.2331
416.4059	0.2317
416.6108	0.238
416.8156	0.2271
417.0205	0.2322
417.2253	0.23
417.4301	0.2369
417.6349	0.232
417.8397	0.2293
418.0445	0.2408
418.2492	0.223
418.454	0.2255
418.6587	0.2319
418.8634	0.2296
419.0681	0.23
419.2728	0.2272
419.4775	0.2387
419.6822	0.2257
419.8868	0.2249
420.0915	0.2189
420.2961	0.2269
420.5007	0.2312
420.7053	0.2212
420.9099	0.2161
421.1144	0.2197
421.319	0.2207
421.5235	0.2107
421.728	0.2264
421.9325	0.2209
422.137	0.2239
422.3415	0.2183
422.546	0.214
422.7504	0.2116
422.9549	0.2254
423.1593	0.212
423.3637	0.2104
423.5681	0.2193
423.7725	0.2162
423.9769	0.213
424.1812	0.2108
424.3856	0.2061
424.5899	0.2083
424.7942	0.2132
424.9985	0.2028
425.2028	0.2167
425.4071	0.2142
425.6113	0.2135
425.8156	0.2045
426.0198	0.2039
426.224	0.2071
426.4282	0.1921
426.6324	0.1999
426.8366	0.1936
427.0407	0.2015
427.2449	0.2038
427.449	0.1964
427.6531	0.1992
427.8572	0.2009
428.0613	0.1968
428.2654	0.1912
428.4694	0.1888
428.6735	0.1795
428.8775	0.1888
429.0815	0.1944
429.2855	0.1799
429.4895	0.1784
429.6935	0.182
429.8975	0.1795
430.1014	0.1854
430.3053	0.1841
430.5093	0.1764
430.7132	0.1705
430.9171	0.1745
431.1209	0.1812
431.3248	0.1635
431.5286	0.1662
431.7325	0.185
431.9363	0.1683
432.1401	0.1659
432.3439	0.1638
432.5477	0.1609
432.7514	0.162
432.9552	0.1573
433.1589	0.1465
433.3627	0.1588
433.5664	0.1575
433.7701	0.1653
433.9737	0.154
434.1774	0.1581
434.3811	0.1423
434.5847	0.1483
434.7883	0.1498
434.9919	0.1435
435.1955	0.147
435.3991	0.1419
435.6027	0.1365
435.8062	0.1564
436.0098	0.1291
436.2133	0.1372
436.4168	0.1367
436.6203	0.1259
436.8238	0.1272
437.0272	0.1322
437.2307	0.1206
437.4341	0.1344
437.6375	0.1269
437.841	0.1214
438.0443	0.1323
438.2477	0.1125
438.4511	0.1176
438.6545	0.1221
438.8578	0.1204
439.0611	0.127
439.2644	0.1169
439.4677	0.1121
439.671	0.1065
439.8743	0.1162
440.0775	0.1118
440.2808	0.1101
440.484	0.1055
440.6872	0.1028
440.8904	0.0961
441.0936	0.1035
441.2967	0.0835
441.4999	0.0879
441.703	0.0885
441.9062	0.0907
442.1093	0.1045
442.3124	0.0892
442.5155	0.0878
442.7185	0.0761
442.9216	0.0914
443.1246	0.0954
443.3276	0.0941
443.5307	0.0788
443.7337	0.0892
443.9366	0.0753
444.1396	0.0844
444.3426	0.0783
444.5455	0.0832
444.7484	0.0804
444.9513	0.0775
445.1542	0.0774
445.3571	0.076
445.56	0.0696
445.7628	0.0711
445.9657	0.0705
446.1685	0.0679
446.3713	0.0721
446.5741	0.0736
446.7769	0.0764
446.9797	0.0699
447.1824	0.0623
447.3852	0.0545
447.5879	0.0602
447.7906	0.0625
447.9933	0.0523
448.196	0.0526
448.3986	0.0594
448.6013	0.0518
448.8039	0.0595
449.0066	0.0617
449.2092	0.0533
449.4118	0.0605
449.6143	0.0624
449.8169	0.0404
450.0195	0.0491
450.222	0.049
450.4245	0.0556
450.627	0.0456
450.8295	0.0451
451.032	0.0478
451.2345	0.0411
451.4369	0.0432
451.6394	0.0363
451.8418	0.0415
452.0442	0.0507
452.2466	0.0368
452.449	0.0414
452.6513	0.0358
452.8537	0.0304
453.056	0.0343
453.2583	0.0325
453.4607	0.0292
453.663	0.0351
453.8652	0.0391
454.0675	0.044
454.2697	0.0312
454.472	0.0257
454.6742	0.0387
454.8764	0.0446
455.0786	0.0313
455.2808	0.0275
455.4829	0.0303
455.6851	0.0279
455.8872	0.0221
456.0893	0.0367
456.2915	0.026
456.4935	0.0339
456.6956	0.0304
456.8977	0.034
457.0997	0.0375
457.3018	0.0212
457.5038	0.0265
457.7058	0.0307
457.9078	0.0221
458.1098	0.0316
458.3117	0.0365
458.5137	0.0147
458.7156	0.0284
458.9175	0.029
459.1194	0.0268
459.3213	0.0179
459.5232	0.0249
459.725	0.0177
459.9269	0.0175
460.1287	0.0161
460.3305	0.0258
460.5323	0.0316
460.7341	0.0275
460.9359	0.0175
461.1376	0.0286
461.3394	0.0273
461.5411	0.0288
461.7428	0.0253
461.9445	0.0186
462.1462	0.0182
462.3479	0.0189
462.5495	0.0251
462.7512	0.032
462.9528	0.0136
463.1544	0.0153
463.356	0.0056
463.5576	0.0261
463.7592	0.0169
463.9607	0.0196
464.1623	0.0198
464.3638	0.0141
464.5653	0.0129
464.7668	0.0236
464.9683	0.0218
465.1697	0.0173
465.3712	0.0076
465.5726	0.0101
465.7741	0.0168
465.9755	0.0104
466.1769	0.0153
466.3782	0.0168
466.5796	0.0166
466.7809	0.0172
466.9823	0.0127
467.1836	0.0132
467.3849	0.0099
467.5862	0.0062
467.7875	0.0066
467.9887	0.009
468.19	0.0098
468.3912	0.021
468.5924	0.0062
468.7936	0.0217
468.9948	0.0107
469.196	0.0174
469.3972	0.0001
469.5983	0.0079
469.7994	0.0194
470.0006	0.0107
470.2017	0.0073
470.4027	0.0296
470.6038	0.0084
470.8049	0.0189
471.0059	0.0217
471.2069	0.0155
471.408	0.0187
471.6089	0.0088
471.8099	0.0118
472.0109	0.0121
472.2119	0.0142
472.4128	0.0216
472.6137	0.0197
472.8146	0.0129
473.0155	0.0201
473.2164	0.0141
473.4173	0.0027
473.6181	0.0025
473.819	0.0199
474.0198	0.003
474.2206	0.0035
474.4214	0.0105
474.6222	0.004
474.8229	0.0123
475.0237	0.0204
475.2244	0.0168
475.4251	0.0148
475.6258	0.0054
475.8265	0.0065
476.0272	-0.0018
476.2278	0.0181
476.4285	0.0062
476.6291	0.0139
476.8297	0.0163
477.0303	0.0067
477.2309	0.015
477.4315	0.0068
477.632	0.0054
477.8326	0.0201
478.0331	0.022
478.2336	0.0103
478.4341	0.0102
478.6346	0.0071
478.8351	0.0104
479.0355	0.0151
479.236	0.0155
479.4364	0.0087
479.6368	0.0164
479.8372	0.0098
480.0376	0.0075
480.2379	0.0092
480.4383	0.0166
480.6386	0.004
480.8389	0.0079
481.0392	0.0164
481.2395	0.0135
481.4398	0.0145
481.6401	0.0116
481.8403	0.012
482.0405	0.0119
482.2408	0.0178
482.441	0.0107
482.6411	0.0115
482.8413	0.0002
483.0415	0.0139
483.2416	0.0166
483.4417	0.0064
483.6419	0.0063
483.8419	0.0126
484.042	0.0118
484.2421	0.0071
484.4422	0.0098
484.6422	0.0133
484.8422	0.006
485.0422	0.0085
485.2422	0.0089
485.4422	0.0094
485.6422	0.0092
485.8421	0.0068
486.042	0.0139
486.242	0.0058
486.4419	0.0077
486.6417	0.0058
486.8416	0.0103
487.0415	0.0037
487.2413	0.0104
487.4411	0.0111
487.641	0.0066
487.8408	0.0122
488.0405	0.01
488.2403	0.0134
488.4401	0.0126
488.6398	0.0164
488.8395	0.0116
489.0392	0.0202
489.2389	0.0107
489.4386	0.0029
489.6383	0.0107
489.8379	0.0024
490.0376	0.0124
490.2372	0.0052
490.4368	0.0076
490.6364	0.0045
490.836	0.0057
491.0355	0.0013
491.2351	0.0097
491.4346	0.0158
491.6341	0.0077
491.8336	0.0092
492.0331	0.0051
492.2326	0.0088
492.432	0.0119
492.6315	0.0162
492.8309	0.0121
493.0303	0.0093
493.2297	0.0145
493.4291	0.0109
493.6284	0.0144
493.8278	0.0034
494.0271	0.0133
494.2264	0.0082
494.4257	0.0071
494.625	0.0115
494.8243	0.001
495.0236	0.0116
495.2228	0.0147
495.422	0.0111
495.6213	0.0183
495.8205	0.0054
496.0196	0.0058
496.2188	0.0117
496.418	0.01
496.6171	0.0067
496.8162	0.0075
497.0153	0.0143
497.2144	0.0076
497.4135	0.0099
497.6126	0.0047
497.8116	0.0057
498.0107	0.0019
498.2097	0.0097
498.4087	0.0105
498.6077	0.0057
498.8067	0.0131
499.0056	0.0074
499.2046	0.0148
499.4035	0.01
499.6024	-0.0001
499.8013	0.0123
500.0002	0.0093
500.199	0.0149
500.3979	0.0071
500.5967	0.0176
500.7956	0.0086
500.9944	0.0199
501.1932	0.0111
501.3919	0.012
501.5907	0.0071
501.7895	0.0107
501.9882	0.0063
502.1869	0.0144
502.3856	0.008
502.5843	0.0039
502.783	0.0062
502.9816	0.0131
503.1803	0.0125
503.3789	0.0166
503.5775	0.0118
503.7761	-0.0004
503.9747	0.0106
504.1732	0.0046
504.3718	0.011
504.5703	0.0067
504.7689	0.0016
504.9674	0.01
505.1658	0.0096
505.3643	0.0138
505.5628	0.0124
505.7612	0.0073
505.9597	0.0008
506.1581	0.0033
506.3565	0.0038
506.5549	0.0081
506.7532	0.0068
506.9516	0.0058
507.1499	0.0094
507.3482	0.0071
507.5465	0.0133
507.7448	0.0023
507.9431	0.0183
508.1414	0.009
508.3396	0.0054
508.5379	0.0036
508.7361	0.0083
508.9343	0.0133
509.1325	0.0177
509.3306	0.0098
509.5288	-0.0001
509.7269	0.0121
509.9251	0.0165
510.1232	0.0112
510.3213	0.0098
510.5193	0.0058
510.7174	0.007
510.9154	0.0145
511.1135	0.008
511.3115	0.0062
511.5095	0.0052
511.7075	0.0196
511.9055	0.0052
512.1034	0.0042
512.3014	0.0096
512.4993	0.0124
512.6972	0.0059
512.8951	0.0138
513.093	0.0132
513.2908	0.0127
513.4887	0.0095
513.6865	0.0012
513.8844	0.0153
514.0822	0.0093
514.2799	0.0039
514.4777	0.0037
514.6755	0.0064
514.8732	0.0087
515.0709	0.0131
515.2687	0.0026
515.4664	0.0166
515.664	0.0128
515.8617	0.017
516.0594	0.0043
516.257	0.0047
516.4546	0.0221
516.6522	0.0157
516.8498	0.0113
517.0474	0.0093
517.2449	0.006
517.4425	0.0186
517.64	0.0114
517.8375	0.0151
518.035	0.0055
518.2325	0.0065
518.43	0.0075
518.6274	0.01
518.8249	0.0039
519.0223	0.0237
519.2197	0.009
519.4171	0.0073
519.6145	0.0136
519.8118	0.0023
520.0092	0.0068
520.2065	0.0209
520.4038	0.0076
520.6011	0.009
520.7984	0.0067
520.9956	0.0119
521.1929	0.0073
521.3901	0.0125
521.5874	0.0012
521.7846	0.0143
521.9818	0.0108
522.1789	0.003
522.3761	0.0255
522.5732	0.0089
522.7704	-0.0003
522.9675	-0.0063
523.1646	-0.0007
523.3617	0.0154
523.5587	0.0143
523.7558	0.0153
523.9528	0.0189
524.1498	0.0079
524.3468	0.0108
524.5438	0.0037
524.7408	0.0025
524.9378	0.0108
525.1347	0.0122
525.3316	0.014
525.5285	0.0027
525.7254	0.002
525.9223	0.0291
526.1192	0.0095
526.316	0.0139
526.5129	0.0215
526.7097	-0.0016
526.9065	0.0043
527.1033	0.0109
527.3	0.0054
527.4968	0.0152
527.6935	-0.0005
527.8903	0.0136
528.087	0.0086
528.2837	0.0173
528.4804	0.0065
528.677	0.0138
528.8737	0.0119
529.0703	0.0056
529.2669	0.0129
529.4635	0.006
529.6601	-0.0074
529.8567	0.0054
530.0532	0.018
530.2498	0.0133
530.4463	-0.0024
530.6428	0.0051
530.8393	0.0099
531.0358	0.0068
531.2322	0.0044
531.4287	0.0132
531.6251	-0.007
531.8215	0.0012
532.0179	0.0195
532.2143	0.0109
532.4107	0.0077
532.607	0.0043
532.8034	0.003
532.9997	0.0084
533.196	0.0018
533.3923	0.0136
533.5886	0.0094
533.7848	0.0099
533.9811	0.0045
534.1773	0.0125
534.3735	0.0056
534.5697	0.0049
534.7659	0.0065
534.9621	0.0155
535.1582	0.0168
535.3544	0.0086
535.5505	0.018
535.7466	0.01
535.9427	0.0053
536.1387	0.0031
536.3348	0.009
536.5308	0.0119
536.7269	0.0089
536.9229	0.0075
537.1189	0.0097
537.3148	0.0168
537.5108	0.0131
537.7068	0.0183
537.9027	-0.0006
538.0986	0.0171
538.2945	0.0074
538.4904	-0.0031
538.6863	0.011
538.8821	0.0121
539.078	0.0093
539.2738	-0.0049
539.4696	-0.0002
539.6654	0.0091
539.8611	0.0102
540.0569	0.0006
540.2526	0.0177
540.4484	-0.0038
540.6441	0.009
540.8398	0.022
541.0355	-0.0025
541.2311	0.0058
541.4268	0.0146
541.6224	0.0123
541.818	0.0104
542.0136	0.0064
542.2092	0.0096
542.4048	0.0007
542.6003	0.0074
542.7959	0.0147
542.9914	0.0075
543.1869	0.0057
543.3824	0.0082
543.5779	0.0182
543.7734	0.0178
543.9688	0.0062
544.1642	0.007
544.3596	0.0126
544.555	0.0139
544.7504	0.0252
544.9458	0.0123
545.1411	0.0102
545.3365	0.004
545.5318	0.0186
545.7271	0.0151
545.9224	0.0067
546.1177	0.0091
546.3129	0.0132
546.5081	0.0088
546.7034	0.0156
546.8986	0.0175
547.0938	0.0115
547.289	0.0111
547.4841	0.017
547.6793	0.0088
547.8744	0.0104
548.0695	-0.0004
548.2646	0.0094
548.4597	0.0055
548.6548	0.0217
548.8498	0.0163
549.0448	0.0123
549.2399	0.0176
549.4349	0.0062
549.6298	0.0143
549.8248	0.0053
550.0198	0.0068
550.2147	0.0144
550.4096	0.0067
550.6045	0.0098
550.7994	0.0044
550.9943	0.0113
551.1892	-0.011
551.384	0.019
551.5788	0.0123
551.7737	0.0191
551.9685	0.0028
552.1632	0.0029
552.358	0.0105
552.5528	0.0211
552.7475	0.0072
552.9422	0.0033
553.1369	0.0214
553.3316	0.0108
553.5263	0.0198
553.7209	0.0148
553.9156	0.0137
554.1102	0.0107
554.3048	-0.0037
554.4994	0.0017
554.694	0.0061
554.8885	0.0078
555.0831	0.0139
555.2776	0.0068
555.4721	0.0041
555.6666	0.0082
555.8611	0.0123
556.0555	0.0075
556.25	0.016
556.4444	0.0017
556.6388	0.0098
556.8332	0.0178
557.0276	0.0118
557.222	0.0102
557.4163	0.0164
557.6107	0.0072
557.805	0.0056
557.9993	0.0101
558.1936	0.0017
558.3879	0.0068
558.5821	0.0037
558.7764	0.0065
558.9706	0.0004
559.1648	0.0162
559.359	0.0063
559.5532	0.0085
559.7473	-0.0036
559.9415	0.0043
560.1356	0.0143
560.3297	-0.0041
560.5238	0.0137
560.7179	0.008
560.9119	0.0039
561.106	0.0006
561.3	0.0083
561.494	-0.0054
561.688	0.0031
561.882	0.0033
562.076	0.009
562.2699	0.0169
562.4639	0.0235
562.6578	0.0069
562.8517	0.0093
563.0456	0.0075
563.2395	0.0082
563.4333	0.0069
563.6272	0.0082
563.821	0.0037
564.0148	0.0077
564.2086	0.0177
564.4024	0.01
564.5961	0.0096
564.7899	0.0119
564.9836	0.0149
565.1773	0.008
565.371	0.0073
565.5647	0.0103
565.7584	0.0176
565.952	0.0078
566.1456	0.0078
566.3393	0.0079
566.5329	0.0106
566.7264	0.0094
566.92	0.0058
567.1136	-0.0025
567.3071	0.0005
567.5006	0.0088
567.6941	0.0106
567.8876	0.0049
568.0811	0.018
568.2745	0.0062
568.468	0.0091
568.6614	0.0086
568.8548	0.004
569.0482	0.0109
569.2416	0.0067
569.4349	0.0004
569.6283	0.0056
569.8216	0.0107
570.0149	0.0026
570.2082	0.0105
570.4015	0.0074
570.5947	0.0089
570.788	0.0114
570.9812	0.006
571.1744	0.0115
571.3676	0.0105
571.5608	0.0047
571.754	0.0114
571.9471	0.013
572.1402	0.0087
572.3333	0.0084
572.5264	0.0073
572.7195	0.0106
572.9126	0.0067
573.1057	0.0089
573.2987	0.0068
573.4917	0.0067
573.6847	0.0048
573.8777	0.0122
574.0707	0.0119
574.2636	0.0086
574.4566	0.0044
574.6495	0.0063
574.8424	0.0093
575.0353	0.0139
575.2281	0.0108
575.421	0.0085
575.6138	0.0057
575.8067	0.007
575.9995	0.0043
576.1923	0.0096
576.385	0.0109
576.5778	0.0116
576.7706	0.0114
576.9633	0.0101
577.156	0.0013
577.3487	0.0087
577.5414	0.0064
577.734	0.0044
577.9267	0.0112
578.1193	0.0109
578.3119	0.0078
578.5045	0.0051
578.6971	0.005
578.8897	0.0069
579.0822	0.0141
579.2747	0.0006
579.4673	0.0115
579.6598	0.0115
579.8522	0.0081
580.0447	0.012
580.2372	0.0118
580.4296	0.0116
580.622	0.0053
580.8144	0.0065
581.0068	0.0054
581.1992	0.0041
581.3915	-0
581.5839	0.0087
581.7762	0.0025
581.9685	0.0083
582.1608	0.0043
582.353	0.0089
582.5453	0.0112
582.7375	0.0093
582.9298	0.0031
583.122	0.0038
583.3142	0.0095
583.5063	0.0058
583.6985	0.0023
583.8906	0.0059
584.0827	0.0089
584.2749	0.0092
584.4669	0.0093
584.659	0.0115
584.8511	0.0115
585.0431	0.0075
585.2352	0.0073
585.4272	0.0091
585.6192	0.0101
585.8111	0.0065
586.0031	0.0064
586.195	0.005
586.387	0.0045
586.5789	0.0107
586.7708	0.0089
586.9627	0.0082
587.1545	0.0056
587.3464	0.0041
587.5382	0.0104
587.73	0.0114
587.9218	0.0025
588.1136	0.0062
588.3053	0.0089
588.4971	0.0083
588.6888	0.0031
588.8805	0.0013
589.0722	0.0147
589.2639	0.0062
589.4556	0.0115
589.6472	0.0149
589.8389	0.0048
590.0305	0.0086
590.2221	0.0138
590.4137	0.008
590.6052	0.004
590.7968	0.0105
590.9883	0.0065
591.1798	0.0088
591.3713	0.0067
591.5628	0.0072
591.7543	0.0049
591.9458	0.0082
592.1372	0.0108
592.3286	0.0057
592.52	0.01
592.7114	0.0085
592.9028	0.0132
593.0941	0.0053
593.2855	0.0101
593.4768	0.015
593.6681	0.0091
593.8594	0.0065
594.0506	0.0106
594.2419	0.0078
594.4331	0.0099
594.6244	0.0053
594.8156	0.0064
595.0067	0.0023
595.1979	-0.0016
595.3891	0.0084
595.5802	0.0108
595.7713	0.0104
595.9624	0.0114
596.1535	0.0064
596.3446	0.0072
596.5357	0.0085
596.7267	0.0114
596.9177	0.0102
597.1087	0.0014
597.2997	0.017
597.4907	0.0003
597.6817	0.0089
597.8726	0.0129
598.0635	0.0075
598.2544	0.0046
598.4453	0.0085
598.6362	0.0059
598.827	0.0039
599.0179	0.0093
599.2087	0.0114
599.3995	0.0141
599.5903	0.0091
599.7811	0.0133
599.9718	0.0049
600.1626	0.0064
600.3533	0.0044
600.544	0.0133
600.7347	0.007
600.9254	0.0188
601.116	0.0107
601.3067	0.0093
601.4973	0.0096
601.6879	0.0053
601.8785	0.0157
602.0691	0.0067
602.2596	0.0148
602.4502	0.0083
602.6407	0.0103
602.8312	0.0042
603.0217	0.0075
603.2122	0.0077
603.4027	0.0112
603.5931	0.0068
603.7835	0.0094
603.9739	0.0041
604.1643	0.0059
604.3547	0.0103
604.5451	0.0136
604.7354	-0
604.9257	0.012
605.116	0.0054
605.3063	0.0121
605.4966	0.0058
605.6869	0.0128
605.8771	0.014
606.0673	0.0091
606.2575	0.0051
606.4477	0.0155
606.6379	0.005
606.8281	0.0062
607.0182	0.0064
607.2083	0.0099
607.3985	0.0075
607.5885	0.0086
607.7786	0.0099
607.9687	0.0155
608.1587	0.0089
608.3488	0.0101
608.5388	0.0046
608.7288	-0.0008
608.9187	0.0125
609.1087	0.0099
609.2986	0.011
609.4886	0.0077
609.6785	0.0109
609.8684	0.0005
610.0582	0.0071
610.2481	0.0043
610.4379	0.012
610.6278	0.0075
610.8176	0.0085
611.0074	0.0047
611.1971	0.0041
611.3869	0.009
611.5766	0.0032
611.7664	0.0149
611.9561	0.0116
612.1458	0.0096
612.3354	0.0105
612.5251	0.0115
612.7147	0.0092
612.9044	0.0065
613.094	0.0074
613.2836	0.0104
613.4731	0.0067
613.6627	0.009
613.8522	0.0092
614.0417	0.0123
614.2313	0.0154
614.4207	0.0104
614.6102	0.0136
614.7997	0.0158
614.9891	0.0147
615.1785	0.0014
615.3679	0.0122
615.5573	0.0052
615.7467	0.0049
615.9361	0.0074
616.1254	0.0114
616.3147	0.0117
616.504	0.0094
616.6933	0.0063
616.8826	0.0076
617.0718	0.0096
617.2611	0.0143
617.4503	0.0043
617.6395	0.009
617.8287	0.0118
618.0179	0.0034
618.207	0.0047
618.3961	0.0046
618.5853	0.0117
618.7744	0.0102
618.9634	0.0119
619.1525	0.0037
619.3416	0.008
619.5306	0.0105
619.7196	0.0074
619.9086	0.0085
620.0976	-0.0025
620.2866	0.0105
620.4755	0.0085
620.6645	0.0153
620.8534	-0.0002
621.0423	0.0073
621.2312	-0.005
621.42	0.0072
621.6089	0.0077
621.7977	0.0098
621.9865	0.0076
622.1753	-0.0004
622.3641	-0.0018
622.5529	0.0046
622.7416	-0.0061
622.9303	0.0023
623.1191	0.0098
623.3078	0.0096
623.4964	0.0089
623.6851	0.0106
623.8737	0.005
624.0624	0.0006
624.251	0.0038
624.4396	0.0148
624.6282	0.0161
624.8167	0.007
625.0053	0.0097
625.1938	0.0074
625.3823	0.0178
625.5708	0.0015
625.7593	0.0031
625.9477	0.015
626.1362	0.0067
626.3246	0.0067
626.513	0.0093
626.7014	0.0099
626.8898	0.0135
627.0781	0.0091
627.2665	0.0087
627.4548	-0.0064
627.6431	0.0086
627.8314	0.0249
628.0197	0.0053
628.2079	0.0126
628.3962	0.01
628.5844	0.0109
628.7726	0.0001
628.9608	0.0057
629.1489	0.0127
629.3371	0.0072
629.5252	0.0046
629.7134	-0
629.9015	0.0096
630.0895	-0.0087
630.2776	0.0088
630.4657	0.0223
630.6537	0.0079
630.8417	0.0032
631.0297	-0.0081
631.2177	0.0141
631.4057	-0.002
631.5936	0.0013
631.7815	0.0069
631.9695	0.0226
632.1574	0.0165
632.3452	0.005
632.5331	0.0045
632.7209	0.0167
632.9088	-0.0015
633.0966	0.0244
633.2844	0.0001
633.4722	0.0158
633.6599	0.0303
633.8477	0.0207
634.0354	0.0106
634.2231	0.001
634.4108	0.0034
634.5985	0.006
634.7861	-0.0042
634.9738	0.0057
635.1614	0.0079
635.349	-0.0028
635.5366	0.0069
635.7242	0.0075
635.9117	0.0043
636.0993	0.0186
636.2868	0.0064
636.4743	0.0035
636.6618	0.0026
636.8492	0.014
637.0367	-0.004
637.2241	0.0113
637.4115	0.0345
637.5989	0.0061
637.7863	0.0301
637.9737	0.0263
638.161	0.0124
638.3484	0.0023
638.5357	-0.0072
638.723	0.0237
638.9103	-0.0076
639.0975	-0.0045
639.2848	0.018
639.472	0.0227
639.6592	-0.018
639.8464	0.0084
640.0336	-0.0063
640.2208	0.0029
640.4079	-0.0037
640.595	-0.0041
640.7821	0.0299
640.9692	0.0002
641.1563	0.0075
641.3434	0.0136
641.5304	0.0267
641.7174	0.0246
641.9044	0.0008
642.0914	0.0065
642.2784	-0.0045
642.4653	-0.021
642.6523	0.011
642.8392	-0.002
643.0261	0.0079
643.213	0.0188
643.3999	0.0065
643.5867	0.0165
643.7735	-0.0075
643.9604	0.0291
644.1472	0.0082
644.3339	0.0142
644.5207	0.0037
644.7075	0.0086
644.8942	0.0023
645.0809	0.0112
645.2676	0.0058
645.4543	0.0215
645.6409	0.0216
645.8276	-0.0013
646.0142	-0.0025
646.2008	0.0008
646.3874	-0.0156
646.574	0.0095
646.7605	0.0008
646.9471	0.0114
647.1336	-0.0082
647.3201	-0.0003
647.5066	0.0035
647.6931	-0.0051
647.8795	0.0128
648.0659	-0.0049
648.2524	0.03
648.4388	0.0136
648.6252	0.0127
648.8115	0.0021
648.9979	0.015
649.1842	0.0013
649.3705	0.0188
649.5568	0.0057
649.7431	-0.0043
649.9294	0.0105
650.1156	-0.0013
650.3018	0.0337
650.488	0.0107
650.6742	0.0111
650.8604	0.023
651.0466	0.0181
651.2327	0.0154
651.4188	0.0088
651.6049	0.0217
651.791	-0.0124
651.9771	0.0078
652.1632	0.0182
652.3492	0.0025
652.5352	0.0295
652.7212	0.0108
652.9072	0.0121
653.0932	0.0163
653.2791	0.0131
653.465	0.0082
653.651	0.0153
653.8369	0.0123
654.0227	-0.0047
654.2086	0.0222
654.3944	0.0047
654.5803	0.0238
654.7661	0.0036
654.9519	-0.001
655.1377	-0
655.3234	-0
655.5092	-0
655.6949	-0
655.8806	-0
656.0663	-0
656.2519	-0
656.4376	-0
656.6232	-0
656.8088	-0
656.9945	-0
657.18	-0
657.3656	-0
657.5511	-0
657.7367	-0
657.9222	-0
658.1077	-0
658.2932	-0
658.4786	-0
658.6641	-0
658.8495	-0
659.0349	-0
659.2203	-0
659.4057	0.011
659.591	0.2842
659.7764	0.0307
659.9617	0.006
660.147	0.0095
660.3323	0.018
660.5176	-0.002
660.7028	0.0045
660.888	-0.0023
661.0733	0.0203
661.2585	-0.0047
661.4436	0.0016
661.6288	0.005
661.8139	-0.0036
661.9991	-0.0104
662.1842	-0.0156
662.3693	0.0063
662.5544	0.0306
662.7394	0.0259
662.9245	0.0119
663.1095	-0.0222
663.2945	0.0114
663.4795	-0.0022
663.6644	-0.0003
663.8494	0.0199
664.0343	0.0028
664.2193	-0.0097
664.4042	-0.0008
664.589	-0.0018
664.7739	0.0106
664.9587	0.0052
665.1436	0.0007
665.3284	0.0111
665.5132	-0.0181
665.698	-0.0041
665.8827	0.02
666.0675	-0.0091
666.2522	0.0138
666.4369	0.0131
666.6216	0.0081
666.8063	0.0071
666.9909	-0.0038
667.1756	0.0069
667.3602	0.0142
667.5448	0.0323
667.7294	0.0283
667.9139	-0.0042
668.0985	0.0109
668.283	-0.0217
668.4675	0.0191
668.652	0.02
668.8365	0.0199
669.0209	0.0061
669.2054	0.0041
669.3898	0.0206
669.5742	0.0474
669.7586	0.0149
669.943	-0.007
670.1273	-0.0038
670.3117	0.0079
670.496	0.0113
670.6803	0.0058
670.8646	-0.0066
671.0488	0.0269
671.2331	-0.0225
671.4173	0.0032
671.6015	0.01
671.7857	0.0196
671.9699	0.0317
672.1541	-0.0016
672.3382	0.0163
672.5223	0.0202
672.7064	0.0124
672.8905	-0.0023
673.0746	0.0053
673.2587	0.0069
673.4427	0.0021
673.6267	0.013
673.8107	0.0295
673.9947	0.0204
674.1787	-0.0046
674.3626	0.0069
674.5465	0.0304
674.7304	0.0101
674.9143	-0.0168
675.0982	0.0061
675.2821	0.0025
675.4659	-0.0111
675.6497	0.0008
675.8335	0.0186
676.0173	-0.0181
676.2011	0.0151
676.3849	0.0015
676.5686	0.0055
676.7523	-0.0105
676.936	0.0125
677.1197	0.0167
677.3034	0.0224
677.487	0.0089
677.6706	-0.0088
677.8542	-0.0003
678.0378	0.0146
678.2214	-0.011
678.405	0.0112
678.5885	0.0058
678.772	0.0169
678.9555	-0.0025
679.139	0.0078
679.3225	-0.0081
679.5059	0.0057
679.6894	-0.0016
679.8728	-0.0003
680.0562	-0.0032
680.2395	-0.0071
680.4229	-0.0101
680.6062	-0.0019
680.7896	-0.0023
680.9729	0.0274
681.1562	-0.0074
681.3394	-0.0127
681.5227	0.0058
681.7059	0.0195
681.8891	0.0058
682.0723	0.0035
682.2555	-0.0016
682.4387	0.0051
682.6218	0.0193
682.805	0.0174
682.9881	0.0083
683.1712	0.0126
683.3542	0.0247
683.5373	0.0081
683.7203	0.0019
683.9034	-0.0025
684.0864	0.0079
684.2694	0.0005
684.4523	0.0208
684.6353	0.0081
684.8182	-0.0163
685.0011	0.0026
685.184	0.0015
685.3669	0.0332
685.5498	-0.0124
685.7326	0.0106
685.9154	0.0015
686.0982	0.0194
686.281	-0.0024
686.4638	0.0199
686.6465	-0.0076
686.8293	-0.0009
687.012	0.0242
687.1947	0.0141
687.3774	0.0206
687.56	-0.0061
687.7427	0.0028
687.9253	-0.017
688.1079	0.0192
688.2905	-0.021
688.4731	0.0095
688.6556	0.0215
688.8382	-0.0063
689.0207	0.0065
689.2032	-0.0001
689.3857	-0.0177
689.5681	0.0013
689.7506	0.0294
689.933	0.0137
690.1154	0.0283
690.2978	0.0204
690.4802	0.03
690.6626	0.0109
690.8449	0.0213
691.0272	-0.0071
691.2095	-0.0142
691.3918	0.0112
691.5741	0.0178
691.7563	0.0177
691.9386	0.016
692.1208	0.0113
692.303	-0.0098
692.4852	0.0035
692.6673	0.0166
692.8495	0.0078
693.0316	0.017
693.2137	0.0111
693.3958	0.0105
693.5778	0.0035
693.7599	0.0055
693.9419	-0.0141
694.1239	0.0092
694.3059	0.0206
694.4879	0.0015
694.6699	0.0073
694.8518	0.0138
695.0337	0.0123
695.2157	0.0363
695.3975	-0.017
695.5794	-0.0327
695.7613	0.0043
695.9431	-0.0125
696.1249	0.0142
696.3067	-0.0022
696.4885	0.0277
696.6703	0.0111
696.852	-0.0038
697.0337	0.013
697.2154	-0.0023
697.3971	0.0345
697.5788	0.0115
697.7605	-0.0193
697.9421	0.0136
698.1237	0.0212
698.3053	-0.0144
698.4869	-0.0009
698.6685	-0.0019
698.85	0.0235
699.0315	0.0072
699.213	0.0225
699.3945	-0.0048
699.576	0.0204
699.7575	0.0189
699.9389	0.0105
700.1203	-0.0005
700.3017	0.0216
700.4831	0.0355
700.6645	0.0203
700.8458	0.0164
701.0271	0.054
701.2084	0.005
701.3897	0.0248
701.571	-0.0293
701.7523	0.0104
701.9335	0.0099
702.1147	0.0124
702.2959	-0.0068
702.4771	0.0185
702.6583	-0.0201
702.8394	-0.0335
703.0205	0.0205
703.2016	0.001
703.3827	-0.0054
703.5638	0.0165
703.7449	0.0297
703.9259	0.0267
704.1069	-0.015
704.2879	0.0118
704.4689	0.003
704.6499	0.0345
704.8308	0.052
705.0117	0.0191
705.1927	0.0342
705.3735	0.023
705.5544	0.0277
705.7353	0.0075
705.9161	-0.0227
706.0969	0.0019
706.2777	-0.0087
706.4585	0.0047
706.6393	0.0217
706.82	0.0079
707.0007	0.005
707.1815	-0.0029
707.3621	0.0239
707.5428	0.0167
707.7235	0.0156
707.9041	0.0133
708.0847	-0.0146
708.2653	0.0321
708.4459	0.012
708.6265	-0.0011
708.807	0.0215
708.9875	0.0136
709.168	-0.0109
709.3485	0.0296
709.529	0.0049
709.7095	-0.03
709.8899	-0.013
710.0703	0.0222
710.2507	-0.0093
710.4311	0.0036
710.6115	0.0093
710.7918	0.018
710.9721	0.0227
711.1524	-0.003
711.3327	-0.009
711.513	-0.0138
711.6932	0.018
711.8735	0.0161
712.0537	-0.0266
712.2339	0.013
712.4141	0.0067
712.5942	0.0076
712.7744	0.0178
712.9545	0.031
713.1346	0.0107
713.3147	0.0102
713.4947	0.001
713.6748	0.0123
713.8548	0.0236
714.0348	0.0002
714.2148	0.0075
714.3948	0.0109
714.5748	0.0192
714.7547	0.0124
714.9346	0.0329
715.1145	0.0185
715.2944	-0.0196
715.4743	0.0022
715.6541	-0.0319
715.834	0.0286
716.0138	0.0188
716.1936	-0.0254
716.3733	0.0251
716.5531	0.0236
716.7328	0.02
716.9126	0.0024
717.0923	-0.0103
717.2719	0.0118
717.4516	0.0035
717.6312	0.0007
717.8109	0.0144
717.9905	0.0228
718.1701	0.0156
718.3496	0.0118
718.5292	-0.0079
718.7087	-0.0049
718.8882	0.0303
719.0677	0.0137
719.2472	0.0153
719.4267	-0.02
719.6061	-0.0073
719.7856	0.0332
719.965	-0.0068
720.1443	0.0106
720.3237	0.0119
720.5031	0.041
720.6824	0.003
720.8617	0.0179
721.041	0.0131
721.2203	-0.0069
721.3995	0.0167
721.5788	-0.0048
721.758	-0.0112
721.9372	0.0023
722.1164	-0.0157
722.2956	-0.0084
722.4747	0.0069
722.6538	-0.0045
722.8329	0.0201
723.012	0.0394
723.1911	0.0041
723.3702	0.0116
723.5492	0.009
723.7282	-0.0001
723.9072	0.005
724.0862	0.0121
724.2652	-0.0035
724.4441	-0.0017
724.623	0.0044
724.8019	-0.0043
724.9808	-0.0052
725.1597	-0.0055
725.3385	0.0175
725.5174	0.004
725.6962	-0.0052
725.875	0.0314
726.0538	-0.0204
726.2325	0.0063
726.4112	-0.0272
726.59	0.0022
726.7687	-0.005
726.9474	0.0206
727.126	0.0026
727.3047	-0.0208
727.4833	0.0211
727.6619	-0.0152
727.8405	-0.0136
728.0191	0.0016
728.1976	0.0067
728.3762	0.0254
728.5547	-0.0214
728.7332	-0.0011
728.9116	0.0137
729.0901	0.0034
729.2686	0.0088
729.447	0.0128
729.6254	0.0043
729.8038	0.0205
729.9821	0.0002
730.1605	0.0218
730.3388	0.0068
730.5171	0.0204
730.6954	-0.0099
730.8737	0.0096
731.0519	0.0066
731.2302	0.0122
731.4084	-0.0072
731.5866	-0.0009
731.7648	0.0008
731.9429	0.0253
732.1211	0.0038
732.2992	0.0011
732.4773	0.0097
732.6554	-0.011
732.8335	0.0293
733.0115	0.0138
733.1896	-0.0158
733.3676	0.0179
733.5456	0.0096
733.7235	0.0028
733.9015	0.0149
734.0794	0.0046
734.2574	-0.0087
734.4353	0.0231
734.6131	0.0061
734.791	0.0064
734.9689	-0.0035
735.1467	-0.0039
735.3245	0.0267
735.5023	0.0244
735.68	0.0118
735.8578	0.0186
736.0355	0.017
736.2132	0.0101
736.3909	0.0096
736.5686	0.0029
736.7463	-0.0205
736.9239	0.0114
737.1015	0.0131
737.2791	0.0154
737.4567	0.0249
737.6343	0.0013
737.8118	-0.0071
737.9894	-0.0011
738.1669	0.0023
738.3444	0.0193
738.5218	-0.0219
738.6993	0.0141
738.8767	-0.0026
739.0541	-0.0018
739.2315	0.0045
739.4089	0.0297
739.5863	0.007
739.7636	0.0132
739.9409	0.0117
740.1182	0.0053
740.2955	0.0194
740.4728	-0.0091
740.65	0.0084
740.8272	0.0169
741.0044	-0.0602
741.1816	0.03
741.3588	-0.0238
741.5359	0.0198
741.7131	0.0175
741.8902	0.0181
742.0673	-0.0403
742.2444	0.04
742.4214	-0.0012
742.5985	0.0003
742.7755	0.0038
742.9525	-0.0185
743.1295	0.0014
743.3064	0.0028
743.4834	-0.0011
743.6603	0.0547
743.8372	-0.0473
744.0141	0.015
744.191	0.0279
744.3678	-0.033
744.5446	0.004
744.7215	-0.001
744.8982	0.0363
745.075	0.0524
745.2518	-0.0046
745.4285	-0.0027
745.6052	-0.0323
745.7819	-0.008
745.9586	-0.0064
746.1353	-0.0107
746.3119	0.0157
746.4885	0.0595
746.6651	0.0252
746.8417	0.0149
747.0183	0.0388
747.1948	0.022
747.3714	0.029
747.5479	0.0433
747.7244	-0.0227
747.9008	-0.0229
748.0773	0.0346
748.2537	0.0289
748.4301	0.0212
748.6065	0.0226
748.7829	-0.0145
748.9593	0.0026
749.1356	0.0114
749.3119	0.0312
749.4882	0.0076
749.6645	0.0115
749.8408	0.0293
750.017	0.018
750.1933	-0.0196
750.3695	-0.0037
750.5457	0.0057
750.7218	0.0002
750.898	0.0115
751.0741	0.0168
751.2502	0.0067
751.4263	-0.0026
751.6024	0.0144
751.7784	0.0052
751.9545	0.0066
752.1305	0.0102
752.3065	0.007
752.4825	0.0019
752.6584	0.0211
752.8344	0.0191
753.0103	-0.0062
753.1862	0.0053
753.3621	0.0132
753.5379	0.0268
753.7138	-0.0018
753.8896	0.0102
754.0654	-0.0037
754.2412	0.0072
754.417	0.006
754.5927	-0.0216
754.7685	0.0089
754.9442	0.034
755.1199	0.0117
755.2956	-0.0115
755.4712	0.0038
755.6469	-0.0001
755.8225	0.0081
755.9981	0.002
756.1736	0.0059
756.3492	-0.012
756.5248	0.0282
756.7003	0.0008
756.8758	0.0062
757.0513	0.0062
757.2267	0.0066
757.4022	0.0116
757.5776	0.0042
757.753	0.0273
757.9284	0.0255
758.1038	-0.0029
758.2791	0.0094
758.4545	-0.0181
758.6298	0.0201
758.8051	0.018
758.9803	0.0062
759.1556	0.0022
759.3308	-0.0143
759.506	0.0073
759.6812	0.0084
759.8564	0.0016
760.0316	0.0022
760.2067	0.022
760.3819	-0.0009
760.557	-0.0061
760.732	0.0022
760.9071	0.0213
761.0821	-0.0077
761.2572	0.0083
761.4322	0.0002
761.6072	0.0044
761.7821	-0.0261
761.9571	0.0039
762.132	-0.0035
762.3069	-0.0001
762.4818	0.0258
762.6567	-0.0073
762.8316	0.0341
763.0064	-0.007
763.1812	0.0164
763.356	-0.0132
763.5308	0.0266
763.7055	0.0084
763.8803	0.0081
764.055	0.005
764.2297	-0.0124
764.4044	-0.0107
764.579	0.0062
764.7537	0.0066
764.9283	0.0199
765.1029	-0.0064
765.2775	0.0309
765.4521	0.0163
765.6266	-0.0133
765.8011	0.0085
765.9756	0.0194
766.1501	0.0149
766.3246	0.0203
766.4991	0.0106
766.6735	0.0706
766.8479	-0.0096
767.0223	0.0148
767.1967	0.0207
767.371	-0.0032
767.5454	0.0239
767.7197	0.0024
767.894	0.0011
768.0683	0.0053
768.2425	0.0174
768.4168	0.0253
768.591	0.0027
768.7652	-0.0253
768.9394	-0.0118
769.1135	-0.0078
769.2877	0.0388
769.4618	0.022
769.6359	0.0087
769.81	0.0248
769.984	0.0219
770.1581	0.0075
770.3321	0.0103
770.5061	0.0013
770.6801	0.0023
770.8541	0.0055
771.028	0.0339
771.202	0.0175
771.3759	-0.0001
771.5498	-0.003
771.7236	0.0053
771.8975	0.033
772.0713	0.0272
772.2451	-0.004
772.4189	0.0259
772.5927	-0.0446
772.7665	-0.0119
772.9402	0.0121
773.1139	0.0049
773.2876	0.0184
773.4613	0.0067
773.635	0.0494
773.8086	0.0393
773.9822	0.0361
774.1558	0.0523
774.3294	0.0012
774.503	0.0329
774.6765	0.006
774.8501	0.0012
775.0236	0.0357
775.1971	-0.0218
775.3705	-0.0162
775.544	-0.0115
775.7174	0.04
775.8908	0.0104
776.0642	0.0366
776.2376	0.039
776.4109	0.0032
776.5843	0.0095
776.7576	0.0223
776.9309	0.0372
777.1041	-0.0159
777.2774	-0.0116
777.4506	-0.0308
777.6238	0.0186
777.797	0.0281
777.9702	0.0296
778.1434	0.0149
778.3165	-0.002
778.4896	-0.0167
778.6627	0.01
778.8358	-0.0025
779.0089	0.0102
779.1819	-0.0097
779.3549	-0.0036
779.5279	-0.0111
779.7009	0.0596
779.8739	0.06
780.0468	-0.0023
780.2197	-0.0341
780.3926	0.0071
780.5655	-0.0115
780.7384	-0.0032
780.9112	0.0122
781.0841	-0.007
781.2569	0.0311
781.4297	0.0175
781.6024	0.0204
781.7752	0.0572
781.9479	0.0492
782.1206	0.0265
782.2933	0.0201
782.466	0.0085
782.6386	0.0138
782.8113	0.0152
782.9839	0.0277
783.1565	0.0543
783.329	-0.0042
783.5016	0.0073
783.6741	0.0079
783.8466	0.0499
784.0191	0.0109
784.1916	-0.0479
784.3641	-0.0488
784.5365	0.0169
784.7089	-0.0182
784.8813	0.0685
785.0537	0.0237
785.2261	-0.0225
785.3984	-0.0002
785.5707	-0.0104
785.743	0.0365
785.9153	-0.0104
786.0876	-0.0394
786.2598	-0.0312
786.432	0.0013
786.6042	0.0475
786.7764	0.0119
786.9486	-0.0178
787.1207	0.0481
787.2928	0.0818
787.4649	-0.0473
787.637	0.0064
787.8091	0.0227
787.9811	0.0144
788.1532	0.0103
788.3252	0.0256
788.4972	0.0015
788.6691	0.0016
788.8411	-0.0173
789.013	-0.0088
789.1849	-0.0414
789.3568	0.0216
789.5287	0.0625
789.7005	0.026
789.8723	-0.0195
790.0442	-0.0319
790.2159	0.0443
790.3877	0.0417
790.5595	0.0538
790.7312	-0.0012
790.9029	-0.0385
791.0746	0.0302
791.2463	-0.0026
791.4179	-0.0045
791.5896	0.0209
791.7612	0.0619
791.9328	-0.0292
792.1044	0.0633
792.2759	-0.0427
792.4474	-0.0026
792.619	0.0031
792.7905	-0.0137
792.9619	0.0852
793.1334	0.0444
793.3048	0.0456
793.4762	-0.001
793.6476	-0.0373
793.819	0.0099
793.9904	-0.0115
794.1617	-0.0118
794.333	0.0194
794.5043	0.0464
794.6756	0.0157
794.8469	0.0122
795.0181	0.0062
795.1893	0.0362
795.3605	0.0198
795.5317	0.0103
795.7029	-0.0175
795.874	-0.0238
796.0452	0.0324
796.2163	0.074
796.3873	0.0157
796.5584	0.0452
796.7294	-0.0092
796.9005	0.01
797.0715	-0.0204
797.2425	0.1058
797.4134	0.122
797.5844	0.0467
797.7553	-0.0818
797.9262	0.0541
798.0971	0.0633
798.2679	-0.0516
798.4388	0.0587
798.6096	-0.0003
798.7804	-0.0027
798.9512	0.0542
799.122	-0.0453
799.2927	0.092
799.4635	-0.0346
799.6342	-0.0398
799.8049	0.1137
799.9755	-0.0566
800.1462	0.0657
800.3168	0.0254
800.4874	-0.0143
800.658	0.0069
800.8286	-0.0081
800.9991	0.0823
801.1696	-0.0244
801.3402	-0.1066
801.5106	-0.023
801.6811	0.0085
801.8516	0.0259
802.022	0.009
802.1924	-0.0267
802.3628	0.0074
802.5332	-0.0605
802.7035	0.0679
802.8739	0.0317
803.0442	0.0703
803.2145	0.0179
803.3847	0.0469
803.555	0.0669
803.7252	-0.0752
803.8954	-0.0629
804.0656	-0.0108
804.2358	-0.0453
804.4059	0.172
804.5761	0.0895
804.7462	-0.0022
804.9163	-0.0218
805.0864	-0.0208
805.2564	-0.0669
805.4264	0.0079
805.5965	0.0747
805.7665	-0.0255
805.9364	-0.0625
806.1064	0.0103
806.2763	0.0496
806.4462	0.0265
806.6161	0.0007
806.786	0.0119
806.9559	0.032
807.1257	0.0269
807.2955	0.0134
807.4653	0.0118
807.6351	-0.0088
807.8048	-0.0111
807.9746	-0.004
808.1443	0.019
808.314	0.02
808.4837	-0.0077
808.6533	0.027
808.8229	0.0817
808.9926	0.0079
809.1622	0.0441
809.3317	-0.0642
809.5013	-0.0321
809.6708	-0.0151
809.8403	0.0384
810.0098	0.0404
810.1793	-0.0169
810.3488	-0.092
810.5182	0.1442
810.6876	0.0639
810.857	-0.0136
811.0264	-0.0368
811.1958	0.1047
811.3651	0.0137
811.5344	0.0098
811.7037	-0.0232
811.873	0.0605
812.0422	-0.0901
812.2115	0.0233
812.3807	-0.1617
812.5499	-0.0306
812.7191	-0.1503
812.8882	-0.1059
813.0574	-0.038
813.2265	0.0797
813.3956	-0.0515
813.5646	0.0787
813.7337	0.1065
813.9027	-0.0652
814.0718	0.0583
814.2407	0.0542
814.4097	0.065
814.5787	0.0611
814.7476	-0.0189
814.9165	0.0262
815.0854	-0.0024
815.2543	-0.03
815.4232	0.1072
815.592	-0.0274
815.7608	-0.12
815.9296	-0.0198
816.0984	0.0244
816.2671	-0.2495
816.4359	0.0951
816.6046	-0.0496
816.7733	-0.0077
816.942	0.0129
817.1106	0.0714
817.2793	-0.1074
817.4479	0.0413
817.6165	-0.0345
817.785	0.1359
817.9536	-0.1307
818.1221	0.059
818.2906	0.034
818.4591	0.0039
818.6276	0.0915
818.7961	-0.0194
818.9645	-0.0418
819.1329	-0.041
819.3013	-0.0683
819.4697	-0.1399
819.638	0.0563
819.8064	0.0297
819.9747	-0.0502
820.143	0.007
820.3113	0.109
820.4795	0.0103
820.6477	0.097
820.816	0.081
820.9842	0.0543
821.1523	0.1245
821.3205	0.0139
821.4886	0.0015
821.6567	-0.0874
821.8248	0.1852
821.9929	-0.1534
822.1609	0.092
822.329	0.106
822.497	-0.0222
822.665	-0.1607
822.833	-0.098
823.0009	0.0207
823.1688	0.0724
823.3367	-0.0677
823.5046	-0.0141
823.6725	-0.1275
823.8404	0.0441
824.0082	-0.0865
824.176	-0.0256
824.3438	0.0673
824.5116	-0.1202
824.6793	0.0332
824.847	0.1839
825.0147	0.1026
825.1824	0.0026
825.3501	0.1984
825.5177	-0.0112
825.6854	-0.1188
825.853	0.2214
826.0206	-0.1197
826.1881	-0.0585
826.3557	0.0517
826.5232	0.0426
826.6907	-0.0145
826.8582	-0.0053
827.0257	0.0227
827.1931	-0.0426
827.3605	0.0067
827.528	-0.0166
827.6953	-0.1639
827.8627	-0.1115
828.03	0.012
828.1974	0.0376
828.3647	0.0448
828.532	-0.066
828.6992	0.0195
828.8665	-0.0156
829.0337	0.0593
829.2009	-0.1019
829.3681	-0.0843
829.5352	-0.2262
829.7024	0.0167
829.8695	0.0345
830.0366	0.2205
830.2037	0.0722
830.3707	0.1994
830.5378	0.033
830.7048	-0.0774
830.8718	0.0302
831.0388	0.1347
831.2057	0.4496
831.3727	-0
831.5396	0.0186
831.7065	-0.5152
831.8734	0.1538
832.0402	0.1557
832.2071	-0.7131
832.3739	-0.2991
832.5407	-1.9138
832.7075	-0.4419
832.8742	0.0225
833.041	0.431
833.2077	0.3005
833.3744	0.2295
833.541	0.1594
833.7077	-0.1435
833.8743	0.147
834.0409	0.1929
834.2075	0.037
834.3741	-0.1235
834.5407	0.0114
834.7072	0.1559
834.8737	0.1181
835.0402	0.4127
835.2067	0.0472
835.3731	0.1594
835.5395	-0.1493
835.706	0.4297
835.8723	0.0617
836.0387	0.2315
836.2051	0.4778
836.3714	0.0643
836.5377	0.2925
836.704	-0.0759
836.8703	0.0292
837.0365	-0.7619
837.2027	0.0665
837.3689	0.3432
837.5351	0.0343
837.7013	-0.2943
837.8674	-0.3466
838.0335	0.0598
838.1997	0.0088
838.3657	-0
838.5318	0.3339
838.6978	-0
838.8639	-0.07
839.0299	0.2491
839.1958	0.3146
839.3618	-0
839.5277	0.2942
839.6937	-0.1995
839.8596	-0.4038
840.0254	0.015
840.1913	-0.3863
840.3571	-0.0997
840.523	-0
840.6888	0.2169
840.8545	-0.6676
841.0203	0.712
841.186	-0.07
841.3517	0.291
841.5174	0.1051
841.6831	0.0321
841.8488	1.4493
842.0144	-0.2191
842.18	0.4918
842.3456	-0.4781
842.5112	-0
842.6767	-0.1032
842.8422	-0.3284
843.0077	0.2141
843.1732	-0.1894
843.3387	-0.0762
843.5042	-0
843.6696	-0.1654
843.835	-0.2308
844.0004	-0.3995
844.1657	-0
844.3311	-0
844.4964	-0.5109
844.6617	0.5002
844.827	-0
844.9923	0.4102
845.1575	-0.3088
845.3227	0.4402
845.4879	-0.2204
845.6531	0.0772
845.8183	0.1355
845.9834	-0
846.1485	0.3006
846.3136	-0.2301
846.4787	-0
846.6438	-0
846.8088	-0.0219
846.9738	-0.7987
847.1388	0.3241
847.3038	-0.0961
847.4687	1.0225
847.6337	-0.8194
847.7986	0.0409
847.9635	-0.0132
848.1284	-0
848.2932	0.7102
848.458	-0
848.6228	-0.4182
848.7876	-0
848.9524	-0.0079
849.1172	-2.0182
849.2819	-0
849.4466	-0
849.6113	-0.0406
849.7759	-0.4135
849.9406	-0.1657
850.1052	-0
850.2698	-0
850.4344	-0
850.599	-0.3917
850.7635	-0.0429
850.928	-0.0344
851.0925	0.1192
851.257	-0.0762
851.4215	-0.2456
851.5859	0.0195
851.7503	-0
851.9147	-0.2483
852.0791	-0.1338
852.2434	0.2342
852.4078	-0
852.5721	-0
852.7364	0.041
852.9007	-0.0193
853.0649	-0
853.2291	0.102
853.3934	-0
853.5575	-0.402
853.7217	0.8167
853.8859	-0.0485
854.05	-0.7273
854.2141	-0.0231
854.3782	-0.3466
854.5423	0.2524
854.7063	0.2237
854.8703	-0.0019
855.0343	0.0335
855.1983	-0.0309
855.3623	-0.1842
855.5262	0.0344
855.6901	-0.0686
855.854	0.0972
856.0179	0.7564
856.1818	1.7284
856.3456	0.0818
856.5094	-0.8505
856.6732	-0.7731
856.837	-1.249
857.0008	-0.3637
857.1645	0.1835
857.3282	-0.339
857.4919	0.3004
857.6556	-0.2842
857.8192	-0.1494
857.9828	-0.0748
858.1465	-0
858.31	-0
858.4736	-0
858.6372	-0.0283
858.8007	0.0498
858.9642	0.1987
859.1277	-0
859.2911	-0.5135
859.4546	-0.4472
859.618	0.6943
859.7814	-0
859.9448	-0
860.1081	-0
860.2715	-0
860.4348	0.2074
860.5981	0.702
860.7614	-0.2111
860.9246	1.6053
861.0879	-0.0454
861.2511	-0
861.4143	-0.0231
861.5774	-0.2204
861.7406	0.0829
861.9037	-0
862.0668	-0.5101
862.2299	0.383
862.393	-0
862.556	-0
862.7191	-0.4289
862.8821	0.2368
863.0451	0.0207
863.208	-0.219
863.371	-0.541
863.5339	0.1017
863.6968	0.7737
863.8597	-0.3367
864.0225	0.2404
864.1854	-0
864.3482	-0
864.511	0.1463
864.6737	-0
864.8365	0.1925
864.9992	-0
865.1619	-0.5619
865.3246	-0.4472
865.4873	-0.5488
865.65	-0
865.8126	-0.2416
865.9752	-0.4534
866.1378	-0.117
866.3004	-0.1331
866.4629	-1.8953
866.6254	-0.3134
866.7879	-0.2158
866.9504	-0
867.1129	-0.3525
867.2753	-0.3311
867.4377	0.2849
867.6001	-0.1228
867.7625	0.1853
867.9249	0.7702
868.0872	0.2565
868.2495	-0
868.4118	-0
868.5741	0.4814
868.7363	0.1978
868.8986	-0.3341
869.0608	0.19
869.223	-0.2256
869.3851	-0
869.5473	-0.1872
869.7094	-0
869.8715	-0
870.0336	-0.1028
870.1957	-0
870.3577	0.0303
870.5197	0.1265
870.6817	0.0525
870.8437	0.2497
871.0057	0.2473
871.1676	0.0971
871.3295	-0.6582
871.4914	0.3979
871.6533	-0
871.8151	0.3157
871.977	-0.5619
872.1388	0.0407
872.3006	-0.2774
872.4623	-0
872.6241	-0
872.7858	-0.2915
872.9475	1.1328
873.1092	0.2417
873.2709	0.8606
873.4325	-2.0843
873.5941	-0
873.7557	-0
873.9173	0.0265
874.0789	-0.0018
874.2404	-0
874.4019	-0.1549
874.5634	-0
874.7249	0.4783
874.8863	0.0063
875.0478	-0.3372
875.2092	0.4871
875.3706	0.2685
875.5319	-0.2296
875.6933	-0.0808
875.8546	-0.0623
876.0159	0.3577
876.1772	-0.2697
876.3385	-0
876.4997	-0
876.6609	-0
876.8221	-0
876.9833	1.0148
877.1445	0.3921
877.3056	-1.1881
877.4667	-0.3784
877.6278	-0
877.7889	-0
877.9499	0.5203
878.111	-0.5337
878.272	0.0517
878.433	0.0538
878.5939	-0
878.7549	0.3458
878.9158	-0
879.0767	-0
879.2376	0.1071
879.3984	0.2258
879.5593	0.1565
879.7201	-0
879.8809	-0.0991
880.0417	-0.1063
880.2024	0.1355
880.3632	-0.4905
880.5239	-0.1711
880.6846	-0.5957
880.8452	0.1983
881.0059	-0
881.1665	0.1617
881.3271	1.0607
881.4877	0.0066
881.6483	-0
881.8088	-0
881.9693	-0
882.1298	-0
882.2903	-0
