Data from D4ACN5uM420nmA_Absorbance_14-37-07-841.txt Node
Date: Fri Feb 21 14:37:07 GMT 2025
User: LASERRRRR
Spectrometer: FLMT03099
Trigger mode: 0
Integration Time (sec): 1.500000E-2
Scans to average: 1
Electric dark correction enabled: true
Nonlinearity correction enabled: false
Boxcar width: 0
XAxis mode: Wavelengths
Number of Pixels in Spectrum: 3648
>>>>>Begin Spectral Data<<<<<
179.3399	-0.643
179.5586	-0.643
179.7771	-0.643
179.9957	-0.1612
180.2143	-0
180.4329	0.6847
180.6514	-0
180.8699	-0.2183
181.0885	-0.0204
181.307	0.4213
181.5255	0.1811
181.744	-0.1486
181.9625	0.3177
182.181	-0
182.3994	0.0104
182.6179	-0.4182
182.8363	0.2798
183.0547	-0.2852
183.2732	0.1025
183.4916	0.134
183.71	0.0627
183.9284	-0.003
184.1467	0.1051
184.3651	0.0607
184.5835	0.2312
184.8018	0.0929
185.0201	0.1497
185.2385	0.0959
185.4568	0.2546
185.6751	0.0399
185.8934	0.2043
186.1117	-0.0424
186.3299	0.0791
186.5482	0.0666
186.7664	0.6473
186.9847	0.035
187.2029	0.0552
187.4211	-0.0906
187.6393	0.0008
187.8575	0.1839
188.0757	0.2625
188.2939	0.0248
188.512	0.3126
188.7302	0.0078
188.9483	0.2587
189.1665	0.676
189.3846	0.2495
189.6027	0.0401
189.8208	0.1528
190.0389	0.3236
190.257	0.0665
190.475	0.0457
190.6931	0.1729
190.9111	0.0226
191.1292	0.186
191.3472	0.0248
191.5652	0.2242
191.7832	0.1479
192.0012	0.3191
192.2192	0.1619
192.4371	0.0556
192.6551	0.247
192.873	0.1989
193.091	0.1406
193.3089	0.2635
193.5268	0.1262
193.7447	0.0629
193.9626	0.1675
194.1805	0.182
194.3984	0.1701
194.6162	0.2409
194.8341	0.3699
195.0519	0.2281
195.2697	0.1948
195.4875	0.2362
195.7054	0.2668
195.9231	0.1958
196.1409	0.367
196.3587	0.2814
196.5765	0.2678
196.7942	0.2936
197.012	0.3168
197.2297	0.2371
197.4474	0.3769
197.6651	0.2927
197.8828	0.3414
198.1005	0.4413
198.3182	0.4346
198.5358	0.395
198.7535	0.4326
198.9711	0.4077
199.1888	0.3923
199.4064	0.3934
199.624	0.3985
199.8416	0.3437
200.0592	0.3759
200.2767	0.3985
200.4943	0.4156
200.7119	0.3932
200.9294	0.4311
201.1469	0.3653
201.3645	0.467
201.582	0.3636
201.7995	0.4308
202.017	0.4023
202.2344	0.4351
202.4519	0.436
202.6694	0.377
202.8868	0.3638
203.1042	0.4643
203.3217	0.4003
203.5391	0.397
203.7565	0.3491
203.9739	0.3736
204.1913	0.3387
204.4086	0.3555
204.626	0.3389
204.8433	0.3642
205.0607	0.336
205.278	0.3578
205.4953	0.3379
205.7126	0.3564
205.9299	0.3124
206.1472	0.3215
206.3644	0.3423
206.5817	0.3017
206.7989	0.3306
207.0162	0.3297
207.2334	0.3381
207.4506	0.3373
207.6678	0.3004
207.885	0.3081
208.1022	0.303
208.3194	0.2963
208.5365	0.2728
208.7537	0.2898
208.9708	0.2984
209.1879	0.3045
209.405	0.2865
209.6222	0.2844
209.8392	0.2965
210.0563	0.2626
210.2734	0.2788
210.4905	0.2742
210.7075	0.2721
210.9245	0.264
211.1416	0.2709
211.3586	0.275
211.5756	0.2381
211.7926	0.2794
212.0096	0.2695
212.2265	0.2667
212.4435	0.2507
212.6604	0.2341
212.8774	0.2444
213.0943	0.2453
213.3112	0.2504
213.5281	0.2453
213.745	0.2431
213.9619	0.2364
214.1788	0.2445
214.3956	0.2422
214.6125	0.2478
214.8293	0.2549
215.0461	0.2449
215.2629	0.2545
215.4798	0.2506
215.6965	0.2531
215.9133	0.2445
216.1301	0.2501
216.3469	0.2552
216.5636	0.2424
216.7803	0.2353
216.9971	0.2585
217.2138	0.2478
217.4305	0.2414
217.6472	0.2381
217.8639	0.2643
218.0805	0.2698
218.2972	0.25
218.5138	0.2381
218.7305	0.2508
218.9471	0.2479
219.1637	0.2603
219.3803	0.2676
219.5969	0.2473
219.8135	0.2579
220.0301	0.2595
220.2466	0.2542
220.4632	0.2525
220.6797	0.2497
220.8962	0.266
221.1127	0.2677
221.3292	0.2574
221.5457	0.2749
221.7622	0.2769
221.9787	0.2809
222.1951	0.2668
222.4116	0.2687
222.628	0.2901
222.8444	0.2711
223.0608	0.2748
223.2772	0.2801
223.4936	0.2823
223.71	0.2874
223.9264	0.277
224.1427	0.2829
224.3591	0.279
224.5754	0.3033
224.7917	0.2995
225.008	0.3001
225.2243	0.3046
225.4406	0.2923
225.6569	0.3001
225.8732	0.3035
226.0894	0.3069
226.3057	0.2998
226.5219	0.3155
226.7381	0.3101
226.9543	0.3207
227.1705	0.3234
227.3867	0.3124
227.6029	0.3273
227.8191	0.328
228.0352	0.3359
228.2513	0.354
228.4675	0.3422
228.6836	0.3492
228.8997	0.3475
229.1158	0.3578
229.3319	0.3586
229.548	0.3526
229.764	0.3477
229.9801	0.3709
230.1961	0.3682
230.4121	0.3762
230.6282	0.3877
230.8442	0.3799
231.0602	0.3867
231.2761	0.3852
231.4921	0.393
231.7081	0.3997
231.924	0.394
232.14	0.3957
232.3559	0.3976
232.5718	0.4121
232.7877	0.4065
233.0036	0.4156
233.2195	0.4099
233.4353	0.4249
233.6512	0.4189
233.867	0.4171
234.0829	0.4349
234.2987	0.4248
234.5145	0.4436
234.7303	0.4323
234.9461	0.4401
235.1619	0.4472
235.3776	0.4403
235.5934	0.4275
235.8091	0.4418
236.0249	0.4593
236.2406	0.4343
236.4563	0.4425
236.672	0.4418
236.8877	0.4536
237.1034	0.4592
237.319	0.4397
237.5347	0.4494
237.7503	0.4548
237.966	0.4626
238.1816	0.4697
238.3972	0.4693
238.6128	0.4741
238.8284	0.4682
239.0439	0.4685
239.2595	0.468
239.475	0.4642
239.6906	0.4638
239.9061	0.4666
240.1216	0.4641
240.3371	0.467
240.5526	0.4652
240.7681	0.4677
240.9836	0.4533
241.199	0.4636
241.4145	0.4557
241.6299	0.4481
241.8453	0.4466
242.0607	0.4454
242.2761	0.4378
242.4915	0.4294
242.7069	0.42
242.9223	0.4198
243.1376	0.4141
243.353	0.4044
243.5683	0.4081
243.7836	0.3923
243.9989	0.3871
244.2142	0.3862
244.4295	0.3759
244.6448	0.37
244.86	0.3614
245.0753	0.3497
245.2905	0.3504
245.5057	0.3483
245.721	0.3345
245.9362	0.3281
246.1514	0.3276
246.3665	0.3148
246.5817	0.3131
246.7969	0.2988
247.012	0.2938
247.2271	0.2933
247.4423	0.29
247.6574	0.2875
247.8725	0.2743
248.0876	0.2799
248.3026	0.2718
248.5177	0.2643
248.7328	0.254
248.9478	0.2593
249.1628	0.2555
249.3779	0.2446
249.5929	0.2404
249.8079	0.2477
250.0228	0.2377
250.2378	0.2296
250.4528	0.2312
250.6677	0.2302
250.8827	0.2173
251.0976	0.2215
251.3125	0.2112
251.5274	0.216
251.7423	0.2168
251.9572	0.214
252.172	0.2122
252.3869	0.2077
252.6017	0.2048
252.8166	0.2006
253.0314	0.2047
253.2462	0.1943
253.461	0.201
253.6758	0.2001
253.8906	0.2004
254.1053	0.2041
254.3201	0.2034
254.5348	0.1904
254.7496	0.1861
254.9643	0.196
255.179	0.1926
255.3937	0.1962
255.6083	0.1887
255.823	0.1939
256.0377	0.1855
256.2523	0.1852
256.467	0.1919
256.6816	0.1876
256.8962	0.1874
257.1108	0.1899
257.3254	0.1838
257.54	0.1871
257.7545	0.187
257.9691	0.1875
258.1836	0.1768
258.3981	0.1832
258.6127	0.1748
258.8272	0.1891
259.0417	0.1768
259.2561	0.1794
259.4706	0.1788
259.6851	0.1787
259.8995	0.1796
260.114	0.1788
260.3284	0.178
260.5428	0.1813
260.7572	0.1794
260.9716	0.1872
261.186	0.1788
261.4003	0.1786
261.6147	0.18
261.829	0.1885
262.0433	0.1837
262.2577	0.1881
262.472	0.1817
262.6863	0.1926
262.9005	0.1851
263.1148	0.1806
263.3291	0.1802
263.5433	0.1865
263.7576	0.1855
263.9718	0.1837
264.186	0.1838
264.4002	0.1848
264.6144	0.1903
264.8286	0.1899
265.0427	0.1941
265.2569	0.1934
265.471	0.1975
265.6851	0.1925
265.8993	0.1795
266.1134	0.1914
266.3275	0.187
266.5415	0.189
266.7556	0.1902
266.9697	0.1856
267.1837	0.19
267.3978	0.1867
267.6118	0.184
267.8258	0.1889
268.0398	0.1921
268.2538	0.1874
268.4677	0.1849
268.6817	0.187
268.8957	0.1788
269.1096	0.1822
269.3235	0.1801
269.5374	0.1797
269.7514	0.1829
269.9652	0.1797
270.1791	0.1803
270.393	0.1876
270.6068	0.1844
270.8207	0.1819
271.0345	0.1877
271.2483	0.183
271.4622	0.1814
271.676	0.1804
271.8897	0.1794
272.1035	0.1858
272.3173	0.1793
272.531	0.1814
272.7448	0.1799
272.9585	0.1759
273.1722	0.1796
273.3859	0.1832
273.5996	0.1791
273.8133	0.1822
274.0269	0.1754
274.2406	0.1832
274.4542	0.1933
274.6679	0.1856
274.8815	0.1916
275.0951	0.1908
275.3087	0.1911
275.5223	0.1857
275.7358	0.1867
275.9494	0.1904
276.1629	0.1937
276.3765	0.1868
276.59	0.1829
276.8035	0.182
277.017	0.1941
277.2305	0.1887
277.444	0.195
277.6574	0.1881
277.8709	0.1914
278.0843	0.1938
278.2978	0.1954
278.5112	0.1914
278.7246	0.1903
278.938	0.1897
279.1513	0.197
279.3647	0.1929
279.5781	0.1893
279.7914	0.1931
280.0047	0.1932
280.2181	0.1918
280.4314	0.1933
280.6447	0.1935
280.8579	0.1862
281.0712	0.1899
281.2845	0.1914
281.4977	0.1945
281.711	0.19
281.9242	0.1901
282.1374	0.1857
282.3506	0.1895
282.5638	0.1917
282.7769	0.185
282.9901	0.1893
283.2033	0.1886
283.4164	0.1904
283.6295	0.1901
283.8426	0.1866
284.0557	0.1903
284.2688	0.1921
284.4819	0.1844
284.695	0.1968
284.908	0.1912
285.1211	0.1957
285.3341	0.1882
285.5471	0.1949
285.7601	0.1953
285.9731	0.1889
286.1861	0.191
286.3991	0.1926
286.612	0.1893
286.825	0.1975
287.0379	0.1932
287.2508	0.1895
287.4637	0.1965
287.6766	0.1977
287.8895	0.1931
288.1024	0.194
288.3152	0.1965
288.5281	0.1891
288.7409	0.1972
288.9538	0.1936
289.1666	0.1938
289.3794	0.1944
289.5922	0.1907
289.8049	0.1947
290.0177	0.1954
290.2304	0.1923
290.4432	0.1967
290.6559	0.1979
290.8686	0.1975
291.0813	0.1916
291.294	0.1949
291.5067	0.1903
291.7194	0.1885
291.932	0.1899
292.1447	0.194
292.3573	0.1943
292.5699	0.1968
292.7825	0.1954
292.9951	0.1951
293.2077	0.1978
293.4203	0.193
293.6328	0.1961
293.8454	0.1931
294.0579	0.1955
294.2704	0.2031
294.4829	0.1965
294.6954	0.1936
294.9079	0.1882
295.1204	0.1899
295.3328	0.195
295.5453	0.1935
295.7577	0.1968
295.9701	0.1954
296.1825	0.1996
296.3949	0.1897
296.6073	0.1902
296.8197	0.1931
297.0321	0.1962
297.2444	0.1871
297.4567	0.2
297.6691	0.1959
297.8814	0.195
298.0937	0.1939
298.306	0.1893
298.5182	0.1974
298.7305	0.1978
298.9428	0.1945
299.155	0.1913
299.3672	0.1979
299.5794	0.1968
299.7916	0.193
300.0038	0.1917
300.216	0.1922
300.4282	0.19
300.6403	0.196
300.8525	0.1955
301.0646	0.1974
301.2767	0.1966
301.4888	0.1969
301.7009	0.1957
301.913	0.1941
302.125	0.1899
302.3371	0.1902
302.5491	0.1964
302.7612	0.1994
302.9732	0.199
303.1852	0.1943
303.3972	0.1993
303.6092	0.1956
303.8211	0.1912
304.0331	0.1988
304.245	0.1889
304.457	0.1886
304.6689	0.1913
304.8808	0.1858
305.0927	0.1926
305.3046	0.1905
305.5164	0.1879
305.7283	0.1848
305.9401	0.1804
306.152	0.1844
306.3638	0.1853
306.5756	0.1764
306.7874	0.1799
306.9992	0.1756
307.2109	0.1747
307.4227	0.1744
307.6344	0.1779
307.8462	0.1703
308.0579	0.1799
308.2696	0.1724
308.4813	0.175
308.693	0.1716
308.9046	0.1718
309.1163	0.164
309.328	0.1638
309.5396	0.1609
309.7512	0.1643
309.9628	0.1585
310.1744	0.1537
310.386	0.1513
310.5976	0.1563
310.8091	0.1591
311.0207	0.1508
311.2322	0.1516
311.4437	0.1492
311.6552	0.1521
311.8667	0.1552
312.0782	0.1434
312.2897	0.1481
312.5012	0.1454
312.7126	0.1372
312.924	0.1471
313.1355	0.1434
313.3469	0.1402
313.5583	0.1413
313.7696	0.1374
313.981	0.1431
314.1924	0.1354
314.4037	0.1341
314.6151	0.1363
314.8264	0.1389
315.0377	0.1363
315.249	0.1371
315.4603	0.1305
315.6716	0.1357
315.8828	0.1324
316.0941	0.1435
316.3053	0.1345
316.5165	0.1347
316.7277	0.1315
316.9389	0.1355
317.1501	0.1352
317.3613	0.1353
317.5724	0.1331
317.7836	0.1243
317.9947	0.1302
318.2058	0.1332
318.417	0.131
318.6281	0.13
318.8391	0.1324
319.0502	0.1337
319.2613	0.1272
319.4723	0.1305
319.6834	0.1349
319.8944	0.1323
320.1054	0.1335
320.3164	0.1311
320.5274	0.1304
320.7383	0.1401
320.9493	0.1334
321.1602	0.1309
321.3712	0.1302
321.5821	0.1289
321.793	0.1342
322.0039	0.1295
322.2148	0.1332
322.4257	0.1217
322.6365	0.1305
322.8474	0.1352
323.0582	0.1384
323.269	0.1348
323.4798	0.1384
323.6906	0.1311
323.9014	0.1363
324.1122	0.1267
324.3229	0.1358
324.5337	0.14
324.7444	0.1333
324.9551	0.1356
325.1658	0.1336
325.3765	0.1379
325.5872	0.1377
325.7979	0.1343
326.0085	0.1371
326.2192	0.1349
326.4298	0.1353
326.6404	0.1421
326.851	0.137
327.0616	0.1408
327.2722	0.1396
327.4828	0.1386
327.6933	0.1434
327.9039	0.1358
328.1144	0.143
328.3249	0.1452
328.5354	0.1396
328.7459	0.1444
328.9564	0.1418
329.1669	0.1448
329.3773	0.1425
329.5878	0.1413
329.7982	0.1435
330.0086	0.1433
330.219	0.142
330.4294	0.1451
330.6398	0.1418
330.8502	0.146
331.0605	0.1447
331.2708	0.1402
331.4812	0.1423
331.6915	0.1428
331.9018	0.1479
332.1121	0.1478
332.3224	0.1396
332.5326	0.1396
332.7429	0.1444
332.9531	0.1522
333.1633	0.1437
333.3735	0.1447
333.5837	0.1407
333.7939	0.1431
334.0041	0.1473
334.2143	0.1434
334.4244	0.154
334.6346	0.1512
334.8447	0.1505
335.0548	0.1473
335.2649	0.1439
335.475	0.1526
335.685	0.1498
335.8951	0.1455
336.1051	0.1503
336.3152	0.149
336.5252	0.1504
336.7352	0.1505
336.9452	0.1493
337.1552	0.149
337.3652	0.1449
337.5751	0.151
337.7851	0.148
337.995	0.1495
338.2049	0.1419
338.4148	0.1479
338.6247	0.154
338.8346	0.15
339.0445	0.1447
339.2543	0.1482
339.4642	0.15
339.674	0.1478
339.8838	0.1514
340.0936	0.1514
340.3034	0.1518
340.5132	0.1449
340.7229	0.1543
340.9327	0.1601
341.1424	0.1552
341.3522	0.1488
341.5619	0.1533
341.7716	0.1552
341.9813	0.161
342.1909	0.1549
342.4006	0.1565
342.6102	0.1579
342.8199	0.1566
343.0295	0.1592
343.2391	0.157
343.4487	0.1637
343.6583	0.1686
343.8679	0.1527
344.0774	0.1642
344.287	0.1646
344.4965	0.1672
344.706	0.1643
344.9155	0.153
345.125	0.1651
345.3345	0.1741
345.544	0.169
345.7534	0.1665
345.9629	0.1631
346.1723	0.1698
346.3817	0.1644
346.5911	0.1741
346.8005	0.18
347.0099	0.1672
347.2193	0.1792
347.4286	0.1749
347.638	0.1795
347.8473	0.1796
348.0566	0.1708
348.2659	0.1732
348.4752	0.174
348.6845	0.1792
348.8937	0.18
349.103	0.1844
349.3122	0.1877
349.5214	0.1801
349.7306	0.1854
349.9398	0.1795
350.149	0.1784
350.3582	0.1824
350.5674	0.1815
350.7765	0.1889
350.9856	0.1797
351.1948	0.1805
351.4039	0.1826
351.613	0.1842
351.822	0.1932
352.0311	0.1855
352.2402	0.1886
352.4492	0.1852
352.6582	0.1917
352.8672	0.1893
353.0762	0.191
353.2852	0.1866
353.4942	0.1862
353.7032	0.1905
353.9121	0.1874
354.1211	0.1911
354.33	0.1937
354.5389	0.1857
354.7478	0.1853
354.9567	0.1964
355.1655	0.1973
355.3744	0.1883
355.5833	0.1923
355.7921	0.193
356.0009	0.1892
356.2097	0.1818
356.4185	0.1918
356.6273	0.2009
356.8361	0.1937
357.0448	0.1935
357.2536	0.194
357.4623	0.1963
357.671	0.1951
357.8797	0.1967
358.0884	0.1978
358.2971	0.1847
358.5057	0.208
358.7144	0.1966
358.923	0.1984
359.1316	0.2065
359.3402	0.1931
359.5488	0.1996
359.7574	0.2122
359.966	0.2037
360.1746	0.2037
360.3831	0.2078
360.5916	0.206
360.8002	0.2125
361.0087	0.1966
361.2172	0.2114
361.4256	0.2079
361.6341	0.2146
361.8426	0.2175
362.051	0.2142
362.2594	0.2043
362.4678	0.2192
362.6762	0.2198
362.8846	0.2099
363.093	0.2198
363.3014	0.2207
363.5097	0.2198
363.718	0.2212
363.9264	0.2246
364.1347	0.222
364.343	0.2233
364.5513	0.2251
364.7595	0.2245
364.9678	0.225
365.176	0.231
365.3842	0.2241
365.5925	0.2254
365.8007	0.2289
366.0089	0.2386
366.217	0.2308
366.4252	0.2271
366.6333	0.2348
366.8415	0.2359
367.0496	0.2338
367.2577	0.2352
367.4658	0.2286
367.6739	0.2297
367.882	0.2433
368.09	0.2312
368.2981	0.2454
368.5061	0.2452
368.7141	0.2402
368.9221	0.2503
369.1301	0.2405
369.3381	0.2498
369.5461	0.2445
369.754	0.2436
369.962	0.2436
370.1699	0.2466
370.3778	0.2544
370.5857	0.2466
370.7936	0.245
371.0015	0.2417
371.2093	0.2591
371.4172	0.2473
371.625	0.2505
371.8328	0.2467
372.0406	0.2608
372.2484	0.2529
372.4562	0.2544
372.664	0.2582
372.8717	0.2512
373.0795	0.2648
373.2872	0.2644
373.4949	0.2594
373.7026	0.2538
373.9103	0.2652
374.118	0.2673
374.3256	0.2697
374.5333	0.2605
374.7409	0.2614
374.9485	0.2667
375.1561	0.2691
375.3637	0.257
375.5713	0.2763
375.7789	0.2627
375.9864	0.2634
376.194	0.2656
376.4015	0.2783
376.609	0.2669
376.8165	0.2666
377.024	0.2736
377.2315	0.272
377.4389	0.265
377.6464	0.2743
377.8538	0.2793
378.0612	0.2762
378.2686	0.2752
378.476	0.2835
378.6834	0.2792
378.8908	0.2806
379.0981	0.281
379.3055	0.2826
379.5128	0.2716
379.7201	0.2775
379.9274	0.2802
380.1347	0.2834
380.342	0.2869
380.5492	0.2762
380.7565	0.2849
380.9637	0.2894
381.1709	0.2812
381.3781	0.2889
381.5853	0.2865
381.7925	0.2825
381.9997	0.2921
382.2068	0.2894
382.4139	0.2868
382.6211	0.2761
382.8282	0.2967
383.0353	0.2978
383.2424	0.2897
383.4494	0.2865
383.6565	0.2892
383.8635	0.2882
384.0706	0.2925
384.2776	0.2936
384.4846	0.2985
384.6916	0.2894
384.8986	0.2892
385.1055	0.3066
385.3125	0.298
385.5194	0.3012
385.7263	0.2932
385.9333	0.2947
386.1402	0.2979
386.347	0.2869
386.5539	0.3003
386.7608	0.2954
386.9676	0.2902
387.1744	0.2924
387.3813	0.2977
387.5881	0.2906
387.7948	0.3016
388.0016	0.3063
388.2084	0.3041
388.4151	0.2955
388.6219	0.2941
388.8286	0.2991
389.0353	0.2955
389.242	0.2928
389.4487	0.2919
389.6553	0.2746
389.862	0.2879
390.0686	0.2941
390.2753	0.2914
390.4819	0.2926
390.6885	0.2779
390.8951	0.2843
391.1016	0.2816
391.3082	0.2857
391.5147	0.2752
391.7213	0.2835
391.9278	0.2757
392.1343	0.2849
392.3408	0.2721
392.5473	0.2753
392.7537	0.2676
392.9602	0.2779
393.1666	0.2734
393.373	0.276
393.5794	0.2723
393.7858	0.2718
393.9922	0.2745
394.1986	0.2657
394.4049	0.2694
394.6113	0.2616
394.8176	0.2685
395.0239	0.2678
395.2302	0.2654
395.4365	0.2667
395.6428	0.2646
395.8491	0.2632
396.0553	0.248
396.2615	0.2634
396.4678	0.2675
396.674	0.2583
396.8802	0.255
397.0863	0.2492
397.2925	0.2503
397.4987	0.2509
397.7048	0.2573
397.9109	0.2518
398.117	0.2525
398.3231	0.2425
398.5292	0.2439
398.7353	0.2441
398.9413	0.2553
399.1474	0.2533
399.3534	0.2453
399.5594	0.2507
399.7654	0.2556
399.9714	0.2511
400.1774	0.246
400.3833	0.2476
400.5893	0.2465
400.7952	0.2571
401.0011	0.2509
401.207	0.2481
401.4129	0.2426
401.6188	0.253
401.8247	0.2717
402.0305	0.2506
402.2364	0.2455
402.4422	0.2518
402.648	0.2551
402.8538	0.2531
403.0596	0.2456
403.2654	0.2536
403.4711	0.2493
403.6768	0.2547
403.8826	0.2559
404.0883	0.246
404.294	0.2531
404.4997	0.2529
404.7054	0.2577
404.911	0.2445
405.1167	0.2533
405.3223	0.2528
405.5279	0.2463
405.7335	0.2469
405.9391	0.247
406.1447	0.25
406.3502	0.2471
406.5558	0.2519
406.7613	0.2537
406.9668	0.2476
407.1724	0.2454
407.3778	0.2505
407.5833	0.2483
407.7888	0.2526
407.9942	0.2456
408.1997	0.2547
408.4051	0.2438
408.6105	0.2488
408.8159	0.2359
409.0213	0.2484
409.2267	0.2508
409.432	0.2444
409.6374	0.2457
409.8427	0.2589
410.048	0.2433
410.2533	0.2456
410.4586	0.2395
410.6639	0.25
410.8691	0.2445
411.0744	0.2532
411.2796	0.2432
411.4848	0.2386
411.69	0.2375
411.8952	0.2482
412.1004	0.2519
412.3056	0.2487
412.5107	0.2542
412.7158	0.2575
412.921	0.2537
413.1261	0.246
413.3312	0.2391
413.5362	0.2491
413.7413	0.2433
413.9464	0.2421
414.1514	0.2395
414.3564	0.2359
414.5614	0.2417
414.7664	0.2436
414.9714	0.2444
415.1764	0.2444
415.3813	0.2302
415.5863	0.2507
415.7912	0.2367
415.9961	0.2489
416.201	0.2449
416.4059	0.244
416.6108	0.2468
416.8156	0.2369
417.0205	0.2385
417.2253	0.2449
417.4301	0.2426
417.6349	0.2382
417.8397	0.2395
418.0445	0.2393
418.2492	0.2341
418.454	0.2373
418.6587	0.2439
418.8634	0.2392
419.0681	0.2391
419.2728	0.2405
419.4775	0.2434
419.6822	0.2159
419.8868	0.2284
420.0915	0.2305
420.2961	0.2272
420.5007	0.2339
420.7053	0.228
420.9099	0.2331
421.1144	0.232
421.319	0.2285
421.5235	0.2232
421.728	0.2288
421.9325	0.2284
422.137	0.2248
422.3415	0.2288
422.546	0.2226
422.7504	0.2224
422.9549	0.2292
423.1593	0.2114
423.3637	0.2172
423.5681	0.2301
423.7725	0.2182
423.9769	0.2216
424.1812	0.2135
424.3856	0.21
424.5899	0.2143
424.7942	0.213
424.9985	0.2131
425.2028	0.2224
425.4071	0.2248
425.6113	0.2071
425.8156	0.2083
426.0198	0.2046
426.224	0.2133
426.4282	0.1985
426.6324	0.2095
426.8366	0.199
427.0407	0.2016
427.2449	0.1923
427.449	0.2049
427.6531	0.2086
427.8572	0.2055
428.0613	0.2015
428.2654	0.206
428.4694	0.2023
428.6735	0.1872
428.8775	0.1966
429.0815	0.1994
429.2855	0.1931
429.4895	0.1904
429.6935	0.1873
429.8975	0.1892
430.1014	0.1927
430.3053	0.1904
430.5093	0.1815
430.7132	0.1784
430.9171	0.1689
431.1209	0.1859
431.3248	0.173
431.5286	0.1639
431.7325	0.1869
431.9363	0.1725
432.1401	0.175
432.3439	0.1676
432.5477	0.1659
432.7514	0.1673
432.9552	0.1692
433.1589	0.1531
433.3627	0.1691
433.5664	0.1575
433.7701	0.166
433.9737	0.1577
434.1774	0.1646
434.3811	0.151
434.5847	0.1484
434.7883	0.1507
434.9919	0.1467
435.1955	0.1526
435.3991	0.1496
435.6027	0.1435
435.8062	0.1556
436.0098	0.1379
436.2133	0.1404
436.4168	0.14
436.6203	0.1314
436.8238	0.132
437.0272	0.1348
437.2307	0.1369
437.4341	0.1338
437.6375	0.1322
437.841	0.1252
438.0443	0.1314
438.2477	0.1227
438.4511	0.1227
438.6545	0.1179
438.8578	0.1273
439.0611	0.1123
439.2644	0.1258
439.4677	0.1171
439.671	0.1059
439.8743	0.1206
440.0775	0.1144
440.2808	0.1075
440.484	0.1017
440.6872	0.1154
440.8904	0.0958
441.0936	0.1039
441.2967	0.0938
441.4999	0.0935
441.703	0.0983
441.9062	0.1007
442.1093	0.108
442.3124	0.0911
442.5155	0.1039
442.7185	0.0882
442.9216	0.098
443.1246	0.0924
443.3276	0.0939
443.5307	0.0928
443.7337	0.0873
443.9366	0.0807
444.1396	0.0859
444.3426	0.0808
444.5455	0.0876
444.7484	0.0842
444.9513	0.082
445.1542	0.0727
445.3571	0.0803
445.56	0.0699
445.7628	0.0643
445.9657	0.0758
446.1685	0.0766
446.3713	0.0742
446.5741	0.0729
446.7769	0.0697
446.9797	0.0688
447.1824	0.0616
447.3852	0.0532
447.5879	0.063
447.7906	0.0564
447.9933	0.0685
448.196	0.054
448.3986	0.062
448.6013	0.0546
448.8039	0.0583
449.0066	0.0607
449.2092	0.0647
449.4118	0.06
449.6143	0.0588
449.8169	0.0537
450.0195	0.0486
450.222	0.0517
450.4245	0.056
450.627	0.0531
450.8295	0.0499
451.032	0.0457
451.2345	0.0464
451.4369	0.0479
451.6394	0.038
451.8418	0.0497
452.0442	0.0443
452.2466	0.0356
452.449	0.0463
452.6513	0.0395
452.8537	0.0378
453.056	0.0422
453.2583	0.03
453.4607	0.0298
453.663	0.041
453.8652	0.032
454.0675	0.0455
454.2697	0.0438
454.472	0.0358
454.6742	0.0473
454.8764	0.0357
455.0786	0.037
455.2808	0.0296
455.4829	0.0378
455.6851	0.0292
455.8872	0.0257
456.0893	0.0291
456.2915	0.0266
456.4935	0.0328
456.6956	0.0299
456.8977	0.0258
457.0997	0.0359
457.3018	0.0287
457.5038	0.0319
457.7058	0.0215
457.9078	0.0261
458.1098	0.0271
458.3117	0.0333
458.5137	0.013
458.7156	0.0257
458.9175	0.0304
459.1194	0.0245
459.3213	0.0291
459.5232	0.031
459.725	0.0255
459.9269	0.0187
460.1287	0.0267
460.3305	0.0268
460.5323	0.0142
460.7341	0.0305
460.9359	0.0084
461.1376	0.0256
461.3394	0.0219
461.5411	0.024
461.7428	0.0232
461.9445	0.017
462.1462	0.0163
462.3479	0.0218
462.5495	0.0222
462.7512	0.0274
462.9528	0.0173
463.1544	0.023
463.356	0.0149
463.5576	0.0203
463.7592	0.0148
463.9607	0.0196
464.1623	0.0214
464.3638	0.0144
464.5653	0.0137
464.7668	0.0135
464.9683	0.0214
465.1697	0.0103
465.3712	0.0138
465.5726	0.0149
465.7741	0.0128
465.9755	0.0186
466.1769	0.0127
466.3782	0.0098
466.5796	0.0172
466.7809	0.0151
466.9823	0.0139
467.1836	0.0128
467.3849	0.0075
467.5862	0.0113
467.7875	0.0076
467.9887	0.0099
468.19	0.0164
468.3912	0.0191
468.5924	0.0143
468.7936	0.0087
468.9948	0.0114
469.196	0.0115
469.3972	0.0153
469.5983	0.0148
469.7994	0.016
470.0006	0.0114
470.2017	0.0109
470.4027	0.0244
470.6038	0.0125
470.8049	0.0155
471.0059	0.0218
471.2069	0.024
471.408	0.0187
471.6089	0.0151
471.8099	0.0145
472.0109	0.0082
472.2119	0.0243
472.4128	0.0071
472.6137	0.0101
472.8146	0.0159
473.0155	0.02
473.2164	0.0141
473.4173	0.0068
473.6181	0.004
473.819	0.0112
474.0198	0.0093
474.2206	0.0089
474.4214	0.0163
474.6222	0.0038
474.8229	0.0091
475.0237	0.0232
475.2244	0.0169
475.4251	0.0062
475.6258	0.0115
475.8265	0.026
476.0272	0.0044
476.2278	0.0111
476.4285	0.0118
476.6291	0.0154
476.8297	0.0136
477.0303	-0.0006
477.2309	0.0068
477.4315	0.0148
477.632	0.003
477.8326	0.0133
478.0331	0.0246
478.2336	0.0079
478.4341	0.0185
478.6346	0.0073
478.8351	0.0113
479.0355	0.0148
479.236	0.0265
479.4364	0.004
479.6368	0.0113
479.8372	0.014
480.0376	0.0195
480.2379	0.0128
480.4383	0.0138
480.6386	0.0022
480.8389	0.0066
481.0392	0.0064
481.2395	0.0145
481.4398	0.0104
481.6401	0.0088
481.8403	0.0068
482.0405	0.0138
482.2408	0.0138
482.441	0.0087
482.6411	0.0097
482.8413	0.0105
483.0415	0.0156
483.2416	0.0128
483.4417	0.0047
483.6419	0.0059
483.8419	0.0124
484.042	0.0083
484.2421	0.0013
484.4422	0.0105
484.6422	0.006
484.8422	0.0126
485.0422	0.0114
485.2422	0.0091
485.4422	0.0074
485.6422	0.0069
485.8421	0.0075
486.042	0.0188
486.242	0.003
486.4419	0.0111
486.6417	0.0062
486.8416	0.0103
487.0415	0.0034
487.2413	0.0019
487.4411	0.0073
487.641	0.0088
487.8408	0.018
488.0405	0.0183
488.2403	0.0059
488.4401	0.0023
488.6398	0.016
488.8395	0.0053
489.0392	0.0078
489.2389	0.0193
489.4386	0.0003
489.6383	0.01
489.8379	0.007
490.0376	0.0062
490.2372	0.0128
490.4368	0.0087
490.6364	0.0048
490.836	0.0096
491.0355	0.0061
491.2351	0.0087
491.4346	0.0058
491.6341	-0.0013
491.8336	0.0168
492.0331	-0.0002
492.2326	0.008
492.432	0.008
492.6315	0.0116
492.8309	0.0145
493.0303	0.0071
493.2297	0.0097
493.4291	0.0058
493.6284	0.0197
493.8278	0.0163
494.0271	0.0078
494.2264	0.0087
494.4257	0.0123
494.625	0.0114
494.8243	0.0056
495.0236	0.0176
495.2228	0.0092
495.422	0.0077
495.6213	0.0122
495.8205	0.0159
496.0196	0.0137
496.2188	0.0112
496.418	0.0101
496.6171	0.0093
496.8162	0.0172
497.0153	0.0144
497.2144	0.0077
497.4135	0.0076
497.6126	0.0048
497.8116	0.0051
498.0107	0.0109
498.2097	0.0078
498.4087	0.0102
498.6077	0.0025
498.8067	0.0069
499.0056	0.0074
499.2046	0.0168
499.4035	0.0125
499.6024	0.0023
499.8013	0.0068
500.0002	0.009
500.199	0.0133
500.3979	0.0015
500.5967	0.0055
500.7956	0.0095
500.9944	0.0137
501.1932	0.0188
501.3919	0.0143
501.5907	0.0063
501.7895	0.0068
501.9882	0.0107
502.1869	0.0196
502.3856	0.0115
502.5843	0.0104
502.783	0.0103
502.9816	0.0095
503.1803	0.0065
503.3789	0.009
503.5775	0.0123
503.7761	0.008
503.9747	0.021
504.1732	0.0038
504.3718	0.0166
504.5703	0.0064
504.7689	-0.0016
504.9674	0.006
505.1658	0.0045
505.3643	0.0175
505.5628	0.0148
505.7612	0.0135
505.9597	-0.0005
506.1581	0.0188
506.3565	0.0123
506.5549	0.0075
506.7532	0.0084
506.9516	0.0107
507.1499	0.0098
507.3482	0.008
507.5465	0.0145
507.7448	0.0098
507.9431	0.0126
508.1414	0.0092
508.3396	0.0197
508.5379	0.0071
508.7361	0.0137
508.9343	0.0076
509.1325	0.0189
509.3306	0.0122
509.5288	-0.001
509.7269	0.016
509.9251	0.0103
510.1232	0.005
510.3213	0.0101
510.5193	0.0076
510.7174	0.0159
510.9154	0.0179
511.1135	0.0071
511.3115	0.0006
511.5095	0.0095
511.7075	0.0101
511.9055	0.0014
512.1034	-0.0006
512.3014	0.0155
512.4993	0.0154
512.6972	0.006
512.8951	0.0014
513.093	0.0139
513.2908	0.0177
513.4887	0.0045
513.6865	0.0164
513.8844	0.014
514.0822	0.01
514.2799	0.0077
514.4777	0.0056
514.6755	0.0124
514.8732	0.0065
515.0709	0.0091
515.2687	0.0143
515.4664	0.0183
515.664	0.011
515.8617	0.0192
516.0594	0.003
516.257	0.0167
516.4546	0.0222
516.6522	0.016
516.8498	0.0066
517.0474	0.0132
517.2449	0.0063
517.4425	0.0172
517.64	0.0113
517.8375	0.0092
518.035	0.0035
518.2325	0.0056
518.43	0.0039
518.6274	0.0097
518.8249	0.0057
519.0223	0.0189
519.2197	0.0184
519.4171	0.0031
519.6145	0.008
519.8118	-0.0041
520.0092	0.0031
520.2065	0.0141
520.4038	0.0072
520.6011	0.0161
520.7984	0.0083
520.9956	0.0127
521.1929	0.0118
521.3901	0.0073
521.5874	0.0126
521.7846	0.0101
521.9818	0.0102
522.1789	0.0092
522.3761	0.0201
522.5732	0.0118
522.7704	0.0079
522.9675	-0.0019
523.1646	0.0065
523.3617	0.0104
523.5587	0.0045
523.7558	0.0071
523.9528	0.0104
524.1498	0.0122
524.3468	0.0061
524.5438	0.0117
524.7408	0.0104
524.9378	0.0204
525.1347	0.0117
525.3316	0.012
525.5285	0.0087
525.7254	0.0252
525.9223	0.0159
526.1192	0.0102
526.316	0.0128
526.5129	0.0151
526.7097	0.0057
526.9065	0.0135
527.1033	0.0069
527.3	0.0127
527.4968	0.0212
527.6935	-0.0039
527.8903	0.0058
528.087	0.0055
528.2837	0.0175
528.4804	0.0089
528.677	0.0114
528.8737	0.0058
529.0703	0.0001
529.2669	0.012
529.4635	0.0072
529.6601	0.0017
529.8567	0.0046
530.0532	0.0114
530.2498	0.0089
530.4463	0.0014
530.6428	0.0095
530.8393	0.0257
531.0358	0.0028
531.2322	0.0059
531.4287	0.0042
531.6251	-0.0059
531.8215	0.0066
532.0179	0.0101
532.2143	0.0079
532.4107	0.0117
532.607	0.0056
532.8034	0.011
532.9997	0.004
533.196	0.0025
533.3923	0.0204
533.5886	0.0186
533.7848	0.0062
533.9811	0.0105
534.1773	0.0104
534.3735	0.0202
534.5697	0.0112
534.7659	0.0085
534.9621	0.0055
535.1582	0.0172
535.3544	0.0161
535.5505	0.0106
535.7466	0.0054
535.9427	0.011
536.1387	0.0011
536.3348	0.011
536.5308	0.005
536.7269	0.0055
536.9229	0.0062
537.1189	0.0124
537.3148	0.0071
537.5108	0.0095
537.7068	0.0171
537.9027	0.0052
538.0986	0.0142
538.2945	0.0062
538.4904	0.0023
538.6863	0.0042
538.8821	0.0194
539.078	0.0082
539.2738	0.0073
539.4696	-0.0029
539.6654	0.0129
539.8611	0.016
540.0569	0.0024
540.2526	0.0167
540.4484	0.0066
540.6441	0.0164
540.8398	0.0197
541.0355	0.0036
541.2311	0.0112
541.4268	0.0176
541.6224	0.0136
541.818	0.0154
542.0136	0.0144
542.2092	0.0147
542.4048	0.0017
542.6003	0.0099
542.7959	0.0153
542.9914	0.0081
543.1869	0.0154
543.3824	0.005
543.5779	0.0118
543.7734	0.0194
543.9688	0.0094
544.1642	-0.0039
544.3596	0.014
544.555	0.0056
544.7504	0.017
544.9458	0.0092
545.1411	0.0091
545.3365	0.0118
545.5318	0.011
545.7271	0.0163
545.9224	0.0122
546.1177	0.0096
546.3129	0.0084
546.5081	0.0077
546.7034	0.0157
546.8986	0.0142
547.0938	0.0127
547.289	0.0167
547.4841	0.0153
547.6793	0.008
547.8744	0.0069
548.0695	0.006
548.2646	0.019
548.4597	0.0053
548.6548	0.0185
548.8498	0.0109
549.0448	0.006
549.2399	0.0198
549.4349	0.0155
549.6298	0.0086
549.8248	-0.0025
550.0198	0.0089
550.2147	0.0127
550.4096	0.0043
550.6045	0.0059
550.7994	0.0191
550.9943	0.0111
551.1892	-0.0127
551.384	0.0121
551.5788	0.0145
551.7737	0.0159
551.9685	0.0093
552.1632	0.0051
552.358	0.0048
552.5528	0.019
552.7475	0.0003
552.9422	0.0192
553.1369	0.0169
553.3316	0.0068
553.5263	0.0183
553.7209	0.0098
553.9156	0.0201
554.1102	0.0053
554.3048	0.0054
554.4994	0.0026
554.694	0.02
554.8885	0.0088
555.0831	0.0128
555.2776	0.0204
555.4721	0.0032
555.6666	0.0055
555.8611	0.0137
556.0555	0.0036
556.25	0.0185
556.4444	0.0053
556.6388	0.0063
556.8332	0.0123
557.0276	0.016
557.222	0.0116
557.4163	0.0112
557.6107	-0.0007
557.805	0.0023
557.9993	0.0158
558.1936	0.0087
558.3879	0.0106
558.5821	0.0052
558.7764	-0.0012
558.9706	0.0041
559.1648	0.0093
559.359	0.002
559.5532	0.0038
559.7473	0.002
559.9415	0.0068
560.1356	0.0143
560.3297	0.0047
560.5238	0.0094
560.7179	0.011
560.9119	0.0083
561.106	-0.0001
561.3	0.0066
561.494	-0.0031
561.688	-0.0028
561.882	0.0099
562.076	0.0114
562.2699	0.0084
562.4639	0.0121
562.6578	0.0064
562.8517	0.0126
563.0456	0.012
563.2395	0.0141
563.4333	0.0077
563.6272	0.0082
563.821	0.0192
564.0148	0.0113
564.2086	0.013
564.4024	0.0162
564.5961	0.0192
564.7899	0.0191
564.9836	0.0039
565.1773	0.0206
565.371	0.0036
565.5647	0.0164
565.7584	0.022
565.952	0.0106
566.1456	0.0149
566.3393	0.0059
566.5329	0.0114
566.7264	0.01
566.92	0.0051
567.1136	0.0086
567.3071	0.0007
567.5006	0.0217
567.6941	0.0055
567.8876	0.0032
568.0811	0.0227
568.2745	-0.0006
568.468	0.0092
568.6614	0.0116
568.8548	0.017
569.0482	0.0096
569.2416	0.0068
569.4349	0.0042
569.6283	0.0076
569.8216	0.0081
570.0149	0.004
570.2082	0.0152
570.4015	0.0046
570.5947	0.0098
570.788	0.0074
570.9812	0.0041
571.1744	0.0097
571.3676	0.0078
571.5608	0.0051
571.754	0.014
571.9471	0.0132
572.1402	0.0064
572.3333	0.0087
572.5264	0.0094
572.7195	0.0058
572.9126	0.0096
573.1057	0.0076
573.2987	0.0062
573.4917	0.0097
573.6847	0.0058
573.8777	0.0084
574.0707	0.0115
574.2636	0.0075
574.4566	0.0083
574.6495	0.0056
574.8424	0.0104
575.0353	0.0112
575.2281	0.0136
575.421	0.0061
575.6138	0.0051
575.8067	0.0069
575.9995	0.0112
576.1923	0.01
576.385	0.0081
576.5778	0.0163
576.7706	0.0098
576.9633	0.0093
577.156	0.0012
577.3487	0.0044
577.5414	0.0058
577.734	0.0048
577.9267	0.0103
578.1193	0.0121
578.3119	0.0083
578.5045	0.0085
578.6971	0.0033
578.8897	0.0062
579.0822	0.0101
579.2747	0.005
579.4673	0.0102
579.6598	0.0101
579.8522	0.0072
580.0447	0.0113
580.2372	0.0113
580.4296	0.0135
580.622	0.0036
580.8144	0.0091
581.0068	0.0075
581.1992	0.0082
581.3915	0
581.5839	0.0099
581.7762	0.0062
581.9685	0.0078
582.1608	0.0068
582.353	0.0067
582.5453	0.007
582.7375	0.0139
582.9298	0.005
583.122	0.0034
583.3142	0.0122
583.5063	0.0069
583.6985	0.0012
583.8906	0.0097
584.0827	0.0061
584.2749	0.0083
584.4669	0.0068
584.659	0.0096
584.8511	0.0112
585.0431	0.0099
585.2352	0.0088
585.4272	0.0069
585.6192	0.0076
585.8111	0.0047
586.0031	0.0048
586.195	0.0076
586.387	0.0062
586.5789	0.0068
586.7708	0.0118
586.9627	0.0072
587.1545	0.0041
587.3464	0.0078
587.5382	0.007
587.73	0.016
587.9218	0.0053
588.1136	0.0048
588.3053	0.0066
588.4971	0.0037
588.6888	0.0046
588.8805	0.0021
589.0722	0.0168
589.2639	0.0128
589.4556	0.0109
589.6472	0.0148
589.8389	0.0102
590.0305	0.0045
590.2221	0.0015
590.4137	0.0079
590.6052	0.0068
590.7968	0.0085
590.9883	0.0038
591.1798	0.0095
591.3713	0.0044
591.5628	0.0049
591.7543	0.0097
591.9458	0.0072
592.1372	0.0088
592.3286	0.0038
592.52	0.0093
592.7114	0.0083
592.9028	0.0118
593.0941	0.0086
593.2855	0.0087
593.4768	0.0119
593.6681	0.0103
593.8594	0.013
594.0506	0.0044
594.2419	0.0105
594.4331	0.0141
594.6244	0.004
594.8156	0.0093
595.0067	0.0054
595.1979	0.004
595.3891	0.0044
595.5802	0.0109
595.7713	0.0097
595.9624	0.014
596.1535	0.0071
596.3446	0.0098
596.5357	0.0111
596.7267	0.0146
596.9177	0.0055
597.1087	0.0057
597.2997	0.0095
597.4907	0.0056
597.6817	0.0111
597.8726	0.0084
598.0635	0.0113
598.2544	0.0144
598.4453	0.004
598.6362	0.0052
598.827	0.0087
599.0179	0.0096
599.2087	0.0116
599.3995	0.011
599.5903	0.01
599.7811	0.0133
599.9718	0.0028
600.1626	0.0107
600.3533	0.0098
600.544	0.0073
600.7347	0.0125
600.9254	0.0129
601.116	0.008
601.3067	0.009
601.4973	0.0061
601.6879	0.0155
601.8785	0.012
602.0691	0.0044
602.2596	0.0094
602.4502	0.0119
602.6407	0.0127
602.8312	0.0104
603.0217	0.0112
603.2122	0.0072
603.4027	0.0082
603.5931	0.0094
603.7835	0.0101
603.9739	0.0078
604.1643	0.0151
604.3547	0.0129
604.5451	0.0168
604.7354	0.0066
604.9257	0.0047
605.116	0.0031
605.3063	0.0105
605.4966	0.0087
605.6869	0.0123
605.8771	0.0073
606.0673	0.0063
606.2575	0.0107
606.4477	0.0129
606.6379	0.0023
606.8281	0.0063
607.0182	0.0001
607.2083	0.0026
607.3985	0.0038
607.5885	0.0156
607.7786	0.0075
607.9687	0.0127
608.1587	0.0187
608.3488	0.0081
608.5388	0.0035
608.7288	0.0043
608.9187	0.0055
609.1087	0.0047
609.2986	0.0069
609.4886	0.0058
609.6785	0.0093
609.8684	0.0051
610.0582	0.0012
610.2481	0.0017
610.4379	0.0032
610.6278	0.0086
610.8176	0.0144
611.0074	0.008
611.1971	0.0053
611.3869	0.0082
611.5766	0.0039
611.7664	0.013
611.9561	0.008
612.1458	0.0096
612.3354	0.001
612.5251	0.0105
612.7147	0.0036
612.9044	0.0057
613.094	0.0116
613.2836	0.0105
613.4731	0.0096
613.6627	0.0115
613.8522	0.0101
614.0417	0.0143
614.2313	0.0065
614.4207	0.0119
614.6102	0.0112
614.7997	0.0183
614.9891	0.0065
615.1785	0.0058
615.3679	0.0142
615.5573	0.0065
615.7467	0.0041
615.9361	0.0031
616.1254	0.0048
616.3147	0.0072
616.504	0.0114
616.6933	0.0145
616.8826	0.0078
617.0718	0.0153
617.2611	0.0045
617.4503	0.008
617.6395	0.0085
617.8287	0.0155
618.0179	0.0085
618.207	0.0122
618.3961	0.005
618.5853	0.0142
618.7744	0.0126
618.9634	0.0138
619.1525	0.0112
619.3416	-0.0023
619.5306	0.0135
619.7196	0.0142
619.9086	0.013
620.0976	0.0034
620.2866	0.0131
620.4755	0.0069
620.6645	0.0157
620.8534	0.0103
621.0423	0.0061
621.2312	0.0019
621.42	0.0067
621.6089	0.0061
621.7977	0.0152
621.9865	0.0022
622.1753	0.0068
622.3641	0.0077
622.5529	0.0014
622.7416	0.0081
622.9303	0.0033
623.1191	0.0191
623.3078	0.0063
623.4964	0.0048
623.6851	0.0056
623.8737	0.0106
624.0624	-0.0148
624.251	0.0025
624.4396	0.0038
624.6282	0.0198
624.8167	0.0135
625.0053	0.0122
625.1938	0.0109
625.3823	0.0027
625.5708	-0.0001
625.7593	0.0056
625.9477	0.0125
626.1362	0.0059
626.3246	0.0123
626.513	0.0116
626.7014	0.0113
626.8898	0.0156
627.0781	0.0087
627.2665	0.0101
627.4548	-0.0019
627.6431	0.0095
627.8314	0.022
628.0197	0.0151
628.2079	0
628.3962	0.0108
628.5844	0.0046
628.7726	0.0115
628.9608	0.0095
629.1489	0.0094
629.3371	-0.0034
629.5252	0.0052
629.7134	-0.0025
629.9015	0.008
630.0895	0
630.2776	0.012
630.4657	0.0109
630.6537	0.0085
630.8417	0.0019
631.0297	0.005
631.2177	-0.0002
631.4057	0.0074
631.5936	0.0046
631.7815	0.0204
631.9695	0.0198
632.1574	0.0098
632.3452	0.0175
632.5331	0.0108
632.7209	0.0176
632.9088	-0.0016
633.0966	0.0378
633.2844	0.0225
633.4722	0.0207
633.6599	0.0321
633.8477	0.0168
634.0354	0.0203
634.2231	0.0064
634.4108	0.0004
634.5985	0.0101
634.7861	-0.0049
634.9738	0.0056
635.1614	0.0083
635.349	0.0154
635.5366	0.0191
635.7242	0.007
635.9117	0.007
636.0993	0.013
636.2868	-0.0017
636.4743	0.0141
636.6618	-0.0007
636.8492	0.0077
637.0367	-0.0014
637.2241	0.0164
637.4115	0.0376
637.5989	0.0085
637.7863	0.0318
637.9737	0.0006
638.161	0.0121
638.3484	-0.0028
638.5357	0.0005
638.723	0.0264
638.9103	-0.0017
639.0975	0.0045
639.2848	0.0186
639.472	0.0172
639.6592	-0.0044
639.8464	0.0075
640.0336	0.0211
640.2208	0.0113
640.4079	-0.0121
640.595	-0.0119
640.7821	0.0233
640.9692	0.0059
641.1563	0.0196
641.3434	0.028
641.5304	0.0126
641.7174	-0.0032
641.9044	0.011
642.0914	0.021
642.2784	0.0148
642.4653	-0.0083
642.6523	0.0116
642.8392	-0.0046
643.0261	0.002
643.213	0.0018
643.3999	0.0268
643.5867	0.018
643.7735	-0.0014
643.9604	-0.0114
644.1472	0.006
644.3339	0.0189
644.5207	0.0052
644.7075	0.0099
644.8942	0.005
645.0809	0.0113
645.2676	-0.011
645.4543	0.0022
645.6409	0.0205
645.8276	0.0166
646.0142	0.0174
646.2008	0.0086
646.3874	-0.0052
646.574	0.0131
646.7605	0.0132
646.9471	-0.0109
647.1336	-0.0067
647.3201	0.0316
647.5066	0.0153
647.6931	0.006
647.8795	0.0125
648.0659	0.0011
648.2524	0.0038
648.4388	0.0107
648.6252	0.0165
648.8115	0.0012
648.9979	0.0084
649.1842	0.0114
649.3705	0.0125
649.5568	-0.0048
649.7431	-0.0059
649.9294	-0.0024
650.1156	0.0094
650.3018	-0.0004
650.488	0.0111
650.6742	0.0211
650.8604	0.0216
651.0466	-0.007
651.2327	-0.0067
651.4188	0.0142
651.6049	0.0201
651.791	0.0106
651.9771	-0.0028
652.1632	0.0191
652.3492	-0.0009
652.5352	0.0203
652.7212	0.0154
652.9072	0.0035
653.0932	0.0121
653.2791	0.0049
653.465	0.0206
653.651	0.0069
653.8369	0.0137
654.0227	0.017
654.2086	0.021
654.3944	0.0025
654.5803	0.0048
654.7661	0.0027
654.9519	0.0035
655.1377	0
655.3234	0
655.5092	0
655.6949	0
655.8806	0
656.0663	0
656.2519	0
656.4376	0
656.6232	0
656.8088	0
656.9945	0
657.18	0
657.3656	0
657.5511	0
657.7367	0
657.9222	0
658.1077	0
658.2932	0
658.4786	0
658.6641	0
658.8495	0
659.0349	0
659.2203	0
659.4057	0.0095
659.591	0.3125
659.7764	0.0366
659.9617	0.0194
660.147	0.0032
660.3323	0.0178
660.5176	0.0196
660.7028	-0.0128
660.888	0.009
661.0733	0.0432
661.2585	-0.0007
661.4436	0.0215
661.6288	0.0244
661.8139	-0.0012
661.9991	-0.0301
662.1842	0.0148
662.3693	0.0172
662.5544	0.0143
662.7394	0.0336
662.9245	0.0092
663.1095	-0.0177
663.2945	-0.0002
663.4795	0.0053
663.6644	0.0025
663.8494	0.0132
664.0343	0.0042
664.2193	0.0046
664.4042	0.0055
664.589	0.0153
664.7739	0.0087
664.9587	-0.0039
665.1436	-0.0067
665.3284	0.0151
665.5132	-0.0162
665.698	0.017
665.8827	0.0012
666.0675	-0.0037
666.2522	0.0152
666.4369	0.0147
666.6216	0.0069
666.8063	0.009
666.9909	0.0201
667.1756	-0.0187
667.3602	-0.0012
667.5448	-0.0019
667.7294	0.0081
667.9139	-0.0078
668.0985	-0.0056
668.283	-0.0113
668.4675	0.0118
668.652	-0.0073
668.8365	-0.0045
669.0209	0.0023
669.2054	0.0153
669.3898	-0.0056
669.5742	0.0148
669.7586	0.027
669.943	0.0254
670.1273	-0.0102
670.3117	0.0204
670.496	0.0105
670.6803	0.0072
670.8646	-0.0188
671.0488	0.0186
671.2331	-0.0124
671.4173	0.0042
671.6015	0.0042
671.7857	0.0154
671.9699	0.0134
672.1541	0.0029
672.3382	0.0173
672.5223	0.0093
672.7064	0.0116
672.8905	0.0041
673.0746	0.015
673.2587	0.0137
673.4427	0.0334
673.6267	0.0082
673.8107	-0.0049
673.9947	0.0131
674.1787	0.0037
674.3626	0.0013
674.5465	0.0205
674.7304	0.0136
674.9143	-0.006
675.0982	0.0094
675.2821	0.0076
675.4659	0.0026
675.6497	0.0186
675.8335	0.001
676.0173	-0.0141
676.2011	0.0162
676.3849	0.0116
676.5686	0.0089
676.7523	0.0064
676.936	0.0154
677.1197	0.0106
677.3034	0.026
677.487	0.0076
677.6706	0.0099
677.8542	0.0069
678.0378	0.0065
678.2214	0.0137
678.405	-0.0022
678.5885	0.0041
678.772	0.0112
678.9555	-0.0018
679.139	0.027
679.3225	-0.0179
679.5059	-0.0081
679.6894	0.0109
679.8728	0.0019
680.0562	0.0063
680.2395	0.0093
680.4229	-0.0124
680.6062	0.0061
680.7896	0.004
680.9729	0.0076
681.1562	0.0003
681.3394	0.0192
681.5227	0.0093
681.7059	0.0066
681.8891	0.0114
682.0723	0.0216
682.2555	0.0019
682.4387	0.0225
682.6218	0.0172
682.805	0.0137
682.9881	0.0212
683.1712	-0.0118
683.3542	0.0164
683.5373	0.0057
683.7203	0.0083
683.9034	-0.0022
684.0864	-0.0106
684.2694	0.0058
684.4523	0.0215
684.6353	-0.006
684.8182	0.0082
685.0011	0.0076
685.184	0.0147
685.3669	0.0281
685.5498	-0.0028
685.7326	0.0179
685.9154	-0.0084
686.0982	0.0258
686.281	-0.0043
686.4638	0.0318
686.6465	-0.0069
686.8293	0.007
687.012	0.016
687.1947	0.006
687.3774	0.005
687.56	-0.0002
687.7427	-0.0098
687.9253	-0.0271
688.1079	0.006
688.2905	0.0123
688.4731	0.026
688.6556	0.002
688.8382	-0.019
689.0207	0.0041
689.2032	0.011
689.3857	-0.0191
689.5681	-0.0071
689.7506	0.0203
689.933	-0.0079
690.1154	0.0204
690.2978	0.0145
690.4802	0.0213
690.6626	0.0271
690.8449	0.0074
691.0272	-0.0018
691.2095	-0.0192
691.3918	0.0062
691.5741	0.01
691.7563	0.0116
691.9386	0.0469
692.1208	0.0052
692.303	0.0077
692.4852	0.0068
692.6673	0.005
692.8495	0.013
693.0316	0.0088
693.2137	0.0095
693.3958	0.0136
693.5778	-0.0029
693.7599	0.0067
693.9419	-0.0189
694.1239	-0.0067
694.3059	0.0351
694.4879	0.0099
694.6699	0.0168
694.8518	0.0198
695.0337	0.0127
695.2157	0.0228
695.3975	-0.0009
695.5794	-0.0025
695.7613	0.0146
695.9431	0.0029
696.1249	0.0023
696.3067	0.015
696.4885	0.0229
696.6703	0.0017
696.852	0.0004
697.0337	0.0391
697.2154	0.015
697.3971	0.0066
697.5788	0.0169
697.7605	-0.0035
697.9421	0.0145
698.1237	0.0313
698.3053	-0.0168
698.4869	0.0183
698.6685	0.0215
698.85	0.0219
699.0315	0.0073
699.213	0.015
699.3945	0.0018
699.576	0.0256
699.7575	0.0082
699.9389	-0.0107
700.1203	0.0041
700.3017	0.0193
700.4831	0.0217
700.6645	0.0058
700.8458	0.0254
701.0271	0.0265
701.2084	0.0342
701.3897	0.0215
701.571	0.0009
701.7523	0.0282
701.9335	-0.0012
702.1147	0.0181
702.2959	-0.0084
702.4771	-0.0002
702.6583	-0.0037
702.8394	-0.0184
703.0205	0.0114
703.2016	0.0023
703.3827	0.0094
703.5638	0.0202
703.7449	0.0132
703.9259	0.0085
704.1069	-0.0052
704.2879	0.0185
704.4689	0.0054
704.6499	0.0154
704.8308	0.0085
705.0117	-0.0034
705.1927	0.0642
705.3735	0.0372
705.5544	-0.0012
705.7353	-0.0094
705.9161	-0.0371
706.0969	0.0041
706.2777	-0.0039
706.4585	0.0095
706.6393	0.006
706.82	0.0128
707.0007	0.006
707.1815	0.0031
707.3621	0.0307
707.5428	0.0199
707.7235	0.0131
707.9041	0.0155
708.0847	0.0045
708.2653	0.0348
708.4459	0.013
708.6265	-0.0118
708.807	0.0127
708.9875	0.0108
709.168	0.0094
709.3485	0.0298
709.529	0.0051
709.7095	-0.0201
709.8899	0.0277
710.0703	0.0143
710.2507	-0.0036
710.4311	0.0064
710.6115	0.0107
710.7918	0.0057
710.9721	-0.0143
711.1524	-0.0374
711.3327	-0.0015
711.513	0.0234
711.6932	0.013
711.8735	0.0085
712.0537	-0.0163
712.2339	0.0132
712.4141	0.0247
712.5942	0.0041
712.7744	0.0287
712.9545	0.0237
713.1346	0.0181
713.3147	0.008
713.4947	-0.0138
713.6748	0.0157
713.8548	0.0081
714.0348	0.009
714.2148	0.0325
714.3948	0.0161
714.5748	0.0267
714.7547	0.021
714.9346	0.0404
715.1145	0.0001
715.2944	-0.0331
715.4743	0.0352
715.6541	0.0105
715.834	0.0228
716.0138	0.0256
716.1936	0.0186
716.3733	-0.0073
716.5531	-0.0239
716.7328	0.0279
716.9126	0.0249
717.0923	-0.0142
717.2719	-0.0071
717.4516	0.0174
717.6312	-0.029
717.8109	0.0183
717.9905	0.0201
718.1701	0.0173
718.3496	0.0149
718.5292	-0.0029
718.7087	0.0035
718.8882	0.0083
719.0677	0.0131
719.2472	0.0074
719.4267	-0.0058
719.6061	-0.0265
719.7856	0.0245
719.965	-0.0086
720.1443	-0.0205
720.3237	0.0145
720.5031	0.0117
720.6824	-0.0037
720.8617	0.0012
721.041	0.0221
721.2203	0.0033
721.3995	0.0005
721.5788	0.0125
721.758	0.0026
721.9372	0.0161
722.1164	0.0027
722.2956	-0.0242
722.4747	0.0309
722.6538	0.0186
722.8329	0.0401
723.012	0.0152
723.1911	0.0031
723.3702	0.0297
723.5492	0.0372
723.7282	0.0036
723.9072	0.0215
724.0862	-0.0043
724.2652	0.0212
724.4441	0.0071
724.623	0.0154
724.8019	0.0239
724.9808	-0.0084
725.1597	0.0021
725.3385	0.0302
725.5174	-0.0033
725.6962	0.0203
725.875	0.0001
726.0538	0.032
726.2325	0.0098
726.4112	-0.0106
726.59	-0.0154
726.7687	-0.0073
726.9474	-0.0035
727.126	0.0132
727.3047	-0.0096
727.4833	0.0329
727.6619	0.0048
727.8405	0.0208
728.0191	0.0246
728.1976	0.0293
728.3762	-0.0189
728.5547	-0.0035
728.7332	0.0095
728.9116	-0.008
729.0901	0.0083
729.2686	0.0061
729.447	0.012
729.6254	0.0273
729.8038	0.0307
729.9821	-0.0114
730.1605	0.0115
730.3388	-0.0038
730.5171	0.0239
730.6954	0.0068
730.8737	0.0078
731.0519	0.0013
731.2302	0.027
731.4084	0.0065
731.5866	0.0056
731.7648	-0.0005
731.9429	0.0291
732.1211	0.0016
732.2992	0.0033
732.4773	0.0154
732.6554	-0.0244
732.8335	0.0323
733.0115	0.0151
733.1896	0.0017
733.3676	0.021
733.5456	-0.0031
733.7235	-0.0055
733.9015	0.0101
734.0794	-0.0052
734.2574	-0.0125
734.4353	0.0023
734.6131	0.0068
734.791	-0.0096
734.9689	-0.0025
735.1467	0.0068
735.3245	0.003
735.5023	0.0177
735.68	0.0025
735.8578	0.0204
736.0355	0.0092
736.2132	0.0192
736.3909	0.0092
736.5686	-0.001
736.7463	-0.0041
736.9239	0.0042
737.1015	-0.0014
737.2791	0.0266
737.4567	-0.0045
737.6343	0.0113
737.8118	0.0104
737.9894	-0.0051
738.1669	-0.0026
738.3444	0.0419
738.5218	-0.0089
738.6993	0.0104
738.8767	0.0066
739.0541	0.0194
739.2315	0.0022
739.4089	0.0151
739.5863	0.0205
739.7636	-0.0037
739.9409	-0.0006
740.1182	0.0024
740.2955	0.0048
740.4728	0.008
740.65	-0.0073
740.8272	0.0238
741.0044	-0.024
741.1816	0.016
741.3588	0.005
741.5359	-0.0156
741.7131	0.0072
741.8902	-0.0149
742.0673	-0.006
742.2444	0.0342
742.4214	0.0085
742.5985	0.0009
742.7755	0.0255
742.9525	-0.0099
743.1295	-0.03
743.3064	-0.0062
743.4834	0.0294
743.6603	0.0413
743.8372	-0.0447
744.0141	0.0097
744.191	0.0149
744.3678	-0.0337
744.5446	0.0271
744.7215	0.0113
744.8982	0.0136
745.075	0.0474
745.2518	0.0167
745.4285	0.027
745.6052	-0.0311
745.7819	0.0067
745.9586	0.0228
746.1353	0.0063
746.3119	-0.0022
746.4885	0.0257
746.6651	-0.0105
746.8417	0.0065
747.0183	0.0441
747.1948	0.0001
747.3714	0.0011
747.5479	0.0453
747.7244	-0.0262
747.9008	-0.0163
748.0773	0.0448
748.2537	0.0424
748.4301	0.035
748.6065	0.0037
748.7829	-0.0126
748.9593	-0.0164
749.1356	0.0095
749.3119	-0.0006
749.4882	0.0343
749.6645	0.008
749.8408	0.0061
750.017	0.0106
750.1933	-0.0259
750.3695	0.0235
750.5457	0.0045
750.7218	0.0078
750.898	-0.0212
751.0741	0.012
751.2502	0.0245
751.4263	-0.0009
751.6024	0.0001
751.7784	0.01
751.9545	0.0185
752.1305	-0.0018
752.3065	0.0083
752.4825	-0.0125
752.6584	0.0136
752.8344	0.0208
753.0103	-0.0275
753.1862	0.0238
753.3621	0.0027
753.5379	0.0024
753.7138	0.0048
753.8896	0.0079
754.0654	0.0123
754.2412	0.005
754.417	0.0079
754.5927	0.0214
754.7685	0.0042
754.9442	0.0316
755.1199	0.0062
755.2956	0.0188
755.4712	0.0249
755.6469	0.0067
755.8225	0.0265
755.9981	0.0081
756.1736	0.0128
756.3492	-0.005
756.5248	0.024
756.7003	-0.0167
756.8758	0.0093
757.0513	-0.0014
757.2267	0.0108
757.4022	-0.0027
757.5776	0.0027
757.753	0.0437
757.9284	0.0083
758.1038	0.0083
758.2791	0.0225
758.4545	-0.0017
758.6298	0.015
758.8051	0.013
758.9803	0.0146
759.1556	0.0053
759.3308	0.0067
759.506	0.0009
759.6812	0.0074
759.8564	-0.0066
760.0316	-0.0032
760.2067	0.0252
760.3819	0.0135
760.557	0.0079
760.732	-0.0066
760.9071	0.0372
761.0821	0.011
761.2572	0.0037
761.4322	-0.0023
761.6072	0.0121
761.7821	-0.0225
761.9571	0.0157
762.132	-0.0063
762.3069	0.0175
762.4818	0.016
762.6567	-0.015
762.8316	0.0092
763.0064	-0.0065
763.1812	0.0136
763.356	-0.0083
763.5308	0.0354
763.7055	0.0035
763.8803	0.0046
764.055	-0.0077
764.2297	0.0015
764.4044	-0.0162
764.579	0.0017
764.7537	0.01
764.9283	0.0248
765.1029	0.0106
765.2775	0.0106
765.4521	-0.0011
765.6266	-0.0107
765.8011	0.0248
765.9756	0.0096
766.1501	0.0086
766.3246	0.0111
766.4991	0.0113
766.6735	0.009
766.8479	-0.0036
767.0223	0.0225
767.1967	0.0128
767.371	0.0027
767.5454	-0.0141
767.7197	0.04
767.894	0.0074
768.0683	0.0333
768.2425	0.0154
768.4168	0.0178
768.591	0.0071
768.7652	0.0112
768.9394	-0.0064
769.1135	0.001
769.2877	0.0268
769.4618	0.0401
769.6359	-0.0094
769.81	0.0369
769.984	-0.0003
770.1581	0.0065
770.3321	0.043
770.5061	0.008
770.6801	0.0258
770.8541	-0.0064
771.028	0.0508
771.202	0.0405
771.3759	0.0187
771.5498	0.0269
771.7236	0.0006
771.8975	0.0264
772.0713	0.0241
772.2451	-0.0143
772.4189	0.0329
772.5927	-0.0364
772.7665	0.0062
772.9402	0.0161
773.1139	0.0176
773.2876	-0.0097
773.4613	-0.006
773.635	0.0659
773.8086	0.0251
773.9822	0.0198
774.1558	0.052
774.3294	-0.0269
774.503	0.05
774.6765	0.0239
774.8501	-0.025
775.0236	0.0051
775.1971	0.0335
775.3705	0.0342
775.544	-0.0459
775.7174	-0.0135
775.8908	-0.0024
776.0642	0.0127
776.2376	0.0044
776.4109	-0.0091
776.5843	0.0091
776.7576	-0.0057
776.9309	-0.0023
777.1041	-0.042
777.2774	0.0077
777.4506	0.0168
777.6238	-0.0024
777.797	0.0454
777.9702	-0.0121
778.1434	0.0499
778.3165	-0.0215
778.4896	-0.0375
778.6627	0.0278
778.8358	-0.0062
779.0089	-0.03
779.1819	0.0199
779.3549	0.0119
779.5279	0.0114
779.7009	0.0621
779.8739	0.0666
780.0468	0.0059
780.2197	-0.0257
780.3926	-0.0197
780.5655	0.0059
780.7384	-0.0335
780.9112	0.0173
781.0841	0.0085
781.2569	0.0101
781.4297	0.0376
781.6024	0.0235
781.7752	0.0532
781.9479	0.0769
782.1206	0.0125
782.2933	0.0151
782.466	0.0192
782.6386	-0.0004
782.8113	-0.0164
782.9839	-0.0177
783.1565	0.0062
783.329	-0.013
783.5016	0.017
783.6741	0.0051
783.8466	0.026
784.0191	0.019
784.1916	-0.0191
784.3641	-0.0501
784.5365	0.0318
784.7089	-0.0218
784.8813	0.0596
785.0537	0.0603
785.2261	0.0054
785.3984	0.0085
785.5707	-0.0172
785.743	0.0405
785.9153	0.0084
786.0876	-0.0028
786.2598	-0.0087
786.432	0.0002
786.6042	0.0414
786.7764	-0.0481
786.9486	0.0142
787.1207	0.054
787.2928	0.0601
787.4649	-0.0182
787.637	0.0244
787.8091	0.0267
787.9811	0.004
788.1532	0.0243
788.3252	0.0186
788.4972	0.009
788.6691	-0.0148
788.8411	0.0062
789.013	0.0103
789.1849	-0.0165
789.3568	0.0081
789.5287	0.0545
789.7005	-0.0082
789.8723	-0.0323
790.0442	-0.0678
790.2159	-0.013
790.3877	0.0747
790.5595	-0.012
790.7312	0.0292
790.9029	-0.051
791.0746	0.0357
791.2463	-0.0533
791.4179	-0.0264
791.5896	0.0437
791.7612	-0.0057
791.9328	0.0091
792.1044	-0.0121
792.2759	-0.0273
792.4474	0.0038
792.619	0.0014
792.7905	0.0801
792.9619	0.0796
793.1334	0.0686
793.3048	0.1176
793.4762	-0.0073
793.6476	0.0147
793.819	-0.0071
793.9904	-0.0211
794.1617	-0.0234
794.333	0.0277
794.5043	0.028
794.6756	-0.0168
794.8469	-0.0201
795.0181	-0.0153
795.1893	0.0225
795.3605	0.0438
795.5317	-0.01
795.7029	0.0096
795.874	0.0145
796.0452	0.0396
796.2163	0.0248
796.3873	0.1039
796.5584	0.0643
796.7294	-0.0594
796.9005	0.0516
797.0715	0.0972
797.2425	0.0758
797.4134	0.037
797.5844	0.0502
797.7553	-0.0957
797.9262	0.1081
798.0971	0.0183
798.2679	0.0396
798.4388	0.0367
798.6096	0.0403
798.7804	0.0439
798.9512	0.0951
799.122	-0.055
799.2927	0.1063
799.4635	-0.0114
799.6342	-0.0529
799.8049	0.0789
799.9755	0.0255
800.1462	0.0156
800.3168	0.0417
800.4874	-0.0694
800.658	0.0023
800.8286	0.0035
800.9991	-0.0027
801.1696	0.0048
801.3402	-0.0133
801.5106	-0.02
801.6811	0.0167
801.8516	0.0251
802.022	0.0399
802.1924	-0.0468
802.3628	0.0226
802.5332	0.0233
802.7035	0.0472
802.8739	-0.0611
803.0442	-0.0285
803.2145	0.0222
803.3847	0.0478
803.555	0.0799
803.7252	-0.0669
803.8954	-0.0282
804.0656	-0.0115
804.2358	-0.0032
804.4059	0.1293
804.5761	-0.0217
804.7462	0.0022
804.9163	0.0833
805.0864	-0.015
805.2564	-0.0883
805.4264	-0.0029
805.5965	0.0295
805.7665	0.0767
805.9364	0.048
806.1064	-0.0067
806.2763	0.0555
806.4462	0.0115
806.6161	0.0358
806.786	-0.0203
806.9559	0.0357
807.1257	-0.0147
807.2955	0.0048
807.4653	-0.0138
807.6351	0.0114
807.8048	-0.0104
807.9746	-0.0034
808.1443	-0.0233
808.314	-0.0044
808.4837	0.1185
808.6533	-0.0847
808.8229	-0.0092
808.9926	0.0212
809.1622	0.0026
809.3317	-0.0738
809.5013	0.0041
809.6708	0.0122
809.8403	-0.0217
810.0098	-0.0049
810.1793	0.0242
810.3488	-0.0311
810.5182	0.1089
810.6876	0.0183
810.857	0.0423
811.0264	-0.088
811.1958	0.1059
811.3651	0.095
811.5344	0.0088
811.7037	-0.0373
811.873	0.0712
812.0422	-0.1121
812.2115	-0.0437
812.3807	-0.1909
812.5499	-0.1069
812.7191	-0.1087
812.8882	-0.0633
813.0574	-0.0097
813.2265	-0.002
813.3956	0.0154
813.5646	0.174
813.7337	0.032
813.9027	-0.0983
814.0718	0.0495
814.2407	0.0286
814.4097	0.1242
814.5787	0.1088
814.7476	0.0137
814.9165	0.0254
815.0854	0.0043
815.2543	-0.0018
815.4232	0.0594
815.592	-0.0215
815.7608	0.0346
815.9296	0.0638
816.0984	0.1558
816.2671	-0.1244
816.4359	0.0377
816.6046	0.1794
816.7733	-0.0833
816.942	-0.1139
817.1106	0.1627
817.2793	0.0214
817.4479	-0.0526
817.6165	-0.0506
817.785	-0.0257
817.9536	-0.0946
818.1221	-0.0077
818.2906	-0.0377
818.4591	0.0141
818.6276	0.0695
818.7961	0.081
818.9645	0.0435
819.1329	-0.0964
819.3013	0.1047
819.4697	0.2349
819.638	-0.0539
819.8064	-0.0546
819.9747	-0.0631
820.143	-0.0478
820.3113	0.0368
820.4795	0.0007
820.6477	0.0732
820.816	0.1406
820.9842	0.043
821.1523	0.0628
821.3205	0.0613
821.4886	-0.073
821.6567	-0.0136
821.8248	0.1971
821.9929	-0.0661
822.1609	0.09
822.329	0.0857
822.497	-0.0018
822.665	0.0633
822.833	-0.1054
823.0009	-0.013
823.1688	0.014
823.3367	0.1076
823.5046	-0.002
823.6725	0.0141
823.8404	-0.0357
824.0082	-0.0613
824.176	-0.2756
824.3438	0.2565
824.5116	0.0341
824.6793	0.0288
824.847	0.038
825.0147	0.199
825.1824	-0.0159
825.3501	0.3006
825.5177	0.0187
825.6854	-0.1393
825.853	-0.0327
826.0206	-0.0237
826.1881	-0.0238
826.3557	-0.0332
826.5232	0.1537
826.6907	-0.0156
826.8582	-0.0437
827.0257	0.1082
827.1931	0.0758
827.3605	-0.0918
827.528	0.0509
827.6953	-0.23
827.8627	0.0539
828.03	0.0712
828.1974	0.0394
828.3647	-0.0179
828.532	-0.0118
828.6992	0.0454
828.8665	-0.261
829.0337	-0.0454
829.2009	-0.1096
829.3681	0.0203
829.5352	-0.2031
829.7024	0.0281
829.8695	0.0938
830.0366	0.1548
830.2037	0.0143
830.3707	0.1295
830.5378	-0.1018
830.7048	-0.1634
830.8718	0.0663
831.0388	0.0346
831.2057	-0.0351
831.3727	0.1221
831.5396	-0.1318
831.7065	-0.9007
831.8734	0.3329
832.0402	0.1233
832.2071	-0.5525
832.3739	-0.2401
832.5407	-2.0934
832.7075	-0.3883
832.8742	-0
833.041	0.0479
833.2077	0.5377
833.3744	-0.0669
833.541	0.0828
833.7077	0.0341
833.8743	0.2206
834.0409	0.0364
834.2075	0.1287
834.3741	-0.0758
834.5407	-0.0804
834.7072	-0.0337
834.8737	0.106
835.0402	-0
835.2067	-0.1803
835.3731	-0.1777
835.5395	-0.0611
835.706	-0.3361
835.8723	-0.1759
836.0387	0.2822
836.2051	-0.1704
836.3714	-0.0906
836.5377	0.0619
836.704	0.6314
836.8703	-0.3128
837.0365	-1.025
837.2027	1.2142
837.3689	0.1665
837.5351	0.6715
837.7013	-0.3117
837.8674	-0.6275
838.0335	-0.0879
838.1997	0.1076
838.3657	-0
838.5318	0.2345
838.6978	-0
838.8639	-0.2791
839.0299	-0.0499
839.1958	0.1105
839.3618	0.2999
839.5277	0.0415
839.6937	-0.1161
839.8596	-0.3177
840.0254	-0.0891
840.1913	-0.3281
840.3571	-0.3165
840.523	-0
840.6888	-0.0106
840.8545	-0.0994
841.0203	0.0232
841.186	-0.1684
841.3517	-0.2526
841.5174	-0.0142
841.6831	0.1046
841.8488	-0.0459
842.0144	-0.0351
842.18	0.1448
842.3456	-0.7284
842.5112	-0
842.6767	-0.0586
842.8422	0.585
843.0077	-0.1428
843.1732	-0.3883
843.3387	0.2999
843.5042	-0
843.6696	0.1929
843.835	-0
844.0004	-0.2117
844.1657	-0
844.3311	-0.2747
844.4964	-0.1913
844.6617	0.3078
844.827	-0
844.9923	0.4426
845.1575	-0.4893
845.3227	-0.2606
845.4879	-0.2845
845.6531	-0.0733
845.8183	0.0827
845.9834	-0
846.1485	0.7658
846.3136	-0.0086
846.4787	-0
846.6438	-0.3087
846.8088	1.2713
846.9738	1.1383
847.1388	0.0979
847.3038	-0.0515
847.4687	0.4886
847.6337	-0.4427
847.7986	0.3291
847.9635	0.0363
848.1284	-0
848.2932	0.002
848.458	-0
848.6228	-0.2173
848.7876	-0
848.9524	-0.3899
849.1172	-1.8177
849.2819	-0.5519
849.4466	0.3875
849.6113	0.002
849.7759	0.4586
849.9406	-0.1114
850.1052	-0.6657
850.2698	-0
850.4344	-0.8631
850.599	0.0472
850.7635	0.2673
850.928	0.0858
851.0925	0.2141
851.257	0.164
851.4215	0.2222
851.5859	-0.0382
851.7503	-0
851.9147	-0
852.0791	0.0672
852.2434	0.2398
852.4078	0.519
852.5721	0.0406
852.7364	-0.1241
852.9007	0.135
853.0649	-0
853.2291	-0.1402
853.3934	0.8357
853.5575	0.1888
853.7217	0.1794
853.8859	-0.3434
854.05	-0.5895
854.2141	0.0909
854.3782	0.1217
854.5423	0.8771
854.7063	0.2477
854.8703	0.0095
855.0343	0.1092
855.1983	-0.1109
855.3623	0.1289
855.5262	-0
855.6901	-0
855.854	-0
856.0179	-0.4065
856.1818	0.6791
856.3456	0.4103
856.5094	1.4108
856.6732	-0
856.837	-1.1714
857.0008	-0
857.1645	0.6551
857.3282	-0
857.4919	-0.1144
857.6556	-0.2509
857.8192	0.1156
857.9828	-0.1406
858.1465	-0.1303
858.31	0.8622
858.4736	-0.3916
858.6372	-0.4327
858.8007	0.2526
858.9642	0.0768
859.1277	1.5056
859.2911	-0.7385
859.4546	-0
859.618	-0.006
859.7814	1.0663
859.9448	0.3544
860.1081	-0.2983
860.2715	-0
860.4348	-0.149
860.5981	-0
860.7614	-0.0925
860.9246	0.1971
861.0879	1.2184
861.2511	-0
861.4143	-0
861.5774	-0.0617
861.7406	-0.1026
861.9037	-0.7669
862.0668	-0.7593
862.2299	0.243
862.393	-0
862.556	0.143
862.7191	0.0363
862.8821	-0.1682
863.0451	0.0268
863.208	-0.4838
863.371	-0.672
863.5339	0.6373
863.6968	-0
863.8597	0.8247
864.0225	-0.2586
864.1854	-0
864.3482	-0.6021
864.511	-0.1354
864.6737	0.4586
864.8365	-0.193
864.9992	-0
865.1619	-0.3555
865.3246	-0
865.4873	-0.2112
865.65	0.3586
865.8126	-0
865.9752	-0.236
866.1378	0.1261
866.3004	-0.3316
866.4629	-1.7014
866.6254	0.0496
866.7879	-0
866.9504	0.2644
867.1129	-0.2398
867.2753	-0.2678
867.4377	0.4018
867.6001	0.2561
867.7625	0.0254
867.9249	-0
868.0872	0.0881
868.2495	-0
868.4118	0.7239
868.5741	-0
868.7363	-0
868.8986	-0
869.0608	0.1038
869.223	-0.744
869.3851	-0
869.5473	-0.1613
869.7094	0.3354
869.8715	-0.7539
870.0336	0.0537
870.1957	-0
870.3577	-0
870.5197	0.0507
870.6817	-0.9763
870.8437	-0.0767
871.0057	-0
871.1676	0.2722
871.3295	-0.4391
871.4914	-1.3181
871.6533	0.0996
871.8151	0.4521
871.977	-0.3676
872.1388	0.1063
872.3006	-0.7219
872.4623	-0.3065
872.6241	0.3343
872.7858	-0
872.9475	0.4016
873.1092	0.27
873.2709	0.5663
873.4325	-1.8808
873.5941	-0
873.7557	-0
873.9173	0.1221
874.0789	0.3004
874.2404	-0
874.4019	-0.0057
874.5634	-0
874.7249	-0
874.8863	-0.3464
875.0478	0.3566
875.2092	1.4389
875.3706	0.1754
875.5319	-0.4208
875.6933	0.9626
875.8546	0.0389
876.0159	0.243
876.1772	-0
876.3385	-0
876.4997	1.9766
876.6609	0.0435
876.8221	-0
876.9833	-0.2137
877.1445	0.0831
877.3056	-0.8009
877.4667	0.7097
877.6278	0.313
877.7889	-0.342
877.9499	0.164
878.111	-0.6094
878.272	-0.0706
878.433	0.4026
878.5939	0.2996
878.7549	-0.19
878.9158	-0.2452
879.0767	-0
879.2376	-0.4231
879.3984	0.2581
879.5593	0.0346
879.7201	-1.6546
879.8809	-0.1293
880.0417	-0.165
880.2024	-0.0244
880.3632	-0
880.5239	0.5786
880.6846	-0.503
880.8452	-0
881.0059	-0
881.1665	0.0569
881.3271	0.0524
881.4877	0.243
881.6483	-0
881.8088	-0
881.9693	-0
882.1298	-0
882.2903	-0
