Data from D4ACN5uM420nmA_Absorbance_14-37-07-781.txt Node
Date: Fri Feb 21 14:37:07 GMT 2025
User: LASERRRRR
Spectrometer: FLMT03099
Trigger mode: 0
Integration Time (sec): 1.500000E-2
Scans to average: 1
Electric dark correction enabled: true
Nonlinearity correction enabled: false
Boxcar width: 0
XAxis mode: Wavelengths
Number of Pixels in Spectrum: 3648
>>>>>Begin Spectral Data<<<<<
179.3399	-0.5608
179.5586	-0.5608
179.7771	-0.5608
179.9957	-0.0778
180.2143	-0
180.4329	-0
180.6514	-0
180.8699	-0
181.0885	-0
181.307	-0
181.5255	0.6402
181.744	-0
181.9625	-0
182.181	-0
182.3994	-0.6342
182.6179	0.1037
182.8363	-0
183.0547	0.0738
183.2732	-0.0722
183.4916	0.6359
183.71	0.2505
183.9284	0.2353
184.1467	0.2492
184.3651	0.1643
184.5835	0.1965
184.8018	0.2528
185.0201	0.0455
185.2385	0.2993
185.4568	0.2089
185.6751	0.1371
185.8934	0.0618
186.1117	-0.1452
186.3299	0.1002
186.5482	0.1661
186.7664	0.1369
186.9847	0.0439
187.2029	0.5865
187.4211	0.1402
187.6393	0.0651
187.8575	0.4374
188.0757	0.5922
188.2939	0.0362
188.512	0.1091
188.7302	0.1175
188.9483	0.5858
189.1665	0.5326
189.3846	0.464
189.6027	0.0794
189.8208	0.1897
190.0389	0.305
190.257	0.1211
190.475	0.0533
190.6931	0.0213
190.9111	0.0349
191.1292	0.1399
191.3472	0.2186
191.5652	0.2517
191.7832	0.1236
192.0012	0.1028
192.2192	0.202
192.4371	0.1522
192.6551	0.1602
192.873	0.1845
193.091	0.0772
193.3089	0.2156
193.5268	0.1903
193.7447	0.2635
193.9626	0.189
194.1805	0.1719
194.3984	0.2882
194.6162	0.2404
194.8341	0.3003
195.0519	0.317
195.2697	0.282
195.4875	0.2669
195.7054	0.2729
195.9231	0.2252
196.1409	0.2591
196.3587	0.2559
196.5765	0.4131
196.7942	0.3233
197.012	0.3425
197.2297	0.3223
197.4474	0.4628
197.6651	0.2873
197.8828	0.3563
198.1005	0.3747
198.3182	0.3789
198.5358	0.3684
198.7535	0.4257
198.9711	0.3902
199.1888	0.3857
199.4064	0.364
199.624	0.42
199.8416	0.3593
200.0592	0.367
200.2767	0.3723
200.4943	0.4396
200.7119	0.4076
200.9294	0.3755
201.1469	0.4118
201.3645	0.444
201.582	0.3926
201.7995	0.4023
202.017	0.4037
202.2344	0.4517
202.4519	0.3923
202.6694	0.371
202.8868	0.3948
203.1042	0.4136
203.3217	0.3958
203.5391	0.4165
203.7565	0.3547
203.9739	0.3456
204.1913	0.3503
204.4086	0.3715
204.626	0.3837
204.8433	0.3565
205.0607	0.3462
205.278	0.3724
205.4953	0.3097
205.7126	0.3404
205.9299	0.3262
206.1472	0.3234
206.3644	0.324
206.5817	0.3255
206.7989	0.3328
207.0162	0.3237
207.2334	0.3173
207.4506	0.3127
207.6678	0.3066
207.885	0.2943
208.1022	0.3013
208.3194	0.3154
208.5365	0.2957
208.7537	0.2881
208.9708	0.2983
209.1879	0.2911
209.405	0.258
209.6222	0.2803
209.8392	0.3018
210.0563	0.2696
210.2734	0.2638
210.4905	0.2828
210.7075	0.2777
210.9245	0.2836
211.1416	0.2792
211.3586	0.2644
211.5756	0.2562
211.7926	0.2687
212.0096	0.2761
212.2265	0.2739
212.4435	0.2575
212.6604	0.2597
212.8774	0.2468
213.0943	0.2572
213.3112	0.2576
213.5281	0.2424
213.745	0.2294
213.9619	0.2467
214.1788	0.256
214.3956	0.2581
214.6125	0.2611
214.8293	0.2603
215.0461	0.2407
215.2629	0.2502
215.4798	0.2499
215.6965	0.2324
215.9133	0.224
216.1301	0.2568
216.3469	0.2378
216.5636	0.2551
216.7803	0.2673
216.9971	0.2499
217.2138	0.2477
217.4305	0.2444
217.6472	0.2443
217.8639	0.2485
218.0805	0.2421
218.2972	0.2359
218.5138	0.2343
218.7305	0.2505
218.9471	0.2469
219.1637	0.2716
219.3803	0.2763
219.5969	0.2397
219.8135	0.2822
220.0301	0.2629
220.2466	0.2583
220.4632	0.2566
220.6797	0.2576
220.8962	0.2541
221.1127	0.2636
221.3292	0.2683
221.5457	0.2726
221.7622	0.2703
221.9787	0.2824
222.1951	0.2789
222.4116	0.2784
222.628	0.2882
222.8444	0.2768
223.0608	0.2857
223.2772	0.2889
223.4936	0.272
223.71	0.2848
223.9264	0.2789
224.1427	0.2852
224.3591	0.2932
224.5754	0.2857
224.7917	0.2903
225.008	0.2907
225.2243	0.2946
225.4406	0.2899
225.6569	0.3141
225.8732	0.3085
226.0894	0.3052
226.3057	0.2974
226.5219	0.3174
226.7381	0.3187
226.9543	0.3033
227.1705	0.3223
227.3867	0.3167
227.6029	0.3286
227.8191	0.3359
228.0352	0.3415
228.2513	0.3458
228.4675	0.3398
228.6836	0.3398
228.8997	0.3455
229.1158	0.3538
229.3319	0.3558
229.548	0.3563
229.764	0.3608
229.9801	0.3762
230.1961	0.3737
230.4121	0.3662
230.6282	0.3765
230.8442	0.3845
231.0602	0.3776
231.2761	0.3773
231.4921	0.393
231.7081	0.39
231.924	0.4035
232.14	0.405
232.3559	0.4092
232.5718	0.4084
232.7877	0.4195
233.0036	0.4092
233.2195	0.4191
233.4353	0.4226
233.6512	0.4335
233.867	0.4234
234.0829	0.4304
234.2987	0.4262
234.5145	0.4437
234.7303	0.4358
234.9461	0.4535
235.1619	0.443
235.3776	0.4385
235.5934	0.4317
235.8091	0.44
236.0249	0.4558
236.2406	0.4402
236.4563	0.4382
236.672	0.4468
236.8877	0.4598
237.1034	0.4541
237.319	0.4539
237.5347	0.457
237.7503	0.45
237.966	0.4694
238.1816	0.454
238.3972	0.4667
238.6128	0.4554
238.8284	0.466
239.0439	0.4756
239.2595	0.4578
239.475	0.463
239.6906	0.4731
239.9061	0.4638
240.1216	0.4602
240.3371	0.4652
240.5526	0.46
240.7681	0.4741
240.9836	0.4691
241.199	0.4563
241.4145	0.4496
241.6299	0.4444
241.8453	0.4447
242.0607	0.4456
242.2761	0.4432
242.4915	0.433
242.7069	0.4226
242.9223	0.4328
243.1376	0.4141
243.353	0.3986
243.5683	0.3982
243.7836	0.3939
243.9989	0.3822
244.2142	0.3838
244.4295	0.375
244.6448	0.3647
244.86	0.3608
245.0753	0.355
245.2905	0.3526
245.5057	0.3415
245.721	0.3411
245.9362	0.3307
246.1514	0.3255
246.3665	0.3167
246.5817	0.3034
246.7969	0.3021
247.012	0.2935
247.2271	0.3014
247.4423	0.2899
247.6574	0.2922
247.8725	0.2724
248.0876	0.2692
248.3026	0.2721
248.5177	0.2605
248.7328	0.2572
248.9478	0.2596
249.1628	0.2537
249.3779	0.2446
249.5929	0.2408
249.8079	0.24
250.0228	0.2284
250.2378	0.2352
250.4528	0.232
250.6677	0.2265
250.8827	0.2237
251.0976	0.2234
251.3125	0.2166
251.5274	0.2165
251.7423	0.2117
251.9572	0.2148
252.172	0.2161
252.3869	0.2121
252.6017	0.2069
252.8166	0.2047
253.0314	0.2011
253.2462	0.2045
253.461	0.1936
253.6758	0.1983
253.8906	0.1992
254.1053	0.1991
254.3201	0.1965
254.5348	0.1877
254.7496	0.1896
254.9643	0.1988
255.179	0.1943
255.3937	0.194
255.6083	0.1964
255.823	0.1902
256.0377	0.1898
256.2523	0.1865
256.467	0.1885
256.6816	0.179
256.8962	0.1889
257.1108	0.1884
257.3254	0.1861
257.54	0.1806
257.7545	0.1908
257.9691	0.1842
258.1836	0.1803
258.3981	0.1841
258.6127	0.1791
258.8272	0.1801
259.0417	0.1772
259.2561	0.1821
259.4706	0.1842
259.6851	0.179
259.8995	0.1836
260.114	0.1832
260.3284	0.1752
260.5428	0.1833
260.7572	0.1835
260.9716	0.189
261.186	0.1795
261.4003	0.1813
261.6147	0.1855
261.829	0.1804
262.0433	0.1851
262.2577	0.1837
262.472	0.1769
262.6863	0.1883
262.9005	0.18
263.1148	0.1811
263.3291	0.1844
263.5433	0.1847
263.7576	0.1853
263.9718	0.1833
264.186	0.1882
264.4002	0.1907
264.6144	0.1904
264.8286	0.1867
265.0427	0.1905
265.2569	0.188
265.471	0.1832
265.6851	0.1871
265.8993	0.1854
266.1134	0.1848
266.3275	0.1863
266.5415	0.1846
266.7556	0.1872
266.9697	0.1896
267.1837	0.1859
267.3978	0.1841
267.6118	0.1825
267.8258	0.1922
268.0398	0.1927
268.2538	0.1917
268.4677	0.1857
268.6817	0.1844
268.8957	0.1849
269.1096	0.1783
269.3235	0.1794
269.5374	0.1843
269.7514	0.1884
269.9652	0.1823
270.1791	0.1804
270.393	0.1815
270.6068	0.187
270.8207	0.183
271.0345	0.1803
271.2483	0.1758
271.4622	0.1824
271.676	0.1769
271.8897	0.1803
272.1035	0.1824
272.3173	0.1744
272.531	0.1721
272.7448	0.1778
272.9585	0.1753
273.1722	0.1792
273.3859	0.1766
273.5996	0.179
273.8133	0.183
274.0269	0.1805
274.2406	0.1866
274.4542	0.1839
274.6679	0.1852
274.8815	0.1865
275.0951	0.1905
275.3087	0.186
275.5223	0.1906
275.7358	0.1929
275.9494	0.187
276.1629	0.1871
276.3765	0.1886
276.59	0.1869
276.8035	0.1861
277.017	0.1924
277.2305	0.1909
277.444	0.1943
277.6574	0.191
277.8709	0.1993
278.0843	0.1921
278.2978	0.1889
278.5112	0.1876
278.7246	0.1888
278.938	0.1912
279.1513	0.1959
279.3647	0.1892
279.5781	0.1914
279.7914	0.1905
280.0047	0.1924
280.2181	0.1924
280.4314	0.1927
280.6447	0.1925
280.8579	0.1889
281.0712	0.1881
281.2845	0.1917
281.4977	0.1892
281.711	0.1909
281.9242	0.1865
282.1374	0.189
282.3506	0.1886
282.5638	0.1883
282.7769	0.1852
282.9901	0.1924
283.2033	0.1857
283.4164	0.1906
283.6295	0.1903
283.8426	0.1851
284.0557	0.1936
284.2688	0.1906
284.4819	0.19
284.695	0.1901
284.908	0.1897
285.1211	0.1907
285.3341	0.1901
285.5471	0.1929
285.7601	0.1896
285.9731	0.19
286.1861	0.1956
286.3991	0.1953
286.612	0.1895
286.825	0.1936
287.0379	0.1934
287.2508	0.1935
287.4637	0.1914
287.6766	0.1938
287.8895	0.1892
288.1024	0.201
288.3152	0.195
288.5281	0.1897
288.7409	0.1961
288.9538	0.1938
289.1666	0.1923
289.3794	0.1931
289.5922	0.1922
289.8049	0.1977
290.0177	0.1978
290.2304	0.1895
290.4432	0.1984
290.6559	0.1971
290.8686	0.1955
291.0813	0.1965
291.294	0.1961
291.5067	0.1965
291.7194	0.1972
291.932	0.1931
292.1447	0.1957
292.3573	0.1953
292.5699	0.1981
292.7825	0.1879
292.9951	0.1902
293.2077	0.1908
293.4203	0.1956
293.6328	0.194
293.8454	0.2002
294.0579	0.1929
294.2704	0.198
294.4829	0.1909
294.6954	0.1936
294.9079	0.1937
295.1204	0.1928
295.3328	0.2002
295.5453	0.1949
295.7577	0.1884
295.9701	0.1999
296.1825	0.195
296.3949	0.1859
296.6073	0.1936
296.8197	0.1973
297.0321	0.1946
297.2444	0.1877
297.4567	0.1969
297.6691	0.2026
297.8814	0.2017
298.0937	0.1943
298.306	0.1919
298.5182	0.1992
298.7305	0.1999
298.9428	0.195
299.155	0.1892
299.3672	0.1928
299.5794	0.1982
299.7916	0.1946
300.0038	0.1987
300.216	0.188
300.4282	0.1992
300.6403	0.1999
300.8525	0.1923
301.0646	0.197
301.2767	0.1953
301.4888	0.1946
301.7009	0.1956
301.913	0.1981
302.125	0.1949
302.3371	0.19
302.5491	0.1973
302.7612	0.197
302.9732	0.1967
303.1852	0.1929
303.3972	0.1974
303.6092	0.2008
303.8211	0.1909
304.0331	0.1934
304.245	0.1914
304.457	0.1944
304.6689	0.1957
304.8808	0.1887
305.0927	0.1906
305.3046	0.19
305.5164	0.1853
305.7283	0.1867
305.9401	0.1795
306.152	0.1852
306.3638	0.1794
306.5756	0.1857
306.7874	0.1786
306.9992	0.1754
307.2109	0.177
307.4227	0.1721
307.6344	0.1788
307.8462	0.1756
308.0579	0.1723
308.2696	0.1687
308.4813	0.1685
308.693	0.1661
308.9046	0.1699
309.1163	0.1678
309.328	0.1645
309.5396	0.1619
309.7512	0.161
309.9628	0.1607
310.1744	0.1583
310.386	0.157
310.5976	0.1532
310.8091	0.1567
311.0207	0.1547
311.2322	0.1474
311.4437	0.1513
311.6552	0.1493
311.8667	0.1495
312.0782	0.1499
312.2897	0.1529
312.5012	0.1467
312.7126	0.1418
312.924	0.1462
313.1355	0.1429
313.3469	0.1431
313.5583	0.1427
313.7696	0.1378
313.981	0.1459
314.1924	0.1349
314.4037	0.1416
314.6151	0.1423
314.8264	0.1394
315.0377	0.1368
315.249	0.1378
315.4603	0.1342
315.6716	0.1398
315.8828	0.1369
316.0941	0.1354
316.3053	0.1328
316.5165	0.1429
316.7277	0.1338
316.9389	0.1303
317.1501	0.1317
317.3613	0.1343
317.5724	0.1356
317.7836	0.1316
317.9947	0.133
318.2058	0.1331
318.417	0.1328
318.6281	0.1276
318.8391	0.1341
319.0502	0.1319
319.2613	0.1306
319.4723	0.1277
319.6834	0.1341
319.8944	0.125
320.1054	0.1335
320.3164	0.1276
320.5274	0.1318
320.7383	0.1338
320.9493	0.1341
321.1602	0.1325
321.3712	0.1275
321.5821	0.1312
321.793	0.1386
322.0039	0.1312
322.2148	0.1327
322.4257	0.1297
322.6365	0.1331
322.8474	0.1378
323.0582	0.1351
323.269	0.1373
323.4798	0.1296
323.6906	0.1293
323.9014	0.1321
324.1122	0.1288
324.3229	0.1379
324.5337	0.1354
324.7444	0.1401
324.9551	0.1401
325.1658	0.1349
325.3765	0.1353
325.5872	0.1439
325.7979	0.141
326.0085	0.1326
326.2192	0.1345
326.4298	0.1389
326.6404	0.1398
326.851	0.1336
327.0616	0.1382
327.2722	0.1356
327.4828	0.142
327.6933	0.1471
327.9039	0.1434
328.1144	0.1402
328.3249	0.137
328.5354	0.1368
328.7459	0.1346
328.9564	0.1363
329.1669	0.1434
329.3773	0.1449
329.5878	0.1427
329.7982	0.1451
330.0086	0.1411
330.219	0.1375
330.4294	0.1433
330.6398	0.1424
330.8502	0.1433
331.0605	0.1447
331.2708	0.1435
331.4812	0.1383
331.6915	0.1502
331.9018	0.1442
332.1121	0.1475
332.3224	0.1436
332.5326	0.1384
332.7429	0.141
332.9531	0.1488
333.1633	0.1445
333.3735	0.1444
333.5837	0.1429
333.7939	0.1499
334.0041	0.1492
334.2143	0.1465
334.4244	0.1517
334.6346	0.1448
334.8447	0.1459
335.0548	0.1454
335.2649	0.1493
335.475	0.1507
335.685	0.1464
335.8951	0.1471
336.1051	0.1551
336.3152	0.1538
336.5252	0.1453
336.7352	0.1488
336.9452	0.1444
337.1552	0.1488
337.3652	0.1472
337.5751	0.1421
337.7851	0.1475
337.995	0.1504
338.2049	0.1455
338.4148	0.1479
338.6247	0.1491
338.8346	0.1523
339.0445	0.1468
339.2543	0.153
339.4642	0.145
339.674	0.1488
339.8838	0.1506
340.0936	0.1549
340.3034	0.1486
340.5132	0.1446
340.7229	0.1554
340.9327	0.15
341.1424	0.154
341.3522	0.1415
341.5619	0.1512
341.7716	0.157
341.9813	0.1579
342.1909	0.157
342.4006	0.1634
342.6102	0.1609
342.8199	0.1547
343.0295	0.1552
343.2391	0.156
343.4487	0.16
343.6583	0.1671
343.8679	0.1548
344.0774	0.1606
344.287	0.1609
344.4965	0.1655
344.706	0.1642
344.9155	0.1622
345.125	0.1674
345.3345	0.171
345.544	0.1691
345.7534	0.1722
345.9629	0.1667
346.1723	0.1752
346.3817	0.1709
346.5911	0.1664
346.8005	0.1756
347.0099	0.1705
347.2193	0.1733
347.4286	0.18
347.638	0.1736
347.8473	0.1817
348.0566	0.1718
348.2659	0.1794
348.4752	0.1807
348.6845	0.18
348.8937	0.1747
349.103	0.1791
349.3122	0.1778
349.5214	0.181
349.7306	0.1827
349.9398	0.1849
350.149	0.1747
350.3582	0.1874
350.5674	0.1822
350.7765	0.1864
350.9856	0.1786
351.1948	0.1881
351.4039	0.1892
351.613	0.1831
351.822	0.1865
352.0311	0.1879
352.2402	0.1865
352.4492	0.1876
352.6582	0.1873
352.8672	0.1912
353.0762	0.1893
353.2852	0.1843
353.4942	0.1911
353.7032	0.189
353.9121	0.1929
354.1211	0.1939
354.33	0.1904
354.5389	0.1894
354.7478	0.1885
354.9567	0.1989
355.1655	0.1915
355.3744	0.1908
355.5833	0.189
355.7921	0.1976
356.0009	0.197
356.2097	0.1779
356.4185	0.192
356.6273	0.1912
356.8361	0.1914
357.0448	0.1887
357.2536	0.1996
357.4623	0.1938
357.671	0.2006
357.8797	0.1987
358.0884	0.1929
358.2971	0.1919
358.5057	0.1997
358.7144	0.1922
358.923	0.2037
359.1316	0.2092
359.3402	0.2019
359.5488	0.197
359.7574	0.2003
359.966	0.2056
360.1746	0.2012
360.3831	0.2108
360.5916	0.2165
360.8002	0.2092
361.0087	0.2104
361.2172	0.2046
361.4256	0.21
361.6341	0.2096
361.8426	0.2099
362.051	0.2162
362.2594	0.2123
362.4678	0.2168
362.6762	0.219
362.8846	0.2147
363.093	0.209
363.3014	0.2252
363.5097	0.2145
363.718	0.2258
363.9264	0.2238
364.1347	0.2237
364.343	0.2259
364.5513	0.2219
364.7595	0.2295
364.9678	0.2182
365.176	0.2288
365.3842	0.233
365.5925	0.2252
365.8007	0.228
366.0089	0.2334
366.217	0.2245
366.4252	0.2315
366.6333	0.2313
366.8415	0.2304
367.0496	0.2297
367.2577	0.2348
367.4658	0.2289
367.6739	0.2345
367.882	0.2393
368.09	0.23
368.2981	0.2532
368.5061	0.2431
368.7141	0.2395
368.9221	0.2514
369.1301	0.2501
369.3381	0.2511
369.5461	0.2419
369.754	0.2473
369.962	0.2483
370.1699	0.2548
370.3778	0.2464
370.5857	0.2497
370.7936	0.2535
371.0015	0.2529
371.2093	0.2482
371.4172	0.2443
371.625	0.2578
371.8328	0.2443
372.0406	0.262
372.2484	0.2594
372.4562	0.2547
372.664	0.2601
372.8717	0.2621
373.0795	0.2641
373.2872	0.2566
373.4949	0.2681
373.7026	0.2589
373.9103	0.2557
374.118	0.2609
374.3256	0.2721
374.5333	0.263
374.7409	0.263
374.9485	0.2687
375.1561	0.2619
375.3637	0.2677
375.5713	0.2715
375.7789	0.262
375.9864	0.2709
376.194	0.2734
376.4015	0.2717
376.609	0.2746
376.8165	0.2797
377.024	0.2758
377.2315	0.2772
377.4389	0.2607
377.6464	0.2831
377.8538	0.2807
378.0612	0.279
378.2686	0.2757
378.476	0.2824
378.6834	0.2827
378.8908	0.2719
379.0981	0.282
379.3055	0.2823
379.5128	0.2661
379.7201	0.2817
379.9274	0.2803
380.1347	0.2811
380.342	0.294
380.5492	0.2923
380.7565	0.2879
380.9637	0.2799
381.1709	0.2848
381.3781	0.2869
381.5853	0.2875
381.7925	0.2822
381.9997	0.3009
382.2068	0.2948
382.4139	0.2859
382.6211	0.2878
382.8282	0.2941
383.0353	0.3006
383.2424	0.2953
383.4494	0.2915
383.6565	0.2903
383.8635	0.2893
384.0706	0.2968
384.2776	0.2979
384.4846	0.2957
384.6916	0.2895
384.8986	0.3002
385.1055	0.3029
385.3125	0.2931
385.5194	0.2964
385.7263	0.2931
385.9333	0.3068
386.1402	0.2884
386.347	0.2935
386.5539	0.2935
386.7608	0.2964
386.9676	0.2936
387.1744	0.2965
387.3813	0.3007
387.5881	0.2897
387.7948	0.3027
388.0016	0.3042
388.2084	0.2953
388.4151	0.2982
388.6219	0.2921
388.8286	0.3029
389.0353	0.2994
389.242	0.2963
389.4487	0.2925
389.6553	0.2839
389.862	0.2904
390.0686	0.3004
390.2753	0.2829
390.4819	0.292
390.6885	0.2914
390.8951	0.2917
391.1016	0.283
391.3082	0.293
391.5147	0.2719
391.7213	0.2697
391.9278	0.2692
392.1343	0.2796
392.3408	0.2842
392.5473	0.2805
392.7537	0.2764
392.9602	0.2737
393.1666	0.2839
393.373	0.2778
393.5794	0.2703
393.7858	0.27
393.9922	0.274
394.1986	0.2672
394.4049	0.2716
394.6113	0.2661
394.8176	0.2692
395.0239	0.2654
395.2302	0.27
395.4365	0.2646
395.6428	0.2603
395.8491	0.2674
396.0553	0.2549
396.2615	0.261
396.4678	0.2675
396.674	0.2595
396.8802	0.2565
397.0863	0.2533
397.2925	0.2584
397.4987	0.2546
397.7048	0.2637
397.9109	0.256
398.117	0.2587
398.3231	0.2545
398.5292	0.2538
398.7353	0.2489
398.9413	0.2557
399.1474	0.2508
399.3534	0.2557
399.5594	0.2588
399.7654	0.2484
399.9714	0.256
400.1774	0.2495
400.3833	0.2527
400.5893	0.2493
400.7952	0.2555
401.0011	0.2519
401.207	0.2519
401.4129	0.2393
401.6188	0.2471
401.8247	0.2628
402.0305	0.2486
402.2364	0.2524
402.4422	0.2506
402.648	0.2583
402.8538	0.2477
403.0596	0.2558
403.2654	0.2542
403.4711	0.2503
403.6768	0.2441
403.8826	0.2457
404.0883	0.2514
404.294	0.2518
404.4997	0.2569
404.7054	0.2573
404.911	0.2475
405.1167	0.256
405.3223	0.2537
405.5279	0.2544
405.7335	0.2425
405.9391	0.2545
406.1447	0.2578
406.3502	0.2501
406.5558	0.2451
406.7613	0.2401
406.9668	0.2436
407.1724	0.2521
407.3778	0.2515
407.5833	0.24
407.7888	0.2439
407.9942	0.2411
408.1997	0.2555
408.4051	0.2528
408.6105	0.2536
408.8159	0.2451
409.0213	0.248
409.2267	0.2599
409.432	0.2532
409.6374	0.2545
409.8427	0.2614
410.048	0.2481
410.2533	0.2461
410.4586	0.2444
410.6639	0.2583
410.8691	0.2454
411.0744	0.2439
411.2796	0.2504
411.4848	0.2569
411.69	0.2514
411.8952	0.2489
412.1004	0.2438
412.3056	0.2538
412.5107	0.2517
412.7158	0.2473
412.921	0.2594
413.1261	0.2401
413.3312	0.2534
413.5362	0.2615
413.7413	0.2424
413.9464	0.2481
414.1514	0.2447
414.3564	0.2393
414.5614	0.2386
414.7664	0.2425
414.9714	0.2356
415.1764	0.2403
415.3813	0.2405
415.5863	0.2493
415.7912	0.243
415.9961	0.2426
416.201	0.2398
416.4059	0.2399
416.6108	0.2405
416.8156	0.2431
417.0205	0.2397
417.2253	0.236
417.4301	0.2383
417.6349	0.235
417.8397	0.2363
418.0445	0.2394
418.2492	0.2327
418.454	0.2426
418.6587	0.2429
418.8634	0.2338
419.0681	0.2446
419.2728	0.2369
419.4775	0.2463
419.6822	0.2304
419.8868	0.2296
420.0915	0.2424
420.2961	0.2267
420.5007	0.2433
420.7053	0.2296
420.9099	0.2406
421.1144	0.2299
421.319	0.2294
421.5235	0.2205
421.728	0.2362
421.9325	0.2238
422.137	0.2275
422.3415	0.2265
422.546	0.2197
422.7504	0.2331
422.9549	0.2282
423.1593	0.2136
423.3637	0.2328
423.5681	0.2218
423.7725	0.2265
423.9769	0.2292
424.1812	0.2108
424.3856	0.2181
424.5899	0.2137
424.7942	0.2131
424.9985	0.2126
425.2028	0.2359
425.4071	0.2255
425.6113	0.2122
425.8156	0.2138
426.0198	0.2218
426.224	0.2024
426.4282	0.2054
426.6324	0.2057
426.8366	0.2086
427.0407	0.2015
427.2449	0.2071
427.449	0.2067
427.6531	0.2167
427.8572	0.2135
428.0613	0.2087
428.2654	0.2
428.4694	0.1966
428.6735	0.1861
428.8775	0.1982
429.0815	0.1977
429.2855	0.1918
429.4895	0.1934
429.6935	0.1903
429.8975	0.1912
430.1014	0.1966
430.3053	0.1902
430.5093	0.1776
430.7132	0.1849
430.9171	0.1778
431.1209	0.1803
431.3248	0.1704
431.5286	0.1655
431.7325	0.1807
431.9363	0.1626
432.1401	0.1732
432.3439	0.1777
432.5477	0.1647
432.7514	0.1613
432.9552	0.1604
433.1589	0.1558
433.3627	0.1702
433.5664	0.1603
433.7701	0.1595
433.9737	0.1636
434.1774	0.1654
434.3811	0.1509
434.5847	0.1505
434.7883	0.1572
434.9919	0.1463
435.1955	0.1541
435.3991	0.1441
435.6027	0.1459
435.8062	0.1563
436.0098	0.1413
436.2133	0.1472
436.4168	0.1339
436.6203	0.1331
436.8238	0.1416
437.0272	0.1269
437.2307	0.1325
437.4341	0.1278
437.6375	0.1362
437.841	0.137
438.0443	0.1367
438.2477	0.1153
438.4511	0.1214
438.6545	0.1273
438.8578	0.1185
439.0611	0.1228
439.2644	0.1232
439.4677	0.123
439.671	0.1111
439.8743	0.1118
440.0775	0.1173
440.2808	0.108
440.484	0.1077
440.6872	0.1035
440.8904	0.1018
441.0936	0.1086
441.2967	0.0992
441.4999	0.0998
441.703	0.0936
441.9062	0.1022
442.1093	0.1018
442.3124	0.0977
442.5155	0.0947
442.7185	0.0919
442.9216	0.0919
443.1246	0.0913
443.3276	0.0915
443.5307	0.0819
443.7337	0.0934
443.9366	0.0827
444.1396	0.0758
444.3426	0.0829
444.5455	0.0831
444.7484	0.08
444.9513	0.0778
445.1542	0.0778
445.3571	0.0771
445.56	0.0678
445.7628	0.0748
445.9657	0.0817
446.1685	0.0775
446.3713	0.0758
446.5741	0.0741
446.7769	0.0732
446.9797	0.0752
447.1824	0.0731
447.3852	0.0516
447.5879	0.0638
447.7906	0.0551
447.9933	0.0677
448.196	0.0555
448.3986	0.0592
448.6013	0.0536
448.8039	0.0683
449.0066	0.0659
449.2092	0.061
449.4118	0.0567
449.6143	0.057
449.8169	0.0567
450.0195	0.0606
450.222	0.0595
450.4245	0.0524
450.627	0.0522
450.8295	0.0419
451.032	0.0531
451.2345	0.043
451.4369	0.0477
451.6394	0.0437
451.8418	0.0464
452.0442	0.0524
452.2466	0.0438
452.449	0.0457
452.6513	0.0396
452.8537	0.0416
453.056	0.0408
453.2583	0.0376
453.4607	0.0355
453.663	0.0379
453.8652	0.0368
454.0675	0.0357
454.2697	0.0308
454.472	0.0273
454.6742	0.0347
454.8764	0.0434
455.0786	0.0352
455.2808	0.0276
455.4829	0.0351
455.6851	0.0304
455.8872	0.0264
456.0893	0.0402
456.2915	0.0285
456.4935	0.0376
456.6956	0.0281
456.8977	0.034
457.0997	0.0276
457.3018	0.0297
457.5038	0.0357
457.7058	0.0327
457.9078	0.0329
458.1098	0.0177
458.3117	0.0348
458.5137	0.0139
458.7156	0.0312
458.9175	0.0265
459.1194	0.0224
459.3213	0.0253
459.5232	0.0258
459.725	0.0219
459.9269	0.0225
460.1287	0.0198
460.3305	0.0283
460.5323	0.0213
460.7341	0.0267
460.9359	0.0144
461.1376	0.0286
461.3394	0.0202
461.5411	0.0291
461.7428	0.0349
461.9445	0.0176
462.1462	0.0195
462.3479	0.019
462.5495	0.0245
462.7512	0.0244
462.9528	0.0212
463.1544	0.019
463.356	0.0144
463.5576	0.0232
463.7592	0.0179
463.9607	0.0154
464.1623	0.0207
464.3638	0.014
464.5653	0.021
464.7668	0.023
464.9683	0.0206
465.1697	0.0224
465.3712	0.0165
465.5726	0.0188
465.7741	0.0169
465.9755	0.0158
466.1769	0.0098
466.3782	0.0174
466.5796	0.0217
466.7809	0.0195
466.9823	0.0061
467.1836	0.0096
467.3849	0.0192
467.5862	0.0085
467.7875	0.0173
467.9887	0.0104
468.19	0.0123
468.3912	0.0206
468.5924	0.0136
468.7936	0.0162
468.9948	0.0055
469.196	0.0185
469.3972	0.0186
469.5983	0.0155
469.7994	0.016
470.0006	0.0097
470.2017	0.0179
470.4027	0.0223
470.6038	0.0126
470.8049	0.0084
471.0059	0.0134
471.2069	0.0054
471.408	0.0203
471.6089	0.0173
471.8099	0.0142
472.0109	0.0119
472.2119	0.0214
472.4128	0.0094
472.6137	0.0154
472.8146	0.0152
473.0155	0.0207
473.2164	0.0102
473.4173	0.001
473.6181	0.0146
473.819	0.0136
474.0198	-0.0001
474.2206	0.0038
474.4214	0.0107
474.6222	-0.0019
474.8229	0.009
475.0237	0.0226
475.2244	0.0137
475.4251	0.0081
475.6258	0.0003
475.8265	0.0148
476.0272	0.0141
476.2278	0.0067
476.4285	0.0121
476.6291	0.0106
476.8297	0.0122
477.0303	0.0031
477.2309	0.009
477.4315	0.0085
477.632	0.006
477.8326	0.0073
478.0331	0.0149
478.2336	0.0176
478.4341	0.0167
478.6346	0.007
478.8351	0.0165
479.0355	0.0188
479.236	0.0181
479.4364	0.0184
479.6368	0.012
479.8372	0.0158
480.0376	0.0073
480.2379	0.0126
480.4383	0.0176
480.6386	0.008
480.8389	0.0119
481.0392	0.0114
481.2395	0.0108
481.4398	0.0059
481.6401	0.0038
481.8403	0.0047
482.0405	0.0067
482.2408	0.0115
482.441	0.0156
482.6411	0.0149
482.8413	0.0122
483.0415	0.0138
483.2416	0.008
483.4417	0.016
483.6419	0.0118
483.8419	0.0132
484.042	0.012
484.2421	0.0036
484.4422	0.0086
484.6422	0.0078
484.8422	0.0119
485.0422	0.0082
485.2422	0.007
485.4422	0.0067
485.6422	0.0052
485.8421	0.0082
486.042	0.0121
486.242	0.0023
486.4419	0.0074
486.6417	0.0089
486.8416	0.0151
487.0415	0.005
487.2413	0.002
487.4411	0.0086
487.641	0.0071
487.8408	0.0114
488.0405	0.0164
488.2403	0.0065
488.4401	0.0111
488.6398	0.0144
488.8395	0.0081
489.0392	0.0134
489.2389	0.0093
489.4386	0.0028
489.6383	0.0156
489.8379	0.0087
490.0376	0.0079
490.2372	0.0054
490.4368	0.0022
490.6364	0.0074
490.836	0.005
491.0355	0.0068
491.2351	0.0072
491.4346	0.0131
491.6341	0.001
491.8336	0.0172
492.0331	0.0114
492.2326	0.0131
492.432	0.0139
492.6315	0.0131
492.8309	0.0135
493.0303	0.0117
493.2297	0.0124
493.4291	0.0071
493.6284	0.0191
493.8278	0.0099
494.0271	0.0107
494.2264	0.0041
494.4257	0.017
494.625	0.0027
494.8243	0.0059
495.0236	0.0097
495.2228	0.0148
495.422	0.0034
495.6213	0.0112
495.8205	0.0081
496.0196	0.0077
496.2188	0.0093
496.418	0.0086
496.6171	0.006
496.8162	0.0124
497.0153	0.0186
497.2144	0.0103
497.4135	0.0175
497.6126	0.0082
497.8116	0.0058
498.0107	0.019
498.2097	0.0079
498.4087	0.0118
498.6077	-0.0007
498.8067	0.0146
499.0056	0.006
499.2046	0.0171
499.4035	0.0046
499.6024	0.0014
499.8013	0.0158
500.0002	0.0071
500.199	0.0218
500.3979	0.005
500.5967	0.011
500.7956	0.0117
500.9944	0.0063
501.1932	0.019
501.3919	0.016
501.5907	0.0169
501.7895	0.0091
501.9882	0.0154
502.1869	0.0137
502.3856	0.0145
502.5843	0.0078
502.783	0.0096
502.9816	0.009
503.1803	0.0097
503.3789	0.0151
503.5775	0.0009
503.7761	0.0061
503.9747	0.0204
504.1732	-0.0017
504.3718	0.0207
504.5703	0.0091
504.7689	0.006
504.9674	0.0033
505.1658	0.0097
505.3643	0.0164
505.5628	0.0176
505.7612	0.016
505.9597	0.0053
506.1581	0.0079
506.3565	0.0079
506.5549	0.0163
506.7532	0.0033
506.9516	0.0134
507.1499	0.0075
507.3482	0.006
507.5465	0.0135
507.7448	0.0106
507.9431	0.0111
508.1414	0.0058
508.3396	0.0108
508.5379	0.011
508.7361	0.0072
508.9343	0.0099
509.1325	0.0145
509.3306	0.0134
509.5288	0.0044
509.7269	0.0179
509.9251	0.0153
510.1232	0.0153
510.3213	0.0119
510.5193	0.0174
510.7174	0.0078
510.9154	0.0098
511.1135	0.0049
511.3115	0.009
511.5095	0.0099
511.7075	0.0124
511.9055	0.0069
512.1034	0.0061
512.3014	0.0049
512.4993	0.0144
512.6972	0.0023
512.8951	0.0147
513.093	0.0017
513.2908	0.0119
513.4887	0.0096
513.6865	0.0103
513.8844	0.0118
514.0822	0.0117
514.2799	0.0028
514.4777	0.0062
514.6755	0.006
514.8732	0.0061
515.0709	0.0088
515.2687	0.0017
515.4664	0.0191
515.664	0.0212
515.8617	0.0139
516.0594	0.0129
516.257	0.0202
516.4546	0.0139
516.6522	0.0187
516.8498	0.0133
517.0474	0.0148
517.2449	0.0112
517.4425	0.0123
517.64	0.0152
517.8375	0.0095
518.035	0.005
518.2325	0.0071
518.43	0.0044
518.6274	0.007
518.8249	0.0069
519.0223	0.0113
519.2197	0.0106
519.4171	0.0003
519.6145	0.013
519.8118	-0.0036
520.0092	-0.0049
520.2065	0.0237
520.4038	0.0114
520.6011	0.0173
520.7984	0.0117
520.9956	0.0168
521.1929	0.0195
521.3901	0.0091
521.5874	0.0096
521.7846	0.0081
521.9818	0.0104
522.1789	0.005
522.3761	0.0199
522.5732	0.0114
522.7704	0.003
522.9675	-0.0008
523.1646	0.0091
523.3617	0.0126
523.5587	0.0048
523.7558	0.0161
523.9528	0.0171
524.1498	-0.002
524.3468	0.014
524.5438	0.0178
524.7408	0.0005
524.9378	0.0108
525.1347	0.0156
525.3316	0.0098
525.5285	0.0039
525.7254	0.0094
525.9223	0.0208
526.1192	0.0169
526.316	0.0148
526.5129	0.0121
526.7097	0.0005
526.9065	0.0069
527.1033	0.0173
527.3	0.0116
527.4968	0.0126
527.6935	0.0122
527.8903	0.0066
528.087	0.0168
528.2837	0.0115
528.4804	0.0099
528.677	0.0067
528.8737	0.0059
529.0703	0.0059
529.2669	0.0155
529.4635	0.0044
529.6601	0.0059
529.8567	0.009
530.0532	0.0089
530.2498	0.0024
530.4463	0.0078
530.6428	0.0138
530.8393	0.0157
531.0358	0.0039
531.2322	0.0005
531.4287	0.0084
531.6251	-0.0013
531.8215	0.0076
532.0179	0.013
532.2143	0.0139
532.4107	0.0271
532.607	-0.0004
532.8034	0.0113
532.9997	0.0069
533.196	0.0117
533.3923	0.0144
533.5886	0.0103
533.7848	0.0054
533.9811	0.011
534.1773	0.0058
534.3735	0.0092
534.5697	0.0123
534.7659	0.0116
534.9621	0.0096
535.1582	0.0157
535.3544	0.0117
535.5505	0.0115
535.7466	0.0056
535.9427	0.0137
536.1387	0.0088
536.3348	0.0198
536.5308	-0.0004
536.7269	0.0092
536.9229	0.0069
537.1189	0.0139
537.3148	0.0125
537.5108	0.0184
537.7068	0.0154
537.9027	-0.0036
538.0986	0.0198
538.2945	0.0066
538.4904	0.0037
538.6863	0.0068
538.8821	0.0134
539.078	0.0106
539.2738	0.0017
539.4696	0.0016
539.6654	0.0017
539.8611	0.0122
540.0569	0.0064
540.2526	0.0147
540.4484	0.0009
540.6441	0.0101
540.8398	0.0111
541.0355	0.0081
541.2311	0.0018
541.4268	0.017
541.6224	0.0208
541.818	0.0107
542.0136	0.0212
542.2092	0.0127
542.4048	0.012
542.6003	0.0096
542.7959	0.0133
542.9914	0.013
543.1869	0.0063
543.3824	0.0044
543.5779	0.0096
543.7734	0.0183
543.9688	0.0139
544.1642	0.0074
544.3596	0.0139
544.555	0.0094
544.7504	0.0179
544.9458	0.011
545.1411	0.0065
545.3365	0.0094
545.5318	0.0091
545.7271	0.0113
545.9224	-0.0031
546.1177	0.0145
546.3129	-0
546.5081	0.0093
546.7034	0.012
546.8986	0.0113
547.0938	0.0139
547.289	0.0189
547.4841	0.0141
547.6793	0.0037
547.8744	0.0118
548.0695	0.0072
548.2646	0.0113
548.4597	-0.0009
548.6548	0.0135
548.8498	0.025
549.0448	0.0091
549.2399	0.013
549.4349	0.0079
549.6298	0.0125
549.8248	0.0033
550.0198	0.0146
550.2147	0.0084
550.4096	0.008
550.6045	0.0143
550.7994	0.019
550.9943	0.0121
551.1892	-0.0051
551.384	0.0186
551.5788	0.0184
551.7737	0.0123
551.9685	0.0178
552.1632	0.0061
552.358	0.0026
552.5528	0.0044
552.7475	0.0151
552.9422	0.0062
553.1369	0.0142
553.3316	0.0107
553.5263	0.0156
553.7209	0.0042
553.9156	0.0095
554.1102	0.0163
554.3048	0.0086
554.4994	0.0063
554.694	0.0129
554.8885	0.0122
555.0831	0.0206
555.2776	0.0058
555.4721	0.012
555.6666	0.0076
555.8611	0.0067
556.0555	0.0107
556.25	0.0096
556.4444	0.0068
556.6388	0.0053
556.8332	0.0099
557.0276	0.0126
557.222	0.0039
557.4163	0.0043
557.6107	0.0101
557.805	0.0077
557.9993	0.009
558.1936	-0.0084
558.3879	0.0196
558.5821	0.0061
558.7764	-0.0036
558.9706	0.0032
559.1648	0.015
559.359	0.0079
559.5532	0.0037
559.7473	0.0084
559.9415	0.0078
560.1356	0.0189
560.3297	0.0002
560.5238	0.0094
560.7179	0.0003
560.9119	0.0116
561.106	-0.0017
561.3	0.0049
561.494	0.0006
561.688	-0.0013
561.882	0.0057
562.076	0.0059
562.2699	0.012
562.4639	0.0268
562.6578	0.02
562.8517	0.0132
563.0456	0.0021
563.2395	0.0147
563.4333	0.0023
563.6272	0.0092
563.821	0.0096
564.0148	0.0076
564.2086	0.0043
564.4024	0.0171
564.5961	0.0076
564.7899	0.0157
564.9836	0.0079
565.1773	0.023
565.371	-0.0001
565.5647	0.0125
565.7584	0.0185
565.952	0.0151
566.1456	0.0061
566.3393	0.021
566.5329	0.0059
566.7264	0.0173
566.92	0.0029
567.1136	0.0051
567.3071	-0.0008
567.5006	0.0134
567.6941	0.0064
567.8876	0.0081
568.0811	0.0195
568.2745	0.0027
568.468	0.0091
568.6614	0.0059
568.8548	0.0087
569.0482	0.0177
569.2416	0.0134
569.4349	0.0079
569.6283	0.011
569.8216	0.01
570.0149	0.0042
570.2082	0.0153
570.4015	0.0099
570.5947	0.0093
570.788	0.0077
570.9812	0.0021
571.1744	0.01
571.3676	0.0051
571.5608	0.009
571.754	0.0158
571.9471	0.0115
572.1402	0.0078
572.3333	0.0121
572.5264	0.009
572.7195	0.0104
572.9126	0.0069
573.1057	0.0089
573.2987	0.0089
573.4917	0.0076
573.6847	0.0096
573.8777	0.0122
574.0707	0.0088
574.2636	0.0076
574.4566	0.0056
574.6495	0.0064
574.8424	0.0128
575.0353	0.0093
575.2281	0.0169
575.421	0.0124
575.6138	0.0036
575.8067	0.0114
575.9995	0.0082
576.1923	0.0107
576.385	0.0101
576.5778	0.0141
576.7706	0.0099
576.9633	0.0093
577.156	0.0034
577.3487	0.0063
577.5414	0.004
577.734	0.008
577.9267	0.0092
578.1193	0.0104
578.3119	0.0059
578.5045	0.0103
578.6971	0.007
578.8897	0.0073
579.0822	0.0128
579.2747	0.0072
579.4673	0.0108
579.6598	0.0116
579.8522	0.0063
580.0447	0.0084
580.2372	0.0138
580.4296	0.0118
580.622	0.007
580.8144	0.0117
581.0068	0.0079
581.1992	0.0092
581.3915	0.0035
581.5839	0.0079
581.7762	0.0042
581.9685	0.0082
582.1608	0.0107
582.353	0.0055
582.5453	0.0107
582.7375	0.0089
582.9298	0.0056
583.122	0.0068
583.3142	0.0119
583.5063	0.009
583.6985	0.0022
583.8906	0.0066
584.0827	0.0135
584.2749	0.0073
584.4669	0.0087
584.659	0.0099
584.8511	0.0115
585.0431	0.0099
585.2352	0.0059
585.4272	0.0095
585.6192	0.0092
585.8111	0.0075
586.0031	0.009
586.195	0.0041
586.387	0.0117
586.5789	0.0061
586.7708	0.01
586.9627	0.0114
587.1545	0.0058
587.3464	0.01
587.5382	0.0042
587.73	0.012
587.9218	0.0069
588.1136	0.0017
588.3053	0.0076
588.4971	0.0072
588.6888	0.0041
588.8805	0.0067
589.0722	0.0167
589.2639	0.0074
589.4556	0.0083
589.6472	0.0172
589.8389	0.0054
590.0305	0.0055
590.2221	0.0065
590.4137	0.0085
590.6052	0.0064
590.7968	0.0089
590.9883	0.0084
591.1798	0.0084
591.3713	0.0112
591.5628	0.0133
591.7543	0.004
591.9458	0.0057
592.1372	0.0109
592.3286	0.002
592.52	0.0064
592.7114	0.0063
592.9028	0.014
593.0941	0.0064
593.2855	0.0067
593.4768	0.0116
593.6681	0.0122
593.8594	0.0088
594.0506	0.0055
594.2419	0.0098
594.4331	0.0052
594.6244	0.0042
594.8156	0.0038
595.0067	-0.0014
595.1979	0.0045
595.3891	0.0079
595.5802	0.0138
595.7713	0.0135
595.9624	0.0068
596.1535	0.0063
596.3446	0.0075
596.5357	0.0074
596.7267	0.0105
596.9177	0.0091
597.1087	0.0062
597.2997	0.0098
597.4907	0.0071
597.6817	0.0115
597.8726	0.0143
598.0635	0.0037
598.2544	0.0099
598.4453	0.0108
598.6362	0.013
598.827	0.0068
599.0179	0.0115
599.2087	0.0128
599.3995	0.0085
599.5903	0.0111
599.7811	0.015
599.9718	0.0055
600.1626	0.0064
600.3533	0.0086
600.544	0.0073
600.7347	0.0135
600.9254	0.0118
601.116	0.0096
601.3067	0.0102
601.4973	0.0163
601.6879	0.0062
601.8785	0.0138
602.0691	0.0043
602.2596	0.0099
602.4502	0.0078
602.6407	0.0067
602.8312	0.0091
603.0217	0.0064
603.2122	0.01
603.4027	0.0086
603.5931	0.0064
603.7835	0.0156
603.9739	0.0028
604.1643	0.0141
604.3547	0.0114
604.5451	0.0147
604.7354	0.0068
604.9257	0.0069
605.116	0.0052
605.3063	0.0102
605.4966	0.0051
605.6869	0.012
605.8771	0.0081
606.0673	0.012
606.2575	0.0084
606.4477	0.014
606.6379	0.0031
606.8281	0.0104
607.0182	0.0116
607.2083	0.0099
607.3985	0.0052
607.5885	0.0048
607.7786	0.0066
607.9687	0.0093
608.1587	0.0171
608.3488	0.0071
608.5388	0.0027
608.7288	0.0006
608.9187	0.0114
609.1087	0.0138
609.2986	0.0152
609.4886	0.0051
609.6785	0.0113
609.8684	0.0042
610.0582	0.0052
610.2481	-0.0029
610.4379	0.0119
610.6278	0.0062
610.8176	0.0155
611.0074	0.0105
611.1971	0.0072
611.3869	0.0109
611.5766	0.0001
611.7664	0.0137
611.9561	0.0119
612.1458	0.0153
612.3354	0.0119
612.5251	0.0065
612.7147	0.0117
612.9044	0.0069
613.094	0.0155
613.2836	0.0149
613.4731	0.011
613.6627	0.0131
613.8522	0.0134
614.0417	0.0164
614.2313	0.0039
614.4207	0.0073
614.6102	0.0063
614.7997	0.0138
614.9891	0.0081
615.1785	0.0016
615.3679	0.0129
615.5573	0.0112
615.7467	0.0097
615.9361	0.0079
616.1254	0.0132
616.3147	0.0065
616.504	0.0135
616.6933	0.0094
616.8826	0.0051
617.0718	0.0165
617.2611	-0.0004
617.4503	0.0083
617.6395	0.0023
617.8287	0.0135
618.0179	0.0139
618.207	0.0122
618.3961	0.0069
618.5853	0.0096
618.7744	0.0121
618.9634	0.0113
619.1525	0.0115
619.3416	0.0076
619.5306	0.015
619.7196	0.0166
619.9086	0.0068
620.0976	-0.0039
620.2866	0.0132
620.4755	0.0141
620.6645	0.0172
620.8534	0.0196
621.0423	0.0016
621.2312	0.0032
621.42	0.0039
621.6089	0.0151
621.7977	0.0139
621.9865	-0.0005
622.1753	0.0021
622.3641	0.0015
622.5529	0.0157
622.7416	-0
622.9303	-0.0009
623.1191	0.0108
623.3078	0.0023
623.4964	0.0102
623.6851	0.0106
623.8737	0.0112
624.0624	-0.0055
624.251	0.0072
624.4396	0.0089
624.6282	0.0171
624.8167	0.0042
625.0053	0.0186
625.1938	0.0056
625.3823	0.0127
625.5708	0.0013
625.7593	0.0039
625.9477	0.0232
626.1362	-0.0024
626.3246	0.007
626.513	0.0142
626.7014	0.0091
626.8898	0.0173
627.0781	0.0047
627.2665	0.011
627.4548	-0.0047
627.6431	0.0078
627.8314	0.0152
628.0197	0.014
628.2079	0.0006
628.3962	0.0041
628.5844	0.0139
628.7726	-0.0018
628.9608	0.0175
629.1489	0.0145
629.3371	0.0013
629.5252	0.0062
629.7134	-0.0049
629.9015	0.0176
630.0895	-0.0089
630.2776	0.0094
630.4657	0.0117
630.6537	0.0072
630.8417	-0.0061
631.0297	0.0021
631.2177	0.0064
631.4057	0.0114
631.5936	0.0004
631.7815	0.009
631.9695	0.0264
632.1574	0.0237
632.3452	0.0171
632.5331	0.0035
632.7209	0.0197
632.9088	0.0112
633.0966	0.0333
633.2844	0.0147
633.4722	0.012
633.6599	0.0306
633.8477	0.0108
634.0354	0.0128
634.2231	-0.0117
634.4108	0.0172
634.5985	0.0107
634.7861	-0.0029
634.9738	0.0013
635.1614	0
635.349	0.0127
635.5366	0.0271
635.7242	0.0098
635.9117	0.0108
636.0993	0.0211
636.2868	0.0047
636.4743	0.0085
636.6618	-0.006
636.8492	0.0064
637.0367	-0.0023
637.2241	-0.0061
637.4115	0.029
637.5989	0.0085
637.7863	0.0189
637.9737	0.0196
638.161	0.0015
638.3484	0.0158
638.5357	-0.0046
638.723	0.02
638.9103	0.0037
639.0975	0.0078
639.2848	0.0147
639.472	0.0181
639.6592	-0.0161
639.8464	0.0156
640.0336	0.021
640.2208	-0.0095
640.4079	0.0233
640.595	0.0012
640.7821	0.0085
640.9692	0.0096
641.1563	0.0139
641.3434	0.0084
641.5304	0.0203
641.7174	0.0305
641.9044	0.0145
642.0914	0.0253
642.2784	0.0036
642.4653	-0.0005
642.6523	0.0119
642.8392	-0.0112
643.0261	0.031
643.213	0.0175
643.3999	0.018
643.5867	0.0072
643.7735	0.0071
643.9604	0.0141
644.1472	0.0106
644.3339	-0.0053
644.5207	-0.0042
644.7075	0.0041
644.8942	0.0002
645.0809	-0.0012
645.2676	0.0056
645.4543	-0.0002
645.6409	0.007
645.8276	0.0115
646.0142	0.0255
646.2008	0.0005
646.3874	-0.0006
646.574	0.0095
646.7605	0.0132
646.9471	0.0143
647.1336	-0.0156
647.3201	0.0077
647.5066	0.0238
647.6931	0.0164
647.8795	0.0015
648.0659	0.0009
648.2524	0.0161
648.4388	0.0133
648.6252	0.0139
648.8115	0.0027
648.9979	0.0146
649.1842	0.0133
649.3705	0.0155
649.5568	-0.0002
649.7431	0.0006
649.9294	-0.0016
650.1156	0.0089
650.3018	0.0044
650.488	0.0075
650.6742	0.0241
650.8604	0.0037
651.0466	-0.0101
651.2327	0.0028
651.4188	0.0105
651.6049	0.0139
651.791	0.0074
651.9771	0.0091
652.1632	0.0172
652.3492	0.0135
652.5352	0.0345
652.7212	0.0119
652.9072	0.0088
653.0932	0.0293
653.2791	0.0039
653.465	0.0084
653.651	0.0064
653.8369	0.0173
654.0227	-0.0028
654.2086	0.0252
654.3944	0.0179
654.5803	0.0176
654.7661	0.0094
654.9519	0.0032
655.1377	0.0001
655.3234	0.0001
655.5092	0.0001
655.6949	0.0001
655.8806	0.0001
656.0663	0.0001
656.2519	0.0001
656.4376	0.0001
656.6232	0.0001
656.8088	0.0001
656.9945	0.0001
657.18	0.0001
657.3656	0.0001
657.5511	0.0001
657.7367	0.0001
657.9222	0.0001
658.1077	0.0001
658.2932	0.0001
658.4786	0.0001
658.6641	0.0001
658.8495	0.0001
659.0349	0.0001
659.2203	0.0001
659.4057	0.0067
659.591	0.3126
659.7764	0.0381
659.9617	0.013
660.147	0.0326
660.3323	0.0205
660.5176	0.0064
660.7028	0.0121
660.888	0.0176
661.0733	0.0462
661.2585	0.002
661.4436	0.0136
661.6288	0.0264
661.8139	-0.0055
661.9991	-0.0099
662.1842	0.0034
662.3693	-0.0065
662.5544	0.0105
662.7394	0.0251
662.9245	0.0003
663.1095	-0.0065
663.2945	-0.0025
663.4795	-0.0102
663.6644	0.0024
663.8494	0.0232
664.0343	0.019
664.2193	-0.001
664.4042	0.0123
664.589	0.0229
664.7739	0.016
664.9587	-0.0047
665.1436	-0.0077
665.3284	0.0205
665.5132	-0.0032
665.698	0.0133
665.8827	0.0257
666.0675	-0.0115
666.2522	0.044
666.4369	0.0095
666.6216	0.0173
666.8063	0.0169
666.9909	-0.0034
667.1756	-0.0013
667.3602	-0.0042
667.5448	0.0125
667.7294	0.0335
667.9139	0.0003
668.0985	0.0389
668.283	0.002
668.4675	0.0178
668.652	0.0262
668.8365	0.0179
669.0209	0.0062
669.2054	0.0142
669.3898	0.0125
669.5742	0.0078
669.7586	0.0346
669.943	0.0117
670.1273	0.02
670.3117	0.0092
670.496	0.0134
670.6803	-0
670.8646	-0.0175
671.0488	0.0374
671.2331	-0.005
671.4173	0.0246
671.6015	0.0085
671.7857	0.0186
671.9699	0.0064
672.1541	0.0197
672.3382	0.0049
672.5223	0.0141
672.7064	0.0093
672.8905	0.0138
673.0746	0.0141
673.2587	0.0211
673.4427	0.0172
673.6267	0.0243
673.8107	0.0239
673.9947	0.0205
674.1787	0.0195
674.3626	0.007
674.5465	-0.01
674.7304	0.0102
674.9143	0.0071
675.0982	-0.0049
675.2821	0.0076
675.4659	0.0078
675.6497	0.0113
675.8335	0.0146
676.0173	-0.0166
676.2011	0.0112
676.3849	0.0197
676.5686	0.0209
676.7523	0.0086
676.936	0.0209
677.1197	-0.009
677.3034	0.0397
677.487	0.0089
677.6706	0.0018
677.8542	0.0121
678.0378	-0.018
678.2214	-0.0046
678.405	0.011
678.5885	0.0115
678.772	0.016
678.9555	0.0103
679.139	0.0208
679.3225	0.0061
679.5059	-0.0034
679.6894	0.019
679.8728	0.0064
680.0562	-0.0066
680.2395	0.0267
680.4229	0.0126
680.6062	0.0026
680.7896	-0.0073
680.9729	0.0206
681.1562	0.0049
681.3394	0.0036
681.5227	0.0123
681.7059	0.0055
681.8891	0.0249
682.0723	0.0196
682.2555	-0.0059
682.4387	0.0221
682.6218	0.0287
682.805	0.0157
682.9881	0.0274
683.1712	0.0122
683.3542	0.0153
683.5373	0.0099
683.7203	0.0202
683.9034	0.0013
684.0864	0.0092
684.2694	0.0056
684.4523	0.0123
684.6353	0.0065
684.8182	0.0078
685.0011	0.0082
685.184	0.0092
685.3669	0.0319
685.5498	0.0124
685.7326	-0.0015
685.9154	-0.002
686.0982	0.0287
686.281	0.0083
686.4638	0.013
686.6465	0.0092
686.8293	-0.0184
687.012	0.0126
687.1947	0.0081
687.3774	0.0273
687.56	-0.0077
687.7427	0.0061
687.9253	-0.0095
688.1079	0.0015
688.2905	0.0129
688.4731	0.0323
688.6556	-0.0067
688.8382	-0.0023
689.0207	0.0099
689.2032	0.033
689.3857	0.0067
689.5681	0.0235
689.7506	0.0401
689.933	-0.0025
690.1154	0.0048
690.2978	0.0059
690.4802	0.022
690.6626	0.008
690.8449	0.0116
691.0272	-0.0023
691.2095	-0.0011
691.3918	0.0182
691.5741	0.0345
691.7563	0.0051
691.9386	0.0187
692.1208	0.0094
692.303	0.0107
692.4852	0.0123
692.6673	0.0166
692.8495	0.0076
693.0316	0.0203
693.2137	0.0136
693.3958	0.0048
693.5778	0.0232
693.7599	-0.0039
693.9419	-0.0048
694.1239	0.0079
694.3059	0.0244
694.4879	0.0047
694.6699	0.0077
694.8518	0.0095
695.0337	0.0379
695.2157	0.026
695.3975	0.0189
695.5794	0.0075
695.7613	0.0295
695.9431	-0.0147
696.1249	0.0169
696.3067	0.0013
696.4885	0.0123
696.6703	0.0124
696.852	0.0038
697.0337	0.0212
697.2154	0.0203
697.3971	0.0123
697.5788	0.0116
697.7605	0.0041
697.9421	0.0345
698.1237	0.022
698.3053	-0.0092
698.4869	-0.0063
698.6685	-0.0021
698.85	0.0181
699.0315	0.0038
699.213	0.0197
699.3945	0.0096
699.576	0.0106
699.7575	0.0388
699.9389	0.0012
700.1203	0.0105
700.3017	-0.0047
700.4831	0.0247
700.6645	0.0479
700.8458	0.008
701.0271	0.0837
701.2084	0.0115
701.3897	0.0171
701.571	-0.0093
701.7523	0.0087
701.9335	0.0037
702.1147	0.0195
702.2959	-0.0118
702.4771	0.0145
702.6583	0.0086
702.8394	-0.0139
703.0205	0.0158
703.2016	0.0069
703.3827	0.0035
703.5638	0.0038
703.7449	0.0282
703.9259	0.0132
704.1069	-0.0192
704.2879	-0.0012
704.4689	0.0161
704.6499	0.0148
704.8308	0.0023
705.0117	0.0405
705.1927	0.0207
705.3735	0.036
705.5544	0.0169
705.7353	0.0263
705.9161	-0.003
706.0969	0.027
706.2777	0.0264
706.4585	0.0084
706.6393	0.0118
706.82	0.0162
707.0007	0.0044
707.1815	-0.0059
707.3621	0.0339
707.5428	0.0041
707.7235	0.004
707.9041	0.0115
708.0847	0.0013
708.2653	0.0496
708.4459	0.0267
708.6265	-0.007
708.807	-0.0079
708.9875	-0.0011
709.168	0.0217
709.3485	0.0224
709.529	-0.0035
709.7095	0.0215
709.8899	0.0183
710.0703	0.0161
710.2507	-0.0059
710.4311	-0.0013
710.6115	0.0324
710.7918	0.0229
710.9721	0.0317
711.1524	0.0041
711.3327	0.0051
711.513	0.0125
711.6932	0.0261
711.8735	0.0191
712.0537	0.0082
712.2339	0.0262
712.4141	0.0326
712.5942	0.0236
712.7744	0.012
712.9545	0.0074
713.1346	0.029
713.3147	0.0321
713.4947	-0.0038
713.6748	0.0021
713.8548	0.0262
714.0348	0.0075
714.2148	0.0291
714.3948	0.0296
714.5748	0.0127
714.7547	0.0246
714.9346	0.0298
715.1145	-0.0069
715.2944	-0.0052
715.4743	0.0338
715.6541	-0.011
715.834	0.0471
716.0138	0.0067
716.1936	-0.0095
716.3733	0.003
716.5531	0.0209
716.7328	0.0052
716.9126	0.0377
717.0923	0.0076
717.2719	0.0296
717.4516	0.0169
717.6312	0.0076
717.8109	0.0291
717.9905	0.0124
718.1701	0.0104
718.3496	0.002
718.5292	0.0015
718.7087	0.0015
718.8882	0.0221
719.0677	0.0168
719.2472	0.0018
719.4267	0.0052
719.6061	-0.0322
719.7856	0.0269
719.965	-0.0029
720.1443	-0.0135
720.3237	0.0024
720.5031	0.0019
720.6824	-0.0079
720.8617	0.033
721.041	0.0242
721.2203	0.0098
721.3995	-0.0087
721.5788	0.0152
721.758	-0.0316
721.9372	-0.008
722.1164	0.0069
722.2956	0.0102
722.4747	0.0115
722.6538	-0.0109
722.8329	0.0414
723.012	0.0209
723.1911	0.0271
723.3702	0.03
723.5492	0.022
723.7282	0.0017
723.9072	0.0218
724.0862	0.0173
724.2652	0.0485
724.4441	0.012
724.623	0.0118
724.8019	-0.0057
724.9808	-0.0044
725.1597	0.018
725.3385	0.0254
725.5174	0.0272
725.6962	0.0027
725.875	0.0224
726.0538	-0.0052
726.2325	0.0472
726.4112	-0.0063
726.59	-0.0046
726.7687	0.0008
726.9474	0.0194
727.126	0.0226
727.3047	0.0024
727.4833	0.0308
727.6619	-0.0018
727.8405	-0.0187
728.0191	0.0349
728.1976	0.0071
728.3762	0.0198
728.5547	-0.0065
728.7332	0.0344
728.9116	0.0219
729.0901	0.0233
729.2686	0.0128
729.447	-0.0288
729.6254	0.0086
729.8038	0.0134
729.9821	0.0089
730.1605	0.0123
730.3388	0.0182
730.5171	0.0228
730.6954	-0.0088
730.8737	0.0188
731.0519	0.02
731.2302	0.0144
731.4084	0.0081
731.5866	0.0035
731.7648	0.01
731.9429	0.0423
732.1211	0.0042
732.2992	-0.0032
732.4773	0.0168
732.6554	-0.0147
732.8335	0.0391
733.0115	0.0219
733.1896	-0.0045
733.3676	0.0256
733.5456	0.0148
733.7235	0.011
733.9015	0.0077
734.0794	-0.0014
734.2574	-0.013
734.4353	0.0123
734.6131	0.002
734.791	-0.0022
734.9689	-0.0011
735.1467	0.0044
735.3245	0.0372
735.5023	0.0137
735.68	0.0256
735.8578	0.0161
736.0355	0.0171
736.2132	0.0077
736.3909	0.0075
736.5686	0.0138
736.7463	-0.0165
736.9239	0.0251
737.1015	0.0196
737.2791	0.0238
737.4567	0.0156
737.6343	-0.0032
737.8118	0.0246
737.9894	0.0025
738.1669	0.0104
738.3444	0.0368
738.5218	-0.0292
738.6993	0.0124
738.8767	-0.0005
739.0541	0.0055
739.2315	0.0011
739.4089	0.0215
739.5863	0.0255
739.7636	-0.0058
739.9409	0.0163
740.1182	0.0089
740.2955	0.0102
740.4728	0.0035
740.65	0.0133
740.8272	0.0015
741.0044	0.0053
741.1816	0.0392
741.3588	0.0148
741.5359	-0.0045
741.7131	0.0018
741.8902	-0.0082
742.0673	-0.0061
742.2444	0.0606
742.4214	0.0209
742.5985	0.0266
742.7755	0.0114
742.9525	-0.0284
743.1295	-0.0259
743.3064	0.0138
743.4834	-0.0074
743.6603	0.0589
743.8372	-0.031
744.0141	0.024
744.191	0.027
744.3678	-0.0334
744.5446	0.0119
744.7215	0.0009
744.8982	-0.0005
745.075	0.0701
745.2518	0.0247
745.4285	0.0283
745.6052	-0.0024
745.7819	0.0339
745.9586	0.0313
746.1353	0.0182
746.3119	0.0276
746.4885	0.037
746.6651	0.0171
746.8417	0.012
747.0183	0.0276
747.1948	0.0217
747.3714	0.0246
747.5479	0.0061
747.7244	-0.0193
747.9008	-0.0022
748.0773	0.0632
748.2537	0.0404
748.4301	0.0193
748.6065	-0.0155
748.7829	-0.0054
748.9593	-0.0053
749.1356	0.0125
749.3119	0.0162
749.4882	0.0239
749.6645	0.0135
749.8408	0.0171
750.017	0.0203
750.1933	-0.0146
750.3695	0.0173
750.5457	0.0141
750.7218	0.0084
750.898	0.0064
751.0741	0.0035
751.2502	0.0093
751.4263	0.0164
751.6024	0.0068
751.7784	0.0208
751.9545	0.0158
752.1305	0.0138
752.3065	0.0039
752.4825	0.0028
752.6584	0.0208
752.8344	-0.0102
753.0103	-0.0135
753.1862	0.0221
753.3621	0.0126
753.5379	-0.0116
753.7138	-0.0024
753.8896	0.0025
754.0654	0.0137
754.2412	0.0144
754.417	0.0126
754.5927	0.0417
754.7685	-0
754.9442	0.017
755.1199	0.0091
755.2956	0.0197
755.4712	0.0009
755.6469	0.0155
755.8225	0.0246
755.9981	0.0167
756.1736	0.0132
756.3492	0.0034
756.5248	0.0173
756.7003	-0.0037
756.8758	0.0117
757.0513	0.0208
757.2267	0.0033
757.4022	-0.0012
757.5776	0.0117
757.753	0.0242
757.9284	0.0002
758.1038	0.0191
758.2791	0.0318
758.4545	0.0096
758.6298	0.0086
758.8051	-0.0032
758.9803	0.0026
759.1556	0.0009
759.3308	0.0048
759.506	-0.0107
759.6812	0.0091
759.8564	0.0102
760.0316	-0.0079
760.2067	0.0239
760.3819	0.0032
760.557	0.004
760.732	-0.0065
760.9071	0.0389
761.0821	-0.0013
761.2572	0.0201
761.4322	0.0042
761.6072	-0.0067
761.7821	-0.0036
761.9571	0.0311
762.132	0.0015
762.3069	0.0268
762.4818	0.0259
762.6567	0.0004
762.8316	0.0137
763.0064	0.0208
763.1812	0.0039
763.356	-0.0269
763.5308	0.038
763.7055	-0.0031
763.8803	0.002
764.055	0.015
764.2297	-0.0026
764.4044	0.0141
764.579	0.0081
764.7537	0.0104
764.9283	0.0244
765.1029	0.0158
765.2775	0.0219
765.4521	0.0091
765.6266	0.029
765.8011	0.0183
765.9756	0.0218
766.1501	-0.005
766.3246	0.0228
766.4991	0.0029
766.6735	0.0622
766.8479	0.0032
767.0223	0.0172
767.1967	0.0202
767.371	0.0438
767.5454	0.0152
767.7197	0.0394
767.894	0.0232
768.0683	0.0214
768.2425	0.0046
768.4168	0.0156
768.591	-0
768.7652	0.0026
768.9394	-0.018
769.1135	0.0199
769.2877	0.0375
769.4618	0.0312
769.6359	-0.0033
769.81	0.0219
769.984	0.0243
770.1581	-0.0085
770.3321	0.0563
770.5061	-0.0036
770.6801	0.0163
770.8541	0.0337
771.028	0.0298
771.202	0.0521
771.3759	0.0238
771.5498	0.0353
771.7236	0.0267
771.8975	0.0277
772.0713	0.0163
772.2451	-0.0024
772.4189	0.0214
772.5927	-0.0416
772.7665	0.0194
772.9402	0.0337
773.1139	0.0078
773.2876	0.0214
773.4613	-0.0034
773.635	0.0299
773.8086	0.0376
773.9822	0.0375
774.1558	0.0242
774.3294	0.0223
774.503	0.0112
774.6765	0.0173
774.8501	0.0125
775.0236	0.098
775.1971	-0.0245
775.3705	-0.0145
775.544	-0.0357
775.7174	-0.0081
775.8908	0.0317
776.0642	0.0271
776.2376	0.0578
776.4109	0.0113
776.5843	-0.0172
776.7576	-0.0166
776.9309	0.0764
777.1041	-0.0462
777.2774	0.0318
777.4506	-0
777.6238	-0.0163
777.797	-0.0021
777.9702	0.018
778.1434	0.0183
778.3165	-0.0199
778.4896	-0.0298
778.6627	0.0344
778.8358	0.0023
779.0089	0.0067
779.1819	0.044
779.3549	0.0029
779.5279	-0.0026
779.7009	0.0649
779.8739	0.0496
780.0468	0.0399
780.2197	0.0047
780.3926	0.0167
780.5655	0.0211
780.7384	0.0031
780.9112	0.0133
781.0841	0.0248
781.2569	0.042
781.4297	-0.0086
781.6024	0.0486
781.7752	0.0606
781.9479	0.0631
782.1206	0.0462
782.2933	0.0275
782.466	0.0124
782.6386	0.0046
782.8113	-0.0029
782.9839	0.0291
783.1565	0.0033
783.329	0.0177
783.5016	0.0393
783.6741	0.0074
783.8466	0.0729
784.0191	0.0203
784.1916	0.0048
784.3641	-0.053
784.5365	0.0382
784.7089	-0.0383
784.8813	0.0663
785.0537	0.0239
785.2261	-0.0188
785.3984	0.0126
785.5707	-0.0258
785.743	0.0281
785.9153	0.0022
786.0876	-0.0448
786.2598	-0.0067
786.432	0.0105
786.6042	0.0586
786.7764	-0.0172
786.9486	0.0191
787.1207	0.0401
787.2928	0.0853
787.4649	-0.0159
787.637	0.0144
787.8091	0.0143
787.9811	0.0374
788.1532	0.0465
788.3252	0.0351
788.4972	0.0072
788.6691	0.0284
788.8411	0.0042
789.013	0.0134
789.1849	-0.0208
789.3568	-0.0039
789.5287	0.0517
789.7005	0.0134
789.8723	-0.0299
790.0442	-0.039
790.2159	0.055
790.3877	0.0294
790.5595	0.0506
790.7312	-0.0157
790.9029	-0.0041
791.0746	0.0428
791.2463	0.0012
791.4179	0.0183
791.5896	0.0391
791.7612	0.0408
791.9328	-0.0242
792.1044	0.0127
792.2759	-0.0718
792.4474	0.0427
792.619	0.0429
792.7905	-0.0034
792.9619	0.0126
793.1334	0.0469
793.3048	0.0648
793.4762	0.0377
793.6476	-0.05
793.819	0.0121
793.9904	-0.0114
794.1617	0.0063
794.333	0.0153
794.5043	0.0365
794.6756	0.0123
794.8469	0.0219
795.0181	0.0051
795.1893	0.0296
795.3605	0.0349
795.5317	-0.0133
795.7029	-0.0245
795.874	0.0309
796.0452	0.0155
796.2163	0.0995
796.3873	0.04
796.5584	-0.0048
796.7294	0.0675
796.9005	0.0837
797.0715	0.0128
797.2425	0.1195
797.4134	0.0983
797.5844	0.1173
797.7553	-0.021
797.9262	0.0468
798.0971	-0.0133
798.2679	-0.027
798.4388	0.087
798.6096	0.0583
798.7804	0.0382
798.9512	0.0118
799.122	-0.0285
799.2927	0.0957
799.4635	-0.0383
799.6342	-0.0808
799.8049	0.0712
799.9755	-0.0206
800.1462	0.0014
800.3168	-0.0013
800.4874	-0.0223
800.658	0.0055
800.8286	0.0062
800.9991	0.0275
801.1696	0.0059
801.3402	-0.0196
801.5106	0.0442
801.6811	-0.0105
801.8516	0.0711
802.022	0.0456
802.1924	-0.0529
802.3628	-0.0447
802.5332	0.0891
802.7035	0.0178
802.8739	0.0407
803.0442	-0.0092
803.2145	0.0521
803.3847	-0.0092
803.555	-0.0203
803.7252	-0.0673
803.8954	-0.0554
804.0656	0.0564
804.2358	0.0243
804.4059	0.0371
804.5761	0.0396
804.7462	0.0194
804.9163	0.016
805.0864	-0.0477
805.2564	-0.0466
805.4264	0.0254
805.5965	0.0668
805.7665	-0.003
805.9364	-0.0031
806.1064	-0.007
806.2763	0.0542
806.4462	0.0103
806.6161	0.0433
806.786	0.0101
806.9559	0.0516
807.1257	-0.0227
807.2955	0.0023
807.4653	0.0121
807.6351	0.0588
807.8048	0.0055
807.9746	0.0403
808.1443	0.0165
808.314	0.0443
808.4837	0.0866
808.6533	0.0225
808.8229	0.0084
808.9926	-0.0365
809.1622	0.0712
809.3317	-0.0426
809.5013	0.0867
809.6708	-0.0066
809.8403	0.025
810.0098	0.0237
810.1793	-0.0204
810.3488	0.0197
810.5182	0.1105
810.6876	-0.0115
810.857	0.0441
811.0264	-0.0499
811.1958	0.1053
811.3651	0.042
811.5344	0.1245
811.7037	0.1355
811.873	0.0034
812.0422	-0.031
812.2115	0.0215
812.3807	-0.1163
812.5499	-0.0178
812.7191	0.0257
812.8882	-0.1174
813.0574	-0.0741
813.2265	0.034
813.3956	0.065
813.5646	0.0479
813.7337	0.0677
813.9027	0.0364
814.0718	0.0057
814.2407	-0.0295
814.4097	0.0183
814.5787	0.0881
814.7476	-0.0349
814.9165	0.0347
815.0854	-0.0517
815.2543	-0.0023
815.4232	0.1031
815.592	0.0051
815.7608	-0.0841
815.9296	0.1
816.0984	0.0444
816.2671	-0.3775
816.4359	0.0774
816.6046	0.0092
816.7733	-0.0951
816.942	0.0853
817.1106	0.0831
817.2793	-0.0225
817.4479	0.0827
817.6165	0.0411
817.785	0.0762
817.9536	-0.0764
818.1221	0.0643
818.2906	-0.0594
818.4591	0.0444
818.6276	0.0574
818.7961	-0.0862
818.9645	0.0809
819.1329	0.4289
819.3013	-0.0703
819.4697	-0.0054
819.638	0.1816
819.8064	0.0827
819.9747	0.0596
820.143	-0.0761
820.3113	0.0533
820.4795	0.074
820.6477	0.1214
820.816	0.0656
820.9842	0.1298
821.1523	0.0542
821.3205	0.0447
821.4886	-0.0467
821.6567	-0.0709
821.8248	0.1184
821.9929	-0.1612
822.1609	0.0171
822.329	-0.0659
822.497	0.118
822.665	0.0972
822.833	-0.0757
823.0009	-0.0972
823.1688	0.089
823.3367	-0.1115
823.5046	0.0772
823.6725	-0.075
823.8404	0.0562
824.0082	0.0071
824.176	0.005
824.3438	0.0346
824.5116	0.0197
824.6793	0.052
824.847	0.1952
825.0147	0.18
825.1824	0.0863
825.3501	0.2981
825.5177	-0.0616
825.6854	-0.151
825.853	0.044
826.0206	-0.0666
826.1881	0.0073
826.3557	0.0108
826.5232	0.1491
826.6907	0.0942
826.8582	0.1227
827.0257	0.3698
827.1931	0.085
827.3605	0.0196
827.528	-0.1294
827.6953	-0.0434
827.8627	-0.0606
828.03	0.0532
828.1974	0.0034
828.3647	0.0165
828.532	-0.0309
828.6992	0.197
828.8665	0.0604
829.0337	0.1903
829.2009	-0.0885
829.3681	0.0614
829.5352	-0.3428
829.7024	0.3589
829.8695	-0.0601
830.0366	0.1622
830.2037	0.0513
830.3707	0.0354
830.5378	0.0405
830.7048	-0.1065
830.8718	0.16
831.0388	-0.1697
831.2057	0.0859
831.3727	-0.5358
831.5396	0.0148
831.7065	-0.975
831.8734	1.0241
832.0402	0.1568
832.2071	-0.475
832.3739	-0.0838
832.5407	-1.4792
832.7075	-0.258
832.8742	0.8034
833.041	0.308
833.2077	0.0773
833.3744	0.1214
833.541	-0.0356
833.7077	-0.177
833.8743	0.4764
834.0409	0.1684
834.2075	0.2074
834.3741	0.0071
834.5407	0.1616
834.7072	0.0122
834.8737	0.0269
835.0402	0.448
835.2067	-0.0785
835.3731	-0.046
835.5395	-0.0286
835.706	0.2046
835.8723	-0.0756
836.0387	-0.1469
836.2051	-0.1607
836.3714	-0
836.5377	0.2964
836.704	-0.0711
836.8703	0.0921
837.0365	-0.4337
837.2027	-0.1238
837.3689	0.4063
837.5351	0.3718
837.7013	0.0418
837.8674	1.4538
838.0335	0.0988
838.1997	0.1189
838.3657	-0
838.5318	-0.1453
838.6978	-0
838.8639	0.1361
839.0299	-0.02
839.1958	0.0236
839.3618	0.5793
839.5277	0.0129
839.6937	-0.2044
839.8596	-0.3898
840.0254	0.1492
840.1913	-0.0948
840.3571	0.0881
840.523	-0
840.6888	0.1197
840.8545	-0.3994
841.0203	0.4406
841.186	0.1814
841.3517	0.1421
841.5174	0.3194
841.6831	0.3673
841.8488	0.731
842.0144	-0
842.18	0.4404
842.3456	1.3339
842.5112	-0
842.6767	-0.1074
842.8422	-0.056
843.0077	-0.0975
843.1732	-0.3357
843.3387	0.2679
843.5042	-0
843.6696	1.0439
843.835	0.1482
844.0004	-0.1078
844.1657	-0
844.3311	0.6384
844.4964	-0.5658
844.6617	0.6753
844.827	0.8917
844.9923	0.4812
845.1575	-0
845.3227	-0.3341
845.4879	-0.1224
845.6531	0.3237
845.8183	0.0186
845.9834	-0.0569
846.1485	0.3246
846.3136	-0.1115
846.4787	-0
846.6438	0.2679
846.8088	0.4467
846.9738	-0
847.1388	0.1414
847.3038	0.5203
847.4687	0.1292
847.6337	-0.1084
847.7986	-0.2595
847.9635	-0.0505
848.1284	-0
848.2932	0.6811
848.458	-0
848.6228	1.1511
848.7876	-0
848.9524	-0
849.1172	-1.642
849.2819	-0.4386
849.4466	0.2573
849.6113	0.5364
849.7759	-0.2636
849.9406	-0.0195
850.1052	-0
850.2698	0.2671
850.4344	-0
850.599	0.6196
850.7635	-0.0085
850.928	0.0172
851.0925	0.1819
851.257	0.4492
851.4215	-0
851.5859	-0.1204
851.7503	-0
851.9147	-0
852.0791	-0.2076
852.2434	-0.0191
852.4078	-0
852.5721	-0
852.7364	-0
852.9007	0.0271
853.0649	-0
853.2291	0.2776
853.3934	-0
853.5575	0.2212
853.7217	0.0113
853.8859	-0.5266
854.05	-0.1455
854.2141	0.3345
854.3782	-0
854.5423	-0.3841
854.7063	-0.0995
854.8703	-0.0884
855.0343	-0.1913
855.1983	0.3523
855.3623	0.5795
855.5262	-0
855.6901	0.1774
855.854	1.3125
856.0179	0.0327
856.1818	0.6246
856.3456	2.0305
856.5094	-0.4389
856.6732	0.4272
856.837	-1.0589
857.0008	-0
857.1645	0.6307
857.3282	0.9643
857.4919	0.0767
857.6556	0.0812
857.8192	0.6639
857.9828	-0.1814
858.1465	-0.0603
858.31	-0.3184
858.4736	-0.6848
858.6372	-0.2942
858.8007	0.1309
858.9642	0.2595
859.1277	0.1093
859.2911	-0.6175
859.4546	-0
859.618	0.3752
859.7814	-0
859.9448	-0
860.1081	-0
860.2715	-1.2979
860.4348	-0
860.5981	0.7505
860.7614	-0
860.9246	0.3065
861.0879	-0.2031
861.2511	0.4938
861.4143	-0
861.5774	-0.1224
861.7406	0.4005
861.9037	-0.4816
862.0668	-0.7114
862.2299	0.6377
862.393	-0
862.556	-0.5226
862.7191	-0.1799
862.8821	0.0334
863.0451	0.1343
863.208	-0.0332
863.371	-0.6413
863.5339	0.4347
863.6968	-0
863.8597	-0.4366
864.0225	0.2889
864.1854	-0.4163
864.3482	-0
864.511	-0.1025
864.6737	-0.1376
864.8365	0.3227
864.9992	-0
865.1619	-0.2784
865.3246	-1.9533
865.4873	0.0614
865.65	-0
865.8126	-0
865.9752	-0.3384
866.1378	0.0815
866.3004	-0.2027
866.4629	-2.2235
866.6254	0.5095
866.7879	-0
866.9504	-0
867.1129	-0.2268
867.2753	0.1569
867.4377	-0.0149
867.6001	-0.7774
867.7625	0.6639
867.9249	1.5879
868.0872	0.4746
868.2495	0.0463
868.4118	-0
868.5741	-0
868.7363	-0.7074
868.8986	-0.856
869.0608	-0
869.223	0.4718
869.3851	-0
869.5473	0.0266
869.7094	-0
869.8715	-0
870.0336	0.1044
870.1957	-0.7074
870.3577	0.5523
870.5197	-0.0911
870.6817	-0.8209
870.8437	-0
871.0057	-0
871.1676	0.1871
871.3295	-0
871.4914	-0
871.6533	-0
871.8151	0.4684
871.977	-0.1799
872.1388	-0.3474
872.3006	0.036
872.4623	-0.1152
872.6241	-0
872.7858	0.4609
872.9475	0.118
873.1092	0.0106
873.2709	1.4831
873.4325	-1.642
873.5941	-0
873.7557	-0
873.9173	0.8099
874.0789	0.5751
874.2404	-0
874.4019	-0.0151
874.5634	-0
874.7249	0.8099
874.8863	-0.0898
875.0478	-0.1362
875.2092	0.9803
875.3706	0.1534
875.5319	0.4267
875.6933	0.2928
875.8546	-0
876.0159	0.8728
876.1772	-0
876.3385	-0
876.4997	-0
876.6609	-0.1535
876.8221	0.9495
876.9833	0.0198
877.1445	0.4044
877.3056	-0.8569
877.4667	-0.7316
877.6278	-0
877.7889	-0.1736
877.9499	0.6945
878.111	0.284
878.272	0.9931
878.433	0.2728
878.5939	0.2908
878.7549	0.7376
878.9158	-0.3631
879.0767	1.2183
879.2376	0.1661
879.3984	-0
879.5593	-0
879.7201	-0.981
879.8809	-0
880.0417	-0.3766
880.2024	0.3856
880.3632	-0.2703
880.5239	-0.0267
880.6846	-0.2302
880.8452	0.0554
881.0059	0.2126
881.1665	0.247
881.3271	0.9666
881.4877	0.0179
881.6483	-1.3023
881.8088	-0
881.9693	-0
882.1298	-0
882.2903	-0
