Data from D4ACN5uM420nmA_Absorbance_14-37-10-211.txt Node
Date: Fri Feb 21 14:37:10 GMT 2025
User: LASERRRRR
Spectrometer: FLMT03099
Trigger mode: 0
Integration Time (sec): 1.500000E-2
Scans to average: 1
Electric dark correction enabled: true
Nonlinearity correction enabled: false
Boxcar width: 0
XAxis mode: Wavelengths
Number of Pixels in Spectrum: 3648
>>>>>Begin Spectral Data<<<<<
179.3399	-0.8644
179.5586	-0.8644
179.7771	-0.8644
179.9957	0.1144
180.2143	-0
180.4329	-0
180.6514	-0
180.8699	-0
181.0885	-0
181.307	0.2568
181.5255	0.13
181.744	-0
181.9625	1.0033
182.181	0.2869
182.3994	0.0034
182.6179	-0
182.8363	-0
183.0547	-0.1886
183.2732	0.2765
183.4916	0.2811
183.71	0.2116
183.9284	0.2646
184.1467	0.4719
184.3651	0.1232
184.5835	0.1149
184.8018	0.4448
185.0201	0.5318
185.2385	0.2704
185.4568	0.1025
185.6751	0.2288
185.8934	0.1755
186.1117	-0.153
186.3299	0.2627
186.5482	0.1704
186.7664	0.5604
186.9847	-0.0642
187.2029	-0.0362
187.4211	0.0076
187.6393	0.0265
187.8575	0.183
188.0757	0.6383
188.2939	0.0997
188.512	0.1286
188.7302	0.0874
188.9483	0.4198
189.1665	0.2503
189.3846	0.284
189.6027	0.1611
189.8208	0.2831
190.0389	0.1593
190.257	0.1344
190.475	0.0625
190.6931	0.0289
190.9111	0.0088
191.1292	0.2484
191.3472	0.2189
191.5652	0.4451
191.7832	0.1017
192.0012	0.1604
192.2192	0.1454
192.4371	0.0731
192.6551	0.2255
192.873	0.0774
193.091	0.1477
193.3089	0.1439
193.5268	0.3004
193.7447	0.1192
193.9626	0.2628
194.1805	0.2122
194.3984	0.1941
194.6162	0.2448
194.8341	0.2551
195.0519	0.2602
195.2697	0.2656
195.4875	0.3238
195.7054	0.2153
195.9231	0.1927
196.1409	0.2462
196.3587	0.3434
196.5765	0.3172
196.7942	0.32
197.012	0.3222
197.2297	0.3453
197.4474	0.4516
197.6651	0.3253
197.8828	0.3676
198.1005	0.4067
198.3182	0.3358
198.5358	0.359
198.7535	0.3751
198.9711	0.4001
199.1888	0.3368
199.4064	0.4113
199.624	0.3742
199.8416	0.4063
200.0592	0.3473
200.2767	0.3676
200.4943	0.4507
200.7119	0.358
200.9294	0.3923
201.1469	0.41
201.3645	0.4342
201.582	0.3667
201.7995	0.4042
202.017	0.3881
202.2344	0.423
202.4519	0.3847
202.6694	0.4
202.8868	0.3748
203.1042	0.4205
203.3217	0.3747
203.5391	0.3814
203.7565	0.3758
203.9739	0.3913
204.1913	0.3386
204.4086	0.3398
204.626	0.3655
204.8433	0.3503
205.0607	0.3501
205.278	0.3393
205.4953	0.3243
205.7126	0.3045
205.9299	0.3278
206.1472	0.3296
206.3644	0.3265
206.5817	0.3372
206.7989	0.3305
207.0162	0.318
207.2334	0.3613
207.4506	0.2875
207.6678	0.299
207.885	0.2823
208.1022	0.3197
208.3194	0.2885
208.5365	0.2924
208.7537	0.2995
208.9708	0.2956
209.1879	0.2915
209.405	0.2674
209.6222	0.2925
209.8392	0.2717
210.0563	0.2847
210.2734	0.2801
210.4905	0.2592
210.7075	0.2801
210.9245	0.2627
211.1416	0.2613
211.3586	0.2622
211.5756	0.2532
211.7926	0.2416
212.0096	0.2728
212.2265	0.2633
212.4435	0.2437
212.6604	0.2308
212.8774	0.2301
213.0943	0.2365
213.3112	0.2387
213.5281	0.2476
213.745	0.2214
213.9619	0.2371
214.1788	0.253
214.3956	0.2375
214.6125	0.2446
214.8293	0.2441
215.0461	0.2372
215.2629	0.2495
215.4798	0.2198
215.6965	0.2499
215.9133	0.2273
216.1301	0.2223
216.3469	0.2367
216.5636	0.2331
216.7803	0.2496
216.9971	0.234
217.2138	0.2411
217.4305	0.2424
217.6472	0.2418
217.8639	0.2511
218.0805	0.246
218.2972	0.234
218.5138	0.2354
218.7305	0.2402
218.9471	0.2398
219.1637	0.2625
219.3803	0.2455
219.5969	0.2535
219.8135	0.2491
220.0301	0.2495
220.2466	0.2509
220.4632	0.2471
220.6797	0.2491
220.8962	0.2514
221.1127	0.2745
221.3292	0.2529
221.5457	0.2666
221.7622	0.2566
221.9787	0.2699
222.1951	0.2694
222.4116	0.2657
222.628	0.2839
222.8444	0.2787
223.0608	0.2742
223.2772	0.2614
223.4936	0.2771
223.71	0.2678
223.9264	0.2833
224.1427	0.2794
224.3591	0.2842
224.5754	0.2922
224.7917	0.2909
225.008	0.2846
225.2243	0.2964
225.4406	0.287
225.6569	0.3075
225.8732	0.3017
226.0894	0.3022
226.3057	0.3047
226.5219	0.3044
226.7381	0.323
226.9543	0.3133
227.1705	0.3164
227.3867	0.3188
227.6029	0.3191
227.8191	0.333
228.0352	0.3369
228.2513	0.3375
228.4675	0.3344
228.6836	0.3473
228.8997	0.3438
229.1158	0.3591
229.3319	0.3615
229.548	0.3609
229.764	0.364
229.9801	0.3673
230.1961	0.3729
230.4121	0.3732
230.6282	0.3868
230.8442	0.3858
231.0602	0.3857
231.2761	0.3737
231.4921	0.3925
231.7081	0.3925
231.924	0.402
232.14	0.3954
232.3559	0.4018
232.5718	0.4151
232.7877	0.4151
233.0036	0.4134
233.2195	0.4208
233.4353	0.4274
233.6512	0.4207
233.867	0.4262
234.0829	0.4312
234.2987	0.4326
234.5145	0.434
234.7303	0.4366
234.9461	0.4404
235.1619	0.452
235.3776	0.4521
235.5934	0.4446
235.8091	0.4345
236.0249	0.4449
236.2406	0.4354
236.4563	0.4508
236.672	0.438
236.8877	0.4493
237.1034	0.4501
237.319	0.4478
237.5347	0.4497
237.7503	0.4493
237.966	0.465
238.1816	0.4508
238.3972	0.4532
238.6128	0.466
238.8284	0.4595
239.0439	0.4592
239.2595	0.4604
239.475	0.4532
239.6906	0.4521
239.9061	0.4534
240.1216	0.4626
240.3371	0.4624
240.5526	0.462
240.7681	0.4655
240.9836	0.4613
241.199	0.4664
241.4145	0.4516
241.6299	0.4538
241.8453	0.4504
242.0607	0.4487
242.2761	0.4542
242.4915	0.4438
242.7069	0.4292
242.9223	0.4423
243.1376	0.4308
243.353	0.411
243.5683	0.4185
243.7836	0.4011
243.9989	0.3966
244.2142	0.398
244.4295	0.3897
244.6448	0.3872
244.86	0.3747
245.0753	0.3662
245.2905	0.3574
245.5057	0.3491
245.721	0.353
245.9362	0.3412
246.1514	0.3405
246.3665	0.3248
246.5817	0.314
246.7969	0.3194
247.012	0.3134
247.2271	0.3075
247.4423	0.302
247.6574	0.2977
247.8725	0.2804
248.0876	0.284
248.3026	0.2811
248.5177	0.2714
248.7328	0.2676
248.9478	0.2569
249.1628	0.2596
249.3779	0.2523
249.5929	0.254
249.8079	0.2452
250.0228	0.2378
250.2378	0.235
250.4528	0.2366
250.6677	0.2274
250.8827	0.2191
251.0976	0.2209
251.3125	0.2265
251.5274	0.215
251.7423	0.2125
251.9572	0.2136
252.172	0.2104
252.3869	0.214
252.6017	0.2057
252.8166	0.2078
253.0314	0.1977
253.2462	0.2042
253.461	0.2039
253.6758	0.204
253.8906	0.1985
254.1053	0.197
254.3201	0.1914
254.5348	0.1906
254.7496	0.1885
254.9643	0.1941
255.179	0.1865
255.3937	0.1909
255.6083	0.1946
255.823	0.1856
256.0377	0.1815
256.2523	0.1897
256.467	0.191
256.6816	0.1855
256.8962	0.1924
257.1108	0.1937
257.3254	0.1896
257.54	0.1856
257.7545	0.1863
257.9691	0.1899
258.1836	0.1828
258.3981	0.1837
258.6127	0.1793
258.8272	0.1851
259.0417	0.1796
259.2561	0.1817
259.4706	0.1812
259.6851	0.1822
259.8995	0.1825
260.114	0.1844
260.3284	0.1827
260.5428	0.1793
260.7572	0.1822
260.9716	0.1887
261.186	0.1865
261.4003	0.1792
261.6147	0.1826
261.829	0.1869
262.0433	0.1824
262.2577	0.1872
262.472	0.1865
262.6863	0.1958
262.9005	0.1882
263.1148	0.1888
263.3291	0.1874
263.5433	0.1909
263.7576	0.1933
263.9718	0.1949
264.186	0.1962
264.4002	0.1937
264.6144	0.2016
264.8286	0.1981
265.0427	0.2005
265.2569	0.2019
265.471	0.2024
265.6851	0.2038
265.8993	0.1977
266.1134	0.197
266.3275	0.1973
266.5415	0.2007
266.7556	0.2008
266.9697	0.2028
267.1837	0.2069
267.3978	0.1991
267.6118	0.2019
267.8258	0.206
268.0398	0.2068
268.2538	0.2044
268.4677	0.1991
268.6817	0.1994
268.8957	0.1944
269.1096	0.1907
269.3235	0.1992
269.5374	0.203
269.7514	0.1966
269.9652	0.1915
270.1791	0.2017
270.393	0.1971
270.6068	0.2031
270.8207	0.1955
271.0345	0.1971
271.2483	0.1914
271.4622	0.2018
271.676	0.1987
271.8897	0.1928
272.1035	0.2049
272.3173	0.1988
272.531	0.1991
272.7448	0.1951
272.9585	0.1919
273.1722	0.1967
273.3859	0.205
273.5996	0.2015
273.8133	0.203
274.0269	0.2033
274.2406	0.2127
274.4542	0.1993
274.6679	0.2095
274.8815	0.214
275.0951	0.2129
275.3087	0.2146
275.5223	0.2112
275.7358	0.2158
275.9494	0.2184
276.1629	0.2222
276.3765	0.2186
276.59	0.2174
276.8035	0.221
277.017	0.2276
277.2305	0.2217
277.444	0.217
277.6574	0.226
277.8709	0.2289
278.0843	0.2258
278.2978	0.2206
278.5112	0.2218
278.7246	0.2177
278.938	0.2189
279.1513	0.2156
279.3647	0.2195
279.5781	0.2172
279.7914	0.2152
280.0047	0.2156
280.2181	0.2199
280.4314	0.2129
280.6447	0.2186
280.8579	0.2066
281.0712	0.2049
281.2845	0.2078
281.4977	0.2068
281.711	0.2035
281.9242	0.2041
282.1374	0.202
282.3506	0.2048
282.5638	0.1962
282.7769	0.195
282.9901	0.2003
283.2033	0.1985
283.4164	0.1926
283.6295	0.1977
283.8426	0.1901
284.0557	0.2006
284.2688	0.1941
284.4819	0.185
284.695	0.1967
284.908	0.1917
285.1211	0.1969
285.3341	0.1865
285.5471	0.1948
285.7601	0.1907
285.9731	0.1861
286.1861	0.1938
286.3991	0.1959
286.612	0.1888
286.825	0.1882
287.0379	0.1856
287.2508	0.1888
287.4637	0.1945
287.6766	0.1856
287.8895	0.1854
288.1024	0.1868
288.3152	0.1952
288.5281	0.1816
288.7409	0.1885
288.9538	0.1874
289.1666	0.1847
289.3794	0.1829
289.5922	0.1838
289.8049	0.1821
290.0177	0.1872
290.2304	0.1852
290.4432	0.1896
290.6559	0.1835
290.8686	0.1864
291.0813	0.1848
291.294	0.1892
291.5067	0.1873
291.7194	0.1919
291.932	0.1786
292.1447	0.1848
292.3573	0.1809
292.5699	0.1883
292.7825	0.18
292.9951	0.1835
293.2077	0.1821
293.4203	0.1823
293.6328	0.1828
293.8454	0.183
294.0579	0.1825
294.2704	0.1865
294.4829	0.1828
294.6954	0.1832
294.9079	0.1831
295.1204	0.1783
295.3328	0.1848
295.5453	0.1858
295.7577	0.1841
295.9701	0.1825
296.1825	0.1833
296.3949	0.1829
296.6073	0.18
296.8197	0.1821
297.0321	0.1842
297.2444	0.1779
297.4567	0.1805
297.6691	0.1849
297.8814	0.1822
298.0937	0.1797
298.306	0.1778
298.5182	0.1848
298.7305	0.1861
298.9428	0.1805
299.155	0.1774
299.3672	0.1821
299.5794	0.1805
299.7916	0.1786
300.0038	0.1849
300.216	0.1778
300.4282	0.179
300.6403	0.1847
300.8525	0.1778
301.0646	0.1858
301.2767	0.1863
301.4888	0.1841
301.7009	0.1886
301.913	0.1845
302.125	0.1811
302.3371	0.1789
302.5491	0.1866
302.7612	0.1877
302.9732	0.1854
303.1852	0.1848
303.3972	0.185
303.6092	0.1844
303.8211	0.1833
304.0331	0.1815
304.245	0.1813
304.457	0.1832
304.6689	0.1874
304.8808	0.1834
305.0927	0.1848
305.3046	0.1827
305.5164	0.1809
305.7283	0.1783
305.9401	0.1736
306.152	0.1744
306.3638	0.1782
306.5756	0.1833
306.7874	0.1722
306.9992	0.1663
307.2109	0.1753
307.4227	0.1703
307.6344	0.176
307.8462	0.1724
308.0579	0.1681
308.2696	0.1722
308.4813	0.173
308.693	0.1654
308.9046	0.174
309.1163	0.163
309.328	0.1599
309.5396	0.1599
309.7512	0.1649
309.9628	0.1627
310.1744	0.1539
310.386	0.1569
310.5976	0.1585
310.8091	0.1612
311.0207	0.1596
311.2322	0.1592
311.4437	0.1532
311.6552	0.153
311.8667	0.1577
312.0782	0.1559
312.2897	0.155
312.5012	0.1554
312.7126	0.151
312.924	0.1524
313.1355	0.1502
313.3469	0.149
313.5583	0.1499
313.7696	0.1456
313.981	0.1571
314.1924	0.1469
314.4037	0.1509
314.6151	0.1446
314.8264	0.1505
315.0377	0.1479
315.249	0.1525
315.4603	0.1476
315.6716	0.1525
315.8828	0.1438
316.0941	0.1535
316.3053	0.1466
316.5165	0.158
316.7277	0.1463
316.9389	0.1528
317.1501	0.1528
317.3613	0.1521
317.5724	0.1477
317.7836	0.1396
317.9947	0.1477
318.2058	0.1481
318.417	0.1414
318.6281	0.1418
318.8391	0.1538
319.0502	0.1514
319.2613	0.1481
319.4723	0.1468
319.6834	0.1458
319.8944	0.1473
320.1054	0.1497
320.3164	0.146
320.5274	0.1476
320.7383	0.147
320.9493	0.1456
321.1602	0.1424
321.3712	0.1455
321.5821	0.1445
321.793	0.1538
322.0039	0.1468
322.2148	0.1494
322.4257	0.1473
322.6365	0.1429
322.8474	0.1505
323.0582	0.1484
323.269	0.1475
323.4798	0.1486
323.6906	0.1501
323.9014	0.1466
324.1122	0.1424
324.3229	0.1514
324.5337	0.1502
324.7444	0.1487
324.9551	0.1436
325.1658	0.1486
325.3765	0.1533
325.5872	0.153
325.7979	0.1472
326.0085	0.1502
326.2192	0.153
326.4298	0.1589
326.6404	0.1548
326.851	0.1516
327.0616	0.1574
327.2722	0.1545
327.4828	0.1559
327.6933	0.1614
327.9039	0.1559
328.1144	0.1629
328.3249	0.163
328.5354	0.1597
328.7459	0.1656
328.9564	0.1632
329.1669	0.1621
329.3773	0.1654
329.5878	0.1646
329.7982	0.167
330.0086	0.1633
330.219	0.1662
330.4294	0.162
330.6398	0.168
330.8502	0.1714
331.0605	0.1664
331.2708	0.1645
331.4812	0.1702
331.6915	0.1724
331.9018	0.1714
332.1121	0.1729
332.3224	0.167
332.5326	0.1637
332.7429	0.1707
332.9531	0.1664
333.1633	0.1625
333.3735	0.1642
333.5837	0.1642
333.7939	0.1662
334.0041	0.17
334.2143	0.1633
334.4244	0.1681
334.6346	0.1653
334.8447	0.1611
335.0548	0.1691
335.2649	0.1685
335.475	0.1693
335.685	0.1658
335.8951	0.1632
336.1051	0.1576
336.3152	0.1677
336.5252	0.1618
336.7352	0.161
336.9452	0.1611
337.1552	0.1616
337.3652	0.1615
337.5751	0.1611
337.7851	0.1606
337.995	0.1601
338.2049	0.1598
338.4148	0.1553
338.6247	0.1637
338.8346	0.1643
339.0445	0.1625
339.2543	0.1575
339.4642	0.1593
339.674	0.1582
339.8838	0.1639
340.0936	0.1594
340.3034	0.1663
340.5132	0.1539
340.7229	0.1681
340.9327	0.1642
341.1424	0.1635
341.3522	0.156
341.5619	0.1641
341.7716	0.1727
341.9813	0.1646
342.1909	0.1714
342.4006	0.168
342.6102	0.1745
342.8199	0.1692
343.0295	0.1663
343.2391	0.1699
343.4487	0.1771
343.6583	0.1799
343.8679	0.1714
344.0774	0.1735
344.287	0.178
344.4965	0.1805
344.706	0.1805
344.9155	0.1815
345.125	0.1839
345.3345	0.1912
345.544	0.1846
345.7534	0.1823
345.9629	0.1872
346.1723	0.1883
346.3817	0.1899
346.5911	0.19
346.8005	0.1992
347.0099	0.1915
347.2193	0.192
347.4286	0.2028
347.638	0.196
347.8473	0.1946
348.0566	0.1926
348.2659	0.1869
348.4752	0.1996
348.6845	0.1973
348.8937	0.1984
349.103	0.1982
349.3122	0.1996
349.5214	0.2058
349.7306	0.2043
349.9398	0.1927
350.149	0.1964
350.3582	0.1981
350.5674	0.192
350.7765	0.1983
350.9856	0.1987
351.1948	0.2012
351.4039	0.2035
351.613	0.2002
351.822	0.1991
352.0311	0.2027
352.2402	0.1977
352.4492	0.1934
352.6582	0.1933
352.8672	0.1957
353.0762	0.195
353.2852	0.1936
353.4942	0.1987
353.7032	0.1916
353.9121	0.1873
354.1211	0.1905
354.33	0.1885
354.5389	0.1894
354.7478	0.1824
354.9567	0.1849
355.1655	0.1929
355.3744	0.1861
355.5833	0.1941
355.7921	0.1937
356.0009	0.1972
356.2097	0.174
356.4185	0.1843
356.6273	0.1875
356.8361	0.1855
357.0448	0.1876
357.2536	0.1887
357.4623	0.1891
357.671	0.1914
357.8797	0.1919
358.0884	0.1851
358.2971	0.1854
358.5057	0.1963
358.7144	0.1846
358.923	0.1907
359.1316	0.1932
359.3402	0.1931
359.5488	0.1868
359.7574	0.1948
359.966	0.1813
360.1746	0.1857
360.3831	0.2005
360.5916	0.1893
360.8002	0.1868
361.0087	0.1857
361.2172	0.1913
361.4256	0.1903
361.6341	0.1978
361.8426	0.1937
362.051	0.1938
362.2594	0.1897
362.4678	0.1966
362.6762	0.2012
362.8846	0.1937
363.093	0.1969
363.3014	0.2006
363.5097	0.1979
363.718	0.204
363.9264	0.2027
364.1347	0.191
364.343	0.1947
364.5513	0.1982
364.7595	0.205
364.9678	0.199
365.176	0.2105
365.3842	0.1986
365.5925	0.2015
365.8007	0.2009
366.0089	0.2061
366.217	0.2005
366.4252	0.1967
366.6333	0.2055
366.8415	0.2114
367.0496	0.2021
367.2577	0.2136
367.4658	0.2099
367.6739	0.2003
367.882	0.2111
368.09	0.2028
368.2981	0.2146
368.5061	0.2104
368.7141	0.2012
368.9221	0.2141
369.1301	0.2126
369.3381	0.2109
369.5461	0.2184
369.754	0.2161
369.962	0.2126
370.1699	0.2175
370.3778	0.2212
370.5857	0.2145
370.7936	0.2102
371.0015	0.2188
371.2093	0.2156
371.4172	0.2133
371.625	0.2158
371.8328	0.213
372.0406	0.2234
372.2484	0.2276
372.4562	0.2209
372.664	0.2166
372.8717	0.218
373.0795	0.2254
373.2872	0.225
373.4949	0.2252
373.7026	0.2234
373.9103	0.2134
374.118	0.2184
374.3256	0.2306
374.5333	0.2325
374.7409	0.2207
374.9485	0.2231
375.1561	0.2334
375.3637	0.2208
375.5713	0.2245
375.7789	0.2298
375.9864	0.227
376.194	0.2346
376.4015	0.2257
376.609	0.2273
376.8165	0.2344
377.024	0.2288
377.2315	0.2328
377.4389	0.2245
377.6464	0.2298
377.8538	0.2342
378.0612	0.2393
378.2686	0.2285
378.476	0.2457
378.6834	0.2371
378.8908	0.2393
379.0981	0.2352
379.3055	0.2359
379.5128	0.2299
379.7201	0.232
379.9274	0.231
380.1347	0.2386
380.342	0.2404
380.5492	0.231
380.7565	0.2324
380.9637	0.2408
381.1709	0.2386
381.3781	0.2479
381.5853	0.2415
381.7925	0.236
381.9997	0.24
382.2068	0.2398
382.4139	0.2322
382.6211	0.2388
382.8282	0.2406
383.0353	0.2424
383.2424	0.236
383.4494	0.2425
383.6565	0.2345
383.8635	0.2349
384.0706	0.2466
384.2776	0.2529
384.4846	0.2456
384.6916	0.24
384.8986	0.2491
385.1055	0.2529
385.3125	0.2495
385.5194	0.2444
385.7263	0.2516
385.9333	0.2409
386.1402	0.2364
386.347	0.2404
386.5539	0.2346
386.7608	0.2463
386.9676	0.2421
387.1744	0.2423
387.3813	0.2484
387.5881	0.2408
387.7948	0.2497
388.0016	0.2536
388.2084	0.2468
388.4151	0.2446
388.6219	0.2417
388.8286	0.2439
389.0353	0.2495
389.242	0.2486
389.4487	0.2341
389.6553	0.2378
389.862	0.2345
390.0686	0.2319
390.2753	0.2405
390.4819	0.2425
390.6885	0.2439
390.8951	0.237
391.1016	0.2339
391.3082	0.2396
391.5147	0.2297
391.7213	0.2344
391.9278	0.2266
392.1343	0.2344
392.3408	0.2292
392.5473	0.2279
392.7537	0.2316
392.9602	0.2181
393.1666	0.2258
393.373	0.2217
393.5794	0.2229
393.7858	0.2304
393.9922	0.2192
394.1986	0.2207
394.4049	0.2196
394.6113	0.2235
394.8176	0.2217
395.0239	0.2208
395.2302	0.218
395.4365	0.2314
395.6428	0.2204
395.8491	0.218
396.0553	0.2144
396.2615	0.2104
396.4678	0.2212
396.674	0.2072
396.8802	0.2194
397.0863	0.2136
397.2925	0.2083
397.4987	0.2117
397.7048	0.2128
397.9109	0.2093
398.117	0.2012
398.3231	0.2135
398.5292	0.2049
398.7353	0.199
398.9413	0.2129
399.1474	0.2091
399.3534	0.2022
399.5594	0.2156
399.7654	0.2012
399.9714	0.2071
400.1774	0.1981
400.3833	0.2079
400.5893	0.2076
400.7952	0.2044
401.0011	0.2075
401.207	0.2057
401.4129	0.2058
401.6188	0.2085
401.8247	0.2143
402.0305	0.2001
402.2364	0.1983
402.4422	0.2121
402.648	0.2088
402.8538	0.2049
403.0596	0.1979
403.2654	0.2078
403.4711	0.2033
403.6768	0.1996
403.8826	0.2156
404.0883	0.2048
404.294	0.2022
404.4997	0.1963
404.7054	0.2083
404.911	0.1948
405.1167	0.2058
405.3223	0.1958
405.5279	0.2062
405.7335	0.2041
405.9391	0.1978
406.1447	0.2165
406.3502	0.2028
406.5558	0.1972
406.7613	0.2002
406.9668	0.2011
407.1724	0.2042
407.3778	0.2054
407.5833	0.1975
407.7888	0.2025
407.9942	0.2114
408.1997	0.2096
408.4051	0.2031
408.6105	0.2007
408.8159	0.2017
409.0213	0.2079
409.2267	0.211
409.432	0.1999
409.6374	0.2088
409.8427	0.209
410.048	0.2025
410.2533	0.2099
410.4586	0.1977
410.6639	0.1984
410.8691	0.2039
411.0744	0.2027
411.2796	0.2047
411.4848	0.2018
411.69	0.1992
411.8952	0.21
412.1004	0.1961
412.3056	0.1908
412.5107	0.1989
412.7158	0.2044
412.921	0.2011
413.1261	0.1968
413.3312	0.2
413.5362	0.2133
413.7413	0.1992
413.9464	0.1903
414.1514	0.1898
414.3564	0.1957
414.5614	0.1943
414.7664	0.1951
414.9714	0.1963
415.1764	0.2005
415.3813	0.1895
415.5863	0.2033
415.7912	0.2006
415.9961	0.1931
416.201	0.1995
416.4059	0.1962
416.6108	0.1981
416.8156	0.1892
417.0205	0.1899
417.2253	0.2021
417.4301	0.1998
417.6349	0.1951
417.8397	0.1972
418.0445	0.19
418.2492	0.1857
418.454	0.1902
418.6587	0.1918
418.8634	0.1929
419.0681	0.1932
419.2728	0.1851
419.4775	0.206
419.6822	0.1877
419.8868	0.192
420.0915	0.1884
420.2961	0.1897
420.5007	0.1841
420.7053	0.1867
420.9099	0.1802
421.1144	0.1834
421.319	0.1809
421.5235	0.1793
421.728	0.1917
421.9325	0.1846
422.137	0.1846
422.3415	0.1825
422.546	0.1764
422.7504	0.1836
422.9549	0.1863
423.1593	0.176
423.3637	0.1801
423.5681	0.1873
423.7725	0.1815
423.9769	0.1789
424.1812	0.1755
424.3856	0.1702
424.5899	0.1701
424.7942	0.1769
424.9985	0.1756
425.2028	0.1803
425.4071	0.1771
425.6113	0.1747
425.8156	0.1747
426.0198	0.1708
426.224	0.1816
426.4282	0.1656
426.6324	0.1641
426.8366	0.1596
427.0407	0.1639
427.2449	0.1591
427.449	0.1708
427.6531	0.1794
427.8572	0.1648
428.0613	0.1611
428.2654	0.173
428.4694	0.1515
428.6735	0.1549
428.8775	0.1678
429.0815	0.1527
429.2855	0.1533
429.4895	0.1572
429.6935	0.1546
429.8975	0.1558
430.1014	0.1515
430.3053	0.1585
430.5093	0.1419
430.7132	0.1397
430.9171	0.1431
431.1209	0.1438
431.3248	0.1435
431.5286	0.146
431.7325	0.1554
431.9363	0.1361
432.1401	0.1338
432.3439	0.1396
432.5477	0.131
432.7514	0.1351
432.9552	0.1414
433.1589	0.1247
433.3627	0.1385
433.5664	0.1287
433.7701	0.1386
433.9737	0.1223
434.1774	0.129
434.3811	0.1186
434.5847	0.1181
434.7883	0.1263
434.9919	0.1236
435.1955	0.1259
435.3991	0.1286
435.6027	0.1159
435.8062	0.1266
436.0098	0.1178
436.2133	0.1133
436.4168	0.1136
436.6203	0.1029
436.8238	0.1063
437.0272	0.1114
437.2307	0.1061
437.4341	0.1109
437.6375	0.101
437.841	0.0951
438.0443	0.1083
438.2477	0.0944
438.4511	0.0909
438.6545	0.1092
438.8578	0.1009
439.0611	0.1039
439.2644	0.1054
439.4677	0.0978
439.671	0.0903
439.8743	0.0974
440.0775	0.0913
440.2808	0.0902
440.484	0.0848
440.6872	0.0948
440.8904	0.0752
441.0936	0.0878
441.2967	0.0755
441.4999	0.0767
441.703	0.0789
441.9062	0.0863
442.1093	0.0901
442.3124	0.0776
442.5155	0.0749
442.7185	0.0744
442.9216	0.0719
443.1246	0.0785
443.3276	0.0737
443.5307	0.0717
443.7337	0.074
443.9366	0.0692
444.1396	0.0659
444.3426	0.0719
444.5455	0.0712
444.7484	0.0664
444.9513	0.0587
445.1542	0.064
445.3571	0.0699
445.56	0.056
445.7628	0.0709
445.9657	0.0622
446.1685	0.0637
446.3713	0.0687
446.5741	0.0627
446.7769	0.0606
446.9797	0.0602
447.1824	0.0516
447.3852	0.0466
447.5879	0.0488
447.7906	0.0459
447.9933	0.049
448.196	0.0525
448.3986	0.045
448.6013	0.0406
448.8039	0.0451
449.0066	0.0611
449.2092	0.0483
449.4118	0.0477
449.6143	0.0514
449.8169	0.0368
450.0195	0.0394
450.222	0.0452
450.4245	0.0419
450.627	0.0378
450.8295	0.0434
451.032	0.0348
451.2345	0.0369
451.4369	0.0406
451.6394	0.0391
451.8418	0.044
452.0442	0.0346
452.2466	0.0294
452.449	0.0378
452.6513	0.0348
452.8537	0.0263
453.056	0.0315
453.2583	0.0327
453.4607	0.0358
453.663	0.0332
453.8652	0.0292
454.0675	0.0351
454.2697	0.0376
454.472	0.027
454.6742	0.0336
454.8764	0.0404
455.0786	0.0236
455.2808	0.0213
455.4829	0.0341
455.6851	0.0316
455.8872	0.0161
456.0893	0.0229
456.2915	0.0176
456.4935	0.0417
456.6956	0.0259
456.8977	0.0235
457.0997	0.0389
457.3018	0.0214
457.5038	0.0297
457.7058	0.0293
457.9078	0.0241
458.1098	0.0329
458.3117	0.0221
458.5137	0.0128
458.7156	0.0269
458.9175	0.021
459.1194	0.0251
459.3213	0.0182
459.5232	0.0238
459.725	0.0211
459.9269	0.0243
460.1287	0.021
460.3305	0.0196
460.5323	0.0177
460.7341	0.0235
460.9359	0.0183
461.1376	0.0186
461.3394	0.0209
461.5411	0.0218
461.7428	0.0285
461.9445	0.0185
462.1462	0.012
462.3479	0.02
462.5495	0.0294
462.7512	0.0279
462.9528	0.0096
463.1544	0.0195
463.356	0.0198
463.5576	0.0278
463.7592	0.0113
463.9607	0.0209
464.1623	0.0217
464.3638	0.0095
464.5653	0.0226
464.7668	0.0234
464.9683	0.0255
465.1697	0.0142
465.3712	0.0071
465.5726	0.0162
465.7741	0.023
465.9755	0.0111
466.1769	0.0092
466.3782	0.0037
466.5796	0.0197
466.7809	0.0127
466.9823	0.0072
467.1836	0.0137
467.3849	0.0178
467.5862	-0.0001
467.7875	0.0094
467.9887	0.0147
468.19	0.0198
468.3912	0.0203
468.5924	0.0032
468.7936	0.0134
468.9948	0.0083
469.196	0.0161
469.3972	0.0061
469.5983	0.0057
469.7994	0.0144
470.0006	0.0145
470.2017	0.0122
470.4027	0.0256
470.6038	0.0114
470.8049	0.0122
471.0059	0.0085
471.2069	0.0174
471.408	0.0139
471.6089	0.0165
471.8099	0.0156
472.0109	0.0158
472.2119	0.0193
472.4128	-0.0011
472.6137	0.0115
472.8146	0.0116
473.0155	0.016
473.2164	0.0105
473.4173	0.0018
473.6181	0.0034
473.819	0.0149
474.0198	0.007
474.2206	0.0039
474.4214	0.0121
474.6222	0.0008
474.8229	0.0088
475.0237	0.0085
475.2244	0.0082
475.4251	0.0108
475.6258	0.0022
475.8265	0.0151
476.0272	-0.0014
476.2278	0.0034
476.4285	0.0099
476.6291	0.0112
476.8297	0.0178
477.0303	0.0075
477.2309	0.0117
477.4315	0.0119
477.632	0.0045
477.8326	0.0141
478.0331	0.0127
478.2336	0.0082
478.4341	0.0131
478.6346	0.0115
478.8351	0.0106
479.0355	0.0198
479.236	0.0231
479.4364	0.0078
479.6368	0.0077
479.8372	0.0096
480.0376	0.0137
480.2379	0.0125
480.4383	0.0125
480.6386	0.0025
480.8389	0.0107
481.0392	0.0125
481.2395	0.0099
481.4398	0.0027
481.6401	0.0168
481.8403	0.0099
482.0405	0.0052
482.2408	0.0171
482.441	0.0128
482.6411	0.0097
482.8413	0.0098
483.0415	0.0212
483.2416	0.0105
483.4417	0.0082
483.6419	0.0073
483.8419	0.0119
484.042	0.0139
484.2421	0.0026
484.4422	0.0095
484.6422	0.0127
484.8422	0.0108
485.0422	0.008
485.2422	0.0106
485.4422	0.0084
485.6422	0.0059
485.8421	0.0053
486.042	0.0166
486.242	0.0022
486.4419	0.011
486.6417	0.0102
486.8416	0.011
487.0415	-0.0005
487.2413	0.0045
487.4411	0.0134
487.641	0.0061
487.8408	0.0159
488.0405	0.0136
488.2403	0.0071
488.4401	0.0129
488.6398	0.0196
488.8395	0.0102
489.0392	0.0109
489.2389	0.0102
489.4386	0.0008
489.6383	0.0121
489.8379	0.006
490.0376	0.0107
490.2372	0.0151
490.4368	0.0038
490.6364	0.0036
490.836	0.0057
491.0355	0.0101
491.2351	0.0084
491.4346	0.0061
491.6341	0.0136
491.8336	0.0127
492.0331	0.0088
492.2326	0.0123
492.432	0.0129
492.6315	0.0137
492.8309	0.013
493.0303	0.0098
493.2297	0.0145
493.4291	0.0123
493.6284	0.0195
493.8278	0.0062
494.0271	0.0086
494.2264	0.0025
494.4257	0.0095
494.625	0.0042
494.8243	0.0026
495.0236	0.0123
495.2228	0.0185
495.422	0.0128
495.6213	0.0121
495.8205	0.0123
496.0196	0.0086
496.2188	0.0086
496.418	0.0074
496.6171	0.0034
496.8162	0.0058
497.0153	0.0129
497.2144	0.0049
497.4135	0.0039
497.6126	0.0132
497.8116	0.006
498.0107	0.0192
498.2097	0.0112
498.4087	0.0081
498.6077	0.0004
498.8067	0.0148
499.0056	0.0044
499.2046	0.0123
499.4035	0.0073
499.6024	-0.0044
499.8013	0.0173
500.0002	0.0123
500.199	0.0225
500.3979	0.0015
500.5967	0.0075
500.7956	0.0175
500.9944	0.0056
501.1932	0.0173
501.3919	0.0171
501.5907	0.0181
501.7895	0.0105
501.9882	0.0086
502.1869	0.0142
502.3856	0.0113
502.5843	0.0038
502.783	0.008
502.9816	0.0106
503.1803	0.0174
503.3789	0.015
503.5775	0.0009
503.7761	0.0098
503.9747	0.0081
504.1732	0.0066
504.3718	0.0214
504.5703	0.0107
504.7689	0.0063
504.9674	0.0007
505.1658	0.017
505.3643	0.0077
505.5628	0.019
505.7612	0.013
505.9597	0.0009
506.1581	0.005
506.3565	0.0066
506.5549	0.0058
506.7532	0.0024
506.9516	0.0081
507.1499	0.009
507.3482	0.0074
507.5465	0.0089
507.7448	0.0069
507.9431	0.0191
508.1414	0.0092
508.3396	0.0139
508.5379	0.0051
508.7361	0.0095
508.9343	0.0142
509.1325	0.0192
509.3306	0.012
509.5288	-0.0001
509.7269	0.0092
509.9251	0.008
510.1232	0.009
510.3213	0.0171
510.5193	0.0109
510.7174	0.0131
510.9154	0.0164
511.1135	0.0152
511.3115	0.0069
511.5095	0.0099
511.7075	0.0104
511.9055	0.0046
512.1034	0.0105
512.3014	0.0141
512.4993	0.0201
512.6972	0.0071
512.8951	0.009
513.093	0.0122
513.2908	0.0245
513.4887	0.0173
513.6865	0.0125
513.8844	0.0111
514.0822	0.0054
514.2799	0.0001
514.4777	-0.0009
514.6755	0.0071
514.8732	0.0096
515.0709	0.0151
515.2687	0.0104
515.4664	0.0214
515.664	0.017
515.8617	0.0159
516.0594	0.0139
516.257	0.016
516.4546	0.0185
516.6522	0.0171
516.8498	0.0124
517.0474	0.01
517.2449	0.0002
517.4425	-0.0016
517.64	0.0167
517.8375	0.0111
518.035	0.0051
518.2325	0.0013
518.43	0.0055
518.6274	0.0035
518.8249	0.0048
519.0223	0.0149
519.2197	0.007
519.4171	0.0021
519.6145	0.0097
519.8118	-0.0076
520.0092	0.0034
520.2065	0.0218
520.4038	0.0137
520.6011	0.0109
520.7984	0.0085
520.9956	0.008
521.1929	0.0048
521.3901	0.0228
521.5874	0.0157
521.7846	-0.0034
521.9818	0.0149
522.1789	-0.005
522.3761	0.0211
522.5732	0.0176
522.7704	0.0051
522.9675	0.0059
523.1646	0.0038
523.3617	0.0117
523.5587	0.0047
523.7558	0.0096
523.9528	0.0219
524.1498	0.0093
524.3468	0.0106
524.5438	0.0152
524.7408	0.0017
524.9378	0.0173
525.1347	0.0162
525.3316	0.0083
525.5285	0.0173
525.7254	0.0113
525.9223	0.0124
526.1192	0.0098
526.316	0.0146
526.5129	0.0095
526.7097	0.012
526.9065	0.0195
527.1033	0.0114
527.3	0.0088
527.4968	0.0204
527.6935	-0.0041
527.8903	0.0068
528.087	0.0038
528.2837	0.0066
528.4804	-0.0006
528.677	0.005
528.8737	0.0015
529.0703	0.0073
529.2669	0.0183
529.4635	0.0023
529.6601	0.0019
529.8567	0.003
530.0532	0.0117
530.2498	0.0077
530.4463	-0.0013
530.6428	0.0118
530.8393	0.0156
531.0358	0.005
531.2322	0.0018
531.4287	0.0097
531.6251	0.0011
531.8215	0.0027
532.0179	0.0096
532.2143	0.0104
532.4107	0.0127
532.607	0.0079
532.8034	0.0093
532.9997	0.0013
533.196	0.0081
533.3923	0.0136
533.5886	0.0155
533.7848	0.0055
533.9811	0.0121
534.1773	0.0046
534.3735	0.0117
534.5697	0.013
534.7659	0.0139
534.9621	0.0164
535.1582	0.0111
535.3544	0.0152
535.5505	0.0098
535.7466	0.0027
535.9427	0.0001
536.1387	0.0047
536.3348	0.0097
536.5308	-0.0013
536.7269	0.0082
536.9229	0.0102
537.1189	0.0111
537.3148	0.0028
537.5108	0.0116
537.7068	0.0145
537.9027	-0.0041
538.0986	0.0129
538.2945	0.0027
538.4904	0.0056
538.6863	0.0036
538.8821	0.0146
539.078	0.0113
539.2738	0.0079
539.4696	-0.0026
539.6654	0.0059
539.8611	0.0089
540.0569	0.0135
540.2526	0.0117
540.4484	0.0024
540.6441	0.0114
540.8398	0.0166
541.0355	-0.0006
541.2311	0.0088
541.4268	0.0231
541.6224	0.019
541.818	0.0109
542.0136	0.0128
542.2092	0.0181
542.4048	0.0111
542.6003	0.0031
542.7959	-0.0024
542.9914	0.0095
543.1869	0.0069
543.3824	0.0156
543.5779	0.0183
543.7734	0.0198
543.9688	0.0063
544.1642	0.0074
544.3596	0.0083
544.555	0.0062
544.7504	0.0223
544.9458	0.012
545.1411	0.0084
545.3365	0.0167
545.5318	0.0186
545.7271	0.0136
545.9224	-0.0015
546.1177	0.0014
546.3129	0.001
546.5081	0.0031
546.7034	0.0084
546.8986	0.0093
547.0938	0.0084
547.289	0.0218
547.4841	0.0014
547.6793	0.0035
547.8744	0.0131
548.0695	-0.0025
548.2646	0.0086
548.4597	0.007
548.6548	0.013
548.8498	0.0118
549.0448	0.0112
549.2399	0.0296
549.4349	0.0042
549.6298	0.0104
549.8248	0.0032
550.0198	0.011
550.2147	0.0187
550.4096	-0.0011
550.6045	0.0134
550.7994	0.01
550.9943	0.0142
551.1892	-0.0001
551.384	0.0108
551.5788	0.0125
551.7737	0.004
551.9685	0.0092
552.1632	0.0068
552.358	0.0136
552.5528	0.0161
552.7475	0.0155
552.9422	0.0146
553.1369	0.0132
553.3316	0.0113
553.5263	0.0229
553.7209	0.0053
553.9156	0.0086
554.1102	0.0079
554.3048	0.0024
554.4994	0.0083
554.694	0.0066
554.8885	0.0083
555.0831	0.0124
555.2776	0.0145
555.4721	0.0079
555.6666	0.0044
555.8611	0.0022
556.0555	0.0153
556.25	0.019
556.4444	0.0066
556.6388	0.0112
556.8332	0.0146
557.0276	0.0056
557.222	0.0071
557.4163	0.0196
557.6107	0.0048
557.805	0.0054
557.9993	0.0076
558.1936	0.0047
558.3879	0.0048
558.5821	0.0138
558.7764	0.0005
558.9706	0.0089
559.1648	0.0145
559.359	-0.0014
559.5532	0.011
559.7473	0.0007
559.9415	0.007
560.1356	0.0254
560.3297	0.0046
560.5238	0.0055
560.7179	0.0069
560.9119	-0.0042
561.106	0.003
561.3	0.0088
561.494	-0.0033
561.688	0.0082
561.882	0.0077
562.076	0.0116
562.2699	0.01
562.4639	0.0142
562.6578	0.0123
562.8517	0.0119
563.0456	0.0075
563.2395	0.0091
563.4333	0.0065
563.6272	0.0117
563.821	0.0023
564.0148	0.0101
564.2086	0.0066
564.4024	0.0053
564.5961	0.0117
564.7899	0.0154
564.9836	-0.0023
565.1773	0.0206
565.371	0.0073
565.5647	0.004
565.7584	0.0168
565.952	0.0015
566.1456	0.0048
566.3393	0.0164
566.5329	0.0039
566.7264	0.0157
566.92	0.0073
567.1136	0.0005
567.3071	-0.0072
567.5006	0.0107
567.6941	0.0098
567.8876	0.0105
568.0811	0.0166
568.2745	0.0056
568.468	0.0076
568.6614	0.0113
568.8548	0.0116
569.0482	0.0131
569.2416	0.0052
569.4349	0.004
569.6283	0.0082
569.8216	0.011
570.0149	0.0051
570.2082	0.0154
570.4015	0.0057
570.5947	0.0098
570.788	0.0086
570.9812	0.0059
571.1744	0.0093
571.3676	0.0082
571.5608	0.0076
571.754	0.0136
571.9471	0.0106
572.1402	0.0091
572.3333	0.0097
572.5264	0.0113
572.7195	0.0051
572.9126	0.0062
573.1057	0.012
573.2987	0.0117
573.4917	0.0071
573.6847	0.0078
573.8777	0.0125
574.0707	0.007
574.2636	0.0077
574.4566	0.0049
574.6495	0.0074
574.8424	0.0091
575.0353	0.0099
575.2281	0.0123
575.421	0.0057
575.6138	0.0063
575.8067	0.0161
575.9995	0.0068
576.1923	0.012
576.385	0.0125
576.5778	0.0151
576.7706	0.0133
576.9633	0.0092
577.156	0.0045
577.3487	0.0107
577.5414	0.0057
577.734	0.0083
577.9267	0.0117
578.1193	0.0101
578.3119	0.0039
578.5045	0.0074
578.6971	0.0048
578.8897	0.0064
579.0822	0.0104
579.2747	0.0051
579.4673	0.0071
579.6598	0.0126
579.8522	0.0054
580.0447	0.0117
580.2372	0.0119
580.4296	0.0145
580.622	0.0065
580.8144	0.0074
581.0068	0.0094
581.1992	0.0073
581.3915	0.002
581.5839	0.0081
581.7762	0.0025
581.9685	0.0072
582.1608	0.0059
582.353	0.0046
582.5453	0.0094
582.7375	0.0138
582.9298	0.0011
583.122	0.007
583.3142	0.0112
583.5063	0.0051
583.6985	0.0052
583.8906	0.0042
584.0827	0.0086
584.2749	0.0041
584.4669	0.0046
584.659	0.0091
584.8511	0.0127
585.0431	0.0088
585.2352	0.0095
585.4272	0.01
585.6192	0.0091
585.8111	0.0065
586.0031	0.0014
586.195	0.0063
586.387	0.0073
586.5789	0.0088
586.7708	0.0097
586.9627	0.0109
587.1545	0.0095
587.3464	0.0088
587.5382	0.0086
587.73	0.013
587.9218	0.0085
588.1136	0.0071
588.3053	0.0073
588.4971	0.007
588.6888	0.0081
588.8805	0.0019
589.0722	0.0128
589.2639	0.0097
589.4556	0.0164
589.6472	0.0144
589.8389	0.0078
590.0305	0.0121
590.2221	0.0108
590.4137	0.0074
590.6052	0.002
590.7968	0.0141
590.9883	0.0116
591.1798	0.008
591.3713	0.0081
591.5628	0.0126
591.7543	0.0063
591.9458	0.0089
592.1372	0.0111
592.3286	0.0085
592.52	0.007
592.7114	0.0101
592.9028	0.0124
593.0941	0.008
593.2855	0.0119
593.4768	0.0129
593.6681	0.0126
593.8594	0.0117
594.0506	0.0085
594.2419	0.0076
594.4331	0.0129
594.6244	-0.0008
594.8156	0.0084
595.0067	0.0055
595.1979	0.002
595.3891	0.0097
595.5802	0.0137
595.7713	0.0054
595.9624	0.0092
596.1535	0.0103
596.3446	0.0034
596.5357	0.0134
596.7267	0.0045
596.9177	0.0037
597.1087	0.0091
597.2997	0.0076
597.4907	0.0064
597.6817	0.0114
597.8726	0.0133
598.0635	0.0067
598.2544	0.0089
598.4453	0.0055
598.6362	0.0053
598.827	0.0047
599.0179	0.0118
599.2087	0.0149
599.3995	0.0104
599.5903	0.0115
599.7811	0.0114
599.9718	0.0076
600.1626	0.0052
600.3533	0.0056
600.544	0.0047
600.7347	0.0065
600.9254	0.0159
601.116	0.0115
601.3067	0.0086
601.4973	0.0106
601.6879	0.0113
601.8785	0.0132
602.0691	0.0098
602.2596	0.0102
602.4502	0.0097
602.6407	0.0059
602.8312	0.0059
603.0217	0.0092
603.2122	0.0139
603.4027	0.0102
603.5931	0.0067
603.7835	0.0066
603.9739	0.0042
604.1643	0.0104
604.3547	0.0156
604.5451	0.0079
604.7354	0.0067
604.9257	0.0066
605.116	0.0057
605.3063	0.0076
605.4966	0.0076
605.6869	0.0154
605.8771	0.0097
606.0673	0.0083
606.2575	0.0014
606.4477	0.0121
606.6379	0.0077
606.8281	0.0017
607.0182	0.0048
607.2083	0.0083
607.3985	0.0069
607.5885	0.0077
607.7786	0.0107
607.9687	0.0099
608.1587	0.015
608.3488	0.006
608.5388	0.0013
608.7288	0.0022
608.9187	0.0063
609.1087	0.0077
609.2986	0.0071
609.4886	0.0067
609.6785	0.0042
609.8684	0.0063
610.0582	0.0123
610.2481	0.0052
610.4379	0.0125
610.6278	0.0072
610.8176	0.0137
611.0074	0.0063
611.1971	0.0081
611.3869	0.0071
611.5766	0.003
611.7664	0.0098
611.9561	0.0098
612.1458	0.0138
612.3354	0.0111
612.5251	0.0038
612.7147	0.0084
612.9044	0.0055
613.094	0.0145
613.2836	0.0059
613.4731	0.0074
613.6627	0.0144
613.8522	0.0149
614.0417	0.0111
614.2313	0.0029
614.4207	0.0088
614.6102	0.0084
614.7997	0.0142
614.9891	0.012
615.1785	0.0014
615.3679	0.0163
615.5573	0.0072
615.7467	0.0044
615.9361	0.0093
616.1254	0.0099
616.3147	0.0051
616.504	0.0102
616.6933	0.0035
616.8826	0.0054
617.0718	0.0123
617.2611	0.0112
617.4503	0.0003
617.6395	0.0068
617.8287	0.0108
618.0179	0.0096
618.207	0.0116
618.3961	-0.0006
618.5853	0.0113
618.7744	0.0129
618.9634	0.0128
619.1525	0.0072
619.3416	0.0037
619.5306	0.01
619.7196	0.0174
619.9086	0.0116
620.0976	-0.003
620.2866	0.0141
620.4755	0.001
620.6645	0.0099
620.8534	0.0098
621.0423	0.0014
621.2312	-0.0011
621.42	0.0138
621.6089	0.004
621.7977	0.0105
621.9865	0.0083
622.1753	-0.0002
622.3641	0.008
622.5529	0.0022
622.7416	0.0154
622.9303	0.0032
623.1191	0.0036
623.3078	0.0107
623.4964	0.0057
623.6851	0.0073
623.8737	0.0061
624.0624	0.0028
624.251	0.0052
624.4396	0.0092
624.6282	0.0158
624.8167	0.0018
625.0053	0.0148
625.1938	0.0096
625.3823	0.0109
625.5708	-0.0006
625.7593	0.0092
625.9477	0.0142
626.1362	0.0023
626.3246	0.0167
626.513	0.0114
626.7014	0.0139
626.8898	0.0132
627.0781	0.0138
627.2665	0.0115
627.4548	0.0078
627.6431	0.0071
627.8314	0.0237
628.0197	0.0038
628.2079	0.0041
628.3962	0.0107
628.5844	0.0162
628.7726	0.0057
628.9608	0.0049
629.1489	0.0119
629.3371	-0.0026
629.5252	0.0072
629.7134	0.0068
629.9015	0.0068
630.0895	-0.0152
630.2776	0.0059
630.4657	0.007
630.6537	0.0096
630.8417	0.0113
631.0297	0.003
631.2177	0.0175
631.4057	0.0098
631.5936	0.0025
631.7815	0.0055
631.9695	0.0286
632.1574	0.0255
632.3452	0.0152
632.5331	0.0197
632.7209	0.0112
632.9088	-0.0008
633.0966	0.031
633.2844	-0.0034
633.4722	0.01
633.6599	0.0151
633.8477	0.0157
634.0354	0.0134
634.2231	0.0052
634.4108	0.0061
634.5985	0.0171
634.7861	0.0091
634.9738	0.0014
635.1614	0.0116
635.349	-0.001
635.5366	0.0091
635.7242	0.004
635.9117	0.0098
636.0993	0.0169
636.2868	0.0089
636.4743	0.0224
636.6618	0.0016
636.8492	0.0108
637.0367	0.0057
637.2241	0.0007
637.4115	0.0347
637.5989	0.0079
637.7863	0.0371
637.9737	0.0198
638.161	0.0146
638.3484	-0.0132
638.5357	0.0068
638.723	0.0159
638.9103	-0.007
639.0975	0.006
639.2848	0.0173
639.472	0.0243
639.6592	0.0054
639.8464	-0.0036
640.0336	0.0017
640.2208	0.0163
640.4079	0.0129
640.595	-0.003
640.7821	0.0107
640.9692	-0.0031
641.1563	0.0164
641.3434	0.0107
641.5304	0.0263
641.7174	0.0167
641.9044	0.0005
642.0914	0.0185
642.2784	0.0055
642.4653	0.0078
642.6523	0.014
642.8392	-0.0009
643.0261	0.0111
643.213	-0.0061
643.3999	0.0247
643.5867	0.0214
643.7735	-0.0112
643.9604	0.0248
644.1472	0.0053
644.3339	0.0009
644.5207	-0.0106
644.7075	0.0038
644.8942	-0.0079
645.0809	0.0005
645.2676	-0.0075
645.4543	0.0178
645.6409	0.038
645.8276	0.0265
646.0142	0.0109
646.2008	0.0193
646.3874	-0.0008
646.574	0.0145
646.7605	0.0097
646.9471	0.0167
647.1336	-0.0173
647.3201	0.0037
647.5066	0.0053
647.6931	0.0103
647.8795	-0.002
648.0659	0.0107
648.2524	0.016
648.4388	0.0067
648.6252	0.015
648.8115	-0.0015
648.9979	0.0235
649.1842	0.0045
649.3705	0.0174
649.5568	-0.0008
649.7431	-0.0011
649.9294	-0.0011
650.1156	-0.0101
650.3018	0.0203
650.488	0.0149
650.6742	0.0252
650.8604	0.0113
651.0466	0.0035
651.2327	0.0266
651.4188	-0.0047
651.6049	0.0219
651.791	0.0029
651.9771	0.0147
652.1632	0.0129
652.3492	0.0057
652.5352	0.0167
652.7212	0.0075
652.9072	0.0025
653.0932	0.0141
653.2791	0.0045
653.465	0.0042
653.651	0.0004
653.8369	0.0124
654.0227	0.0017
654.2086	0.0008
654.3944	0.0051
654.5803	0.0079
654.7661	-0.0048
654.9519	0.0023
655.1377	0
655.3234	0
655.5092	0
655.6949	0
655.8806	0
656.0663	0
656.2519	0
656.4376	0
656.6232	0
656.8088	0
656.9945	0
657.18	0
657.3656	0
657.5511	0
657.7367	0
657.9222	0
658.1077	0
658.2932	0
658.4786	0
658.6641	0
658.8495	0
659.0349	0
659.2203	0
659.4057	0.0107
659.591	0.2775
659.7764	0.0329
659.9617	0.0212
660.147	0.0028
660.3323	0.0275
660.5176	0.0131
660.7028	-0.0016
660.888	0.0007
661.0733	0.0411
661.2585	-0.0056
661.4436	-0.0096
661.6288	0.0173
661.8139	0.0005
661.9991	0.0034
662.1842	0.0048
662.3693	-0.0067
662.5544	0.0288
662.7394	0.0215
662.9245	0.0011
663.1095	0.0017
663.2945	0.0009
663.4795	-0.0016
663.6644	0.0259
663.8494	-0.0023
664.0343	0.0188
664.2193	-0.0073
664.4042	0.012
664.589	0.0077
664.7739	0.0049
664.9587	-0.009
665.1436	-0.0041
665.3284	0.0122
665.5132	-0.0088
665.698	0.0074
665.8827	0.0117
666.0675	-0.0158
666.2522	0.0155
666.4369	-0.0009
666.6216	0.0201
666.8063	0.0251
666.9909	-0.0017
667.1756	-0.0094
667.3602	0.0164
667.5448	0.0066
667.7294	0.0048
667.9139	0.0063
668.0985	-0.0027
668.283	0.0031
668.4675	0.0276
668.652	-0.0022
668.8365	-0.0046
669.0209	-0.0035
669.2054	0.0058
669.3898	0.0032
669.5742	0.02
669.7586	0.0285
669.943	0.0089
670.1273	0.0007
670.3117	0.029
670.496	0.0292
670.6803	0.0128
670.8646	-0.0052
671.0488	0.0246
671.2331	-0.0084
671.4173	0.0086
671.6015	0.0141
671.7857	0.0149
671.9699	0.0061
672.1541	0.0052
672.3382	0.0028
672.5223	0.004
672.7064	-0.0054
672.8905	0.0063
673.0746	0.0102
673.2587	0.0235
673.4427	0.0125
673.6267	0.009
673.8107	0.0407
673.9947	0.0032
674.1787	0.0167
674.3626	0.0173
674.5465	0.0106
674.7304	0.0069
674.9143	0.0049
675.0982	0.0069
675.2821	0.0237
675.4659	-0.0055
675.6497	-0.0026
675.8335	0.0064
676.0173	0
676.2011	0.0051
676.3849	-0.0069
676.5686	0.0213
676.7523	0.0023
676.936	0.0166
677.1197	0.0069
677.3034	0.0279
677.487	0.0208
677.6706	0.0296
677.8542	0.0149
678.0378	0.0186
678.2214	0.0245
678.405	0.0093
678.5885	0.0108
678.772	0.0165
678.9555	0.0129
679.139	0.0076
679.3225	0.0051
679.5059	-0.0032
679.6894	0.0126
679.8728	0.0056
680.0562	0.0009
680.2395	0.0086
680.4229	-0.0071
680.6062	0.0156
680.7896	0.0005
680.9729	0.0039
681.1562	0.004
681.3394	0.0085
681.5227	0.0124
681.7059	0.005
681.8891	0.0295
682.0723	0
682.2555	0.0178
682.4387	0.0088
682.6218	0.0138
682.805	0.0075
682.9881	0.0229
683.1712	0.0106
683.3542	0.0138
683.5373	-0.0078
683.7203	0.014
683.9034	0.0058
684.0864	-0.0084
684.2694	0.0046
684.4523	0.0131
684.6353	-0.0007
684.8182	0
685.0011	0.003
685.184	0.0002
685.3669	0.0176
685.5498	0.0111
685.7326	0.0116
685.9154	0.0133
686.0982	0.0141
686.281	-0.009
686.4638	0.0098
686.6465	0.0027
686.8293	-0.0107
687.012	0.0162
687.1947	0.0111
687.3774	0.0105
687.56	-0.0131
687.7427	0.0136
687.9253	-0.016
688.1079	0.0015
688.2905	0.0151
688.4731	0.014
688.6556	0.0031
688.8382	-0.0193
689.0207	0.002
689.2032	0.0298
689.3857	-0.0076
689.5681	-0.0154
689.7506	0.0366
689.933	-0.0046
690.1154	-0.0003
690.2978	-0.0145
690.4802	0.019
690.6626	0.0089
690.8449	0.0214
691.0272	-0.0045
691.2095	-0.0019
691.3918	0.0119
691.5741	0.0167
691.7563	0.0189
691.9386	0.0237
692.1208	0.0054
692.303	-0.0025
692.4852	0.0101
692.6673	-0.0018
692.8495	-0.001
693.0316	0.0131
693.2137	0.0282
693.3958	0.0186
693.5778	-0.0009
693.7599	0.007
693.9419	-0.0203
694.1239	0.0118
694.3059	0.0275
694.4879	0.0035
694.6699	-0.0089
694.8518	-0.0013
695.0337	0.0149
695.2157	0.021
695.3975	0.0103
695.5794	0.0171
695.7613	0.0237
695.9431	-0.0039
696.1249	0.0182
696.3067	-0.0197
696.4885	0.0139
696.6703	0.0081
696.852	0.0046
697.0337	0.0222
697.2154	0.0314
697.3971	-0.0064
697.5788	0.0088
697.7605	-0.004
697.9421	0.0145
698.1237	0.0226
698.3053	-0.0005
698.4869	0.0177
698.6685	-0.0094
698.85	0.0351
699.0315	-0.0156
699.213	0.0363
699.3945	0.0004
699.576	0.0262
699.7575	0.0148
699.9389	-0.0183
700.1203	-0.0071
700.3017	0.0004
700.4831	0.0271
700.6645	0.0027
700.8458	0.0141
701.0271	0.0244
701.2084	0.0367
701.3897	0.0091
701.571	-0.0159
701.7523	0.008
701.9335	0.012
702.1147	0.0298
702.2959	-0.0094
702.4771	-0.0015
702.6583	0.0093
702.8394	0.0172
703.0205	0.0203
703.2016	0.0102
703.3827	0.0161
703.5638	0.0038
703.7449	0.043
703.9259	0.0121
704.1069	-0.0227
704.2879	0.0221
704.4689	0
704.6499	0.0336
704.8308	0.0388
705.0117	0.0263
705.1927	-0.0053
705.3735	0.0122
705.5544	0.0217
705.7353	-0.0095
705.9161	-0.0103
706.0969	0.0186
706.2777	0.0043
706.4585	0.0065
706.6393	0.0092
706.82	0.0108
707.0007	0.0015
707.1815	-0.0015
707.3621	0.0278
707.5428	0.0203
707.7235	0.0218
707.9041	0.0073
708.0847	0.014
708.2653	0.0469
708.4459	0.0021
708.6265	-0.0235
708.807	0.0159
708.9875	0.0015
709.168	-0.0049
709.3485	0.0038
709.529	0.017
709.7095	-0.0286
709.8899	0.0157
710.0703	0.0315
710.2507	0.0136
710.4311	-0.0165
710.6115	0.0242
710.7918	0.0288
710.9721	-0.0027
711.1524	0.0015
711.3327	-0.0184
711.513	0.002
711.6932	0.0116
711.8735	0.0142
712.0537	-0.0004
712.2339	-0.002
712.4141	0.0371
712.5942	-0.0068
712.7744	-0.0033
712.9545	0.0107
713.1346	0.033
713.3147	0.0068
713.4947	0.0081
713.6748	0.0124
713.8548	0.0257
714.0348	0.0127
714.2148	0.0285
714.3948	0.0199
714.5748	0.0166
714.7547	0.022
714.9346	0.0257
715.1145	-0.0098
715.2944	-0.0213
715.4743	0.0096
715.6541	0.0109
715.834	0.0173
716.0138	0.0326
716.1936	0.0331
716.3733	0.0259
716.5531	0.0011
716.7328	0.0251
716.9126	0.0345
717.0923	0.0082
717.2719	0.0186
717.4516	0.032
717.6312	-0.0171
717.8109	0.0131
717.9905	0.0394
718.1701	0.0063
718.3496	-0.0169
718.5292	-0.0137
718.7087	0.0004
718.8882	0.019
719.0677	0.0164
719.2472	0.0249
719.4267	-0.0044
719.6061	-0.0237
719.7856	0.0415
719.965	0.003
720.1443	0.0067
720.3237	-0.0113
720.5031	0.0195
720.6824	0.0263
720.8617	0.0145
721.041	0.0464
721.2203	-0.0262
721.3995	0.0148
721.5788	0.0044
721.758	0.0076
721.9372	0.0266
722.1164	-0.0097
722.2956	-0.0008
722.4747	0.0165
722.6538	-0.0035
722.8329	0.0198
723.012	0.009
723.1911	-0.0075
723.3702	0.0395
723.5492	0.0056
723.7282	0.0039
723.9072	0.0332
724.0862	-0.007
724.2652	0.0144
724.4441	0.0078
724.623	0.0114
724.8019	0.0033
724.9808	0.033
725.1597	0.0117
725.3385	0.0103
725.5174	0.0166
725.6962	-0.0117
725.875	0.0203
726.0538	0.0177
726.2325	0.0183
726.4112	0.0072
726.59	-0.0118
726.7687	0.0004
726.9474	0.0157
727.126	0.017
727.3047	-0.007
727.4833	0.0337
727.6619	0.0083
727.8405	0.0021
728.0191	0.0312
728.1976	0.0166
728.3762	-0.0057
728.5547	0.0239
728.7332	-0.0054
728.9116	0.0173
729.0901	0.007
729.2686	0.0131
729.447	0.001
729.6254	0.0073
729.8038	-0.0012
729.9821	-0.028
730.1605	-0.0018
730.3388	0.005
730.5171	0.0411
730.6954	-0.0095
730.8737	-0.004
731.0519	0.0038
731.2302	0.0177
731.4084	0.0222
731.5866	-0.0031
731.7648	-0.0006
731.9429	0.0385
732.1211	0.0081
732.2992	-0.0102
732.4773	0.0171
732.6554	0.0115
732.8335	0.0161
733.0115	0.0261
733.1896	-0.0018
733.3676	0.0107
733.5456	0.0099
733.7235	0.0002
733.9015	0.0015
734.0794	0.0164
734.2574	-0.013
734.4353	0.0253
734.6131	0.0282
734.791	-0.01
734.9689	-0.0045
735.1467	0.0061
735.3245	0.0251
735.5023	0.0239
735.68	0.0102
735.8578	0.0274
736.0355	0.0286
736.2132	0.0195
736.3909	0.0174
736.5686	-0.0013
736.7463	-0.018
736.9239	0.0167
737.1015	0.0234
737.2791	0.0074
737.4567	0.0024
737.6343	-0.0049
737.8118	0.0187
737.9894	0.0205
738.1669	-0.0072
738.3444	0.0358
738.5218	-0.0006
738.6993	0.0197
738.8767	0.0129
739.0541	-0.0015
739.2315	0.0105
739.4089	0.0361
739.5863	0.01
739.7636	0.0148
739.9409	0.0194
740.1182	0.0105
740.2955	0.0219
740.4728	0.0022
740.65	0.0076
740.8272	0.0343
741.0044	-0.0413
741.1816	0.033
741.3588	0.0033
741.5359	-0.0133
741.7131	0.0185
741.8902	0.0034
742.0673	-0.0154
742.2444	0.0253
742.4214	0.0166
742.5985	0.0089
742.7755	-0.0055
742.9525	-0.0066
743.1295	-0.003
743.3064	0.0144
743.4834	0.023
743.6603	0.0574
743.8372	-0.0406
744.0141	0.0536
744.191	-0.0097
744.3678	-0.0242
744.5446	-0.0128
744.7215	0.0009
744.8982	0.03
745.075	0.0622
745.2518	0.0162
745.4285	-0.0139
745.6052	-0.0303
745.7819	0.0191
745.9586	0.0087
746.1353	0.0119
746.3119	0.0158
746.4885	0.0151
746.6651	0.0271
746.8417	0.0064
747.0183	0.0733
747.1948	0.0009
747.3714	0.01
747.5479	0.0331
747.7244	0.0179
747.9008	0.0051
748.0773	0.0458
748.2537	0.0534
748.4301	0.0296
748.6065	-0.0093
748.7829	-0.0082
748.9593	-0.0083
749.1356	0.0222
749.3119	0.009
749.4882	0.0308
749.6645	0.0239
749.8408	0.0091
750.017	0.0121
750.1933	-0.0278
750.3695	0.0207
750.5457	0.0103
750.7218	0.0116
750.898	-0.0033
751.0741	0.0023
751.2502	0.0081
751.4263	-0.0006
751.6024	-0.0048
751.7784	0.0014
751.9545	0.0056
752.1305	-0.0007
752.3065	0.0298
752.4825	-0.0191
752.6584	0.018
752.8344	-0.0141
753.0103	-0.0064
753.1862	0.0188
753.3621	-0.0106
753.5379	-0.017
753.7138	-0.004
753.8896	-0.0021
754.0654	-0.0058
754.2412	0.0413
754.417	0.0338
754.5927	0.0086
754.7685	0.0096
754.9442	0.0077
755.1199	0.0154
755.2956	-0.0111
755.4712	0.0078
755.6469	0.0046
755.8225	0.0093
755.9981	0.0311
756.1736	0.001
756.3492	0.0104
756.5248	0.0112
756.7003	0.0087
756.8758	-0.0086
757.0513	-0.0002
757.2267	0.0243
757.4022	-0.0031
757.5776	-0.0024
757.753	0.0322
757.9284	0.0034
758.1038	0.0209
758.2791	0.0121
758.4545	-0.0139
758.6298	0.007
758.8051	0.03
758.9803	-0.0016
759.1556	-0.013
759.3308	-0.0065
759.506	0.0031
759.6812	0.0011
759.8564	0.0109
760.0316	0.0045
760.2067	0.0255
760.3819	0.0173
760.557	0.0002
760.732	0.007
760.9071	0.0148
761.0821	-0.0133
761.2572	0.0195
761.4322	0.0015
761.6072	-0.0017
761.7821	-0.0253
761.9571	0.0228
762.132	0.0211
762.3069	0.0245
762.4818	0.0046
762.6567	-0.0003
762.8316	0.0134
763.0064	-0.0033
763.1812	0.0082
763.356	-0.0087
763.5308	0.036
763.7055	-0.0018
763.8803	0.0177
764.055	0.0077
764.2297	0.0036
764.4044	-0.0042
764.579	0.0088
764.7537	0
764.9283	0.0203
765.1029	0.0124
765.2775	0.031
765.4521	0.019
765.6266	0.0047
765.8011	0.0093
765.9756	0.0018
766.1501	0.0021
766.3246	-0.0054
766.4991	-0.0033
766.6735	0.0308
766.8479	0.0174
767.0223	0.0224
767.1967	0.0121
767.371	0.0184
767.5454	0.0167
767.7197	0.0174
767.894	0.0245
768.0683	0.0084
768.2425	0.0287
768.4168	0.0129
768.591	-0.001
768.7652	0.0065
768.9394	-0.0097
769.1135	-0.0199
769.2877	0.0458
769.4618	0.007
769.6359	0.0144
769.81	0.0197
769.984	-0.0248
770.1581	-0.0092
770.3321	0.0328
770.5061	0.0058
770.6801	0.0115
770.8541	0.0144
771.028	0.04
771.202	0.037
771.3759	-0.008
771.5498	0.0162
771.7236	0.01
771.8975	0.0471
772.0713	0.0065
772.2451	-0.0186
772.4189	-0.019
772.5927	-0.0278
772.7665	-0.0176
772.9402	0.0128
773.1139	-0.0071
773.2876	-0.0103
773.4613	0.0191
773.635	0.0472
773.8086	0.0445
773.9822	0.0343
774.1558	0.0018
774.3294	-0.0067
774.503	-0.0048
774.6765	-0.0047
774.8501	0.0253
775.0236	0.0254
775.1971	-0.003
775.3705	0.0016
775.544	-0.0426
775.7174	-0.0007
775.8908	0.0234
776.0642	0.0281
776.2376	0.024
776.4109	0.0433
776.5843	-0.0078
776.7576	0.0408
776.9309	0.0467
777.1041	-0.0148
777.2774	0.011
777.4506	0.0018
777.6238	-0.0287
777.797	0.0129
777.9702	0.0398
778.1434	0.0082
778.3165	-0.0343
778.4896	-0.0618
778.6627	0.0064
778.8358	-0.0102
779.0089	-0.0239
779.1819	0.0266
779.3549	-0.0057
779.5279	-0.0246
779.7009	0.0613
779.8739	0.0824
780.0468	0.0008
780.2197	0.0304
780.3926	-0.0278
780.5655	0.0117
780.7384	0.0026
780.9112	0.0067
781.0841	0.0443
781.2569	0.0313
781.4297	-0.0067
781.6024	0.0376
781.7752	0.0364
781.9479	0.0532
782.1206	-0.0114
782.2933	-0.01
782.466	-0.0068
782.6386	-0.0124
782.8113	-0.0176
782.9839	0.0108
783.1565	0.0056
783.329	-0.028
783.5016	0.0093
783.6741	0.033
783.8466	0.0203
784.0191	0.0371
784.1916	0.0016
784.3641	-0.0221
784.5365	0.0085
784.7089	-0.0163
784.8813	0.0805
785.0537	0.0254
785.2261	0.0098
785.3984	-0.0013
785.5707	-0.0292
785.743	0.0135
785.9153	-0.0292
786.0876	-0.0015
786.2598	0.0061
786.432	0.0261
786.6042	0.0165
786.7764	-0.027
786.9486	0.007
787.1207	0.0381
787.2928	0.0538
787.4649	-0.0347
787.637	0.0255
787.8091	0.0107
787.9811	-0.0043
788.1532	0.0242
788.3252	-0.0005
788.4972	0.0045
788.6691	0.0048
788.8411	0.0129
789.013	0.0818
789.1849	0.0022
789.3568	0.0202
789.5287	0.0526
789.7005	-0.0046
789.8723	-0.0263
790.0442	-0.0019
790.2159	0.0424
790.3877	0.0343
790.5595	0.0589
790.7312	0.0021
790.9029	0.0063
791.0746	0.0198
791.2463	-0.0483
791.4179	-0.0155
791.5896	0.0202
791.7612	0.0185
791.9328	-0.0437
792.1044	-0.0078
792.2759	-0.107
792.4474	-0.0192
792.619	0.0116
792.7905	0.0128
792.9619	0.0053
793.1334	0.0481
793.3048	0.0553
793.4762	0.0068
793.6476	-0.0093
793.819	-0.0019
793.9904	-0.006
794.1617	-0.0037
794.333	0.0208
794.5043	0.0111
794.6756	0.0456
794.8469	0.0112
795.0181	-0.0074
795.1893	0.0412
795.3605	0.0271
795.5317	-0.0031
795.7029	-0.0292
795.874	0.0221
796.0452	0.0405
796.2163	0.0363
796.3873	0.0413
796.5584	0.0318
796.7294	0.0246
796.9005	0.0211
797.0715	-0.0259
797.2425	0.0755
797.4134	0.0436
797.5844	0.0655
797.7553	-0.0099
797.9262	0.0622
798.0971	-0.002
798.2679	0.0187
798.4388	0.0244
798.6096	0.0507
798.7804	-0.0406
798.9512	0.0366
799.122	-0.0449
799.2927	0.025
799.4635	-0.0542
799.6342	-0.0029
799.8049	0.0472
799.9755	-0.0095
800.1462	-0.0314
800.3168	0.0576
800.4874	-0.0682
800.658	0.0244
800.8286	0.0224
800.9991	0.0113
801.1696	-0.0493
801.3402	-0.0455
801.5106	-0.0224
801.6811	0.0334
801.8516	0.0181
802.022	-0.0017
802.1924	-0.0142
802.3628	0.0434
802.5332	0.0796
802.7035	0.0416
802.8739	-0.0151
803.0442	-0.0017
803.2145	0.0018
803.3847	0.1614
803.555	0.0324
803.7252	-0.0421
803.8954	-0.0833
804.0656	-0.063
804.2358	0.0755
804.4059	0.0616
804.5761	0.0175
804.7462	-0.0379
804.9163	0.0413
805.0864	0.0001
805.2564	0.0195
805.4264	-0.0612
805.5965	0.0188
805.7665	0.0874
805.9364	0.0111
806.1064	0.0072
806.2763	0.0203
806.4462	-0.0036
806.6161	0.03
806.786	-0.0029
806.9559	0.0324
807.1257	-0.0129
807.2955	0.0035
807.4653	0.0025
807.6351	-0.0294
807.8048	0.0154
807.9746	0.0804
808.1443	-0.0349
808.314	0.0444
808.4837	0.0166
808.6533	0.0429
808.8229	0.0214
808.9926	0.021
809.1622	0.0867
809.3317	-0.0084
809.5013	-0.035
809.6708	0.0153
809.8403	0.039
810.0098	0.051
810.1793	-0.0262
810.3488	-0.0455
810.5182	0.175
810.6876	0.1096
810.857	-0.0256
811.0264	-0.0944
811.1958	0.0157
811.3651	0.0146
811.5344	0.0711
811.7037	0.0962
811.873	0.0242
812.0422	-0.0821
812.2115	0.111
812.3807	-0.1587
812.5499	0.0242
812.7191	-0.0543
812.8882	0.0362
813.0574	0.0384
813.2265	-0.0991
813.3956	-0.0319
813.5646	0.0381
813.7337	0.0434
813.9027	-0.0986
814.0718	0.0144
814.2407	0.0909
814.4097	0.0272
814.5787	0.1558
814.7476	0.021
814.9165	0.0124
815.0854	0.0315
815.2543	-0.0357
815.4232	0.0964
815.592	0.0832
815.7608	-0.1221
815.9296	-0.0026
816.0984	0.1074
816.2671	-0.1992
816.4359	0.1222
816.6046	-0.0177
816.7733	-0.0231
816.942	-0.0181
817.1106	0.0118
817.2793	-0.0331
817.4479	0.0945
817.6165	-0.0073
817.785	0.0379
817.9536	-0.0655
818.1221	0.0367
818.2906	-0.1439
818.4591	0.0114
818.6276	0.0027
818.7961	0.0654
818.9645	-0.0293
819.1329	-0.0728
819.3013	-0.0912
819.4697	0.3385
819.638	0.1753
819.8064	0.0036
819.9747	0.0599
820.143	-0.1378
820.3113	0.0034
820.4795	0.1442
820.6477	0.062
820.816	0.007
820.9842	0.0814
821.1523	-0.0501
821.3205	-0.0059
821.4886	-0.0646
821.6567	-0.0582
821.8248	0.1276
821.9929	-0.131
822.1609	-0.0707
822.329	0.1387
822.497	0.1118
822.665	0.0444
822.833	-0.2054
823.0009	-0.0032
823.1688	0.0497
823.3367	-0.0158
823.5046	0.1293
823.6725	0.0344
823.8404	-0.1875
824.0082	-0.0827
824.176	-0.0095
824.3438	0.0571
824.5116	-0.0366
824.6793	0.1043
824.847	-0.0222
825.0147	0.0229
825.1824	-0.06
825.3501	-0.069
825.5177	-0.1154
825.6854	-0.0334
825.853	-0.0101
826.0206	-0.0242
826.1881	-0.0941
826.3557	0.0863
826.5232	0.1179
826.6907	0.0319
826.8582	0.0749
827.0257	0.0036
827.1931	0.0592
827.3605	0.1717
827.528	-0.0487
827.6953	-0.1628
827.8627	-0.0073
828.03	0.0129
828.1974	-0.0503
828.3647	-0.0556
828.532	-0.0424
828.6992	0.109
828.8665	-0.1163
829.0337	0.2401
829.2009	-0.1452
829.3681	0.0132
829.5352	-0.2765
829.7024	0.15
829.8695	-0.043
830.0366	0.232
830.2037	0.0733
830.3707	0.0669
830.5378	-0.0417
830.7048	-0.0479
830.8718	-0.1097
831.0388	-0.0991
831.2057	0.0751
831.3727	-0.5563
831.5396	0.1294
831.7065	-0.9297
831.8734	0.1751
832.0402	0.306
832.2071	-0.5436
832.3739	-0.2412
832.5407	-1.5241
832.7075	-0.1964
832.8742	-0.0858
833.041	0.0257
833.2077	0.4119
833.3744	-0.1169
833.541	-0.0437
833.7077	0.2802
833.8743	0.2125
834.0409	-0.0325
834.2075	0.1145
834.3741	-0.1525
834.5407	0.1624
834.7072	0.1578
834.8737	-0.0285
835.0402	0.2243
835.2067	0.0006
835.3731	0.1245
835.5395	-0.0865
835.706	-0.2127
835.8723	0.3166
836.0387	0.0329
836.2051	0.0257
836.3714	-0.097
836.5377	0.0513
836.704	0.08
836.8703	-0.3023
837.0365	-0.6044
837.2027	-0.0375
837.3689	0.0004
837.5351	0.3571
837.7013	0.3069
837.8674	-0.2352
838.0335	0.0442
838.1997	0.1858
838.3657	-0
838.5318	-0.212
838.6978	-0.0396
838.8639	0.1388
839.0299	-0.0386
839.1958	0.2557
839.3618	0.4523
839.5277	0.7393
839.6937	-0.0294
839.8596	-0.2753
840.0254	0.1623
840.1913	-0.0487
840.3571	-0.1702
840.523	-0
840.6888	0.1907
840.8545	-0.7578
841.0203	0.7813
841.186	0.3129
841.3517	-0.3026
841.5174	0.1967
841.6831	-0.0983
841.8488	-0.0395
842.0144	-0.1865
842.18	0.6144
842.3456	-0.6674
842.5112	-0
842.6767	0.0622
842.8422	-0.1835
843.0077	0.2783
843.1732	-0.4682
843.3387	0.1419
843.5042	-0
843.6696	0.6432
843.835	0.442
844.0004	0.0112
844.1657	-0.9908
844.3311	0.2149
844.4964	-0.3781
844.6617	0.6448
844.827	0.2937
844.9923	0.3782
845.1575	-0.1541
845.3227	-0.3142
845.4879	-0.0326
845.6531	-0.0668
845.8183	0.1932
845.9834	-0
846.1485	0.3147
846.3136	-0.1534
846.4787	-0
846.6438	0.1806
846.8088	0.1695
846.9738	-0
847.1388	0.0689
847.3038	0.2154
847.4687	-0
847.6337	-0.7425
847.7986	0.0963
847.9635	-0.0591
848.1284	-0
848.2932	0.4125
848.458	-0
848.6228	-0
848.7876	-0
848.9524	0.0027
849.1172	-1.4516
849.2819	-0
849.4466	0.7245
849.6113	0.6321
849.7759	-0
849.9406	-0.1127
850.1052	-0.6755
850.2698	0.5006
850.4344	-0.7167
850.599	0.0152
850.7635	-0.2526
850.928	0.4225
851.0925	1.2167
851.257	0.223
851.4215	1.0875
851.5859	-0.0928
851.7503	-0
851.9147	-0.3984
852.0791	-0.1253
852.2434	0.1467
852.4078	-0
852.5721	0.4103
852.7364	0.1491
852.9007	-0.1209
853.0649	-0
853.2291	0.3358
853.3934	-0
853.5575	-0.3415
853.7217	0.4055
853.8859	-0
854.05	-0.3833
854.2141	0.2128
854.3782	0.1179
854.5423	-0.4992
854.7063	0.0199
854.8703	0.2484
855.0343	-0.1056
855.1983	0.3892
855.3623	0.7348
855.5262	0.5621
855.6901	0.1602
855.854	0.2487
856.0179	0.5656
856.1818	-0
856.3456	0.3899
856.5094	-0.3335
856.6732	-0
856.837	-1.0861
857.0008	-0
857.1645	-0
857.3282	-0.4645
857.4919	0.0007
857.6556	-0.2799
857.8192	0.0235
857.9828	-0.3844
858.1465	-0.0593
858.31	-0
858.4736	-0
858.6372	-0
858.8007	-0.1095
858.9642	-0.0877
859.1277	-0
859.2911	-0.5962
859.4546	-0
859.618	0.0523
859.7814	-0
859.9448	0.3446
860.1081	-0
860.2715	-1.6734
860.4348	0.5484
860.5981	-0
860.7614	0.0031
860.9246	0.137
861.0879	0.2153
861.2511	-0
861.4143	-0.5563
861.5774	-0.0159
861.7406	0.5212
861.9037	-0.3632
862.0668	-0
862.2299	0.3258
862.393	-0
862.556	-0
862.7191	0.132
862.8821	0.1663
863.0451	-0.0325
863.208	0.1704
863.371	-0
863.5339	0.4355
863.6968	0.1535
863.8597	0.0313
864.0225	-0
864.1854	0.1441
864.3482	-1.2263
864.511	-0.0105
864.6737	-0
864.8365	0.3432
864.9992	-0
865.1619	-0.2772
865.3246	-0.7782
865.4873	-0
865.65	0.38
865.8126	0.2955
865.9752	-0.1948
866.1378	0.0925
866.3004	-0.4332
866.4629	-1.6052
866.6254	1.3649
866.7879	-0.1097
866.9504	-0
867.1129	0.2344
867.2753	-0.2918
867.4377	-0.3036
867.6001	-0.2362
867.7625	-0.0099
867.9249	-0
868.0872	0.3592
868.2495	-0
868.4118	-0
868.5741	-0.8892
868.7363	-0
868.8986	-0.5447
869.0608	0.6267
869.223	-0.4954
869.3851	-0
869.5473	-0.1122
869.7094	0.5086
869.8715	-0
870.0336	-0.0156
870.1957	-0.3958
870.3577	1.347
870.5197	-0.3248
870.6817	-0.5881
870.8437	-0
871.0057	-0
871.1676	0.1245
871.3295	-0.1787
871.4914	-0
871.6533	0.9516
871.8151	0.8852
871.977	-0.1784
872.1388	-0.4524
872.3006	-0.5183
872.4623	-0.7066
872.6241	-0
872.7858	-0.1326
872.9475	-0
873.1092	0.3517
873.2709	0.2879
873.4325	-0.7782
873.5941	-0
873.7557	-0
873.9173	0.1386
874.0789	0.2835
874.2404	-0
874.4019	0.2544
874.5634	-0
874.7249	0.6581
874.8863	0.0796
875.0478	-0.2688
875.2092	-0
875.3706	0.2328
875.5319	0.4322
875.6933	-0.1629
875.8546	-0.306
876.0159	-0.1366
876.1772	-0.3896
876.3385	-0
876.4997	1.3234
876.6609	0.2112
876.8221	-0
876.9833	0.2537
877.1445	0.4935
877.3056	-0.5172
877.4667	-1.2623
877.6278	0.1551
877.7889	0.3665
877.9499	-0
878.111	-0.3984
878.272	-0
878.433	-0
878.5939	0.9927
878.7549	-0.0603
878.9158	-0.2195
879.0767	0.4401
879.2376	0.4466
879.3984	0.7466
879.5593	0.4471
879.7201	-0.632
879.8809	-0.1128
880.0417	-0.0301
880.2024	-0.0427
880.3632	-0.7844
880.5239	1.3234
880.6846	-0.0875
880.8452	-0
881.0059	-0
881.1665	-0.0577
881.3271	-0
881.4877	-0.205
881.6483	-1.2881
881.8088	-0
881.9693	-0
882.1298	-0
882.2903	-0
