Data from D4ACN5uM420nmA_Absorbance_14-37-08-832.txt Node
Date: Fri Feb 21 14:37:08 GMT 2025
User: LASERRRRR
Spectrometer: FLMT03099
Trigger mode: 0
Integration Time (sec): 1.500000E-2
Scans to average: 1
Electric dark correction enabled: true
Nonlinearity correction enabled: false
Boxcar width: 0
XAxis mode: Wavelengths
Number of Pixels in Spectrum: 3648
>>>>>Begin Spectral Data<<<<<
179.3399	-0.3034
179.5586	-0.3034
179.7771	-0.3034
179.9957	-0.0094
180.2143	-0
180.4329	-0
180.6514	-0.9351
180.8699	0.0474
181.0885	-0
181.307	0.2748
181.5255	0.8437
181.744	0.5784
181.9625	0.4062
182.181	-0
182.3994	-0.0976
182.6179	-0.2234
182.8363	-0
183.0547	0.0057
183.2732	0.197
183.4916	0.105
183.71	0.3699
183.9284	0.0668
184.1467	0.572
184.3651	0.1078
184.5835	0.1697
184.8018	0.1585
185.0201	0.1181
185.2385	0.3329
185.4568	0.3531
185.6751	0.1315
185.8934	0.3013
186.1117	-0.0673
186.3299	0.2641
186.5482	0.2303
186.7664	0.1565
186.9847	0.0456
187.2029	0.293
187.4211	0.1222
187.6393	0.2532
187.8575	0.2725
188.0757	1.0669
188.2939	0.3334
188.512	0.536
188.7302	0.0927
188.9483	0.3578
189.1665	0.6502
189.3846	0.4141
189.6027	0.143
189.8208	0.3431
190.0389	0.2393
190.257	0.0344
190.475	0.1692
190.6931	0.2054
190.9111	0.1274
191.1292	0.2369
191.3472	0.2008
191.5652	0.2537
191.7832	0.244
192.0012	0.288
192.2192	0.1856
192.4371	0.2083
192.6551	0.2824
192.873	0.1642
193.091	0.1047
193.3089	0.1639
193.5268	0.1669
193.7447	0.1803
193.9626	0.1427
194.1805	0.1881
194.3984	0.2611
194.6162	0.2184
194.8341	0.2533
195.0519	0.1946
195.2697	0.2347
195.4875	0.3158
195.7054	0.2718
195.9231	0.1974
196.1409	0.3192
196.3587	0.2592
196.5765	0.319
196.7942	0.3274
197.012	0.3385
197.2297	0.2998
197.4474	0.3946
197.6651	0.348
197.8828	0.3584
198.1005	0.4056
198.3182	0.3468
198.5358	0.3951
198.7535	0.3982
198.9711	0.4284
199.1888	0.3704
199.4064	0.421
199.624	0.3928
199.8416	0.4078
200.0592	0.378
200.2767	0.425
200.4943	0.4105
200.7119	0.3876
200.9294	0.4159
201.1469	0.4036
201.3645	0.4434
201.582	0.3962
201.7995	0.4222
202.017	0.4413
202.2344	0.4165
202.4519	0.3895
202.6694	0.3713
202.8868	0.3927
203.1042	0.3486
203.3217	0.3832
203.5391	0.3628
203.7565	0.376
203.9739	0.3334
204.1913	0.3587
204.4086	0.3468
204.626	0.3626
204.8433	0.379
205.0607	0.3398
205.278	0.3745
205.4953	0.3669
205.7126	0.34
205.9299	0.3519
206.1472	0.3145
206.3644	0.3454
206.5817	0.3217
206.7989	0.3264
207.0162	0.3273
207.2334	0.3095
207.4506	0.321
207.6678	0.277
207.885	0.2796
208.1022	0.3253
208.3194	0.2836
208.5365	0.2848
208.7537	0.2939
208.9708	0.3029
209.1879	0.2894
209.405	0.27
209.6222	0.2793
209.8392	0.2887
210.0563	0.2941
210.2734	0.2685
210.4905	0.286
210.7075	0.2705
210.9245	0.2777
211.1416	0.2569
211.3586	0.2485
211.5756	0.2539
211.7926	0.2674
212.0096	0.265
212.2265	0.2434
212.4435	0.2421
212.6604	0.2528
212.8774	0.235
213.0943	0.2653
213.3112	0.248
213.5281	0.2487
213.745	0.2371
213.9619	0.2432
214.1788	0.2734
214.3956	0.2397
214.6125	0.2662
214.8293	0.2413
215.0461	0.244
215.2629	0.2493
215.4798	0.2572
215.6965	0.2272
215.9133	0.256
216.1301	0.2331
216.3469	0.2417
216.5636	0.2405
216.7803	0.2494
216.9971	0.253
217.2138	0.2524
217.4305	0.2439
217.6472	0.2515
217.8639	0.2408
218.0805	0.2468
218.2972	0.2376
218.5138	0.2406
218.7305	0.257
218.9471	0.2462
219.1637	0.2686
219.3803	0.2482
219.5969	0.2368
219.8135	0.2705
220.0301	0.2492
220.2466	0.2446
220.4632	0.2541
220.6797	0.2534
220.8962	0.2464
221.1127	0.26
221.3292	0.2755
221.5457	0.2637
221.7622	0.2711
221.9787	0.2822
222.1951	0.268
222.4116	0.2851
222.628	0.2763
222.8444	0.268
223.0608	0.2638
223.2772	0.2808
223.4936	0.2884
223.71	0.2795
223.9264	0.2957
224.1427	0.2825
224.3591	0.2855
224.5754	0.2765
224.7917	0.2928
225.008	0.2882
225.2243	0.3034
225.4406	0.2823
225.6569	0.3082
225.8732	0.3173
226.0894	0.3186
226.3057	0.2988
226.5219	0.3054
226.7381	0.3157
226.9543	0.3041
227.1705	0.3072
227.3867	0.3242
227.6029	0.3383
227.8191	0.3317
228.0352	0.3352
228.2513	0.3503
228.4675	0.3542
228.6836	0.3431
228.8997	0.3372
229.1158	0.3478
229.3319	0.3575
229.548	0.3561
229.764	0.3491
229.9801	0.3652
230.1961	0.369
230.4121	0.3654
230.6282	0.3838
230.8442	0.3897
231.0602	0.383
231.2761	0.3768
231.4921	0.3862
231.7081	0.3936
231.924	0.4074
232.14	0.4019
232.3559	0.4004
232.5718	0.4229
232.7877	0.4167
233.0036	0.4111
233.2195	0.4259
233.4353	0.4191
233.6512	0.4161
233.867	0.4226
234.0829	0.436
234.2987	0.4309
234.5145	0.4346
234.7303	0.4446
234.9461	0.4489
235.1619	0.4298
235.3776	0.4445
235.5934	0.4315
235.8091	0.4443
236.0249	0.4508
236.2406	0.4466
236.4563	0.4471
236.672	0.4415
236.8877	0.4581
237.1034	0.4461
237.319	0.4548
237.5347	0.4448
237.7503	0.4648
237.966	0.4668
238.1816	0.4662
238.3972	0.4555
238.6128	0.4702
238.8284	0.4738
239.0439	0.4633
239.2595	0.4563
239.475	0.4616
239.6906	0.4606
239.9061	0.4546
240.1216	0.4655
240.3371	0.4649
240.5526	0.4762
240.7681	0.4642
240.9836	0.4551
241.199	0.4513
241.4145	0.4568
241.6299	0.4489
241.8453	0.4548
242.0607	0.442
242.2761	0.4361
242.4915	0.4302
242.7069	0.4256
242.9223	0.444
243.1376	0.4188
243.353	0.4144
243.5683	0.4048
243.7836	0.4031
243.9989	0.3923
244.2142	0.3903
244.4295	0.3928
244.6448	0.378
244.86	0.3709
245.0753	0.3602
245.2905	0.3553
245.5057	0.3543
245.721	0.3536
245.9362	0.3403
246.1514	0.3382
246.3665	0.3187
246.5817	0.3081
246.7969	0.3058
247.012	0.2989
247.2271	0.2993
247.4423	0.2949
247.6574	0.2922
247.8725	0.2853
248.0876	0.2797
248.3026	0.2738
248.5177	0.2605
248.7328	0.2649
248.9478	0.26
249.1628	0.2597
249.3779	0.2492
249.5929	0.2453
249.8079	0.2429
250.0228	0.2338
250.2378	0.2339
250.4528	0.2353
250.6677	0.2337
250.8827	0.2235
251.0976	0.2227
251.3125	0.2257
251.5274	0.2151
251.7423	0.2139
251.9572	0.2158
252.172	0.2182
252.3869	0.2083
252.6017	0.2089
252.8166	0.2046
253.0314	0.1969
253.2462	0.1977
253.461	0.1983
253.6758	0.1974
253.8906	0.1966
254.1053	0.197
254.3201	0.1975
254.5348	0.1918
254.7496	0.1865
254.9643	0.1926
255.179	0.1887
255.3937	0.192
255.6083	0.1974
255.823	0.1928
256.0377	0.1877
256.2523	0.1907
256.467	0.1939
256.6816	0.1881
256.8962	0.194
257.1108	0.1886
257.3254	0.1858
257.54	0.1807
257.7545	0.1844
257.9691	0.1863
258.1836	0.1802
258.3981	0.1856
258.6127	0.1825
258.8272	0.1939
259.0417	0.1785
259.2561	0.1762
259.4706	0.1861
259.6851	0.1809
259.8995	0.1832
260.114	0.1872
260.3284	0.1762
260.5428	0.1791
260.7572	0.1812
260.9716	0.1835
261.186	0.1793
261.4003	0.1791
261.6147	0.181
261.829	0.1806
262.0433	0.1863
262.2577	0.1901
262.472	0.1867
262.6863	0.1942
262.9005	0.1865
263.1148	0.1825
263.3291	0.191
263.5433	0.1866
263.7576	0.1897
263.9718	0.187
264.186	0.1942
264.4002	0.1886
264.6144	0.1954
264.8286	0.1974
265.0427	0.1962
265.2569	0.1909
265.471	0.1943
265.6851	0.1876
265.8993	0.1902
266.1134	0.1944
266.3275	0.1926
266.5415	0.196
266.7556	0.1992
266.9697	0.1987
267.1837	0.1929
267.3978	0.2001
267.6118	0.1909
267.8258	0.197
268.0398	0.2014
268.2538	0.201
268.4677	0.1888
268.6817	0.1933
268.8957	0.1913
269.1096	0.188
269.3235	0.1878
269.5374	0.192
269.7514	0.1939
269.9652	0.1885
270.1791	0.1901
270.393	0.189
270.6068	0.1937
270.8207	0.1878
271.0345	0.1895
271.2483	0.1853
271.4622	0.1916
271.676	0.1893
271.8897	0.1882
272.1035	0.1959
272.3173	0.1932
272.531	0.1855
272.7448	0.1885
272.9585	0.1952
273.1722	0.186
273.3859	0.1982
273.5996	0.198
273.8133	0.1962
274.0269	0.194
274.2406	0.1911
274.4542	0.1908
274.6679	0.1941
274.8815	0.199
275.0951	0.205
275.3087	0.2006
275.5223	0.1982
275.7358	0.2013
275.9494	0.1998
276.1629	0.2052
276.3765	0.2055
276.59	0.2013
276.8035	0.2072
277.017	0.2091
277.2305	0.2079
277.444	0.2031
277.6574	0.2015
277.8709	0.2127
278.0843	0.2115
278.2978	0.2075
278.5112	0.206
278.7246	0.2041
278.938	0.209
279.1513	0.2042
279.3647	0.2052
279.5781	0.2036
279.7914	0.2053
280.0047	0.199
280.2181	0.1953
280.4314	0.1997
280.6447	0.2055
280.8579	0.1943
281.0712	0.1925
281.2845	0.2004
281.4977	0.2012
281.711	0.1973
281.9242	0.1979
282.1374	0.1957
282.3506	0.1987
282.5638	0.1933
282.7769	0.1897
282.9901	0.1922
283.2033	0.1954
283.4164	0.1985
283.6295	0.1936
283.8426	0.1924
284.0557	0.195
284.2688	0.1972
284.4819	0.1874
284.695	0.2001
284.908	0.1854
285.1211	0.1982
285.3341	0.1848
285.5471	0.1927
285.7601	0.1956
285.9731	0.1953
286.1861	0.1974
286.3991	0.1932
286.612	0.1957
286.825	0.1888
287.0379	0.1924
287.2508	0.1902
287.4637	0.1916
287.6766	0.189
287.8895	0.1868
288.1024	0.1938
288.3152	0.1949
288.5281	0.1858
288.7409	0.1925
288.9538	0.1945
289.1666	0.1962
289.3794	0.1871
289.5922	0.186
289.8049	0.1903
290.0177	0.1946
290.2304	0.1885
290.4432	0.1968
290.6559	0.1901
290.8686	0.1908
291.0813	0.1917
291.294	0.1883
291.5067	0.188
291.7194	0.192
291.932	0.1854
292.1447	0.1923
292.3573	0.1941
292.5699	0.1886
292.7825	0.1894
292.9951	0.1929
293.2077	0.1934
293.4203	0.1869
293.6328	0.1867
293.8454	0.1885
294.0579	0.1884
294.2704	0.1951
294.4829	0.1855
294.6954	0.1866
294.9079	0.1891
295.1204	0.1905
295.3328	0.1949
295.5453	0.188
295.7577	0.1864
295.9701	0.1888
296.1825	0.187
296.3949	0.1901
296.6073	0.1862
296.8197	0.1899
297.0321	0.1894
297.2444	0.1819
297.4567	0.1952
297.6691	0.1866
297.8814	0.1855
298.0937	0.1908
298.306	0.1849
298.5182	0.1909
298.7305	0.1857
298.9428	0.1916
299.155	0.1789
299.3672	0.1918
299.5794	0.1882
299.7916	0.1918
300.0038	0.1901
300.216	0.1908
300.4282	0.188
300.6403	0.1941
300.8525	0.1896
301.0646	0.192
301.2767	0.1905
301.4888	0.1866
301.7009	0.1916
301.913	0.1877
302.125	0.193
302.3371	0.1891
302.5491	0.194
302.7612	0.1911
302.9732	0.1937
303.1852	0.1928
303.3972	0.1871
303.6092	0.1872
303.8211	0.1897
304.0331	0.1846
304.245	0.1867
304.457	0.1812
304.6689	0.1882
304.8808	0.1854
305.0927	0.1908
305.3046	0.1857
305.5164	0.1828
305.7283	0.1812
305.9401	0.1772
306.152	0.1797
306.3638	0.1845
306.5756	0.1815
306.7874	0.1785
306.9992	0.1767
307.2109	0.1731
307.4227	0.1779
307.6344	0.1803
307.8462	0.1689
308.0579	0.1737
308.2696	0.172
308.4813	0.1659
308.693	0.1706
308.9046	0.1706
309.1163	0.1658
309.328	0.1692
309.5396	0.1615
309.7512	0.1602
309.9628	0.161
310.1744	0.1568
310.386	0.1539
310.5976	0.1552
310.8091	0.1613
311.0207	0.1552
311.2322	0.1508
311.4437	0.1504
311.6552	0.1573
311.8667	0.153
312.0782	0.1496
312.2897	0.155
312.5012	0.1513
312.7126	0.1424
312.924	0.1493
313.1355	0.1476
313.3469	0.148
313.5583	0.1486
313.7696	0.1445
313.981	0.15
314.1924	0.1434
314.4037	0.1463
314.6151	0.144
314.8264	0.1467
315.0377	0.1414
315.249	0.1485
315.4603	0.1376
315.6716	0.1407
315.8828	0.1402
316.0941	0.143
316.3053	0.1418
316.5165	0.1402
316.7277	0.1386
316.9389	0.1411
317.1501	0.1444
317.3613	0.1418
317.5724	0.1437
317.7836	0.1325
317.9947	0.1387
318.2058	0.1374
318.417	0.1357
318.6281	0.1395
318.8391	0.1418
319.0502	0.1372
319.2613	0.1379
319.4723	0.1368
319.6834	0.1415
319.8944	0.1378
320.1054	0.1448
320.3164	0.1361
320.5274	0.1335
320.7383	0.1389
320.9493	0.1371
321.1602	0.1383
321.3712	0.138
321.5821	0.1347
321.793	0.1456
322.0039	0.1383
322.2148	0.1367
322.4257	0.1339
322.6365	0.136
322.8474	0.148
323.0582	0.1416
323.269	0.1393
323.4798	0.1384
323.6906	0.139
323.9014	0.1338
324.1122	0.1408
324.3229	0.1422
324.5337	0.1447
324.7444	0.1435
324.9551	0.1476
325.1658	0.1438
325.3765	0.1465
325.5872	0.1423
325.7979	0.1526
326.0085	0.1405
326.2192	0.1423
326.4298	0.1454
326.6404	0.1485
326.851	0.1378
327.0616	0.152
327.2722	0.1464
327.4828	0.1509
327.6933	0.1573
327.9039	0.144
328.1144	0.1453
328.3249	0.1461
328.5354	0.1474
328.7459	0.1511
328.9564	0.1561
329.1669	0.1543
329.3773	0.1563
329.5878	0.153
329.7982	0.151
330.0086	0.1587
330.219	0.1495
330.4294	0.1517
330.6398	0.1525
330.8502	0.1545
331.0605	0.1571
331.2708	0.1541
331.4812	0.1573
331.6915	0.1596
331.9018	0.1534
332.1121	0.1631
332.3224	0.1544
332.5326	0.1548
332.7429	0.155
332.9531	0.157
333.1633	0.1545
333.3735	0.1554
333.5837	0.1555
333.7939	0.1561
334.0041	0.1601
334.2143	0.1585
334.4244	0.1678
334.6346	0.1549
334.8447	0.1552
335.0548	0.1561
335.2649	0.1539
335.475	0.1567
335.685	0.1578
335.8951	0.1496
336.1051	0.1579
336.3152	0.1566
336.5252	0.1544
336.7352	0.1592
336.9452	0.1533
337.1552	0.154
337.3652	0.1522
337.5751	0.1518
337.7851	0.1544
337.995	0.1564
338.2049	0.1533
338.4148	0.1558
338.6247	0.1553
338.8346	0.1546
339.0445	0.15
339.2543	0.1565
339.4642	0.1597
339.674	0.1507
339.8838	0.1537
340.0936	0.1528
340.3034	0.1601
340.5132	0.1532
340.7229	0.1545
340.9327	0.1651
341.1424	0.154
341.3522	0.1544
341.5619	0.1657
341.7716	0.1681
341.9813	0.1684
342.1909	0.1669
342.4006	0.162
342.6102	0.1641
342.8199	0.1606
343.0295	0.1573
343.2391	0.1602
343.4487	0.1638
343.6583	0.1767
343.8679	0.1659
344.0774	0.1707
344.287	0.1714
344.4965	0.1754
344.706	0.1766
344.9155	0.1705
345.125	0.1705
345.3345	0.1729
345.544	0.1763
345.7534	0.1736
345.9629	0.1832
346.1723	0.1794
346.3817	0.1756
346.5911	0.1799
346.8005	0.1881
347.0099	0.1766
347.2193	0.1803
347.4286	0.1866
347.638	0.1794
347.8473	0.1854
348.0566	0.1854
348.2659	0.1864
348.4752	0.1925
348.6845	0.1822
348.8937	0.1835
349.103	0.1893
349.3122	0.1897
349.5214	0.1935
349.7306	0.1937
349.9398	0.1869
350.149	0.1858
350.3582	0.1856
350.5674	0.1952
350.7765	0.1972
350.9856	0.1894
351.1948	0.1926
351.4039	0.1881
351.613	0.1948
351.822	0.1971
352.0311	0.1873
352.2402	0.198
352.4492	0.1917
352.6582	0.1975
352.8672	0.1911
353.0762	0.1912
353.2852	0.1887
353.4942	0.1897
353.7032	0.193
353.9121	0.1905
354.1211	0.1946
354.33	0.1917
354.5389	0.1876
354.7478	0.1913
354.9567	0.1885
355.1655	0.195
355.3744	0.1933
355.5833	0.1936
355.7921	0.195
356.0009	0.1891
356.2097	0.1886
356.4185	0.1818
356.6273	0.1847
356.8361	0.1881
357.0448	0.1925
357.2536	0.1924
357.4623	0.1898
357.671	0.1993
357.8797	0.1908
358.0884	0.1893
358.2971	0.1916
358.5057	0.1971
358.7144	0.1968
358.923	0.1993
359.1316	0.2003
359.3402	0.1977
359.5488	0.1929
359.7574	0.1959
359.966	0.2041
360.1746	0.2003
360.3831	0.2004
360.5916	0.1964
360.8002	0.2055
361.0087	0.1991
361.2172	0.1995
361.4256	0.2027
361.6341	0.2026
361.8426	0.2036
362.051	0.2023
362.2594	0.195
362.4678	0.212
362.6762	0.2139
362.8846	0.2096
363.093	0.2074
363.3014	0.2158
363.5097	0.207
363.718	0.2123
363.9264	0.2059
364.1347	0.2104
364.343	0.222
364.5513	0.2144
364.7595	0.2201
364.9678	0.2056
365.176	0.2097
365.3842	0.2208
365.5925	0.213
365.8007	0.2119
366.0089	0.2229
366.217	0.2222
366.4252	0.2195
366.6333	0.2222
366.8415	0.2235
367.0496	0.2213
367.2577	0.2301
367.4658	0.2236
367.6739	0.2217
367.882	0.2205
368.09	0.2266
368.2981	0.2271
368.5061	0.2288
368.7141	0.2228
368.9221	0.2316
369.1301	0.2332
369.3381	0.2291
369.5461	0.2307
369.754	0.2344
369.962	0.2305
370.1699	0.2389
370.3778	0.2459
370.5857	0.2304
370.7936	0.2388
371.0015	0.2339
371.2093	0.2329
371.4172	0.2351
371.625	0.2341
371.8328	0.241
372.0406	0.248
372.2484	0.2434
372.4562	0.2394
372.664	0.2392
372.8717	0.2393
373.0795	0.242
373.2872	0.2435
373.4949	0.2441
373.7026	0.2446
373.9103	0.2374
374.118	0.2424
374.3256	0.2435
374.5333	0.2445
374.7409	0.2425
374.9485	0.2464
375.1561	0.2504
375.3637	0.2433
375.5713	0.2485
375.7789	0.2551
375.9864	0.2549
376.194	0.2517
376.4015	0.2421
376.609	0.2513
376.8165	0.2549
377.024	0.2566
377.2315	0.2566
377.4389	0.2533
377.6464	0.2569
377.8538	0.2587
378.0612	0.2536
378.2686	0.2515
378.476	0.2701
378.6834	0.2537
378.8908	0.2565
379.0981	0.2537
379.3055	0.2631
379.5128	0.2531
379.7201	0.2629
379.9274	0.2572
380.1347	0.2671
380.342	0.2629
380.5492	0.2629
380.7565	0.2568
380.9637	0.2695
381.1709	0.2635
381.3781	0.2677
381.5853	0.2695
381.7925	0.2599
381.9997	0.2628
382.2068	0.2591
382.4139	0.2702
382.6211	0.2711
382.8282	0.2714
383.0353	0.2731
383.2424	0.262
383.4494	0.2755
383.6565	0.2618
383.8635	0.268
384.0706	0.27
384.2776	0.265
384.4846	0.2652
384.6916	0.2719
384.8986	0.2722
385.1055	0.281
385.3125	0.2764
385.5194	0.2813
385.7263	0.267
385.9333	0.2781
386.1402	0.2729
386.347	0.2619
386.5539	0.2666
386.7608	0.2608
386.9676	0.2659
387.1744	0.2714
387.3813	0.2676
387.5881	0.267
387.7948	0.2747
388.0016	0.2782
388.2084	0.2671
388.4151	0.2725
388.6219	0.2561
388.8286	0.2667
389.0353	0.2734
389.242	0.2675
389.4487	0.2684
389.6553	0.2615
389.862	0.257
390.0686	0.2685
390.2753	0.2682
390.4819	0.2686
390.6885	0.2665
390.8951	0.2652
391.1016	0.2596
391.3082	0.2618
391.5147	0.2583
391.7213	0.2533
391.9278	0.2471
392.1343	0.2604
392.3408	0.2632
392.5473	0.2529
392.7537	0.2618
392.9602	0.2588
393.1666	0.2502
393.373	0.2534
393.5794	0.2514
393.7858	0.2539
393.9922	0.2488
394.1986	0.249
394.4049	0.2471
394.6113	0.251
394.8176	0.2492
395.0239	0.2358
395.2302	0.2414
395.4365	0.2491
395.6428	0.2394
395.8491	0.2372
396.0553	0.2352
396.2615	0.2418
396.4678	0.2471
396.674	0.2335
396.8802	0.2388
397.0863	0.2363
397.2925	0.2349
397.4987	0.2265
397.7048	0.2441
397.9109	0.2222
398.117	0.2298
398.3231	0.2328
398.5292	0.2195
398.7353	0.2253
398.9413	0.2234
399.1474	0.2328
399.3534	0.2416
399.5594	0.2365
399.7654	0.2263
399.9714	0.2319
400.1774	0.2231
400.3833	0.2287
400.5893	0.2252
400.7952	0.2332
401.0011	0.2363
401.207	0.2335
401.4129	0.228
401.6188	0.2152
401.8247	0.2314
402.0305	0.2215
402.2364	0.2281
402.4422	0.2358
402.648	0.2272
402.8538	0.2358
403.0596	0.2294
403.2654	0.2325
403.4711	0.2251
403.6768	0.2235
403.8826	0.2297
404.0883	0.2259
404.294	0.2278
404.4997	0.226
404.7054	0.2303
404.911	0.226
405.1167	0.224
405.3223	0.2279
405.5279	0.2359
405.7335	0.2244
405.9391	0.2199
406.1447	0.2342
406.3502	0.2229
406.5558	0.2232
406.7613	0.2166
406.9668	0.2266
407.1724	0.2249
407.3778	0.2261
407.5833	0.217
407.7888	0.2233
407.9942	0.2234
408.1997	0.2299
408.4051	0.2236
408.6105	0.2243
408.8159	0.2217
409.0213	0.2336
409.2267	0.2345
409.432	0.2157
409.6374	0.2312
409.8427	0.2296
410.048	0.2332
410.2533	0.2291
410.4586	0.2142
410.6639	0.224
410.8691	0.22
411.0744	0.242
411.2796	0.2316
411.4848	0.2283
411.69	0.2185
411.8952	0.2341
412.1004	0.2234
412.3056	0.2221
412.5107	0.2301
412.7158	0.2325
412.921	0.2275
413.1261	0.2199
413.3312	0.2278
413.5362	0.2325
413.7413	0.2199
413.9464	0.2199
414.1514	0.2233
414.3564	0.2243
414.5614	0.2129
414.7664	0.2195
414.9714	0.2153
415.1764	0.2268
415.3813	0.219
415.5863	0.2269
415.7912	0.2166
415.9961	0.2242
416.201	0.2319
416.4059	0.214
416.6108	0.2227
416.8156	0.2187
417.0205	0.2206
417.2253	0.214
417.4301	0.2243
417.6349	0.2154
417.8397	0.2262
418.0445	0.2197
418.2492	0.2137
418.454	0.2219
418.6587	0.2261
418.8634	0.2139
419.0681	0.2198
419.2728	0.2132
419.4775	0.2156
419.6822	0.2072
419.8868	0.2085
420.0915	0.2085
420.2961	0.2033
420.5007	0.2167
420.7053	0.2114
420.9099	0.2064
421.1144	0.2085
421.319	0.2105
421.5235	0.2
421.728	0.2062
421.9325	0.2106
422.137	0.2055
422.3415	0.2122
422.546	0.2003
422.7504	0.2051
422.9549	0.2125
423.1593	0.1972
423.3637	0.2049
423.5681	0.2015
423.7725	0.1873
423.9769	0.208
424.1812	0.202
424.3856	0.1917
424.5899	0.1898
424.7942	0.195
424.9985	0.1943
425.2028	0.1924
425.4071	0.2017
425.6113	0.1962
425.8156	0.1948
426.0198	0.1956
426.224	0.1973
426.4282	0.1928
426.6324	0.1766
426.8366	0.1912
427.0407	0.1866
427.2449	0.1893
427.449	0.1851
427.6531	0.1872
427.8572	0.1844
428.0613	0.1906
428.2654	0.1801
428.4694	0.1742
428.6735	0.1811
428.8775	0.1736
429.0815	0.1775
429.2855	0.1771
429.4895	0.1784
429.6935	0.1692
429.8975	0.1695
430.1014	0.1677
430.3053	0.1751
430.5093	0.1693
430.7132	0.1602
430.9171	0.158
431.1209	0.1615
431.3248	0.1572
431.5286	0.161
431.7325	0.162
431.9363	0.1528
432.1401	0.1532
432.3439	0.1501
432.5477	0.1471
432.7514	0.1551
432.9552	0.1487
433.1589	0.1466
433.3627	0.1545
433.5664	0.1421
433.7701	0.149
433.9737	0.1547
434.1774	0.1404
434.3811	0.1312
434.5847	0.137
434.7883	0.1419
434.9919	0.1364
435.1955	0.1418
435.3991	0.14
435.6027	0.1319
435.8062	0.1326
436.0098	0.1287
436.2133	0.1262
436.4168	0.1317
436.6203	0.1253
436.8238	0.1233
437.0272	0.1271
437.2307	0.1095
437.4341	0.1251
437.6375	0.1334
437.841	0.1232
438.0443	0.1152
438.2477	0.1067
438.4511	0.1051
438.6545	0.1193
438.8578	0.1132
439.0611	0.1128
439.2644	0.1031
439.4677	0.1096
439.671	0.098
439.8743	0.1058
440.0775	0.0926
440.2808	0.0987
440.484	0.0952
440.6872	0.1051
440.8904	0.0881
441.0936	0.0959
441.2967	0.0915
441.4999	0.087
441.703	0.0916
441.9062	0.0983
442.1093	0.0963
442.3124	0.0833
442.5155	0.0928
442.7185	0.0834
442.9216	0.0821
443.1246	0.0784
443.3276	0.0886
443.5307	0.069
443.7337	0.0812
443.9366	0.0742
444.1396	0.0735
444.3426	0.0739
444.5455	0.0775
444.7484	0.0672
444.9513	0.0716
445.1542	0.0747
445.3571	0.0713
445.56	0.0666
445.7628	0.0689
445.9657	0.0779
446.1685	0.072
446.3713	0.0746
446.5741	0.0662
446.7769	0.0705
446.9797	0.0637
447.1824	0.0622
447.3852	0.0381
447.5879	0.0546
447.7906	0.0547
447.9933	0.0585
448.196	0.0514
448.3986	0.0462
448.6013	0.0484
448.8039	0.0553
449.0066	0.0573
449.2092	0.058
449.4118	0.0498
449.6143	0.0482
449.8169	0.0476
450.0195	0.0507
450.222	0.0449
450.4245	0.0473
450.627	0.0499
450.8295	0.0401
451.032	0.0412
451.2345	0.0356
451.4369	0.0373
451.6394	0.0438
451.8418	0.04
452.0442	0.041
452.2466	0.0397
452.449	0.0395
452.6513	0.0312
452.8537	0.0351
453.056	0.03
453.2583	0.0394
453.4607	0.022
453.663	0.031
453.8652	0.0373
454.0675	0.0344
454.2697	0.0372
454.472	0.0371
454.6742	0.0322
454.8764	0.0422
455.0786	0.0323
455.2808	0.0223
455.4829	0.0357
455.6851	0.0309
455.8872	0.0278
456.0893	0.0315
456.2915	0.0236
456.4935	0.0304
456.6956	0.0266
456.8977	0.0252
457.0997	0.026
457.3018	0.0189
457.5038	0.0318
457.7058	0.029
457.9078	0.0262
458.1098	0.0272
458.3117	0.0229
458.5137	0.0127
458.7156	0.03
458.9175	0.0245
459.1194	0.0269
459.3213	0.0235
459.5232	0.0234
459.725	0.0233
459.9269	0.0195
460.1287	0.0217
460.3305	0.0273
460.5323	0.0254
460.7341	0.0276
460.9359	0.01
461.1376	0.023
461.3394	0.0229
461.5411	0.0299
461.7428	0.0189
461.9445	0.0178
462.1462	0.0155
462.3479	0.021
462.5495	0.019
462.7512	0.0269
462.9528	0.0133
463.1544	0.0129
463.356	0.0138
463.5576	0.0201
463.7592	0.0171
463.9607	0.0119
464.1623	0.0129
464.3638	0.0072
464.5653	0.016
464.7668	0.0173
464.9683	0.017
465.1697	0.0093
465.3712	0.0138
465.5726	0.0102
465.7741	0.0244
465.9755	0.0159
466.1769	0.0128
466.3782	0.0104
466.5796	0.0158
466.7809	0.0137
466.9823	0.0045
467.1836	0.0162
467.3849	0.017
467.5862	-0.0013
467.7875	0.0106
467.9887	0.014
468.19	0.006
468.3912	0.0102
468.5924	0.0034
468.7936	0.0118
468.9948	0.001
469.196	0.0071
469.3972	0.0042
469.5983	0.0059
469.7994	0.0166
470.0006	0.0085
470.2017	0.0045
470.4027	0.0227
470.6038	0.0119
470.8049	0.0189
471.0059	0.0218
471.2069	0.0171
471.408	0.0134
471.6089	0.0158
471.8099	0.0157
472.0109	0.0134
472.2119	0.011
472.4128	-0.0002
472.6137	0.0042
472.8146	0.0056
473.0155	0.0156
473.2164	0.0086
473.4173	-0.0034
473.6181	0.0042
473.819	0.0117
474.0198	0.008
474.2206	-0.0001
474.4214	0.0141
474.6222	-0.0065
474.8229	0.0046
475.0237	0.0125
475.2244	0.0167
475.4251	0.0073
475.6258	0.0082
475.8265	0.0063
476.0272	0.0012
476.2278	0.0108
476.4285	0.0087
476.6291	0.0116
476.8297	0.0141
477.0303	0.0121
477.2309	0.0083
477.4315	0.01
477.632	-0.0018
477.8326	0.0132
478.0331	0.0183
478.2336	0.0069
478.4341	0.0123
478.6346	0.0032
478.8351	-0.0019
479.0355	0.0129
479.236	0.0098
479.4364	0.0102
479.6368	0.0088
479.8372	0.0136
480.0376	0.0106
480.2379	0.0068
480.4383	0.0105
480.6386	-0.0048
480.8389	0.0001
481.0392	0.0005
481.2395	0.0115
481.4398	0.0127
481.6401	0.0035
481.8403	0.0032
482.0405	0.0097
482.2408	0.0059
482.441	0.0076
482.6411	0.0035
482.8413	0.0057
483.0415	0.0121
483.2416	0.0053
483.4417	0.0086
483.6419	-0.0016
483.8419	0.0076
484.042	0.0019
484.2421	-0.0017
484.4422	0.0012
484.6422	0.0069
484.8422	0.0089
485.0422	0.0067
485.2422	0.0061
485.4422	0.0034
485.6422	0.0045
485.8421	0.0045
486.042	0.0109
486.242	0.0052
486.4419	0.007
486.6417	0.0094
486.8416	0.006
487.0415	0.0046
487.2413	0.0038
487.4411	0.0058
487.641	0.0018
487.8408	0.0122
488.0405	0.0067
488.2403	0.0028
488.4401	0.0006
488.6398	0.0022
488.8395	0.0048
489.0392	0.0098
489.2389	0.0079
489.4386	-0.007
489.6383	0.005
489.8379	0.0045
490.0376	0.0014
490.2372	0.0027
490.4368	-0.0009
490.6364	-0.0025
490.836	-0.0064
491.0355	-0.0062
491.2351	0.0061
491.4346	0.0046
491.6341	0.0048
491.8336	0.0094
492.0331	0.0014
492.2326	0.0055
492.432	0.0077
492.6315	0.0063
492.8309	0.002
493.0303	0.0046
493.2297	0.0078
493.4291	0.0049
493.6284	0.0183
493.8278	-0.0006
494.0271	0.0008
494.2264	0.0035
494.4257	0.0042
494.625	-0.0035
494.8243	-0.0051
495.0236	-0.0022
495.2228	0.0043
495.422	0.0096
495.6213	0.0019
495.8205	0.0054
496.0196	0.001
496.2188	0.0046
496.418	0.0006
496.6171	-0.001
496.8162	0.0018
497.0153	0.0036
497.2144	0.0004
497.4135	-0.0006
497.6126	0.0015
497.8116	-0.0037
498.0107	0.0043
498.2097	0.0075
498.4087	-0.0035
498.6077	-0.0094
498.8067	0.0059
499.0056	0.002
499.2046	0.0037
499.4035	0.0113
499.6024	-0.004
499.8013	0.0117
500.0002	0.0075
500.199	0.01
500.3979	-0.0079
500.5967	0.0028
500.7956	0.0062
500.9944	-0.0021
501.1932	0.0057
501.3919	0.0098
501.5907	0.0057
501.7895	-0.0042
501.9882	-0.0004
502.1869	0.0091
502.3856	0.0003
502.5843	0.0006
502.783	0.0039
502.9816	0.0073
503.1803	0.0012
503.3789	0.007
503.5775	-0.0054
503.7761	-0.0072
503.9747	0.0055
504.1732	-0.0002
504.3718	0.0105
504.5703	0.0086
504.7689	-0.0052
504.9674	-0.0094
505.1658	0.0014
505.3643	0.0053
505.5628	0.0039
505.7612	0.0062
505.9597	-0.0085
506.1581	-0.0004
506.3565	-0.0017
506.5549	-0.0003
506.7532	-0.0065
506.9516	0.0033
507.1499	-0.0004
507.3482	0
507.5465	0.0028
507.7448	-0.0019
507.9431	0.0045
508.1414	-0.006
508.3396	0.0078
508.5379	-0.0034
508.7361	-0.0012
508.9343	-0.0009
509.1325	0.0088
509.3306	0.0031
509.5288	-0.0102
509.7269	0.003
509.9251	0.0054
510.1232	0.0115
510.3213	0.0036
510.5193	-0.0002
510.7174	-0.0043
510.9154	0
511.1135	0.0054
511.3115	-0.0061
511.5095	-0.0037
511.7075	-0.0044
511.9055	-0.0052
512.1034	-0.0019
512.3014	-0.0064
512.4993	0.0049
512.6972	-0.0041
512.8951	0.005
513.093	-0.0076
513.2908	0.0123
513.4887	-0.0049
513.6865	0.0024
513.8844	0.0023
514.0822	-0.0006
514.2799	-0.0003
514.4777	-0.0067
514.6755	-0.0015
514.8732	0.0005
515.0709	0.0003
515.2687	-0.0061
515.4664	0.0109
515.664	-0.0025
515.8617	0.0117
516.0594	0.0012
516.257	-0.001
516.4546	0.0219
516.6522	-0.0003
516.8498	0.0012
517.0474	0.0046
517.2449	0.0013
517.4425	-0.0041
517.64	0.0014
517.8375	0.0092
518.035	-0.0103
518.2325	-0.0021
518.43	-0.0026
518.6274	-0.0035
518.8249	-0.0064
519.0223	0.0092
519.2197	0.0108
519.4171	-0.0043
519.6145	0.0054
519.8118	-0.0189
520.0092	-0.0133
520.2065	0.0057
520.4038	-0.0099
520.6011	0.0015
520.7984	0.0067
520.9956	0.0062
521.1929	-0.0071
521.3901	0.0016
521.5874	0.005
521.7846	-0.0061
521.9818	-0.004
522.1789	0.0007
522.3761	0.016
522.5732	-0.0017
522.7704	-0.0046
522.9675	-0.0101
523.1646	-0.0063
523.3617	0.0081
523.5587	-0.0028
523.7558	-0.0059
523.9528	-0.0066
524.1498	-0.0104
524.3468	0.0045
524.5438	0.0067
524.7408	-0.0063
524.9378	0.01
525.1347	-0.0051
525.3316	0.005
525.5285	-0.0049
525.7254	-0.0019
525.9223	0.0054
526.1192	0.0081
526.316	0.0021
526.5129	0.0027
526.7097	0.0024
526.9065	0.0039
527.1033	-0.0014
527.3	-0.0155
527.4968	0.0108
527.6935	-0.0091
527.8903	0.0015
528.087	0.0019
528.2837	0.0007
528.4804	-0.0052
528.677	-0.0048
528.8737	0.0039
529.0703	-0.0075
529.2669	0.0089
529.4635	-0.0084
529.6601	-0.0006
529.8567	-0.0081
530.0532	0.0063
530.2498	-0.0073
530.4463	-0.0084
530.6428	-0.001
530.8393	0.005
531.0358	0.0001
531.2322	-0.0013
531.4287	0.0033
531.6251	-0.0098
531.8215	-0.0072
532.0179	-0.0029
532.2143	0.0061
532.4107	0.0024
532.607	-0.0083
532.8034	-0.0012
532.9997	-0.0024
533.196	-0.0098
533.3923	0.0125
533.5886	-0.0083
533.7848	0.0001
533.9811	0.0069
534.1773	0.0099
534.3735	0.0009
534.5697	-0.0064
534.7659	-0.0102
534.9621	0.0022
535.1582	0.0014
535.3544	0.0067
535.5505	-0.0015
535.7466	0.0038
535.9427	-0.0006
536.1387	0.0029
536.3348	0.0066
536.5308	0.0017
536.7269	0.0018
536.9229	0.0017
537.1189	-0.0001
537.3148	-0.0027
537.5108	0.0035
537.7068	0.0139
537.9027	-0.012
538.0986	0.0101
538.2945	-0.0049
538.4904	-0.0083
538.6863	0.0051
538.8821	0.0028
539.078	0.0077
539.2738	-0.0029
539.4696	-0.0029
539.6654	0.0005
539.8611	0.0039
540.0569	0.0035
540.2526	0.0022
540.4484	-0.0182
540.6441	-0.0032
540.8398	0.0101
541.0355	0.0025
541.2311	0.0004
541.4268	0.0081
541.6224	0.0096
541.818	0.0025
542.0136	0.0031
542.2092	0.0051
542.4048	0.0063
542.6003	0.0045
542.7959	-0.004
542.9914	0.0078
543.1869	0.0041
543.3824	-0.0024
543.5779	0.0162
543.7734	0.0093
543.9688	0.0044
544.1642	0.003
544.3596	0.0032
544.555	0.0023
544.7504	0.011
544.9458	-0.0007
545.1411	0.0067
545.3365	0.0029
545.5318	-0.0018
545.7271	0.0037
545.9224	0.0009
546.1177	0.0067
546.3129	0.0016
546.5081	0.0065
546.7034	-0.0016
546.8986	-0.0024
547.0938	0.0151
547.289	0.0059
547.4841	-0.0004
547.6793	-0.0085
547.8744	0.0054
548.0695	0.003
548.2646	0.0131
548.4597	0.0044
548.6548	0.0164
548.8498	0.0054
549.0448	0.0049
549.2399	0.0031
549.4349	0.0009
549.6298	0.0113
549.8248	-0.0034
550.0198	0.0038
550.2147	0.0054
550.4096	-0.0112
550.6045	-0.0021
550.7994	0.0013
550.9943	-0.0002
551.1892	-0.0142
551.384	0.0113
551.5788	0.0059
551.7737	0.0031
551.9685	0.0068
552.1632	-0.0057
552.358	0.0065
552.5528	-0.0004
552.7475	-0.0006
552.9422	0.0058
553.1369	0.0147
553.3316	0.0068
553.5263	0.0176
553.7209	0.0095
553.9156	0.0038
554.1102	0.0077
554.3048	-0.0052
554.4994	0.0036
554.694	0.0062
554.8885	0.007
555.0831	0.0112
555.2776	0.0017
555.4721	0.0015
555.6666	-0.0042
555.8611	0.0098
556.0555	0.0035
556.25	0.0071
556.4444	-0.0006
556.6388	0.0047
556.8332	0.0034
557.0276	0.0016
557.222	0.0018
557.4163	0.0121
557.6107	0.0042
557.805	-0.008
557.9993	-0.0007
558.1936	-0.007
558.3879	0.0093
558.5821	-0.0087
558.7764	-0.0039
558.9706	0.0047
559.1648	0.012
559.359	-0.0069
559.5532	-0.0043
559.7473	-0.0047
559.9415	0.0005
560.1356	0.0166
560.3297	0.0086
560.5238	0.008
560.7179	-0.0024
560.9119	0.0017
561.106	-0.0005
561.3	-0.0008
561.494	-0.0053
561.688	0.0037
561.882	0
562.076	0.0035
562.2699	0.0146
562.4639	0.0171
562.6578	0.0146
562.8517	0.0022
563.0456	0.0035
563.2395	0.0158
563.4333	0.013
563.6272	-0.0011
563.821	0.0036
564.0148	0.0079
564.2086	0.0131
564.4024	0.0073
564.5961	0.0079
564.7899	0.0084
564.9836	0.0052
565.1773	0.0171
565.371	0.0029
565.5647	0.0064
565.7584	0.0152
565.952	0.0005
566.1456	0.0051
566.3393	0.0054
566.5329	0.0116
566.7264	0.0036
566.92	0.0107
567.1136	-0.0051
567.3071	-0.0012
567.5006	0.0172
567.6941	0.0007
567.8876	0.0063
568.0811	0.0138
568.2745	0.0035
568.468	0.0066
568.6614	0.0051
568.8548	0.015
569.0482	0.0058
569.2416	0.0071
569.4349	0.0074
569.6283	0.0066
569.8216	0.0101
570.0149	0.0035
570.2082	0.0152
570.4015	0.0041
570.5947	0.0057
570.788	0.007
570.9812	0.0036
571.1744	0.0054
571.3676	0.0024
571.5608	0.0063
571.754	0.0136
571.9471	0.0157
572.1402	0.0065
572.3333	0.0097
572.5264	0.0093
572.7195	0.0067
572.9126	0.0059
573.1057	0.0142
573.2987	0.0062
573.4917	0.0045
573.6847	0.0063
573.8777	0.0134
574.0707	0.0123
574.2636	0.0087
574.4566	0.0042
574.6495	-0.001
574.8424	0.0124
575.0353	0.0083
575.2281	0.0086
575.421	0.0031
575.6138	0.0076
575.8067	0.0103
575.9995	0.0053
576.1923	0.0081
576.385	0.0071
576.5778	0.0125
576.7706	0.0096
576.9633	0.0095
577.156	0.0043
577.3487	0.0061
577.5414	0.0067
577.734	0.0077
577.9267	0.0103
578.1193	0.009
578.3119	0.0043
578.5045	0.0079
578.6971	0.0088
578.8897	0.0081
579.0822	0.0068
579.2747	0.0016
579.4673	0.007
579.6598	0.0059
579.8522	0.0079
580.0447	0.0084
580.2372	0.0129
580.4296	0.0102
580.622	0.0042
580.8144	0.0094
581.0068	0.0079
581.1992	0.0097
581.3915	0.0001
581.5839	0.0077
581.7762	0.0083
581.9685	0.0095
582.1608	0.0083
582.353	0.0065
582.5453	0.0073
582.7375	0.0092
582.9298	0.0049
583.122	0.0022
583.3142	0.0091
583.5063	0.0114
583.6985	0.0063
583.8906	0.0088
584.0827	0.0069
584.2749	0.0073
584.4669	0.0069
584.659	0.0093
584.8511	0.008
585.0431	0.0115
585.2352	0.0074
585.4272	0.009
585.6192	0.0097
585.8111	0.0096
586.0031	0.0054
586.195	0.0082
586.387	0.0054
586.5789	0.0081
586.7708	0.0108
586.9627	0.0056
587.1545	0.0036
587.3464	0.0082
587.5382	0.0058
587.73	0.0104
587.9218	0.0094
588.1136	0.0033
588.3053	0.0093
588.4971	0.0061
588.6888	0.0025
588.8805	0.0036
589.0722	0.0113
589.2639	0.01
589.4556	0.0137
589.6472	0.0166
589.8389	0.0093
590.0305	0.0013
590.2221	0.0079
590.4137	0.0016
590.6052	0.0075
590.7968	0.0052
590.9883	0.0072
591.1798	0.0085
591.3713	0.0003
591.5628	0.0055
591.7543	0.0041
591.9458	0.0036
592.1372	0.006
592.3286	0.0029
592.52	0.0076
592.7114	0.0043
592.9028	0.0124
593.0941	0.0022
593.2855	0.0049
593.4768	0.015
593.6681	0.0076
593.8594	0.0113
594.0506	0.0059
594.2419	0.0116
594.4331	0.0091
594.6244	0.0019
594.8156	0.0076
595.0067	0.0029
595.1979	0.011
595.3891	0.0071
595.5802	0.0123
595.7713	0.0163
595.9624	0.0104
596.1535	0.0129
596.3446	0.0083
596.5357	0.0147
596.7267	0.0055
596.9177	0.0014
597.1087	0.0053
597.2997	0.0089
597.4907	0.0017
597.6817	0.0096
597.8726	0.0154
598.0635	0.0047
598.2544	0.0094
598.4453	0.0081
598.6362	0.0022
598.827	0.0098
599.0179	0.0079
599.2087	0.0148
599.3995	0.0057
599.5903	0.0125
599.7811	0.0094
599.9718	0.0081
600.1626	0.0032
600.3533	0.0045
600.544	0.005
600.7347	0.0071
600.9254	0.0128
601.116	0.008
601.3067	0.0072
601.4973	0.0143
601.6879	0.0088
601.8785	0.0091
602.0691	0.0014
602.2596	0.0103
602.4502	0.0099
602.6407	0.0062
602.8312	0.013
603.0217	0.0065
603.2122	0.0047
603.4027	0.0048
603.5931	0.0051
603.7835	0.0075
603.9739	0.0068
604.1643	0.0056
604.3547	0.008
604.5451	0.0104
604.7354	0.0075
604.9257	0.0009
605.116	-0.0005
605.3063	0.0068
605.4966	0.0008
605.6869	0.0123
605.8771	0.0083
606.0673	0.0057
606.2575	-0.001
606.4477	0.0192
606.6379	0.0075
606.8281	0.0042
607.0182	0.0115
607.2083	0.0061
607.3985	0.0099
607.5885	0.0064
607.7786	0.008
607.9687	0.0135
608.1587	0.0072
608.3488	0.0097
608.5388	0.0005
608.7288	-0.0018
608.9187	0.0052
609.1087	0.008
609.2986	0.0128
609.4886	-0.0025
609.6785	0.0076
609.8684	0.0022
610.0582	0.0042
610.2481	0.005
610.4379	0.0084
610.6278	0.0035
610.8176	0.0097
611.0074	0.0095
611.1971	0.0027
611.3869	0.0085
611.5766	0.0009
611.7664	0.0147
611.9561	0.0089
612.1458	0.0111
612.3354	0.0033
612.5251	0.0018
612.7147	0.0107
612.9044	-0.0018
613.094	0.0124
613.2836	-0.0032
613.4731	0.0111
613.6627	0.0056
613.8522	0.0118
614.0417	0.0093
614.2313	0.0095
614.4207	0.012
614.6102	0.0161
614.7997	0.013
614.9891	0.0145
615.1785	0.003
615.3679	0.0138
615.5573	0.008
615.7467	-0.0003
615.9361	0.0032
616.1254	0.0134
616.3147	0.0123
616.504	0.0141
616.6933	0.0069
616.8826	0.011
617.0718	0.0103
617.2611	0.0017
617.4503	0.0047
617.6395	0.0138
617.8287	0.0106
618.0179	-0.0013
618.207	0.0226
618.3961	0.0021
618.5853	0.0078
618.7744	0.0153
618.9634	0.0094
619.1525	0.006
619.3416	0.0094
619.5306	0.0196
619.7196	0.0088
619.9086	0.01
620.0976	0.0007
620.2866	0.0161
620.4755	-0.0001
620.6645	0.0258
620.8534	0.015
621.0423	0.0066
621.2312	0.0027
621.42	0.0156
621.6089	0.0087
621.7977	0.0149
621.9865	-0.0001
622.1753	-0.0035
622.3641	0.0026
622.5529	0.0042
622.7416	0.0009
622.9303	-0.0006
623.1191	0.0156
623.3078	0.0042
623.4964	0.013
623.6851	0.0194
623.8737	0.0027
624.0624	-0.0082
624.251	0.0045
624.4396	0.0087
624.6282	0.0161
624.8167	0.0013
625.0053	0.0166
625.1938	0.005
625.3823	0.0067
625.5708	0.005
625.7593	0.0097
625.9477	0.0085
626.1362	0.0105
626.3246	0.0033
626.513	0.0079
626.7014	0.014
626.8898	0.0168
627.0781	0.0097
627.2665	0.0143
627.4548	0.0014
627.6431	0.0147
627.8314	0.0141
628.0197	0.0223
628.2079	0.0035
628.3962	0.0109
628.5844	0.0028
628.7726	-0.009
628.9608	0.0103
629.1489	0.0125
629.3371	0.0003
629.5252	0.0019
629.7134	-0.0032
629.9015	0.0159
630.0895	-0.0102
630.2776	0.0117
630.4657	0.0135
630.6537	0.0183
630.8417	0.0031
631.0297	-0.0023
631.2177	0.0056
631.4057	0.0061
631.5936	0.0064
631.7815	0.0023
631.9695	0.0213
632.1574	0.0166
632.3452	0.0178
632.5331	-0.0001
632.7209	0.0041
632.9088	0.0111
633.0966	0.0197
633.2844	0.0035
633.4722	0.028
633.6599	0.0206
633.8477	0.0183
634.0354	0.0207
634.2231	-0.0015
634.4108	-0.0015
634.5985	0.0183
634.7861	-0.0065
634.9738	0.0053
635.1614	0.0113
635.349	0.0056
635.5366	0.01
635.7242	0.0061
635.9117	0.0044
636.0993	0.0087
636.2868	0.0016
636.4743	0.0063
636.6618	-0.0105
636.8492	0.0136
637.0367	0.0022
637.2241	0.0089
637.4115	0.0156
637.5989	0.0087
637.7863	0.0269
637.9737	0.006
638.161	-0.0016
638.3484	0.018
638.5357	0.0067
638.723	0.0171
638.9103	0.0015
639.0975	0.0122
639.2848	0.026
639.472	0.0155
639.6592	-0.004
639.8464	0.0155
640.0336	0.0031
640.2208	0.0126
640.4079	-0.014
640.595	0.0001
640.7821	0.0182
640.9692	0.0076
641.1563	0.0037
641.3434	0.0175
641.5304	0.0206
641.7174	0.0042
641.9044	0.009
642.0914	0.0252
642.2784	-0.003
642.4653	-0.008
642.6523	0.0001
642.8392	0.0057
643.0261	0.022
643.213	0.0085
643.3999	0.0345
643.5867	0.0019
643.7735	0.0013
643.9604	0.0206
644.1472	0.0139
644.3339	-0.0006
644.5207	0.0029
644.7075	0.0134
644.8942	-0.0025
645.0809	0.0086
645.2676	-0.0117
645.4543	-0.0042
645.6409	0.0238
645.8276	-0.0016
646.0142	0.0177
646.2008	0.0034
646.3874	-0.0125
646.574	0.0105
646.7605	0.0224
646.9471	-0.0002
647.1336	0.0015
647.3201	-0.0007
647.5066	0.0121
647.6931	0.0093
647.8795	-0.0014
648.0659	0.012
648.2524	0.0185
648.4388	0.0106
648.6252	0.0131
648.8115	0.0088
648.9979	0.016
649.1842	0.0273
649.3705	0.022
649.5568	-0.0119
649.7431	-0.004
649.9294	-0.0047
650.1156	-0.0136
650.3018	0.0106
650.488	0.0309
650.6742	0.025
650.8604	0.0266
651.0466	0.0045
651.2327	-0.0004
651.4188	0.0103
651.6049	0.0248
651.791	0.0061
651.9771	0.0063
652.1632	0.0085
652.3492	0.013
652.5352	0.0231
652.7212	0.0086
652.9072	0.0108
653.0932	0.0178
653.2791	0.0047
653.465	0.0124
653.651	0.0071
653.8369	0.0078
654.0227	-0.0168
654.2086	0.0045
654.3944	0.0098
654.5803	0.0055
654.7661	-0.003
654.9519	0.0002
655.1377	0.0001
655.3234	0.0001
655.5092	0.0001
655.6949	0.0001
655.8806	0.0001
656.0663	0.0001
656.2519	0.0001
656.4376	0.0001
656.6232	0.0001
656.8088	0.0001
656.9945	0.0001
657.18	0.0001
657.3656	0.0001
657.5511	0.0001
657.7367	0.0001
657.9222	0.0001
658.1077	0.0001
658.2932	0.0001
658.4786	0.0001
658.6641	0.0001
658.8495	0.0001
659.0349	0.0001
659.2203	0.0001
659.4057	0.0135
659.591	0.2782
659.7764	0.0256
659.9617	0.0191
660.147	0.005
660.3323	0.0175
660.5176	0.0089
660.7028	-0.0053
660.888	0.021
661.0733	0.0206
661.2585	-0.0024
661.4436	0.0174
661.6288	0.0247
661.8139	-0.0184
661.9991	-0.0063
662.1842	-0.0036
662.3693	0.0118
662.5544	0.0228
662.7394	0.0213
662.9245	-0.0064
663.1095	0.0081
663.2945	-0.0108
663.4795	0.0092
663.6644	0.0017
663.8494	0.0192
664.0343	0.0032
664.2193	-0.0028
664.4042	0.0139
664.589	0.0191
664.7739	0.0065
664.9587	-0.0121
665.1436	0.0117
665.3284	-0.0007
665.5132	-0.0066
665.698	0.0216
665.8827	0.0144
666.0675	-0.0093
666.2522	0.0175
666.4369	0.0222
666.6216	0.008
666.8063	0.0153
666.9909	0.0233
667.1756	0.0095
667.3602	-0.008
667.5448	0.0027
667.7294	0.0227
667.9139	-0.0175
668.0985	0.0111
668.283	0.0008
668.4675	0.0252
668.652	0.0115
668.8365	-0.0084
669.0209	0.0092
669.2054	0.0304
669.3898	0.0235
669.5742	0.0213
669.7586	-0.0073
669.943	0.02
670.1273	0.011
670.3117	0.0134
670.496	0.0181
670.6803	0.0126
670.8646	-0.0048
671.0488	0.0266
671.2331	-0.0269
671.4173	0.0088
671.6015	0.008
671.7857	0.0044
671.9699	0.0143
672.1541	0.0113
672.3382	-0.0006
672.5223	0.001
672.7064	0.0072
672.8905	0.0141
673.0746	0.0126
673.2587	0.0212
673.4427	0.0212
673.6267	-0.0023
673.8107	0.024
673.9947	0.0173
674.1787	0.0312
674.3626	0.0145
674.5465	0.0065
674.7304	0.015
674.9143	-0.0012
675.0982	0.0164
675.2821	0.0091
675.4659	-0.0118
675.6497	0.0239
675.8335	0.0058
676.0173	0.0023
676.2011	0.0265
676.3849	0.0238
676.5686	0.0214
676.7523	-0.0025
676.936	0.0073
677.1197	0.0026
677.3034	0.0413
677.487	-0.0039
677.6706	0.0043
677.8542	0.0076
678.0378	0.0113
678.2214	0.0134
678.405	0.0118
678.5885	0.0146
678.772	0.0396
678.9555	0.0236
679.139	0.0041
679.3225	-0.0001
679.5059	0.0101
679.6894	0.0082
679.8728	0.0127
680.0562	0.0041
680.2395	-0.0018
680.4229	0.0028
680.6062	0.0076
680.7896	-0.0122
680.9729	0.0143
681.1562	-0.0027
681.3394	0.0019
681.5227	0.0015
681.7059	-0.0012
681.8891	0.0057
682.0723	0.0063
682.2555	0.0048
682.4387	0.0315
682.6218	0.0282
682.805	0.0079
682.9881	0.0201
683.1712	0.0275
683.3542	0.0326
683.5373	0.0012
683.7203	0.0086
683.9034	-0.0072
684.0864	-0.0032
684.2694	-0.0037
684.4523	0.0193
684.6353	0.0082
684.8182	0.0136
685.0011	0.0177
685.184	0.0072
685.3669	0.0115
685.5498	0.0006
685.7326	0.013
685.9154	-0.0015
686.0982	0.0101
686.281	0.0047
686.4638	0.0238
686.6465	0.0071
686.8293	-0.008
687.012	0.0299
687.1947	0.0153
687.3774	0.0174
687.56	-0.0261
687.7427	0.0088
687.9253	0.0033
688.1079	-0.0098
688.2905	-0.0059
688.4731	0.0227
688.6556	0.0264
688.8382	-0.0112
689.0207	0.0046
689.2032	0.0131
689.3857	0.0127
689.5681	-0.0081
689.7506	0.018
689.933	-0.0033
690.1154	0.0075
690.2978	0.0177
690.4802	0.0238
690.6626	0.009
690.8449	0.0199
691.0272	-0.0112
691.2095	-0.0128
691.3918	0.0222
691.5741	0.0184
691.7563	0.0081
691.9386	0.0302
692.1208	0.01
692.303	-0.0004
692.4852	0.0037
692.6673	0.0216
692.8495	-0.0036
693.0316	0.0127
693.2137	0.0137
693.3958	0.0066
693.5778	0.0308
693.7599	-0.0015
693.9419	-0.0057
694.1239	0.0144
694.3059	0.04
694.4879	-0.0008
694.6699	0.0263
694.8518	0.012
695.0337	0.0272
695.2157	0.027
695.3975	0.0127
695.5794	-0.0131
695.7613	0.028
695.9431	0.0125
696.1249	0.0349
696.3067	0.0017
696.4885	0.0252
696.6703	-0.0049
696.852	0.0012
697.0337	0.0292
697.2154	0.0019
697.3971	0.0141
697.5788	0.0202
697.7605	0.0078
697.9421	0.0301
698.1237	0.0247
698.3053	0.0025
698.4869	0.0106
698.6685	-0.0134
698.85	0.0141
699.0315	-0.0179
699.213	0.0262
699.3945	0.0132
699.576	0.0217
699.7575	0.0338
699.9389	0.0021
700.1203	0.0264
700.3017	0.0214
700.4831	0.0284
700.6645	0.0189
700.8458	0.0045
701.0271	0.0419
701.2084	0.0205
701.3897	0.0058
701.571	0.036
701.7523	0.0078
701.9335	0.0253
702.1147	0.0025
702.2959	-0.0005
702.4771	0.0146
702.6583	0.0045
702.8394	-0.0235
703.0205	0.0284
703.2016	-0.0196
703.3827	-0.0264
703.5638	0.0155
703.7449	0.0295
703.9259	0.003
704.1069	-0.0003
704.2879	0.0132
704.4689	0.0077
704.6499	0.0216
704.8308	0.0186
705.0117	0.0308
705.1927	0.0116
705.3735	0.0284
705.5544	-0.0007
705.7353	0.001
705.9161	-0.0113
706.0969	0.01
706.2777	0.0209
706.4585	0.0151
706.6393	0.0216
706.82	0.0221
707.0007	0.0045
707.1815	0.0114
707.3621	0.0353
707.5428	0.0176
707.7235	0.0167
707.9041	0.0011
708.0847	0.0069
708.2653	0.0464
708.4459	0.0208
708.6265	-0.0039
708.807	0.0138
708.9875	0.0053
709.168	0.0116
709.3485	0.0208
709.529	-0.0045
709.7095	-0.0026
709.8899	0.0004
710.0703	0.0194
710.2507	0.0172
710.4311	-0.0123
710.6115	0.0217
710.7918	0.0367
710.9721	0.016
711.1524	-0.0212
711.3327	-0.0038
711.513	0.0102
711.6932	0.0121
711.8735	0.0218
712.0537	0.0104
712.2339	-0.0007
712.4141	0.0251
712.5942	-0.0089
712.7744	0.032
712.9545	0.0214
713.1346	0.0179
713.3147	0.0235
713.4947	-0.0059
713.6748	0.0105
713.8548	0.0238
714.0348	0.0354
714.2148	0.0122
714.3948	0.0188
714.5748	0.0191
714.7547	0.0168
714.9346	0.031
715.1145	0.0014
715.2944	-0.0159
715.4743	0.0287
715.6541	-0.0117
715.834	0.0373
716.0138	0.0343
716.1936	0.0203
716.3733	0.015
716.5531	0.015
716.7328	0.0471
716.9126	0.0191
717.0923	-0.0046
717.2719	0.0249
717.4516	0.0195
717.6312	-0.0034
717.8109	0.0232
717.9905	0.0121
718.1701	0.02
718.3496	0.0252
718.5292	0.0139
718.7087	0.0271
718.8882	0.0156
719.0677	0.002
719.2472	0.007
719.4267	0.0099
719.6061	-0.0028
719.7856	0.0429
719.965	0.0266
720.1443	-0.0114
720.3237	0.0154
720.5031	0.0265
720.6824	0.0016
720.8617	0.0204
721.041	0.0221
721.2203	-0.0039
721.3995	0.0165
721.5788	-0.0026
721.758	0.0132
721.9372	-0.0019
722.1164	0.0084
722.2956	0.0108
722.4747	0.0085
722.6538	0.0256
722.8329	0.0222
723.012	0.0122
723.1911	0.0078
723.3702	0.0462
723.5492	0.0058
723.7282	0.0146
723.9072	0.0184
724.0862	0.0249
724.2652	0.0001
724.4441	0.0096
724.623	0.0065
724.8019	0.0059
724.9808	0.0025
725.1597	0.0185
725.3385	0.0166
725.5174	0.0059
725.6962	0.021
725.875	0.026
726.0538	0.0269
726.2325	0.024
726.4112	-0.0312
726.59	0.0247
726.7687	-0.0068
726.9474	0.0124
727.126	-0.0003
727.3047	-0.0142
727.4833	0.0062
727.6619	-0.0181
727.8405	-0.013
728.0191	0.0221
728.1976	0.0241
728.3762	-0.0056
728.5547	0.0075
728.7332	0.0067
728.9116	0.0018
729.0901	0.0055
729.2686	0.021
729.447	0.014
729.6254	0.02
729.8038	0.0023
729.9821	-0.0015
730.1605	0.0062
730.3388	-0.001
730.5171	0.027
730.6954	-0.0097
730.8737	0.0221
731.0519	-0.0149
731.2302	0.0119
731.4084	0.0054
731.5866	0.0065
731.7648	0.0119
731.9429	0.031
732.1211	0.0118
732.2992	0.0001
732.4773	0.0061
732.6554	0.0007
732.8335	0.0059
733.0115	0.025
733.1896	0.0117
733.3676	0.0161
733.5456	0.0366
733.7235	0.0079
733.9015	0.0135
734.0794	-0.0018
734.2574	-0.0252
734.4353	0.0189
734.6131	0.0097
734.791	0.0038
734.9689	0.005
735.1467	0.0029
735.3245	0.0346
735.5023	0.0047
735.68	-0.0078
735.8578	0.019
736.0355	0.0044
736.2132	0.0033
736.3909	0.0149
736.5686	-0.0053
736.7463	-0.0172
736.9239	0.0305
737.1015	0.0127
737.2791	0.0183
737.4567	0.0105
737.6343	0.0019
737.8118	0.0304
737.9894	0.0068
738.1669	0.0082
738.3444	0.0403
738.5218	0.0027
738.6993	0.0155
738.8767	0.0102
739.0541	0.0059
739.2315	0.0103
739.4089	0.0257
739.5863	0.0078
739.7636	0.0213
739.9409	-0.0107
740.1182	0.0102
740.2955	0.0092
740.4728	0.0102
740.65	0.0011
740.8272	0.0111
741.0044	-0.02
741.1816	0.0248
741.3588	-0.0126
741.5359	-0.0028
741.7131	0.0303
741.8902	0.0089
742.0673	-0.0097
742.2444	0.044
742.4214	0.0074
742.5985	-0.023
742.7755	0.0111
742.9525	-0.0041
743.1295	0.0256
743.3064	0.01
743.4834	0.0163
743.6603	0.0586
743.8372	-0.005
744.0141	0.0522
744.191	0.0232
744.3678	-0.04
744.5446	0.0015
744.7215	0.0082
744.8982	0.0146
745.075	0.0585
745.2518	0.0135
745.4285	0.0321
745.6052	-0.0214
745.7819	0.0134
745.9586	0.0209
746.1353	0.0194
746.3119	-0.0294
746.4885	0.0455
746.6651	0.024
746.8417	0.0006
747.0183	0.0437
747.1948	0.026
747.3714	0.0283
747.5479	0.0321
747.7244	0.0076
747.9008	-0.0009
748.0773	0.0828
748.2537	-0.0026
748.4301	0.0403
748.6065	-0.0325
748.7829	-0.0146
748.9593	-0.0312
749.1356	0.0285
749.3119	-0.0118
749.4882	0.0252
749.6645	0.0031
749.8408	-0.0029
750.017	0.0327
750.1933	-0.0012
750.3695	0.0298
750.5457	0.0015
750.7218	0.0011
750.898	-0.0131
751.0741	0.0167
751.2502	-0.0011
751.4263	0.0178
751.6024	0.0227
751.7784	-0.003
751.9545	-0.0101
752.1305	0.0105
752.3065	0.0176
752.4825	0.0181
752.6584	0.0096
752.8344	0.0124
753.0103	-0.0175
753.1862	0.0225
753.3621	0.007
753.5379	0.0025
753.7138	0.0206
753.8896	0.0033
754.0654	0.0146
754.2412	0.0268
754.417	0.0505
754.5927	0.0261
754.7685	0.0232
754.9442	0.0213
755.1199	0.0221
755.2956	0.0121
755.4712	0.0097
755.6469	0.0012
755.8225	0.0218
755.9981	-0.0025
756.1736	0.0254
756.3492	0.0112
756.5248	0.0209
756.7003	0.0094
756.8758	0.0046
757.0513	0.0045
757.2267	0.0104
757.4022	-0.0039
757.5776	0.0262
757.753	0.0222
757.9284	-0.0111
758.1038	0.0086
758.2791	0.0205
758.4545	-0.0034
758.6298	0.0079
758.8051	0.0135
758.9803	0.0109
759.1556	-0.0008
759.3308	-0.002
759.506	0.0065
759.6812	0.0133
759.8564	0.0096
760.0316	-0.0005
760.2067	0.0328
760.3819	0.0113
760.557	0.0041
760.732	0.0076
760.9071	0.0309
761.0821	0.0033
761.2572	0.0199
761.4322	0.0195
761.6072	0.0129
761.7821	-0.0141
761.9571	0.0418
762.132	0.0164
762.3069	0.022
762.4818	0.0129
762.6567	0.0038
762.8316	0.0273
763.0064	0.0355
763.1812	0.014
763.356	-0.0241
763.5308	0.0074
763.7055	0.0294
763.8803	0.0175
764.055	0.0011
764.2297	-0.0076
764.4044	0.0007
764.579	0.0024
764.7537	-0.0117
764.9283	0.0062
765.1029	0.0135
765.2775	0.0117
765.4521	-0.0066
765.6266	-0.0021
765.8011	0.0181
765.9756	0.0401
766.1501	0.0239
766.3246	0.0088
766.4991	0.0472
766.6735	0.0394
766.8479	0.0077
767.0223	0.0295
767.1967	0.0294
767.371	0.0418
767.5454	0.0419
767.7197	0.0629
767.894	0.0178
768.0683	0.0396
768.2425	0.0228
768.4168	0.0167
768.591	0.0125
768.7652	-0.0147
768.9394	-0.0108
769.1135	0.0071
769.2877	0.0363
769.4618	0.0313
769.6359	0.0228
769.81	0.0303
769.984	0.0089
770.1581	0.0062
770.3321	0.0277
770.5061	0.0114
770.6801	0.0255
770.8541	0.0155
771.028	0.0443
771.202	0.0262
771.3759	0.0127
771.5498	0.0341
771.7236	0.0217
771.8975	0.025
772.0713	0.0261
772.2451	-0.0081
772.4189	-0.0023
772.5927	0.0234
772.7665	0.0067
772.9402	-0.0071
773.1139	0.0148
773.2876	0.0002
773.4613	0.0186
773.635	0.0245
773.8086	0.0605
773.9822	0.0173
774.1558	0.0726
774.3294	0.0176
774.503	-0.0337
774.6765	0.0247
774.8501	-0.025
775.0236	0.0226
775.1971	-0.002
775.3705	0.0334
775.544	-0.0518
775.7174	0.0486
775.8908	0.0386
776.0642	0.0248
776.2376	0.0524
776.4109	0.036
776.5843	-0.0178
776.7576	0.0392
776.9309	0.0011
777.1041	-0.0067
777.2774	0.0163
777.4506	0.0304
777.6238	0.0359
777.797	-0.0005
777.9702	0.0272
778.1434	0.0192
778.3165	0.0165
778.4896	-0.0245
778.6627	0.0002
778.8358	-0.0095
779.0089	0.0069
779.1819	0.049
779.3549	0.065
779.5279	-0.0075
779.7009	0.0499
779.8739	0.081
780.0468	0.016
780.2197	0.0158
780.3926	-0.0283
780.5655	0.0323
780.7384	-0.015
780.9112	0.0363
781.0841	0.0181
781.2569	0.0261
781.4297	0.0093
781.6024	0.025
781.7752	0.0516
781.9479	0.0441
782.1206	0.012
782.2933	0.035
782.466	0.0711
782.6386	0.013
782.8113	0.0002
782.9839	-0.0085
783.1565	0.0136
783.329	0.0203
783.5016	0.0218
783.6741	0.007
783.8466	0.0731
784.0191	0.0587
784.1916	0.0003
784.3641	-0.0402
784.5365	0.0286
784.7089	0.0243
784.8813	0.0791
785.0537	0.0078
785.2261	0.0223
785.3984	0.0317
785.5707	-0.0157
785.743	0.0297
785.9153	-0.0027
786.0876	-0.014
786.2598	0.0155
786.432	0.001
786.6042	0.0365
786.7764	-0.0069
786.9486	0.0136
787.1207	0.0224
787.2928	0.0351
787.4649	0.0094
787.637	0.0121
787.8091	0.0317
787.9811	0.0382
788.1532	0.0329
788.3252	0.0066
788.4972	0.013
788.6691	0.0504
788.8411	-0.0128
789.013	0.022
789.1849	-0.0165
789.3568	0.0364
789.5287	0.0769
789.7005	-0.0403
789.8723	-0.0339
790.0442	0.0023
790.2159	0.0303
790.3877	0.0717
790.5595	0.058
790.7312	0.0074
790.9029	0.0171
791.0746	-0.0097
791.2463	-0.048
791.4179	-0.0223
791.5896	0.0309
791.7612	0.0638
791.9328	-0.0355
792.1044	0.0096
792.2759	-0.0166
792.4474	0.0231
792.619	-0.0196
792.7905	0.0166
792.9619	0.0304
793.1334	0.1062
793.3048	0.0632
793.4762	0.0317
793.6476	-0.0426
793.819	-0.0269
793.9904	-0.0046
794.1617	0.0096
794.333	0.0222
794.5043	0.0684
794.6756	-0.0118
794.8469	0.0138
795.0181	0.0275
795.1893	0.0441
795.3605	0.0332
795.5317	0.0402
795.7029	0.0254
795.874	0.0107
796.0452	0.0276
796.2163	0.1027
796.3873	0.0294
796.5584	0.0086
796.7294	0.0896
796.9005	0.0372
797.0715	0.0085
797.2425	0.1558
797.4134	0.0686
797.5844	0.0273
797.7553	-0.0791
797.9262	0.068
798.0971	0.0486
798.2679	0.0215
798.4388	0.0393
798.6096	-0.0156
798.7804	0.079
798.9512	0.0407
799.122	-0.04
799.2927	0.0239
799.4635	-0.0617
799.6342	-0.0432
799.8049	0.0143
799.9755	-0.0308
800.1462	-0.0169
800.3168	0.0031
800.4874	-0.0571
800.658	0.0268
800.8286	0.0692
800.9991	0.0366
801.1696	-0.011
801.3402	-0.0132
801.5106	-0.134
801.6811	-0.0513
801.8516	0.0624
802.022	0.038
802.1924	0.0562
802.3628	0.0897
802.5332	0.1181
802.7035	0.1017
802.8739	0.0724
803.0442	-0.0012
803.2145	0.0189
803.3847	0.0532
803.555	0.0485
803.7252	-0.0029
803.8954	-0.0092
804.0656	0.0128
804.2358	-0.003
804.4059	0.0497
804.5761	0.0529
804.7462	0.0292
804.9163	0.0349
805.0864	-0.0378
805.2564	0.0615
805.4264	-0.0343
805.5965	0.0177
805.7665	0.0437
805.9364	-0.0163
806.1064	0.0147
806.2763	0.0492
806.4462	0.036
806.6161	0.0092
806.786	-0.0183
806.9559	0.0487
807.1257	0.0222
807.2955	-0.0205
807.4653	0.0149
807.6351	0.0116
807.8048	0.098
807.9746	0.0092
808.1443	0.0356
808.314	0.0984
808.4837	0.0634
808.6533	0.033
808.8229	0.0146
808.9926	0.0478
809.1622	0.0396
809.3317	-0.0513
809.5013	0.0006
809.6708	0.0727
809.8403	-0.0106
810.0098	0.0281
810.1793	0.0471
810.3488	0.0224
810.5182	0.1927
810.6876	0.0836
810.857	0.0474
811.0264	0.0573
811.1958	0.2525
811.3651	-0.0418
811.5344	0.1173
811.7037	0.0008
811.873	0.0674
812.0422	-0.1424
812.2115	-0.0241
812.3807	-0.1949
812.5499	-0.0194
812.7191	0.2049
812.8882	0.0371
813.0574	-0.0017
813.2265	-0.0045
813.3956	0.0112
813.5646	0.1386
813.7337	-0.0238
813.9027	-0.1267
814.0718	0.0465
814.2407	0.0682
814.4097	0.1046
814.5787	0.1509
814.7476	0.0784
814.9165	0.0287
815.0854	0.024
815.2543	0.04
815.4232	0.1109
815.592	0.1605
815.7608	-0.0483
815.9296	0.0673
816.0984	0.2041
816.2671	-0.2684
816.4359	0.2888
816.6046	0.0668
816.7733	0.0679
816.942	-0.0448
817.1106	0.0896
817.2793	0.0977
817.4479	0.0481
817.6165	0.0738
817.785	0.024
817.9536	-0.0286
818.1221	0.0487
818.2906	-0.0374
818.4591	0.0075
818.6276	-0.0456
818.7961	-0.0931
818.9645	0.0271
819.1329	0.0456
819.3013	0.0481
819.4697	-0.0196
819.638	0.1637
819.8064	0.1044
819.9747	-0.015
820.143	-0.0294
820.3113	0.0371
820.4795	0.0849
820.6477	0.0008
820.816	0.1903
820.9842	0.1278
821.1523	0.0345
821.3205	0.0089
821.4886	0.0111
821.6567	-0.0181
821.8248	0.106
821.9929	-0.0309
822.1609	0.0289
822.329	0.0547
822.497	0.0058
822.665	0.0347
822.833	0.0448
823.0009	-0.0261
823.1688	0.2384
823.3367	-0.2957
823.5046	0.1018
823.6725	-0.1285
823.8404	-0.0568
824.0082	-0.0456
824.176	0.2193
824.3438	0.1653
824.5116	-0.0299
824.6793	0.0233
824.847	-0.0153
825.0147	0.4817
825.1824	0.17
825.3501	0.1097
825.5177	0.0691
825.6854	-0.0848
825.853	0.0651
826.0206	0.0272
826.1881	0.0638
826.3557	-0.0162
826.5232	0.1577
826.6907	0.2046
826.8582	-0.0623
827.0257	0.1817
827.1931	0.0664
827.3605	-0.0284
827.528	0.1877
827.6953	-0.2297
827.8627	-0.1758
828.03	0.0187
828.1974	0.0624
828.3647	0.0682
828.532	-0.0446
828.6992	0.14
828.8665	0.0317
829.0337	0.1172
829.2009	0.0787
829.3681	-0.0775
829.5352	-0.0376
829.7024	0.3058
829.8695	0.2003
830.0366	0.0099
830.2037	0.1003
830.3707	0.1556
830.5378	0.2494
830.7048	-0.1161
830.8718	0.1947
831.0388	0.1463
831.2057	-0.0252
831.3727	-0.1337
831.5396	0.0874
831.7065	-0.7661
831.8734	-0.0223
832.0402	0.4154
832.2071	-0.3209
832.3739	-0.2261
832.5407	-1.5814
832.7075	-0.4844
832.8742	1.0169
833.041	0.1821
833.2077	1.2384
833.3744	0.0488
833.541	0.0833
833.7077	0.0084
833.8743	0.0846
834.0409	0.1315
834.2075	0.1325
834.3741	0.1636
834.5407	0.676
834.7072	0.0803
834.8737	-0.0025
835.0402	0.4216
835.2067	-0.0711
835.3731	-0.0244
835.5395	-0.0857
835.706	-0.0167
835.8723	0.0079
836.0387	0.4578
836.2051	0.0734
836.3714	0.1382
836.5377	-0.097
836.704	0.1725
836.8703	-0.1332
837.0365	-0.979
837.2027	0.1899
837.3689	0.626
837.5351	-0.0114
837.7013	-0.2597
837.8674	0.0088
838.0335	-0.1543
838.1997	-0.205
838.3657	-0
838.5318	-0.494
838.6978	-0
838.8639	-0.0153
839.0299	-0.1324
839.1958	0.1887
839.3618	0.0469
839.5277	0.1438
839.6937	-0.3317
839.8596	0.0866
840.0254	0.1299
840.1913	0.0059
840.3571	-0.3014
840.523	-0
840.6888	-0.1347
840.8545	1.0669
841.0203	0.065
841.186	0.2085
841.3517	-0.0819
841.5174	0.0124
841.6831	0.0656
841.8488	0.0569
842.0144	0.3879
842.18	0.283
842.3456	-0.4828
842.5112	-0
842.6767	0.04
842.8422	0.204
843.0077	0.2687
843.1732	0.1913
843.3387	0.4249
843.5042	0.5848
843.6696	0.0539
843.835	0.0727
844.0004	-0.0167
844.1657	-0
844.3311	-0.2584
844.4964	-0.2202
844.6617	0.356
844.827	0.1611
844.9923	0.3811
845.1575	0.4732
845.3227	0.614
845.4879	-0.1312
845.6531	-0.1692
845.8183	0.2752
845.9834	-0
846.1485	0.3067
846.3136	0.7147
846.4787	0.3808
846.6438	0.1107
846.8088	0.7229
846.9738	-0
847.1388	0.0077
847.3038	0.1435
847.4687	-0
847.6337	-0.1862
847.7986	0.0832
847.9635	-0
848.1284	-0
848.2932	0.2939
848.458	-0
848.6228	-0
848.7876	0.614
848.9524	-0.4381
849.1172	-1.7426
849.2819	-0
849.4466	0.25
849.6113	0.4678
849.7759	-0
849.9406	-0.126
850.1052	-1.2514
850.2698	0.1709
850.4344	-0
850.599	-0.0352
850.7635	-0
850.928	0.1532
851.0925	0.1918
851.257	0.7171
851.4215	0.3633
851.5859	0.2372
851.7503	-0.2681
851.9147	-0.331
852.0791	0.3017
852.2434	0.6401
852.4078	-0
852.5721	-0
852.7364	0.2525
852.9007	-0.1125
853.0649	-0
853.2291	-0
853.3934	1.1825
853.5575	-0.1261
853.7217	0.2639
853.8859	-0
854.05	0.3848
854.2141	0.5139
854.3782	-0.228
854.5423	-0
854.7063	0.0635
854.8703	-0.0925
855.0343	0.5207
855.1983	0.3412
855.3623	0.204
855.5262	-0
855.6901	0.618
855.854	0.2112
856.0179	-0.215
856.1818	-0
856.3456	-0
856.5094	-0.3728
856.6732	-0
856.837	-0.9542
857.0008	-0
857.1645	-0.3441
857.3282	-0.3447
857.4919	0.1856
857.6556	0.279
857.8192	-0.1526
857.9828	-0.1317
858.1465	-0
858.31	0.5285
858.4736	-0.4558
858.6372	-0.4962
858.8007	-0.0438
858.9642	0.6416
859.1277	0.3906
859.2911	-0.4433
859.4546	-0
859.618	0.2937
859.7814	-0.3428
859.9448	-0
860.1081	-0.0964
860.2715	-1.3879
860.4348	0.2417
860.5981	0.4478
860.7614	-0
860.9246	-0
861.0879	0.4031
861.2511	-0
861.4143	-0.8473
861.5774	-0.1687
861.7406	-0.1877
861.9037	-0.4046
862.0668	-0
862.2299	2.0582
862.393	0.018
862.556	-0
862.7191	-0.0441
862.8821	0.2031
863.0451	0.7791
863.208	-0
863.371	-0.4511
863.5339	0.3087
863.6968	-0
863.8597	-0.3291
864.0225	-0
864.1854	0.252
864.3482	-0
864.511	1.2228
864.6737	-0
864.8365	0.5731
864.9992	-0
865.1619	0.0094
865.3246	-1.6972
865.4873	-0.274
865.65	-0
865.8126	-0.1024
865.9752	0.3799
866.1378	0.4841
866.3004	-0.0657
866.4629	-1.5185
866.6254	-0.1194
866.7879	-0
866.9504	-0.3393
867.1129	-0
867.2753	-0.2366
867.4377	-0.2183
867.6001	-0.1449
867.7625	-0.0283
867.9249	-0.0653
868.0872	0.2453
868.2495	-0
868.4118	0.5285
868.5741	0.8367
868.7363	-0.4978
868.8986	-0.4856
869.0608	-0
869.223	-0.4142
869.3851	-0
869.5473	0.1955
869.7094	-0
869.8715	-0
870.0336	-0.2038
870.1957	-0
870.3577	0.3602
870.5197	2.1885
870.6817	-0.6764
870.8437	-0.1805
871.0057	0.1354
871.1676	0.2639
871.3295	-0
871.4914	-0
871.6533	0.5536
871.8151	0.6722
871.977	0.2762
872.1388	-0.1742
872.3006	-0.5558
872.4623	-0.6901
872.6241	-0
872.7858	-0
872.9475	-0.2618
873.1092	1.107
873.2709	0.4762
873.4325	-1.03
873.5941	-0
873.7557	-0
873.9173	0.4603
874.0789	0.4404
874.2404	-0
874.4019	0.1167
874.5634	0.2089
874.7249	-0
874.8863	-0.116
875.0478	0.0181
875.2092	-0
875.3706	0.4534
875.5319	-0
875.6933	0.0832
875.8546	-0.1206
876.0159	2.3547
876.1772	-0.2553
876.3385	-0
876.4997	-0
876.6609	-0
876.8221	-0
876.9833	0.7765
877.1445	0.3093
877.3056	-0
877.4667	-0.3557
877.6278	-0
877.7889	0.628
877.9499	0.5469
878.111	-0.4918
878.272	0.1045
878.433	0.2188
878.5939	-0
878.7549	0.2407
878.9158	-0
879.0767	-0.1838
879.2376	-0.137
879.3984	0.3016
879.5593	0.5994
879.7201	-0
879.8809	0.4238
880.0417	-0.0568
880.2024	2.2795
880.3632	-0.2206
880.5239	0.0187
880.6846	-0.4686
880.8452	-0
881.0059	-1.1471
881.1665	1.1867
881.3271	1.8988
881.4877	0.5731
881.6483	-1.2057
881.8088	-0
881.9693	-0
882.1298	-0
882.2903	-0
