Data from D4ACN5uM420nmA_Absorbance_14-37-08-066.txt Node
Date: Fri Feb 21 14:37:08 GMT 2025
User: LASERRRRR
Spectrometer: FLMT03099
Trigger mode: 0
Integration Time (sec): 1.500000E-2
Scans to average: 1
Electric dark correction enabled: true
Nonlinearity correction enabled: false
Boxcar width: 0
XAxis mode: Wavelengths
Number of Pixels in Spectrum: 3648
>>>>>Begin Spectral Data<<<<<
179.3399	-0
179.5586	-0
179.7771	-0
179.9957	-0.0174
180.2143	-0
180.4329	0.8182
180.6514	-0
180.8699	0.3611
181.0885	-0
181.307	0.4045
181.5255	0.3268
181.744	-0
181.9625	0.1975
182.181	-0
182.3994	-0.69
182.6179	0.0619
182.8363	-0
183.0547	-0.2031
183.2732	0.2525
183.4916	0.182
183.71	0.2441
183.9284	0.1815
184.1467	0.2366
184.3651	0.4648
184.5835	0.2918
184.8018	0.1773
185.0201	0.4327
185.2385	0.4743
185.4568	0.0508
185.6751	0.2402
185.8934	0.1376
186.1117	-0.0014
186.3299	0.2097
186.5482	0.2058
186.7664	0.4374
186.9847	-0.0103
187.2029	0.167
187.4211	0.1921
187.6393	0.1405
187.8575	0.159
188.0757	0.603
188.2939	0.2819
188.512	0.3096
188.7302	0.3042
188.9483	0.1754
189.1665	0.5402
189.3846	0.2193
189.6027	0.2224
189.8208	0.3651
190.0389	0.2178
190.257	0.1159
190.475	-0.0235
190.6931	0.0061
190.9111	0.0867
191.1292	0.0609
191.3472	0.2416
191.5652	0.1591
191.7832	0.1781
192.0012	0.1691
192.2192	0.1084
192.4371	0.1382
192.6551	0.2074
192.873	0.1627
193.091	0.1294
193.3089	0.2437
193.5268	0.3156
193.7447	0.2356
193.9626	0.2335
194.1805	0.191
194.3984	0.1916
194.6162	0.2505
194.8341	0.2472
195.0519	0.3302
195.2697	0.251
195.4875	0.3407
195.7054	0.255
195.9231	0.2501
196.1409	0.355
196.3587	0.2686
196.5765	0.3196
196.7942	0.2912
197.012	0.3318
197.2297	0.3332
197.4474	0.3533
197.6651	0.2675
197.8828	0.3272
198.1005	0.4298
198.3182	0.3546
198.5358	0.439
198.7535	0.3759
198.9711	0.4109
199.1888	0.3854
199.4064	0.3973
199.624	0.3979
199.8416	0.3591
200.0592	0.3489
200.2767	0.4125
200.4943	0.414
200.7119	0.3976
200.9294	0.4529
201.1469	0.4481
201.3645	0.4539
201.582	0.3849
201.7995	0.4179
202.017	0.3956
202.2344	0.4399
202.4519	0.4212
202.6694	0.3578
202.8868	0.3891
203.1042	0.4195
203.3217	0.4118
203.5391	0.4022
203.7565	0.3604
203.9739	0.324
204.1913	0.3603
204.4086	0.3311
204.626	0.3617
204.8433	0.3674
205.0607	0.3601
205.278	0.3175
205.4953	0.3566
205.7126	0.3244
205.9299	0.3302
206.1472	0.3228
206.3644	0.3103
206.5817	0.3299
206.7989	0.337
207.0162	0.3126
207.2334	0.3283
207.4506	0.3037
207.6678	0.3218
207.885	0.2946
208.1022	0.2882
208.3194	0.2853
208.5365	0.3273
208.7537	0.2977
208.9708	0.3132
209.1879	0.3008
209.405	0.2765
209.6222	0.244
209.8392	0.2967
210.0563	0.2888
210.2734	0.2683
210.4905	0.2818
210.7075	0.2604
210.9245	0.2557
211.1416	0.2849
211.3586	0.2564
211.5756	0.2473
211.7926	0.2483
212.0096	0.2847
212.2265	0.2496
212.4435	0.2492
212.6604	0.2602
212.8774	0.2493
213.0943	0.2495
213.3112	0.2625
213.5281	0.2428
213.745	0.2651
213.9619	0.2268
214.1788	0.2369
214.3956	0.2314
214.6125	0.2754
214.8293	0.2473
215.0461	0.24
215.2629	0.2449
215.4798	0.2452
215.6965	0.2405
215.9133	0.2403
216.1301	0.2395
216.3469	0.2271
216.5636	0.2526
216.7803	0.2526
216.9971	0.255
217.2138	0.2527
217.4305	0.2324
217.6472	0.241
217.8639	0.2419
218.0805	0.2461
218.2972	0.2505
218.5138	0.2509
218.7305	0.2684
218.9471	0.2219
219.1637	0.2698
219.3803	0.2601
219.5969	0.2491
219.8135	0.2796
220.0301	0.2569
220.2466	0.2496
220.4632	0.2378
220.6797	0.2522
220.8962	0.2589
221.1127	0.2553
221.3292	0.2507
221.5457	0.2636
221.7622	0.2523
221.9787	0.283
222.1951	0.2856
222.4116	0.2894
222.628	0.295
222.8444	0.2757
223.0608	0.2736
223.2772	0.2699
223.4936	0.2811
223.71	0.291
223.9264	0.2841
224.1427	0.2782
224.3591	0.2859
224.5754	0.295
224.7917	0.2933
225.008	0.2992
225.2243	0.3009
225.4406	0.2993
225.6569	0.2998
225.8732	0.3211
226.0894	0.3013
226.3057	0.3206
226.5219	0.3145
226.7381	0.3256
226.9543	0.3197
227.1705	0.3162
227.3867	0.3174
227.6029	0.3234
227.8191	0.3354
228.0352	0.3429
228.2513	0.3491
228.4675	0.339
228.6836	0.3452
228.8997	0.3413
229.1158	0.3469
229.3319	0.3608
229.548	0.3422
229.764	0.3576
229.9801	0.3694
230.1961	0.3637
230.4121	0.3628
230.6282	0.3903
230.8442	0.3861
231.0602	0.3833
231.2761	0.3812
231.4921	0.3898
231.7081	0.3966
231.924	0.3882
232.14	0.4014
232.3559	0.4149
232.5718	0.4101
232.7877	0.4102
233.0036	0.4111
233.2195	0.4193
233.4353	0.4179
233.6512	0.4103
233.867	0.4239
234.0829	0.4247
234.2987	0.4318
234.5145	0.4328
234.7303	0.4375
234.9461	0.437
235.1619	0.4429
235.3776	0.4394
235.5934	0.4317
235.8091	0.4366
236.0249	0.4525
236.2406	0.4569
236.4563	0.4492
236.672	0.4454
236.8877	0.4592
237.1034	0.4429
237.319	0.4611
237.5347	0.4482
237.7503	0.4446
237.966	0.4659
238.1816	0.457
238.3972	0.4613
238.6128	0.4752
238.8284	0.4673
239.0439	0.4634
239.2595	0.4651
239.475	0.4678
239.6906	0.4591
239.9061	0.4762
240.1216	0.4546
240.3371	0.4685
240.5526	0.4641
240.7681	0.4688
240.9836	0.4675
241.199	0.4544
241.4145	0.4534
241.6299	0.4515
241.8453	0.4328
242.0607	0.4476
242.2761	0.4427
242.4915	0.4197
242.7069	0.4336
242.9223	0.4289
243.1376	0.4139
243.353	0.4113
243.5683	0.4078
243.7836	0.389
243.9989	0.3755
244.2142	0.3798
244.4295	0.3744
244.6448	0.3742
244.86	0.3586
245.0753	0.3534
245.2905	0.3503
245.5057	0.3516
245.721	0.3406
245.9362	0.3322
246.1514	0.3261
246.3665	0.3145
246.5817	0.3103
246.7969	0.306
247.012	0.3
247.2271	0.3023
247.4423	0.2928
247.6574	0.2942
247.8725	0.2799
248.0876	0.2822
248.3026	0.2686
248.5177	0.2641
248.7328	0.2667
248.9478	0.2499
249.1628	0.2568
249.3779	0.2459
249.5929	0.247
249.8079	0.2412
250.0228	0.2361
250.2378	0.2365
250.4528	0.2338
250.6677	0.227
250.8827	0.2185
251.0976	0.2204
251.3125	0.2275
251.5274	0.2135
251.7423	0.2141
251.9572	0.21
252.172	0.2124
252.3869	0.2137
252.6017	0.207
252.8166	0.209
253.0314	0.203
253.2462	0.2046
253.461	0.2061
253.6758	0.1982
253.8906	0.1951
254.1053	0.1971
254.3201	0.193
254.5348	0.1863
254.7496	0.1893
254.9643	0.1933
255.179	0.1941
255.3937	0.1895
255.6083	0.1935
255.823	0.189
256.0377	0.19
256.2523	0.1885
256.467	0.1912
256.6816	0.1861
256.8962	0.185
257.1108	0.1911
257.3254	0.183
257.54	0.1831
257.7545	0.1888
257.9691	0.1889
258.1836	0.184
258.3981	0.1832
258.6127	0.1745
258.8272	0.1876
259.0417	0.1857
259.2561	0.1803
259.4706	0.185
259.6851	0.1762
259.8995	0.1845
260.114	0.1792
260.3284	0.18
260.5428	0.1837
260.7572	0.1817
260.9716	0.1833
261.186	0.1796
261.4003	0.1814
261.6147	0.1857
261.829	0.1806
262.0433	0.1825
262.2577	0.1814
262.472	0.187
262.6863	0.188
262.9005	0.1868
263.1148	0.1823
263.3291	0.1884
263.5433	0.1878
263.7576	0.1829
263.9718	0.1844
264.186	0.1887
264.4002	0.1808
264.6144	0.1953
264.8286	0.1894
265.0427	0.1868
265.2569	0.1879
265.471	0.1884
265.6851	0.1955
265.8993	0.1848
266.1134	0.1889
266.3275	0.1898
266.5415	0.1864
266.7556	0.1953
266.9697	0.1911
267.1837	0.1917
267.3978	0.1917
267.6118	0.1825
267.8258	0.1909
268.0398	0.1874
268.2538	0.1926
268.4677	0.1868
268.6817	0.1844
268.8957	0.1785
269.1096	0.1799
269.3235	0.1852
269.5374	0.1886
269.7514	0.191
269.9652	0.1822
270.1791	0.1779
270.393	0.1852
270.6068	0.1855
270.8207	0.1883
271.0345	0.1806
271.2483	0.1853
271.4622	0.186
271.676	0.1817
271.8897	0.1837
272.1035	0.1889
272.3173	0.185
272.531	0.1804
272.7448	0.179
272.9585	0.1747
273.1722	0.18
273.3859	0.1869
273.5996	0.181
273.8133	0.1823
274.0269	0.1868
274.2406	0.1828
274.4542	0.1813
274.6679	0.1793
274.8815	0.1908
275.0951	0.1893
275.3087	0.1864
275.5223	0.1882
275.7358	0.1867
275.9494	0.1925
276.1629	0.1939
276.3765	0.1867
276.59	0.1879
276.8035	0.1908
277.017	0.1948
277.2305	0.1983
277.444	0.1947
277.6574	0.1926
277.8709	0.1949
278.0843	0.2024
278.2978	0.1921
278.5112	0.196
278.7246	0.1944
278.938	0.1965
279.1513	0.201
279.3647	0.1925
279.5781	0.1958
279.7914	0.1931
280.0047	0.191
280.2181	0.1919
280.4314	0.1967
280.6447	0.1965
280.8579	0.1942
281.0712	0.1866
281.2845	0.1944
281.4977	0.1902
281.711	0.1867
281.9242	0.1911
282.1374	0.191
282.3506	0.195
282.5638	0.19
282.7769	0.1847
282.9901	0.1909
283.2033	0.1918
283.4164	0.1902
283.6295	0.1931
283.8426	0.1913
284.0557	0.1947
284.2688	0.1961
284.4819	0.1859
284.695	0.1969
284.908	0.1921
285.1211	0.1903
285.3341	0.1877
285.5471	0.1891
285.7601	0.1971
285.9731	0.1933
286.1861	0.1946
286.3991	0.1985
286.612	0.1924
286.825	0.1982
287.0379	0.1834
287.2508	0.1946
287.4637	0.195
287.6766	0.188
287.8895	0.189
288.1024	0.1965
288.3152	0.1936
288.5281	0.1919
288.7409	0.1956
288.9538	0.1906
289.1666	0.1907
289.3794	0.1908
289.5922	0.1909
289.8049	0.194
290.0177	0.1881
290.2304	0.1875
290.4432	0.1913
290.6559	0.193
290.8686	0.1947
291.0813	0.194
291.294	0.1948
291.5067	0.1876
291.7194	0.197
291.932	0.1958
292.1447	0.1957
292.3573	0.1955
292.5699	0.1987
292.7825	0.1873
292.9951	0.1913
293.2077	0.1896
293.4203	0.1949
293.6328	0.1907
293.8454	0.1985
294.0579	0.1935
294.2704	0.1974
294.4829	0.1903
294.6954	0.1915
294.9079	0.1918
295.1204	0.1918
295.3328	0.1998
295.5453	0.2043
295.7577	0.194
295.9701	0.192
296.1825	0.1915
296.3949	0.1847
296.6073	0.189
296.8197	0.1883
297.0321	0.195
297.2444	0.1889
297.4567	0.189
297.6691	0.1895
297.8814	0.1961
298.0937	0.1922
298.306	0.1895
298.5182	0.2004
298.7305	0.1946
298.9428	0.1894
299.155	0.1854
299.3672	0.1894
299.5794	0.1898
299.7916	0.1934
300.0038	0.1923
300.216	0.1927
300.4282	0.1906
300.6403	0.1939
300.8525	0.1902
301.0646	0.1941
301.2767	0.1971
301.4888	0.1898
301.7009	0.1988
301.913	0.1931
302.125	0.1921
302.3371	0.1919
302.5491	0.1939
302.7612	0.1987
302.9732	0.1966
303.1852	0.1956
303.3972	0.1909
303.6092	0.1941
303.8211	0.1866
304.0331	0.1924
304.245	0.1923
304.457	0.1954
304.6689	0.1875
304.8808	0.1889
305.0927	0.1926
305.3046	0.1884
305.5164	0.1824
305.7283	0.182
305.9401	0.1763
306.152	0.181
306.3638	0.1769
306.5756	0.1834
306.7874	0.1796
306.9992	0.1772
307.2109	0.1769
307.4227	0.176
307.6344	0.178
307.8462	0.1703
308.0579	0.176
308.2696	0.1746
308.4813	0.1686
308.693	0.1633
308.9046	0.1684
309.1163	0.1567
309.328	0.1635
309.5396	0.1622
309.7512	0.1546
309.9628	0.1617
310.1744	0.1562
310.386	0.1521
310.5976	0.1541
310.8091	0.1584
311.0207	0.153
311.2322	0.1435
311.4437	0.1484
311.6552	0.1497
311.8667	0.1522
312.0782	0.1474
312.2897	0.1552
312.5012	0.1516
312.7126	0.1463
312.924	0.1467
313.1355	0.144
313.3469	0.1416
313.5583	0.1391
313.7696	0.1413
313.981	0.1464
314.1924	0.1363
314.4037	0.1383
314.6151	0.141
314.8264	0.1399
315.0377	0.1383
315.249	0.1384
315.4603	0.1353
315.6716	0.139
315.8828	0.139
316.0941	0.1393
316.3053	0.1321
316.5165	0.1395
316.7277	0.134
316.9389	0.1402
317.1501	0.1356
317.3613	0.1342
317.5724	0.1334
317.7836	0.1311
317.9947	0.1364
318.2058	0.1316
318.417	0.1353
318.6281	0.1308
318.8391	0.1417
319.0502	0.1368
319.2613	0.1306
319.4723	0.1347
319.6834	0.1338
319.8944	0.1313
320.1054	0.1341
320.3164	0.1327
320.5274	0.1345
320.7383	0.132
320.9493	0.1323
321.1602	0.1295
321.3712	0.1331
321.5821	0.1309
321.793	0.1374
322.0039	0.1331
322.2148	0.1322
322.4257	0.1309
322.6365	0.1319
322.8474	0.1385
323.0582	0.1342
323.269	0.1343
323.4798	0.1408
323.6906	0.1336
323.9014	0.1353
324.1122	0.1261
324.3229	0.1376
324.5337	0.1375
324.7444	0.1367
324.9551	0.1368
325.1658	0.1352
325.3765	0.1376
325.5872	0.1325
325.7979	0.1382
326.0085	0.1343
326.2192	0.1357
326.4298	0.1445
326.6404	0.1457
326.851	0.1368
327.0616	0.1358
327.2722	0.1426
327.4828	0.1349
327.6933	0.1434
327.9039	0.1425
328.1144	0.1403
328.3249	0.1451
328.5354	0.1435
328.7459	0.1479
328.9564	0.1476
329.1669	0.1485
329.3773	0.1488
329.5878	0.146
329.7982	0.1498
330.0086	0.1466
330.219	0.1409
330.4294	0.1491
330.6398	0.1536
330.8502	0.152
331.0605	0.1464
331.2708	0.1435
331.4812	0.1464
331.6915	0.1432
331.9018	0.1436
332.1121	0.1503
332.3224	0.1455
332.5326	0.1458
332.7429	0.1424
332.9531	0.1447
333.1633	0.1425
333.3735	0.1476
333.5837	0.1492
333.7939	0.1447
334.0041	0.1464
334.2143	0.1427
334.4244	0.1532
334.6346	0.1469
334.8447	0.1459
335.0548	0.1473
335.2649	0.1486
335.475	0.1499
335.685	0.1519
335.8951	0.1505
336.1051	0.1554
336.3152	0.1597
336.5252	0.1439
336.7352	0.1531
336.9452	0.1507
337.1552	0.1501
337.3652	0.1516
337.5751	0.1489
337.7851	0.156
337.995	0.1507
338.2049	0.1499
338.4148	0.1529
338.6247	0.15
338.8346	0.1503
339.0445	0.1548
339.2543	0.1554
339.4642	0.1462
339.674	0.1453
339.8838	0.1523
340.0936	0.1615
340.3034	0.1496
340.5132	0.1456
340.7229	0.1527
340.9327	0.1592
341.1424	0.1514
341.3522	0.153
341.5619	0.1535
341.7716	0.163
341.9813	0.1565
342.1909	0.1605
342.4006	0.1654
342.6102	0.1581
342.8199	0.16
343.0295	0.1533
343.2391	0.1596
343.4487	0.159
343.6583	0.1661
343.8679	0.1626
344.0774	0.1615
344.287	0.16
344.4965	0.169
344.706	0.1647
344.9155	0.1624
345.125	0.1602
345.3345	0.1713
345.544	0.1668
345.7534	0.1724
345.9629	0.1736
346.1723	0.1726
346.3817	0.1729
346.5911	0.1696
346.8005	0.171
347.0099	0.1765
347.2193	0.1755
347.4286	0.1859
347.638	0.1719
347.8473	0.1807
348.0566	0.1797
348.2659	0.1759
348.4752	0.1784
348.6845	0.1769
348.8937	0.1789
349.103	0.1844
349.3122	0.1837
349.5214	0.1836
349.7306	0.1853
349.9398	0.1831
350.149	0.1855
350.3582	0.1825
350.5674	0.1904
350.7765	0.19
350.9856	0.1808
351.1948	0.1756
351.4039	0.1895
351.613	0.1781
351.822	0.1939
352.0311	0.1853
352.2402	0.189
352.4492	0.1894
352.6582	0.1885
352.8672	0.1899
353.0762	0.192
353.2852	0.1878
353.4942	0.1892
353.7032	0.1867
353.9121	0.182
354.1211	0.1968
354.33	0.191
354.5389	0.1836
354.7478	0.1894
354.9567	0.1893
355.1655	0.1916
355.3744	0.1861
355.5833	0.1855
355.7921	0.1959
356.0009	0.194
356.2097	0.1872
356.4185	0.1936
356.6273	0.1967
356.8361	0.195
357.0448	0.1878
357.2536	0.1887
357.4623	0.1904
357.671	0.1989
357.8797	0.2008
358.0884	0.1906
358.2971	0.1921
358.5057	0.197
358.7144	0.1978
358.923	0.1929
359.1316	0.2029
359.3402	0.1995
359.5488	0.2002
359.7574	0.2039
359.966	0.2026
360.1746	0.1907
360.3831	0.21
360.5916	0.2041
360.8002	0.2059
361.0087	0.2058
361.2172	0.2075
361.4256	0.2069
361.6341	0.2047
361.8426	0.2099
362.051	0.2148
362.2594	0.2118
362.4678	0.2173
362.6762	0.2094
362.8846	0.2134
363.093	0.217
363.3014	0.2127
363.5097	0.2151
363.718	0.2176
363.9264	0.2158
364.1347	0.2239
364.343	0.2227
364.5513	0.2224
364.7595	0.2253
364.9678	0.2199
365.176	0.2292
365.3842	0.2265
365.5925	0.2294
365.8007	0.2182
366.0089	0.2335
366.217	0.2339
366.4252	0.2285
366.6333	0.2319
366.8415	0.2305
367.0496	0.2276
367.2577	0.2309
367.4658	0.2265
367.6739	0.2321
367.882	0.2373
368.09	0.2316
368.2981	0.2411
368.5061	0.2329
368.7141	0.2298
368.9221	0.243
369.1301	0.2385
369.3381	0.2442
369.5461	0.2442
369.754	0.2401
369.962	0.2406
370.1699	0.2454
370.3778	0.252
370.5857	0.2465
370.7936	0.2492
371.0015	0.2446
371.2093	0.2458
371.4172	0.2558
371.625	0.2401
371.8328	0.2432
372.0406	0.2465
372.2484	0.2518
372.4562	0.2507
372.664	0.2472
372.8717	0.2559
373.0795	0.2516
373.2872	0.2575
373.4949	0.2561
373.7026	0.2537
373.9103	0.2486
374.118	0.2537
374.3256	0.2616
374.5333	0.2528
374.7409	0.2575
374.9485	0.2632
375.1561	0.2608
375.3637	0.256
375.5713	0.2657
375.7789	0.2555
375.9864	0.2694
376.194	0.2671
376.4015	0.2642
376.609	0.2665
376.8165	0.273
377.024	0.275
377.2315	0.2639
377.4389	0.2623
377.6464	0.2723
377.8538	0.2773
378.0612	0.2727
378.2686	0.2666
378.476	0.2799
378.6834	0.2702
378.8908	0.2753
379.0981	0.277
379.3055	0.2789
379.5128	0.271
379.7201	0.2771
379.9274	0.2734
380.1347	0.2803
380.342	0.285
380.5492	0.2818
380.7565	0.2814
380.9637	0.2765
381.1709	0.2741
381.3781	0.2845
381.5853	0.2723
381.7925	0.2836
381.9997	0.2822
382.2068	0.2864
382.4139	0.278
382.6211	0.2878
382.8282	0.2898
383.0353	0.2841
383.2424	0.2857
383.4494	0.2902
383.6565	0.2868
383.8635	0.2808
384.0706	0.2883
384.2776	0.2869
384.4846	0.2949
384.6916	0.2842
384.8986	0.2895
385.1055	0.2922
385.3125	0.289
385.5194	0.2955
385.7263	0.2928
385.9333	0.2915
386.1402	0.2907
386.347	0.292
386.5539	0.293
386.7608	0.291
386.9676	0.285
387.1744	0.2763
387.3813	0.2879
387.5881	0.2908
387.7948	0.2888
388.0016	0.2999
388.2084	0.2934
388.4151	0.2857
388.6219	0.2846
388.8286	0.2886
389.0353	0.3001
389.242	0.2867
389.4487	0.2735
389.6553	0.2771
389.862	0.2792
390.0686	0.2918
390.2753	0.2789
390.4819	0.2798
390.6885	0.2867
390.8951	0.2832
391.1016	0.2749
391.3082	0.2851
391.5147	0.2717
391.7213	0.2721
391.9278	0.2706
392.1343	0.2795
392.3408	0.2731
392.5473	0.2726
392.7537	0.2676
392.9602	0.2685
393.1666	0.2666
393.373	0.2657
393.5794	0.2653
393.7858	0.2612
393.9922	0.2559
394.1986	0.264
394.4049	0.2614
394.6113	0.2657
394.8176	0.2615
395.0239	0.2581
395.2302	0.2546
395.4365	0.2609
395.6428	0.2512
395.8491	0.2553
396.0553	0.2518
396.2615	0.2574
396.4678	0.2506
396.674	0.251
396.8802	0.2516
397.0863	0.2483
397.2925	0.2529
397.4987	0.2441
397.7048	0.2549
397.9109	0.2509
398.117	0.2474
398.3231	0.2495
398.5292	0.2395
398.7353	0.2445
398.9413	0.2484
399.1474	0.2445
399.3534	0.2464
399.5594	0.2417
399.7654	0.244
399.9714	0.2497
400.1774	0.2512
400.3833	0.2475
400.5893	0.2455
400.7952	0.2524
401.0011	0.2442
401.207	0.2412
401.4129	0.2412
401.6188	0.241
401.8247	0.2532
402.0305	0.2403
402.2364	0.2444
402.4422	0.2401
402.648	0.2461
402.8538	0.2447
403.0596	0.2309
403.2654	0.2524
403.4711	0.2457
403.6768	0.2454
403.8826	0.2453
404.0883	0.2469
404.294	0.239
404.4997	0.2435
404.7054	0.2377
404.911	0.239
405.1167	0.2413
405.3223	0.2351
405.5279	0.2412
405.7335	0.2463
405.9391	0.2415
406.1447	0.2512
406.3502	0.2444
406.5558	0.2408
406.7613	0.2399
406.9668	0.2454
407.1724	0.2371
407.3778	0.248
407.5833	0.2327
407.7888	0.2409
407.9942	0.2356
408.1997	0.2428
408.4051	0.2435
408.6105	0.2477
408.8159	0.2466
409.0213	0.2424
409.2267	0.2475
409.432	0.2485
409.6374	0.2383
409.8427	0.2456
410.048	0.2535
410.2533	0.2498
410.4586	0.239
410.6639	0.2409
410.8691	0.2312
411.0744	0.2502
411.2796	0.2351
411.4848	0.2498
411.69	0.2391
411.8952	0.2415
412.1004	0.2451
412.3056	0.2453
412.5107	0.2438
412.7158	0.2541
412.921	0.2458
413.1261	0.2445
413.3312	0.2443
413.5362	0.2432
413.7413	0.2353
413.9464	0.2307
414.1514	0.2431
414.3564	0.2393
414.5614	0.2423
414.7664	0.2368
414.9714	0.2368
415.1764	0.2461
415.3813	0.2307
415.5863	0.2408
415.7912	0.244
415.9961	0.2387
416.201	0.2474
416.4059	0.2437
416.6108	0.2434
416.8156	0.2336
417.0205	0.2364
417.2253	0.2417
417.4301	0.2329
417.6349	0.2359
417.8397	0.2346
418.0445	0.2414
418.2492	0.2362
418.454	0.2162
418.6587	0.228
418.8634	0.2344
419.0681	0.2281
419.2728	0.224
419.4775	0.2398
419.6822	0.2187
419.8868	0.2254
420.0915	0.224
420.2961	0.2177
420.5007	0.2292
420.7053	0.2208
420.9099	0.2249
421.1144	0.2257
421.319	0.2215
421.5235	0.2189
421.728	0.226
421.9325	0.2284
422.137	0.2105
422.3415	0.2265
422.546	0.2177
422.7504	0.2155
422.9549	0.2272
423.1593	0.2053
423.3637	0.2116
423.5681	0.2198
423.7725	0.2099
423.9769	0.2275
424.1812	0.2076
424.3856	0.2208
424.5899	0.2163
424.7942	0.2148
424.9985	0.2093
425.2028	0.2113
425.4071	0.2068
425.6113	0.2159
425.8156	0.2023
426.0198	0.2043
426.224	0.2175
426.4282	0.1991
426.6324	0.2033
426.8366	0.1944
427.0407	0.1972
427.2449	0.1923
427.449	0.2034
427.6531	0.1985
427.8572	0.1972
428.0613	0.1999
428.2654	0.1984
428.4694	0.1862
428.6735	0.1863
428.8775	0.1958
429.0815	0.1839
429.2855	0.19
429.4895	0.1901
429.6935	0.1831
429.8975	0.1804
430.1014	0.1863
430.3053	0.1818
430.5093	0.1836
430.7132	0.1792
430.9171	0.171
431.1209	0.1827
431.3248	0.1665
431.5286	0.1715
431.7325	0.182
431.9363	0.1713
432.1401	0.175
432.3439	0.1732
432.5477	0.1577
432.7514	0.1614
432.9552	0.1642
433.1589	0.1547
433.3627	0.164
433.5664	0.1561
433.7701	0.161
433.9737	0.1605
434.1774	0.1545
434.3811	0.1517
434.5847	0.1512
434.7883	0.1582
434.9919	0.1425
435.1955	0.1454
435.3991	0.1423
435.6027	0.1392
435.8062	0.1582
436.0098	0.1429
436.2133	0.1376
436.4168	0.1346
436.6203	0.1262
436.8238	0.1322
437.0272	0.1362
437.2307	0.127
437.4341	0.1216
437.6375	0.1293
437.841	0.1155
438.0443	0.1274
438.2477	0.113
438.4511	0.1117
438.6545	0.1169
438.8578	0.118
439.0611	0.1241
439.2644	0.1132
439.4677	0.1122
439.671	0.1046
439.8743	0.1166
440.0775	0.1082
440.2808	0.101
440.484	0.1011
440.6872	0.1058
440.8904	0.1007
441.0936	0.1013
441.2967	0.0908
441.4999	0.0925
441.703	0.0932
441.9062	0.0982
442.1093	0.1007
442.3124	0.0943
442.5155	0.0898
442.7185	0.0903
442.9216	0.089
443.1246	0.0934
443.3276	0.0853
443.5307	0.0762
443.7337	0.0873
443.9366	0.0811
444.1396	0.0773
444.3426	0.0816
444.5455	0.0754
444.7484	0.0748
444.9513	0.0734
445.1542	0.082
445.3571	0.0739
445.56	0.068
445.7628	0.0694
445.9657	0.0699
446.1685	0.07
446.3713	0.079
446.5741	0.0745
446.7769	0.0698
446.9797	0.073
447.1824	0.0593
447.3852	0.0483
447.5879	0.0585
447.7906	0.0485
447.9933	0.0636
448.196	0.053
448.3986	0.0562
448.6013	0.0447
448.8039	0.0577
449.0066	0.0593
449.2092	0.0691
449.4118	0.061
449.6143	0.0582
449.8169	0.0526
450.0195	0.057
450.222	0.0534
450.4245	0.0531
450.627	0.0532
450.8295	0.0506
451.032	0.0474
451.2345	0.045
451.4369	0.0464
451.6394	0.0507
451.8418	0.0459
452.0442	0.0456
452.2466	0.0408
452.449	0.0445
452.6513	0.0459
452.8537	0.0424
453.056	0.0376
453.2583	0.0355
453.4607	0.0325
453.663	0.0422
453.8652	0.0377
454.0675	0.0469
454.2697	0.0253
454.472	0.0261
454.6742	0.0339
454.8764	0.0439
455.0786	0.0303
455.2808	0.0272
455.4829	0.0335
455.6851	0.0361
455.8872	0.0232
456.0893	0.0302
456.2915	0.029
456.4935	0.0345
456.6956	0.0303
456.8977	0.0204
457.0997	0.0354
457.3018	0.0346
457.5038	0.0358
457.7058	0.0296
457.9078	0.0244
458.1098	0.0252
458.3117	0.025
458.5137	0.0178
458.7156	0.0228
458.9175	0.0289
459.1194	0.021
459.3213	0.024
459.5232	0.0304
459.725	0.0211
459.9269	0.0221
460.1287	0.0198
460.3305	0.0263
460.5323	0.0171
460.7341	0.025
460.9359	0.0109
461.1376	0.0249
461.3394	0.0213
461.5411	0.0221
461.7428	0.0276
461.9445	0.0227
462.1462	0.0049
462.3479	0.0118
462.5495	0.0255
462.7512	0.0264
462.9528	0.0188
463.1544	0.0129
463.356	0.0105
463.5576	0.0279
463.7592	0.0136
463.9607	0.0192
464.1623	0.02
464.3638	0.0132
464.5653	0.0221
464.7668	0.0233
464.9683	0.0152
465.1697	0.0202
465.3712	0.0093
465.5726	0.0186
465.7741	0.0255
465.9755	0.004
466.1769	0.0127
466.3782	0.0102
466.5796	0.0129
466.7809	0.0163
466.9823	0.0156
467.1836	0.0179
467.3849	0.0183
467.5862	0.0054
467.7875	0.0134
467.9887	0.0144
468.19	0.0226
468.3912	0.0347
468.5924	0.0113
468.7936	0.0142
468.9948	0.0034
469.196	0.0166
469.3972	0.0081
469.5983	0.0125
469.7994	0.0137
470.0006	0.0193
470.2017	0.0121
470.4027	0.0252
470.6038	0.013
470.8049	0.0069
471.0059	0.023
471.2069	0.0207
471.408	0.021
471.6089	0.0129
471.8099	0.0091
472.0109	0.0042
472.2119	0.0223
472.4128	0.0072
472.6137	0.0077
472.8146	0.0151
473.0155	0.0267
473.2164	0.0173
473.4173	0.0109
473.6181	0.0045
473.819	0.0141
474.0198	0.0085
474.2206	0.0006
474.4214	0.0183
474.6222	0.0026
474.8229	0.0093
475.0237	0.0132
475.2244	0.0146
475.4251	0.0109
475.6258	0.0063
475.8265	0.0114
476.0272	0.012
476.2278	0.0125
476.4285	0.0076
476.6291	0.0093
476.8297	0.0171
477.0303	0.0059
477.2309	0.0075
477.4315	0.0126
477.632	0.0074
477.8326	0.0106
478.0331	0.0144
478.2336	0.0088
478.4341	0.0141
478.6346	0.0074
478.8351	0.0038
479.0355	0.0132
479.236	0.022
479.4364	0.0107
479.6368	0.0104
479.8372	0.0113
480.0376	0.0096
480.2379	0.014
480.4383	0.0172
480.6386	0.009
480.8389	0.0118
481.0392	0.0111
481.2395	0.0194
481.4398	0.0089
481.6401	0.0146
481.8403	0.0116
482.0405	0.0048
482.2408	0.0022
482.441	0.0141
482.6411	0.0117
482.8413	0.0029
483.0415	0.0176
483.2416	0.0126
483.4417	0.0113
483.6419	0.0053
483.8419	0.0074
484.042	0.0097
484.2421	0.0063
484.4422	0.0044
484.6422	0.0143
484.8422	0.0083
485.0422	0.0113
485.2422	0.0062
485.4422	0.0075
485.6422	0.0046
485.8421	0.0093
486.042	0.0183
486.242	0.0054
486.4419	0.01
486.6417	0.0021
486.8416	0.0135
487.0415	0.0043
487.2413	0.0044
487.4411	0.0127
487.641	0.0094
487.8408	0.0132
488.0405	0.0127
488.2403	0.0063
488.4401	0.0056
488.6398	0.0109
488.8395	0.017
489.0392	0.0111
489.2389	0.016
489.4386	0.0055
489.6383	0.0197
489.8379	0.0134
490.0376	0.0065
490.2372	0.0096
490.4368	0.0078
490.6364	0.0079
490.836	0.0098
491.0355	0.0073
491.2351	0.012
491.4346	0.0093
491.6341	-0.002
491.8336	0.013
492.0331	0.011
492.2326	0.0086
492.432	0.0075
492.6315	0.0137
492.8309	0.0083
493.0303	0.015
493.2297	0.0141
493.4291	0.0084
493.6284	0.0192
493.8278	0.0018
494.0271	0.0028
494.2264	0.0122
494.4257	0.0068
494.625	0.0139
494.8243	0.0092
495.0236	0.0178
495.2228	0.0154
495.422	0.0051
495.6213	0.0098
495.8205	0.0123
496.0196	0.0136
496.2188	0.0124
496.418	0.0065
496.6171	0.0035
496.8162	0.0119
497.0153	0.0112
497.2144	0.0019
497.4135	0.0062
497.6126	0.0082
497.8116	0.0046
498.0107	0.0083
498.2097	0.0073
498.4087	0.0085
498.6077	0.0013
498.8067	0.0132
499.0056	0.0052
499.2046	0.0172
499.4035	0.0111
499.6024	-0.0019
499.8013	0.0086
500.0002	0.0059
500.199	0.0129
500.3979	0.0064
500.5967	0.0124
500.7956	0.0178
500.9944	0.0119
501.1932	0.0071
501.3919	0.0152
501.5907	0.0111
501.7895	0.008
501.9882	0.0049
502.1869	0.0207
502.3856	0.0021
502.5843	0.0094
502.783	0.0058
502.9816	0.0152
503.1803	0.0089
503.3789	0.0066
503.5775	0.0023
503.7761	0.0023
503.9747	0.0049
504.1732	0.01
504.3718	0.0224
504.5703	0.019
504.7689	0.0072
504.9674	0.0113
505.1658	0.0096
505.3643	0.0057
505.5628	0.0181
505.7612	0.0142
505.9597	0.0067
506.1581	0.0078
506.3565	0.0153
506.5549	0.0017
506.7532	-0.0024
506.9516	0.0191
507.1499	0.0094
507.3482	0.0136
507.5465	0.0077
507.7448	0.0129
507.9431	0.0146
508.1414	0.0083
508.3396	0.0048
508.5379	0.0085
508.7361	0.0135
508.9343	0.017
509.1325	0.0113
509.3306	0.0085
509.5288	0.0015
509.7269	0.0097
509.9251	0.0117
510.1232	0.0111
510.3213	0.0141
510.5193	0.0148
510.7174	0.0055
510.9154	0.0119
511.1135	-0.0027
511.3115	0.0086
511.5095	0.0084
511.7075	0.0078
511.9055	0.0131
512.1034	0.0091
512.3014	0.0043
512.4993	0.0082
512.6972	0.007
512.8951	0.0136
513.093	0.0086
513.2908	0.0193
513.4887	0.0084
513.6865	0.0059
513.8844	0.0065
514.0822	0.003
514.2799	0.002
514.4777	0.0044
514.6755	0.0093
514.8732	0.0062
515.0709	0.014
515.2687	0.0104
515.4664	0.0203
515.664	0.0114
515.8617	0.016
516.0594	0.0084
516.257	0.0131
516.4546	0.02
516.6522	0.0136
516.8498	0.0049
517.0474	0.0137
517.2449	0.01
517.4425	0.0091
517.64	0.0114
517.8375	0.0194
518.035	0.001
518.2325	0.0023
518.43	0.0042
518.6274	0.0058
518.8249	0.004
519.0223	0.0142
519.2197	0.0107
519.4171	-0.0001
519.6145	0.0059
519.8118	0.0005
520.0092	-0.0022
520.2065	0.0174
520.4038	0.0096
520.6011	0.0231
520.7984	0.0131
520.9956	0.0087
521.1929	0.0142
521.3901	0.0105
521.5874	0.015
521.7846	-0.002
521.9818	0.0089
522.1789	0.0151
522.3761	0.0123
522.5732	0.0051
522.7704	-0.0021
522.9675	0.0021
523.1646	0.0039
523.3617	0.0178
523.5587	0.0071
523.7558	0.0159
523.9528	0.0193
524.1498	-0.0027
524.3468	0.0072
524.5438	0.0029
524.7408	0.0083
524.9378	0.0024
525.1347	0.0207
525.3316	0.0029
525.5285	0.0059
525.7254	0.0054
525.9223	0.0171
526.1192	0.0148
526.316	0.0113
526.5129	0.0174
526.7097	0.0055
526.9065	0.0062
527.1033	0.0043
527.3	0.0126
527.4968	0.0096
527.6935	0.0023
527.8903	0.0028
528.087	0.0029
528.2837	0.0208
528.4804	0.0121
528.677	0.0132
528.8737	0.0062
529.0703	0.0029
529.2669	0.0228
529.4635	0.0063
529.6601	0.0054
529.8567	0.0035
530.0532	0.0145
530.2498	-0.0015
530.4463	0.0024
530.6428	0.0097
530.8393	0.0118
531.0358	0.0104
531.2322	0.0026
531.4287	0.0074
531.6251	-0.0076
531.8215	0.0043
532.0179	0.0088
532.2143	0.0131
532.4107	0.0172
532.607	0.0136
532.8034	0.0053
532.9997	0.0045
533.196	0.0058
533.3923	0.0176
533.5886	0.0094
533.7848	0.0068
533.9811	0.0113
534.1773	0.0119
534.3735	0.0087
534.5697	0.0099
534.7659	0.015
534.9621	0.0093
535.1582	0.0102
535.3544	0.0033
535.5505	0.0142
535.7466	0.0131
535.9427	0.0064
536.1387	0.0023
536.3348	0.0115
536.5308	0.0036
536.7269	0.0145
536.9229	0.0114
537.1189	0.0143
537.3148	0.0043
537.5108	0.0007
537.7068	0.0194
537.9027	-0.0043
538.0986	0.0152
538.2945	0.0033
538.4904	0.0023
538.6863	0.0038
538.8821	0.0177
539.078	0.0046
539.2738	0.0064
539.4696	0.0054
539.6654	0.0197
539.8611	0.0098
540.0569	0.0101
540.2526	0.0133
540.4484	0.0022
540.6441	0.0058
540.8398	0.0121
541.0355	0.0041
541.2311	0.0046
541.4268	0.024
541.6224	0.0148
541.818	0.0145
542.0136	0.013
542.2092	0.018
542.4048	0.0188
542.6003	0.0066
542.7959	0.011
542.9914	0.0072
543.1869	0.0065
543.3824	0.0167
543.5779	0.0188
543.7734	0.0134
543.9688	0.017
544.1642	0.0131
544.3596	0.0188
544.555	0.0081
544.7504	0.0213
544.9458	0.0092
545.1411	0.0016
545.3365	0.0006
545.5318	0.0137
545.7271	0.0088
545.9224	0.004
546.1177	0.0155
546.3129	0.0051
546.5081	0.0033
546.7034	0.0026
546.8986	0.0076
547.0938	0.0155
547.289	0.0131
547.4841	0.0191
547.6793	0.0063
547.8744	0.0104
548.0695	0.0056
548.2646	0.0146
548.4597	0.0114
548.6548	0.0139
548.8498	0.0111
549.0448	0.0119
549.2399	0.0184
549.4349	0.0142
549.6298	0.0066
549.8248	0.0081
550.0198	0.011
550.2147	0.0082
550.4096	-0.0036
550.6045	0.0083
550.7994	0.0012
550.9943	0.0116
551.1892	-0.0128
551.384	0.015
551.5788	0.015
551.7737	0.0108
551.9685	0.0105
552.1632	0.0002
552.358	0.0049
552.5528	0.0245
552.7475	0.0079
552.9422	0.0078
553.1369	0.0176
553.3316	0.0097
553.5263	0.0164
553.7209	0.0135
553.9156	0.0076
554.1102	0.0221
554.3048	-0.0003
554.4994	0.0065
554.694	0.0123
554.8885	0.0136
555.0831	0.0115
555.2776	0.0085
555.4721	0.0169
555.6666	0.0005
555.8611	0.0116
556.0555	0.0119
556.25	0.0095
556.4444	0.008
556.6388	0.0031
556.8332	0.0116
557.0276	0.0142
557.222	0.005
557.4163	0.0041
557.6107	0.0119
557.805	0.0048
557.9993	0.0097
558.1936	0.005
558.3879	0.007
558.5821	-0.0033
558.7764	0.0085
558.9706	0.0096
559.1648	0.0088
559.359	-0.0093
559.5532	0.0033
559.7473	0.0085
559.9415	0.0091
560.1356	0.025
560.3297	0.0017
560.5238	0.0175
560.7179	0.0038
560.9119	0.0028
561.106	-0.0019
561.3	0.0164
561.494	0.0021
561.688	0.0094
561.882	0.0042
562.076	0.0099
562.2699	0.0207
562.4639	0.0213
562.6578	0.0181
562.8517	0.0072
563.0456	0.0139
563.2395	0.01
563.4333	0.0134
563.6272	-0.0012
563.821	0.008
564.0148	-0.0002
564.2086	0.0136
564.4024	0.014
564.5961	0.0136
564.7899	0.0277
564.9836	0.0128
565.1773	0.0141
565.371	0.0049
565.5647	0.0047
565.7584	0.0212
565.952	0.008
566.1456	0.0006
566.3393	0.0098
566.5329	0.0138
566.7264	0.0147
566.92	0.0099
567.1136	0.0029
567.3071	0.0055
567.5006	0.0068
567.6941	0.0048
567.8876	0.0046
568.0811	0.0205
568.2745	0.0042
568.468	0.01
568.6614	0.0111
568.8548	0.0114
569.0482	0.012
569.2416	0.0099
569.4349	0.0067
569.6283	0.0021
569.8216	0.0114
570.0149	0.0064
570.2082	0.0141
570.4015	0.0066
570.5947	0.0054
570.788	0.0067
570.9812	0.0095
571.1744	0.0073
571.3676	0.0084
571.5608	0.0026
571.754	0.0131
571.9471	0.0136
572.1402	0.0103
572.3333	0.0103
572.5264	0.0127
572.7195	0.0053
572.9126	0.0108
573.1057	0.0088
573.2987	0.0068
573.4917	0.0086
573.6847	0.0031
573.8777	0.0127
574.0707	0.0111
574.2636	0.0069
574.4566	0.0064
574.6495	0.0063
574.8424	0.0097
575.0353	0.0136
575.2281	0.0154
575.421	0.0065
575.6138	0.009
575.8067	0.0106
575.9995	0.0049
576.1923	0.0097
576.385	0.0111
576.5778	0.0081
576.7706	0.008
576.9633	0.0122
577.156	0.0048
577.3487	0.0085
577.5414	0.0034
577.734	0.0087
577.9267	0.0116
578.1193	0.0122
578.3119	0.0098
578.5045	0.0016
578.6971	0.0074
578.8897	0.0067
579.0822	0.0111
579.2747	0.0071
579.4673	0.0081
579.6598	0.0082
579.8522	0.0063
580.0447	0.0104
580.2372	0.0134
580.4296	0.0122
580.622	0.006
580.8144	0.0084
581.0068	0.0083
581.1992	0.0096
581.3915	0.0006
581.5839	0.0107
581.7762	0.0065
581.9685	0.0099
582.1608	0.0061
582.353	0.0058
582.5453	0.0069
582.7375	0.0122
582.9298	0.0035
583.122	0.0048
583.3142	0.0124
583.5063	0.0089
583.6985	0.002
583.8906	0.0032
584.0827	0.013
584.2749	0.0069
584.4669	0.0083
584.659	0.0132
584.8511	0.0159
585.0431	0.0101
585.2352	0.0062
585.4272	0.0085
585.6192	0.0045
585.8111	0.0056
586.0031	0.0068
586.195	0.0111
586.387	0.0057
586.5789	0.0101
586.7708	0.0151
586.9627	0.0106
587.1545	0.0062
587.3464	0.0086
587.5382	0.0083
587.73	0.0081
587.9218	0.007
588.1136	0.0064
588.3053	0.0065
588.4971	0.0104
588.6888	0.0028
588.8805	0.0104
589.0722	0.0157
589.2639	0.0081
589.4556	0.0098
589.6472	0.0111
589.8389	0.0077
590.0305	0.0092
590.2221	0.0131
590.4137	0.0026
590.6052	0.0086
590.7968	0.0093
590.9883	0.0061
591.1798	0.0119
591.3713	0.0018
591.5628	0.0047
591.7543	0.0098
591.9458	0.005
592.1372	0.0117
592.3286	0.012
592.52	0.0099
592.7114	0.0044
592.9028	0.0165
593.0941	0.0046
593.2855	0.0026
593.4768	0.0162
593.6681	0.0125
593.8594	0.011
594.0506	0.0082
594.2419	0.009
594.4331	0.0064
594.6244	0.0048
594.8156	0.0057
595.0067	0.0013
595.1979	0.01
595.3891	0.0088
595.5802	0.0087
595.7713	0.0053
595.9624	0.0132
596.1535	0.0048
596.3446	0.0054
596.5357	0.016
596.7267	0.0091
596.9177	-0.0002
597.1087	0.0021
597.2997	0.0165
597.4907	0.0052
597.6817	0.0144
597.8726	0.0112
598.0635	-0.0006
598.2544	0.0095
598.4453	0.0088
598.6362	0.0099
598.827	0.0039
599.0179	0.0048
599.2087	0.0088
599.3995	0.0085
599.5903	0.0132
599.7811	0.0174
599.9718	0.008
600.1626	0.0059
600.3533	0.0073
600.544	0.009
600.7347	0.0116
600.9254	0.0157
601.116	0.0088
601.3067	0.0073
601.4973	0.014
601.6879	0.0077
601.8785	0.0128
602.0691	0.0118
602.2596	0.0094
602.4502	0.0075
602.6407	0.0087
602.8312	0.0094
603.0217	0.0077
603.2122	0.009
603.4027	0.0112
603.5931	0.0094
603.7835	0.0098
603.9739	0.0039
604.1643	0.0091
604.3547	0.0113
604.5451	0.0094
604.7354	0.0027
604.9257	0.0058
605.116	-0.0045
605.3063	0.0112
605.4966	0.0036
605.6869	0.0152
605.8771	0.0081
606.0673	0.009
606.2575	0.0073
606.4477	0.008
606.6379	0.007
606.8281	0.0099
607.0182	0.0095
607.2083	0.0063
607.3985	0.0106
607.5885	0.0084
607.7786	0.0078
607.9687	0.0082
608.1587	0.0121
608.3488	0.0075
608.5388	0.0038
608.7288	-0.0069
608.9187	0.0119
609.1087	0.0038
609.2986	0.0113
609.4886	0.0028
609.6785	0.006
609.8684	0.0068
610.0582	0.0031
610.2481	0.005
610.4379	0.0075
610.6278	0.011
610.8176	0.0142
611.0074	0.0142
611.1971	0.0064
611.3869	0.0084
611.5766	0.0001
611.7664	0.0077
611.9561	0.0088
612.1458	0.0021
612.3354	0.0106
612.5251	0.0044
612.7147	0.0132
612.9044	0.0039
613.094	0.006
613.2836	0.007
613.4731	0.0016
613.6627	0.0071
613.8522	0.0146
614.0417	0.0037
614.2313	0.0131
614.4207	0.011
614.6102	0.0158
614.7997	0.0192
614.9891	0.01
615.1785	0.0036
615.3679	0.0129
615.5573	0.0049
615.7467	0.0043
615.9361	0.0098
616.1254	0.0035
616.3147	0.01
616.504	0.0076
616.6933	0.0031
616.8826	0.0025
617.0718	0.0071
617.2611	-0.0027
617.4503	0.0088
617.6395	0.0051
617.8287	0.0097
618.0179	0.0101
618.207	0.0072
618.3961	0.0065
618.5853	0.0052
618.7744	0.014
618.9634	0.0157
619.1525	0.0137
619.3416	0.0105
619.5306	0.008
619.7196	0.0115
619.9086	0.0084
620.0976	0.0008
620.2866	0.0177
620.4755	-0.0045
620.6645	0.0135
620.8534	0.0036
621.0423	0.0064
621.2312	0.0069
621.42	0.0113
621.6089	-0.0021
621.7977	0.0191
621.9865	0.0008
622.1753	-0.0036
622.3641	-0.0015
622.5529	0.0024
622.7416	0.0073
622.9303	0.008
623.1191	0.0092
623.3078	0.0081
623.4964	0.0105
623.6851	0.0135
623.8737	-0.001
624.0624	-0.0126
624.251	0.0012
624.4396	0.0048
624.6282	0.0128
624.8167	0.0015
625.0053	0.0132
625.1938	0.0141
625.3823	0.0119
625.5708	-0.0038
625.7593	0.0042
625.9477	0.0041
626.1362	0.0073
626.3246	0.0157
626.513	0.0122
626.7014	0.0181
626.8898	0.0134
627.0781	0.0015
627.2665	0.0075
627.4548	-0.002
627.6431	0.0131
627.8314	0.0161
628.0197	0.0119
628.2079	0.0028
628.3962	0.0092
628.5844	0.0054
628.7726	-0.0005
628.9608	0.0112
629.1489	0.0229
629.3371	0.0077
629.5252	0.0243
629.7134	-0.0057
629.9015	0.0117
630.0895	-0.0071
630.2776	0.0071
630.4657	0.0122
630.6537	0.0121
630.8417	0.0067
631.0297	0.0039
631.2177	0.0035
631.4057	0.0115
631.5936	-0
631.7815	0.0031
631.9695	0.0251
632.1574	0.0069
632.3452	0.0245
632.5331	-0.0031
632.7209	0.0193
632.9088	0.0032
633.0966	0.0095
633.2844	0.0165
633.4722	0.007
633.6599	0.033
633.8477	0.0026
634.0354	0.0179
634.2231	-0.0094
634.4108	0.0059
634.5985	0.0238
634.7861	0.0144
634.9738	0.0066
635.1614	0.0124
635.349	0.0105
635.5366	0.0064
635.7242	0.0137
635.9117	0.0035
636.0993	0.0112
636.2868	0.0015
636.4743	0.0095
636.6618	-0.0142
636.8492	0.0068
637.0367	-0.0004
637.2241	-0.0051
637.4115	0.03
637.5989	0.0093
637.7863	0.0307
637.9737	0.0179
638.161	0.0086
638.3484	0.0011
638.5357	0.0008
638.723	0.0089
638.9103	0.0023
639.0975	0.0052
639.2848	0.0195
639.472	0.0137
639.6592	-0.0046
639.8464	0.0001
640.0336	0.0144
640.2208	-0.0043
640.4079	0.008
640.595	-0.012
640.7821	0.0171
640.9692	-0.0017
641.1563	0.0114
641.3434	0.009
641.5304	0.0241
641.7174	0.0132
641.9044	0.0102
642.0914	0.0148
642.2784	0.0045
642.4653	0.0071
642.6523	0.029
642.8392	-0.0097
643.0261	0.0192
643.213	0.0161
643.3999	0.0302
643.5867	0.0225
643.7735	-0.0037
643.9604	0.0162
644.1472	0.0197
644.3339	-0.0037
644.5207	0.0118
644.7075	-0.0081
644.8942	0.0032
645.0809	0.0078
645.2676	-0.0142
645.4543	-0.0162
645.6409	-0.0005
645.8276	-0.0005
646.0142	0.0095
646.2008	0.0008
646.3874	-0.0042
646.574	0.0005
646.7605	0.0056
646.9471	0.003
647.1336	-0.0088
647.3201	0.0031
647.5066	0.0026
647.6931	0.0034
647.8795	0.0138
648.0659	0.0128
648.2524	0.0048
648.4388	-0.0083
648.6252	0.0109
648.8115	0.0148
648.9979	0.0242
649.1842	0.0099
649.3705	0.0154
649.5568	0.0114
649.7431	-0.0167
649.9294	0.0034
650.1156	0.0007
650.3018	0.0085
650.488	0.0037
650.6742	0.0249
650.8604	0.0012
651.0466	0.0256
651.2327	0.0049
651.4188	0.0134
651.6049	0.0262
651.791	0.0086
651.9771	0.0228
652.1632	-0.0024
652.3492	0.0141
652.5352	0.0111
652.7212	0.0067
652.9072	-0.0135
653.0932	0.0124
653.2791	0.0038
653.465	0.0054
653.651	0.0138
653.8369	0.0087
654.0227	-0.0081
654.2086	0.0058
654.3944	0.0095
654.5803	0.0057
654.7661	0.0077
654.9519	0.0011
655.1377	0.0002
655.3234	0.0002
655.5092	0.0002
655.6949	0.0002
655.8806	0.0002
656.0663	0.0002
656.2519	0.0002
656.4376	0.0002
656.6232	0.0002
656.8088	0.0002
656.9945	0.0002
657.18	0.0002
657.3656	0.0002
657.5511	0.0002
657.7367	0.0002
657.9222	0.0002
658.1077	0.0002
658.2932	0.0002
658.4786	0.0002
658.6641	0.0002
658.8495	0.0002
659.0349	0.0002
659.2203	0.0002
659.4057	0.0146
659.591	0.2741
659.7764	0.0347
659.9617	0.0109
660.147	0.0053
660.3323	0.0055
660.5176	0.0141
660.7028	-0.0226
660.888	0.0135
661.0733	0.0103
661.2585	-0.01
661.4436	0.009
661.6288	0.0153
661.8139	0.0065
661.9991	0.0004
662.1842	-0.0071
662.3693	0.0153
662.5544	0.015
662.7394	0.0187
662.9245	-0.0001
663.1095	0.0022
663.2945	0.0002
663.4795	-0.0132
663.6644	0.001
663.8494	0.0145
664.0343	0.0095
664.2193	0.0087
664.4042	0.0259
664.589	-0.0008
664.7739	0.0236
664.9587	-0.0081
665.1436	0.0056
665.3284	0.0273
665.5132	-0.0319
665.698	0.0143
665.8827	0.031
666.0675	0.0098
666.2522	-0.0001
666.4369	-0.0229
666.6216	-0.0124
666.8063	-0.0091
666.9909	-0.0061
667.1756	-0.0134
667.3602	0.0002
667.5448	0.0094
667.7294	0.031
667.9139	-0.011
668.0985	0.0137
668.283	0.027
668.4675	0.0191
668.652	0.0156
668.8365	0.0124
669.0209	-0.0023
669.2054	0.0141
669.3898	0.0044
669.5742	0.0258
669.7586	0.0112
669.943	0.0064
670.1273	-0.0048
670.3117	0.0469
670.496	0.0067
670.6803	0.0094
670.8646	-0.0207
671.0488	0.0379
671.2331	-0.0001
671.4173	0.0176
671.6015	0.0029
671.7857	0.0129
671.9699	0.013
672.1541	0.0108
672.3382	0.0089
672.5223	0.0059
672.7064	0.0021
672.8905	0.003
673.0746	0.0357
673.2587	0.0281
673.4427	0.025
673.6267	0.0114
673.8107	0.0189
673.9947	0.016
674.1787	0.0288
674.3626	0.0328
674.5465	0.0342
674.7304	-0.0088
674.9143	0.0048
675.0982	0.0033
675.2821	0.0051
675.4659	-0.0138
675.6497	0.0163
675.8335	0.0173
676.0173	0.0008
676.2011	0.0182
676.3849	0.0173
676.5686	0.0158
676.7523	0.0016
676.936	0.0092
677.1197	0.0085
677.3034	0.0195
677.487	0.0149
677.6706	0.0107
677.8542	-0.007
678.0378	0.0188
678.2214	0.0074
678.405	0.0227
678.5885	0.0051
678.772	0.0232
678.9555	0.005
679.139	0.0212
679.3225	0.0085
679.5059	-0
679.6894	0.0061
679.8728	-0.0023
680.0562	0.0086
680.2395	-0.0091
680.4229	-0.0101
680.6062	0.0006
680.7896	-0.0061
680.9729	0.0205
681.1562	0.0016
681.3394	-0.0043
681.5227	-0.0056
681.7059	0.02
681.8891	0.0143
682.0723	0.002
682.2555	0.0145
682.4387	0.018
682.6218	0.0021
682.805	0.0177
682.9881	0.0124
683.1712	0.0119
683.3542	0.0374
683.5373	-0.0005
683.7203	0.0234
683.9034	-0.0031
684.0864	0.0004
684.2694	0.0009
684.4523	0.015
684.6353	-0.0054
684.8182	0.0003
685.0011	0.0023
685.184	0.0176
685.3669	0.0177
685.5498	0.0059
685.7326	-0.0012
685.9154	0.0096
686.0982	0.0029
686.281	0.0076
686.4638	0.011
686.6465	0.0138
686.8293	0.0035
687.012	0.0079
687.1947	0.0126
687.3774	0.0124
687.56	-0.0063
687.7427	0.006
687.9253	0.0011
688.1079	0.0285
688.2905	-0.0085
688.4731	0.0192
688.6556	0.0133
688.8382	-0.0237
689.0207	0.0075
689.2032	0.0076
689.3857	0.0052
689.5681	0.0041
689.7506	0.0213
689.933	-0.0044
690.1154	0.0173
690.2978	-0.0048
690.4802	0.014
690.6626	-0.0003
690.8449	0.0071
691.0272	0.0052
691.2095	-0.0106
691.3918	0.0141
691.5741	-0.0016
691.7563	0.0167
691.9386	0.0262
692.1208	0.0174
692.303	0.0052
692.4852	0.0086
692.6673	0.0049
692.8495	0.0002
693.0316	0.0101
693.2137	0.0165
693.3958	0.0072
693.5778	0.02
693.7599	0.0049
693.9419	-0.0138
694.1239	0.0114
694.3059	0.0074
694.4879	0.0107
694.6699	-0.0088
694.8518	0.0256
695.0337	0.0185
695.2157	0.0329
695.3975	-0.02
695.5794	-0.0247
695.7613	0.0011
695.9431	-0.0137
696.1249	0.0116
696.3067	0.0023
696.4885	0.0122
696.6703	0.0034
696.852	0.0084
697.0337	0.0171
697.2154	0.0076
697.3971	0.0207
697.5788	0.012
697.7605	-0.0022
697.9421	0.0071
698.1237	0.0181
698.3053	-0.0032
698.4869	0.0107
698.6685	-0.0084
698.85	0.0429
699.0315	-0.0175
699.213	0.0267
699.3945	0.0147
699.576	0.019
699.7575	0.0204
699.9389	-0.002
700.1203	0.0283
700.3017	0.02
700.4831	0.0191
700.6645	0.0359
700.8458	-0.0044
701.0271	0.0362
701.2084	0.0062
701.3897	0.012
701.571	-0.0131
701.7523	0.0006
701.9335	0.0264
702.1147	0.0262
702.2959	0.0008
702.4771	0.0154
702.6583	-0.018
702.8394	0.0088
703.0205	0.0388
703.2016	-0.0055
703.3827	0.0192
703.5638	0.0014
703.7449	0.0379
703.9259	-0.0044
704.1069	-0.0082
704.2879	0.0195
704.4689	0.0092
704.6499	0.0133
704.8308	0.0242
705.0117	0.0004
705.1927	0.0149
705.3735	0.021
705.5544	0.0306
705.7353	0.0033
705.9161	-0.0272
706.0969	0.0146
706.2777	-0.0082
706.4585	0.0106
706.6393	0.0202
706.82	0.0163
707.0007	0.0008
707.1815	-0.0063
707.3621	0.0396
707.5428	0.0121
707.7235	-0.0062
707.9041	0.0127
708.0847	0.0218
708.2653	0.0391
708.4459	0.0147
708.6265	-0.011
708.807	0.0118
708.9875	0.0201
709.168	0.006
709.3485	0.0152
709.529	0.0183
709.7095	-0.0176
709.8899	0.0152
710.0703	0.0055
710.2507	0.0173
710.4311	-0.0166
710.6115	0.0224
710.7918	0.0319
710.9721	0.0133
711.1524	0.0044
711.3327	-0.0056
711.513	0.0075
711.6932	0.0067
711.8735	0.0279
712.0537	-0.0212
712.2339	0.0222
712.4141	0.0206
712.5942	0.0076
712.7744	0.0233
712.9545	0.0119
713.1346	0.0186
713.3147	0.0148
713.4947	-0.0123
713.6748	0.0115
713.8548	0.0107
714.0348	0.0215
714.2148	0.0127
714.3948	0.0159
714.5748	0.0247
714.7547	0.0111
714.9346	0.0318
715.1145	0.0319
715.2944	-0.0225
715.4743	0.0018
715.6541	0.0025
715.834	0.0379
716.0138	0.0314
716.1936	0.033
716.3733	0.0059
716.5531	-0.0033
716.7328	0.013
716.9126	0.0492
717.0923	-0.0196
717.2719	0.0067
717.4516	0.0047
717.6312	0.0132
717.8109	0.0122
717.9905	0.0062
718.1701	0.0186
718.3496	-0.0044
718.5292	0.0007
718.7087	0.0014
718.8882	0.0143
719.0677	-0.0016
719.2472	0.021
719.4267	0.0021
719.6061	-0.0206
719.7856	0.0243
719.965	0.0175
720.1443	0.011
720.3237	-0.0194
720.5031	0.0266
720.6824	-0.0147
720.8617	0.004
721.041	0.0234
721.2203	-0.0065
721.3995	0.0026
721.5788	0.0151
721.758	0.0147
721.9372	0.008
722.1164	-0.0157
722.2956	-0.0032
722.4747	0.0223
722.6538	-0.0019
722.8329	0.0197
723.012	0.0085
723.1911	0.0132
723.3702	0.0103
723.5492	0.0178
723.7282	0.0029
723.9072	0.0257
724.0862	0.0149
724.2652	0.021
724.4441	0.0161
724.623	-0.0064
724.8019	0.0148
724.9808	0.0277
725.1597	0.0291
725.3385	-0.0021
725.5174	0.0218
725.6962	-0.0038
725.875	0.0083
726.0538	0.0259
726.2325	-0.0001
726.4112	0.0136
726.59	0.0026
726.7687	0.0193
726.9474	0.0064
727.126	0.0261
727.3047	-0.0005
727.4833	0.018
727.6619	-0.0245
727.8405	-0.0011
728.0191	0.0381
728.1976	0.0243
728.3762	0.0281
728.5547	-0.0066
728.7332	0.0287
728.9116	0.025
729.0901	0.0069
729.2686	0.0002
729.447	-0.0175
729.6254	0.0146
729.8038	0.0182
729.9821	-0.0155
730.1605	0.006
730.3388	0.0028
730.5171	0.0295
730.6954	-0.0147
730.8737	0.012
731.0519	0.0081
731.2302	0.0241
731.4084	0.0035
731.5866	-0.0061
731.7648	0.0176
731.9429	0.0114
732.1211	0.0068
732.2992	0.0264
732.4773	0.0203
732.6554	-0.0173
732.8335	0.0472
733.0115	0.0015
733.1896	-0.0054
733.3676	0.0176
733.5456	0.0041
733.7235	0.0044
733.9015	0.0061
734.0794	0.0039
734.2574	-0.0196
734.4353	0.0172
734.6131	0.0036
734.791	-0.0004
734.9689	-0.0152
735.1467	0.0024
735.3245	0.0199
735.5023	0.0184
735.68	0.0169
735.8578	0.0197
736.0355	0.0069
736.2132	0.0007
736.3909	0.0088
736.5686	-0.0169
736.7463	-0.0119
736.9239	0.0351
737.1015	0.0229
737.2791	0.0006
737.4567	0.0114
737.6343	0.0152
737.8118	0.0171
737.9894	0.0285
738.1669	0.0006
738.3444	0.0229
738.5218	-0.0035
738.6993	0.01
738.8767	0.0131
739.0541	-0.0001
739.2315	0.02
739.4089	0.0138
739.5863	0.0128
739.7636	0.0093
739.9409	0.0025
740.1182	0.003
740.2955	0.0234
740.4728	-0.02
740.65	-0.0193
740.8272	0.0184
741.0044	0.0079
741.1816	0.0131
741.3588	-0.0034
741.5359	-0.008
741.7131	0.0088
741.8902	-0.0167
742.0673	-0.0107
742.2444	0.0166
742.4214	0.0071
742.5985	-0.0279
742.7755	0.0086
742.9525	-0.018
743.1295	-0.0066
743.3064	-0.0064
743.4834	-0.0031
743.6603	0.0751
743.8372	-0.0331
744.0141	0.0464
744.191	0.0113
744.3678	-0.0211
744.5446	0.0146
744.7215	0.0236
744.8982	0.0206
745.075	0.0347
745.2518	0.0343
745.4285	0.0454
745.6052	-0.0198
745.7819	0.0146
745.9586	0.0202
746.1353	-0.0191
746.3119	0.0094
746.4885	0.0071
746.6651	-0.0027
746.8417	-0.0072
747.0183	0.0375
747.1948	0.0153
747.3714	-0.0212
747.5479	0.0153
747.7244	0.0285
747.9008	0.0032
748.0773	0.0266
748.2537	0.0179
748.4301	0.0238
748.6065	-0.0169
748.7829	-0.0076
748.9593	-0.0035
749.1356	-0.0072
749.3119	0.0151
749.4882	0.0058
749.6645	0.0005
749.8408	0.0136
750.017	0.0076
750.1933	-0.0241
750.3695	0.0042
750.5457	0.0019
750.7218	-0.0117
750.898	-0.0104
751.0741	0.0022
751.2502	0.0021
751.4263	-0.002
751.6024	-0.0191
751.7784	0.0048
751.9545	0.0055
752.1305	0.0003
752.3065	0.0093
752.4825	0.0043
752.6584	0.0323
752.8344	-0.017
753.0103	-0.0249
753.1862	0.0216
753.3621	0.0022
753.5379	0.0056
753.7138	0.0158
753.8896	0.0145
754.0654	0.0003
754.2412	0.0118
754.417	0.0202
754.5927	0.0026
754.7685	0.0012
754.9442	0.0063
755.1199	-0.0127
755.2956	0.0068
755.4712	0.0172
755.6469	0.0107
755.8225	0.0024
755.9981	0.0153
756.1736	0.0069
756.3492	0.0073
756.5248	0.0234
756.7003	0.0037
756.8758	0.0029
757.0513	0.0087
757.2267	0.0121
757.4022	-0.0028
757.5776	0.0009
757.753	0.0081
757.9284	-0.0034
758.1038	0.015
758.2791	0.0308
758.4545	0.0084
758.6298	0.0096
758.8051	0.0305
758.9803	0.013
759.1556	-0.0003
759.3308	0.0091
759.506	0.0191
759.6812	-0.0009
759.8564	0.0106
760.0316	-0.0035
760.2067	0.0287
760.3819	0.002
760.557	0.0065
760.732	-0.0032
760.9071	0.0215
761.0821	-0.0003
761.2572	0.0005
761.4322	0.0059
761.6072	0.0047
761.7821	-0.0261
761.9571	0.02
762.132	-0.0031
762.3069	0.0374
762.4818	0.0138
762.6567	0.0133
762.8316	0.0216
763.0064	0.0131
763.1812	0.0013
763.356	-0.0122
763.5308	0.0137
763.7055	0.0012
763.8803	0.0061
764.055	0.0027
764.2297	0.0042
764.4044	-0.0092
764.579	0.0052
764.7537	0.0118
764.9283	0.0143
765.1029	-0.0066
765.2775	0.0073
765.4521	0.0019
765.6266	0.0068
765.8011	0.0385
765.9756	0.0161
766.1501	-0.013
766.3246	0.0246
766.4991	0.0145
766.6735	0.0439
766.8479	-0.0163
767.0223	0.012
767.1967	0.0339
767.371	0.0264
767.5454	0.0008
767.7197	0.0466
767.894	-0.0073
768.0683	0.0205
768.2425	0.012
768.4168	0.0053
768.591	0.0134
768.7652	-0.0031
768.9394	-0.0228
769.1135	0.0051
769.2877	0.0324
769.4618	0.0023
769.6359	0.0003
769.81	0.0078
769.984	-0.0123
770.1581	0.0067
770.3321	0.0196
770.5061	-0.0193
770.6801	0.0176
770.8541	0.0062
771.028	0.0245
771.202	0.0241
771.3759	0.0069
771.5498	0.0271
771.7236	-0.0063
771.8975	0.011
772.0713	0.0326
772.2451	-0.0154
772.4189	0.0198
772.5927	-0.0375
772.7665	-0.0182
772.9402	0.0148
773.1139	-0.0158
773.2876	-0.0061
773.4613	0.0095
773.635	0.036
773.8086	0.0405
773.9822	0.0004
774.1558	0.0109
774.3294	-0.0175
774.503	-0.0165
774.6765	0.0165
774.8501	0.0088
775.0236	0.0402
775.1971	-0.0017
775.3705	0.0346
775.544	-0.0648
775.7174	0.0064
775.8908	0.0231
776.0642	0.0269
776.2376	0.0362
776.4109	0.0024
776.5843	0.026
776.7576	-0.0086
776.9309	0.0177
777.1041	0.0179
777.2774	0.0006
777.4506	0.0271
777.6238	0.0213
777.797	0.0259
777.9702	0.0317
778.1434	-0.0008
778.3165	-0.0235
778.4896	-0.0044
778.6627	0.0528
778.8358	0.0086
779.0089	-0.0189
779.1819	0.0031
779.3549	0.0116
779.5279	-0.0079
779.7009	0.0267
779.8739	0.0547
780.0468	-0.0086
780.2197	0.0005
780.3926	-0.0237
780.5655	0.0198
780.7384	0.0145
780.9112	0.0225
781.0841	0.0145
781.2569	0.0297
781.4297	0.0251
781.6024	0.0464
781.7752	0.0362
781.9479	0.0465
782.1206	0.0288
782.2933	0.0113
782.466	-0.0054
782.6386	-0.0001
782.8113	0.0016
782.9839	-0.0019
783.1565	0.0082
783.329	0.0033
783.5016	0.0226
783.6741	0.0441
783.8466	0.0479
784.0191	0.0369
784.1916	-0.0111
784.3641	-0.027
784.5365	0.0083
784.7089	-0.0019
784.8813	0.0661
785.0537	0.0151
785.2261	-0.0053
785.3984	0.0054
785.5707	0.0028
785.743	0.0726
785.9153	0.0118
786.0876	-0.0122
786.2598	0.0051
786.432	-0.0068
786.6042	0.0244
786.7764	0.0303
786.9486	-0.0185
787.1207	0.0338
787.2928	0.0573
787.4649	-0.0079
787.637	0.0253
787.8091	0.0383
787.9811	0.0196
788.1532	0.0406
788.3252	0.0016
788.4972	0.0076
788.6691	0.0233
788.8411	0.009
789.013	0.0184
789.1849	-0.0148
789.3568	0.0061
789.5287	0.0368
789.7005	-0.0133
789.8723	-0.0168
790.0442	0.0098
790.2159	-0.0135
790.3877	0.0133
790.5595	0.0039
790.7312	0.016
790.9029	-0.0394
791.0746	0.017
791.2463	-0.0327
791.4179	0.0383
791.5896	0.0597
791.7612	0.0297
791.9328	-0.0692
792.1044	-0.0537
792.2759	-0.0371
792.4474	-0.0434
792.619	0.0135
792.7905	0.0316
792.9619	0.0548
793.1334	0.108
793.3048	0.054
793.4762	0.0284
793.6476	-0.0277
793.819	0.0025
793.9904	-0.0044
794.1617	-0.0106
794.333	0.0361
794.5043	0.0264
794.6756	0.0506
794.8469	0.0282
795.0181	-0.0119
795.1893	0.0275
795.3605	0.0276
795.5317	0.0176
795.7029	0.0302
795.874	-0.0352
796.0452	-0.0083
796.2163	0.0564
796.3873	0.0275
796.5584	0.0329
796.7294	0.0071
796.9005	-0.112
797.0715	0.0603
797.2425	0.0644
797.4134	0.0655
797.5844	0.0622
797.7553	-0.0249
797.9262	0.0674
798.0971	0.0792
798.2679	-0.0003
798.4388	0.0473
798.6096	0.0987
798.7804	0.0459
798.9512	0.0361
799.122	0.0087
799.2927	0.0741
799.4635	-0.0263
799.6342	-0.0139
799.8049	0.0148
799.9755	0.0094
800.1462	0.0471
800.3168	0.0468
800.4874	-0.1006
800.658	0.0014
800.8286	0.07
800.9991	0.039
801.1696	-0.0202
801.3402	0.035
801.5106	-0.1029
801.6811	0.0813
801.8516	0.0859
802.022	-0.0042
802.1924	0.0644
802.3628	0.0054
802.5332	0.0739
802.7035	0.149
802.8739	-0.0043
803.0442	0.0616
803.2145	0.0666
803.3847	-0.0096
803.555	0.0624
803.7252	0.0645
803.8954	0.0746
804.0656	0.0181
804.2358	-0.0551
804.4059	0.0962
804.5761	0.1258
804.7462	0.0172
804.9163	0.0305
805.0864	-0.0753
805.2564	-0.0135
805.4264	0.0164
805.5965	0.0535
805.7665	0.0011
805.9364	0.0235
806.1064	0.0021
806.2763	0.0454
806.4462	0.0435
806.6161	0.0411
806.786	0.0068
806.9559	0.0076
807.1257	0.0312
807.2955	0.0158
807.4653	0.0118
807.6351	0.0274
807.8048	0.0532
807.9746	0.0414
808.1443	-0.056
808.314	0.0337
808.4837	0.0526
808.6533	0.0107
808.8229	-0.0072
808.9926	0.0592
809.1622	-0.0107
809.3317	0.0372
809.5013	0.022
809.6708	-0.046
809.8403	0.0402
810.0098	0.0463
810.1793	0.0253
810.3488	-0.032
810.5182	0.1398
810.6876	0.0776
810.857	0.1179
811.0264	0.0443
811.1958	0.1645
811.3651	0.0544
811.5344	0.0975
811.7037	0.0591
811.873	0.0644
812.0422	-0.1243
812.2115	-0.0489
812.3807	-0.0469
812.5499	0.0233
812.7191	-0.0803
812.8882	0.0524
813.0574	-0.0308
813.2265	0.1743
813.3956	0.0296
813.5646	0.1215
813.7337	0.0388
813.9027	-0.0378
814.0718	0.0363
814.2407	0.0615
814.4097	0.0898
814.5787	0.1226
814.7476	0.0266
814.9165	0.0229
815.0854	0.037
815.2543	-0.0278
815.4232	0.1025
815.592	0.0761
815.7608	-0.1496
815.9296	-0.0224
816.0984	0.0473
816.2671	-0.2387
816.4359	0.1047
816.6046	0.0147
816.7733	0.0538
816.942	-0.0164
817.1106	0.1384
817.2793	0.0022
817.4479	-0.0006
817.6165	0.0014
817.785	0.0623
817.9536	-0.125
818.1221	0.0382
818.2906	-0.1149
818.4591	0.0462
818.6276	0.0043
818.7961	0.163
818.9645	0.031
819.1329	0.2035
819.3013	-0.0285
819.4697	-0.1704
819.638	0.0773
819.8064	0.0587
819.9747	0.0549
820.143	0.1542
820.3113	0.0893
820.4795	0.0245
820.6477	0.2042
820.816	0.0597
820.9842	0.123
821.1523	0.0805
821.3205	0.1119
821.4886	0.0226
821.6567	-0.0652
821.8248	0.1699
821.9929	-0.1534
822.1609	0.0525
822.329	0.0299
822.497	0.0195
822.665	0.0766
822.833	0.0105
823.0009	-0.0894
823.1688	0.1608
823.3367	-0.0862
823.5046	0.1467
823.6725	0.0125
823.8404	0.0036
824.0082	0.0633
824.176	-0.0618
824.3438	0.1389
824.5116	0.029
824.6793	0.0543
824.847	0.1751
825.0147	0.1698
825.1824	0.0026
825.3501	0.4627
825.5177	0.0133
825.6854	-0.1072
825.853	-0.0343
826.0206	-0.0116
826.1881	0.181
826.3557	0.3115
826.5232	0.2638
826.6907	0.1364
826.8582	0.0163
827.0257	0.1189
827.1931	0.1412
827.3605	-0.0233
827.528	-0.0115
827.6953	-0.1123
827.8627	-0.0872
828.03	0.1794
828.1974	0.1495
828.3647	0.0632
828.532	-0.0848
828.6992	0.1339
828.8665	-0.2352
829.0337	-0.1069
829.2009	0.0667
829.3681	0.1026
829.5352	-0.0571
829.7024	0.3466
829.8695	0.1057
830.0366	0.2614
830.2037	0.0884
830.3707	0.0481
830.5378	-0.0176
830.7048	0.0636
830.8718	0.054
831.0388	-0.0608
831.2057	0.5408
831.3727	-0.0952
831.5396	0.1144
831.7065	-0.4787
831.8734	-0.0077
832.0402	0.4271
832.2071	-0.4905
832.3739	0.0587
832.5407	-1.4603
832.7075	0.0424
832.8742	0.8431
833.041	-0.025
833.2077	0.4069
833.3744	0.1148
833.541	0.31
833.7077	-0.0912
833.8743	0.2607
834.0409	0.1065
834.2075	0.1446
834.3741	-0.1181
834.5407	0.1069
834.7072	0.003
834.8737	0.2754
835.0402	0.4605
835.2067	0.005
835.3731	-0.0472
835.5395	0.0799
835.706	-0.2784
835.8723	0.3505
836.0387	0.0375
836.2051	0.6207
836.3714	0.1146
836.5377	0.3785
836.704	0.3912
836.8703	-0.2027
837.0365	-0.7417
837.2027	0.3599
837.3689	0.0822
837.5351	-0
837.7013	-0.0219
837.8674	0.385
838.0335	-0.0115
838.1997	-0.1137
838.3657	-0
838.5318	-0.0085
838.6978	0.3771
838.8639	0.043
839.0299	-0.0765
839.1958	0.1444
839.3618	0.0383
839.5277	0.0112
839.6937	0.2067
839.8596	0.079
840.0254	0.1832
840.1913	0.7064
840.3571	0.11
840.523	-0
840.6888	1.0141
840.8545	-0
841.0203	0.4517
841.186	0.0287
841.3517	-0.1758
841.5174	0.1118
841.6831	0.0843
841.8488	0.0609
842.0144	-0.012
842.18	0.5715
842.3456	-0.5614
842.5112	-1.407
842.6767	0.1931
842.8422	0.2808
843.0077	0.8572
843.1732	0.0873
843.3387	0.0383
843.5042	-0
843.6696	0.1812
843.835	0.2201
844.0004	-0.1477
844.1657	-0.2527
844.3311	-0.0586
844.4964	-0
844.6617	0.0776
844.827	0.917
844.9923	0.363
845.1575	-0.3419
845.3227	0.0367
845.4879	-0.379
845.6531	0.4262
845.8183	-0.1138
845.9834	0.4754
846.1485	0.2609
846.3136	-0.0862
846.4787	-0
846.6438	0.118
846.8088	-0
846.9738	0.7404
847.1388	0.0943
847.3038	0.2601
847.4687	0.1656
847.6337	-0.5756
847.7986	0.4124
847.9635	-0
848.1284	-0
848.2932	0.2286
848.458	-0
848.6228	-0.1513
848.7876	-0
848.9524	-0.1644
849.1172	-0
849.2819	0.2089
849.4466	0.8621
849.6113	0.6559
849.7759	-0
849.9406	1.0557
850.1052	-1.0978
850.2698	1.174
850.4344	-0
850.599	0.1223
850.7635	-0.0106
850.928	-0
851.0925	0.1658
851.257	-0.1932
851.4215	0.2343
851.5859	0.1962
851.7503	-0
851.9147	-0
852.0791	-0.0189
852.2434	0.715
852.4078	-0.0206
852.5721	1.4142
852.7364	0.116
852.9007	0.0156
853.0649	-0
853.2291	0.1653
853.3934	-0
853.5575	-0.2933
853.7217	0.0583
853.8859	0.19
854.05	-0.7273
854.2141	1.1915
854.3782	-0.0207
854.5423	-0
854.7063	0.0904
854.8703	-0.1364
855.0343	0.2011
855.1983	0.2856
855.3623	1.4493
855.5262	-0
855.6901	-0
855.854	0.4222
856.0179	0.1657
856.1818	0.2205
856.3456	-0
856.5094	-0
856.6732	-0.0916
856.837	-0.6609
857.0008	-0.5554
857.1645	0.3979
857.3282	-0
857.4919	1.1614
857.6556	0.172
857.8192	1.0139
857.9828	-0.0554
858.1465	0.5334
858.31	-0.2935
858.4736	0.2277
858.6372	-0
858.8007	-0
858.9642	0.1723
859.1277	0.2964
859.2911	-0.236
859.4546	-0
859.618	-0
859.7814	0.4981
859.9448	-0
860.1081	-0
860.2715	-0
860.4348	-0
860.5981	0.549
860.7614	0.1699
860.9246	-0
861.0879	0.2278
861.2511	-0
861.4143	-0
861.5774	0.1911
861.7406	-0.005
861.9037	-0
862.0668	-0
862.2299	-0
862.393	-0
862.556	-0.1074
862.7191	0.0214
862.8821	0.2529
863.0451	0.0088
863.208	-0.1264
863.371	-0.1747
863.5339	0.3194
863.6968	0.2896
863.8597	-0.6191
864.0225	-0
864.1854	0.3289
864.3482	-0
864.511	0.7404
864.6737	-0
864.8365	0.1925
864.9992	-0
865.1619	-0.2964
865.3246	-1.6395
865.4873	0.6166
865.65	-0.024
865.8126	-0
865.9752	-0.324
866.1378	0.0891
866.3004	-0.1549
866.4629	-1.2688
866.6254	-0
866.7879	0.3208
866.9504	-0.4618
867.1129	-0.339
867.2753	-0.2466
867.4377	0.5622
867.6001	-0.6678
867.7625	-0.0912
867.9249	-0
868.0872	0.4214
868.2495	-0
868.4118	0.2403
868.5741	-0
868.7363	-0
868.8986	-0.3341
869.0608	-0.3145
869.223	0.0982
869.3851	0.0802
869.5473	0.0065
869.7094	-0
869.8715	-0
870.0336	-0.1667
870.1957	-0
870.3577	0.47
870.5197	-0
870.6817	-0.8234
870.8437	0.1911
871.0057	0.1117
871.1676	0.1632
871.3295	-0.1858
871.4914	-0.716
871.6533	-0.6061
871.8151	0.5891
871.977	-0.5135
872.1388	-0
872.3006	0.065
872.4623	-0.7708
872.6241	-0
872.7858	0.0108
872.9475	-0
873.1092	0.725
873.2709	0.2951
873.4325	-1.3424
873.5941	-0.8124
873.7557	-0.1505
873.9173	-0
874.0789	0.2931
874.2404	-0
874.4019	0.0298
874.5634	-0
874.7249	-0
874.8863	-0.0847
875.0478	0.0684
875.2092	-0
875.3706	0.5513
875.5319	-0
875.6933	1.2222
875.8546	0.9006
876.0159	0.2498
876.1772	-0
876.3385	-0
876.4997	1.5786
876.6609	1.4518
876.8221	0.1374
876.9833	-0
877.1445	0.2891
877.3056	0.1489
877.4667	-0.4286
877.6278	-0
877.7889	-0
877.9499	-0
878.111	-0.5907
878.272	-0.1465
878.433	-0.3249
878.5939	0.2823
878.7549	-0.0472
878.9158	-0
879.0767	0.6563
879.2376	0.2652
879.3984	-0
879.5593	-0
879.7201	-1.2688
879.8809	-0.2402
880.0417	-0.2035
880.2024	0.7835
880.3632	0.2292
880.5239	-0
880.6846	-0.781
880.8452	-0.4012
881.0059	-0.7287
881.1665	0.3979
881.3271	0.1191
881.4877	1.1118
881.6483	-0.6388
881.8088	-0
881.9693	-0
882.1298	-0
882.2903	-0
