Data from D4ACN5uM420nmA_Absorbance_14-37-09-417.txt Node
Date: Fri Feb 21 14:37:09 GMT 2025
User: LASERRRRR
Spectrometer: FLMT03099
Trigger mode: 0
Integration Time (sec): 1.500000E-2
Scans to average: 1
Electric dark correction enabled: true
Nonlinearity correction enabled: false
Boxcar width: 0
XAxis mode: Wavelengths
Number of Pixels in Spectrum: 3648
>>>>>Begin Spectral Data<<<<<
179.3399	-0.4755
179.5586	-0.4755
179.7771	-0.4755
179.9957	0.9212
180.2143	-1.2194
180.4329	-0.2462
180.6514	-0.9799
180.8699	-0
181.0885	-0
181.307	-0.0118
181.5255	0.0948
181.744	-0
181.9625	0.4573
182.181	-0.2556
182.3994	-0.3112
182.6179	1.451
182.8363	0.0631
183.0547	-0
183.2732	0.0198
183.4916	0.0574
183.71	0.1749
183.9284	0.0203
184.1467	0.0545
184.3651	0.0261
184.5835	0.2109
184.8018	0.1562
185.0201	0.1884
185.2385	0.1426
185.4568	0.1588
185.6751	0.0791
185.8934	0.1967
186.1117	-0.0283
186.3299	0.1824
186.5482	0.1145
186.7664	0.3653
186.9847	0.0384
187.2029	0.2427
187.4211	-0.0111
187.6393	0.305
187.8575	0.3884
188.0757	0.8827
188.2939	0.0846
188.512	0.2242
188.7302	0.0995
188.9483	0.3066
189.1665	0.3106
189.3846	0.3565
189.6027	0.0696
189.8208	0.2507
190.0389	0.1791
190.257	-0.06
190.475	-0.1545
190.6931	0.1273
190.9111	0.4169
191.1292	0.2151
191.3472	0.2222
191.5652	0.1318
191.7832	0.1043
192.0012	0.0621
192.2192	0.106
192.4371	0.1105
192.6551	0.1169
192.873	0.1581
193.091	0.1323
193.3089	0.1227
193.5268	0.1298
193.7447	0.1395
193.9626	0.224
194.1805	0.229
194.3984	0.0721
194.6162	0.2423
194.8341	0.3163
195.0519	0.252
195.2697	0.1857
195.4875	0.2182
195.7054	0.3469
195.9231	0.2266
196.1409	0.3498
196.3587	0.2794
196.5765	0.3273
196.7942	0.2634
197.012	0.322
197.2297	0.3153
197.4474	0.3491
197.6651	0.286
197.8828	0.3304
198.1005	0.3667
198.3182	0.3933
198.5358	0.3246
198.7535	0.3612
198.9711	0.3477
199.1888	0.3099
199.4064	0.3692
199.624	0.3376
199.8416	0.3483
200.0592	0.406
200.2767	0.3442
200.4943	0.3788
200.7119	0.3872
200.9294	0.4057
201.1469	0.4014
201.3645	0.4282
201.582	0.4096
201.7995	0.387
202.017	0.3926
202.2344	0.3911
202.4519	0.3578
202.6694	0.3834
202.8868	0.4116
203.1042	0.3779
203.3217	0.3914
203.5391	0.3715
203.7565	0.3339
203.9739	0.3877
204.1913	0.3434
204.4086	0.3604
204.626	0.3881
204.8433	0.3663
205.0607	0.3528
205.278	0.3539
205.4953	0.3463
205.7126	0.3235
205.9299	0.3211
206.1472	0.3213
206.3644	0.351
206.5817	0.3239
206.7989	0.3295
207.0162	0.3399
207.2334	0.3292
207.4506	0.3126
207.6678	0.3092
207.885	0.2919
208.1022	0.2997
208.3194	0.2915
208.5365	0.2936
208.7537	0.2869
208.9708	0.3087
209.1879	0.2834
209.405	0.2635
209.6222	0.2727
209.8392	0.3047
210.0563	0.2814
210.2734	0.2707
210.4905	0.2876
210.7075	0.2654
210.9245	0.2704
211.1416	0.255
211.3586	0.2517
211.5756	0.2495
211.7926	0.2684
212.0096	0.2676
212.2265	0.2493
212.4435	0.2445
212.6604	0.2354
212.8774	0.2226
213.0943	0.2619
213.3112	0.25
213.5281	0.2545
213.745	0.2352
213.9619	0.2363
214.1788	0.2565
214.3956	0.2329
214.6125	0.2413
214.8293	0.23
215.0461	0.2362
215.2629	0.249
215.4798	0.2269
215.6965	0.2549
215.9133	0.2283
216.1301	0.2446
216.3469	0.2379
216.5636	0.2406
216.7803	0.2314
216.9971	0.2443
217.2138	0.2506
217.4305	0.2231
217.6472	0.2392
217.8639	0.2308
218.0805	0.2448
218.2972	0.2362
218.5138	0.2428
218.7305	0.2401
218.9471	0.2387
219.1637	0.2573
219.3803	0.2524
219.5969	0.2469
219.8135	0.2527
220.0301	0.2518
220.2466	0.2479
220.4632	0.2491
220.6797	0.2432
220.8962	0.2681
221.1127	0.2455
221.3292	0.258
221.5457	0.2739
221.7622	0.2589
221.9787	0.2818
222.1951	0.2715
222.4116	0.2678
222.628	0.2724
222.8444	0.2697
223.0608	0.2664
223.2772	0.2794
223.4936	0.2654
223.71	0.2729
223.9264	0.2887
224.1427	0.2784
224.3591	0.2881
224.5754	0.2903
224.7917	0.2799
225.008	0.2943
225.2243	0.3
225.4406	0.2853
225.6569	0.2949
225.8732	0.3079
226.0894	0.3096
226.3057	0.3129
226.5219	0.3045
226.7381	0.3153
226.9543	0.3064
227.1705	0.302
227.3867	0.3199
227.6029	0.3265
227.8191	0.3328
228.0352	0.3336
228.2513	0.3435
228.4675	0.3308
228.6836	0.3441
228.8997	0.342
229.1158	0.3536
229.3319	0.3499
229.548	0.3594
229.764	0.3513
229.9801	0.3689
230.1961	0.3729
230.4121	0.3634
230.6282	0.3828
230.8442	0.3898
231.0602	0.3814
231.2761	0.3926
231.4921	0.3892
231.7081	0.3987
231.924	0.399
232.14	0.4127
232.3559	0.4042
232.5718	0.4119
232.7877	0.4205
233.0036	0.4116
233.2195	0.4084
233.4353	0.421
233.6512	0.4203
233.867	0.4199
234.0829	0.425
234.2987	0.4218
234.5145	0.4365
234.7303	0.433
234.9461	0.4317
235.1619	0.442
235.3776	0.4305
235.5934	0.4383
235.8091	0.4456
236.0249	0.4483
236.2406	0.4475
236.4563	0.4536
236.672	0.4453
236.8877	0.4498
237.1034	0.4442
237.319	0.4402
237.5347	0.4489
237.7503	0.44
237.966	0.464
238.1816	0.4614
238.3972	0.4618
238.6128	0.4597
238.8284	0.4673
239.0439	0.4635
239.2595	0.4658
239.475	0.4611
239.6906	0.4582
239.9061	0.4617
240.1216	0.4607
240.3371	0.4594
240.5526	0.4723
240.7681	0.4578
240.9836	0.46
241.199	0.4645
241.4145	0.4467
241.6299	0.4561
241.8453	0.4475
242.0607	0.447
242.2761	0.4555
242.4915	0.4393
242.7069	0.4378
242.9223	0.4345
243.1376	0.4199
243.353	0.4195
243.5683	0.4081
243.7836	0.3986
243.9989	0.3942
244.2142	0.3887
244.4295	0.3917
244.6448	0.3802
244.86	0.3767
245.0753	0.3672
245.2905	0.3614
245.5057	0.3506
245.721	0.3536
245.9362	0.3425
246.1514	0.3297
246.3665	0.3276
246.5817	0.3066
246.7969	0.3095
247.012	0.3096
247.2271	0.3062
247.4423	0.3007
247.6574	0.2958
247.8725	0.2858
248.0876	0.2724
248.3026	0.2814
248.5177	0.273
248.7328	0.2627
248.9478	0.2566
249.1628	0.2581
249.3779	0.2486
249.5929	0.2487
249.8079	0.2442
250.0228	0.2344
250.2378	0.2383
250.4528	0.2346
250.6677	0.2294
250.8827	0.2243
251.0976	0.2212
251.3125	0.2251
251.5274	0.2139
251.7423	0.21
251.9572	0.214
252.172	0.2156
252.3869	0.2118
252.6017	0.2095
252.8166	0.2034
253.0314	0.2036
253.2462	0.2035
253.461	0.2026
253.6758	0.1985
253.8906	0.2026
254.1053	0.1992
254.3201	0.1971
254.5348	0.1858
254.7496	0.1818
254.9643	0.2002
255.179	0.1862
255.3937	0.1973
255.6083	0.1956
255.823	0.1896
256.0377	0.1874
256.2523	0.1868
256.467	0.1894
256.6816	0.1927
256.8962	0.1897
257.1108	0.1848
257.3254	0.1889
257.54	0.1837
257.7545	0.189
257.9691	0.189
258.1836	0.1787
258.3981	0.1851
258.6127	0.179
258.8272	0.184
259.0417	0.1796
259.2561	0.1861
259.4706	0.1836
259.6851	0.1877
259.8995	0.1809
260.114	0.1834
260.3284	0.1756
260.5428	0.181
260.7572	0.1795
260.9716	0.189
261.186	0.1826
261.4003	0.1814
261.6147	0.1784
261.829	0.1844
262.0433	0.1854
262.2577	0.1815
262.472	0.1845
262.6863	0.1912
262.9005	0.1899
263.1148	0.1867
263.3291	0.1876
263.5433	0.184
263.7576	0.1921
263.9718	0.1858
264.186	0.1878
264.4002	0.1854
264.6144	0.1945
264.8286	0.1926
265.0427	0.1967
265.2569	0.1997
265.471	0.1985
265.6851	0.1943
265.8993	0.1984
266.1134	0.1953
266.3275	0.1919
266.5415	0.1955
266.7556	0.2005
266.9697	0.1979
267.1837	0.1975
267.3978	0.1946
267.6118	0.1982
267.8258	0.205
268.0398	0.2027
268.2538	0.201
268.4677	0.1956
268.6817	0.2011
268.8957	0.1887
269.1096	0.1885
269.3235	0.1924
269.5374	0.2028
269.7514	0.2024
269.9652	0.1949
270.1791	0.1904
270.393	0.1929
270.6068	0.201
270.8207	0.191
271.0345	0.1951
271.2483	0.1838
271.4622	0.1943
271.676	0.1945
271.8897	0.1937
272.1035	0.1922
272.3173	0.1949
272.531	0.1942
272.7448	0.1919
272.9585	0.1906
273.1722	0.1895
273.3859	0.2017
273.5996	0.2018
273.8133	0.1963
274.0269	0.1916
274.2406	0.199
274.4542	0.1997
274.6679	0.201
274.8815	0.202
275.0951	0.2111
275.3087	0.2057
275.5223	0.2048
275.7358	0.2038
275.9494	0.2009
276.1629	0.2097
276.3765	0.2108
276.59	0.2084
276.8035	0.2125
277.017	0.2144
277.2305	0.2169
277.444	0.2148
277.6574	0.2171
277.8709	0.2166
278.0843	0.216
278.2978	0.2103
278.5112	0.2103
278.7246	0.207
278.938	0.2134
279.1513	0.2156
279.3647	0.2116
279.5781	0.2124
279.7914	0.2069
280.0047	0.2111
280.2181	0.2087
280.4314	0.2105
280.6447	0.2087
280.8579	0.198
281.0712	0.2041
281.2845	0.2037
281.4977	0.2023
281.711	0.1941
281.9242	0.1987
282.1374	0.1942
282.3506	0.1963
282.5638	0.1926
282.7769	0.1885
282.9901	0.1986
283.2033	0.1965
283.4164	0.1918
283.6295	0.1964
283.8426	0.1868
284.0557	0.1943
284.2688	0.1944
284.4819	0.1907
284.695	0.1916
284.908	0.1846
285.1211	0.188
285.3341	0.1855
285.5471	0.1912
285.7601	0.1885
285.9731	0.1923
286.1861	0.1917
286.3991	0.1934
286.612	0.1915
286.825	0.1946
287.0379	0.1858
287.2508	0.1919
287.4637	0.1878
287.6766	0.1927
287.8895	0.1869
288.1024	0.195
288.3152	0.1891
288.5281	0.1832
288.7409	0.1938
288.9538	0.1884
289.1666	0.1872
289.3794	0.1879
289.5922	0.1819
289.8049	0.19
290.0177	0.1837
290.2304	0.189
290.4432	0.1902
290.6559	0.1918
290.8686	0.1882
291.0813	0.1917
291.294	0.1897
291.5067	0.1872
291.7194	0.1835
291.932	0.1854
292.1447	0.1908
292.3573	0.1865
292.5699	0.1844
292.7825	0.1848
292.9951	0.1868
293.2077	0.1844
293.4203	0.1869
293.6328	0.1814
293.8454	0.1897
294.0579	0.1828
294.2704	0.1904
294.4829	0.1859
294.6954	0.1877
294.9079	0.1829
295.1204	0.1804
295.3328	0.1922
295.5453	0.1867
295.7577	0.1842
295.9701	0.1817
296.1825	0.1918
296.3949	0.184
296.6073	0.1843
296.8197	0.1836
297.0321	0.1864
297.2444	0.1826
297.4567	0.1792
297.6691	0.1836
297.8814	0.189
298.0937	0.1875
298.306	0.1909
298.5182	0.1858
298.7305	0.1894
298.9428	0.1854
299.155	0.1777
299.3672	0.1822
299.5794	0.1919
299.7916	0.1821
300.0038	0.1855
300.216	0.1964
300.4282	0.1825
300.6403	0.1873
300.8525	0.1858
301.0646	0.1883
301.2767	0.1835
301.4888	0.1906
301.7009	0.1902
301.913	0.186
302.125	0.1875
302.3371	0.1896
302.5491	0.1842
302.7612	0.1912
302.9732	0.1909
303.1852	0.1932
303.3972	0.1896
303.6092	0.1867
303.8211	0.1856
304.0331	0.1862
304.245	0.1889
304.457	0.1889
304.6689	0.1857
304.8808	0.1801
305.0927	0.1852
305.3046	0.1839
305.5164	0.1851
305.7283	0.1812
305.9401	0.1794
306.152	0.1779
306.3638	0.1799
306.5756	0.1828
306.7874	0.1794
306.9992	0.173
307.2109	0.1767
307.4227	0.1703
307.6344	0.1751
307.8462	0.1716
308.0579	0.1706
308.2696	0.1718
308.4813	0.1736
308.693	0.1733
308.9046	0.1674
309.1163	0.1638
309.328	0.1649
309.5396	0.1604
309.7512	0.1572
309.9628	0.1562
310.1744	0.1581
310.386	0.1531
310.5976	0.1541
310.8091	0.1567
311.0207	0.1563
311.2322	0.1485
311.4437	0.1517
311.6552	0.1599
311.8667	0.1553
312.0782	0.1526
312.2897	0.1584
312.5012	0.1514
312.7126	0.1428
312.924	0.1568
313.1355	0.1529
313.3469	0.148
313.5583	0.1467
313.7696	0.1473
313.981	0.1476
314.1924	0.1433
314.4037	0.1485
314.6151	0.1426
314.8264	0.1505
315.0377	0.1443
315.249	0.1456
315.4603	0.1454
315.6716	0.1467
315.8828	0.1481
316.0941	0.1493
316.3053	0.1398
316.5165	0.1449
316.7277	0.1421
316.9389	0.1464
317.1501	0.1435
317.3613	0.1425
317.5724	0.1427
317.7836	0.1351
317.9947	0.1387
318.2058	0.144
318.417	0.1443
318.6281	0.1409
318.8391	0.146
319.0502	0.1436
319.2613	0.1473
319.4723	0.1429
319.6834	0.1392
319.8944	0.1447
320.1054	0.1451
320.3164	0.1438
320.5274	0.1364
320.7383	0.1428
320.9493	0.143
321.1602	0.14
321.3712	0.1436
321.5821	0.1382
321.793	0.1485
322.0039	0.1421
322.2148	0.1413
322.4257	0.1446
322.6365	0.1399
322.8474	0.1419
323.0582	0.1454
323.269	0.1425
323.4798	0.1453
323.6906	0.1411
323.9014	0.1382
324.1122	0.1392
324.3229	0.1486
324.5337	0.1461
324.7444	0.1461
324.9551	0.1431
325.1658	0.148
325.3765	0.1484
325.5872	0.15
325.7979	0.1417
326.0085	0.1434
326.2192	0.1469
326.4298	0.153
326.6404	0.1518
326.851	0.1461
327.0616	0.1523
327.2722	0.1483
327.4828	0.1548
327.6933	0.1597
327.9039	0.1477
328.1144	0.1559
328.3249	0.1528
328.5354	0.159
328.7459	0.1514
328.9564	0.1507
329.1669	0.1635
329.3773	0.1557
329.5878	0.1521
329.7982	0.1568
330.0086	0.1568
330.219	0.1486
330.4294	0.1637
330.6398	0.1672
330.8502	0.1622
331.0605	0.1583
331.2708	0.1641
331.4812	0.1593
331.6915	0.1641
331.9018	0.159
332.1121	0.163
332.3224	0.1612
332.5326	0.1556
332.7429	0.1609
332.9531	0.1621
333.1633	0.1581
333.3735	0.1626
333.5837	0.1583
333.7939	0.1588
334.0041	0.1626
334.2143	0.1526
334.4244	0.1681
334.6346	0.1616
334.8447	0.1591
335.0548	0.1632
335.2649	0.162
335.475	0.1584
335.685	0.1573
335.8951	0.158
336.1051	0.1618
336.3152	0.1559
336.5252	0.1551
336.7352	0.1583
336.9452	0.1568
337.1552	0.154
337.3652	0.1565
337.5751	0.1581
337.7851	0.1555
337.995	0.159
338.2049	0.1594
338.4148	0.1548
338.6247	0.1583
338.8346	0.1552
339.0445	0.1603
339.2543	0.1631
339.4642	0.1588
339.674	0.16
339.8838	0.1593
340.0936	0.164
340.3034	0.1531
340.5132	0.1582
340.7229	0.1624
340.9327	0.1727
341.1424	0.1585
341.3522	0.1572
341.5619	0.1639
341.7716	0.1644
341.9813	0.1655
342.1909	0.1653
342.4006	0.167
342.6102	0.164
342.8199	0.1643
343.0295	0.1678
343.2391	0.1759
343.4487	0.168
343.6583	0.1735
343.8679	0.1711
344.0774	0.1671
344.287	0.1698
344.4965	0.1737
344.706	0.1745
344.9155	0.1672
345.125	0.1739
345.3345	0.1806
345.544	0.1781
345.7534	0.1817
345.9629	0.1766
346.1723	0.1865
346.3817	0.1803
346.5911	0.189
346.8005	0.1863
347.0099	0.1821
347.2193	0.1905
347.4286	0.1949
347.638	0.1861
347.8473	0.1932
348.0566	0.1929
348.2659	0.1919
348.4752	0.1869
348.6845	0.188
348.8937	0.1916
349.103	0.1858
349.3122	0.1904
349.5214	0.1947
349.7306	0.2029
349.9398	0.1948
350.149	0.1892
350.3582	0.1947
350.5674	0.195
350.7765	0.1929
350.9856	0.1916
351.1948	0.1896
351.4039	0.1957
351.613	0.1911
351.822	0.2026
352.0311	0.194
352.2402	0.1961
352.4492	0.1906
352.6582	0.1904
352.8672	0.1944
353.0762	0.1884
353.2852	0.1872
353.4942	0.195
353.7032	0.1888
353.9121	0.1878
354.1211	0.1956
354.33	0.1963
354.5389	0.1907
354.7478	0.189
354.9567	0.1952
355.1655	0.1901
355.3744	0.1893
355.5833	0.1831
355.7921	0.1907
356.0009	0.1811
356.2097	0.1835
356.4185	0.188
356.6273	0.1893
356.8361	0.1872
357.0448	0.1953
357.2536	0.188
357.4623	0.1819
357.671	0.1965
357.8797	0.1934
358.0884	0.1851
358.2971	0.1854
358.5057	0.1966
358.7144	0.1948
358.923	0.1927
359.1316	0.1929
359.3402	0.1892
359.5488	0.1839
359.7574	0.1958
359.966	0.1953
360.1746	0.1907
360.3831	0.2004
360.5916	0.1985
360.8002	0.2037
361.0087	0.1999
361.2172	0.1965
361.4256	0.1996
361.6341	0.2026
361.8426	0.1996
362.051	0.2017
362.2594	0.1966
362.4678	0.2064
362.6762	0.2014
362.8846	0.2008
363.093	0.1986
363.3014	0.2095
363.5097	0.2025
363.718	0.2048
363.9264	0.2038
364.1347	0.2059
364.343	0.2107
364.5513	0.2101
364.7595	0.2147
364.9678	0.2107
365.176	0.2143
365.3842	0.2133
365.5925	0.2069
365.8007	0.2158
366.0089	0.2197
366.217	0.214
366.4252	0.2138
366.6333	0.2178
366.8415	0.2118
367.0496	0.2089
367.2577	0.2169
367.4658	0.2099
367.6739	0.2057
367.882	0.2172
368.09	0.212
368.2981	0.2188
368.5061	0.2184
368.7141	0.2199
368.9221	0.2238
369.1301	0.2289
369.3381	0.2254
369.5461	0.2267
369.754	0.2239
369.962	0.2219
370.1699	0.2255
370.3778	0.2302
370.5857	0.2234
370.7936	0.2246
371.0015	0.2282
371.2093	0.2202
371.4172	0.2231
371.625	0.2277
371.8328	0.2221
372.0406	0.2305
372.2484	0.2323
372.4562	0.2426
372.664	0.232
372.8717	0.229
373.0795	0.2324
373.2872	0.2273
373.4949	0.2463
373.7026	0.2277
373.9103	0.2276
374.118	0.2392
374.3256	0.237
374.5333	0.2333
374.7409	0.2336
374.9485	0.2465
375.1561	0.2409
375.3637	0.2408
375.5713	0.2426
375.7789	0.2402
375.9864	0.2404
376.194	0.2439
376.4015	0.2395
376.609	0.2332
376.8165	0.2401
377.024	0.2439
377.2315	0.245
377.4389	0.2388
377.6464	0.2458
377.8538	0.2566
378.0612	0.2397
378.2686	0.2469
378.476	0.252
378.6834	0.2404
378.8908	0.2464
379.0981	0.2462
379.3055	0.2522
379.5128	0.2455
379.7201	0.2504
379.9274	0.2459
380.1347	0.2477
380.342	0.2557
380.5492	0.2513
380.7565	0.2547
380.9637	0.2527
381.1709	0.2519
381.3781	0.259
381.5853	0.2549
381.7925	0.249
381.9997	0.2595
382.2068	0.257
382.4139	0.2607
382.6211	0.2547
382.8282	0.2583
383.0353	0.2522
383.2424	0.2547
383.4494	0.2584
383.6565	0.2516
383.8635	0.263
384.0706	0.2619
384.2776	0.2536
384.4846	0.2582
384.6916	0.2558
384.8986	0.2561
385.1055	0.2601
385.3125	0.2688
385.5194	0.268
385.7263	0.2578
385.9333	0.2611
386.1402	0.2564
386.347	0.2615
386.5539	0.2631
386.7608	0.2501
386.9676	0.2589
387.1744	0.2662
387.3813	0.2562
387.5881	0.2603
387.7948	0.2631
388.0016	0.2704
388.2084	0.2648
388.4151	0.2661
388.6219	0.2561
388.8286	0.2652
389.0353	0.2577
389.242	0.2696
389.4487	0.2483
389.6553	0.2429
389.862	0.244
390.0686	0.248
390.2753	0.2443
390.4819	0.2491
390.6885	0.2561
390.8951	0.2536
391.1016	0.2499
391.3082	0.2524
391.5147	0.2452
391.7213	0.2417
391.9278	0.2461
392.1343	0.2464
392.3408	0.2456
392.5473	0.2408
392.7537	0.2425
392.9602	0.2422
393.1666	0.2447
393.373	0.2361
393.5794	0.2415
393.7858	0.2356
393.9922	0.2376
394.1986	0.2367
394.4049	0.235
394.6113	0.2327
394.8176	0.2392
395.0239	0.2246
395.2302	0.2329
395.4365	0.234
395.6428	0.2256
395.8491	0.2314
396.0553	0.2296
396.2615	0.2217
396.4678	0.234
396.674	0.2251
396.8802	0.2203
397.0863	0.2262
397.2925	0.23
397.4987	0.2132
397.7048	0.2241
397.9109	0.22
398.117	0.2233
398.3231	0.2226
398.5292	0.2151
398.7353	0.2171
398.9413	0.2137
399.1474	0.2202
399.3534	0.2163
399.5594	0.2221
399.7654	0.2123
399.9714	0.2135
400.1774	0.2144
400.3833	0.217
400.5893	0.2151
400.7952	0.2171
401.0011	0.222
401.207	0.2185
401.4129	0.2186
401.6188	0.2086
401.8247	0.231
402.0305	0.2159
402.2364	0.214
402.4422	0.2226
402.648	0.2143
402.8538	0.2205
403.0596	0.2135
403.2654	0.2205
403.4711	0.2112
403.6768	0.2082
403.8826	0.222
404.0883	0.2134
404.294	0.2229
404.4997	0.2246
404.7054	0.2239
404.911	0.2072
405.1167	0.219
405.3223	0.2113
405.5279	0.2073
405.7335	0.2225
405.9391	0.2154
406.1447	0.2179
406.3502	0.2117
406.5558	0.2108
406.7613	0.2163
406.9668	0.2143
407.1724	0.2046
407.3778	0.2186
407.5833	0.2047
407.7888	0.2165
407.9942	0.2138
408.1997	0.2126
408.4051	0.22
408.6105	0.2145
408.8159	0.2223
409.0213	0.217
409.2267	0.2235
409.432	0.2041
409.6374	0.2174
409.8427	0.2143
410.048	0.2201
410.2533	0.2127
410.4586	0.2127
410.6639	0.2123
410.8691	0.2047
411.0744	0.211
411.2796	0.2101
411.4848	0.219
411.69	0.2115
411.8952	0.2147
412.1004	0.2171
412.3056	0.2149
412.5107	0.2104
412.7158	0.2199
412.921	0.2111
413.1261	0.2187
413.3312	0.2153
413.5362	0.22
413.7413	0.2139
413.9464	0.2133
414.1514	0.2137
414.3564	0.2123
414.5614	0.2058
414.7664	0.2007
414.9714	0.1994
415.1764	0.2129
415.3813	0.2062
415.5863	0.221
415.7912	0.2037
415.9961	0.2081
416.201	0.2203
416.4059	0.2099
416.6108	0.2008
416.8156	0.1976
417.0205	0.2058
417.2253	0.2073
417.4301	0.2175
417.6349	0.207
417.8397	0.2066
418.0445	0.2052
418.2492	0.2011
418.454	0.1962
418.6587	0.2047
418.8634	0.2071
419.0681	0.2087
419.2728	0.2036
419.4775	0.2154
419.6822	0.1969
419.8868	0.2027
420.0915	0.1956
420.2961	0.1924
420.5007	0.201
420.7053	0.1929
420.9099	0.2013
421.1144	0.1977
421.319	0.1937
421.5235	0.1924
421.728	0.2012
421.9325	0.1914
422.137	0.195
422.3415	0.1917
422.546	0.1961
422.7504	0.1957
422.9549	0.1995
423.1593	0.1918
423.3637	0.1925
423.5681	0.2001
423.7725	0.1854
423.9769	0.1928
424.1812	0.1841
424.3856	0.1877
424.5899	0.1838
424.7942	0.1889
424.9985	0.1867
425.2028	0.1928
425.4071	0.1858
425.6113	0.1879
425.8156	0.1825
426.0198	0.1837
426.224	0.179
426.4282	0.1743
426.6324	0.1785
426.8366	0.1787
427.0407	0.1786
427.2449	0.1744
427.449	0.1771
427.6531	0.1778
427.8572	0.1688
428.0613	0.1751
428.2654	0.1779
428.4694	0.1656
428.6735	0.1688
428.8775	0.1827
429.0815	0.1597
429.2855	0.1672
429.4895	0.1701
429.6935	0.1587
429.8975	0.1623
430.1014	0.1622
430.3053	0.1633
430.5093	0.1601
430.7132	0.1455
430.9171	0.1524
431.1209	0.1607
431.3248	0.1453
431.5286	0.1501
431.7325	0.1601
431.9363	0.1465
432.1401	0.1546
432.3439	0.1483
432.5477	0.1444
432.7514	0.1498
432.9552	0.1403
433.1589	0.1412
433.3627	0.1471
433.5664	0.1381
433.7701	0.1397
433.9737	0.1467
434.1774	0.1356
434.3811	0.135
434.5847	0.1335
434.7883	0.1306
434.9919	0.122
435.1955	0.1355
435.3991	0.1327
435.6027	0.1272
435.8062	0.1423
436.0098	0.1145
436.2133	0.1209
436.4168	0.1157
436.6203	0.1158
436.8238	0.116
437.0272	0.1063
437.2307	0.1143
437.4341	0.1179
437.6375	0.1231
437.841	0.0985
438.0443	0.1123
438.2477	0.102
438.4511	0.0952
438.6545	0.1063
438.8578	0.1048
439.0611	0.1024
439.2644	0.1119
439.4677	0.1013
439.671	0.0907
439.8743	0.1105
440.0775	0.0929
440.2808	0.0976
440.484	0.0902
440.6872	0.0952
440.8904	0.083
441.0936	0.0946
441.2967	0.0842
441.4999	0.0771
441.703	0.0808
441.9062	0.0844
442.1093	0.0966
442.3124	0.0807
442.5155	0.0872
442.7185	0.0759
442.9216	0.0788
443.1246	0.0719
443.3276	0.0828
443.5307	0.0651
443.7337	0.0756
443.9366	0.077
444.1396	0.0717
444.3426	0.0784
444.5455	0.0724
444.7484	0.074
444.9513	0.0655
445.1542	0.0722
445.3571	0.0643
445.56	0.058
445.7628	0.0615
445.9657	0.0635
446.1685	0.0683
446.3713	0.0606
446.5741	0.0654
446.7769	0.0665
446.9797	0.0616
447.1824	0.0643
447.3852	0.0438
447.5879	0.0564
447.7906	0.0534
447.9933	0.0529
448.196	0.0592
448.3986	0.049
448.6013	0.0394
448.8039	0.0441
449.0066	0.0494
449.2092	0.0593
449.4118	0.0531
449.6143	0.0431
449.8169	0.0437
450.0195	0.0414
450.222	0.0535
450.4245	0.0512
450.627	0.046
450.8295	0.0454
451.032	0.0355
451.2345	0.0353
451.4369	0.0376
451.6394	0.0417
451.8418	0.0417
452.0442	0.0435
452.2466	0.0371
452.449	0.0377
452.6513	0.0398
452.8537	0.0316
453.056	0.0397
453.2583	0.0349
453.4607	0.0296
453.663	0.0296
453.8652	0.0217
454.0675	0.0373
454.2697	0.0289
454.472	0.025
454.6742	0.0372
454.8764	0.0354
455.0786	0.0287
455.2808	0.0244
455.4829	0.0359
455.6851	0.0325
455.8872	0.0275
456.0893	0.027
456.2915	0.0322
456.4935	0.0383
456.6956	0.0277
456.8977	0.0295
457.0997	0.0309
457.3018	0.0225
457.5038	0.0236
457.7058	0.0348
457.9078	0.0254
458.1098	0.0285
458.3117	0.0287
458.5137	0.0074
458.7156	0.0269
458.9175	0.0253
459.1194	0.0318
459.3213	0.0223
459.5232	0.0323
459.725	0.0199
459.9269	0.0205
460.1287	0.016
460.3305	0.0223
460.5323	0.0271
460.7341	0.0203
460.9359	0.0135
461.1376	0.0233
461.3394	0.013
461.5411	0.0211
461.7428	0.0205
461.9445	0.0183
462.1462	0.0215
462.3479	0.021
462.5495	0.018
462.7512	0.0331
462.9528	0.0214
463.1544	0.0127
463.356	0.0078
463.5576	0.0208
463.7592	0.0218
463.9607	0.0234
464.1623	0.0189
464.3638	0.0106
464.5653	0.0145
464.7668	0.025
464.9683	0.02
465.1697	0.0132
465.3712	0.0124
465.5726	0.0137
465.7741	0.0169
465.9755	0.0133
466.1769	0.0083
466.3782	0.015
466.5796	0.015
466.7809	0.0174
466.9823	0.0092
467.1836	0.0092
467.3849	0.0111
467.5862	0.0061
467.7875	0.0186
467.9887	0.0169
468.19	0.0079
468.3912	0.025
468.5924	0.0088
468.7936	0.019
468.9948	0.0048
469.196	0.0102
469.3972	0.0103
469.5983	0.0077
469.7994	0.0159
470.0006	0.0141
470.2017	0.0103
470.4027	0.0247
470.6038	0.0201
470.8049	0.0111
471.0059	0.0152
471.2069	0.019
471.408	0.0213
471.6089	0.0161
471.8099	0.0136
472.0109	0.0098
472.2119	0.0205
472.4128	0.0125
472.6137	0.0158
472.8146	0.0146
473.0155	0.0182
473.2164	0.0063
473.4173	0.0091
473.6181	0.0044
473.819	0.0103
474.0198	0.0049
474.2206	0.0139
474.4214	0.0133
474.6222	0.0072
474.8229	0.0115
475.0237	0.0123
475.2244	0.0156
475.4251	0.0068
475.6258	0.0048
475.8265	0.0138
476.0272	0.007
476.2278	0.0157
476.4285	0.0124
476.6291	0.0233
476.8297	0.0129
477.0303	-0.0016
477.2309	0.0089
477.4315	0.0154
477.632	0.0112
477.8326	0.0075
478.0331	0.0128
478.2336	0.0112
478.4341	0.0178
478.6346	0.0043
478.8351	0.0082
479.0355	0.0245
479.236	0.0183
479.4364	0.0111
479.6368	0.0061
479.8372	0.0107
480.0376	0.0037
480.2379	0.0114
480.4383	0.0147
480.6386	0.0051
480.8389	0.0105
481.0392	0.0059
481.2395	0.0169
481.4398	0.0172
481.6401	0.015
481.8403	0.0086
482.0405	0.011
482.2408	0.0124
482.441	0.0105
482.6411	0.0085
482.8413	0.0062
483.0415	0.0177
483.2416	0.0074
483.4417	0.0178
483.6419	0.0012
483.8419	0.0149
484.042	0.0096
484.2421	0.0012
484.4422	0.0106
484.6422	0.0094
484.8422	0.0103
485.0422	0.0068
485.2422	0.0074
485.4422	0.0036
485.6422	0.0038
485.8421	0.0074
486.042	0.0152
486.242	0.0018
486.4419	0.0086
486.6417	0.0085
486.8416	0.0037
487.0415	0.0027
487.2413	0.0037
487.4411	0.0133
487.641	0.0067
487.8408	0.0123
488.0405	0.011
488.2403	0.0069
488.4401	0.0082
488.6398	0.0084
488.8395	-0.0007
489.0392	0.0164
489.2389	0.0121
489.4386	0.002
489.6383	0.0082
489.8379	0.008
490.0376	0.0149
490.2372	0.0072
490.4368	0.008
490.6364	-0.0036
490.836	0.0047
491.0355	0.0044
491.2351	0.007
491.4346	0.0071
491.6341	0.0094
491.8336	0.0077
492.0331	0.005
492.2326	0.0124
492.432	0.0047
492.6315	0.0115
492.8309	0.0102
493.0303	0.0132
493.2297	0.0112
493.4291	0.0075
493.6284	0.0164
493.8278	0.0065
494.0271	0.0079
494.2264	0.007
494.4257	0.0148
494.625	0.012
494.8243	0.0026
495.0236	0.0104
495.2228	0.0113
495.422	0.0088
495.6213	0.0108
495.8205	0.0113
496.0196	0.0081
496.2188	0.0131
496.418	0.006
496.6171	0.0094
496.8162	0.0162
497.0153	0.0192
497.2144	0.0075
497.4135	0.0033
497.6126	0.0066
497.8116	0.0043
498.0107	0.0121
498.2097	0.008
498.4087	0.0082
498.6077	-0.0054
498.8067	0.012
499.0056	0.0011
499.2046	0.0109
499.4035	0.0064
499.6024	-0.001
499.8013	0.0124
500.0002	0.0088
500.199	0.0135
500.3979	0.0041
500.5967	0.0186
500.7956	0.007
500.9944	0.0061
501.1932	0.0135
501.3919	0.0108
501.5907	0.0107
501.7895	0.01
501.9882	0.0074
502.1869	0.0076
502.3856	0.0085
502.5843	0.0084
502.783	0.0125
502.9816	0.0146
503.1803	0.0048
503.3789	0.02
503.5775	0.0093
503.7761	0.0096
503.9747	0.0162
504.1732	0.0054
504.3718	0.0173
504.5703	0.0171
504.7689	0.0014
504.9674	0.0109
505.1658	0.0088
505.3643	0.0194
505.5628	0.0098
505.7612	0.0133
505.9597	0.0066
506.1581	0.0086
506.3565	0.0073
506.5549	0.0054
506.7532	0.0037
506.9516	0.0106
507.1499	0.009
507.3482	0.0176
507.5465	0.0111
507.7448	0.0143
507.9431	0.0105
508.1414	0.0023
508.3396	0.0096
508.5379	0.007
508.7361	0.0087
508.9343	0.0119
509.1325	0.017
509.3306	0.0048
509.5288	0.0034
509.7269	0.0183
509.9251	0.0147
510.1232	0.0026
510.3213	0.0185
510.5193	0.0066
510.7174	0.0126
510.9154	0.0115
511.1135	0.0163
511.3115	0.0075
511.5095	0.0099
511.7075	0.0111
511.9055	0.0004
512.1034	0.0099
512.3014	0.0017
512.4993	0.0169
512.6972	0.0068
512.8951	0.0123
513.093	0.0096
513.2908	0.0166
513.4887	0.0039
513.6865	0.0174
513.8844	0.0112
514.0822	0.0079
514.2799	0.0043
514.4777	-0.0052
514.6755	0.0053
514.8732	0.0058
515.0709	0.0149
515.2687	0.0014
515.4664	0.0155
515.664	0.0136
515.8617	0.0244
516.0594	0.0036
516.257	0.0175
516.4546	0.0263
516.6522	0.0089
516.8498	0.0152
517.0474	0.0103
517.2449	0.0097
517.4425	0.0101
517.64	0.0142
517.8375	0.0033
518.035	0.0075
518.2325	0.0108
518.43	0.0017
518.6274	0.0147
518.8249	-0.0044
519.0223	0.0136
519.2197	0.0123
519.4171	-0.0001
519.6145	0.0123
519.8118	-0.0053
520.0092	0.0071
520.2065	0.0113
520.4038	0.0025
520.6011	0.0123
520.7984	0.0129
520.9956	0.0121
521.1929	0.01
521.3901	0.0173
521.5874	0.0226
521.7846	-0.0012
521.9818	0.0148
522.1789	0.003
522.3761	0.0195
522.5732	0.0119
522.7704	0.0014
522.9675	0.004
523.1646	0.0054
523.3617	0.0145
523.5587	0.0155
523.7558	0.0135
523.9528	0.0114
524.1498	0.0014
524.3468	0.0082
524.5438	0.0013
524.7408	-0.0004
524.9378	0.0086
525.1347	0.0081
525.3316	0.0106
525.5285	0.0085
525.7254	0.0031
525.9223	0.009
526.1192	0.0091
526.316	0.0247
526.5129	0.0113
526.7097	0.0046
526.9065	0.0185
527.1033	0.0126
527.3	0.003
527.4968	0.0165
527.6935	-0.004
527.8903	0.0046
528.087	0.0189
528.2837	0.0174
528.4804	0.0099
528.677	0.0065
528.8737	0.006
529.0703	0.0061
529.2669	0.0116
529.4635	0.0123
529.6601	-0.0018
529.8567	-0.0041
530.0532	0.007
530.2498	0.0025
530.4463	0.0032
530.6428	0.0067
530.8393	0.0138
531.0358	0.0045
531.2322	0.0065
531.4287	0.0051
531.6251	0.0053
531.8215	0.019
532.0179	0.012
532.2143	0.007
532.4107	0.0071
532.607	0.0115
532.8034	0.003
532.9997	0.0032
533.196	0.0007
533.3923	0.0116
533.5886	0.0177
533.7848	0.0079
533.9811	0.0114
534.1773	0.0057
534.3735	0.0056
534.5697	0.0066
534.7659	0.0101
534.9621	0.0121
535.1582	0.0106
535.3544	0.0149
535.5505	0.0093
535.7466	0.009
535.9427	0.0083
536.1387	0.0067
536.3348	0.0106
536.5308	0.0171
536.7269	0.0127
536.9229	0.0041
537.1189	0.0172
537.3148	0.01
537.5108	0.0107
537.7068	0.0178
537.9027	-0.0019
538.0986	0.0077
538.2945	0.0015
538.4904	0.002
538.6863	0.0084
538.8821	0.0128
539.078	0.0084
539.2738	0.0075
539.4696	0.0024
539.6654	0.0046
539.8611	0.0027
540.0569	0.005
540.2526	0.0177
540.4484	-0.0057
540.6441	0.0089
540.8398	0.0127
541.0355	0.0042
541.2311	0.0113
541.4268	0.0168
541.6224	0.0235
541.818	0.0141
542.0136	0.0106
542.2092	0.0195
542.4048	0.0154
542.6003	0.0062
542.7959	-0.0008
542.9914	0.0085
543.1869	0.0119
543.3824	0.0038
543.5779	0.0127
543.7734	0.0154
543.9688	0.0141
544.1642	0.0004
544.3596	0.0163
544.555	0.0146
544.7504	0.011
544.9458	0.0205
545.1411	0.0086
545.3365	0.0083
545.5318	0.0142
545.7271	0.0155
545.9224	0.0129
546.1177	0.0142
546.3129	0.0084
546.5081	0.0017
546.7034	0.0164
546.8986	0.0062
547.0938	0.012
547.289	0.0107
547.4841	0.0131
547.6793	0.0152
547.8744	0.0154
548.0695	0.003
548.2646	0.0125
548.4597	0.0079
548.6548	0.0194
548.8498	0.0098
549.0448	0.0042
549.2399	0.0216
549.4349	0.0082
549.6298	0.0064
549.8248	-0.0005
550.0198	0.0135
550.2147	0.0121
550.4096	-0.007
550.6045	0.0087
550.7994	0.0101
550.9943	0.0104
551.1892	-0.0095
551.384	0.0111
551.5788	0.0109
551.7737	0.0136
551.9685	0.0145
552.1632	0.0077
552.358	0.0072
552.5528	0.0119
552.7475	0.0118
552.9422	0.0089
553.1369	0.0141
553.3316	0.0077
553.5263	0.0168
553.7209	0.0104
553.9156	0.0065
554.1102	0.0103
554.3048	0.0056
554.4994	0.0109
554.694	0.0159
554.8885	0.0079
555.0831	0.0102
555.2776	0.0074
555.4721	0.0171
555.6666	0.0093
555.8611	0.0141
556.0555	0.0112
556.25	0.0113
556.4444	0.0091
556.6388	0.0081
556.8332	0.0089
557.0276	0.0143
557.222	0.0093
557.4163	0.0155
557.6107	0.0028
557.805	0.0023
557.9993	0.0131
558.1936	0.0054
558.3879	0.0101
558.5821	0.0043
558.7764	-0.0027
558.9706	0.0043
559.1648	0.0166
559.359	-0.0034
559.5532	0.0112
559.7473	0.0093
559.9415	0.0067
560.1356	0.0133
560.3297	0.0046
560.5238	0.014
560.7179	-0.0049
560.9119	0.0057
561.106	0.0057
561.3	0.0101
561.494	-0.0062
561.688	0.0071
561.882	-0.0001
562.076	0.0156
562.2699	0.0099
562.4639	0.0209
562.6578	0.0122
562.8517	0.0067
563.0456	0.0138
563.2395	0.0143
563.4333	0.0119
563.6272	0.0108
563.821	0.0115
564.0148	0.0133
564.2086	0.0104
564.4024	0.0197
564.5961	0.0086
564.7899	0.024
564.9836	0.0147
565.1773	0.0128
565.371	0.011
565.5647	0.0115
565.7584	0.0208
565.952	0.0091
566.1456	0.0034
566.3393	0.0106
566.5329	0.002
566.7264	0.0185
566.92	0.0043
567.1136	0.0059
567.3071	0.0034
567.5006	0.0085
567.6941	0.0127
567.8876	0.0065
568.0811	0.0213
568.2745	0.0029
568.468	0.0167
568.6614	0.0115
568.8548	0.011
569.0482	0.0138
569.2416	0.0063
569.4349	0.0066
569.6283	0.0078
569.8216	0.0104
570.0149	0.0037
570.2082	0.013
570.4015	0.0075
570.5947	0.0067
570.788	0.0104
570.9812	0.0026
571.1744	0.0041
571.3676	0.0037
571.5608	0.0085
571.754	0.0138
571.9471	0.0175
572.1402	0.0101
572.3333	0.0065
572.5264	0.0126
572.7195	0.011
572.9126	0.0046
573.1057	0.0109
573.2987	0.0078
573.4917	0.0082
573.6847	0.0088
573.8777	0.01
574.0707	0.0122
574.2636	0.0057
574.4566	0.0021
574.6495	0.0029
574.8424	0.0116
575.0353	0.0097
575.2281	0.0135
575.421	0.0066
575.6138	0.0067
575.8067	0.0104
575.9995	0.0088
576.1923	0.01
576.385	0.0058
576.5778	0.0158
576.7706	0.009
576.9633	0.0096
577.156	-0.0003
577.3487	0.0024
577.5414	0.0022
577.734	0.0066
577.9267	0.0114
578.1193	0.0098
578.3119	0.0047
578.5045	0.0055
578.6971	0.0065
578.8897	0.0082
579.0822	0.012
579.2747	0.0044
579.4673	0.0102
579.6598	0.0122
579.8522	0.0065
580.0447	0.011
580.2372	0.0149
580.4296	0.0154
580.622	0.0073
580.8144	0.0078
581.0068	0.0053
581.1992	0.0085
581.3915	0.0012
581.5839	0.0093
581.7762	0.0067
581.9685	0.0064
582.1608	0.0087
582.353	0.0097
582.5453	0.0104
582.7375	0.0136
582.9298	0.0018
583.122	0.005
583.3142	0.0101
583.5063	0.0109
583.6985	0.005
583.8906	0.0054
584.0827	0.0072
584.2749	0.008
584.4669	0.0051
584.659	0.0121
584.8511	0.0105
585.0431	0.0121
585.2352	0.0081
585.4272	0.0071
585.6192	0.0092
585.8111	0.0088
586.0031	0.0073
586.195	0.0082
586.387	0.0058
586.5789	0.0095
586.7708	0.0107
586.9627	0.0087
587.1545	0.0103
587.3464	0.0094
587.5382	0.006
587.73	0.0154
587.9218	0.0011
588.1136	0.0081
588.3053	0.009
588.4971	0.0089
588.6888	0.0084
588.8805	0.008
589.0722	0.0175
589.2639	0.0101
589.4556	0.0104
589.6472	0.0142
589.8389	0.0065
590.0305	0.008
590.2221	0.0103
590.4137	0.0078
590.6052	0.0085
590.7968	0.0116
590.9883	0.0133
591.1798	0.0089
591.3713	0.0069
591.5628	0.0088
591.7543	0.0105
591.9458	0.0046
592.1372	0.0146
592.3286	0.007
592.52	0.0045
592.7114	0.0089
592.9028	0.015
593.0941	0.0013
593.2855	0.0056
593.4768	0.0138
593.6681	0.013
593.8594	0.0123
594.0506	0.0094
594.2419	0.0081
594.4331	0.0083
594.6244	0.0005
594.8156	0.0025
595.0067	0.0014
595.1979	0.0051
595.3891	0.0121
595.5802	0.0096
595.7713	0.0084
595.9624	0.0106
596.1535	0.0072
596.3446	0.0067
596.5357	0.0058
596.7267	0.0073
596.9177	0.0076
597.1087	0.0057
597.2997	0.015
597.4907	-0.0024
597.6817	0.0138
597.8726	0.0128
598.0635	0.0066
598.2544	0.0087
598.4453	0.0089
598.6362	0.0091
598.827	0.0061
599.0179	0.0113
599.2087	0.0135
599.3995	0.0118
599.5903	0.0085
599.7811	0.0151
599.9718	0.0069
600.1626	0.0065
600.3533	0.0083
600.544	0.0108
600.7347	0.0158
600.9254	0.0155
601.116	0.0094
601.3067	0.0127
601.4973	0.0118
601.6879	0.0091
601.8785	0.0112
602.0691	0.0066
602.2596	0.0092
602.4502	0.0099
602.6407	0.0051
602.8312	0.0112
603.0217	0.0087
603.2122	0.0095
603.4027	0.005
603.5931	0.0032
603.7835	0.0075
603.9739	0.0031
604.1643	0.0126
604.3547	0.0121
604.5451	0.0169
604.7354	0.0005
604.9257	0.0036
605.116	0.0019
605.3063	0.0066
605.4966	0.0017
605.6869	0.0098
605.8771	0.0165
606.0673	0.0112
606.2575	0.0043
606.4477	0.0138
606.6379	0.006
606.8281	0.0059
607.0182	0.0105
607.2083	0.0067
607.3985	0.0037
607.5885	0.0084
607.7786	0.0077
607.9687	0.0122
608.1587	0.0105
608.3488	0.0092
608.5388	0.0052
608.7288	0.003
608.9187	0.0069
609.1087	0.0088
609.2986	0.0128
609.4886	0.0008
609.6785	0.0073
609.8684	0.0022
610.0582	0.0068
610.2481	0.0041
610.4379	0.0176
610.6278	0.0138
610.8176	0.0152
611.0074	0.0084
611.1971	0.0142
611.3869	0.0097
611.5766	0.0055
611.7664	0.0113
611.9561	0.0104
612.1458	0.0087
612.3354	0.0122
612.5251	0.0117
612.7147	0.0145
612.9044	0.0041
613.094	0.0086
613.2836	0.0047
613.4731	0.0036
613.6627	0.0093
613.8522	0.0146
614.0417	0.0144
614.2313	0.0082
614.4207	0.0086
614.6102	0.0118
614.7997	0.0122
614.9891	0.0114
615.1785	-0.0001
615.3679	0.0075
615.5573	0.0089
615.7467	0.0013
615.9361	0.009
616.1254	0.0189
616.3147	0.0112
616.504	0.0106
616.6933	0.0007
616.8826	0.014
617.0718	0.0138
617.2611	0.0012
617.4503	0.0116
617.6395	0.0072
617.8287	0.013
618.0179	0.0016
618.207	0.0156
618.3961	0.0127
618.5853	0.0069
618.7744	0.0035
618.9634	0.0146
619.1525	0.0036
619.3416	0.0057
619.5306	0.0149
619.7196	0.0127
619.9086	-0.0027
620.0976	-0.0016
620.2866	0.0089
620.4755	0.0112
620.6645	0.015
620.8534	0.0148
621.0423	0.0069
621.2312	0.0031
621.42	0.0097
621.6089	0.0143
621.7977	0.0078
621.9865	0.0015
622.1753	0.0049
622.3641	0.0063
622.5529	0.004
622.7416	0.0017
622.9303	0.0034
623.1191	0.0133
623.3078	0.0034
623.4964	0.0147
623.6851	0.008
623.8737	0.0031
624.0624	-0.0066
624.251	0.0077
624.4396	0.0052
624.6282	0.015
624.8167	0.0092
625.0053	0.0119
625.1938	0.0173
625.3823	0.0104
625.5708	0.0056
625.7593	0.0128
625.9477	0.0152
626.1362	0.0035
626.3246	0.0005
626.513	0.0093
626.7014	0.0122
626.8898	0.0199
627.0781	0.0059
627.2665	0.0025
627.4548	0.0067
627.6431	0.0191
627.8314	0.0162
628.0197	0.0099
628.2079	0.008
628.3962	0.0088
628.5844	0.0105
628.7726	0.0017
628.9608	0.013
629.1489	0.0105
629.3371	0.0006
629.5252	0.0036
629.7134	-0.0028
629.9015	0.0064
630.0895	-0.0057
630.2776	0.0121
630.4657	0.0127
630.6537	0.0122
630.8417	-0.0028
631.0297	0.011
631.2177	0.0089
631.4057	0.0081
631.5936	-0.0045
631.7815	0.009
631.9695	0.0231
632.1574	0.0043
632.3452	0.005
632.5331	0.0096
632.7209	0.0173
632.9088	-0.0018
633.0966	0.0367
633.2844	0.0237
633.4722	0.0145
633.6599	0.0262
633.8477	0.0117
634.0354	0.0161
634.2231	-0.0053
634.4108	0.0097
634.5985	0.0097
634.7861	0.005
634.9738	0.0132
635.1614	0.0122
635.349	0.0144
635.5366	0.0096
635.7242	0.0071
635.9117	0.0195
636.0993	0.0135
636.2868	0.0075
636.4743	0.0082
636.6618	-0.0059
636.8492	0.0106
637.0367	-0.0167
637.2241	0.0019
637.4115	0.0469
637.5989	0.0034
637.7863	0.0376
637.9737	0.002
638.161	0.0006
638.3484	-0.0053
638.5357	0.0031
638.723	0.0219
638.9103	0.0021
639.0975	0.0083
639.2848	0.0189
639.472	0.0292
639.6592	-0.0148
639.8464	0.0237
640.0336	0.0051
640.2208	-0.0085
640.4079	-0.0091
640.595	-0.0043
640.7821	0.0235
640.9692	-0.0109
641.1563	0.0097
641.3434	0.0151
641.5304	0.0144
641.7174	-0.0165
641.9044	0.0176
642.0914	0.0196
642.2784	0.0055
642.4653	0.0227
642.6523	0.0135
642.8392	0.009
643.0261	0.0196
643.213	0.0127
643.3999	0.0196
643.5867	0.0146
643.7735	-0.0077
643.9604	0.0306
644.1472	0.0236
644.3339	-0.0023
644.5207	0.0087
644.7075	0.014
644.8942	-0.0012
645.0809	0.0081
645.2676	-0.0132
645.4543	0.0132
645.6409	0.0174
645.8276	0.0316
646.0142	0.0156
646.2008	0.006
646.3874	-0.0074
646.574	0.0166
646.7605	0.0094
646.9471	0.0036
647.1336	0.0054
647.3201	0.0124
647.5066	0.0329
647.6931	0.0037
647.8795	0.0134
648.0659	0.0136
648.2524	0.0103
648.4388	0.0079
648.6252	0.0081
648.8115	0.0207
648.9979	0.0015
649.1842	0.0103
649.3705	0.0076
649.5568	-0.0082
649.7431	0.0054
649.9294	-0.0097
650.1156	-0.0075
650.3018	0.0165
650.488	0.0082
650.6742	0.0144
650.8604	0.0092
651.0466	0.0054
651.2327	-0
651.4188	0.0002
651.6049	0.0262
651.791	0.0022
651.9771	0.0166
652.1632	0.0207
652.3492	-0.0064
652.5352	0.0216
652.7212	0.0117
652.9072	0.0065
653.0932	-0.0014
653.2791	0.0098
653.465	0.0223
653.651	0.0075
653.8369	0.0062
654.0227	-0.0026
654.2086	0.0036
654.3944	0.0186
654.5803	0.0076
654.7661	0.0008
654.9519	0.0025
655.1377	-0
655.3234	-0
655.5092	-0
655.6949	-0
655.8806	-0
656.0663	-0
656.2519	-0
656.4376	-0
656.6232	-0
656.8088	-0
656.9945	-0
657.18	-0
657.3656	-0
657.5511	-0
657.7367	-0
657.9222	-0
658.1077	-0
658.2932	-0
658.4786	-0
658.6641	-0
658.8495	-0
659.0349	-0
659.2203	-0
659.4057	0.0101
659.591	0.3271
659.7764	0.0317
659.9617	0.0224
660.147	0.0221
660.3323	0.02
660.5176	0.0072
660.7028	-0.0032
660.888	0.0134
661.0733	0.0237
661.2585	0.0039
661.4436	0.0133
661.6288	0.0376
661.8139	0.0083
661.9991	-0.0099
662.1842	-0.0145
662.3693	0.031
662.5544	0.0213
662.7394	0.0117
662.9245	0.0086
663.1095	-0.0112
663.2945	0.0175
663.4795	0.0033
663.6644	0.0085
663.8494	0.014
664.0343	0.0113
664.2193	0.0074
664.4042	0.0093
664.589	0.0336
664.7739	0.02
664.9587	-0.016
665.1436	0.0034
665.3284	0.0005
665.5132	-0.0273
665.698	0.0149
665.8827	0.018
666.0675	-0.0109
666.2522	0.0338
666.4369	-0.0033
666.6216	0.0003
666.8063	-0.0081
666.9909	-0.0185
667.1756	0.0107
667.3602	-0.0101
667.5448	0.0062
667.7294	0.0222
667.9139	-0.0203
668.0985	0.0294
668.283	0.0027
668.4675	0.0339
668.652	0.0334
668.8365	0.0053
669.0209	0.0327
669.2054	0.0162
669.3898	0.0227
669.5742	0.0187
669.7586	0.0121
669.943	0.0083
670.1273	0.0073
670.3117	0.0286
670.496	0.016
670.6803	0.0089
670.8646	-0.0036
671.0488	0.0158
671.2331	0.0117
671.4173	0.0326
671.6015	0.0159
671.7857	0.0169
671.9699	0.0202
672.1541	-0.0015
672.3382	0.0063
672.5223	0.0021
672.7064	0.0062
672.8905	0.006
673.0746	0.022
673.2587	0.0057
673.4427	0.0048
673.6267	0.0109
673.8107	0.0106
673.9947	0.0232
674.1787	0.0189
674.3626	0.0235
674.5465	0.0301
674.7304	0.0102
674.9143	0.0123
675.0982	-0.0089
675.2821	0.0179
675.4659	-0.0122
675.6497	0.0026
675.8335	0.0033
676.0173	0.0062
676.2011	0.0182
676.3849	0.018
676.5686	0.0105
676.7523	-0.019
676.936	0.0012
677.1197	-0.0135
677.3034	0.0344
677.487	0.0205
677.6706	0.0128
677.8542	0.0063
678.0378	0.0064
678.2214	-0.0007
678.405	0.003
678.5885	0.0101
678.772	0.023
678.9555	0.0112
679.139	-0.0006
679.3225	0.0095
679.5059	-0.0004
679.6894	0.0054
679.8728	-0.0101
680.0562	0.0138
680.2395	-0.0164
680.4229	-0.0086
680.6062	-0.0101
680.7896	-0.0046
680.9729	0.0184
681.1562	-0.0069
681.3394	0.0126
681.5227	0.0071
681.7059	0.0128
681.8891	0.0179
682.0723	0.0135
682.2555	0.01
682.4387	0.0055
682.6218	0.024
682.805	0.0367
682.9881	0.0265
683.1712	0.0351
683.3542	0.0123
683.5373	0.0058
683.7203	0.0206
683.9034	0.0044
684.0864	0.0138
684.2694	0.0183
684.4523	0.0153
684.6353	-0.0059
684.8182	0.0135
685.0011	0.0107
685.184	0.007
685.3669	0.0114
685.5498	0.0105
685.7326	0.0005
685.9154	0.0172
686.0982	0.0098
686.281	0.0077
686.4638	0.0048
686.6465	0.0123
686.8293	0.0023
687.012	0.0109
687.1947	0.0176
687.3774	0.0058
687.56	-0.0169
687.7427	0.0125
687.9253	-0.02
688.1079	-0.0096
688.2905	0.0073
688.4731	0.0268
688.6556	-0.005
688.8382	-0.0094
689.0207	0.0179
689.2032	0.0343
689.3857	-0
689.5681	0.0114
689.7506	0.0245
689.933	0.0071
690.1154	0.0176
690.2978	0.0152
690.4802	0.0215
690.6626	0.01
690.8449	0.0262
691.0272	0.0097
691.2095	-0.0119
691.3918	0.0321
691.5741	0.0197
691.7563	0.0256
691.9386	0.0384
692.1208	0.0044
692.303	-0.0003
692.4852	-0.0087
692.6673	0.0035
692.8495	-0.0109
693.0316	0.0099
693.2137	0.0256
693.3958	0.0122
693.5778	0.0104
693.7599	0.0003
693.9419	0.0003
694.1239	0.0167
694.3059	0.0302
694.4879	0.0221
694.6699	0.0065
694.8518	0.0186
695.0337	0.0126
695.2157	0.0413
695.3975	-0.0224
695.5794	-0.0103
695.7613	-0.0133
695.9431	-0.002
696.1249	0.0075
696.3067	0.0231
696.4885	0.008
696.6703	-0.0054
696.852	0.0096
697.0337	0.0241
697.2154	0.0093
697.3971	0.0122
697.5788	0.0109
697.7605	-0.0107
697.9421	0.0196
698.1237	0.0179
698.3053	0.0042
698.4869	0.0021
698.6685	0.0033
698.85	0.0166
699.0315	-0.0084
699.213	0.0264
699.3945	-0.0054
699.576	0.0244
699.7575	0.0312
699.9389	-0.0217
700.1203	-0.0095
700.3017	0.0159
700.4831	0.0243
700.6645	0.0372
700.8458	0.008
701.0271	0.0333
701.2084	0.0199
701.3897	0.0316
701.571	-0.0134
701.7523	0.0154
701.9335	0.0235
702.1147	0.0257
702.2959	-0.0009
702.4771	0.0176
702.6583	0.0019
702.8394	-0.0182
703.0205	0.0205
703.2016	-0.0089
703.3827	-0.0229
703.5638	0.0072
703.7449	0.0166
703.9259	0.0341
704.1069	-0.0247
704.2879	0.0115
704.4689	-0.0156
704.6499	0.0124
704.8308	0.0093
705.0117	0.0214
705.1927	0.0034
705.3735	0.0087
705.5544	0.0127
705.7353	0.0025
705.9161	-0.0176
706.0969	0.0084
706.2777	0.0191
706.4585	-0.0029
706.6393	0.022
706.82	0.0187
707.0007	0.0011
707.1815	0.0095
707.3621	0.0111
707.5428	0.0255
707.7235	0.0045
707.9041	0.0067
708.0847	0.0204
708.2653	0.021
708.4459	0.0009
708.6265	-0.0142
708.807	0.0059
708.9875	-0.0069
709.168	0.0049
709.3485	0.0393
709.529	0.0125
709.7095	-0.0052
709.8899	0.0248
710.0703	0.0252
710.2507	0.0167
710.4311	-0.0066
710.6115	0.034
710.7918	0.0102
710.9721	0.0109
711.1524	-0.0081
711.3327	-0
711.513	-0.0099
711.6932	0.0081
711.8735	0.0356
712.0537	-0.0053
712.2339	0.0139
712.4141	0.0419
712.5942	0.0118
712.7744	0.0199
712.9545	0.0156
713.1346	0.0102
713.3147	0.0105
713.4947	-0.0215
713.6748	0.0024
713.8548	0.0469
714.0348	0.0091
714.2148	0.0324
714.3948	0.0205
714.5748	0.0079
714.7547	0.0121
714.9346	0.027
715.1145	-0.0053
715.2944	-0.0242
715.4743	0.0387
715.6541	-0.0197
715.834	0.0043
716.0138	-0.0085
716.1936	0.0134
716.3733	-0.0035
716.5531	-0.0174
716.7328	0.0283
716.9126	0.0127
717.0923	0.0048
717.2719	-0.0045
717.4516	0.0161
717.6312	-0.0299
717.8109	0.0208
717.9905	0.012
718.1701	0.0229
718.3496	-0.0055
718.5292	0.0087
718.7087	0.0052
718.8882	0.0232
719.0677	0.0092
719.2472	0.0098
719.4267	-0.0041
719.6061	0.0117
719.7856	0.0265
719.965	0.0136
720.1443	-0.0016
720.3237	0.0067
720.5031	-0.0109
720.6824	0.0194
720.8617	0.0254
721.041	0.0443
721.2203	-0.0132
721.3995	0.0128
721.5788	0.0115
721.758	0.0079
721.9372	-0.0056
722.1164	0.0004
722.2956	0.0211
722.4747	0.0128
722.6538	0.0175
722.8329	0.0144
723.012	0.0025
723.1911	-0.0113
723.3702	0.0178
723.5492	-0.006
723.7282	-0.0085
723.9072	0.0213
724.0862	0.014
724.2652	0.0008
724.4441	-0.0037
724.623	-0.0023
724.8019	0.009
724.9808	0.0142
725.1597	0.0106
725.3385	0.0197
725.5174	0.0176
725.6962	0.011
725.875	0.0172
726.0538	0.0191
726.2325	0.0259
726.4112	-0.0251
726.59	0.0031
726.7687	-0.0186
726.9474	0.0143
727.126	0.0241
727.3047	-0.002
727.4833	0.0045
727.6619	-0.0018
727.8405	-0.0072
728.0191	0.0101
728.1976	0.018
728.3762	0.0029
728.5547	0.0011
728.7332	0.0332
728.9116	0.0294
729.0901	0.0047
729.2686	0.014
729.447	-0.0137
729.6254	0.0098
729.8038	0.014
729.9821	0.0242
730.1605	0.0128
730.3388	0.0068
730.5171	0.0269
730.6954	-0.0142
730.8737	0.0265
731.0519	-0.0066
731.2302	0.0054
731.4084	0.0086
731.5866	0.0192
731.7648	0.0066
731.9429	0.0253
732.1211	0.0003
732.2992	0.0061
732.4773	0.0034
732.6554	0.0077
732.8335	0.0294
733.0115	0.009
733.1896	0.0144
733.3676	0.0047
733.5456	0.0032
733.7235	-0.0062
733.9015	0.0188
734.0794	0.0128
734.2574	-0.0025
734.4353	0.0227
734.6131	-0.0083
734.791	0.0096
734.9689	-0
735.1467	-0.0047
735.3245	0.0331
735.5023	0.0146
735.68	-0.0008
735.8578	0.0081
736.0355	0.0185
736.2132	-0.0019
736.3909	0.017
736.5686	-0.0118
736.7463	-0.0086
736.9239	0.0163
737.1015	0.0174
737.2791	0.0115
737.4567	0.0374
737.6343	-0.0103
737.8118	0.0355
737.9894	0.0024
738.1669	-0.0007
738.3444	0.0241
738.5218	-0.0191
738.6993	0.022
738.8767	-0.0052
739.0541	0.0012
739.2315	-0.0107
739.4089	0.0443
739.5863	-0.0063
739.7636	0.0087
739.9409	0.0136
740.1182	0.0124
740.2955	0.0082
740.4728	-0.0018
740.65	0.0046
740.8272	0.0005
741.0044	-0.0177
741.1816	0.0132
741.3588	-0.0263
741.5359	0.0168
741.7131	-0.0049
741.8902	0.0045
742.0673	-0.0198
742.2444	0.0442
742.4214	0.0217
742.5985	0.0008
742.7755	0.0244
742.9525	-0.0133
743.1295	-0.0173
743.3064	0.0118
743.4834	0.0218
743.6603	0.0436
743.8372	-0.034
744.0141	0.0221
744.191	0.0066
744.3678	-0.0379
744.5446	0.0118
744.7215	-0.0036
744.8982	0.0255
745.075	0.0468
745.2518	-0.0005
745.4285	0.0269
745.6052	-0.0164
745.7819	0.0061
745.9586	0.0241
746.1353	0.003
746.3119	0.0236
746.4885	0.0429
746.6651	-0.0077
746.8417	0.0033
747.0183	0.0548
747.1948	-0.0039
747.3714	0.0187
747.5479	0.0265
747.7244	-0.0178
747.9008	-0.017
748.0773	0.0481
748.2537	0.0278
748.4301	0.029
748.6065	-0.0272
748.7829	-0.0271
748.9593	0.0191
749.1356	0.0079
749.3119	0.0178
749.4882	0.0307
749.6645	0.011
749.8408	0.018
750.017	0.0073
750.1933	-0.0179
750.3695	-0.0107
750.5457	-0.0027
750.7218	0.0087
750.898	-0
751.0741	-0.0085
751.2502	0.0153
751.4263	0.0108
751.6024	0.0175
751.7784	0.0028
751.9545	0.0048
752.1305	0.0026
752.3065	-0.0035
752.4825	0.0246
752.6584	0.0151
752.8344	0.0146
753.0103	-0.0242
753.1862	0.0076
753.3621	0.0013
753.5379	0.0003
753.7138	0.0047
753.8896	-0.0066
754.0654	0.0007
754.2412	0.014
754.417	0.0136
754.5927	0.0024
754.7685	0.0224
754.9442	0.0285
755.1199	0.0094
755.2956	0.0029
755.4712	0.0139
755.6469	0.0137
755.8225	0.0059
755.9981	0.0204
756.1736	0.0112
756.3492	0.0007
756.5248	0.0278
756.7003	-0.0096
756.8758	-0.0049
757.0513	0.021
757.2267	0.022
757.4022	-0.0028
757.5776	-0.0114
757.753	0.0141
757.9284	-0.0117
758.1038	-0.0056
758.2791	0.0282
758.4545	-0.0111
758.6298	0.0143
758.8051	0.0335
758.9803	0.0187
759.1556	-0.0021
759.3308	-0.0011
759.506	0.0037
759.6812	-0.012
759.8564	0.005
760.0316	-0.0029
760.2067	0.0298
760.3819	0.0002
760.557	0.0044
760.732	0.0054
760.9071	0.0135
761.0821	-0.0148
761.2572	0.0075
761.4322	0.0156
761.6072	-0.0074
761.7821	-0.0097
761.9571	0.042
762.132	0.0139
762.3069	0.0174
762.4818	0.0238
762.6567	-0.0058
762.8316	0.0133
763.0064	0.0074
763.1812	0.0282
763.356	-0.0007
763.5308	0.0178
763.7055	0.0078
763.8803	-0.0048
764.055	0.0002
764.2297	-0.0003
764.4044	0.0087
764.579	0.0088
764.7537	0.0075
764.9283	0.0232
765.1029	0.0095
765.2775	0.0282
765.4521	0.0342
765.6266	-0.0099
765.8011	0.0082
765.9756	0.0184
766.1501	-0.0153
766.3246	0.0124
766.4991	0.0116
766.6735	0.0292
766.8479	0.028
767.0223	0.0099
767.1967	0.0328
767.371	0.0125
767.5454	0.0285
767.7197	0.0216
767.894	-0.0124
768.0683	0.0109
768.2425	0.0078
768.4168	-0.001
768.591	0.011
768.7652	-0.0115
768.9394	-0.0094
769.1135	-0.0048
769.2877	0.0416
769.4618	0.0078
769.6359	-0.0168
769.81	0.0205
769.984	0.0064
770.1581	-0.0041
770.3321	0.0232
770.5061	-0.0011
770.6801	0.0183
770.8541	0.009
771.028	0.0413
771.202	0.0088
771.3759	0.0267
771.5498	0.0183
771.7236	0.0104
771.8975	0.0345
772.0713	0.0069
772.2451	-0.002
772.4189	0.0224
772.5927	-0.0137
772.7665	0.004
772.9402	0.0348
773.1139	0.0111
773.2876	-0.0246
773.4613	0.016
773.635	0.0204
773.8086	0.0183
773.9822	0.0284
774.1558	0.0242
774.3294	-0.0095
774.503	-0.0314
774.6765	0.0082
774.8501	-0.0115
775.0236	0.0092
775.1971	0.0179
775.3705	0.007
775.544	-0.0504
775.7174	0.0032
775.8908	-0.0053
776.0642	0.0368
776.2376	0.031
776.4109	0.0068
776.5843	-0.0206
776.7576	-0.0365
776.9309	0.0161
777.1041	-0.0225
777.2774	-0.0034
777.4506	0.0051
777.6238	-0.0223
777.797	0.0013
777.9702	0.0375
778.1434	-0.0158
778.3165	-0.0031
778.4896	-0.0207
778.6627	0.0343
778.8358	-0.0237
779.0089	0.014
779.1819	0.0086
779.3549	-0.0006
779.5279	-0.0071
779.7009	0.0349
779.8739	0.0548
780.0468	-0.0029
780.2197	-0.0221
780.3926	-0.0136
780.5655	0.0402
780.7384	-0.0016
780.9112	0.026
781.0841	0.0145
781.2569	0.0068
781.4297	0.0018
781.6024	-0.0009
781.7752	0.0227
781.9479	0.0322
782.1206	0.0144
782.2933	0.0197
782.466	0.0026
782.6386	-0.0207
782.8113	-0.0138
782.9839	0.0222
783.1565	0.0482
783.329	-0.0182
783.5016	-0.0163
783.6741	-0.0203
783.8466	0.0487
784.0191	0.0483
784.1916	-0.0276
784.3641	-0.0297
784.5365	0.0242
784.7089	-0.0026
784.8813	0.0387
785.0537	0.0507
785.2261	-0.0045
785.3984	-0.0116
785.5707	-0.0059
785.743	0.0565
785.9153	-0.0348
786.0876	-0.051
786.2598	-0.0183
786.432	-0.003
786.6042	0.0682
786.7764	-0.0294
786.9486	-0.0056
787.1207	0.0024
787.2928	0.0342
787.4649	-0.0122
787.637	0.0101
787.8091	-0.0172
787.9811	-0.0055
788.1532	0.0271
788.3252	-0.0081
788.4972	-0.0006
788.6691	0.0052
788.8411	0.0203
789.013	0.0056
789.1849	-0.0092
789.3568	-0.0016
789.5287	0.0074
789.7005	0.0095
789.8723	-0.0282
790.0442	-0.0498
790.2159	-0.0329
790.3877	0.0786
790.5595	0.0378
790.7312	-0.008
790.9029	-0.0182
791.0746	0.0256
791.2463	-0.026
791.4179	-0.0032
791.5896	0.018
791.7612	0.0342
791.9328	0.0242
792.1044	-0.0308
792.2759	-0.0346
792.4474	-0.0282
792.619	0.0441
792.7905	0.0769
792.9619	0.0321
793.1334	0.015
793.3048	0.0284
793.4762	0.0093
793.6476	-0.0071
793.819	-0.034
793.9904	0.0018
794.1617	-0.0135
794.333	0.0105
794.5043	0.0063
794.6756	0.0099
794.8469	0.0362
795.0181	0.0212
795.1893	0.0397
795.3605	0.0463
795.5317	-0.0202
795.7029	-0.0117
795.874	-0.0093
796.0452	0.025
796.2163	0.0529
796.3873	0.0692
796.5584	-0.0472
796.7294	-0.0751
796.9005	0.0118
797.0715	-0.032
797.2425	0.07
797.4134	-0.0123
797.5844	0.0176
797.7553	0.0127
797.9262	0.0564
798.0971	0.0333
798.2679	-0.0438
798.4388	0.0195
798.6096	0.018
798.7804	0.0048
798.9512	0.0093
799.122	-0.0381
799.2927	0.0906
799.4635	-0.019
799.6342	-0.1008
799.8049	0.0497
799.9755	-0.0549
800.1462	0.0095
800.3168	0.0426
800.4874	-0.0989
800.658	0.06
800.8286	0.003
800.9991	0.0224
801.1696	0.0117
801.3402	-0.0217
801.5106	0.0105
801.6811	-0.0158
801.8516	0.0212
802.022	-0.0002
802.1924	-0.0284
802.3628	-0.0413
802.5332	0.0556
802.7035	0.0344
802.8739	0.0535
803.0442	-0.0238
803.2145	0.0464
803.3847	-0.0078
803.555	0.0841
803.7252	0.0016
803.8954	-0.0363
804.0656	-0.0106
804.2358	0.0203
804.4059	0.0421
804.5761	-0.0058
804.7462	0.053
804.9163	0.0078
805.0864	-0.0222
805.2564	-0.0276
805.4264	0.0015
805.5965	0.0506
805.7665	-0.0557
805.9364	0.0077
806.1064	-0.0105
806.2763	0.0292
806.4462	0.0102
806.6161	0.0327
806.786	0.0256
806.9559	0.0364
807.1257	-0.0323
807.2955	-0.0068
807.4653	0.0194
807.6351	0.0517
807.8048	-0.0291
807.9746	-0.0336
808.1443	-0.0095
808.314	-0.0184
808.4837	0.0282
808.6533	0.0078
808.8229	-0.027
808.9926	0.0487
809.1622	0.0574
809.3317	-0.0473
809.5013	-0.0038
809.6708	-0.0352
809.8403	-0.0268
810.0098	0.0198
810.1793	-0.0043
810.3488	-0.0423
810.5182	0.1491
810.6876	0.0176
810.857	0.0796
811.0264	-0.0968
811.1958	0.1125
811.3651	0.0117
811.5344	0.0804
811.7037	0.0596
811.873	0.0187
812.0422	-0.006
812.2115	0.0337
812.3807	-0.1789
812.5499	-0.0492
812.7191	-0.0323
812.8882	0.0157
813.0574	0.0465
813.2265	0.0456
813.3956	-0.0245
813.5646	0.0846
813.7337	0.0511
813.9027	-0.0684
814.0718	-0.03
814.2407	0.0846
814.4097	0.0211
814.5787	0.1003
814.7476	0.0117
814.9165	0.074
815.0854	-0.0364
815.2543	0.0364
815.4232	0.1171
815.592	0.0766
815.7608	-0.1195
815.9296	0.0791
816.0984	-0.0175
816.2671	-0.2232
816.4359	0.1638
816.6046	-0.0652
816.7733	-0.1008
816.942	0.0217
817.1106	0.0508
817.2793	-0.1269
817.4479	0.0166
817.6165	-0.0076
817.785	0.149
817.9536	-0.1093
818.1221	0.0738
818.2906	-0.0796
818.4591	-0.026
818.6276	0.0801
818.7961	0.1325
818.9645	0.0454
819.1329	-0.0441
819.3013	-0.131
819.4697	-0.0469
819.638	0.0471
819.8064	0.0593
819.9747	0.1027
820.143	-0.0863
820.3113	0.0601
820.4795	0.0308
820.6477	0.0861
820.816	0.0277
820.9842	0.0729
821.1523	0.031
821.3205	0.0676
821.4886	0.0318
821.6567	-0.071
821.8248	0.1703
821.9929	-0.1953
822.1609	0.0765
822.329	0.021
822.497	0.0251
822.665	-0.0161
822.833	-0.0853
823.0009	0.044
823.1688	0.1743
823.3367	-0.0573
823.5046	-0.0136
823.6725	-0.1172
823.8404	0.6418
824.0082	0.025
824.176	-0.0946
824.3438	0.1681
824.5116	-0.0066
824.6793	0.1436
824.847	-0.08
825.0147	0.1179
825.1824	-0.0104
825.3501	0.1201
825.5177	0.0285
825.6854	-0.1405
825.853	-0.0496
826.0206	-0.1192
826.1881	0.0456
826.3557	0.1817
826.5232	0.0605
826.6907	0.0141
826.8582	-0.1769
827.0257	0.1372
827.1931	0.0371
827.3605	-0.1397
827.528	0.0154
827.6953	-0.2485
827.8627	-0.0772
828.03	0.1839
828.1974	-0.0597
828.3647	0.0394
828.532	-0.016
828.6992	0.1502
828.8665	-0.3494
829.0337	0.1103
829.2009	-0.0758
829.3681	0.1156
829.5352	-0.3936
829.7024	0.0266
829.8695	-0.0401
830.0366	0.0208
830.2037	0.0333
830.3707	0.1039
830.5378	-0.1526
830.7048	0.1408
830.8718	0.08
831.0388	0.0812
831.2057	0.009
831.3727	-0.0932
831.5396	0.0045
831.7065	-0.7701
831.8734	0.1925
832.0402	0.2459
832.2071	-0.7729
832.3739	-0.2151
832.5407	-1.774
832.7075	-0.3529
832.8742	0.7992
833.041	0.2601
833.2077	0.3662
833.3744	-0.0918
833.541	-0.0728
833.7077	-0.0067
833.8743	0.0081
834.0409	0.158
834.2075	0.0431
834.3741	-0.0144
834.5407	-0.0548
834.7072	0.103
834.8737	0.2493
835.0402	-0.1215
835.2067	-0.1501
835.3731	-0.2032
835.5395	0.0632
835.706	-0.272
835.8723	-0.066
836.0387	0.6207
836.2051	-0.1722
836.3714	0.1836
836.5377	-0.0163
836.704	0.2843
836.8703	-0.3284
837.0365	-0.6068
837.2027	-0.106
837.3689	0.164
837.5351	-0.1048
837.7013	-0.178
837.8674	0.4663
838.0335	0.1464
838.1997	-0.1032
838.3657	-0
838.5318	-0.5784
838.6978	0.6009
838.8639	-0.4842
839.0299	0.0986
839.1958	0.0184
839.3618	-0
839.5277	-0.0705
839.6937	0.3971
839.8596	-0.3632
840.0254	-0.1305
840.1913	-0.3703
840.3571	-0.3035
840.523	-0
840.6888	-0.2293
840.8545	-0.5971
841.0203	0.1216
841.186	-0.0814
841.3517	-0.3389
841.5174	0.1636
841.6831	0.0333
841.8488	0.1602
842.0144	0.4828
842.18	0.3906
842.3456	-0.6611
842.5112	-0
842.6767	-0.0147
842.8422	0.7015
843.0077	0.0577
843.1732	-0.5295
843.3387	-0.0854
843.5042	-0.5515
843.6696	0.4281
843.835	0.2236
844.0004	-0.2497
844.1657	-0
844.3311	-0.5206
844.4964	-0.5669
844.6617	0.6725
844.827	-0
844.9923	0.1622
845.1575	-0.0461
845.3227	-0.2532
845.4879	-0.2495
845.6531	-0.0983
845.8183	0.1503
845.9834	0.4099
846.1485	0.049
846.3136	0.0883
846.4787	-0
846.6438	0.6284
846.8088	0.1819
846.9738	-0
847.1388	0.4525
847.3038	0.1802
847.4687	0.1636
847.6337	-0.5396
847.7986	-0.1343
847.9635	0.1824
848.1284	-0
848.2932	-0.1223
848.458	-0
848.6228	0.6787
848.7876	-0
848.9524	-0.309
849.1172	-1.9797
849.2819	-0
849.4466	0.5837
849.6113	-0.1382
849.7759	-0.3338
849.9406	-0.2338
850.1052	-1.0715
850.2698	0.3757
850.4344	-0
850.599	0.3045
850.7635	0.054
850.928	0.6456
851.0925	0.2273
851.257	0.3773
851.4215	-0.2017
851.5859	-0.0938
851.7503	-0
851.9147	-0.4957
852.0791	-0.1749
852.2434	0.2711
852.4078	-0
852.5721	1.8535
852.7364	-0.0407
852.9007	0.0263
853.0649	-0
853.2291	-0.0774
853.3934	-0
853.5575	-0.1859
853.7217	0.0284
853.8859	-0.4476
854.05	-0.4049
854.2141	-0
854.3782	-0.4351
854.5423	0.6808
854.7063	-0.0774
854.8703	0.1302
855.0343	-0.2027
855.1983	0.288
855.3623	0.3204
855.5262	-0
855.6901	0.1092
855.854	-0.0711
856.0179	0.305
856.1818	0.3339
856.3456	0.6015
856.5094	-0
856.6732	-0.6383
856.837	-1.1862
857.0008	-0.2882
857.1645	0.354
857.3282	-0.7207
857.4919	-0.1979
857.6556	-0.269
857.8192	0.3038
857.9828	-0.4208
858.1465	-0.0612
858.31	-0
858.4736	-0.5544
858.6372	-0.2708
858.8007	-0.1013
858.9642	0.2383
859.1277	0.5453
859.2911	-0.1815
859.4546	-0
859.618	0.2424
859.7814	-0
859.9448	0.0533
860.1081	-0
860.2715	-1.3367
860.4348	-0.0498
860.5981	0.8905
860.7614	-0
860.9246	0.3043
861.0879	-0
861.2511	-0
861.4143	-0.8787
861.5774	-0.2078
861.7406	0.1391
861.9037	-0
862.0668	-0
862.2299	-0
862.393	-0
862.556	-0
862.7191	-0.6441
862.8821	0.2149
863.0451	0.4393
863.208	0.1619
863.371	1.1097
863.5339	0.2373
863.6968	0.7237
863.8597	-0.2493
864.0225	-0
864.1854	-0
864.3482	-1.1862
864.511	-0.3728
864.6737	-0
864.8365	-0.1153
864.9992	-0
865.1619	-0
865.3246	-0.7482
865.4873	-0.3151
865.65	0.1401
865.8126	-0
865.9752	-0.269
866.1378	-0.1581
866.3004	0.1408
866.4629	-1.6601
866.6254	0.126
866.7879	0.0664
866.9504	-0
867.1129	-0.2935
867.2753	-0.2264
867.4377	0.1408
867.6001	-0.5272
867.7625	-0.2756
867.9249	0.1066
868.0872	0.3892
868.2495	-0
868.4118	-0
868.5741	-0.7354
868.7363	-0
868.8986	0.8002
869.0608	-0
869.223	-0.6709
869.3851	1.3473
869.5473	0.2621
869.7094	-0
869.8715	-1.2427
870.0336	0.2508
870.1957	-1.1595
870.3577	-0
870.5197	-0.4033
870.6817	-0.7338
870.8437	-0.2784
871.0057	0.1444
871.1676	0.4074
871.3295	-0.2411
871.4914	-0
871.6533	-0.1356
871.8151	-0
871.977	-0.4166
872.1388	0.1892
872.3006	-0.5598
872.4623	0.2542
872.6241	0.0102
872.7858	0.0435
872.9475	-0
873.1092	0.3718
873.2709	0.6243
873.4325	-2.0833
873.5941	-0.8145
873.7557	-0
873.9173	0.0969
874.0789	0.0988
874.2404	-0
874.4019	-0
874.5634	-0
874.7249	0.2
874.8863	-0
875.0478	0.4103
875.2092	0.9338
875.3706	0.5169
875.5319	-0
875.6933	-0
875.8546	-0.1514
876.0159	-0
876.1772	-0
876.3385	-0
876.4997	-0.0648
876.6609	-0.2147
876.8221	-0
876.9833	-0
877.1445	0.5863
877.3056	-0.8589
877.4667	-0
877.6278	-0
877.7889	-0
877.9499	0.5277
878.111	-0.6191
878.272	0.6284
878.433	0.7036
878.5939	-0.2394
878.7549	-0.0018
878.9158	1.8079
879.0767	-0.0672
879.2376	-0.4274
879.3984	0.1693
879.5593	0.2489
879.7201	-1.5895
879.8809	0.7937
880.0417	-0.209
880.2024	-0.0098
880.3632	-0.2916
880.5239	0.5616
880.6846	-0
880.8452	-0.0817
881.0059	-0.8097
881.1665	-0.399
881.3271	-0
881.4877	-0.1153
881.6483	-0
881.8088	-0
881.9693	-1.135
882.1298	-1.135
882.2903	-1.135
