Data from D4ACN5uM420nmA_Absorbance_14-37-08-336.txt Node
Date: Fri Feb 21 14:37:08 GMT 2025
User: LASERRRRR
Spectrometer: FLMT03099
Trigger mode: 0
Integration Time (sec): 1.500000E-2
Scans to average: 1
Electric dark correction enabled: true
Nonlinearity correction enabled: false
Boxcar width: 0
XAxis mode: Wavelengths
Number of Pixels in Spectrum: 3648
>>>>>Begin Spectral Data<<<<<
179.3399	-0.6744
179.5586	-0.6744
179.7771	-0.6744
179.9957	-0.1148
180.2143	-1.6463
180.4329	0.4758
180.6514	-0
180.8699	-0
181.0885	-0.3367
181.307	0.8108
181.5255	0.8694
181.744	-0.0302
181.9625	-0
182.181	0.065
182.3994	-0.4501
182.6179	-0.0333
182.8363	1.4133
183.0547	-0.1699
183.2732	0.2741
183.4916	0.2976
183.71	0.4716
183.9284	0.2336
184.1467	0.2674
184.3651	-0.0299
184.5835	0.1956
184.8018	0.4311
185.0201	0.0316
185.2385	0.3291
185.4568	0.1011
185.6751	0.1682
185.8934	0.4495
186.1117	0.2892
186.3299	0.151
186.5482	0.3514
186.7664	0.1412
186.9847	-0.0193
187.2029	0.272
187.4211	0.053
187.6393	0.2791
187.8575	0.1868
188.0757	0.5114
188.2939	0.22
188.512	0.2979
188.7302	0.1031
188.9483	0.6166
189.1665	0.4409
189.3846	0.4347
189.6027	0.1756
189.8208	0.3394
190.0389	0.1869
190.257	0.0954
190.475	-0.0235
190.6931	0.1084
190.9111	0.0117
191.1292	0.0692
191.3472	0.1083
191.5652	0.0879
191.7832	0.1327
192.0012	0.2405
192.2192	0.0698
192.4371	0.1151
192.6551	0.213
192.873	0.1576
193.091	0.1546
193.3089	0.1503
193.5268	0.2259
193.7447	0.1883
193.9626	0.2163
194.1805	0.258
194.3984	0.1461
194.6162	0.2357
194.8341	0.2591
195.0519	0.1954
195.2697	0.2432
195.4875	0.3166
195.7054	0.2924
195.9231	0.2023
196.1409	0.3477
196.3587	0.2807
196.5765	0.3438
196.7942	0.3352
197.012	0.2798
197.2297	0.2847
197.4474	0.3504
197.6651	0.3023
197.8828	0.2867
198.1005	0.3613
198.3182	0.4294
198.5358	0.3718
198.7535	0.3598
198.9711	0.3552
199.1888	0.3568
199.4064	0.4323
199.624	0.3956
199.8416	0.3364
200.0592	0.348
200.2767	0.4104
200.4943	0.3911
200.7119	0.3703
200.9294	0.4204
201.1469	0.3912
201.3645	0.4937
201.582	0.4392
201.7995	0.4049
202.017	0.3684
202.2344	0.416
202.4519	0.3875
202.6694	0.3667
202.8868	0.4274
203.1042	0.4044
203.3217	0.4044
203.5391	0.3879
203.7565	0.3381
203.9739	0.3505
204.1913	0.3655
204.4086	0.3329
204.626	0.3835
204.8433	0.3462
205.0607	0.3624
205.278	0.3629
205.4953	0.334
205.7126	0.3209
205.9299	0.3181
206.1472	0.3187
206.3644	0.3626
206.5817	0.3224
206.7989	0.3433
207.0162	0.3328
207.2334	0.3353
207.4506	0.3066
207.6678	0.2997
207.885	0.3054
208.1022	0.3044
208.3194	0.2883
208.5365	0.2977
208.7537	0.2965
208.9708	0.2888
209.1879	0.3093
209.405	0.2918
209.6222	0.2886
209.8392	0.2956
210.0563	0.2702
210.2734	0.2563
210.4905	0.2896
210.7075	0.3019
210.9245	0.2563
211.1416	0.2966
211.3586	0.2789
211.5756	0.2531
211.7926	0.2714
212.0096	0.2631
212.2265	0.2692
212.4435	0.262
212.6604	0.2368
212.8774	0.2567
213.0943	0.2541
213.3112	0.2606
213.5281	0.268
213.745	0.2456
213.9619	0.2513
214.1788	0.2638
214.3956	0.2425
214.6125	0.2532
214.8293	0.2519
215.0461	0.2502
215.2629	0.2606
215.4798	0.2459
215.6965	0.247
215.9133	0.2272
216.1301	0.2432
216.3469	0.2418
216.5636	0.2599
216.7803	0.2499
216.9971	0.2586
217.2138	0.2502
217.4305	0.2552
217.6472	0.2394
217.8639	0.2323
218.0805	0.2554
218.2972	0.249
218.5138	0.254
218.7305	0.2569
218.9471	0.2415
219.1637	0.2606
219.3803	0.2433
219.5969	0.2583
219.8135	0.2716
220.0301	0.2503
220.2466	0.2572
220.4632	0.2521
220.6797	0.2534
220.8962	0.2599
221.1127	0.2643
221.3292	0.2737
221.5457	0.2729
221.7622	0.269
221.9787	0.2887
222.1951	0.2681
222.4116	0.2808
222.628	0.2791
222.8444	0.2653
223.0608	0.279
223.2772	0.2759
223.4936	0.2709
223.71	0.2938
223.9264	0.2849
224.1427	0.2779
224.3591	0.2976
224.5754	0.2759
224.7917	0.291
225.008	0.2924
225.2243	0.3026
225.4406	0.3025
225.6569	0.3064
225.8732	0.3071
226.0894	0.316
226.3057	0.3005
226.5219	0.3173
226.7381	0.3149
226.9543	0.3136
227.1705	0.3239
227.3867	0.3165
227.6029	0.3303
227.8191	0.3339
228.0352	0.3449
228.2513	0.3476
228.4675	0.3382
228.6836	0.3474
228.8997	0.3506
229.1158	0.3532
229.3319	0.3642
229.548	0.35
229.764	0.363
229.9801	0.3782
230.1961	0.3676
230.4121	0.3693
230.6282	0.3862
230.8442	0.3917
231.0602	0.382
231.2761	0.3808
231.4921	0.399
231.7081	0.3944
231.924	0.4085
232.14	0.4063
232.3559	0.409
232.5718	0.411
232.7877	0.4147
233.0036	0.4127
233.2195	0.4118
233.4353	0.4201
233.6512	0.4211
233.867	0.4302
234.0829	0.4278
234.2987	0.4275
234.5145	0.4368
234.7303	0.4355
234.9461	0.4436
235.1619	0.4444
235.3776	0.4339
235.5934	0.4391
235.8091	0.4513
236.0249	0.4535
236.2406	0.4427
236.4563	0.4549
236.672	0.4452
236.8877	0.4453
237.1034	0.4486
237.319	0.4577
237.5347	0.4501
237.7503	0.4509
237.966	0.4647
238.1816	0.4538
238.3972	0.4586
238.6128	0.4702
238.8284	0.4606
239.0439	0.4657
239.2595	0.4593
239.475	0.4695
239.6906	0.4692
239.9061	0.4635
240.1216	0.4628
240.3371	0.4603
240.5526	0.4604
240.7681	0.4713
240.9836	0.4646
241.199	0.4635
241.4145	0.4524
241.6299	0.4643
241.8453	0.4418
242.0607	0.439
242.2761	0.4421
242.4915	0.4315
242.7069	0.4309
242.9223	0.4326
243.1376	0.4282
243.353	0.4119
243.5683	0.4097
243.7836	0.3987
243.9989	0.3851
244.2142	0.3844
244.4295	0.3868
244.6448	0.3777
244.86	0.3596
245.0753	0.3531
245.2905	0.3519
245.5057	0.3484
245.721	0.3439
245.9362	0.3408
246.1514	0.3274
246.3665	0.3157
246.5817	0.3104
246.7969	0.304
247.012	0.3005
247.2271	0.3048
247.4423	0.2968
247.6574	0.292
247.8725	0.2829
248.0876	0.2785
248.3026	0.2739
248.5177	0.2685
248.7328	0.2551
248.9478	0.2549
249.1628	0.2548
249.3779	0.2435
249.5929	0.2443
249.8079	0.2446
250.0228	0.2388
250.2378	0.2323
250.4528	0.2331
250.6677	0.2288
250.8827	0.2223
251.0976	0.2162
251.3125	0.2195
251.5274	0.2148
251.7423	0.2119
251.9572	0.2115
252.172	0.2039
252.3869	0.2058
252.6017	0.2072
252.8166	0.207
253.0314	0.2003
253.2462	0.1982
253.461	0.2046
253.6758	0.2003
253.8906	0.1969
254.1053	0.1951
254.3201	0.1962
254.5348	0.1936
254.7496	0.1902
254.9643	0.1956
255.179	0.1894
255.3937	0.1903
255.6083	0.1942
255.823	0.1898
256.0377	0.19
256.2523	0.1864
256.467	0.1896
256.6816	0.1824
256.8962	0.1882
257.1108	0.1853
257.3254	0.1898
257.54	0.1786
257.7545	0.1853
257.9691	0.1859
258.1836	0.1762
258.3981	0.1852
258.6127	0.1757
258.8272	0.1898
259.0417	0.1823
259.2561	0.1811
259.4706	0.1747
259.6851	0.1792
259.8995	0.1817
260.114	0.1871
260.3284	0.1742
260.5428	0.1739
260.7572	0.1847
260.9716	0.1906
261.186	0.1802
261.4003	0.1842
261.6147	0.181
261.829	0.1853
262.0433	0.1797
262.2577	0.1803
262.472	0.1822
262.6863	0.1852
262.9005	0.178
263.1148	0.1836
263.3291	0.1814
263.5433	0.1878
263.7576	0.1894
263.9718	0.1893
264.186	0.1885
264.4002	0.1862
264.6144	0.202
264.8286	0.1873
265.0427	0.1964
265.2569	0.19
265.471	0.1918
265.6851	0.1959
265.8993	0.183
266.1134	0.1885
266.3275	0.1878
266.5415	0.1929
266.7556	0.1921
266.9697	0.1927
267.1837	0.1895
267.3978	0.196
267.6118	0.1897
267.8258	0.1976
268.0398	0.1941
268.2538	0.1887
268.4677	0.1864
268.6817	0.1972
268.8957	0.1853
269.1096	0.1792
269.3235	0.1935
269.5374	0.1895
269.7514	0.1908
269.9652	0.1813
270.1791	0.1822
270.393	0.184
270.6068	0.1861
270.8207	0.1834
271.0345	0.1831
271.2483	0.1847
271.4622	0.1857
271.676	0.1837
271.8897	0.1866
272.1035	0.1888
272.3173	0.1855
272.531	0.1828
272.7448	0.1865
272.9585	0.18
273.1722	0.1877
273.3859	0.1862
273.5996	0.1882
273.8133	0.1886
274.0269	0.1903
274.2406	0.1873
274.4542	0.1881
274.6679	0.1909
274.8815	0.1998
275.0951	0.199
275.3087	0.1966
275.5223	0.1915
275.7358	0.194
275.9494	0.1972
276.1629	0.1973
276.3765	0.1954
276.59	0.1928
276.8035	0.2004
277.017	0.2032
277.2305	0.1994
277.444	0.1989
277.6574	0.2066
277.8709	0.2013
278.0843	0.2009
278.2978	0.2021
278.5112	0.1991
278.7246	0.1986
278.938	0.1963
279.1513	0.1964
279.3647	0.2019
279.5781	0.1953
279.7914	0.1923
280.0047	0.1895
280.2181	0.1945
280.4314	0.1995
280.6447	0.2017
280.8579	0.1956
281.0712	0.1947
281.2845	0.1959
281.4977	0.1992
281.711	0.1941
281.9242	0.1962
282.1374	0.1887
282.3506	0.1938
282.5638	0.1888
282.7769	0.1923
282.9901	0.1895
283.2033	0.194
283.4164	0.1895
283.6295	0.1889
283.8426	0.1904
284.0557	0.1944
284.2688	0.1903
284.4819	0.1863
284.695	0.1929
284.908	0.1934
285.1211	0.1915
285.3341	0.1939
285.5471	0.1951
285.7601	0.1924
285.9731	0.1925
286.1861	0.1911
286.3991	0.1941
286.612	0.1968
286.825	0.1885
287.0379	0.1882
287.2508	0.196
287.4637	0.1949
287.6766	0.1959
287.8895	0.1914
288.1024	0.1947
288.3152	0.1924
288.5281	0.1913
288.7409	0.1936
288.9538	0.1935
289.1666	0.1911
289.3794	0.191
289.5922	0.1899
289.8049	0.1896
290.0177	0.1955
290.2304	0.1969
290.4432	0.194
290.6559	0.1947
290.8686	0.1914
291.0813	0.1954
291.294	0.1869
291.5067	0.1893
291.7194	0.1921
291.932	0.1944
292.1447	0.1982
292.3573	0.1952
292.5699	0.192
292.7825	0.1872
292.9951	0.1933
293.2077	0.1861
293.4203	0.1923
293.6328	0.1932
293.8454	0.1918
294.0579	0.186
294.2704	0.1947
294.4829	0.1914
294.6954	0.1907
294.9079	0.1918
295.1204	0.1914
295.3328	0.1964
295.5453	0.1946
295.7577	0.1978
295.9701	0.1999
296.1825	0.1949
296.3949	0.1871
296.6073	0.1882
296.8197	0.1928
297.0321	0.1963
297.2444	0.1888
297.4567	0.191
297.6691	0.1865
297.8814	0.195
298.0937	0.1945
298.306	0.1877
298.5182	0.1925
298.7305	0.1918
298.9428	0.1928
299.155	0.1852
299.3672	0.192
299.5794	0.1907
299.7916	0.1923
300.0038	0.1887
300.216	0.1911
300.4282	0.1949
300.6403	0.1957
300.8525	0.1947
301.0646	0.1947
301.2767	0.1956
301.4888	0.1938
301.7009	0.1909
301.913	0.1957
302.125	0.1891
302.3371	0.1873
302.5491	0.1994
302.7612	0.1967
302.9732	0.1911
303.1852	0.1909
303.3972	0.1909
303.6092	0.1889
303.8211	0.1873
304.0331	0.1906
304.245	0.1916
304.457	0.196
304.6689	0.197
304.8808	0.1864
305.0927	0.1919
305.3046	0.1879
305.5164	0.1877
305.7283	0.186
305.9401	0.1792
306.152	0.1783
306.3638	0.1788
306.5756	0.1866
306.7874	0.1736
306.9992	0.1804
307.2109	0.1766
307.4227	0.1758
307.6344	0.1859
307.8462	0.1737
308.0579	0.1752
308.2696	0.1717
308.4813	0.1717
308.693	0.1634
308.9046	0.1708
309.1163	0.1621
309.328	0.1631
309.5396	0.1651
309.7512	0.1606
309.9628	0.1599
310.1744	0.1553
310.386	0.1581
310.5976	0.1556
310.8091	0.1581
311.0207	0.1524
311.2322	0.1566
311.4437	0.1537
311.6552	0.1569
311.8667	0.1557
312.0782	0.1553
312.2897	0.1531
312.5012	0.1503
312.7126	0.1434
312.924	0.1401
313.1355	0.1463
313.3469	0.146
313.5583	0.1402
313.7696	0.148
313.981	0.1523
314.1924	0.1457
314.4037	0.1398
314.6151	0.1416
314.8264	0.1421
315.0377	0.1416
315.249	0.1428
315.4603	0.1408
315.6716	0.1435
315.8828	0.1383
316.0941	0.1431
316.3053	0.1329
316.5165	0.1417
316.7277	0.1348
316.9389	0.1438
317.1501	0.136
317.3613	0.1379
317.5724	0.1398
317.7836	0.1286
317.9947	0.1378
318.2058	0.136
318.417	0.1334
318.6281	0.1352
318.8391	0.1405
319.0502	0.1325
319.2613	0.1347
319.4723	0.1334
319.6834	0.1365
319.8944	0.1335
320.1054	0.1387
320.3164	0.1352
320.5274	0.1374
320.7383	0.1351
320.9493	0.1323
321.1602	0.136
321.3712	0.133
321.5821	0.1328
321.793	0.138
322.0039	0.1347
322.2148	0.1374
322.4257	0.1318
322.6365	0.131
322.8474	0.1345
323.0582	0.1377
323.269	0.1411
323.4798	0.1403
323.6906	0.1329
323.9014	0.1334
324.1122	0.1367
324.3229	0.141
324.5337	0.1401
324.7444	0.1398
324.9551	0.1386
325.1658	0.1409
325.3765	0.1455
325.5872	0.1377
325.7979	0.1279
326.0085	0.1404
326.2192	0.1353
326.4298	0.1439
326.6404	0.1442
326.851	0.135
327.0616	0.1436
327.2722	0.1436
327.4828	0.1414
327.6933	0.1475
327.9039	0.1443
328.1144	0.1446
328.3249	0.1455
328.5354	0.1466
328.7459	0.1532
328.9564	0.1413
329.1669	0.1525
329.3773	0.1558
329.5878	0.1494
329.7982	0.1524
330.0086	0.1487
330.219	0.1489
330.4294	0.1509
330.6398	0.15
330.8502	0.1547
331.0605	0.151
331.2708	0.145
331.4812	0.1524
331.6915	0.1532
331.9018	0.1479
332.1121	0.1612
332.3224	0.1522
332.5326	0.1483
332.7429	0.152
332.9531	0.1545
333.1633	0.15
333.3735	0.1451
333.5837	0.1522
333.7939	0.1545
334.0041	0.1523
334.2143	0.1436
334.4244	0.1554
334.6346	0.1494
334.8447	0.1487
335.0548	0.1525
335.2649	0.1566
335.475	0.1567
335.685	0.1527
335.8951	0.1494
336.1051	0.1566
336.3152	0.1545
336.5252	0.1588
336.7352	0.155
336.9452	0.1529
337.1552	0.1531
337.3652	0.1464
337.5751	0.1527
337.7851	0.1509
337.995	0.155
338.2049	0.1545
338.4148	0.1513
338.6247	0.159
338.8346	0.1532
339.0445	0.1531
339.2543	0.1545
339.4642	0.1555
339.674	0.1488
339.8838	0.1583
340.0936	0.1543
340.3034	0.1477
340.5132	0.1458
340.7229	0.1573
340.9327	0.1632
341.1424	0.1592
341.3522	0.1516
341.5619	0.155
341.7716	0.1636
341.9813	0.1631
342.1909	0.1618
342.4006	0.1606
342.6102	0.1547
342.8199	0.1592
343.0295	0.1626
343.2391	0.1637
343.4487	0.1661
343.6583	0.1721
343.8679	0.1603
344.0774	0.1627
344.287	0.1685
344.4965	0.1643
344.706	0.1711
344.9155	0.1627
345.125	0.1636
345.3345	0.1762
345.544	0.1729
345.7534	0.1781
345.9629	0.1743
346.1723	0.1743
346.3817	0.1755
346.5911	0.1816
346.8005	0.1801
347.0099	0.1722
347.2193	0.1769
347.4286	0.1863
347.638	0.1792
347.8473	0.1859
348.0566	0.1798
348.2659	0.1787
348.4752	0.1835
348.6845	0.1857
348.8937	0.1776
349.103	0.1896
349.3122	0.187
349.5214	0.1839
349.7306	0.1869
349.9398	0.1869
350.149	0.1836
350.3582	0.1864
350.5674	0.1951
350.7765	0.1974
350.9856	0.1813
351.1948	0.1935
351.4039	0.1873
351.613	0.1866
351.822	0.1887
352.0311	0.1872
352.2402	0.1893
352.4492	0.1868
352.6582	0.1889
352.8672	0.1879
353.0762	0.1904
353.2852	0.1914
353.4942	0.193
353.7032	0.1901
353.9121	0.1934
354.1211	0.1926
354.33	0.1909
354.5389	0.1825
354.7478	0.1849
354.9567	0.191
355.1655	0.1917
355.3744	0.1845
355.5833	0.1969
355.7921	0.2006
356.0009	0.19
356.2097	0.1876
356.4185	0.1954
356.6273	0.1905
356.8361	0.1919
357.0448	0.1969
357.2536	0.198
357.4623	0.1947
357.671	0.1959
357.8797	0.1963
358.0884	0.1865
358.2971	0.1921
358.5057	0.1981
358.7144	0.1949
358.923	0.1978
359.1316	0.2034
359.3402	0.2028
359.5488	0.1997
359.7574	0.2048
359.966	0.1958
360.1746	0.1945
360.3831	0.2075
360.5916	0.2098
360.8002	0.2116
361.0087	0.2058
361.2172	0.2019
361.4256	0.2083
361.6341	0.2102
361.8426	0.2136
362.051	0.2131
362.2594	0.2113
362.4678	0.2082
362.6762	0.2117
362.8846	0.2169
363.093	0.2118
363.3014	0.2136
363.5097	0.2139
363.718	0.2144
363.9264	0.2204
364.1347	0.2157
364.343	0.2194
364.5513	0.2168
364.7595	0.2225
364.9678	0.2144
365.176	0.2228
365.3842	0.2284
365.5925	0.2281
365.8007	0.2161
366.0089	0.2313
366.217	0.224
366.4252	0.2257
366.6333	0.2297
366.8415	0.2316
367.0496	0.227
367.2577	0.2318
367.4658	0.2316
367.6739	0.2255
367.882	0.235
368.09	0.2235
368.2981	0.2408
368.5061	0.2419
368.7141	0.2333
368.9221	0.2446
369.1301	0.228
369.3381	0.235
369.5461	0.2338
369.754	0.24
369.962	0.2331
370.1699	0.2368
370.3778	0.248
370.5857	0.2371
370.7936	0.2427
371.0015	0.2455
371.2093	0.2413
371.4172	0.2388
371.625	0.2429
371.8328	0.2419
372.0406	0.2505
372.2484	0.2516
372.4562	0.249
372.664	0.2461
372.8717	0.244
373.0795	0.2504
373.2872	0.2547
373.4949	0.2524
373.7026	0.243
373.9103	0.2479
374.118	0.2491
374.3256	0.2485
374.5333	0.2524
374.7409	0.2538
374.9485	0.2639
375.1561	0.2574
375.3637	0.2494
375.5713	0.2621
375.7789	0.2573
375.9864	0.2628
376.194	0.2677
376.4015	0.2576
376.609	0.26
376.8165	0.2625
377.024	0.2637
377.2315	0.2584
377.4389	0.2534
377.6464	0.268
377.8538	0.2713
378.0612	0.2603
378.2686	0.2646
378.476	0.2704
378.6834	0.2688
378.8908	0.2715
379.0981	0.2666
379.3055	0.2711
379.5128	0.2731
379.7201	0.2743
379.9274	0.2711
380.1347	0.2724
380.342	0.2802
380.5492	0.281
380.7565	0.2659
380.9637	0.28
381.1709	0.2688
381.3781	0.277
381.5853	0.278
381.7925	0.2675
381.9997	0.2809
382.2068	0.2758
382.4139	0.2836
382.6211	0.2776
382.8282	0.2821
383.0353	0.2812
383.2424	0.2852
383.4494	0.2677
383.6565	0.2805
383.8635	0.2822
384.0706	0.2915
384.2776	0.2719
384.4846	0.2829
384.6916	0.286
384.8986	0.286
385.1055	0.2873
385.3125	0.2838
385.5194	0.2878
385.7263	0.2714
385.9333	0.288
386.1402	0.2893
386.347	0.278
386.5539	0.2885
386.7608	0.286
386.9676	0.275
387.1744	0.2844
387.3813	0.2754
387.5881	0.2739
387.7948	0.2857
388.0016	0.2899
388.2084	0.285
388.4151	0.2807
388.6219	0.2697
388.8286	0.2811
389.0353	0.2834
389.242	0.283
389.4487	0.2791
389.6553	0.269
389.862	0.2704
390.0686	0.2801
390.2753	0.278
390.4819	0.2819
390.6885	0.2758
390.8951	0.2718
391.1016	0.2754
391.3082	0.2745
391.5147	0.2637
391.7213	0.2681
391.9278	0.2687
392.1343	0.2676
392.3408	0.262
392.5473	0.2656
392.7537	0.2592
392.9602	0.2519
393.1666	0.2641
393.373	0.2568
393.5794	0.2603
393.7858	0.2634
393.9922	0.2559
394.1986	0.254
394.4049	0.2613
394.6113	0.2546
394.8176	0.2558
395.0239	0.2523
395.2302	0.2565
395.4365	0.2513
395.6428	0.2493
395.8491	0.2488
396.0553	0.2414
396.2615	0.2438
396.4678	0.2611
396.674	0.2406
396.8802	0.2405
397.0863	0.2397
397.2925	0.2464
397.4987	0.2333
397.7048	0.2566
397.9109	0.2481
398.117	0.2441
398.3231	0.237
398.5292	0.2355
398.7353	0.2361
398.9413	0.2357
399.1474	0.2391
399.3534	0.2402
399.5594	0.2334
399.7654	0.2369
399.9714	0.238
400.1774	0.241
400.3833	0.2423
400.5893	0.2408
400.7952	0.2456
401.0011	0.2417
401.207	0.2398
401.4129	0.2422
401.6188	0.2344
401.8247	0.2415
402.0305	0.2272
402.2364	0.2479
402.4422	0.2364
402.648	0.2293
402.8538	0.2392
403.0596	0.2332
403.2654	0.2375
403.4711	0.2322
403.6768	0.2437
403.8826	0.237
404.0883	0.2307
404.294	0.2345
404.4997	0.2417
404.7054	0.2354
404.911	0.2382
405.1167	0.2407
405.3223	0.2422
405.5279	0.2384
405.7335	0.2328
405.9391	0.2412
406.1447	0.2386
406.3502	0.2477
406.5558	0.2479
406.7613	0.2331
406.9668	0.2351
407.1724	0.2328
407.3778	0.2344
407.5833	0.2337
407.7888	0.2492
407.9942	0.24
408.1997	0.234
408.4051	0.2368
408.6105	0.2465
408.8159	0.2444
409.0213	0.2365
409.2267	0.2444
409.432	0.2347
409.6374	0.2374
409.8427	0.2426
410.048	0.2384
410.2533	0.2392
410.4586	0.2346
410.6639	0.2428
410.8691	0.2287
411.0744	0.2355
411.2796	0.2392
411.4848	0.2362
411.69	0.2318
411.8952	0.2364
412.1004	0.2358
412.3056	0.2285
412.5107	0.2322
412.7158	0.2432
412.921	0.2307
413.1261	0.2355
413.3312	0.2313
413.5362	0.2397
413.7413	0.2288
413.9464	0.2226
414.1514	0.2185
414.3564	0.2303
414.5614	0.2342
414.7664	0.2263
414.9714	0.2316
415.1764	0.2321
415.3813	0.2305
415.5863	0.2369
415.7912	0.2262
415.9961	0.2305
416.201	0.2304
416.4059	0.2355
416.6108	0.2279
416.8156	0.2245
417.0205	0.227
417.2253	0.2264
417.4301	0.245
417.6349	0.2242
417.8397	0.2307
418.0445	0.2249
418.2492	0.2218
418.454	0.224
418.6587	0.2402
418.8634	0.2234
419.0681	0.24
419.2728	0.22
419.4775	0.2356
419.6822	0.2116
419.8868	0.2142
420.0915	0.22
420.2961	0.2153
420.5007	0.2233
420.7053	0.2239
420.9099	0.2177
421.1144	0.2158
421.319	0.2138
421.5235	0.2113
421.728	0.2228
421.9325	0.2157
422.137	0.2152
422.3415	0.2117
422.546	0.2118
422.7504	0.2084
422.9549	0.223
423.1593	0.2013
423.3637	0.2114
423.5681	0.2111
423.7725	0.2153
423.9769	0.2088
424.1812	0.213
424.3856	0.2021
424.5899	0.2081
424.7942	0.2013
424.9985	0.1985
425.2028	0.2145
425.4071	0.1985
425.6113	0.2056
425.8156	0.2037
426.0198	0.209
426.224	0.2043
426.4282	0.1912
426.6324	0.1896
426.8366	0.1952
427.0407	0.202
427.2449	0.1934
427.449	0.1893
427.6531	0.2076
427.8572	0.1994
428.0613	0.2031
428.2654	0.1938
428.4694	0.1824
428.6735	0.1866
428.8775	0.1892
429.0815	0.1766
429.2855	0.1758
429.4895	0.1801
429.6935	0.1814
429.8975	0.1756
430.1014	0.1767
430.3053	0.1811
430.5093	0.1764
430.7132	0.1702
430.9171	0.1708
431.1209	0.1753
431.3248	0.1599
431.5286	0.1644
431.7325	0.1679
431.9363	0.1614
432.1401	0.1577
432.3439	0.1594
432.5477	0.1527
432.7514	0.1597
432.9552	0.161
433.1589	0.1565
433.3627	0.1626
433.5664	0.1485
433.7701	0.155
433.9737	0.1508
434.1774	0.1511
434.3811	0.1439
434.5847	0.1392
434.7883	0.1495
434.9919	0.14
435.1955	0.1465
435.3991	0.1438
435.6027	0.1389
435.8062	0.1429
436.0098	0.1319
436.2133	0.1375
436.4168	0.1307
436.6203	0.1215
436.8238	0.1285
437.0272	0.1329
437.2307	0.1256
437.4341	0.1296
437.6375	0.1267
437.841	0.1122
438.0443	0.1157
438.2477	0.1185
438.4511	0.1034
438.6545	0.1161
438.8578	0.1186
439.0611	0.1242
439.2644	0.1087
439.4677	0.118
439.671	0.1062
439.8743	0.113
440.0775	0.1019
440.2808	0.0979
440.484	0.1059
440.6872	0.1022
440.8904	0.083
441.0936	0.1005
441.2967	0.0873
441.4999	0.0943
441.703	0.0891
441.9062	0.0979
442.1093	0.1022
442.3124	0.0962
442.5155	0.0923
442.7185	0.0881
442.9216	0.0876
443.1246	0.0862
443.3276	0.086
443.5307	0.0826
443.7337	0.0876
443.9366	0.0861
444.1396	0.0771
444.3426	0.0823
444.5455	0.0694
444.7484	0.0756
444.9513	0.0719
445.1542	0.075
445.3571	0.0726
445.56	0.0716
445.7628	0.0664
445.9657	0.0789
446.1685	0.0754
446.3713	0.0711
446.5741	0.0738
446.7769	0.0674
446.9797	0.0705
447.1824	0.0653
447.3852	0.0537
447.5879	0.0684
447.7906	0.0527
447.9933	0.0638
448.196	0.0571
448.3986	0.0517
448.6013	0.0509
448.8039	0.0609
449.0066	0.0625
449.2092	0.0619
449.4118	0.0572
449.6143	0.0541
449.8169	0.0459
450.0195	0.0522
450.222	0.0564
450.4245	0.0495
450.627	0.0477
450.8295	0.0429
451.032	0.0394
451.2345	0.0386
451.4369	0.0437
451.6394	0.0448
451.8418	0.0491
452.0442	0.0407
452.2466	0.029
452.449	0.0428
452.6513	0.0395
452.8537	0.0407
453.056	0.0425
453.2583	0.0308
453.4607	0.032
453.663	0.0387
453.8652	0.0233
454.0675	0.0432
454.2697	0.032
454.472	0.0335
454.6742	0.0362
454.8764	0.0359
455.0786	0.0289
455.2808	0.0331
455.4829	0.0356
455.6851	0.0329
455.8872	0.0174
456.0893	0.0229
456.2915	0.0272
456.4935	0.0263
456.6956	0.0294
456.8977	0.0303
457.0997	0.0304
457.3018	0.0252
457.5038	0.0333
457.7058	0.0279
457.9078	0.0264
458.1098	0.0258
458.3117	0.034
458.5137	0.0238
458.7156	0.0273
458.9175	0.0227
459.1194	0.0187
459.3213	0.0268
459.5232	0.0258
459.725	0.0253
459.9269	0.0218
460.1287	0.0176
460.3305	0.0262
460.5323	0.0244
460.7341	0.0258
460.9359	0.009
461.1376	0.0255
461.3394	0.0243
461.5411	0.0251
461.7428	0.0274
461.9445	0.0174
462.1462	0.0188
462.3479	0.0173
462.5495	0.0196
462.7512	0.0235
462.9528	0.0202
463.1544	0.0108
463.356	0.015
463.5576	0.027
463.7592	0.0215
463.9607	0.0218
464.1623	0.0144
464.3638	0.0189
464.5653	0.0187
464.7668	0.0271
464.9683	0.0216
465.1697	0.0186
465.3712	0.0107
465.5726	0.0122
465.7741	0.0254
465.9755	0.0252
466.1769	0.0209
466.3782	0.0171
466.5796	0.0137
466.7809	0.0177
466.9823	0.015
467.1836	0.0104
467.3849	0.0249
467.5862	0.0029
467.7875	0.0113
467.9887	0.0231
468.19	0.0176
468.3912	0.0231
468.5924	0.0111
468.7936	0.0168
468.9948	0.0142
469.196	0.0137
469.3972	0.0141
469.5983	0.0097
469.7994	0.0227
470.0006	0.0098
470.2017	0.011
470.4027	0.025
470.6038	0.0077
470.8049	0.0116
471.0059	0.0238
471.2069	0.0076
471.408	0.0133
471.6089	0.026
471.8099	0.0159
472.0109	0.0173
472.2119	0.0174
472.4128	0.007
472.6137	0.02
472.8146	0.0193
473.0155	0.0179
473.2164	0.0146
473.4173	0.003
473.6181	0.003
473.819	0.0108
474.0198	0.0082
474.2206	0.001
474.4214	0.0107
474.6222	0.0103
474.8229	0.0059
475.0237	0.0111
475.2244	0.0145
475.4251	0.0055
475.6258	0.0085
475.8265	0.0176
476.0272	0.0062
476.2278	0.012
476.4285	0.0123
476.6291	0.0158
476.8297	0.015
477.0303	0.0011
477.2309	0.0159
477.4315	0.0185
477.632	0.0069
477.8326	0.0131
478.0331	0.0148
478.2336	0.0142
478.4341	0.0182
478.6346	0.0123
478.8351	0.0098
479.0355	0.0169
479.236	0.0209
479.4364	0.0093
479.6368	0.018
479.8372	0.0069
480.0376	0.0102
480.2379	0.0155
480.4383	0.0153
480.6386	0.0034
480.8389	0.0133
481.0392	0.0144
481.2395	0.0147
481.4398	0.0095
481.6401	0.0123
481.8403	0.0132
482.0405	0.0115
482.2408	0.0126
482.441	0.0163
482.6411	0.0019
482.8413	0.0183
483.0415	0.019
483.2416	0.0088
483.4417	0.0107
483.6419	0.003
483.8419	0.0082
484.042	0.0085
484.2421	0.0028
484.4422	0.0048
484.6422	0.0061
484.8422	0.0111
485.0422	0.01
485.2422	0.0089
485.4422	0.0069
485.6422	0.0108
485.8421	0.0086
486.042	0.0194
486.242	0.0073
486.4419	0.0088
486.6417	0.0063
486.8416	0.0106
487.0415	0.0075
487.2413	0.0048
487.4411	0.0116
487.641	0.007
487.8408	0.0081
488.0405	0.0164
488.2403	0.01
488.4401	0.0067
488.6398	0.0132
488.8395	0.0077
489.0392	0.0108
489.2389	0.0116
489.4386	0.0029
489.6383	0.0135
489.8379	0.0109
490.0376	0.0146
490.2372	0.0138
490.4368	0.0026
490.6364	0.0103
490.836	0.006
491.0355	0.0016
491.2351	0.0114
491.4346	0.0097
491.6341	0.0076
491.8336	0.0076
492.0331	0.0065
492.2326	0.0126
492.432	0.0107
492.6315	0.0135
492.8309	0.006
493.0303	0.0055
493.2297	0.0147
493.4291	0.0113
493.6284	0.0186
493.8278	0.0095
494.0271	0.0157
494.2264	0.008
494.4257	0.0106
494.625	0.008
494.8243	0.0104
495.0236	0.0139
495.2228	0.0189
495.422	0.0076
495.6213	0.0127
495.8205	0.0116
496.0196	0.0079
496.2188	0.0153
496.418	0.0094
496.6171	0.0108
496.8162	0.0136
497.0153	0.0078
497.2144	0.0099
497.4135	0.0151
497.6126	0.0066
497.8116	0.0036
498.0107	0.0101
498.2097	0.0154
498.4087	0.012
498.6077	0.002
498.8067	0.0121
499.0056	0.0149
499.2046	0.0159
499.4035	0.0057
499.6024	0.0028
499.8013	0.0159
500.0002	0.0092
500.199	0.0154
500.3979	0.0085
500.5967	0.0105
500.7956	0.0118
500.9944	0.0086
501.1932	0.0188
501.3919	0.0123
501.5907	0.015
501.7895	0.006
501.9882	0.0109
502.1869	0.0141
502.3856	0.0037
502.5843	0.0105
502.783	0.0158
502.9816	0.0142
503.1803	0.0156
503.3789	0.0235
503.5775	0.011
503.7761	0.0087
503.9747	0.0109
504.1732	0.0059
504.3718	0.0171
504.5703	0.0116
504.7689	0.0082
504.9674	0.0113
505.1658	0.0061
505.3643	0.0137
505.5628	0.0148
505.7612	0.0138
505.9597	0.0038
506.1581	0.0057
506.3565	0.0079
506.5549	0.0039
506.7532	0.002
506.9516	0.0189
507.1499	0.0089
507.3482	0.0072
507.5465	0.013
507.7448	0.0139
507.9431	0.0148
508.1414	0.0008
508.3396	0.0096
508.5379	0.0036
508.7361	0.012
508.9343	0.0147
509.1325	0.0233
509.3306	0.0075
509.5288	0.0015
509.7269	0.0184
509.9251	0.016
510.1232	0.0046
510.3213	0.0096
510.5193	0.0137
510.7174	0.0054
510.9154	0.0124
511.1135	0.009
511.3115	0.0055
511.5095	0.0161
511.7075	0.0113
511.9055	0.0048
512.1034	0.0101
512.3014	0.0173
512.4993	0.0117
512.6972	0.0111
512.8951	0.019
513.093	0.0158
513.2908	0.0278
513.4887	0.0185
513.6865	0.0128
513.8844	0.0107
514.0822	0.0122
514.2799	-0.0056
514.4777	0.0042
514.6755	0.0052
514.8732	0.0078
515.0709	0.0136
515.2687	0.0134
515.4664	0.0164
515.664	0.0157
515.8617	0.0259
516.0594	0.0052
516.257	0.006
516.4546	0.017
516.6522	0.0127
516.8498	0.0077
517.0474	0.0095
517.2449	0.0072
517.4425	0.0149
517.64	0.016
517.8375	0.0161
518.035	0.0047
518.2325	0.0006
518.43	0.0078
518.6274	0.0069
518.8249	0.003
519.0223	0.018
519.2197	0.0128
519.4171	0.0103
519.6145	0.0127
519.8118	-0.0076
520.0092	0.0079
520.2065	0.0131
520.4038	0.0201
520.6011	0.0143
520.7984	0.018
520.9956	0.0183
521.1929	0.0135
521.3901	0.0145
521.5874	0.0185
521.7846	0.0128
521.9818	0.0114
522.1789	-0.0038
522.3761	0.0144
522.5732	0.0138
522.7704	0.0085
522.9675	-0.0073
523.1646	-0.0043
523.3617	0.0163
523.5587	0.0109
523.7558	0.0086
523.9528	0.0165
524.1498	0.0115
524.3468	0.004
524.5438	0.0113
524.7408	0.0037
524.9378	0.0185
525.1347	0.0093
525.3316	0.0116
525.5285	0.0043
525.7254	0.0053
525.9223	0.0212
526.1192	0.0171
526.316	0.0127
526.5129	0.0147
526.7097	0.0119
526.9065	0.0211
527.1033	0.0048
527.3	0.0084
527.4968	0.0139
527.6935	0.0032
527.8903	0.0174
528.087	0.0129
528.2837	0.0115
528.4804	0.0066
528.677	0.018
528.8737	0.0229
529.0703	-0.0005
529.2669	0.0232
529.4635	0.0011
529.6601	-0.0031
529.8567	0.0026
530.0532	0.0063
530.2498	0.0146
530.4463	0.0052
530.6428	0.0087
530.8393	0.0135
531.0358	-0.0015
531.2322	0.0056
531.4287	0.0049
531.6251	-0.0089
531.8215	0.0106
532.0179	0.0227
532.2143	0.0076
532.4107	0.0103
532.607	0.0071
532.8034	0.0112
532.9997	0.0025
533.196	0.0087
533.3923	0.0171
533.5886	0.0094
533.7848	0.0125
533.9811	0.01
534.1773	0.0121
534.3735	0.0111
534.5697	0.0056
534.7659	0.0113
534.9621	0.0168
535.1582	0.0116
535.3544	0.0152
535.5505	0.016
535.7466	0.0123
535.9427	0.0034
536.1387	0.0033
536.3348	0.0123
536.5308	0.0048
536.7269	0.0003
536.9229	0.0031
537.1189	0.0112
537.3148	0.0123
537.5108	0.0093
537.7068	0.0153
537.9027	-0.0029
538.0986	0.0149
538.2945	0.0058
538.4904	0.0006
538.6863	0.0071
538.8821	0.0143
539.078	0.0143
539.2738	0.0084
539.4696	0.0072
539.6654	0.0056
539.8611	0.0145
540.0569	0.0053
540.2526	0.0138
540.4484	0.0004
540.6441	0.0057
540.8398	0.0222
541.0355	0.0084
541.2311	0.0125
541.4268	0.0176
541.6224	0.0177
541.818	0.0062
542.0136	0.0214
542.2092	0.0072
542.4048	0.0169
542.6003	0.0104
542.7959	0.0086
542.9914	0.0109
543.1869	0.0079
543.3824	0.0141
543.5779	0.0227
543.7734	0.0216
543.9688	0.0101
544.1642	0.0014
544.3596	0.0197
544.555	0.0053
544.7504	0.0192
544.9458	0.0172
545.1411	0.0164
545.3365	0.0123
545.5318	0.0088
545.7271	0.019
545.9224	0.0008
546.1177	0.0121
546.3129	0.0032
546.5081	0.0067
546.7034	0.0008
546.8986	0.0176
547.0938	0.0164
547.289	0.0118
547.4841	0.0129
547.6793	0.0042
547.8744	0.0096
548.0695	-0.0037
548.2646	0.0165
548.4597	0.0032
548.6548	0.0175
548.8498	0.0092
549.0448	0.0139
549.2399	0.0188
549.4349	0.0071
549.6298	0.012
549.8248	0.0125
550.0198	0.0155
550.2147	0.0106
550.4096	0.0111
550.6045	0.0065
550.7994	0.0115
550.9943	0.0169
551.1892	-0.0105
551.384	0.0219
551.5788	0.0042
551.7737	0.0136
551.9685	0.0077
552.1632	0.0086
552.358	0.0088
552.5528	0.0143
552.7475	0.0149
552.9422	0.0175
553.1369	0.0145
553.3316	0.0166
553.5263	0.0172
553.7209	0.0005
553.9156	0.0096
554.1102	0.0114
554.3048	0.0007
554.4994	0.003
554.694	0.0084
554.8885	0.0154
555.0831	0.019
555.2776	0.0054
555.4721	0.0064
555.6666	0.0201
555.8611	0.0073
556.0555	0.0078
556.25	0.0193
556.4444	0.0083
556.6388	0.0019
556.8332	0.0221
557.0276	0.0092
557.222	-0.0026
557.4163	0.0163
557.6107	0.0146
557.805	0.0031
557.9993	0.0104
558.1936	0.0031
558.3879	0.0233
558.5821	0.0058
558.7764	0.0072
558.9706	-0.0005
559.1648	0.0145
559.359	-0.002
559.5532	0.0098
559.7473	0.0053
559.9415	0.0147
560.1356	0.0144
560.3297	0.0043
560.5238	0.0116
560.7179	0.0089
560.9119	0.0115
561.106	-0.0035
561.3	0.0134
561.494	-0.0034
561.688	0.0033
561.882	0.0016
562.076	0.0067
562.2699	0.0137
562.4639	0.0181
562.6578	0.0185
562.8517	0.0081
563.0456	0.0065
563.2395	0.0102
563.4333	0.0086
563.6272	0.0035
563.821	0.0075
564.0148	0.0104
564.2086	0.0132
564.4024	0.0129
564.5961	0.0108
564.7899	0.0149
564.9836	0.0077
565.1773	0.023
565.371	0.0131
565.5647	0.01
565.7584	0.0178
565.952	0.0088
566.1456	0.0166
566.3393	0.0107
566.5329	0.0091
566.7264	0.0127
566.92	0.0102
567.1136	0.0023
567.3071	-0.0028
567.5006	0.0172
567.6941	0.0075
567.8876	0.0048
568.0811	0.0223
568.2745	0.009
568.468	0.016
568.6614	0.0114
568.8548	0.0062
569.0482	0.0129
569.2416	0.0091
569.4349	0.0105
569.6283	0.0112
569.8216	0.0098
570.0149	0.005
570.2082	0.0181
570.4015	0.0079
570.5947	0.0106
570.788	0.0082
570.9812	0.0089
571.1744	0.009
571.3676	0.0048
571.5608	0.0067
571.754	0.0151
571.9471	0.0116
572.1402	0.0076
572.3333	0.0141
572.5264	0.0103
572.7195	0.0021
572.9126	0.0061
573.1057	0.0117
573.2987	0.0092
573.4917	0.0082
573.6847	0.0063
573.8777	0.012
574.0707	0.0113
574.2636	0.0094
574.4566	0.0068
574.6495	0.0092
574.8424	0.0115
575.0353	0.0165
575.2281	0.0116
575.421	0.0057
575.6138	0.0036
575.8067	0.009
575.9995	0.0109
576.1923	0.0094
576.385	0.0117
576.5778	0.0133
576.7706	0.0094
576.9633	0.0107
577.156	-0.0009
577.3487	0.0054
577.5414	0.0045
577.734	0.0064
577.9267	0.0099
578.1193	0.0078
578.3119	0.0075
578.5045	0.0086
578.6971	0.0069
578.8897	0.0077
579.0822	0.0108
579.2747	0.0071
579.4673	0.0116
579.6598	0.0126
579.8522	0.0063
580.0447	0.0108
580.2372	0.0157
580.4296	0.0103
580.622	0.0074
580.8144	0.011
581.0068	0.0086
581.1992	0.0111
581.3915	0.0006
581.5839	0.008
581.7762	0.0083
581.9685	0.0084
582.1608	0.0076
582.353	0.0045
582.5453	0.0103
582.7375	0.0102
582.9298	0.0022
583.122	0.0062
583.3142	0.0108
583.5063	0.0049
583.6985	0.0038
583.8906	0.0077
584.0827	0.0063
584.2749	0.0058
584.4669	0.0064
584.659	0.0109
584.8511	0.0129
585.0431	0.0126
585.2352	0.0064
585.4272	0.0099
585.6192	0.0119
585.8111	0.0062
586.0031	0.0047
586.195	0.0066
586.387	0.0054
586.5789	0.0101
586.7708	0.0119
586.9627	0.0096
587.1545	0.0114
587.3464	0.013
587.5382	0.0075
587.73	0.0091
587.9218	0.003
588.1136	0.0061
588.3053	0.0081
588.4971	0.0115
588.6888	0.0083
588.8805	0.0051
589.0722	0.0208
589.2639	0.0113
589.4556	0.0074
589.6472	0.0185
589.8389	0.0081
590.0305	0.0105
590.2221	0.0107
590.4137	0.0094
590.6052	0.009
590.7968	0.011
590.9883	0.0076
591.1798	0.0005
591.3713	0.0107
591.5628	0.0086
591.7543	0.0098
591.9458	0.0022
592.1372	0.0073
592.3286	0.0074
592.52	0.0078
592.7114	0.0092
592.9028	0.0119
593.0941	0.0072
593.2855	0.0071
593.4768	0.0128
593.6681	0.0175
593.8594	0.0107
594.0506	0.0058
594.2419	0.004
594.4331	0.0103
594.6244	0.0064
594.8156	0.0085
595.0067	0.0044
595.1979	0.0072
595.3891	0.01
595.5802	0.015
595.7713	0.0086
595.9624	0.0116
596.1535	0.0073
596.3446	0.0058
596.5357	0.0154
596.7267	0.0092
596.9177	0.0054
597.1087	0.0072
597.2997	0.009
597.4907	0.0035
597.6817	0.0126
597.8726	0.011
598.0635	0.0034
598.2544	0.0116
598.4453	0.0132
598.6362	0.0039
598.827	0.0039
599.0179	0.0095
599.2087	0.0107
599.3995	0.0103
599.5903	0.0186
599.7811	0.0202
599.9718	0.0048
600.1626	0.0067
600.3533	0.0031
600.544	0.0116
600.7347	0.006
600.9254	0.0123
601.116	0.0113
601.3067	0.008
601.4973	0.0086
601.6879	0.0101
601.8785	0.0071
602.0691	0.0083
602.2596	0.0128
602.4502	0.0104
602.6407	0.0139
602.8312	0.0102
603.0217	0.0102
603.2122	0.007
603.4027	0.0069
603.5931	0.0083
603.7835	0.01
603.9739	0.002
604.1643	0.0095
604.3547	0.0146
604.5451	0.0112
604.7354	0.0068
604.9257	0.007
605.116	0.0018
605.3063	0.0168
605.4966	0.0083
605.6869	0.0167
605.8771	0.0165
606.0673	0.0095
606.2575	0.0069
606.4477	0.0084
606.6379	0.0045
606.8281	0.0097
607.0182	0.0147
607.2083	0.0108
607.3985	0.0062
607.5885	0.0085
607.7786	0.0054
607.9687	0.0051
608.1587	0.0138
608.3488	0.0031
608.5388	0.0029
608.7288	0.0054
608.9187	0.0007
609.1087	0.0144
609.2986	0.0104
609.4886	0.0074
609.6785	0.013
609.8684	0.0051
610.0582	0.0068
610.2481	0.0054
610.4379	0.0089
610.6278	0.0091
610.8176	0.0116
611.0074	0.0087
611.1971	0.0046
611.3869	0.005
611.5766	0.0013
611.7664	0.0128
611.9561	0.009
612.1458	0.0137
612.3354	0.0062
612.5251	0.0064
612.7147	0.0111
612.9044	0.0035
613.094	0.0099
613.2836	0.012
613.4731	0.0045
613.6627	0.0145
613.8522	0.0126
614.0417	0.0145
614.2313	0.0096
614.4207	0.0169
614.6102	0.0145
614.7997	0.0219
614.9891	0.0108
615.1785	-0.0007
615.3679	0.0112
615.5573	0.0104
615.7467	0.0085
615.9361	0.0003
616.1254	0.0156
616.3147	0.0069
616.504	0.002
616.6933	0.0053
616.8826	0.0102
617.0718	0.0127
617.2611	0.0102
617.4503	0.0135
617.6395	0.0138
617.8287	0.0153
618.0179	0.0125
618.207	0.0119
618.3961	0.0102
618.5853	0.0116
618.7744	0.0076
618.9634	0.0098
619.1525	0.0074
619.3416	0.0027
619.5306	0.0106
619.7196	0.0123
619.9086	0.0005
620.0976	-0.0102
620.2866	0.0074
620.4755	0.0042
620.6645	0.014
620.8534	0.0114
621.0423	0.0008
621.2312	0.0074
621.42	0.0036
621.6089	0.006
621.7977	0.0101
621.9865	0.0082
622.1753	-0.0013
622.3641	-0.0095
622.5529	0.0011
622.7416	0.0062
622.9303	0.0085
623.1191	0.0069
623.3078	0.0166
623.4964	0.0166
623.6851	0.0073
623.8737	0.0029
624.0624	-0.0103
624.251	0.0082
624.4396	0.0085
624.6282	0.0163
624.8167	-0.0065
625.0053	0.0231
625.1938	0.0173
625.3823	0.0178
625.5708	0.014
625.7593	0.0082
625.9477	0.0142
626.1362	0.005
626.3246	0.0062
626.513	0.0058
626.7014	0.0127
626.8898	0.0146
627.0781	0.011
627.2665	0.0183
627.4548	-0.0055
627.6431	0.0138
627.8314	0.0166
628.0197	0.018
628.2079	-0.0068
628.3962	0.0129
628.5844	0.0138
628.7726	0.0081
628.9608	0.0143
629.1489	0.0046
629.3371	0.0035
629.5252	0.0091
629.7134	-0.0015
629.9015	0.0132
630.0895	-0.0016
630.2776	0.0017
630.4657	0.0147
630.6537	0.0094
630.8417	-0.0047
631.0297	-0.0041
631.2177	0.0169
631.4057	-0.0007
631.5936	-0.0017
631.7815	0.0185
631.9695	0.0284
632.1574	0.0114
632.3452	0.023
632.5331	0.0175
632.7209	0.0127
632.9088	0.0018
633.0966	0.0259
633.2844	0.0012
633.4722	0.0175
633.6599	0.0139
633.8477	0.0235
634.0354	0.0069
634.2231	-0.0097
634.4108	0.0015
634.5985	0.0324
634.7861	0.0198
634.9738	0.0101
635.1614	0.0049
635.349	0.0077
635.5366	0.0123
635.7242	0.0022
635.9117	0.0112
636.0993	0.0203
636.2868	0.0091
636.4743	0.0153
636.6618	-0.0041
636.8492	0.0086
637.0367	-0.0037
637.2241	-0.0006
637.4115	0.0162
637.5989	0.0064
637.7863	0.0324
637.9737	0.0109
638.161	0.0097
638.3484	0.0134
638.5357	0.0091
638.723	0.0153
638.9103	-0.0083
639.0975	0.0005
639.2848	0.0202
639.472	0.0251
639.6592	0.0015
639.8464	0.0062
640.0336	0.0206
640.2208	0.0011
640.4079	0.0029
640.595	0.0026
640.7821	0.0139
640.9692	0.0194
641.1563	0.0036
641.3434	0.0051
641.5304	0.0224
641.7174	0.0465
641.9044	0.0111
642.0914	0.0155
642.2784	0.0169
642.4653	0.0066
642.6523	0.0068
642.8392	0.0026
643.0261	0.0128
643.213	0.0044
643.3999	0.0281
643.5867	0.0292
643.7735	0.0144
643.9604	0.0162
644.1472	0.0216
644.3339	0.0009
644.5207	0.023
644.7075	0.0002
644.8942	-0.0043
645.0809	0.0239
645.2676	0.0146
645.4543	0.0021
645.6409	0.0262
645.8276	0.0127
646.0142	0.0249
646.2008	0.0076
646.3874	-0.0045
646.574	0.0068
646.7605	0.0216
646.9471	0.01
647.1336	-0.0127
647.3201	0.0086
647.5066	-0.0094
647.6931	0.0086
647.8795	0.0172
648.0659	0.0115
648.2524	0.0227
648.4388	0.0168
648.6252	0.0146
648.8115	0.0094
648.9979	0.0143
649.1842	0.0156
649.3705	0.0175
649.5568	-0.0011
649.7431	0.0006
649.9294	0.0145
650.1156	-0.0042
650.3018	0.0279
650.488	0.0156
650.6742	0.0272
650.8604	0.022
651.0466	0.0194
651.2327	0.0106
651.4188	-0.0001
651.6049	0.0367
651.791	0.0026
651.9771	0.0074
652.1632	0.0203
652.3492	0.0076
652.5352	0.0072
652.7212	-0.0072
652.9072	0.001
653.0932	0.0292
653.2791	0.0091
653.465	0.0179
653.651	0.0217
653.8369	0.0108
654.0227	0.0036
654.2086	0.0209
654.3944	0.0169
654.5803	-0.0037
654.7661	0.0068
654.9519	0.0066
655.1377	0.0001
655.3234	0.0001
655.5092	0.0001
655.6949	0.0001
655.8806	0.0001
656.0663	0.0001
656.2519	0.0001
656.4376	0.0001
656.6232	0.0001
656.8088	0.0001
656.9945	0.0001
657.18	0.0001
657.3656	0.0001
657.5511	0.0001
657.7367	0.0001
657.9222	0.0001
658.1077	0.0001
658.2932	0.0001
658.4786	0.0001
658.6641	0.0001
658.8495	0.0001
659.0349	0.0001
659.2203	0.0001
659.4057	0.01
659.591	0.2817
659.7764	0.0273
659.9617	0.022
660.147	0.0146
660.3323	0.0111
660.5176	0.0223
660.7028	0.0054
660.888	0.0036
661.0733	0.0224
661.2585	0.0071
661.4436	0.0145
661.6288	0.0148
661.8139	0.0104
661.9991	-0.0069
662.1842	0.0215
662.3693	0.0218
662.5544	0.0115
662.7394	0.0146
662.9245	0.0105
663.1095	-0.0065
663.2945	0.0025
663.4795	-0.0031
663.6644	0.0021
663.8494	-0.0001
664.0343	0.0259
664.2193	0.0039
664.4042	0.0133
664.589	0.0187
664.7739	0.0121
664.9587	-0.0035
665.1436	-0.0025
665.3284	0.0119
665.5132	-0.0116
665.698	0.0068
665.8827	0.0253
666.0675	-0.01
666.2522	0.0115
666.4369	0.0019
666.6216	0.0064
666.8063	-0.0004
666.9909	0.0195
667.1756	0.0062
667.3602	0.0092
667.5448	0.0175
667.7294	0.008
667.9139	0.001
668.0985	0.0366
668.283	-0.0031
668.4675	0.0317
668.652	0.009
668.8365	-0.0027
669.0209	0.0146
669.2054	0.0002
669.3898	0.0044
669.5742	0.024
669.7586	0.0268
669.943	0.0351
670.1273	0.0189
670.3117	0.0428
670.496	0.0116
670.6803	0.0097
670.8646	-0.02
671.0488	0.0164
671.2331	-0.0121
671.4173	0.0039
671.6015	0.0051
671.7857	0.007
671.9699	0.0326
672.1541	0.0032
672.3382	0.0105
672.5223	0.008
672.7064	0.0004
672.8905	-0.0068
673.0746	0.0122
673.2587	0.0267
673.4427	0.013
673.6267	-0.0022
673.8107	0.0351
673.9947	0.0237
674.1787	0.011
674.3626	0.0362
674.5465	0.0257
674.7304	-0.0091
674.9143	-0.002
675.0982	-0.0035
675.2821	0.0025
675.4659	0.0147
675.6497	0.0218
675.8335	0.0035
676.0173	0.0073
676.2011	0.0228
676.3849	0.0063
676.5686	0.0374
676.7523	-0.0063
676.936	-0.0015
677.1197	-0.0001
677.3034	0.0437
677.487	0.0125
677.6706	0.0269
677.8542	0.0006
678.0378	0.0059
678.2214	0.0135
678.405	0.0095
678.5885	0.0117
678.772	0.0299
678.9555	0.012
679.139	0.0125
679.3225	0.0051
679.5059	0.0063
679.6894	0.0252
679.8728	0.0147
680.0562	0.0075
680.2395	0.0018
680.4229	-0.0045
680.6062	0.0226
680.7896	-0.0054
680.9729	0.0287
681.1562	0.0058
681.3394	-0.0014
681.5227	0.0147
681.7059	0.013
681.8891	0.0268
682.0723	0.0113
682.2555	0.0145
682.4387	0.0183
682.6218	0.0137
682.805	0.018
682.9881	0.0339
683.1712	0.0108
683.3542	0.0262
683.5373	0.0046
683.7203	0.0166
683.9034	-0.0031
684.0864	0.0142
684.2694	0.0132
684.4523	0.022
684.6353	0.0029
684.8182	-0.0015
685.0011	0.0236
685.184	-0.001
685.3669	0.0214
685.5498	-0.0027
685.7326	0.0116
685.9154	0.0003
686.0982	0.0199
686.281	0.0017
686.4638	0.0223
686.6465	0.0039
686.8293	0.0148
687.012	0.0182
687.1947	0.0006
687.3774	0.0141
687.56	-0.0219
687.7427	0.0231
687.9253	-0.0158
688.1079	0.0161
688.2905	0.003
688.4731	0.031
688.6556	0.0212
688.8382	-0.0114
689.0207	0.0116
689.2032	0.0069
689.3857	-0.0011
689.5681	0.0232
689.7506	0.0291
689.933	-0.0019
690.1154	0.0205
690.2978	0.0103
690.4802	0.0174
690.6626	0.0065
690.8449	0.0161
691.0272	0.0139
691.2095	-0.0108
691.3918	0.0099
691.5741	0.0234
691.7563	-0.0007
691.9386	0.0313
692.1208	0.022
692.303	-0.0144
692.4852	0.0052
692.6673	0.0108
692.8495	0.0199
693.0316	0.0128
693.2137	0.0086
693.3958	0.0091
693.5778	0.01
693.7599	0.0177
693.9419	-0.0244
694.1239	0.0079
694.3059	0.043
694.4879	0.0126
694.6699	-0.0063
694.8518	0.0211
695.0337	0.029
695.2157	0.0188
695.3975	0.0028
695.5794	0.0007
695.7613	0.0035
695.9431	-0.0182
696.1249	0.0324
696.3067	0.0178
696.4885	0.0202
696.6703	0.0089
696.852	-0
697.0337	0.0211
697.2154	0.009
697.3971	0.0149
697.5788	0.0184
697.7605	-0.0131
697.9421	0.0109
698.1237	0.024
698.3053	-0.0056
698.4869	0.0048
698.6685	-0.0208
698.85	0.0353
699.0315	-0.0044
699.213	0.012
699.3945	0.0116
699.576	0.0236
699.7575	0.0308
699.9389	-0.0124
700.1203	0.0262
700.3017	-0.0208
700.4831	0.0298
700.6645	0.0367
700.8458	-0.013
701.0271	0.0288
701.2084	0.0215
701.3897	0.03
701.571	-0.0113
701.7523	0.0143
701.9335	0.003
702.1147	0.0247
702.2959	0.0018
702.4771	0.0108
702.6583	0.0266
702.8394	0.004
703.0205	0.0306
703.2016	-0.0008
703.3827	0.0136
703.5638	0.0045
703.7449	0.0309
703.9259	0.0043
704.1069	0.0007
704.2879	-0.0009
704.4689	0.0056
704.6499	-0.0001
704.8308	0.0515
705.0117	0.0283
705.1927	0.0048
705.3735	-0.0063
705.5544	0.0187
705.7353	0.0236
705.9161	-0.0023
706.0969	0.0254
706.2777	0.0028
706.4585	-0.0067
706.6393	0.016
706.82	0.0196
707.0007	-0.0155
707.1815	0.0201
707.3621	0.0508
707.5428	0.0231
707.7235	0.0194
707.9041	0.008
708.0847	0.001
708.2653	0.0246
708.4459	0.0086
708.6265	-0.0067
708.807	0.0208
708.9875	0.0076
709.168	-0.0029
709.3485	0.0274
709.529	0.0117
709.7095	-0.0126
709.8899	-0.0043
710.0703	0.0109
710.2507	0.0119
710.4311	-0.0118
710.6115	0.0234
710.7918	0.0163
710.9721	0.0034
711.1524	-0.028
711.3327	-0.0257
711.513	0.0071
711.6932	0.0037
711.8735	0.0532
712.0537	0.0023
712.2339	0.0023
712.4141	0.039
712.5942	-0.0066
712.7744	0.0188
712.9545	0.0235
713.1346	0.0415
713.3147	0.021
713.4947	-0.0066
713.6748	0.005
713.8548	0.0077
714.0348	0.0168
714.2148	0.0053
714.3948	0.0183
714.5748	0.0144
714.7547	0.0275
714.9346	0.0131
715.1145	-0.0086
715.2944	-0.0118
715.4743	0.0256
715.6541	0.009
715.834	0.0126
716.0138	0.0163
716.1936	-0.008
716.3733	-0.012
716.5531	-0.0012
716.7328	0.0254
716.9126	0.0111
717.0923	-0.0201
717.2719	0.0049
717.4516	0.0007
717.6312	-0.0052
717.8109	0.0271
717.9905	0.0347
718.1701	0.0303
718.3496	-0.0063
718.5292	-0.0182
718.7087	0.0229
718.8882	0.0043
719.0677	0.0025
719.2472	0.0105
719.4267	0.0044
719.6061	0.0046
719.7856	0.0115
719.965	0.0058
720.1443	0.015
720.3237	0.0222
720.5031	-0.0009
720.6824	0.0103
720.8617	0.0075
721.041	0.0498
721.2203	0.0118
721.3995	-0.0054
721.5788	0.0155
721.758	-0.0022
721.9372	0.023
722.1164	0.0169
722.2956	-0.0053
722.4747	0.011
722.6538	-0.0131
722.8329	0.0484
723.012	-0.0159
723.1911	-0.0039
723.3702	0.0019
723.5492	-0.0128
723.7282	-0.0069
723.9072	0.028
724.0862	0.0195
724.2652	0.0025
724.4441	0.009
724.623	0.0163
724.8019	0.0024
724.9808	0.0303
725.1597	0.0229
725.3385	0.0054
725.5174	0.0043
725.6962	0.0068
725.875	0.0372
726.0538	-0.0083
726.2325	0.0319
726.4112	-0.0166
726.59	0.0034
726.7687	0.002
726.9474	0.0101
727.126	0.04
727.3047	-0.0009
727.4833	0.0067
727.6619	0.0068
727.8405	0.0099
728.0191	0.0251
728.1976	0.0231
728.3762	0.0175
728.5547	0.0177
728.7332	0.0332
728.9116	0.02
729.0901	0.0248
729.2686	0.0169
729.447	0.0086
729.6254	-0.0001
729.8038	0.0185
729.9821	-0.0122
730.1605	0.0416
730.3388	0.0049
730.5171	0.0051
730.6954	-0.0065
730.8737	0.0184
731.0519	0.005
731.2302	0.0241
731.4084	0.0312
731.5866	0.0117
731.7648	0.0069
731.9429	0.0247
732.1211	-0.0021
732.2992	0.0096
732.4773	0.0146
732.6554	-0.017
732.8335	0.0182
733.0115	0.0296
733.1896	-0.0075
733.3676	0.0323
733.5456	-0.0026
733.7235	0.0051
733.9015	0.0176
734.0794	0.0118
734.2574	-0.0126
734.4353	0.0287
734.6131	0.0008
734.791	0.0093
734.9689	-0.0241
735.1467	0.0052
735.3245	0.0273
735.5023	0.0216
735.68	-0.0114
735.8578	0.0253
736.0355	0.0237
736.2132	0.0085
736.3909	0.0096
736.5686	0.0082
736.7463	-0.007
736.9239	0.0227
737.1015	0.0189
737.2791	0.0191
737.4567	0.0252
737.6343	-0.0047
737.8118	0.0256
737.9894	0.0229
738.1669	0.0073
738.3444	0.0439
738.5218	-0.007
738.6993	0.0039
738.8767	0.0002
739.0541	-0.0011
739.2315	0.0123
739.4089	0.0394
739.5863	-0.0029
739.7636	0.01
739.9409	-0.0306
740.1182	0.0014
740.2955	0.0198
740.4728	-0.0117
740.65	0.0003
740.8272	0.0009
741.0044	-0.0342
741.1816	0.0212
741.3588	0.002
741.5359	-0.0031
741.7131	0.0338
741.8902	0.0099
742.0673	0.002
742.2444	0.0264
742.4214	0.0208
742.5985	0.0016
742.7755	-0.0141
742.9525	-0.0143
743.1295	-0.0293
743.3064	0.0198
743.4834	0.0344
743.6603	0.0312
743.8372	-0.0388
744.0141	0.0601
744.191	-0.0006
744.3678	-0.0126
744.5446	-0.0077
744.7215	0.034
744.8982	0.0101
745.075	0.074
745.2518	0.0146
745.4285	0.0038
745.6052	0.0078
745.7819	0.0027
745.9586	-0.0015
746.1353	-0.0234
746.3119	0.0094
746.4885	0.0202
746.6651	0.0086
746.8417	-0.0093
747.0183	0.0486
747.1948	0.0326
747.3714	0.0127
747.5479	0.0148
747.7244	-0.0001
747.9008	-0.0229
748.0773	0.0249
748.2537	0.0403
748.4301	0.0238
748.6065	-0.0148
748.7829	-0.0009
748.9593	0.0007
749.1356	0.0181
749.3119	0.0265
749.4882	0.0383
749.6645	0.0048
749.8408	0.0127
750.017	0.0384
750.1933	-0.016
750.3695	-0.0001
750.5457	0.0133
750.7218	-0.0126
750.898	-0.0071
751.0741	0.0125
751.2502	0.0204
751.4263	-0.006
751.6024	0.0107
751.7784	0.0045
751.9545	-0.0099
752.1305	0.0184
752.3065	0.0206
752.4825	0.0043
752.6584	0.0331
752.8344	-0.0146
753.0103	-0.0118
753.1862	0.0304
753.3621	0.0169
753.5379	0.0046
753.7138	0.0098
753.8896	0.0041
754.0654	-0.0066
754.2412	0.0125
754.417	0.0326
754.5927	0.0116
754.7685	0.0079
754.9442	0.032
755.1199	0.0296
755.2956	0.0156
755.4712	0.0077
755.6469	0.0017
755.8225	0.0095
755.9981	0.009
756.1736	0.0101
756.3492	0.0128
756.5248	0.026
756.7003	-0.0057
756.8758	-0.0026
757.0513	0.003
757.2267	0.0099
757.4022	0.0143
757.5776	0.01
757.753	0.04
757.9284	0.0024
758.1038	0.0249
758.2791	-0.0034
758.4545	-0.0052
758.6298	-0.0077
758.8051	-0.0006
758.9803	0.0059
759.1556	0.0006
759.3308	0.0142
759.506	0.0159
759.6812	0.0042
759.8564	0.019
760.0316	0.0076
760.2067	0.0427
760.3819	-0.0035
760.557	0.0052
760.732	0.016
760.9071	0.0358
761.0821	-0.0014
761.2572	-0.0003
761.4322	0.0068
761.6072	-0.0008
761.7821	-0.0202
761.9571	0.0276
762.132	-0.0073
762.3069	0.0166
762.4818	0.0037
762.6567	0.0286
762.8316	-0.0018
763.0064	0.0296
763.1812	0.0091
763.356	-0.005
763.5308	0.0161
763.7055	-0.0004
763.8803	0.0084
764.055	-0.0016
764.2297	-0.0103
764.4044	-0.0049
764.579	-0.0064
764.7537	-0.0024
764.9283	0.0187
765.1029	0.0242
765.2775	0.0224
765.4521	-0.0015
765.6266	-0.005
765.8011	0.0179
765.9756	0.0209
766.1501	-0.0047
766.3246	0.0123
766.4991	0.012
766.6735	0.0412
766.8479	-0.0199
767.0223	-0.0001
767.1967	0.0027
767.371	0.0172
767.5454	0.0244
767.7197	0.0264
767.894	0.0084
768.0683	0.0194
768.2425	0.0178
768.4168	-0.0132
768.591	-0.0015
768.7652	0.0007
768.9394	-0.0221
769.1135	0.014
769.2877	0.0174
769.4618	0.0085
769.6359	0.0041
769.81	0.0217
769.984	0.0298
770.1581	0.001
770.3321	0.057
770.5061	-0.0001
770.6801	0.0214
770.8541	0.01
771.028	0.0328
771.202	0.016
771.3759	0.0136
771.5498	0.0105
771.7236	0.0172
771.8975	0.0399
772.0713	0.0492
772.2451	-0.0093
772.4189	0.0152
772.5927	-0.029
772.7665	-0.0036
772.9402	-0.0012
773.1139	0.0313
773.2876	0.0076
773.4613	0.0113
773.635	0.0231
773.8086	0.0499
773.9822	0.0188
774.1558	0.0446
774.3294	-0.0155
774.503	-0.0138
774.6765	0.0286
774.8501	-0.0002
775.0236	0.0259
775.1971	0.0217
775.3705	0.0069
775.544	-0.018
775.7174	0.0601
775.8908	-0.0011
776.0642	0.0039
776.2376	0.0463
776.4109	-0.0252
776.5843	0.0086
776.7576	0.025
776.9309	0.0596
777.1041	-0.0464
777.2774	0.0167
777.4506	-0.0036
777.6238	0.0104
777.797	0.0252
777.9702	0.036
778.1434	0.0005
778.3165	-0.0008
778.4896	-0.0127
778.6627	0.0377
778.8358	-0.0059
779.0089	0.0139
779.1819	0.0202
779.3549	-0.0099
779.5279	-0.0111
779.7009	0.0467
779.8739	0.06
780.0468	-0.0222
780.2197	-0.0022
780.3926	-0.0073
780.5655	0.0332
780.7384	-0.0017
780.9112	0.0295
781.0841	0.0241
781.2569	0.0104
781.4297	0.0003
781.6024	0.0022
781.7752	0.0567
781.9479	0.0326
782.1206	0.0116
782.2933	0.0328
782.466	0.0506
782.6386	0.0027
782.8113	-0.0001
782.9839	0.029
783.1565	0.0161
783.329	0.0164
783.5016	0.0179
783.6741	0.0269
783.8466	0.0672
784.0191	0.0046
784.1916	0.0134
784.3641	-0.0022
784.5365	0.0265
784.7089	-0.0117
784.8813	0.0771
785.0537	0.0369
785.2261	0.0273
785.3984	0.0225
785.5707	0.0118
785.743	0.0343
785.9153	-0.0024
786.0876	-0.0497
786.2598	0.0158
786.432	0.0188
786.6042	0.0621
786.7764	-0.0097
786.9486	0.0012
787.1207	0.0318
787.2928	0.0335
787.4649	0.0376
787.637	-0.0031
787.8091	0.0264
787.9811	0.033
788.1532	0.0375
788.3252	0.0016
788.4972	0.023
788.6691	0.0063
788.8411	-0.0049
789.013	0.0125
789.1849	-0.0162
789.3568	0.0014
789.5287	0.0433
789.7005	-0.0476
789.8723	-0.0213
790.0442	0.0296
790.2159	0.0123
790.3877	0.0188
790.5595	0.005
790.7312	-0.0448
790.9029	-0.0023
791.0746	0.0314
791.2463	0.0139
791.4179	-0.0055
791.5896	0.095
791.7612	0.0373
791.9328	0.0047
792.1044	-0.0148
792.2759	0.0034
792.4474	0.036
792.619	0.0194
792.7905	0.0542
792.9619	0.0166
793.1334	0.0918
793.3048	0.103
793.4762	-0.0151
793.6476	-0.0358
793.819	-0.0022
793.9904	-0.008
794.1617	-0.0124
794.333	0.014
794.5043	0.0754
794.6756	0.0403
794.8469	0.0198
795.0181	-0.0132
795.1893	0.0235
795.3605	0.0421
795.5317	0.0111
795.7029	0.0023
795.874	-0.0021
796.0452	0.0549
796.2163	0.1244
796.3873	0.065
796.5584	0.0399
796.7294	0.0568
796.9005	0.0475
797.0715	0.0012
797.2425	0.0958
797.4134	0.007
797.5844	0.1073
797.7553	-0.0378
797.9262	0.0497
798.0971	0.0008
798.2679	0.0324
798.4388	0.0561
798.6096	0.0673
798.7804	0.0596
798.9512	0.0387
799.122	-0.0204
799.2927	0.0837
799.4635	-0.0291
799.6342	-0.1058
799.8049	0.0593
799.9755	-0.0084
800.1462	0.0192
800.3168	-0.0145
800.4874	-0.0039
800.658	0.0087
800.8286	0.0645
800.9991	0.0861
801.1696	-0.06
801.3402	0.055
801.5106	-0.015
801.6811	-0.004
801.8516	0.0397
802.022	-0.0171
802.1924	-0.0402
802.3628	0.047
802.5332	0.0836
802.7035	0.0076
802.8739	-0.0157
803.0442	-0.0097
803.2145	-0.0037
803.3847	0.0186
803.555	0.0792
803.7252	-0.0057
803.8954	0.0163
804.0656	-0.0123
804.2358	0.0395
804.4059	0.1884
804.5761	-0.0332
804.7462	0.0872
804.9163	0.0271
805.0864	-0.0225
805.2564	0.013
805.4264	-0.026
805.5965	0.0599
805.7665	-0.0124
805.9364	-0.0245
806.1064	-0.0152
806.2763	0.0423
806.4462	0.058
806.6161	0.0588
806.786	0.045
806.9559	0.0207
807.1257	-0.0142
807.2955	0.046
807.4653	0.0357
807.6351	0.03
807.8048	-0.0242
807.9746	0.0874
808.1443	-0.0252
808.314	0.099
808.4837	0.0214
808.6533	0.0059
808.8229	0.001
808.9926	0.05
809.1622	0.0275
809.3317	0.0189
809.5013	0.0318
809.6708	0.0305
809.8403	0.099
810.0098	0.0965
810.1793	-0.0026
810.3488	-0.0547
810.5182	0.1376
810.6876	0.04
810.857	0.0017
811.0264	-0.0482
811.1958	0.0608
811.3651	0.082
811.5344	0.0775
811.7037	0.0307
811.873	0.1246
812.0422	-0.1132
812.2115	0.1191
812.3807	-0.0291
812.5499	0.0515
812.7191	-0.0838
812.8882	-0.0339
813.0574	-0.0007
813.2265	-0.0219
813.3956	0.0186
813.5646	0.0473
813.7337	0.0692
813.9027	-0.0739
814.0718	0.0583
814.2407	0.0347
814.4097	-0.0099
814.5787	0.0654
814.7476	0.0554
814.9165	0.0648
815.0854	0.1085
815.2543	0.0161
815.4232	0.1491
815.592	0.0852
815.7608	-0.1468
815.9296	0.0991
816.0984	0.0062
816.2671	-0.1453
816.4359	0.1523
816.6046	0.1016
816.7733	0.1894
816.942	-0.0007
817.1106	0.1139
817.2793	-0.0064
817.4479	0.1114
817.6165	0.0725
817.785	0.0864
817.9536	-0.1212
818.1221	-0.0087
818.2906	-0.0856
818.4591	0.0017
818.6276	-0.0403
818.7961	-0.0373
818.9645	0.1253
819.1329	0.0117
819.3013	-0.071
819.4697	0.0568
819.638	0.0615
819.8064	-0.1024
819.9747	0.0058
820.143	0.0448
820.3113	0.1381
820.4795	-0.0567
820.6477	0.1361
820.816	0.0782
820.9842	0.132
821.1523	0.0483
821.3205	0.0464
821.4886	-0.0146
821.6567	-0.0217
821.8248	0.1292
821.9929	-0.075
822.1609	0.034
822.329	0.0461
822.497	0.0352
822.665	0.1169
822.833	-0.1127
823.0009	0.0357
823.1688	0.0576
823.3367	-0.0907
823.5046	0.002
823.6725	-0.0785
823.8404	0.083
824.0082	-0.0749
824.176	0.0089
824.3438	0.1299
824.5116	0.0256
824.6793	0.0797
824.847	0.2511
825.0147	-0.0428
825.1824	0.1824
825.3501	0.1462
825.5177	-0.0594
825.6854	0.1124
825.853	0.0392
826.0206	0.01
826.1881	0.1595
826.3557	0.0284
826.5232	0.1861
826.6907	0.0544
826.8582	-0.0219
827.0257	0.3834
827.1931	0.1688
827.3605	0.0604
827.528	-0.0013
827.6953	-0.181
827.8627	-0.1145
828.03	0.1261
828.1974	0.0525
828.3647	0.0075
828.532	0.0573
828.6992	0.1871
828.8665	-0.1181
829.0337	0.4211
829.2009	-0.073
829.3681	0.0461
829.5352	-0.1897
829.7024	0.2753
829.8695	-0.0121
830.0366	0.1569
830.2037	0.0505
830.3707	0.1233
830.5378	-0.0176
830.7048	-0.0493
830.8718	0.1711
831.0388	-0.0418
831.2057	0.3304
831.3727	0.1125
831.5396	0.0667
831.7065	-0.5323
831.8734	0.0443
832.0402	0.0704
832.2071	-0.5472
832.3739	-0
832.5407	-0.9183
832.7075	-0.2836
832.8742	0.248
833.041	0.0344
833.2077	0.7937
833.3744	-0.013
833.541	-0.0237
833.7077	-0.0962
833.8743	-0.0215
834.0409	0.1824
834.2075	0.1101
834.3741	-0.1966
834.5407	0.1323
834.7072	0.1123
834.8737	0.3045
835.0402	1.038
835.2067	-0.1509
835.3731	0.0207
835.5395	0.0888
835.706	-0.289
835.8723	0.0826
836.0387	0.221
836.2051	0.5578
836.3714	0.1818
836.5377	0.1592
836.704	0.1301
836.8703	-0.1979
837.0365	-0.0663
837.2027	-0.0175
837.3689	0.1778
837.5351	-0.1217
837.7013	-0.0997
837.8674	0.9564
838.0335	-0.0313
838.1997	0.0457
838.3657	-0
838.5318	-0
838.6978	0.2106
838.8639	0.043
839.0299	-0.0345
839.1958	-0.0363
839.3618	-0
839.5277	0.0048
839.6937	-0.1121
839.8596	-0.1829
840.0254	0.1463
840.1913	0.3175
840.3571	-0.2629
840.523	-0
840.6888	1.9279
840.8545	-0.2483
841.0203	-0.0789
841.186	0.6268
841.3517	-0.2654
841.5174	0.0546
841.6831	0.5484
841.8488	-0
842.0144	-0.149
842.18	0.5715
842.3456	-0.0714
842.5112	-0
842.6767	0.1026
842.8422	1.3761
843.0077	0.3747
843.1732	-0.0815
843.3387	-0.029
843.5042	0.0076
843.6696	1.5353
843.835	0.1997
844.0004	0.1545
844.1657	-0
844.3311	-0.0335
844.4964	-0.2073
844.6617	-0
844.827	-0
844.9923	0.3104
845.1575	-0.0894
845.3227	-0.3175
845.4879	0.1645
845.6531	-0.1666
845.8183	0.2653
845.9834	-0
846.1485	0.3111
846.3136	-0.1796
846.4787	-0
846.6438	-0
846.8088	0.3206
846.9738	-0
847.1388	0.0406
847.3038	1.2059
847.4687	-0
847.6337	-0
847.7986	-0.0565
847.9635	0.092
848.1284	0.4921
848.2932	0.3163
848.458	-0
848.6228	-0
848.7876	0.0367
848.9524	-0.1182
849.1172	-1.694
849.2819	-0
849.4466	0.82
849.6113	0.1628
849.7759	-0
849.9406	-0.0997
850.1052	-0
850.2698	2.0191
850.4344	-0.7813
850.599	-0
850.7635	-0
850.928	-0
851.0925	1.0631
851.257	0.1544
851.4215	-0
851.5859	0.3218
851.7503	1.6484
851.9147	0.3979
852.0791	0.0335
852.2434	0.0923
852.4078	-0
852.5721	0.1746
852.7364	-0.1507
852.9007	-0.1788
853.0649	-0
853.2291	0.0467
853.3934	0.0504
853.5575	-0.1719
853.7217	0.5506
853.8859	0.19
854.05	-0
854.2141	-0
854.3782	0.514
854.5423	-0
854.7063	-0.0628
854.8703	-0.2167
855.0343	-0.101
855.1983	0.1388
855.3623	0.5413
855.5262	-0.0194
855.6901	0.3949
855.854	0.1046
856.0179	-0.211
856.1818	-0
856.3456	0.4379
856.5094	-0
856.6732	-0
856.837	-0
857.0008	-0
857.1645	0.3458
857.3282	-0.3904
857.4919	0.7988
857.6556	-0
857.8192	0.0313
857.9828	0.0444
858.1465	-0.3053
858.31	-0
858.4736	-0.3079
858.6372	-0.437
858.8007	0.2415
858.9642	0.4339
859.1277	0.4975
859.2911	-0.2964
859.4546	-0
859.618	0.8351
859.7814	-0.4122
859.9448	-0
860.1081	-0
860.2715	-0
860.4348	-0
860.5981	0.3465
860.7614	-0
860.9246	0.58
861.0879	0.289
861.2511	-0
861.4143	-0
861.5774	-0.1872
861.7406	0.1079
861.9037	-0.3514
862.0668	-0.1047
862.2299	-0
862.393	-0
862.556	-0.1074
862.7191	-0.3102
862.8821	0.0903
863.0451	0.4038
863.208	-0.3289
863.371	-0.4614
863.5339	0.4738
863.6968	-0
863.8597	-0.0586
864.0225	0.8612
864.1854	-0.4418
864.3482	-0.965
864.511	0.3488
864.6737	-0
864.8365	0.8014
864.9992	0.2404
865.1619	0.0517
865.3246	-1.3424
865.4873	-0
865.65	-0
865.8126	0.0684
865.9752	-0
866.1378	0.2318
866.3004	0.0975
866.4629	-1.6113
866.6254	0.2979
866.7879	-0.3752
866.9504	0.2277
867.1129	-0
867.2753	-0.1171
867.4377	-0.3817
867.6001	-0.645
867.7625	0.0313
867.9249	-0.2241
868.0872	0.6902
868.2495	-0
868.4118	-0.095
868.5741	-0
868.7363	-0.9004
868.8986	-0.3574
869.0608	-0
869.223	-0.6582
869.3851	-0
869.5473	-0.1523
869.7094	-0
869.8715	-1.1848
870.0336	0.1312
870.1957	-0
870.3577	0.3678
870.5197	0.5937
870.6817	-0.8877
870.8437	0.2194
871.0057	0.1265
871.1676	-0.1312
871.3295	-0
871.4914	-1.0934
871.6533	0.2723
871.8151	0.3157
871.977	-0.3852
872.1388	-0.2244
872.3006	-0.6313
872.4623	-0.1277
872.6241	-0
872.7858	-0.1661
872.9475	0.8488
873.1092	0.2239
873.2709	-0
873.4325	-1.7884
873.5941	-0.1216
873.7557	-0
873.9173	-0
874.0789	0.136
874.2404	-0
874.4019	0.3577
874.5634	-0
874.7249	-0.2351
874.8863	-0
875.0478	0.0684
875.2092	1.2776
875.3706	0.2089
875.5319	-0
875.6933	0.1464
875.8546	-0
876.0159	0.0821
876.1772	-0.1268
876.3385	-0
876.4997	0.1409
876.6609	0.2643
876.8221	0.5711
876.9833	0.2654
877.1445	1.1497
877.3056	-0.6226
877.4667	-0.9601
877.6278	-0
877.7889	0.5976
877.9499	-0
878.111	-0.6546
878.272	0.7404
878.433	0.6884
878.5939	-0.038
878.7549	-0
878.9158	-0
879.0767	1.3026
879.2376	-0
879.3984	-0
879.5593	1.573
879.7201	-1.694
879.8809	0.1849
880.0417	-0.0132
880.2024	0.0996
880.3632	-0.2111
880.5239	0.1807
880.6846	-0.3851
880.8452	-0.2626
881.0059	-0.9464
881.1665	0.1267
881.3271	0.593
881.4877	0.0437
881.6483	0.9294
881.8088	-0
881.9693	-0.8967
882.1298	-0.8967
882.2903	-0.8967
