Data from D4ACN5uM420nmA_Absorbance_14-37-10-032.txt Node
Date: Fri Feb 21 14:37:10 GMT 2025
User: LASERRRRR
Spectrometer: FLMT03099
Trigger mode: 0
Integration Time (sec): 1.500000E-2
Scans to average: 1
Electric dark correction enabled: true
Nonlinearity correction enabled: false
Boxcar width: 0
XAxis mode: Wavelengths
Number of Pixels in Spectrum: 3648
>>>>>Begin Spectral Data<<<<<
179.3399	-0.6744
179.5586	-0.6744
179.7771	-0.6744
179.9957	-0.3395
180.2143	-0
180.4329	-0.2263
180.6514	-0
180.8699	-0
181.0885	-0
181.307	0.0899
181.5255	-0.101
181.744	0.5171
181.9625	-0
182.181	0.2058
182.3994	-0.4783
182.6179	-0
182.8363	-0
183.0547	-0.1583
183.2732	0.105
183.4916	0.8605
183.71	0.3593
183.9284	0.0832
184.1467	0.4185
184.3651	0.2156
184.5835	0.1353
184.8018	0.2717
185.0201	0.0854
185.2385	0.2519
185.4568	0.1265
185.6751	0.2672
185.8934	0.1901
186.1117	0.1638
186.3299	0.1771
186.5482	0.1244
186.7664	0.3007
186.9847	-0.0012
187.2029	0.6525
187.4211	0.0291
187.6393	0.022
187.8575	0.2164
188.0757	0.6655
188.2939	0.1229
188.512	0.1771
188.7302	0.1394
188.9483	0.2169
189.1665	0.6973
189.3846	0.1507
189.6027	0.1797
189.8208	0.1467
190.0389	0.1501
190.257	0.0995
190.475	-0.0847
190.6931	0.0826
190.9111	0.1712
191.1292	0.0368
191.3472	0.1913
191.5652	0.2685
191.7832	0.1327
192.0012	0.3076
192.2192	0.0887
192.4371	0.2418
192.6551	0.1828
192.873	0.0725
193.091	0.1368
193.3089	0.1338
193.5268	0.2993
193.7447	0.0819
193.9626	0.1335
194.1805	0.2771
194.3984	0.2359
194.6162	0.1645
194.8341	0.404
195.0519	0.1954
195.2697	0.2569
195.4875	0.3735
195.7054	0.279
195.9231	0.1687
196.1409	0.4073
196.3587	0.3239
196.5765	0.3532
196.7942	0.3984
197.012	0.3333
197.2297	0.2772
197.4474	0.451
197.6651	0.3023
197.8828	0.3421
198.1005	0.4313
198.3182	0.3401
198.5358	0.3574
198.7535	0.3411
198.9711	0.3769
199.1888	0.3929
199.4064	0.4484
199.624	0.431
199.8416	0.355
200.0592	0.3945
200.2767	0.376
200.4943	0.5087
200.7119	0.3995
200.9294	0.4144
201.1469	0.4846
201.3645	0.4509
201.582	0.3966
201.7995	0.4122
202.017	0.4067
202.2344	0.4061
202.4519	0.4287
202.6694	0.3757
202.8868	0.4018
203.1042	0.4367
203.3217	0.392
203.5391	0.3981
203.7565	0.3565
203.9739	0.3404
204.1913	0.3427
204.4086	0.3378
204.626	0.379
204.8433	0.365
205.0607	0.3417
205.278	0.3941
205.4953	0.3638
205.7126	0.318
205.9299	0.3379
206.1472	0.3025
206.3644	0.3626
206.5817	0.3269
206.7989	0.3572
207.0162	0.3221
207.2334	0.321
207.4506	0.3096
207.6678	0.3244
207.885	0.3092
208.1022	0.306
208.3194	0.3008
208.5365	0.3108
208.7537	0.3345
208.9708	0.2769
209.1879	0.3027
209.405	0.2812
209.6222	0.2527
209.8392	0.2974
210.0563	0.2835
210.2734	0.2793
210.4905	0.2851
210.7075	0.2969
210.9245	0.2544
211.1416	0.26
211.3586	0.2628
211.5756	0.2312
211.7926	0.2491
212.0096	0.2631
212.2265	0.2499
212.4435	0.2503
212.6604	0.2345
212.8774	0.2297
213.0943	0.2638
213.3112	0.2567
213.5281	0.251
213.745	0.2298
213.9619	0.234
214.1788	0.2483
214.3956	0.2343
214.6125	0.2264
214.8293	0.2245
215.0461	0.2484
215.2629	0.251
215.4798	0.2232
215.6965	0.2448
215.9133	0.2385
216.1301	0.2293
216.3469	0.2602
216.5636	0.2353
216.7803	0.2451
216.9971	0.2498
217.2138	0.2355
217.4305	0.2473
217.6472	0.2375
217.8639	0.2399
218.0805	0.2343
218.2972	0.241
218.5138	0.2424
218.7305	0.2546
218.9471	0.2234
219.1637	0.266
219.3803	0.2476
219.5969	0.2452
219.8135	0.258
220.0301	0.2516
220.2466	0.2567
220.4632	0.2365
220.6797	0.2574
220.8962	0.2659
221.1127	0.2598
221.3292	0.2578
221.5457	0.2729
221.7622	0.2644
221.9787	0.2814
222.1951	0.2678
222.4116	0.2689
222.628	0.2798
222.8444	0.2682
223.0608	0.2709
223.2772	0.282
223.4936	0.2771
223.71	0.2868
223.9264	0.2798
224.1427	0.2799
224.3591	0.2774
224.5754	0.2869
224.7917	0.2782
225.008	0.289
225.2243	0.296
225.4406	0.2881
225.6569	0.3047
225.8732	0.3017
226.0894	0.3027
226.3057	0.2967
226.5219	0.309
226.7381	0.3242
226.9543	0.3141
227.1705	0.3238
227.3867	0.3342
227.6029	0.3293
227.8191	0.3265
228.0352	0.3464
228.2513	0.3529
228.4675	0.339
228.6836	0.3499
228.8997	0.346
229.1158	0.3568
229.3319	0.3703
229.548	0.3633
229.764	0.3668
229.9801	0.3617
230.1961	0.3661
230.4121	0.3773
230.6282	0.3884
230.8442	0.3951
231.0602	0.3891
231.2761	0.3929
231.4921	0.3953
231.7081	0.3986
231.924	0.4002
232.14	0.4014
232.3559	0.4046
232.5718	0.4198
232.7877	0.426
233.0036	0.4147
233.2195	0.4203
233.4353	0.4228
233.6512	0.4139
233.867	0.4232
234.0829	0.4256
234.2987	0.4303
234.5145	0.4408
234.7303	0.44
234.9461	0.4458
235.1619	0.4511
235.3776	0.4377
235.5934	0.4444
235.8091	0.4386
236.0249	0.4426
236.2406	0.4459
236.4563	0.4583
236.672	0.4399
236.8877	0.4535
237.1034	0.4553
237.319	0.4448
237.5347	0.4537
237.7503	0.459
237.966	0.4665
238.1816	0.468
238.3972	0.4598
238.6128	0.4663
238.8284	0.4647
239.0439	0.4614
239.2595	0.4579
239.475	0.4642
239.6906	0.4655
239.9061	0.4582
240.1216	0.4602
240.3371	0.4644
240.5526	0.4747
240.7681	0.4657
240.9836	0.4693
241.199	0.464
241.4145	0.4534
241.6299	0.4444
241.8453	0.4481
242.0607	0.4416
242.2761	0.4432
242.4915	0.4417
242.7069	0.434
242.9223	0.4318
243.1376	0.4279
243.353	0.4228
243.5683	0.4154
243.7836	0.4013
243.9989	0.3948
244.2142	0.3946
244.4295	0.388
244.6448	0.3867
244.86	0.3726
245.0753	0.3661
245.2905	0.3616
245.5057	0.3493
245.721	0.3616
245.9362	0.3432
246.1514	0.3381
246.3665	0.3273
246.5817	0.3184
246.7969	0.3107
247.012	0.3046
247.2271	0.3046
247.4423	0.3034
247.6574	0.3003
247.8725	0.2745
248.0876	0.2856
248.3026	0.2797
248.5177	0.2673
248.7328	0.2629
248.9478	0.2618
249.1628	0.2612
249.3779	0.2544
249.5929	0.249
249.8079	0.2426
250.0228	0.237
250.2378	0.246
250.4528	0.2328
250.6677	0.2278
250.8827	0.2238
251.0976	0.2224
251.3125	0.2214
251.5274	0.2153
251.7423	0.2161
251.9572	0.2183
252.172	0.2083
252.3869	0.2103
252.6017	0.2115
252.8166	0.2037
253.0314	0.1989
253.2462	0.2024
253.461	0.1977
253.6758	0.1961
253.8906	0.1957
254.1053	0.1965
254.3201	0.188
254.5348	0.1921
254.7496	0.1885
254.9643	0.1942
255.179	0.1889
255.3937	0.194
255.6083	0.2
255.823	0.1911
256.0377	0.188
256.2523	0.186
256.467	0.1889
256.6816	0.1819
256.8962	0.1883
257.1108	0.1905
257.3254	0.1865
257.54	0.1849
257.7545	0.1856
257.9691	0.1811
258.1836	0.1782
258.3981	0.1874
258.6127	0.1809
258.8272	0.1901
259.0417	0.1795
259.2561	0.1823
259.4706	0.1788
259.6851	0.1853
259.8995	0.1803
260.114	0.185
260.3284	0.1782
260.5428	0.1794
260.7572	0.1811
260.9716	0.1838
261.186	0.1801
261.4003	0.1804
261.6147	0.1873
261.829	0.1894
262.0433	0.1855
262.2577	0.1866
262.472	0.187
262.6863	0.1899
262.9005	0.183
263.1148	0.1903
263.3291	0.1918
263.5433	0.1938
263.7576	0.1915
263.9718	0.1922
264.186	0.1995
264.4002	0.1929
264.6144	0.2026
264.8286	0.1949
265.0427	0.2019
265.2569	0.1968
265.471	0.1963
265.6851	0.1998
265.8993	0.1991
266.1134	0.1976
266.3275	0.2007
266.5415	0.2066
266.7556	0.2008
266.9697	0.2053
267.1837	0.2052
267.3978	0.2041
267.6118	0.192
267.8258	0.2085
268.0398	0.2029
268.2538	0.1965
268.4677	0.202
268.6817	0.1983
268.8957	0.2028
269.1096	0.1926
269.3235	0.1977
269.5374	0.1986
269.7514	0.2067
269.9652	0.1944
270.1791	0.1969
270.393	0.1977
270.6068	0.1989
270.8207	0.1958
271.0345	0.1999
271.2483	0.1887
271.4622	0.1949
271.676	0.2033
271.8897	0.1968
272.1035	0.2028
272.3173	0.2029
272.531	0.1978
272.7448	0.1956
272.9585	0.1925
273.1722	0.2013
273.3859	0.2003
273.5996	0.2042
273.8133	0.2017
274.0269	0.1974
274.2406	0.2063
274.4542	0.2035
274.6679	0.2071
274.8815	0.2119
275.0951	0.2176
275.3087	0.2117
275.5223	0.2138
275.7358	0.2119
275.9494	0.2167
276.1629	0.2231
276.3765	0.2201
276.59	0.2143
276.8035	0.2182
277.017	0.224
277.2305	0.2204
277.444	0.2214
277.6574	0.2167
277.8709	0.2239
278.0843	0.2254
278.2978	0.2235
278.5112	0.2247
278.7246	0.2218
278.938	0.2219
279.1513	0.2231
279.3647	0.2182
279.5781	0.2159
279.7914	0.2181
280.0047	0.2131
280.2181	0.2128
280.4314	0.2069
280.6447	0.2149
280.8579	0.2075
281.0712	0.2028
281.2845	0.2073
281.4977	0.2068
281.711	0.206
281.9242	0.2033
282.1374	0.197
282.3506	0.2052
282.5638	0.2002
282.7769	0.1939
282.9901	0.2013
283.2033	0.1975
283.4164	0.1931
283.6295	0.1967
283.8426	0.1912
284.0557	0.1956
284.2688	0.2002
284.4819	0.1914
284.695	0.1981
284.908	0.1916
285.1211	0.1932
285.3341	0.1905
285.5471	0.1908
285.7601	0.193
285.9731	0.1904
286.1861	0.1895
286.3991	0.1917
286.612	0.19
286.825	0.1898
287.0379	0.1891
287.2508	0.1885
287.4637	0.1872
287.6766	0.1838
287.8895	0.186
288.1024	0.1902
288.3152	0.1923
288.5281	0.1858
288.7409	0.1947
288.9538	0.1851
289.1666	0.1804
289.3794	0.1824
289.5922	0.1833
289.8049	0.186
290.0177	0.1847
290.2304	0.1846
290.4432	0.184
290.6559	0.1887
290.8686	0.192
291.0813	0.1824
291.294	0.1841
291.5067	0.1863
291.7194	0.1819
291.932	0.1773
292.1447	0.1829
292.3573	0.1834
292.5699	0.1914
292.7825	0.1782
292.9951	0.1815
293.2077	0.1859
293.4203	0.186
293.6328	0.1791
293.8454	0.1829
294.0579	0.1855
294.2704	0.1899
294.4829	0.1793
294.6954	0.1829
294.9079	0.1802
295.1204	0.1736
295.3328	0.1885
295.5453	0.1868
295.7577	0.1837
295.9701	0.1825
296.1825	0.1883
296.3949	0.176
296.6073	0.1776
296.8197	0.1807
297.0321	0.1841
297.2444	0.183
297.4567	0.1833
297.6691	0.1834
297.8814	0.1853
298.0937	0.1835
298.306	0.1767
298.5182	0.1913
298.7305	0.1828
298.9428	0.1822
299.155	0.1813
299.3672	0.1798
299.5794	0.182
299.7916	0.1863
300.0038	0.1801
300.216	0.1791
300.4282	0.1866
300.6403	0.1915
300.8525	0.1795
301.0646	0.1855
301.2767	0.1814
301.4888	0.1854
301.7009	0.189
301.913	0.1869
302.125	0.1847
302.3371	0.1861
302.5491	0.1823
302.7612	0.1925
302.9732	0.1891
303.1852	0.1878
303.3972	0.185
303.6092	0.1879
303.8211	0.1859
304.0331	0.1807
304.245	0.1893
304.457	0.1856
304.6689	0.1789
304.8808	0.1786
305.0927	0.1844
305.3046	0.1844
305.5164	0.1819
305.7283	0.1824
305.9401	0.1762
306.152	0.1806
306.3638	0.1788
306.5756	0.1796
306.7874	0.1725
306.9992	0.173
307.2109	0.1737
307.4227	0.1716
307.6344	0.1751
307.8462	0.167
308.0579	0.1735
308.2696	0.1748
308.4813	0.1739
308.693	0.1632
308.9046	0.1703
309.1163	0.1653
309.328	0.1675
309.5396	0.1628
309.7512	0.1637
309.9628	0.1603
310.1744	0.1572
310.386	0.154
310.5976	0.1583
310.8091	0.1585
311.0207	0.1587
311.2322	0.1612
311.4437	0.1533
311.6552	0.1544
311.8667	0.1582
312.0782	0.1548
312.2897	0.1576
312.5012	0.151
312.7126	0.153
312.924	0.1547
313.1355	0.1469
313.3469	0.1492
313.5583	0.1515
313.7696	0.1482
313.981	0.1576
314.1924	0.146
314.4037	0.1489
314.6151	0.1451
314.8264	0.1529
315.0377	0.1508
315.249	0.1533
315.4603	0.145
315.6716	0.1501
315.8828	0.1501
316.0941	0.1453
316.3053	0.1435
316.5165	0.1507
316.7277	0.1441
316.9389	0.1489
317.1501	0.1481
317.3613	0.1486
317.5724	0.1465
317.7836	0.148
317.9947	0.1426
318.2058	0.145
318.417	0.1453
318.6281	0.1396
318.8391	0.1444
319.0502	0.1462
319.2613	0.1487
319.4723	0.1452
319.6834	0.1455
319.8944	0.1468
320.1054	0.1469
320.3164	0.1469
320.5274	0.1421
320.7383	0.1552
320.9493	0.1411
321.1602	0.1458
321.3712	0.1427
321.5821	0.1431
321.793	0.1488
322.0039	0.1477
322.2148	0.1434
322.4257	0.1393
322.6365	0.145
322.8474	0.146
323.0582	0.1463
323.269	0.1531
323.4798	0.148
323.6906	0.1445
323.9014	0.1472
324.1122	0.1423
324.3229	0.1507
324.5337	0.149
324.7444	0.1492
324.9551	0.1495
325.1658	0.1513
325.3765	0.1548
325.5872	0.152
325.7979	0.1499
326.0085	0.1517
326.2192	0.1488
326.4298	0.1548
326.6404	0.1584
326.851	0.1499
327.0616	0.157
327.2722	0.1564
327.4828	0.1531
327.6933	0.1638
327.9039	0.1603
328.1144	0.1577
328.3249	0.1597
328.5354	0.1565
328.7459	0.1541
328.9564	0.1602
329.1669	0.1624
329.3773	0.1668
329.5878	0.1628
329.7982	0.1695
330.0086	0.1675
330.219	0.1698
330.4294	0.1708
330.6398	0.1652
330.8502	0.168
331.0605	0.1662
331.2708	0.1661
331.4812	0.1664
331.6915	0.1656
331.9018	0.1651
332.1121	0.1691
332.3224	0.1647
332.5326	0.1626
332.7429	0.1634
332.9531	0.17
333.1633	0.1631
333.3735	0.1643
333.5837	0.1636
333.7939	0.1622
334.0041	0.1666
334.2143	0.1627
334.4244	0.1721
334.6346	0.1722
334.8447	0.1584
335.0548	0.1696
335.2649	0.1657
335.475	0.1628
335.685	0.1618
335.8951	0.1582
336.1051	0.1664
336.3152	0.1645
336.5252	0.1557
336.7352	0.1625
336.9452	0.1622
337.1552	0.1657
337.3652	0.1507
337.5751	0.1571
337.7851	0.1567
337.995	0.1613
338.2049	0.1561
338.4148	0.158
338.6247	0.1611
338.8346	0.1617
339.0445	0.1605
339.2543	0.1657
339.4642	0.1574
339.674	0.1582
339.8838	0.1622
340.0936	0.1657
340.3034	0.1585
340.5132	0.1608
340.7229	0.1647
340.9327	0.1748
341.1424	0.1647
341.3522	0.1613
341.5619	0.1632
341.7716	0.1696
341.9813	0.1664
342.1909	0.1724
342.4006	0.1706
342.6102	0.1705
342.8199	0.1724
343.0295	0.166
343.2391	0.1714
343.4487	0.1751
343.6583	0.1826
343.8679	0.1708
344.0774	0.1815
344.287	0.1785
344.4965	0.1761
344.706	0.181
344.9155	0.1708
345.125	0.1726
345.3345	0.1859
345.544	0.1893
345.7534	0.1832
345.9629	0.1877
346.1723	0.1906
346.3817	0.1859
346.5911	0.1903
346.8005	0.1893
347.0099	0.1835
347.2193	0.1948
347.4286	0.2005
347.638	0.1885
347.8473	0.1987
348.0566	0.1922
348.2659	0.1933
348.4752	0.196
348.6845	0.1917
348.8937	0.1884
349.103	0.1973
349.3122	0.2005
349.5214	0.192
349.7306	0.2009
349.9398	0.1967
350.149	0.1964
350.3582	0.1956
350.5674	0.1996
350.7765	0.2002
350.9856	0.1998
351.1948	0.1947
351.4039	0.1982
351.613	0.1955
351.822	0.1983
352.0311	0.1936
352.2402	0.1941
352.4492	0.1969
352.6582	0.1937
352.8672	0.1967
353.0762	0.1798
353.2852	0.2014
353.4942	0.1975
353.7032	0.1933
353.9121	0.1925
354.1211	0.1919
354.33	0.1933
354.5389	0.1901
354.7478	0.1892
354.9567	0.1926
355.1655	0.1889
355.3744	0.1855
355.5833	0.1971
355.7921	0.1948
356.0009	0.1853
356.2097	0.1867
356.4185	0.1863
356.6273	0.1816
356.8361	0.1874
357.0448	0.1866
357.2536	0.1894
357.4623	0.1855
357.671	0.1906
357.8797	0.1933
358.0884	0.1844
358.2971	0.1923
358.5057	0.1941
358.7144	0.1929
358.923	0.1898
359.1316	0.1918
359.3402	0.1951
359.5488	0.1894
359.7574	0.1983
359.966	0.1935
360.1746	0.1956
360.3831	0.1989
360.5916	0.1976
360.8002	0.1949
361.0087	0.1958
361.2172	0.1911
361.4256	0.1908
361.6341	0.1959
361.8426	0.1983
362.051	0.1976
362.2594	0.1964
362.4678	0.1939
362.6762	0.1996
362.8846	0.1978
363.093	0.2036
363.3014	0.2027
363.5097	0.1946
363.718	0.1962
363.9264	0.1939
364.1347	0.2028
364.343	0.1996
364.5513	0.1948
364.7595	0.1975
364.9678	0.2032
365.176	0.2068
365.3842	0.2029
365.5925	0.2022
365.8007	0.1974
366.0089	0.2124
366.217	0.2069
366.4252	0.2051
366.6333	0.2125
366.8415	0.2086
367.0496	0.2121
367.2577	0.208
367.4658	0.2033
367.6739	0.2116
367.882	0.217
368.09	0.2038
368.2981	0.2096
368.5061	0.2082
368.7141	0.2084
368.9221	0.2255
369.1301	0.2166
369.3381	0.2233
369.5461	0.2179
369.754	0.2144
369.962	0.2151
370.1699	0.2246
370.3778	0.2269
370.5857	0.211
370.7936	0.2105
371.0015	0.2169
371.2093	0.2245
371.4172	0.2151
371.625	0.2151
371.8328	0.2158
372.0406	0.226
372.2484	0.2237
372.4562	0.2232
372.664	0.2243
372.8717	0.2214
373.0795	0.2321
373.2872	0.2305
373.4949	0.2375
373.7026	0.2195
373.9103	0.2251
374.118	0.2273
374.3256	0.2255
374.5333	0.2269
374.7409	0.2226
374.9485	0.2221
375.1561	0.2281
375.3637	0.2308
375.5713	0.2364
375.7789	0.2332
375.9864	0.2367
376.194	0.2365
376.4015	0.2325
376.609	0.2414
376.8165	0.2396
377.024	0.2405
377.2315	0.2339
377.4389	0.2242
377.6464	0.2394
377.8538	0.2364
378.0612	0.2393
378.2686	0.2301
378.476	0.2479
378.6834	0.2359
378.8908	0.2414
379.0981	0.2361
379.3055	0.236
379.5128	0.2386
379.7201	0.2401
379.9274	0.2372
380.1347	0.2421
380.342	0.2466
380.5492	0.2446
380.7565	0.2452
380.9637	0.2358
381.1709	0.2438
381.3781	0.2411
381.5853	0.2464
381.7925	0.2464
381.9997	0.2485
382.2068	0.2349
382.4139	0.2381
382.6211	0.2494
382.8282	0.253
383.0353	0.2481
383.2424	0.2453
383.4494	0.2467
383.6565	0.2448
383.8635	0.2375
384.0706	0.2524
384.2776	0.2495
384.4846	0.2453
384.6916	0.2462
384.8986	0.2535
385.1055	0.2525
385.3125	0.2512
385.5194	0.2524
385.7263	0.2454
385.9333	0.2554
386.1402	0.2483
386.347	0.244
386.5539	0.2482
386.7608	0.2463
386.9676	0.2484
387.1744	0.2478
387.3813	0.2479
387.5881	0.2421
387.7948	0.2548
388.0016	0.2541
388.2084	0.2552
388.4151	0.2519
388.6219	0.2462
388.8286	0.2484
389.0353	0.2538
389.242	0.2504
389.4487	0.2399
389.6553	0.2437
389.862	0.2435
390.0686	0.2471
390.2753	0.2361
390.4819	0.2472
390.6885	0.2372
390.8951	0.2452
391.1016	0.232
391.3082	0.2445
391.5147	0.2294
391.7213	0.2404
391.9278	0.2325
392.1343	0.2392
392.3408	0.2301
392.5473	0.2296
392.7537	0.231
392.9602	0.2238
393.1666	0.2316
393.373	0.2341
393.5794	0.2288
393.7858	0.2349
393.9922	0.227
394.1986	0.2278
394.4049	0.2206
394.6113	0.222
394.8176	0.2237
395.0239	0.2188
395.2302	0.2227
395.4365	0.2203
395.6428	0.2212
395.8491	0.2135
396.0553	0.219
396.2615	0.2215
396.4678	0.2184
396.674	0.2147
396.8802	0.2206
397.0863	0.2084
397.2925	0.2131
397.4987	0.2131
397.7048	0.2159
397.9109	0.201
398.117	0.2136
398.3231	0.2062
398.5292	0.2006
398.7353	0.2131
398.9413	0.2027
399.1474	0.213
399.3534	0.2187
399.5594	0.2128
399.7654	0.1996
399.9714	0.213
400.1774	0.212
400.3833	0.2074
400.5893	0.2047
400.7952	0.2145
401.0011	0.2045
401.207	0.2128
401.4129	0.211
401.6188	0.2119
401.8247	0.2193
402.0305	0.208
402.2364	0.2117
402.4422	0.2049
402.648	0.2077
402.8538	0.2122
403.0596	0.1967
403.2654	0.2131
403.4711	0.1996
403.6768	0.1983
403.8826	0.2101
404.0883	0.2102
404.294	0.2067
404.4997	0.198
404.7054	0.2046
404.911	0.2057
405.1167	0.2097
405.3223	0.1973
405.5279	0.2084
405.7335	0.206
405.9391	0.2088
406.1447	0.2113
406.3502	0.197
406.5558	0.207
406.7613	0.2051
406.9668	0.2027
407.1724	0.2007
407.3778	0.2108
407.5833	0.195
407.7888	0.2063
407.9942	0.202
408.1997	0.2012
408.4051	0.2019
408.6105	0.2031
408.8159	0.2024
409.0213	0.2086
409.2267	0.2086
409.432	0.2076
409.6374	0.2062
409.8427	0.2086
410.048	0.2069
410.2533	0.2051
410.4586	0.1997
410.6639	0.209
410.8691	0.1994
411.0744	0.212
411.2796	0.2062
411.4848	0.1962
411.69	0.1954
411.8952	0.1919
412.1004	0.2126
412.3056	0.2011
412.5107	0.2069
412.7158	0.2093
412.921	0.2092
413.1261	0.1993
413.3312	0.2109
413.5362	0.2141
413.7413	0.2088
413.9464	0.1934
414.1514	0.191
414.3564	0.1955
414.5614	0.2018
414.7664	0.2005
414.9714	0.1924
415.1764	0.2018
415.3813	0.1879
415.5863	0.2039
415.7912	0.2016
415.9961	0.1935
416.201	0.2048
416.4059	0.2005
416.6108	0.2051
416.8156	0.2016
417.0205	0.1953
417.2253	0.206
417.4301	0.2025
417.6349	0.1931
417.8397	0.1952
418.0445	0.1964
418.2492	0.1973
418.454	0.1901
418.6587	0.1941
418.8634	0.1956
419.0681	0.2002
419.2728	0.1861
419.4775	0.2001
419.6822	0.1903
419.8868	0.1853
420.0915	0.1896
420.2961	0.1834
420.5007	0.1913
420.7053	0.183
420.9099	0.1903
421.1144	0.1838
421.319	0.1839
421.5235	0.1835
421.728	0.1835
421.9325	0.1912
422.137	0.1826
422.3415	0.1809
422.546	0.1923
422.7504	0.1862
422.9549	0.1879
423.1593	0.1774
423.3637	0.1806
423.5681	0.1935
423.7725	0.1746
423.9769	0.1891
424.1812	0.169
424.3856	0.1781
424.5899	0.1732
424.7942	0.1825
424.9985	0.1783
425.2028	0.1877
425.4071	0.1815
425.6113	0.1785
425.8156	0.1728
426.0198	0.1706
426.224	0.1761
426.4282	0.1673
426.6324	0.1656
426.8366	0.161
427.0407	0.1637
427.2449	0.1776
427.449	0.1665
427.6531	0.171
427.8572	0.1658
428.0613	0.166
428.2654	0.1662
428.4694	0.1536
428.6735	0.1622
428.8775	0.1588
429.0815	0.1644
429.2855	0.1554
429.4895	0.151
429.6935	0.1531
429.8975	0.1495
430.1014	0.1545
430.3053	0.1557
430.5093	0.1454
430.7132	0.1413
430.9171	0.1476
431.1209	0.1549
431.3248	0.1417
431.5286	0.1388
431.7325	0.1515
431.9363	0.1396
432.1401	0.1477
432.3439	0.1402
432.5477	0.1384
432.7514	0.1425
432.9552	0.146
433.1589	0.1312
433.3627	0.1341
433.5664	0.1331
433.7701	0.1359
433.9737	0.1359
434.1774	0.1341
434.3811	0.1223
434.5847	0.1249
434.7883	0.1308
434.9919	0.1286
435.1955	0.1264
435.3991	0.1226
435.6027	0.1309
435.8062	0.1364
436.0098	0.1188
436.2133	0.1149
436.4168	0.1218
436.6203	0.1118
436.8238	0.1167
437.0272	0.1067
437.2307	0.1104
437.4341	0.1114
437.6375	0.1105
437.841	0.0978
438.0443	0.1107
438.2477	0.0971
438.4511	0.1021
438.6545	0.1057
438.8578	0.0955
439.0611	0.102
439.2644	0.1095
439.4677	0.0982
439.671	0.092
439.8743	0.0968
440.0775	0.0881
440.2808	0.0947
440.484	0.0844
440.6872	0.0918
440.8904	0.0743
441.0936	0.0867
441.2967	0.0795
441.4999	0.0798
441.703	0.0813
441.9062	0.0904
442.1093	0.0904
442.3124	0.0739
442.5155	0.0838
442.7185	0.0781
442.9216	0.077
443.1246	0.0751
443.3276	0.0764
443.5307	0.0664
443.7337	0.0718
443.9366	0.0671
444.1396	0.0704
444.3426	0.0712
444.5455	0.0721
444.7484	0.0682
444.9513	0.0663
445.1542	0.0595
445.3571	0.062
445.56	0.0643
445.7628	0.0603
445.9657	0.0594
446.1685	0.0643
446.3713	0.0634
446.5741	0.0694
446.7769	0.0608
446.9797	0.0604
447.1824	0.0534
447.3852	0.0429
447.5879	0.047
447.7906	0.0488
447.9933	0.0521
448.196	0.0446
448.3986	0.0486
448.6013	0.0359
448.8039	0.0447
449.0066	0.0559
449.2092	0.0515
449.4118	0.0513
449.6143	0.0514
449.8169	0.0516
450.0195	0.0426
450.222	0.0504
450.4245	0.048
450.627	0.0444
450.8295	0.0483
451.032	0.0436
451.2345	0.0417
451.4369	0.0394
451.6394	0.0412
451.8418	0.039
452.0442	0.0407
452.2466	0.0313
452.449	0.0373
452.6513	0.0406
452.8537	0.0332
453.056	0.0323
453.2583	0.035
453.4607	0.0245
453.663	0.0368
453.8652	0.0255
454.0675	0.0427
454.2697	0.0269
454.472	0.0278
454.6742	0.0327
454.8764	0.0345
455.0786	0.028
455.2808	0.0255
455.4829	0.0349
455.6851	0.0261
455.8872	0.0176
456.0893	0.0216
456.2915	0.022
456.4935	0.0303
456.6956	0.0257
456.8977	0.0221
457.0997	0.026
457.3018	0.0184
457.5038	0.0294
457.7058	0.0266
457.9078	0.0305
458.1098	0.0253
458.3117	0.0191
458.5137	0.005
458.7156	0.0285
458.9175	0.0216
459.1194	0.0257
459.3213	0.0171
459.5232	0.0251
459.725	0.018
459.9269	0.022
460.1287	0.0103
460.3305	0.0217
460.5323	0.0231
460.7341	0.0187
460.9359	0.0134
461.1376	0.0274
461.3394	0.0204
461.5411	0.0226
461.7428	0.0172
461.9445	0.0184
462.1462	0.018
462.3479	0.0195
462.5495	0.0202
462.7512	0.0232
462.9528	0.0169
463.1544	0.0153
463.356	0.0137
463.5576	0.0292
463.7592	0.0142
463.9607	0.0144
464.1623	0.0064
464.3638	0.0199
464.5653	0.0073
464.7668	0.0181
464.9683	0.0212
465.1697	0.0186
465.3712	0.0068
465.5726	0.0112
465.7741	0.0191
465.9755	0.0097
466.1769	0.0076
466.3782	0.0105
466.5796	0.013
466.7809	0.0126
466.9823	0.0053
467.1836	0.0072
467.3849	0.0143
467.5862	0.0052
467.7875	0.0173
467.9887	0.0122
468.19	0.0182
468.3912	0.0189
468.5924	0.0015
468.7936	0.0125
468.9948	0.002
469.196	0.0107
469.3972	-0.0001
469.5983	0.0165
469.7994	0.0113
470.0006	0.0143
470.2017	0.0024
470.4027	0.0165
470.6038	0.0088
470.8049	0.004
471.0059	0.0146
471.2069	0.0126
471.408	0.0194
471.6089	0.0092
471.8099	0.0116
472.0109	0.0077
472.2119	0.0167
472.4128	0.0056
472.6137	0.016
472.8146	0.015
473.0155	0.0201
473.2164	0.0041
473.4173	0.0032
473.6181	-0.0004
473.819	0.0127
474.0198	-0.0041
474.2206	-0.0002
474.4214	0.0124
474.6222	0.0045
474.8229	0.0049
475.0237	0.0128
475.2244	0.0113
475.4251	0.0075
475.6258	-0.0016
475.8265	0.0084
476.0272	0.0044
476.2278	0.0122
476.4285	0.0028
476.6291	0.008
476.8297	0.0113
477.0303	-0.0011
477.2309	0.0092
477.4315	0.0077
477.632	0.0052
477.8326	0.0123
478.0331	0.0079
478.2336	0.0073
478.4341	0.0019
478.6346	0.0073
478.8351	0.0045
479.0355	0.0167
479.236	0.0143
479.4364	0.0117
479.6368	0.0115
479.8372	0.0057
480.0376	0.0048
480.2379	0.0075
480.4383	0.0122
480.6386	-0.0044
480.8389	0.0093
481.0392	0.0094
481.2395	0.0058
481.4398	0.0061
481.6401	0.0053
481.8403	0.0071
482.0405	0.0156
482.2408	0.0064
482.441	0.0115
482.6411	0.0065
482.8413	0.0025
483.0415	0.0078
483.2416	0.0077
483.4417	0.0117
483.6419	-0.0048
483.8419	0.0037
484.042	0.0119
484.2421	-0.0001
484.4422	0.0069
484.6422	-0.0014
484.8422	0.009
485.0422	0.0063
485.2422	0.0067
485.4422	0.0061
485.6422	0.0082
485.8421	0.0091
486.042	0.0126
486.242	0.002
486.4419	0.0057
486.6417	0.0059
486.8416	0.0089
487.0415	-0.0005
487.2413	0.006
487.4411	0.007
487.641	-0.0002
487.8408	0.0078
488.0405	0.0115
488.2403	-0.0018
488.4401	0.0067
488.6398	0.009
488.8395	0.0145
489.0392	0.0082
489.2389	0.0078
489.4386	-0
489.6383	0.0027
489.8379	0.0032
490.0376	0.0047
490.2372	-0.0003
490.4368	0.002
490.6364	-0.0026
490.836	-0.0008
491.0355	-0.0045
491.2351	-0.0033
491.4346	-0.0033
491.6341	-0.0023
491.8336	-0.0006
492.0331	0.0008
492.2326	0.0003
492.432	-0.0019
492.6315	0.0041
492.8309	0.0073
493.0303	0.0053
493.2297	0.0093
493.4291	-0.0039
493.6284	0.005
493.8278	-0.0023
494.0271	0.0006
494.2264	0.0014
494.4257	0.0063
494.625	0
494.8243	-0.0024
495.0236	0.007
495.2228	0.0066
495.422	-0.002
495.6213	0.0011
495.8205	0.0016
496.0196	0.0017
496.2188	0.0005
496.418	0.0044
496.6171	-0
496.8162	-0.0013
497.0153	0.0067
497.2144	0.0103
497.4135	-0.0009
497.6126	0.0068
497.8116	0.0037
498.0107	0.0021
498.2097	0.0035
498.4087	-0.0015
498.6077	-0.006
498.8067	0.0027
499.0056	-0.0027
499.2046	0.0012
499.4035	0.0068
499.6024	-0.0112
499.8013	0.0069
500.0002	0
500.199	0.0109
500.3979	-0.0044
500.5967	-0.0006
500.7956	0.0033
500.9944	0.0064
501.1932	0.0064
501.3919	0.0041
501.5907	0.0092
501.7895	-0.002
501.9882	0.0039
502.1869	0.0061
502.3856	-0.001
502.5843	0.0079
502.783	0.0013
502.9816	0.0051
503.1803	0.0096
503.3789	0.0056
503.5775	-0.0015
503.7761	-0.0027
503.9747	0.0091
504.1732	-0.009
504.3718	0.0034
504.5703	0.0037
504.7689	0.004
504.9674	0.0005
505.1658	-0.0023
505.3643	-0.0003
505.5628	0.0091
505.7612	0.0063
505.9597	-0.0043
506.1581	0.0021
506.3565	0.003
506.5549	-0.0096
506.7532	-0.0073
506.9516	0.0052
507.1499	-0.0023
507.3482	0.0127
507.5465	0.0059
507.7448	0.0046
507.9431	0.0055
508.1414	-0.0065
508.3396	0.0052
508.5379	0.0013
508.7361	0.0009
508.9343	0.0091
509.1325	0.0016
509.3306	-0.0077
509.5288	-0.0138
509.7269	0.0018
509.9251	0.0114
510.1232	0.0003
510.3213	0.0068
510.5193	0.0062
510.7174	-0.0047
510.9154	-0.0029
511.1135	-0.0006
511.3115	-0.0052
511.5095	-0.0034
511.7075	0.004
511.9055	0.003
512.1034	-0.005
512.3014	-0.0081
512.4993	-0.0031
512.6972	0.001
512.8951	-0.0015
513.093	-0.0076
513.2908	0.0106
513.4887	0.0043
513.6865	0.0006
513.8844	0.01
514.0822	0.0061
514.2799	-0.0054
514.4777	-0.0066
514.6755	0.0005
514.8732	0.0038
515.0709	0.0009
515.2687	0.0025
515.4664	0.0042
515.664	0.0014
515.8617	0.0095
516.0594	0.002
516.257	-0.0076
516.4546	0.0025
516.6522	0.0048
516.8498	-0.0048
517.0474	0.0066
517.2449	-0.0043
517.4425	-0.0014
517.64	0.0059
517.8375	0.0048
518.035	-0.0017
518.2325	-0.0029
518.43	-0.003
518.6274	-0.009
518.8249	-0.0083
519.0223	0.0029
519.2197	0.0006
519.4171	-0.0095
519.6145	-0.0014
519.8118	-0.0108
520.0092	-0.0086
520.2065	0.0074
520.4038	0.0038
520.6011	0.0052
520.7984	0.0115
520.9956	0.0009
521.1929	0.0084
521.3901	0.0049
521.5874	0.0078
521.7846	-0.0122
521.9818	-0.0032
522.1789	-0.0057
522.3761	0.014
522.5732	0.001
522.7704	-0.0085
522.9675	-0.0038
523.1646	-0.0014
523.3617	0.0044
523.5587	-0.0063
523.7558	-0.0033
523.9528	0.0033
524.1498	-0.0038
524.3468	-0.002
524.5438	0.0022
524.7408	0.0046
524.9378	-0.0038
525.1347	0.0034
525.3316	-0
525.5285	0.0033
525.7254	0.0048
525.9223	0.0118
526.1192	0.0059
526.316	0.0088
526.5129	-0.0029
526.7097	-0.0042
526.9065	0.0022
527.1033	0.0031
527.3	-0.009
527.4968	-0.0022
527.6935	-0.0009
527.8903	0.0014
528.087	-0.0065
528.2837	0.0047
528.4804	0.0008
528.677	0.002
528.8737	0.0001
529.0703	0.0004
529.2669	0.0094
529.4635	-0.0031
529.6601	-0.0119
529.8567	-0.0137
530.0532	0.0011
530.2498	-0.0047
530.4463	-0.0033
530.6428	0.0013
530.8393	0.0074
531.0358	-0.0053
531.2322	-0.0006
531.4287	-0.0002
531.6251	0.004
531.8215	-0.0022
532.0179	0.0072
532.2143	-0.0021
532.4107	0.012
532.607	0.0029
532.8034	-0.0022
532.9997	-0.0048
533.196	-0.0036
533.3923	0.0045
533.5886	-0.0071
533.7848	0.0056
533.9811	0.0063
534.1773	0.0021
534.3735	0.004
534.5697	0.0029
534.7659	0.0007
534.9621	0.0006
535.1582	0.0031
535.3544	0.002
535.5505	0.0097
535.7466	0.0096
535.9427	-0.001
536.1387	-0.0023
536.3348	0.0097
536.5308	-0.0031
536.7269	0.0021
536.9229	0.002
537.1189	0.009
537.3148	-0.0004
537.5108	0.0037
537.7068	0.0042
537.9027	-0.0046
538.0986	0.0128
538.2945	0.0025
538.4904	-0.0073
538.6863	-0.0004
538.8821	0.0011
539.078	0.0083
539.2738	0.0029
539.4696	-0.0015
539.6654	-0.0004
539.8611	0.0031
540.0569	-0.0034
540.2526	0.0091
540.4484	-0.0139
540.6441	0.0022
540.8398	0.0077
541.0355	-0.0112
541.2311	-0.0027
541.4268	0.0016
541.6224	0.0097
541.818	0.0069
542.0136	0.0162
542.2092	0.0149
542.4048	0.0057
542.6003	-0.0002
542.7959	0.0114
542.9914	0.0031
543.1869	0.0033
543.3824	0.0001
543.5779	0.005
543.7734	0.016
543.9688	0.0053
544.1642	0.0049
544.3596	0.0017
544.555	-0.0048
544.7504	0.015
544.9458	0.0052
545.1411	0.0003
545.3365	0.0114
545.5318	0.0047
545.7271	0.0069
545.9224	0.0002
546.1177	0.0121
546.3129	0.0032
546.5081	-0.0005
546.7034	0.0088
546.8986	0.0018
547.0938	0.0016
547.289	0.0084
547.4841	0.0068
547.6793	0.0094
547.8744	0.003
548.0695	0.002
548.2646	0.0039
548.4597	0.0009
548.6548	0.0154
548.8498	0.0122
549.0448	-0.0051
549.2399	0.0086
549.4349	0.0034
549.6298	0.0046
549.8248	0.0027
550.0198	0.0026
550.2147	-0.0005
550.4096	-0.0094
550.6045	0.0025
550.7994	0.0103
550.9943	0.0056
551.1892	-0.0067
551.384	0.0064
551.5788	0.0025
551.7737	0.0122
551.9685	0.0052
552.1632	0.0001
552.358	0.0024
552.5528	0.0008
552.7475	0.0054
552.9422	0.0076
553.1369	0.0121
553.3316	0.0157
553.5263	0.0044
553.7209	0.0035
553.9156	0.0038
554.1102	0.0081
554.3048	-0.0031
554.4994	0.0008
554.694	0.0109
554.8885	0.0056
555.0831	0.0118
555.2776	0.0023
555.4721	0.0085
555.6666	-0.0002
555.8611	0.0035
556.0555	0.0061
556.25	0.0108
556.4444	0.0038
556.6388	-0.0038
556.8332	0.0015
557.0276	0.0073
557.222	-0.0072
557.4163	0.0089
557.6107	0.0045
557.805	0.0076
557.9993	0.0049
558.1936	-0.0084
558.3879	0.0146
558.5821	-0.0072
558.7764	0.0033
558.9706	0.0085
559.1648	0.0125
559.359	-0.004
559.5532	0.0013
559.7473	0.0014
559.9415	0.0062
560.1356	0.0089
560.3297	0.0049
560.5238	0.0098
560.7179	-0.0022
560.9119	0.0027
561.106	-0.005
561.3	-0.0002
561.494	-0.0034
561.688	-0.0047
561.882	0.003
562.076	0.0077
562.2699	0.0159
562.4639	0.0108
562.6578	0.0071
562.8517	0.0059
563.0456	0.0003
563.2395	0.0107
563.4333	0.0017
563.6272	0.0035
563.821	0.0028
564.0148	0.0052
564.2086	0.0002
564.4024	0.0157
564.5961	0.0137
564.7899	0.0142
564.9836	0.0011
565.1773	0.0106
565.371	0.0098
565.5647	0.0119
565.7584	0.0161
565.952	0.0027
566.1456	0.007
566.3393	0.0011
566.5329	0.0021
566.7264	0.0044
566.92	0.0064
567.1136	0.0016
567.3071	0.0002
567.5006	0.0063
567.6941	0.0078
567.8876	0.0028
568.0811	0.0199
568.2745	0.0052
568.468	0.0093
568.6614	0.0094
568.8548	0.0075
569.0482	0.0075
569.2416	0.0095
569.4349	0.0064
569.6283	0.0039
569.8216	0.0042
570.0149	0.0026
570.2082	0.0106
570.4015	0.0021
570.5947	0.007
570.788	0.0119
570.9812	0.0054
571.1744	0.0093
571.3676	0.007
571.5608	0.0051
571.754	0.0171
571.9471	0.0099
572.1402	0.0062
572.3333	0.0059
572.5264	0.0102
572.7195	0.0036
572.9126	0.0084
573.1057	0.008
573.2987	0.0077
573.4917	0.0094
573.6847	0.0024
573.8777	0.0124
574.0707	0.0112
574.2636	0.0041
574.4566	0.0038
574.6495	0.0054
574.8424	0.0117
575.0353	0.0093
575.2281	0.0122
575.421	0.0021
575.6138	0.0035
575.8067	0.0113
575.9995	0.0075
576.1923	0.0086
576.385	0.01
576.5778	0.0136
576.7706	0.0046
576.9633	0.0104
577.156	-0.0001
577.3487	0.004
577.5414	0.0021
577.734	0.007
577.9267	0.0109
578.1193	0.0105
578.3119	0.0042
578.5045	0.0079
578.6971	0.0036
578.8897	0.0024
579.0822	0.0121
579.2747	0.0092
579.4673	0.0086
579.6598	0.0093
579.8522	0.0079
580.0447	0.0086
580.2372	0.0101
580.4296	0.0087
580.622	0.0042
580.8144	0.0088
581.0068	0.0091
581.1992	0.0067
581.3915	0.002
581.5839	0.0087
581.7762	0.0071
581.9685	0.0067
582.1608	0.0072
582.353	0.0057
582.5453	0.0109
582.7375	0.0102
582.9298	0.0033
583.122	0.0049
583.3142	0.0127
583.5063	0.01
583.6985	0.0028
583.8906	0.0047
584.0827	0.0075
584.2749	0.0053
584.4669	0.0078
584.659	0.013
584.8511	0.012
585.0431	0.0097
585.2352	0.0068
585.4272	0.0115
585.6192	0.0079
585.8111	0.0061
586.0031	0.0047
586.195	0.0055
586.387	0.007
586.5789	0.0076
586.7708	0.0085
586.9627	0.0104
587.1545	0.0047
587.3464	0.0099
587.5382	0.0069
587.73	0.0089
587.9218	0.0053
588.1136	0.0035
588.3053	0.0106
588.4971	0.0116
588.6888	0.0051
588.8805	0.0047
589.0722	0.0137
589.2639	0.0057
589.4556	0.0103
589.6472	0.0154
589.8389	0.0036
590.0305	0.0082
590.2221	0.0138
590.4137	0.0037
590.6052	0.0067
590.7968	0.0091
590.9883	0.0112
591.1798	0.0052
591.3713	0.0083
591.5628	0.009
591.7543	0.0066
591.9458	0.0035
592.1372	0.0131
592.3286	0.0074
592.52	0.0064
592.7114	0.0094
592.9028	0.0138
593.0941	0.0073
593.2855	0.0057
593.4768	0.0163
593.6681	0.018
593.8594	0.0083
594.0506	0.0045
594.2419	0.0103
594.4331	0.0089
594.6244	-0.0017
594.8156	0.0061
595.0067	0.0043
595.1979	0.0049
595.3891	0.0103
595.5802	0.0108
595.7713	0.0085
595.9624	0.0149
596.1535	0.0041
596.3446	0.0014
596.5357	0.0071
596.7267	0.0033
596.9177	0.0078
597.1087	0.0034
597.2997	0.0098
597.4907	0.0018
597.6817	0.0119
597.8726	0.0132
598.0635	0.003
598.2544	0.0089
598.4453	0.0066
598.6362	0.0057
598.827	0.0052
599.0179	0.0069
599.2087	0.0124
599.3995	0.0062
599.5903	0.0122
599.7811	0.0165
599.9718	0.0059
600.1626	0.0072
600.3533	0.0047
600.544	0.0097
600.7347	0.0084
600.9254	0.0146
601.116	0.0054
601.3067	0.0059
601.4973	0.0087
601.6879	0.0034
601.8785	0.0108
602.0691	0.0076
602.2596	0.0123
602.4502	0.0071
602.6407	0.0105
602.8312	0.0081
603.0217	0.0078
603.2122	0.0103
603.4027	0.0078
603.5931	0.0054
603.7835	0.0061
603.9739	0.0064
604.1643	0.0166
604.3547	0.0139
604.5451	0.0115
604.7354	0.0001
604.9257	0.0057
605.116	0.0028
605.3063	0.0027
605.4966	0.0057
605.6869	0.014
605.8771	0.0093
606.0673	0.0094
606.2575	0.0079
606.4477	0.0134
606.6379	0.0056
606.8281	0.0042
607.0182	0.0089
607.2083	0.0082
607.3985	0.0132
607.5885	0.0052
607.7786	0.0066
607.9687	0.0056
608.1587	0.0109
608.3488	0.0091
608.5388	0.0027
608.7288	0.0022
608.9187	0.0072
609.1087	0.0153
609.2986	0.0112
609.4886	0.0014
609.6785	0.0102
609.8684	0.0019
610.0582	-0.0019
610.2481	-0.0019
610.4379	0.0136
610.6278	0.0122
610.8176	0.0118
611.0074	0.0071
611.1971	0.0089
611.3869	0.0089
611.5766	0.0067
611.7664	0.0086
611.9561	0.0101
612.1458	0.0039
612.3354	0.0009
612.5251	0.0081
612.7147	0.0079
612.9044	0.0035
613.094	0.0117
613.2836	0.0027
613.4731	0.0064
613.6627	0.0109
613.8522	0.0105
614.0417	0.0179
614.2313	0.0017
614.4207	0.0098
614.6102	0.0166
614.7997	0.0134
614.9891	0.0088
615.1785	-0.0037
615.3679	0.0091
615.5573	0.0117
615.7467	-0.0012
615.9361	0.0119
616.1254	0.0166
616.3147	0.0111
616.504	0.0037
616.6933	0.0106
616.8826	0.0049
617.0718	0.0151
617.2611	0.0073
617.4503	0.0078
617.6395	0.0145
617.8287	0.0104
618.0179	0.0073
618.207	0.0121
618.3961	-0.0033
618.5853	0.0052
618.7744	0.0056
618.9634	0.0123
619.1525	0.0058
619.3416	0.0082
619.5306	0.0062
619.7196	0.0133
619.9086	-0.0009
620.0976	0.0024
620.2866	0.0173
620.4755	0.0096
620.6645	0.0179
620.8534	0.0149
621.0423	0.0057
621.2312	-0.0013
621.42	0.0004
621.6089	0.0026
621.7977	0.021
621.9865	0.0043
622.1753	-0.0047
622.3641	0.0049
622.5529	0.0002
622.7416	0.0102
622.9303	0.0076
623.1191	0.0038
623.3078	0.0003
623.4964	0.0036
623.6851	0.0113
623.8737	0.0081
624.0624	-0.0053
624.251	0.0184
624.4396	0.0079
624.6282	0.0155
624.8167	0.0083
625.0053	0.0147
625.1938	0.0119
625.3823	0.0126
625.5708	0.0033
625.7593	0.0015
625.9477	0.0108
626.1362	-0.0027
626.3246	0.0081
626.513	0.0069
626.7014	0.0167
626.8898	0.0164
627.0781	0.0137
627.2665	0.015
627.4548	0.0043
627.6431	0.0119
627.8314	0.0077
628.0197	0.0122
628.2079	0.0157
628.3962	0.0014
628.5844	0.0015
628.7726	0.0002
628.9608	0.0177
629.1489	0.0101
629.3371	0.0012
629.5252	0.0097
629.7134	0.006
629.9015	0.0114
630.0895	-0.0119
630.2776	0.0045
630.4657	0.0208
630.6537	0.0159
630.8417	-0.0019
631.0297	0.0126
631.2177	0.0073
631.4057	0.007
631.5936	0.0098
631.7815	0.0032
631.9695	0.0222
632.1574	0.0043
632.3452	0.0072
632.5331	0.0082
632.7209	0.0241
632.9088	0.0049
633.0966	0.0343
633.2844	0.0063
633.4722	0.0173
633.6599	0.03
633.8477	0.0227
634.0354	0.0116
634.2231	-0.0048
634.4108	0.0202
634.5985	0.0087
634.7861	0.0064
634.9738	-0.002
635.1614	0.0176
635.349	-0.0021
635.5366	0.024
635.7242	0.0041
635.9117	0.0136
636.0993	0.0172
636.2868	0.0064
636.4743	0.0072
636.6618	-0.0147
636.8492	0.0178
637.0367	0.0006
637.2241	-0.0027
637.4115	0.0282
637.5989	0.0141
637.7863	0.0183
637.9737	0.0023
638.161	0.0264
638.3484	-0.0015
638.5357	0.0098
638.723	0.0144
638.9103	-0.011
639.0975	-0.0094
639.2848	0.0283
639.472	0.0149
639.6592	-0.0128
639.8464	0.0088
640.0336	0.0304
640.2208	-0.0099
640.4079	0.0001
640.595	-0.0047
640.7821	0.0161
640.9692	0.0081
641.1563	0.0034
641.3434	0.0076
641.5304	0.0282
641.7174	0.0179
641.9044	-0.0052
642.0914	0.0403
642.2784	0.0107
642.4653	-0.0104
642.6523	0.0239
642.8392	-0.008
643.0261	0.0233
643.213	0.0084
643.3999	0.0157
643.5867	0.0081
643.7735	0.0058
643.9604	0.0176
644.1472	0.014
644.3339	0.0121
644.5207	0.0011
644.7075	0.0155
644.8942	0.0071
645.0809	0.0061
645.2676	0.0088
645.4543	0.0112
645.6409	0.0186
645.8276	0.0215
646.0142	0.0111
646.2008	-0.0012
646.3874	0.0131
646.574	0.0074
646.7605	0.0166
646.9471	-0.0069
647.1336	-0.0141
647.3201	-0.0052
647.5066	0.0109
647.6931	0.0059
647.8795	0.0056
648.0659	0.0045
648.2524	0.0115
648.4388	0.0048
648.6252	0.0185
648.8115	0.0134
648.9979	0.0317
649.1842	0.0012
649.3705	0.0264
649.5568	0.0008
649.7431	0.0004
649.9294	0.0025
650.1156	0.0012
650.3018	0.0198
650.488	0.0208
650.6742	0.028
650.8604	0.0054
651.0466	0.0034
651.2327	0.0047
651.4188	0.012
651.6049	0.0082
651.791	0.016
651.9771	0.0101
652.1632	0.0203
652.3492	0.0189
652.5352	0.0104
652.7212	0.0308
652.9072	0.0034
653.0932	0.0122
653.2791	-0.0045
653.465	0.0181
653.651	0.0146
653.8369	0.0162
654.0227	0.0019
654.2086	0.0091
654.3944	0.0153
654.5803	-0.0007
654.7661	0.0079
654.9519	0.0007
655.1377	0.0002
655.3234	0.0002
655.5092	0.0002
655.6949	0.0002
655.8806	0.0002
656.0663	0.0002
656.2519	0.0002
656.4376	0.0002
656.6232	0.0002
656.8088	0.0002
656.9945	0.0002
657.18	0.0002
657.3656	0.0002
657.5511	0.0002
657.7367	0.0002
657.9222	0.0002
658.1077	0.0002
658.2932	0.0002
658.4786	0.0002
658.6641	0.0002
658.8495	0.0002
659.0349	0.0002
659.2203	0.0002
659.4057	0.0166
659.591	0.2665
659.7764	0.0295
659.9617	0.0158
660.147	0.009
660.3323	0.0043
660.5176	-0.0161
660.7028	-0.0052
660.888	0.0176
661.0733	0.0087
661.2585	-0.0062
661.4436	0.0103
661.6288	0.0358
661.8139	0.004
661.9991	-0.0114
662.1842	-0.013
662.3693	-0.0043
662.5544	0.0147
662.7394	0.0047
662.9245	0.0038
663.1095	-0.0037
663.2945	-0.0142
663.4795	-0.0055
663.6644	0.0077
663.8494	0.0259
664.0343	0.0211
664.2193	0.0133
664.4042	0.002
664.589	-0.0003
664.7739	0.0098
664.9587	-0.0113
665.1436	0.0012
665.3284	0.0121
665.5132	-0.0238
665.698	0.0263
665.8827	0.0274
666.0675	-0.0435
666.2522	0.0118
666.4369	-0.0107
666.6216	0.0105
666.8063	-0.0134
666.9909	0.0252
667.1756	0.0049
667.3602	-0.0004
667.5448	0.0138
667.7294	0.029
667.9139	0.0013
668.0985	0.0341
668.283	0.0262
668.4675	0.0282
668.652	0.009
668.8365	0.0224
669.0209	0.0258
669.2054	0.0309
669.3898	0.0246
669.5742	0.0047
669.7586	0.0192
669.943	0.0164
670.1273	0.0072
670.3117	0.0289
670.496	0.0163
670.6803	0.0064
670.8646	-0.0006
671.0488	0.0354
671.2331	-0.0082
671.4173	0.0085
671.6015	0.0158
671.7857	0.0075
671.9699	0.0322
672.1541	0.0101
672.3382	-0.0006
672.5223	0.0098
672.7064	0.005
672.8905	-0.0028
673.0746	0.0042
673.2587	0.0172
673.4427	0.0258
673.6267	0.0092
673.8107	0.0372
673.9947	0.0136
674.1787	0.0233
674.3626	0.0294
674.5465	0.0197
674.7304	0.0075
674.9143	0.0031
675.0982	-0.0074
675.2821	0.0081
675.4659	0.0065
675.6497	-0.0033
675.8335	-0.0128
676.0173	-0.0216
676.2011	0.0145
676.3849	0.0134
676.5686	0.0191
676.7523	0.0264
676.936	0.0187
677.1197	-0.005
677.3034	0.0266
677.487	0.0163
677.6706	0.0078
677.8542	0.0056
678.0378	0.0141
678.2214	0.0058
678.405	-0.0033
678.5885	0.0204
678.772	0.0118
678.9555	0.0099
679.139	0.0139
679.3225	-0.0025
679.5059	-0.0089
679.6894	0.0052
679.8728	0.0126
680.0562	0.0279
680.2395	0.0097
680.4229	-0.0087
680.6062	0.0214
680.7896	-0.0044
680.9729	0.0184
681.1562	-0.0019
681.3394	0.0267
681.5227	-0.0026
681.7059	-0.0008
681.8891	0.019
682.0723	0.0053
682.2555	-0.0007
682.4387	0.01
682.6218	0.0002
682.805	0.0213
682.9881	0.0383
683.1712	0.0105
683.3542	0.0236
683.5373	0.0209
683.7203	-0.0066
683.9034	0.0013
684.0864	0.0095
684.2694	0.0095
684.4523	0.019
684.6353	-0.0035
684.8182	0.0052
685.0011	0.0074
685.184	-0.001
685.3669	0.0216
685.5498	0.0001
685.7326	-0.0017
685.9154	-0.0093
686.0982	0.0176
686.281	0.0202
686.4638	0.0044
686.6465	0.0006
686.8293	-0.0118
687.012	0.002
687.1947	0.0163
687.3774	0.0122
687.56	-0.0146
687.7427	-0.005
687.9253	-0.0056
688.1079	0.0088
688.2905	0.0103
688.4731	0.021
688.6556	-0.0125
688.8382	-0.0015
689.0207	-0.0008
689.2032	0.0255
689.3857	0.0031
689.5681	0.0157
689.7506	0.021
689.933	0.0137
690.1154	0.0202
690.2978	0.0038
690.4802	0.031
690.6626	0.004
690.8449	0.0227
691.0272	-0.0011
691.2095	-0.0347
691.3918	0.0253
691.5741	0.0176
691.7563	0.0038
691.9386	0.0286
692.1208	0.0259
692.303	0.0171
692.4852	0.0132
692.6673	0.012
692.8495	-0.0008
693.0316	0.0153
693.2137	0.0145
693.3958	0.011
693.5778	0.0256
693.7599	0.0092
693.9419	-0.0097
694.1239	0.0061
694.3059	0.0301
694.4879	0.0005
694.6699	-0.0079
694.8518	0.0119
695.0337	0.0219
695.2157	0.0265
695.3975	-0.0023
695.5794	-0.0133
695.7613	0.0144
695.9431	-0.0231
696.1249	0.0284
696.3067	-0.0047
696.4885	0.0348
696.6703	0.0056
696.852	-0.0061
697.0337	0.026
697.2154	0.0076
697.3971	0.0189
697.5788	0.0201
697.7605	-0.0105
697.9421	0.0255
698.1237	0.0367
698.3053	-0.0103
698.4869	0.008
698.6685	0.0017
698.85	0.0165
699.0315	0.0078
699.213	0.0359
699.3945	-0.0144
699.576	0.0099
699.7575	0.0227
699.9389	0.0219
700.1203	0.0178
700.3017	0.0282
700.4831	0.023
700.6645	0.0359
700.8458	-0.0087
701.0271	0.0341
701.2084	-0.012
701.3897	0.0348
701.571	0.0176
701.7523	0.0114
701.9335	0.0473
702.1147	0.0269
702.2959	0.0064
702.4771	0.0092
702.6583	0.0072
702.8394	-0.016
703.0205	0.0212
703.2016	-0.0097
703.3827	0.0228
703.5638	-0.0172
703.7449	0.0201
703.9259	0.0072
704.1069	-0.0221
704.2879	0.0211
704.4689	0.0056
704.6499	0.0166
704.8308	0.0112
705.0117	0.0154
705.1927	0.0154
705.3735	0.0215
705.5544	0.0258
705.7353	0.0033
705.9161	-0.0209
706.0969	0.0319
706.2777	-0.0084
706.4585	-0.0048
706.6393	0.0249
706.82	0.009
707.0007	-0.0018
707.1815	-0.0159
707.3621	0.0221
707.5428	0.0305
707.7235	0.0236
707.9041	0.0109
708.0847	0.0204
708.2653	0.0315
708.4459	-0.0109
708.6265	-0.0352
708.807	-0.008
708.9875	-0.0148
709.168	0.0103
709.3485	0.0355
709.529	0.0165
709.7095	-0.0166
709.8899	0.0231
710.0703	0.018
710.2507	-0.0062
710.4311	-0.0153
710.6115	0.0257
710.7918	0.0266
710.9721	0.0097
711.1524	0.0119
711.3327	-0.0067
711.513	0.0124
711.6932	0.0202
711.8735	0.0245
712.0537	-0.0223
712.2339	0.0197
712.4141	0.0086
712.5942	-0.0008
712.7744	0.0188
712.9545	0.0018
713.1346	0.0218
713.3147	0.0216
713.4947	-0.0047
713.6748	0.0183
713.8548	0.0327
714.0348	0.0323
714.2148	0.0167
714.3948	0.0258
714.5748	-0.0007
714.7547	0.0404
714.9346	0.0035
715.1145	0.0124
715.2944	-0.0023
715.4743	0.0141
715.6541	0.0012
715.834	0.0226
716.0138	-0.0015
716.1936	0.0324
716.3733	-0.0046
716.5531	0.0097
716.7328	0.0298
716.9126	0.0327
717.0923	-0.015
717.2719	0.0179
717.4516	0.0075
717.6312	-0.0149
717.8109	0.0249
717.9905	0.0236
718.1701	0.0137
718.3496	0.0042
718.5292	-0.0131
718.7087	0.0182
718.8882	-0.0031
719.0677	0.0197
719.2472	-0.0118
719.4267	0.0074
719.6061	-0.037
719.7856	0.0444
719.965	0.0277
720.1443	-0.0032
720.3237	0.0234
720.5031	-0.0028
720.6824	0.0041
720.8617	0.0222
721.041	0.0328
721.2203	0.0143
721.3995	0.0037
721.5788	0.007
721.758	-0.0005
721.9372	-0.0013
722.1164	0.0072
722.2956	0.0083
722.4747	0.0173
722.6538	0.0092
722.8329	0.0451
723.012	0.0102
723.1911	0.0203
723.3702	0.0437
723.5492	-0.0039
723.7282	-0.0095
723.9072	0.0172
724.0862	0.0062
724.2652	0.0389
724.4441	0.0003
724.623	0.0132
724.8019	0.0071
724.9808	0.0044
725.1597	0.0158
725.3385	0.0178
725.5174	0.0123
725.6962	0.0339
725.875	0.029
726.0538	0.0115
726.2325	0.046
726.4112	-0.0212
726.59	0.0038
726.7687	-0.0215
726.9474	0.0044
727.126	0.0177
727.3047	-0.0075
727.4833	0.018
727.6619	0.0053
727.8405	0.0023
728.0191	0.0303
728.1976	0.0349
728.3762	0.0308
728.5547	0.0003
728.7332	0.0236
728.9116	0.0404
729.0901	0.0072
729.2686	0.0153
729.447	-0.0036
729.6254	0.0056
729.8038	-0.0072
729.9821	-0.0023
730.1605	0.0117
730.3388	0.0124
730.5171	0.0152
730.6954	-0.0052
730.8737	0.0089
731.0519	-0.0247
731.2302	0.02
731.4084	0.01
731.5866	-0.0009
731.7648	0.0011
731.9429	0.0305
732.1211	0.0107
732.2992	0.0028
732.4773	0.0226
732.6554	-0.004
732.8335	0.0302
733.0115	0.0106
733.1896	-0.0056
733.3676	0.0087
733.5456	0.0034
733.7235	-0.0051
733.9015	0.0185
734.0794	0.0078
734.2574	-0.0055
734.4353	0.026
734.6131	0.019
734.791	0.0079
734.9689	-0.0082
735.1467	-0.0031
735.3245	0.029
735.5023	0.0218
735.68	0.0032
735.8578	0.034
736.0355	0.0311
736.2132	0.0036
736.3909	-0.0053
736.5686	0.0071
736.7463	-0.0157
736.9239	0.0221
737.1015	0.0008
737.2791	0.0254
737.4567	0.0193
737.6343	-0.0134
737.8118	0.0175
737.9894	0.0124
738.1669	0.0063
738.3444	0.0339
738.5218	-0.0152
738.6993	0.0153
738.8767	0.0047
739.0541	0.009
739.2315	-0.0045
739.4089	0.0348
739.5863	0.0079
739.7636	0.0023
739.9409	0.0132
740.1182	0.0228
740.2955	0.0313
740.4728	0.0091
740.65	-0.0071
740.8272	0.0335
741.0044	-0.0007
741.1816	0.0196
741.3588	-0.0217
741.5359	0.0064
741.7131	0.0156
741.8902	-0.0026
742.0673	-0.0079
742.2444	0.0312
742.4214	0.0192
742.5985	0.027
742.7755	0.0207
742.9525	0.018
743.1295	-0.0086
743.3064	-0.0006
743.4834	0.0155
743.6603	0.0446
743.8372	-0.0263
744.0141	0.0469
744.191	0.0051
744.3678	-0.0271
744.5446	0.0085
744.7215	0.0198
744.8982	0.0082
745.075	0.0539
745.2518	-0.0042
745.4285	0.0412
745.6052	-0.0193
745.7819	0.0175
745.9586	0.0044
746.1353	0.0144
746.3119	0.029
746.4885	0.0136
746.6651	-0.0027
746.8417	0.0123
747.0183	0.0439
747.1948	0.0166
747.3714	0.03
747.5479	0.0096
747.7244	-0.0151
747.9008	0.0077
748.0773	0.0439
748.2537	0.0325
748.4301	0.0535
748.6065	-0.0024
748.7829	-0.008
748.9593	0.0011
749.1356	0.0207
749.3119	0.0096
749.4882	0.0131
749.6645	0.0171
749.8408	0.0227
750.017	0.0085
750.1933	-0.0317
750.3695	0.022
750.5457	0.0286
750.7218	0.0205
750.898	0.004
751.0741	0.0142
751.2502	0.0263
751.4263	0.006
751.6024	0.0068
751.7784	0.0084
751.9545	0.0425
752.1305	0.0184
752.3065	0.0247
752.4825	0.0055
752.6584	0.007
752.8344	0.0115
753.0103	-0.0129
753.1862	0.017
753.3621	0.0082
753.5379	0.0208
753.7138	-0.0134
753.8896	-0.0015
754.0654	0.0121
754.2412	0.0314
754.417	0.0198
754.5927	0.0047
754.7685	0.0174
754.9442	0.0116
755.1199	0.0256
755.2956	0.011
755.4712	0.0032
755.6469	0.0178
755.8225	0.0019
755.9981	0.0074
756.1736	-0.0035
756.3492	0.0138
756.5248	0.0333
756.7003	0.0006
756.8758	-0.0005
757.0513	0.005
757.2267	0.0101
757.4022	0.009
757.5776	0.0054
757.753	0.0354
757.9284	0.0087
758.1038	0.0177
758.2791	0.0209
758.4545	-0.0032
758.6298	0.0135
758.8051	0.0142
758.9803	0.0184
759.1556	-0.0016
759.3308	-0.0025
759.506	0.0073
759.6812	0.0143
759.8564	0.0042
760.0316	-0.0043
760.2067	0.0383
760.3819	0.0066
760.557	-0.004
760.732	0.0095
760.9071	0.0302
761.0821	-0.0061
761.2572	0.0091
761.4322	0.0286
761.6072	0.0141
761.7821	-0.0168
761.9571	0.0283
762.132	0.0064
762.3069	0.0237
762.4818	0.0068
762.6567	0.0201
762.8316	0.0304
763.0064	0.0235
763.1812	0.0138
763.356	0.0145
763.5308	0.0385
763.7055	0.0059
763.8803	-0.01
764.055	0.0094
764.2297	0.0083
764.4044	0.0013
764.579	0.0052
764.7537	0.0191
764.9283	0.008
765.1029	0.0157
765.2775	0.0166
765.4521	0.0119
765.6266	-0.0118
765.8011	0.0334
765.9756	0.0274
766.1501	-0.0043
766.3246	0.0179
766.4991	-0.011
766.6735	0.0604
766.8479	0.0079
767.0223	0.0081
767.1967	0.0327
767.371	0.0103
767.5454	0.041
767.7197	0.0375
767.894	0.008
768.0683	0.0327
768.2425	0.002
768.4168	0.026
768.591	0.0225
768.7652	-0.0046
768.9394	0.0032
769.1135	-0.0108
769.2877	0.0329
769.4618	0.022
769.6359	0.0152
769.81	0.0305
769.984	0.023
770.1581	0.0214
770.3321	0.036
770.5061	0.0064
770.6801	0.0087
770.8541	0.0284
771.028	0.0171
771.202	0.0338
771.3759	0.0073
771.5498	0.0325
771.7236	-0.009
771.8975	0.03
772.0713	0.0258
772.2451	0.0386
772.4189	-0.0064
772.5927	-0.0073
772.7665	0.0019
772.9402	0.0115
773.1139	0.0272
773.2876	0.0242
773.4613	0.0344
773.635	0.0349
773.8086	0.0381
773.9822	0.0071
774.1558	0.0702
774.3294	0.0095
774.503	0.0012
774.6765	0.0389
774.8501	0.0012
775.0236	0.0119
775.1971	0.0006
775.3705	-0.001
775.544	0.0046
775.7174	0.0122
775.8908	0.005
776.0642	0.071
776.2376	-0.0076
776.4109	0.029
776.5843	-0.0372
776.7576	0.0232
776.9309	0.0548
777.1041	0.006
777.2774	0.009
777.4506	-0.017
777.6238	0.0177
777.797	0.0497
777.9702	0.0388
778.1434	0.0286
778.3165	-0.0135
778.4896	-0.0372
778.6627	0.0148
778.8358	0.0341
779.0089	0.0108
779.1819	0.0058
779.3549	-0.0238
779.5279	-0.0002
779.7009	0.0677
779.8739	0.0702
780.0468	-0.0016
780.2197	0.0366
780.3926	0.0104
780.5655	0.0174
780.7384	0.0172
780.9112	0.0345
781.0841	0.0498
781.2569	0.0192
781.4297	-0.014
781.6024	0.0175
781.7752	0.0599
781.9479	0.053
782.1206	-0.0192
782.2933	-0.0007
782.466	0.067
782.6386	-0.0262
782.8113	-0.0194
782.9839	0.0284
783.1565	0.0444
783.329	0.0176
783.5016	0.0044
783.6741	-0.014
783.8466	0.0275
784.0191	0.0109
784.1916	0.0134
784.3641	-0.0488
784.5365	0.0549
784.7089	0.0159
784.8813	0.1006
785.0537	0.0216
785.2261	0.0273
785.3984	0.0082
785.5707	-0.0197
785.743	0.0343
785.9153	0.008
786.0876	-0.0092
786.2598	0.0181
786.432	-0.0075
786.6042	0.0569
786.7764	-0.0339
786.9486	0.0054
787.1207	0.0201
787.2928	0.0505
787.4649	0.032
787.637	0.0142
787.8091	-0.0048
787.9811	0.0307
788.1532	0.0103
788.3252	-0.0048
788.4972	-0.0067
788.6691	0.0546
788.8411	-0.0031
789.013	0.0184
789.1849	0.0142
789.3568	-0.008
789.5287	0.0616
789.7005	0.0103
789.8723	-0.0283
790.0442	-0.0178
790.2159	-0.0273
790.3877	0.0849
790.5595	0.0343
790.7312	-0.0292
790.9029	0.0154
791.0746	0.0437
791.2463	-0.0049
791.4179	0.0258
791.5896	0.0735
791.7612	0.0395
791.9328	0.0123
792.1044	-0.0048
792.2759	-0.0173
792.4474	0.036
792.619	0.0339
792.7905	0.0031
792.9619	0.0716
793.1334	0.0466
793.3048	0.0655
793.4762	0.0412
793.6476	-0.0285
793.819	-0.0028
793.9904	0.021
794.1617	-0.0051
794.333	0.0033
794.5043	0.0351
794.6756	0.026
794.8469	0.0387
795.0181	0.0191
795.1893	0.0106
795.3605	0.025
795.5317	0.0311
795.7029	0.0187
795.874	0.0082
796.0452	0.0654
796.2163	0.0454
796.3873	0.1133
796.5584	0.0012
796.7294	-0.0207
796.9005	0.0085
797.0715	-0.0035
797.2425	0.1001
797.4134	0.0548
797.5844	0.0537
797.7553	-0.0648
797.9262	0.1302
798.0971	-0.0064
798.2679	0.0157
798.4388	0.0324
798.6096	0.0121
798.7804	0.0811
798.9512	0.0663
799.122	-0.0191
799.2927	0.0105
799.4635	-0.0135
799.6342	0.0136
799.8049	0.0331
799.9755	0.0161
800.1462	0.0673
800.3168	0.0482
800.4874	-0.0503
800.658	0.0474
800.8286	0.03
800.9991	0.0842
801.1696	-0.0175
801.3402	0.0221
801.5106	-0.029
801.6811	0.0122
801.8516	0.0276
802.022	0.0732
802.1924	-0.0188
802.3628	0.0341
802.5332	0.0159
802.7035	0.0966
802.8739	0.0113
803.0442	0.0206
803.2145	0.0901
803.3847	0.0522
803.555	0.0462
803.7252	-0.0296
803.8954	0.0079
804.0656	-0.0224
804.2358	0.062
804.4059	0.0469
804.5761	0.0872
804.7462	0.0299
804.9163	0.0583
805.0864	-0.0208
805.2564	-0.0453
805.4264	0.0285
805.5965	0.1077
805.7665	-0.0599
805.9364	0.0352
806.1064	0.0021
806.2763	0.0603
806.4462	0.0284
806.6161	0.0373
806.786	0.0234
806.9559	-0.0146
807.1257	0.0018
807.2955	0.0077
807.4653	0.0357
807.6351	0.0261
807.8048	0.0411
807.9746	0.0034
808.1443	0.0512
808.314	0.1005
808.4837	0.054
808.6533	0.0423
808.8229	0.0433
808.9926	0.0219
809.1622	0.082
809.3317	-0.0398
809.5013	-0.0338
809.6708	0.0217
809.8403	0.0367
810.0098	0.0177
810.1793	0.0721
810.3488	0.0772
810.5182	0.1671
810.6876	0.0337
810.857	0.0791
811.0264	0.0585
811.1958	0.0834
811.3651	0.0413
811.5344	0.0247
811.7037	0.0332
811.873	0.1336
812.0422	0.0233
812.2115	-0.0276
812.3807	-0.0886
812.5499	0.0694
812.7191	-0.0052
812.8882	-0.0537
813.0574	-0.0058
813.2265	0.0668
813.3956	0.0409
813.5646	0.1185
813.7337	0.1111
813.9027	-0.0526
814.0718	0.0213
814.2407	0.0417
814.4097	0.054
814.5787	0.0582
814.7476	0.0472
814.9165	-0.0504
815.0854	-0.0005
815.2543	-0.0736
815.4232	0.2192
815.592	0.2421
815.7608	-0.1609
815.9296	0.0281
816.0984	0.1059
816.2671	-0.066
816.4359	0.2575
816.6046	-0.0244
816.7733	-0.0432
816.942	-0.083
817.1106	0.0661
817.2793	-0.0548
817.4479	0.1364
817.6165	0.1495
817.785	0.1581
817.9536	-0.1076
818.1221	0.0206
818.2906	-0.0042
818.4591	0.0562
818.6276	0.0512
818.7961	0.0391
818.9645	0.0926
819.1329	-0.0052
819.3013	0.0322
819.4697	0.1096
819.638	0.0994
819.8064	-0.0041
819.9747	0.0818
820.143	0.003
820.3113	0.2081
820.4795	0.0274
820.6477	0.0506
820.816	0.1268
820.9842	0.1905
821.1523	0.0381
821.3205	-0.0222
821.4886	-0.0739
821.6567	-0.0148
821.8248	0.1292
821.9929	-0.1205
822.1609	-0.0008
822.329	0.0299
822.497	0.1336
822.665	0.0223
822.833	-0.1325
823.0009	-0.0474
823.1688	0.5989
823.3367	-0.077
823.5046	0.093
823.6725	-0.0414
823.8404	0.0336
824.0082	-0.0078
824.176	0.0934
824.3438	0.121
824.5116	-0.0257
824.6793	0.217
824.847	0.0044
825.0147	0.1862
825.1824	-0.0009
825.3501	0.0996
825.5177	0.0876
825.6854	-0.1483
825.853	-0.0078
826.0206	0.0137
826.1881	0.0409
826.3557	-0.0446
826.5232	0.2022
826.6907	0.068
826.8582	0.1046
827.0257	0.2847
827.1931	0.1528
827.3605	-0.1538
827.528	-0.1265
827.6953	-0.2038
827.8627	0.0307
828.03	0.1502
828.1974	-0.0205
828.3647	0.1308
828.532	0.0875
828.6992	0.0598
828.8665	-0.0355
829.0337	-0.0334
829.2009	-0.0201
829.3681	-0.0573
829.5352	-0.0021
829.7024	0.08
829.8695	-0.0896
830.0366	0.0797
830.2037	0.0357
830.3707	0.0804
830.5378	-0.1126
830.7048	0.0856
830.8718	0.1775
831.0388	-0.137
831.2057	-0.1054
831.3727	-0.0583
831.5396	0.0393
831.7065	-0.2914
831.8734	0.0175
832.0402	0.0893
832.2071	-0.6508
832.3739	0.681
832.5407	-1.9487
832.7075	-0.1292
832.8742	0.8431
833.041	0.2586
833.2077	0.2776
833.3744	0.0156
833.541	-0.0409
833.7077	-0.0198
833.8743	0.0619
834.0409	0.2146
834.2075	0.1901
834.3741	-0.1829
834.5407	0.0988
834.7072	0.2889
834.8737	0.352
835.0402	0.0885
835.2067	0.0117
835.3731	0.0748
835.5395	-0.053
835.706	0.3105
835.8723	0.0418
836.0387	0.0047
836.2051	1.8082
836.3714	0.3286
836.5377	0.0759
836.704	0.0948
836.8703	-0.0238
837.0365	-0.3951
837.2027	0.1155
837.3689	0.403
837.5351	0.8503
837.7013	0.0075
837.8674	0.3257
838.0335	-0.0313
838.1997	0.1003
838.3657	0.2356
838.5318	-0.4031
838.6978	-0
838.8639	-0.3921
839.0299	-0.1501
839.1958	0.334
839.3618	-0
839.5277	0.3199
839.6937	-0.0608
839.8596	-0.1063
840.0254	0.2526
840.1913	-0
840.3571	-0.3512
840.523	-0
840.6888	0.0646
840.8545	-0.5067
841.0203	0.0375
841.186	-0.0092
841.3517	-0.1696
841.5174	0.0147
841.6831	-0.0269
841.8488	0.0609
842.0144	0.2205
842.18	0.2519
842.3456	-0
842.5112	-0
842.6767	-0.0975
842.8422	-0.0668
843.0077	0.3143
843.1732	-0.3183
843.3387	-0
843.5042	-0
843.6696	0.8725
843.835	0.1803
844.0004	-0.0126
844.1657	-0
844.3311	-0
844.4964	-0.5554
844.6617	1.0092
844.827	-0
844.9923	0.2725
845.1575	0.5849
845.3227	0.2258
845.4879	-0.2705
845.6531	0.4513
845.8183	0.3587
845.9834	-0
846.1485	0.3678
846.3136	-0.0029
846.4787	-0
846.6438	0.0101
846.8088	0.9551
846.9738	-0
847.1388	0.3755
847.3038	0.2003
847.4687	0.4101
847.6337	-0.4353
847.7986	-0.1148
847.9635	-0.254
848.1284	-0
848.2932	0.3328
848.458	-1.7451
848.6228	0.3371
848.7876	0.1401
848.9524	-0
849.1172	-1.737
849.2819	-0
849.4466	0.2769
849.6113	0.0144
849.7759	-0.1897
849.9406	-0.0123
850.1052	-0.9414
850.2698	0.4509
850.4344	-0
850.599	0.8152
850.7635	0.2293
850.928	1.4493
851.0925	0.226
851.257	0.6784
851.4215	0.0256
851.5859	-0.0599
851.7503	-0
851.9147	0.5803
852.0791	0.6309
852.2434	0.4842
852.4078	-0
852.5721	-0.1475
852.7364	-0.1201
852.9007	0.4692
853.0649	0.3054
853.2291	-0
853.3934	-0.5973
853.5575	1.6542
853.7217	0.3355
853.8859	0.19
854.05	-0.2578
854.2141	0.069
854.3782	0.1567
854.5423	-0.3441
854.7063	0.7221
854.8703	0.4854
855.0343	0.215
855.1983	-0.1834
855.3623	0.4863
855.5262	-0.1496
855.6901	0.1238
855.854	0.4222
856.0179	-0.1486
856.1818	-0
856.3456	-0.0413
856.5094	-0
856.6732	-0
856.837	-1.1988
857.0008	-0.5109
857.1645	-0.5063
857.3282	0.2699
857.4919	1.4817
857.6556	-0
857.8192	-0.4061
857.9828	-0.1832
858.1465	-0.2989
858.31	-0.0575
858.4736	-0.7394
858.6372	-0.2338
858.8007	0.2639
858.9642	0.5012
859.1277	0.3277
859.2911	-0.1047
859.4546	-0
859.618	-0
859.7814	-0.258
859.9448	0.2735
860.1081	0.0797
860.2715	-0.4973
860.4348	0.3852
860.5981	0.3306
860.7614	-0
860.9246	-0.0401
861.0879	0.5133
861.2511	-0
861.4143	-0
861.5774	-0.4344
861.7406	-0
861.9037	-0
862.0668	-0
862.2299	-0
862.393	-0
862.556	-0
862.7191	-0.3852
862.8821	-0.0191
863.0451	-0.1312
863.208	-0
863.371	-0
863.5339	0.4525
863.6968	0.5736
863.8597	-0
864.0225	-0
864.1854	-0.1931
864.3482	-0
864.511	0.1151
864.6737	-0.1316
864.8365	0.3182
864.9992	-0
865.1619	-0
865.3246	-1.6848
865.4873	-0.0141
865.65	0.0555
865.8126	-0
865.9752	0.1394
866.1378	0.0321
866.3004	-0.2668
866.4629	-1.5315
866.6254	0.8006
866.7879	-0.2408
866.9504	-0
867.1129	-0.1947
867.2753	-0.2007
867.4377	-0
867.6001	-0.621
867.7625	-0.2588
867.9249	-0.0749
868.0872	-0
868.2495	-0
868.4118	-0
868.5741	1.0128
868.7363	-0
868.8986	-0.3341
869.0608	-0.1163
869.223	0.1403
869.3851	-0.6759
869.5473	0.1497
869.7094	0.648
869.8715	-0
870.0336	-0.0428
870.1957	-0.9871
870.3577	0.1557
870.5197	0.0321
870.6817	-0.6979
870.8437	-0
871.0057	0.5133
871.1676	0.0675
871.3295	0.0247
871.4914	-2.0154
871.6533	-0.4653
871.8151	0.5341
871.977	-0.704
872.1388	-0.3597
872.3006	-0.3749
872.4623	-0.4328
872.6241	0.2389
872.7858	0.5394
872.9475	-0
873.1092	0.3215
873.2709	-0
873.4325	-1.694
873.5941	-0
873.7557	0.1523
873.9173	-0
874.0789	0.3556
874.2404	-0
874.4019	-0.0524
874.5634	-0
874.7249	-0
874.8863	-0
875.0478	-0.1757
875.2092	0.5331
875.3706	0.223
875.5319	0.172
875.6933	-0
875.8546	-0.296
876.0159	0.5814
876.1772	-0
876.3385	-0
876.4997	0.5533
876.6609	-0
876.8221	-0
876.9833	-0.1568
877.1445	0.0622
877.3056	-0
877.4667	-0.771
877.6278	-0
877.7889	0.062
877.9499	0.8287
878.111	-0.2483
878.272	-0
878.433	-0
878.5939	1.4698
878.7549	-0
878.9158	-0.2029
879.0767	0.25
879.2376	-0
879.3984	0.5416
879.5593	1.152
879.7201	-1.6113
879.8809	-0
880.0417	1.3451
880.2024	-0
880.3632	0.8006
880.5239	0.8152
880.6846	-0.1011
880.8452	-0.0577
881.0059	-0
881.1665	0.9553
881.3271	0.1288
881.4877	0.0636
881.6483	-1.4737
881.8088	-0
881.9693	-1.5036
882.1298	-1.5036
882.2903	-1.5036
