Data from D4ACN5uM420nmA_Absorbance_14-37-07-406.txt Node
Date: Fri Feb 21 14:37:07 GMT 2025
User: LASERRRRR
Spectrometer: FLMT03099
Trigger mode: 0
Integration Time (sec): 1.500000E-2
Scans to average: 1
Electric dark correction enabled: true
Nonlinearity correction enabled: false
Boxcar width: 0
XAxis mode: Wavelengths
Number of Pixels in Spectrum: 3648
>>>>>Begin Spectral Data<<<<<
179.3399	-0.2053
179.5586	-0.2053
179.7771	-0.2053
179.9957	-0.2149
180.2143	-0
180.4329	-0.0219
180.6514	-0
180.8699	-0.0802
181.0885	-0
181.307	1.2607
181.5255	0.4954
181.744	0.5654
181.9625	0.2689
182.181	1.8779
182.3994	-0.6397
182.6179	-0.3449
182.8363	0.6209
183.0547	-0
183.2732	0.1185
183.4916	0.5315
183.71	0.2848
183.9284	0.3581
184.1467	0.178
184.3651	0.3425
184.5835	0.2728
184.8018	0.0936
185.0201	0.0517
185.2385	0.509
185.4568	0.1955
185.6751	0.2702
185.8934	0.151
186.1117	0.0779
186.3299	0.1892
186.5482	0.0959
186.7664	0.2288
186.9847	0.2622
187.2029	0.3467
187.4211	0.0126
187.6393	0.3018
187.8575	0.2023
188.0757	0.496
188.2939	0.1263
188.512	0.3197
188.7302	0.0525
188.9483	0.6289
189.1665	0.8463
189.3846	0.2799
189.6027	0.2631
189.8208	0.3192
190.0389	0.2208
190.257	0.1103
190.475	0.0337
190.6931	0.1344
190.9111	0.1167
191.1292	0.2945
191.3472	0.0754
191.5652	0.1527
191.7832	0.2234
192.0012	0.2022
192.2192	0.2691
192.4371	0.1507
192.6551	0.2506
192.873	0.1043
193.091	0.1668
193.3089	0.1741
193.5268	0.2359
193.7447	0.3517
193.9626	0.2402
194.1805	0.2666
194.3984	0.1777
194.6162	0.2087
194.8341	0.3432
195.0519	0.2247
195.2697	0.2368
195.4875	0.3678
195.7054	0.2801
195.9231	0.2904
196.1409	0.3436
196.3587	0.3676
196.5765	0.3448
196.7942	0.3172
197.012	0.4415
197.2297	0.3328
197.4474	0.3558
197.6651	0.2993
197.8828	0.4121
198.1005	0.4857
198.3182	0.3756
198.5358	0.3641
198.7535	0.4561
198.9711	0.4584
199.1888	0.3575
199.4064	0.3924
199.624	0.3712
199.8416	0.3869
200.0592	0.4381
200.2767	0.3566
200.4943	0.4847
200.7119	0.4552
200.9294	0.4042
201.1469	0.4386
201.3645	0.4768
201.582	0.4057
201.7995	0.4027
202.017	0.4096
202.2344	0.4284
202.4519	0.3661
202.6694	0.4029
202.8868	0.3617
203.1042	0.3839
203.3217	0.3976
203.5391	0.4125
203.7565	0.3667
203.9739	0.386
204.1913	0.3588
204.4086	0.3518
204.626	0.3621
204.8433	0.3725
205.0607	0.3967
205.278	0.3677
205.4953	0.3547
205.7126	0.3674
205.9299	0.3574
206.1472	0.3386
206.3644	0.3312
206.5817	0.3297
206.7989	0.3403
207.0162	0.3401
207.2334	0.3391
207.4506	0.2933
207.6678	0.3315
207.885	0.2852
208.1022	0.3055
208.3194	0.2913
208.5365	0.3188
208.7537	0.3021
208.9708	0.2836
209.1879	0.2653
209.405	0.3197
209.6222	0.2651
209.8392	0.2919
210.0563	0.2732
210.2734	0.2653
210.4905	0.2707
210.7075	0.2895
210.9245	0.2857
211.1416	0.274
211.3586	0.2917
211.5756	0.2517
211.7926	0.2671
212.0096	0.2929
212.2265	0.2646
212.4435	0.2692
212.6604	0.2681
212.8774	0.2515
213.0943	0.259
213.3112	0.2448
213.5281	0.2538
213.745	0.2642
213.9619	0.2409
214.1788	0.2492
214.3956	0.2602
214.6125	0.2541
214.8293	0.2704
215.0461	0.262
215.2629	0.2493
215.4798	0.2511
215.6965	0.2702
215.9133	0.2544
216.1301	0.2585
216.3469	0.2541
216.5636	0.2393
216.7803	0.2757
216.9971	0.2598
217.2138	0.2573
217.4305	0.2499
217.6472	0.2425
217.8639	0.2472
218.0805	0.257
218.2972	0.2495
218.5138	0.2589
218.7305	0.2578
218.9471	0.2318
219.1637	0.2546
219.3803	0.2728
219.5969	0.2516
219.8135	0.2719
220.0301	0.2391
220.2466	0.2612
220.4632	0.2458
220.6797	0.2538
220.8962	0.2668
221.1127	0.2651
221.3292	0.262
221.5457	0.2792
221.7622	0.2647
221.9787	0.302
222.1951	0.2807
222.4116	0.2622
222.628	0.2875
222.8444	0.279
223.0608	0.284
223.2772	0.2897
223.4936	0.2752
223.71	0.2886
223.9264	0.2791
224.1427	0.2921
224.3591	0.2743
224.5754	0.2887
224.7917	0.2836
225.008	0.2956
225.2243	0.2959
225.4406	0.3011
225.6569	0.3099
225.8732	0.316
226.0894	0.3052
226.3057	0.3036
226.5219	0.3186
226.7381	0.3164
226.9543	0.3197
227.1705	0.3137
227.3867	0.3217
227.6029	0.3276
227.8191	0.3362
228.0352	0.3407
228.2513	0.3525
228.4675	0.3517
228.6836	0.3525
228.8997	0.3564
229.1158	0.3557
229.3319	0.3581
229.548	0.3579
229.764	0.3602
229.9801	0.3729
230.1961	0.3712
230.4121	0.3717
230.6282	0.3806
230.8442	0.3826
231.0602	0.3828
231.2761	0.3875
231.4921	0.3882
231.7081	0.3879
231.924	0.4051
232.14	0.4039
232.3559	0.405
232.5718	0.4187
232.7877	0.4004
233.0036	0.4053
233.2195	0.4214
233.4353	0.4214
233.6512	0.4195
233.867	0.4289
234.0829	0.4291
234.2987	0.4274
234.5145	0.4337
234.7303	0.4445
234.9461	0.441
235.1619	0.4473
235.3776	0.4342
235.5934	0.4308
235.8091	0.454
236.0249	0.45
236.2406	0.4558
236.4563	0.4531
236.672	0.4448
236.8877	0.4516
237.1034	0.4521
237.319	0.4599
237.5347	0.4611
237.7503	0.4564
237.966	0.4701
238.1816	0.449
238.3972	0.4515
238.6128	0.4744
238.8284	0.471
239.0439	0.4593
239.2595	0.4729
239.475	0.4621
239.6906	0.4615
239.9061	0.4643
240.1216	0.4654
240.3371	0.4723
240.5526	0.4605
240.7681	0.4658
240.9836	0.4666
241.199	0.4598
241.4145	0.4567
241.6299	0.452
241.8453	0.4442
242.0607	0.4381
242.2761	0.4373
242.4915	0.4248
242.7069	0.4194
242.9223	0.422
243.1376	0.4079
243.353	0.4009
243.5683	0.4011
243.7836	0.3928
243.9989	0.3843
244.2142	0.3787
244.4295	0.367
244.6448	0.3687
244.86	0.3538
245.0753	0.3429
245.2905	0.3368
245.5057	0.342
245.721	0.3376
245.9362	0.33
246.1514	0.32
246.3665	0.3178
246.5817	0.3038
246.7969	0.2963
247.012	0.2992
247.2271	0.294
247.4423	0.2858
247.6574	0.2818
247.8725	0.2725
248.0876	0.2791
248.3026	0.2696
248.5177	0.2555
248.7328	0.2579
248.9478	0.2529
249.1628	0.2567
249.3779	0.2375
249.5929	0.2499
249.8079	0.2429
250.0228	0.2329
250.2378	0.2348
250.4528	0.2311
250.6677	0.2266
250.8827	0.2209
251.0976	0.2185
251.3125	0.2202
251.5274	0.2119
251.7423	0.211
251.9572	0.2133
252.172	0.2134
252.3869	0.2093
252.6017	0.2091
252.8166	0.205
253.0314	0.203
253.2462	0.2004
253.461	0.194
253.6758	0.2001
253.8906	0.1988
254.1053	0.2009
254.3201	0.194
254.5348	0.1918
254.7496	0.1855
254.9643	0.1971
255.179	0.191
255.3937	0.192
255.6083	0.1946
255.823	0.194
256.0377	0.1816
256.2523	0.1877
256.467	0.1886
256.6816	0.1864
256.8962	0.1906
257.1108	0.1885
257.3254	0.1835
257.54	0.1787
257.7545	0.1887
257.9691	0.1877
258.1836	0.1795
258.3981	0.1801
258.6127	0.1807
258.8272	0.1873
259.0417	0.1807
259.2561	0.185
259.4706	0.1849
259.6851	0.1777
259.8995	0.1755
260.114	0.1836
260.3284	0.1744
260.5428	0.1886
260.7572	0.1844
260.9716	0.1875
261.186	0.1778
261.4003	0.1727
261.6147	0.1762
261.829	0.1811
262.0433	0.181
262.2577	0.1819
262.472	0.184
262.6863	0.1877
262.9005	0.1835
263.1148	0.1823
263.3291	0.1815
263.5433	0.1837
263.7576	0.1831
263.9718	0.1846
264.186	0.1891
264.4002	0.1833
264.6144	0.1936
264.8286	0.1869
265.0427	0.1872
265.2569	0.1863
265.471	0.1828
265.6851	0.1855
265.8993	0.1808
266.1134	0.1832
266.3275	0.1815
266.5415	0.1875
266.7556	0.1909
266.9697	0.1837
267.1837	0.185
267.3978	0.1818
267.6118	0.1785
267.8258	0.188
268.0398	0.1834
268.2538	0.1883
268.4677	0.1831
268.6817	0.1842
268.8957	0.1755
269.1096	0.1749
269.3235	0.1822
269.5374	0.1802
269.7514	0.1789
269.9652	0.1796
270.1791	0.1754
270.393	0.1809
270.6068	0.1784
270.8207	0.1792
271.0345	0.1795
271.2483	0.1713
271.4622	0.1809
271.676	0.1819
271.8897	0.1776
272.1035	0.1834
272.3173	0.1777
272.531	0.1694
272.7448	0.1768
272.9585	0.1717
273.1722	0.1715
273.3859	0.1732
273.5996	0.1798
273.8133	0.1805
274.0269	0.1747
274.2406	0.1731
274.4542	0.1747
274.6679	0.1753
274.8815	0.185
275.0951	0.1819
275.3087	0.1802
275.5223	0.1795
275.7358	0.18
275.9494	0.1802
276.1629	0.1853
276.3765	0.1828
276.59	0.1736
276.8035	0.1759
277.017	0.1848
277.2305	0.1824
277.444	0.1839
277.6574	0.1849
277.8709	0.1859
278.0843	0.1846
278.2978	0.1816
278.5112	0.1847
278.7246	0.1819
278.938	0.1864
279.1513	0.1925
279.3647	0.1867
279.5781	0.1849
279.7914	0.1806
280.0047	0.1854
280.2181	0.1856
280.4314	0.1847
280.6447	0.1914
280.8579	0.1791
281.0712	0.1845
281.2845	0.1833
281.4977	0.1883
281.711	0.1862
281.9242	0.1858
282.1374	0.1883
282.3506	0.1812
282.5638	0.188
282.7769	0.1831
282.9901	0.1882
283.2033	0.1902
283.4164	0.1868
283.6295	0.1873
283.8426	0.1864
284.0557	0.1964
284.2688	0.1906
284.4819	0.191
284.695	0.1929
284.908	0.1913
285.1211	0.1936
285.3341	0.1891
285.5471	0.1963
285.7601	0.1907
285.9731	0.1924
286.1861	0.1892
286.3991	0.1888
286.612	0.1922
286.825	0.1968
287.0379	0.1853
287.2508	0.1941
287.4637	0.1973
287.6766	0.1953
287.8895	0.1863
288.1024	0.196
288.3152	0.1935
288.5281	0.1917
288.7409	0.1953
288.9538	0.198
289.1666	0.1963
289.3794	0.1953
289.5922	0.1902
289.8049	0.1971
290.0177	0.1986
290.2304	0.1947
290.4432	0.2027
290.6559	0.1922
290.8686	0.1915
291.0813	0.1993
291.294	0.1962
291.5067	0.1912
291.7194	0.1943
291.932	0.1956
292.1447	0.1971
292.3573	0.1995
292.5699	0.196
292.7825	0.1908
292.9951	0.2019
293.2077	0.1958
293.4203	0.1997
293.6328	0.1962
293.8454	0.2002
294.0579	0.1967
294.2704	0.2007
294.4829	0.1968
294.6954	0.1984
294.9079	0.1998
295.1204	0.1916
295.3328	0.2037
295.5453	0.1992
295.7577	0.2055
295.9701	0.1936
296.1825	0.1984
296.3949	0.1946
296.6073	0.1939
296.8197	0.1981
297.0321	0.2005
297.2444	0.1917
297.4567	0.1987
297.6691	0.1942
297.8814	0.1973
298.0937	0.1975
298.306	0.1977
298.5182	0.2039
298.7305	0.1937
298.9428	0.2006
299.155	0.1963
299.3672	0.1969
299.5794	0.1972
299.7916	0.202
300.0038	0.2023
300.216	0.1953
300.4282	0.2002
300.6403	0.1989
300.8525	0.206
301.0646	0.2027
301.2767	0.1982
301.4888	0.1983
301.7009	0.1976
301.913	0.1999
302.125	0.1952
302.3371	0.1973
302.5491	0.2018
302.7612	0.2056
302.9732	0.2004
303.1852	0.1978
303.3972	0.1931
303.6092	0.1984
303.8211	0.1971
304.0331	0.1922
304.245	0.1913
304.457	0.1946
304.6689	0.1966
304.8808	0.1938
305.0927	0.1959
305.3046	0.1903
305.5164	0.191
305.7283	0.1854
305.9401	0.181
306.152	0.188
306.3638	0.1858
306.5756	0.191
306.7874	0.1809
306.9992	0.1747
307.2109	0.1802
307.4227	0.1733
307.6344	0.1768
307.8462	0.1707
308.0579	0.1731
308.2696	0.1685
308.4813	0.1754
308.693	0.169
308.9046	0.1724
309.1163	0.1653
309.328	0.1682
309.5396	0.1672
309.7512	0.1604
309.9628	0.1629
310.1744	0.153
310.386	0.1559
310.5976	0.1511
310.8091	0.1616
311.0207	0.1569
311.2322	0.1514
311.4437	0.1542
311.6552	0.1511
311.8667	0.1529
312.0782	0.1425
312.2897	0.1424
312.5012	0.1433
312.7126	0.1382
312.924	0.1423
313.1355	0.1348
313.3469	0.1428
313.5583	0.1396
313.7696	0.1344
313.981	0.1388
314.1924	0.1367
314.4037	0.1365
314.6151	0.1325
314.8264	0.142
315.0377	0.1364
315.249	0.139
315.4603	0.1317
315.6716	0.1319
315.8828	0.1325
316.0941	0.1351
316.3053	0.1273
316.5165	0.1357
316.7277	0.1312
316.9389	0.1344
317.1501	0.1281
317.3613	0.1317
317.5724	0.1295
317.7836	0.1287
317.9947	0.1228
318.2058	0.1274
318.417	0.1273
318.6281	0.1305
318.8391	0.1347
319.0502	0.127
319.2613	0.1242
319.4723	0.1237
319.6834	0.1246
319.8944	0.1272
320.1054	0.1293
320.3164	0.125
320.5274	0.129
320.7383	0.1331
320.9493	0.1215
321.1602	0.125
321.3712	0.126
321.5821	0.1249
321.793	0.1374
322.0039	0.1298
322.2148	0.1251
322.4257	0.1302
322.6365	0.1255
322.8474	0.1316
323.0582	0.1287
323.269	0.1291
323.4798	0.1307
323.6906	0.1228
323.9014	0.1246
324.1122	0.1237
324.3229	0.1338
324.5337	0.1359
324.7444	0.1367
324.9551	0.1228
325.1658	0.1289
325.3765	0.13
325.5872	0.1332
325.7979	0.1274
326.0085	0.122
326.2192	0.1275
326.4298	0.1322
326.6404	0.1348
326.851	0.133
327.0616	0.1305
327.2722	0.135
327.4828	0.1338
327.6933	0.1387
327.9039	0.1283
328.1144	0.1359
328.3249	0.1405
328.5354	0.1353
328.7459	0.1437
328.9564	0.1349
329.1669	0.1377
329.3773	0.1382
329.5878	0.1362
329.7982	0.1396
330.0086	0.1374
330.219	0.1347
330.4294	0.1365
330.6398	0.1395
330.8502	0.1397
331.0605	0.1367
331.2708	0.1362
331.4812	0.1376
331.6915	0.1337
331.9018	0.1345
332.1121	0.1444
332.3224	0.1443
332.5326	0.1359
332.7429	0.1371
332.9531	0.14
333.1633	0.1359
333.3735	0.1369
333.5837	0.1366
333.7939	0.1375
334.0041	0.1422
334.2143	0.1424
334.4244	0.1502
334.6346	0.139
334.8447	0.1406
335.0548	0.1441
335.2649	0.1437
335.475	0.1396
335.685	0.1398
335.8951	0.1359
336.1051	0.1493
336.3152	0.1495
336.5252	0.144
336.7352	0.1492
336.9452	0.151
337.1552	0.1408
337.3652	0.1459
337.5751	0.1436
337.7851	0.1467
337.995	0.1478
338.2049	0.1455
338.4148	0.1432
338.6247	0.1457
338.8346	0.146
339.0445	0.1473
339.2543	0.1445
339.4642	0.1448
339.674	0.1467
339.8838	0.1481
340.0936	0.1467
340.3034	0.1427
340.5132	0.1408
340.7229	0.1489
340.9327	0.1597
341.1424	0.1509
341.3522	0.146
341.5619	0.1515
341.7716	0.1515
341.9813	0.1527
342.1909	0.1574
342.4006	0.1555
342.6102	0.1496
342.8199	0.1537
343.0295	0.1479
343.2391	0.1546
343.4487	0.1606
343.6583	0.1572
343.8679	0.1562
344.0774	0.1606
344.287	0.1612
344.4965	0.161
344.706	0.1682
344.9155	0.1577
345.125	0.1588
345.3345	0.1701
345.544	0.1597
345.7534	0.1629
345.9629	0.1627
346.1723	0.1656
346.3817	0.1649
346.5911	0.1644
346.8005	0.1736
347.0099	0.1652
347.2193	0.1767
347.4286	0.1786
347.638	0.1733
347.8473	0.1733
348.0566	0.1703
348.2659	0.1664
348.4752	0.1754
348.6845	0.1717
348.8937	0.1732
349.103	0.176
349.3122	0.1742
349.5214	0.1758
349.7306	0.1789
349.9398	0.1789
350.149	0.1733
350.3582	0.1815
350.5674	0.1791
350.7765	0.1854
350.9856	0.1735
351.1948	0.1835
351.4039	0.1815
351.613	0.1796
351.822	0.1888
352.0311	0.1834
352.2402	0.1907
352.4492	0.1831
352.6582	0.1894
352.8672	0.1857
353.0762	0.194
353.2852	0.1846
353.4942	0.1846
353.7032	0.1828
353.9121	0.1907
354.1211	0.1884
354.33	0.1879
354.5389	0.186
354.7478	0.1862
354.9567	0.1974
355.1655	0.191
355.3744	0.1942
355.5833	0.199
355.7921	0.1902
356.0009	0.1914
356.2097	0.1871
356.4185	0.1872
356.6273	0.193
356.8361	0.1947
357.0448	0.1986
357.2536	0.1963
357.4623	0.2012
357.671	0.1993
357.8797	0.1978
358.0884	0.2022
358.2971	0.2041
358.5057	0.2004
358.7144	0.1963
358.923	0.2004
359.1316	0.2075
359.3402	0.2023
359.5488	0.2071
359.7574	0.2126
359.966	0.2033
360.1746	0.2095
360.3831	0.2143
360.5916	0.2083
360.8002	0.2177
361.0087	0.2067
361.2172	0.2145
361.4256	0.2118
361.6341	0.2166
361.8426	0.2175
362.051	0.2159
362.2594	0.216
362.4678	0.221
362.6762	0.221
362.8846	0.2204
363.093	0.2222
363.3014	0.2272
363.5097	0.2215
363.718	0.2335
363.9264	0.2354
364.1347	0.2346
364.343	0.2388
364.5513	0.2288
364.7595	0.2454
364.9678	0.2215
365.176	0.2424
365.3842	0.2344
365.5925	0.2332
365.8007	0.2368
366.0089	0.2436
366.217	0.2404
366.4252	0.2393
366.6333	0.2445
366.8415	0.2398
367.0496	0.2376
367.2577	0.243
367.4658	0.2418
367.6739	0.2365
367.882	0.2493
368.09	0.2425
368.2981	0.2535
368.5061	0.25
368.7141	0.2409
368.9221	0.248
369.1301	0.248
369.3381	0.2498
369.5461	0.2539
369.754	0.2559
369.962	0.259
370.1699	0.2537
370.3778	0.2696
370.5857	0.2564
370.7936	0.2587
371.0015	0.2554
371.2093	0.2623
371.4172	0.2628
371.625	0.2637
371.8328	0.2629
372.0406	0.271
372.2484	0.2606
372.4562	0.2696
372.664	0.2691
372.8717	0.2629
373.0795	0.2717
373.2872	0.2725
373.4949	0.2698
373.7026	0.2665
373.9103	0.2681
374.118	0.2721
374.3256	0.2847
374.5333	0.2758
374.7409	0.2837
374.9485	0.2791
375.1561	0.2789
375.3637	0.2809
375.5713	0.285
375.7789	0.285
375.9864	0.2792
376.194	0.281
376.4015	0.2759
376.609	0.2879
376.8165	0.285
377.024	0.2828
377.2315	0.2879
377.4389	0.2731
377.6464	0.2913
377.8538	0.2903
378.0612	0.2885
378.2686	0.2877
378.476	0.2952
378.6834	0.2886
378.8908	0.2949
379.0981	0.2904
379.3055	0.2894
379.5128	0.2938
379.7201	0.2888
379.9274	0.2945
380.1347	0.2897
380.342	0.2969
380.5492	0.3009
380.7565	0.293
380.9637	0.306
381.1709	0.2946
381.3781	0.3048
381.5853	0.3083
381.7925	0.2936
381.9997	0.307
382.2068	0.3069
382.4139	0.3002
382.6211	0.3
382.8282	0.3046
383.0353	0.3105
383.2424	0.306
383.4494	0.3112
383.6565	0.2991
383.8635	0.3034
384.0706	0.3087
384.2776	0.3098
384.4846	0.3129
384.6916	0.3094
384.8986	0.3056
385.1055	0.316
385.3125	0.31
385.5194	0.3144
385.7263	0.306
385.9333	0.3169
386.1402	0.3082
386.347	0.3056
386.5539	0.3144
386.7608	0.3165
386.9676	0.3084
387.1744	0.3092
387.3813	0.3169
387.5881	0.2912
387.7948	0.3128
388.0016	0.3162
388.2084	0.3097
388.4151	0.3055
388.6219	0.3103
388.8286	0.3059
389.0353	0.3142
389.242	0.3116
389.4487	0.3051
389.6553	0.3014
389.862	0.3045
390.0686	0.3097
390.2753	0.3024
390.4819	0.3029
390.6885	0.3049
390.8951	0.3059
391.1016	0.2995
391.3082	0.3035
391.5147	0.2939
391.7213	0.3023
391.9278	0.291
392.1343	0.2992
392.3408	0.2893
392.5473	0.2911
392.7537	0.2857
392.9602	0.2861
393.1666	0.2872
393.373	0.2903
393.5794	0.2869
393.7858	0.2753
393.9922	0.2845
394.1986	0.2904
394.4049	0.2862
394.6113	0.2883
394.8176	0.2902
395.0239	0.2753
395.2302	0.2755
395.4365	0.2792
395.6428	0.2791
395.8491	0.2663
396.0553	0.2786
396.2615	0.2715
396.4678	0.28
396.674	0.2663
396.8802	0.269
397.0863	0.2679
397.2925	0.2653
397.4987	0.2699
397.7048	0.2795
397.9109	0.2621
398.117	0.2681
398.3231	0.2659
398.5292	0.2518
398.7353	0.2629
398.9413	0.2632
399.1474	0.2669
399.3534	0.2659
399.5594	0.2763
399.7654	0.2677
399.9714	0.2669
400.1774	0.2636
400.3833	0.2696
400.5893	0.2729
400.7952	0.2629
401.0011	0.2549
401.207	0.2683
401.4129	0.2571
401.6188	0.2578
401.8247	0.2686
402.0305	0.2613
402.2364	0.2672
402.4422	0.2642
402.648	0.2585
402.8538	0.2567
403.0596	0.2577
403.2654	0.2706
403.4711	0.2562
403.6768	0.2631
403.8826	0.2646
404.0883	0.263
404.294	0.274
404.4997	0.2706
404.7054	0.2591
404.911	0.2535
405.1167	0.2666
405.3223	0.2639
405.5279	0.2642
405.7335	0.2645
405.9391	0.2565
406.1447	0.2668
406.3502	0.2606
406.5558	0.2572
406.7613	0.2657
406.9668	0.2542
407.1724	0.2624
407.3778	0.2633
407.5833	0.2581
407.7888	0.273
407.9942	0.2652
408.1997	0.269
408.4051	0.2731
408.6105	0.2721
408.8159	0.2687
409.0213	0.2719
409.2267	0.2708
409.432	0.266
409.6374	0.2646
409.8427	0.2605
410.048	0.2729
410.2533	0.27
410.4586	0.2521
410.6639	0.2669
410.8691	0.2574
411.0744	0.2569
411.2796	0.2637
411.4848	0.2647
411.69	0.2623
411.8952	0.2693
412.1004	0.2571
412.3056	0.2564
412.5107	0.2649
412.7158	0.2688
412.921	0.2664
413.1261	0.2659
413.3312	0.2545
413.5362	0.2748
413.7413	0.2621
413.9464	0.2486
414.1514	0.2514
414.3564	0.2613
414.5614	0.2644
414.7664	0.2536
414.9714	0.2631
415.1764	0.2684
415.3813	0.2549
415.5863	0.2677
415.7912	0.2449
415.9961	0.2537
416.201	0.2699
416.4059	0.2637
416.6108	0.2485
416.8156	0.2583
417.0205	0.2559
417.2253	0.2486
417.4301	0.2687
417.6349	0.2596
417.8397	0.2541
418.0445	0.2433
418.2492	0.2538
418.454	0.2555
418.6587	0.2588
418.8634	0.2578
419.0681	0.2604
419.2728	0.2631
419.4775	0.258
419.6822	0.2445
419.8868	0.2482
420.0915	0.2487
420.2961	0.2393
420.5007	0.2431
420.7053	0.2357
420.9099	0.2461
421.1144	0.2425
421.319	0.232
421.5235	0.2352
421.728	0.2452
421.9325	0.2382
422.137	0.2411
422.3415	0.2333
422.546	0.2346
422.7504	0.2388
422.9549	0.2403
423.1593	0.2382
423.3637	0.2343
423.5681	0.2482
423.7725	0.2318
423.9769	0.2385
424.1812	0.2291
424.3856	0.2212
424.5899	0.2293
424.7942	0.2312
424.9985	0.229
425.2028	0.2295
425.4071	0.2245
425.6113	0.2279
425.8156	0.2233
426.0198	0.2218
426.224	0.2274
426.4282	0.2235
426.6324	0.2227
426.8366	0.2198
427.0407	0.2113
427.2449	0.2201
427.449	0.2166
427.6531	0.2193
427.8572	0.2093
428.0613	0.2081
428.2654	0.2166
428.4694	0.2109
428.6735	0.2135
428.8775	0.2178
429.0815	0.2034
429.2855	0.2031
429.4895	0.2028
429.6935	0.2011
429.8975	0.2016
430.1014	0.2075
430.3053	0.196
430.5093	0.1874
430.7132	0.1875
430.9171	0.1903
431.1209	0.2076
431.3248	0.186
431.5286	0.1841
431.7325	0.188
431.9363	0.1814
432.1401	0.1835
432.3439	0.1915
432.5477	0.177
432.7514	0.178
432.9552	0.1745
433.1589	0.1712
433.3627	0.1733
433.5664	0.1693
433.7701	0.1781
433.9737	0.1729
434.1774	0.1723
434.3811	0.1603
434.5847	0.157
434.7883	0.1654
434.9919	0.1524
435.1955	0.1581
435.3991	0.1651
435.6027	0.156
435.8062	0.1587
436.0098	0.1484
436.2133	0.1461
436.4168	0.1478
436.6203	0.142
436.8238	0.1417
437.0272	0.1416
437.2307	0.1389
437.4341	0.1385
437.6375	0.1459
437.841	0.1306
438.0443	0.1382
438.2477	0.1202
438.4511	0.1259
438.6545	0.1338
438.8578	0.1318
439.0611	0.1305
439.2644	0.1243
439.4677	0.127
439.671	0.1126
439.8743	0.1171
440.0775	0.1171
440.2808	0.1143
440.484	0.1094
440.6872	0.1152
440.8904	0.103
441.0936	0.1097
441.2967	0.104
441.4999	0.1055
441.703	0.1004
441.9062	0.1113
442.1093	0.1102
442.3124	0.0986
442.5155	0.0995
442.7185	0.0893
442.9216	0.0995
443.1246	0.1004
443.3276	0.0953
443.5307	0.0924
443.7337	0.0972
443.9366	0.0923
444.1396	0.0832
444.3426	0.0886
444.5455	0.085
444.7484	0.0789
444.9513	0.0819
445.1542	0.0768
445.3571	0.0771
445.56	0.0779
445.7628	0.0743
445.9657	0.0803
446.1685	0.0857
446.3713	0.0795
446.5741	0.0797
446.7769	0.0787
446.9797	0.075
447.1824	0.074
447.3852	0.0596
447.5879	0.0682
447.7906	0.0603
447.9933	0.0663
448.196	0.062
448.3986	0.0612
448.6013	0.0557
448.8039	0.0642
449.0066	0.0631
449.2092	0.0638
449.4118	0.0559
449.6143	0.0665
449.8169	0.0565
450.0195	0.0628
450.222	0.0606
450.4245	0.0588
450.627	0.0524
450.8295	0.0539
451.032	0.056
451.2345	0.0514
451.4369	0.0557
451.6394	0.0521
451.8418	0.0481
452.0442	0.0545
452.2466	0.0352
452.449	0.05
452.6513	0.0363
452.8537	0.0342
453.056	0.0367
453.2583	0.0396
453.4607	0.0338
453.663	0.0446
453.8652	0.0312
454.0675	0.0466
454.2697	0.0346
454.472	0.0334
454.6742	0.0427
454.8764	0.0473
455.0786	0.0223
455.2808	0.0334
455.4829	0.0413
455.6851	0.0432
455.8872	0.0271
456.0893	0.0288
456.2915	0.0253
456.4935	0.0443
456.6956	0.0288
456.8977	0.0235
457.0997	0.0395
457.3018	0.029
457.5038	0.0369
457.7058	0.0308
457.9078	0.0287
458.1098	0.035
458.3117	0.0308
458.5137	0.0284
458.7156	0.0313
458.9175	0.0294
459.1194	0.0309
459.3213	0.0263
459.5232	0.026
459.725	0.0246
459.9269	0.03
460.1287	0.0155
460.3305	0.0374
460.5323	0.0218
460.7341	0.0297
460.9359	0.0222
461.1376	0.0236
461.3394	0.0306
461.5411	0.0268
461.7428	0.0274
461.9445	0.0187
462.1462	0.0252
462.3479	0.0207
462.5495	0.0284
462.7512	0.0292
462.9528	0.0174
463.1544	0.0122
463.356	0.0205
463.5576	0.0286
463.7592	0.0279
463.9607	0.0246
464.1623	0.0145
464.3638	0.0164
464.5653	0.0183
464.7668	0.03
464.9683	0.0143
465.1697	0.0227
465.3712	0.0117
465.5726	0.0172
465.7741	0.0153
465.9755	0.0166
466.1769	0.0172
466.3782	0.0109
466.5796	0.0162
466.7809	0.0179
466.9823	0.0106
467.1836	0.017
467.3849	0.0143
467.5862	0.0072
467.7875	0.0162
467.9887	0.0176
468.19	0.0196
468.3912	0.0218
468.5924	0.0128
468.7936	0.0166
468.9948	0.0101
469.196	0.016
469.3972	0.0096
469.5983	0.0118
469.7994	0.0183
470.0006	0.0199
470.2017	0.0103
470.4027	0.0309
470.6038	0.0176
470.8049	0.0121
471.0059	0.0166
471.2069	0.0153
471.408	0.0182
471.6089	0.0114
471.8099	0.017
472.0109	0.0116
472.2119	0.0161
472.4128	0.0148
472.6137	0.0141
472.8146	0.0146
473.0155	0.0088
473.2164	0.005
473.4173	0.0065
473.6181	0.0093
473.819	0.0103
474.0198	0.0134
474.2206	0.0034
474.4214	0.0126
474.6222	-0.0002
474.8229	0.0144
475.0237	0.0068
475.2244	0.0189
475.4251	0.0086
475.6258	0.0063
475.8265	0.0143
476.0272	0.0108
476.2278	0.0137
476.4285	0.0148
476.6291	0.0153
476.8297	0.0181
477.0303	0.0073
477.2309	0.0123
477.4315	0.0111
477.632	0.0067
477.8326	0.0155
478.0331	0.0163
478.2336	0.0103
478.4341	0.0154
478.6346	0.0104
478.8351	0.0178
479.0355	0.0153
479.236	0.0285
479.4364	0.0072
479.6368	0.0098
479.8372	0.0156
480.0376	0.0085
480.2379	0.0156
480.4383	0.0175
480.6386	0.003
480.8389	0.0065
481.0392	0.0076
481.2395	0.0201
481.4398	0.0147
481.6401	0.0147
481.8403	0.0082
482.0405	0.0096
482.2408	0.0172
482.441	0.0183
482.6411	0.0054
482.8413	0.0087
483.0415	0.0145
483.2416	0.0132
483.4417	0.014
483.6419	0.009
483.8419	0.0158
484.042	0.0153
484.2421	0.0066
484.4422	0.009
484.6422	0.0165
484.8422	0.0086
485.0422	0.0091
485.2422	0.0061
485.4422	0.0059
485.6422	0.0071
485.8421	0.005
486.042	0.0135
486.242	0.0059
486.4419	0.0076
486.6417	0.0079
486.8416	0.0082
487.0415	0.0043
487.2413	0.006
487.4411	0.0139
487.641	0.0141
487.8408	0.0103
488.0405	0.0141
488.2403	0.0026
488.4401	0.0089
488.6398	0.0145
488.8395	0.0094
489.0392	0.0112
489.2389	0.0127
489.4386	0.0024
489.6383	0.0134
489.8379	0.0075
490.0376	0.013
490.2372	0.0063
490.4368	0.0001
490.6364	0.0036
490.836	0.007
491.0355	0.0037
491.2351	0.0023
491.4346	0.0119
491.6341	-0.0007
491.8336	0.0116
492.0331	0.0052
492.2326	0.015
492.432	0.0053
492.6315	0.0156
492.8309	0.0189
493.0303	0.0055
493.2297	0.0096
493.4291	0.0038
493.6284	0.0143
493.8278	0.0118
494.0271	0.0113
494.2264	0.006
494.4257	0.0128
494.625	0.0154
494.8243	0.0095
495.0236	0.01
495.2228	0.0076
495.422	0.0069
495.6213	0.009
495.8205	0.0169
496.0196	0.015
496.2188	0.0218
496.418	0.0114
496.6171	0.0055
496.8162	0.0129
497.0153	0.0187
497.2144	0.0146
497.4135	0.0071
497.6126	0.0081
497.8116	0.0113
498.0107	0.0146
498.2097	0.0052
498.4087	0.0127
498.6077	0.0007
498.8067	0.0067
499.0056	0.0106
499.2046	0.0133
499.4035	0.0098
499.6024	-0.0004
499.8013	0.0243
500.0002	0.0122
500.199	0.0175
500.3979	0.0101
500.5967	0.0075
500.7956	0.0099
500.9944	0.0131
501.1932	0.0185
501.3919	0.0103
501.5907	0.0135
501.7895	0.0103
501.9882	0.0071
502.1869	0.0083
502.3856	0.0069
502.5843	0.0095
502.783	0.0079
502.9816	0.0213
503.1803	0.0063
503.3789	0.0195
503.5775	0.0124
503.7761	0.0015
503.9747	0.0112
504.1732	0.0017
504.3718	0.0177
504.5703	0.0088
504.7689	0.0045
504.9674	-0.0009
505.1658	0.0103
505.3643	0.0171
505.5628	0.0106
505.7612	0.0162
505.9597	0.0048
506.1581	0.0034
506.3565	0.0139
506.5549	0.0076
506.7532	0.0034
506.9516	0.0073
507.1499	0.0141
507.3482	0.006
507.5465	0.0141
507.7448	0.0107
507.9431	0.0104
508.1414	0.0089
508.3396	0.0137
508.5379	0.0064
508.7361	0.0155
508.9343	0.0109
509.1325	0.0167
509.3306	0.0083
509.5288	-0.0035
509.7269	0.0127
509.9251	0.0162
510.1232	0.0102
510.3213	0.011
510.5193	0.0055
510.7174	0.0053
510.9154	0.0133
511.1135	0.0014
511.3115	0.0084
511.5095	0.0156
511.7075	0.0052
511.9055	0.0098
512.1034	0.0165
512.3014	0.0101
512.4993	0.0111
512.6972	0.0033
512.8951	0.0063
513.093	0.0067
513.2908	0.0258
513.4887	0.0041
513.6865	0.0122
513.8844	0.0135
514.0822	0.0139
514.2799	0.011
514.4777	-0.0014
514.6755	0.0072
514.8732	0.0076
515.0709	0.0092
515.2687	0.0102
515.4664	0.0089
515.664	0.0167
515.8617	0.0168
516.0594	0.0119
516.257	0.0101
516.4546	0.0223
516.6522	0.0134
516.8498	0.0127
517.0474	0.0137
517.2449	0.009
517.4425	0.0055
517.64	0.0144
517.8375	0.0102
518.035	-0.0014
518.2325	0.0077
518.43	0.0055
518.6274	0.0076
518.8249	0.0081
519.0223	0.021
519.2197	0.0074
519.4171	-0.0033
519.6145	0.0193
519.8118	0.0002
520.0092	-0.0031
520.2065	0.0168
520.4038	0.0057
520.6011	0.0214
520.7984	0.0156
520.9956	0.0205
521.1929	0.0212
521.3901	0.0183
521.5874	0.0139
521.7846	-0.0001
521.9818	0.0064
522.1789	0.0068
522.3761	0.0262
522.5732	0.0178
522.7704	-0.0025
522.9675	0.0031
523.1646	0.0032
523.3617	0.0143
523.5587	0.0133
523.7558	0.0143
523.9528	0.0213
524.1498	0.0092
524.3468	0.0168
524.5438	0.0111
524.7408	0.0112
524.9378	0.0128
525.1347	0.0154
525.3316	0.0139
525.5285	0.0051
525.7254	0.0238
525.9223	0.0197
526.1192	0.0197
526.316	0.0138
526.5129	0.0203
526.7097	0.0044
526.9065	0.0091
527.1033	0.0115
527.3	0.005
527.4968	0.0156
527.6935	0.0113
527.8903	0.0072
528.087	0.0036
528.2837	0.0166
528.4804	0.0034
528.677	0.0143
528.8737	0.0145
529.0703	0.0092
529.2669	0.0139
529.4635	0.0063
529.6601	0.0039
529.8567	0.0067
530.0532	0.0126
530.2498	0.0119
530.4463	-0.003
530.6428	0.01
530.8393	0.0129
531.0358	0.0045
531.2322	0.0028
531.4287	0.0117
531.6251	0.0003
531.8215	0.0054
532.0179	0.0134
532.2143	0.0088
532.4107	0.0111
532.607	0.0229
532.8034	0.0011
532.9997	0.0006
533.196	0.0056
533.3923	0.0169
533.5886	0.0111
533.7848	0.0063
533.9811	0.0123
534.1773	0.0096
534.3735	0.0176
534.5697	0.0109
534.7659	0.0134
534.9621	0.0149
535.1582	0.0044
535.3544	0.011
535.5505	0.0131
535.7466	0.0125
535.9427	0.015
536.1387	0.0122
536.3348	0.0046
536.5308	0.0038
536.7269	0.0117
536.9229	0.0069
537.1189	0.0056
537.3148	0.0131
537.5108	0.0106
537.7068	0.0169
537.9027	-0.0148
538.0986	0.0096
538.2945	0.0001
538.4904	0.0102
538.6863	0.0126
538.8821	0.0096
539.078	0.016
539.2738	0.0134
539.4696	-0.0017
539.6654	0.0043
539.8611	0.0149
540.0569	0.0014
540.2526	0.0174
540.4484	0.003
540.6441	0.0073
540.8398	0.0217
541.0355	0.0008
541.2311	0.0134
541.4268	0.0107
541.6224	0.0158
541.818	0.0088
542.0136	0.0158
542.2092	0.0153
542.4048	0.014
542.6003	0.0023
542.7959	0.0167
542.9914	0.0056
543.1869	0.0142
543.3824	0.0106
543.5779	0.0126
543.7734	0.0141
543.9688	0.0183
544.1642	0.0032
544.3596	0.0204
544.555	0.0136
544.7504	0.0187
544.9458	0.0157
545.1411	0.0075
545.3365	0.0088
545.5318	0.0048
545.7271	0.0188
545.9224	0.0099
546.1177	0.0133
546.3129	0.0105
546.5081	0.0067
546.7034	0.0154
546.8986	0.0205
547.0938	0.0206
547.289	0.0234
547.4841	0.0078
547.6793	0.0088
547.8744	0.0168
548.0695	0.0034
548.2646	0.0147
548.4597	0.0185
548.6548	0.0197
548.8498	0.0148
549.0448	0.0072
549.2399	0.0175
549.4349	0.0111
549.6298	0.0168
549.8248	0.0125
550.0198	0.0174
550.2147	0.0139
550.4096	-0.0029
550.6045	0.0098
550.7994	0.0027
550.9943	0.0113
551.1892	-0.0118
551.384	0.021
551.5788	0.014
551.7737	0.0154
551.9685	0.0134
552.1632	0.012
552.358	0.008
552.5528	0.0042
552.7475	0.016
552.9422	0.0093
553.1369	0.0134
553.3316	0.0148
553.5263	0.0136
553.7209	0.0074
553.9156	0.0124
554.1102	0.0158
554.3048	0.0019
554.4994	0.006
554.694	0.012
554.8885	0.0081
555.0831	0.0049
555.2776	0.0134
555.4721	0.0163
555.6666	0.01
555.8611	0.0046
556.0555	0.0182
556.25	0.0136
556.4444	0.0058
556.6388	0.0077
556.8332	0.005
557.0276	0.0049
557.222	0.0021
557.4163	0.0174
557.6107	0.0028
557.805	0.0034
557.9993	0.0036
558.1936	-0.0074
558.3879	0.0156
558.5821	0.0109
558.7764	0.009
558.9706	0.0056
559.1648	0.0127
559.359	0.0054
559.5532	0.0142
559.7473	0.0044
559.9415	0.0066
560.1356	0.0176
560.3297	0.002
560.5238	0.0167
560.7179	0.0002
560.9119	0.0076
561.106	0.0009
561.3	0.0189
561.494	0.0029
561.688	0.0054
561.882	0.0094
562.076	0.006
562.2699	0.0171
562.4639	0.0252
562.6578	0.0167
562.8517	0.0138
563.0456	0.0099
563.2395	0.0056
563.4333	0.0154
563.6272	0.0018
563.821	0.0082
564.0148	0.0116
564.2086	0.0098
564.4024	0.016
564.5961	0.0174
564.7899	0.0249
564.9836	0.0095
565.1773	0.0145
565.371	0.0097
565.5647	0.013
565.7584	0.0202
565.952	0.0157
566.1456	0.0089
566.3393	0.0118
566.5329	0.0131
566.7264	0.0178
566.92	0.0073
567.1136	0.0004
567.3071	0.0078
567.5006	0.0183
567.6941	0.0123
567.8876	0.0117
568.0811	0.0276
568.2745	0.0115
568.468	0.0077
568.6614	0.0124
568.8548	0.0094
569.0482	0.0119
569.2416	0.0108
569.4349	0.0092
569.6283	0.0043
569.8216	0.0119
570.0149	0.0031
570.2082	0.0137
570.4015	0.0088
570.5947	0.009
570.788	0.0112
570.9812	0.0047
571.1744	0.0073
571.3676	0.0111
571.5608	0.0095
571.754	0.0134
571.9471	0.0125
572.1402	0.0133
572.3333	0.0121
572.5264	0.0105
572.7195	0.0068
572.9126	0.0074
573.1057	0.0093
573.2987	0.0119
573.4917	0.0086
573.6847	0.0055
573.8777	0.0141
574.0707	0.0086
574.2636	0.0094
574.4566	0.0067
574.6495	0.0058
574.8424	0.0102
575.0353	0.0095
575.2281	0.0096
575.421	0.0065
575.6138	0.0126
575.8067	0.0124
575.9995	0.0081
576.1923	0.0084
576.385	0.0128
576.5778	0.0156
576.7706	0.0097
576.9633	0.004
577.156	0.0031
577.3487	0.008
577.5414	0.0048
577.734	0.0089
577.9267	0.0116
578.1193	0.0102
578.3119	0.0067
578.5045	0.0092
578.6971	0.0061
578.8897	0.0075
579.0822	0.0151
579.2747	0.0087
579.4673	0.0114
579.6598	0.0125
579.8522	0.0069
580.0447	0.009
580.2372	0.0122
580.4296	0.0165
580.622	0.0077
580.8144	0.0103
581.0068	0.0082
581.1992	0.009
581.3915	0.0002
581.5839	0.009
581.7762	0.0087
581.9685	0.0092
582.1608	0.0096
582.353	0.0074
582.5453	0.0107
582.7375	0.0114
582.9298	0.0074
583.122	0.0085
583.3142	0.0115
583.5063	0.0083
583.6985	0.0046
583.8906	0.0037
584.0827	0.0076
584.2749	0.0034
584.4669	0.0095
584.659	0.0078
584.8511	0.0102
585.0431	0.0127
585.2352	0.0066
585.4272	0.0084
585.6192	0.0114
585.8111	0.0088
586.0031	0.0028
586.195	0.0046
586.387	0.002
586.5789	0.0139
586.7708	0.0127
586.9627	0.0105
587.1545	0.0074
587.3464	0.0099
587.5382	0.008
587.73	0.0112
587.9218	0.0088
588.1136	0.0091
588.3053	0.0107
588.4971	0.0056
588.6888	0.0069
588.8805	0.0067
589.0722	0.0173
589.2639	0.0065
589.4556	0.0172
589.6472	0.015
589.8389	0.013
590.0305	0.0076
590.2221	0.0142
590.4137	0.0055
590.6052	0.0071
590.7968	0.0085
590.9883	0.0122
591.1798	0.0068
591.3713	0.0026
591.5628	0.0119
591.7543	0.0096
591.9458	0.004
592.1372	0.0103
592.3286	0.0085
592.52	0.0083
592.7114	0.0064
592.9028	0.0124
593.0941	0.0052
593.2855	0.0074
593.4768	0.016
593.6681	0.0088
593.8594	0.0088
594.0506	0.0066
594.2419	0.0097
594.4331	0.0075
594.6244	0.0025
594.8156	0.0068
595.0067	0.0063
595.1979	0.0078
595.3891	0.0128
595.5802	0.0118
595.7713	0.0092
595.9624	0.0105
596.1535	0.0113
596.3446	0.0042
596.5357	0.009
596.7267	0.0111
596.9177	0.0076
597.1087	0.0043
597.2997	0.0111
597.4907	0.0073
597.6817	0.0046
597.8726	0.0169
598.0635	0.0026
598.2544	0.0123
598.4453	0.0096
598.6362	0.0092
598.827	0.0067
599.0179	0.0037
599.2087	0.0144
599.3995	0.015
599.5903	0.0156
599.7811	0.0109
599.9718	0.0053
600.1626	0.0076
600.3533	0.0046
600.544	0.0035
600.7347	0.0069
600.9254	0.0141
601.116	0.0042
601.3067	0.0027
601.4973	0.0104
601.6879	0.0097
601.8785	0.009
602.0691	0.0055
602.2596	0.0136
602.4502	0.0118
602.6407	0.011
602.8312	0.0094
603.0217	0.0077
603.2122	0.0094
603.4027	0.0104
603.5931	0.009
603.7835	0.0157
603.9739	0.0024
604.1643	0.0167
604.3547	0.0111
604.5451	0.0148
604.7354	-0.0005
604.9257	0.0035
605.116	0.0022
605.3063	0.009
605.4966	0.0091
605.6869	0.0139
605.8771	0.0119
606.0673	0.0072
606.2575	0.0086
606.4477	0.0114
606.6379	0.0057
606.8281	0.0121
607.0182	0.0081
607.2083	0.0109
607.3985	0.0089
607.5885	0.0042
607.7786	0.0108
607.9687	0.009
608.1587	0.0141
608.3488	0.0116
608.5388	0.0037
608.7288	0.0039
608.9187	-0.0019
609.1087	0.0127
609.2986	0.0115
609.4886	0.0036
609.6785	0.0144
609.8684	0.0053
610.0582	0.0033
610.2481	0.0035
610.4379	0.0177
610.6278	0.0091
610.8176	0.015
611.0074	0.0121
611.1971	0.0046
611.3869	0.0134
611.5766	0.0033
611.7664	0.0106
611.9561	0.0099
612.1458	0.0065
612.3354	0.0119
612.5251	0.0084
612.7147	0.003
612.9044	0.0085
613.094	0.0109
613.2836	0.006
613.4731	0.0087
613.6627	0.0115
613.8522	0.0105
614.0417	0.0143
614.2313	0.0097
614.4207	0.0142
614.6102	0.0153
614.7997	0.0182
614.9891	0.0159
615.1785	-0.0014
615.3679	0.0082
615.5573	0.0062
615.7467	0.0019
615.9361	0.0074
616.1254	0.0148
616.3147	0.0134
616.504	0.0086
616.6933	0.0064
616.8826	0.0067
617.0718	0.0099
617.2611	0.0007
617.4503	0.0099
617.6395	0.0072
617.8287	0.0118
618.0179	0.0065
618.207	0.0157
618.3961	0.0044
618.5853	0.0105
618.7744	0.0144
618.9634	0.0197
619.1525	0.0096
619.3416	0.0109
619.5306	0.0139
619.7196	0.0182
619.9086	0.0059
620.0976	0.0057
620.2866	0.0206
620.4755	0.0045
620.6645	0.0091
620.8534	0.0113
621.0423	0.0016
621.2312	0.0141
621.42	0.0065
621.6089	0.0116
621.7977	0.0121
621.9865	0.0078
622.1753	0.0046
622.3641	-0.0021
622.5529	-0.0015
622.7416	0.0044
622.9303	0
623.1191	0.0146
623.3078	0.0133
623.4964	0.0075
623.6851	0.0106
623.8737	0.0026
624.0624	-0.006
624.251	0.0072
624.4396	0.0094
624.6282	0.0199
624.8167	0.0051
625.0053	0.0188
625.1938	0.0107
625.3823	0.0163
625.5708	0.0171
625.7593	-0.0006
625.9477	0.0223
626.1362	0.0096
626.3246	0.0076
626.513	0.0189
626.7014	0.0135
626.8898	0.0226
627.0781	0.0163
627.2665	0.0162
627.4548	-0.011
627.6431	0.0075
627.8314	0.0187
628.0197	0.0179
628.2079	0.0119
628.3962	0.0136
628.5844	0.0164
628.7726	0.0039
628.9608	0.004
629.1489	0.0079
629.3371	0.0078
629.5252	0.0156
629.7134	0.0145
629.9015	0.0132
630.0895	0.0035
630.2776	0.01
630.4657	0.0085
630.6537	0.0115
630.8417	0.0013
631.0297	0.0043
631.2177	0.0165
631.4057	0.015
631.5936	0.0129
631.7815	0.0037
631.9695	0.0138
632.1574	0.0267
632.3452	0.0172
632.5331	0.0134
632.7209	0.0233
632.9088	0.0004
633.0966	0.0272
633.2844	0.0118
633.4722	0.0107
633.6599	0.0244
633.8477	0.0146
634.0354	0.0204
634.2231	-0.0056
634.4108	0.0149
634.5985	0.0047
634.7861	0.0056
634.9738	-0.0005
635.1614	0.0141
635.349	0.019
635.5366	0.0098
635.7242	0.006
635.9117	0.0131
636.0993	0.0159
636.2868	0.0059
636.4743	0.0155
636.6618	-0.004
636.8492	0.0202
637.0367	0.0056
637.2241	0.0155
637.4115	0.024
637.5989	-0.0029
637.7863	0.0193
637.9737	0.0038
638.161	0.0189
638.3484	-0.0043
638.5357	0.0112
638.723	0.0029
638.9103	0.0099
639.0975	-0.0026
639.2848	0.0218
639.472	0.0069
639.6592	-0.0051
639.8464	0.0189
640.0336	0.0066
640.2208	0.0223
640.4079	-0.0098
640.595	0.004
640.7821	0.013
640.9692	-0.016
641.1563	0.0224
641.3434	0.006
641.5304	0.0208
641.7174	0.0206
641.9044	0.006
642.0914	0.0312
642.2784	0.0248
642.4653	-0.0008
642.6523	0.0177
642.8392	0.0116
643.0261	0.015
643.213	0.0126
643.3999	0.0289
643.5867	0.0281
643.7735	-0.008
643.9604	0.0234
644.1472	0.013
644.3339	0.0099
644.5207	0.0095
644.7075	0.0198
644.8942	0.0039
645.0809	0.0154
645.2676	0.0033
645.4543	-0.0061
645.6409	0.0328
645.8276	0.0134
646.0142	0.0121
646.2008	0.0324
646.3874	0.0156
646.574	0.0033
646.7605	-0.0007
646.9471	0.0079
647.1336	-0.0191
647.3201	0.0163
647.5066	0.0092
647.6931	0.0108
647.8795	0.0042
648.0659	0.0089
648.2524	0.0002
648.4388	0.0111
648.6252	0.0201
648.8115	0.0132
648.9979	0.0297
649.1842	0.0141
649.3705	0.0261
649.5568	0.0046
649.7431	-0.001
649.9294	-0.0096
650.1156	0.0006
650.3018	0.0258
650.488	0.0212
650.6742	0.0297
650.8604	0.0185
651.0466	0.0092
651.2327	0.0129
651.4188	0.0051
651.6049	0.019
651.791	0.0196
651.9771	0.0048
652.1632	0.0206
652.3492	0.0062
652.5352	0.024
652.7212	0.0088
652.9072	0.0071
653.0932	0.018
653.2791	0.0182
653.465	0.0288
653.651	0.0042
653.8369	0.0193
654.0227	0.0029
654.2086	0.0098
654.3944	0.014
654.5803	0.0197
654.7661	0.0038
654.9519	0.0034
655.1377	0.0002
655.3234	0.0002
655.5092	0.0002
655.6949	0.0002
655.8806	0.0002
656.0663	0.0002
656.2519	0.0002
656.4376	0.0002
656.6232	0.0002
656.8088	0.0002
656.9945	0.0002
657.18	0.0002
657.3656	0.0002
657.5511	0.0002
657.7367	0.0002
657.9222	0.0002
658.1077	0.0002
658.2932	0.0002
658.4786	0.0002
658.6641	0.0002
658.8495	0.0002
659.0349	0.0002
659.2203	0.0002
659.4057	0.0231
659.591	0.2804
659.7764	0.0373
659.9617	0.023
660.147	0.0063
660.3323	0.0132
660.5176	0.0042
660.7028	0.0001
660.888	0.0123
661.0733	0.0124
661.2585	0.0053
661.4436	-0.0021
661.6288	0.0227
661.8139	0.0108
661.9991	0.015
662.1842	-0.0059
662.3693	0.0036
662.5544	0.0198
662.7394	0.0072
662.9245	0.0104
663.1095	-0.0119
663.2945	-0.0035
663.4795	-0.0115
663.6644	0.0046
663.8494	0.0149
664.0343	0.0346
664.2193	0.0264
664.4042	0.0164
664.589	0.0028
664.7739	0.0248
664.9587	-0.0209
665.1436	0.006
665.3284	0.0024
665.5132	-0.0138
665.698	0.002
665.8827	0.0217
666.0675	0.002
666.2522	0.0162
666.4369	0.0242
666.6216	0.0066
666.8063	0.0224
666.9909	0.0052
667.1756	-0.0183
667.3602	0.0054
667.5448	0.008
667.7294	0.0381
667.9139	0.004
668.0985	0.0234
668.283	-0.0033
668.4675	0.0142
668.652	0.0216
668.8365	0.0105
669.0209	0.003
669.2054	0.0069
669.3898	0.0192
669.5742	0.0254
669.7586	0.0251
669.943	0.0044
670.1273	-0.0129
670.3117	0.0252
670.496	0.0236
670.6803	0.0028
670.8646	0.0026
671.0488	0.0254
671.2331	0.0049
671.4173	0.0154
671.6015	0.0203
671.7857	0.0079
671.9699	0.0206
672.1541	0.0033
672.3382	0.0107
672.5223	0.006
672.7064	-0.0043
672.8905	0.0029
673.0746	0.0075
673.2587	0.0174
673.4427	0.005
673.6267	0.0319
673.8107	0.0306
673.9947	0.0215
674.1787	0.0222
674.3626	0.0303
674.5465	0.0212
674.7304	-0.0086
674.9143	-0.0034
675.0982	0.0007
675.2821	0.0157
675.4659	0.0111
675.6497	0.0267
675.8335	-0.0085
676.0173	-0.002
676.2011	0.044
676.3849	0.0113
676.5686	0.0262
676.7523	-0.0022
676.936	0.0106
677.1197	-0.0134
677.3034	0.0509
677.487	0.015
677.6706	0.0302
677.8542	0.0129
678.0378	0.0167
678.2214	0.004
678.405	0.004
678.5885	0.0118
678.772	0.0177
678.9555	0.0119
679.139	0.0161
679.3225	0.0062
679.5059	-0.0075
679.6894	0.0177
679.8728	0.0113
680.0562	0.0193
680.2395	0.0029
680.4229	0.0179
680.6062	0.0145
680.7896	0.0102
680.9729	0.0186
681.1562	-0.0008
681.3394	0.024
681.5227	-0.0214
681.7059	0.0135
681.8891	0.0203
682.0723	0.0019
682.2555	0.0134
682.4387	0.0122
682.6218	0.0172
682.805	0.0067
682.9881	0.0269
683.1712	0.0107
683.3542	0.0313
683.5373	-0.0082
683.7203	0.0039
683.9034	0.0113
684.0864	0.0212
684.2694	0.0013
684.4523	0.0187
684.6353	0.021
684.8182	0.0097
685.0011	0.0274
685.184	0.0113
685.3669	0.0297
685.5498	-0.0074
685.7326	0.0029
685.9154	-0.0068
686.0982	0.0221
686.281	0.0051
686.4638	0.0267
686.6465	0.009
686.8293	-0.0088
687.012	0.015
687.1947	0.0112
687.3774	0.0143
687.56	-0.005
687.7427	0.0189
687.9253	0.0078
688.1079	0.0256
688.2905	0.0065
688.4731	0.0242
688.6556	0.0078
688.8382	-0.0019
689.0207	0.0087
689.2032	0.0458
689.3857	0.0052
689.5681	0.0012
689.7506	0.029
689.933	-0.0014
690.1154	0.0252
690.2978	0.0131
690.4802	0.039
690.6626	-0.0015
690.8449	0.0277
691.0272	0.0041
691.2095	-0.0027
691.3918	0.0067
691.5741	0.0219
691.7563	0.0279
691.9386	0.0245
692.1208	0.0013
692.303	0.0116
692.4852	-0.0027
692.6673	0.0175
692.8495	0.012
693.0316	0.0217
693.2137	0.0295
693.3958	0.0131
693.5778	0.0224
693.7599	0.0101
693.9419	-0.0122
694.1239	-0.0073
694.3059	0.0131
694.4879	-0.0082
694.6699	0.0044
694.8518	0.0039
695.0337	0.0204
695.2157	0.0368
695.3975	0.0111
695.5794	-0.0079
695.7613	0.0159
695.9431	-0.0103
696.1249	0.0463
696.3067	0.0025
696.4885	0.0137
696.6703	0.009
696.852	-0.0073
697.0337	0.0328
697.2154	0.0159
697.3971	0.0186
697.5788	0.0216
697.7605	0.0165
697.9421	0.0181
698.1237	0.0172
698.3053	0.0092
698.4869	0.02
698.6685	-0.0079
698.85	0.0246
699.0315	0.0008
699.213	0.0141
699.3945	0.0111
699.576	0.0388
699.7575	0.0417
699.9389	0.0172
700.1203	0.0123
700.3017	-0.0014
700.4831	0.0436
700.6645	0.0313
700.8458	0.0426
701.0271	0.0483
701.2084	0.0002
701.3897	0.0043
701.571	-0.0066
701.7523	0.0365
701.9335	0.027
702.1147	0.0324
702.2959	-0.0075
702.4771	0.0268
702.6583	0.0081
702.8394	0.0028
703.0205	0.0139
703.2016	0.0096
703.3827	-0.0082
703.5638	0.0175
703.7449	0.0415
703.9259	-0.0031
704.1069	-0.0035
704.2879	0.0255
704.4689	0.014
704.6499	0.0393
704.8308	0.0339
705.0117	0.0184
705.1927	0.0245
705.3735	0.0336
705.5544	0.0097
705.7353	0.0116
705.9161	-0.0206
706.0969	0.0106
706.2777	0.0135
706.4585	0.0154
706.6393	0.0012
706.82	0.0011
707.0007	-0.0047
707.1815	-0.0075
707.3621	0.0349
707.5428	0.0213
707.7235	0.0096
707.9041	0.0204
708.0847	0.0053
708.2653	0.0254
708.4459	0.0019
708.6265	0.0148
708.807	0.0117
708.9875	0.012
709.168	-0.0117
709.3485	0.0287
709.529	0.0189
709.7095	-0.0177
709.8899	0.0264
710.0703	0.0137
710.2507	0.0118
710.4311	-0.0224
710.6115	0.0319
710.7918	0.0199
710.9721	0.0189
711.1524	0.0167
711.3327	0.0117
711.513	0.0026
711.6932	-0.0028
711.8735	0.0354
712.0537	-0.0328
712.2339	0.0145
712.4141	0.0463
712.5942	-0.0024
712.7744	0.0395
712.9545	0.0217
713.1346	0.016
713.3147	0.0069
713.4947	-0.0054
713.6748	-0.0054
713.8548	0.0155
714.0348	0.0189
714.2148	0.0143
714.3948	0.0224
714.5748	0.0209
714.7547	0.0376
714.9346	0.0412
715.1145	-0.0002
715.2944	0.0107
715.4743	0.0344
715.6541	-0.0045
715.834	0.0373
716.0138	0.0287
716.1936	0.011
716.3733	-0.0077
716.5531	-0.0067
716.7328	0.007
716.9126	-0.0013
717.0923	-0.0051
717.2719	0.0048
717.4516	0.0025
717.6312	-0.0146
717.8109	0.0106
717.9905	0.0242
718.1701	0.0231
718.3496	0.0166
718.5292	0.002
718.7087	0.0017
718.8882	0.046
719.0677	-0.0046
719.2472	-0.0161
719.4267	-0.013
719.6061	-0.0108
719.7856	0.0155
719.965	-0.0086
720.1443	0.0077
720.3237	-0.0022
720.5031	0.0217
720.6824	0.0121
720.8617	0.022
721.041	0.0281
721.2203	-0.0145
721.3995	0.0028
721.5788	0.0017
721.758	-0.0002
721.9372	0.0006
722.1164	-0.0045
722.2956	0.0236
722.4747	0.0135
722.6538	-0.0046
722.8329	0.0231
723.012	0.0421
723.1911	0.0131
723.3702	0.0159
723.5492	0.0181
723.7282	0.0089
723.9072	0.0251
724.0862	0.0097
724.2652	-0.0117
724.4441	-0.0063
724.623	0.007
724.8019	0.0106
724.9808	0.0112
725.1597	-0.0099
725.3385	-0.0046
725.5174	0.0192
725.6962	-0.0012
725.875	0.0218
726.0538	0.0211
726.2325	0.0202
726.4112	-0.0032
726.59	-0.0037
726.7687	0.0102
726.9474	0.015
727.126	0.0337
727.3047	0.0013
727.4833	0.0326
727.6619	0.0052
727.8405	0.019
728.0191	0.0142
728.1976	0.0204
728.3762	0.0196
728.5547	-0.0053
728.7332	0.0239
728.9116	0.0111
729.0901	0.0014
729.2686	0.01
729.447	-0.0021
729.6254	0.0187
729.8038	0.0122
729.9821	-0.008
730.1605	0.0127
730.3388	-0.0048
730.5171	0.0358
730.6954	0.0089
730.8737	0.0008
731.0519	-0.0047
731.2302	0.0265
731.4084	0.0122
731.5866	0.0068
731.7648	-0.0008
731.9429	0.0188
732.1211	-0.0121
732.2992	0.0334
732.4773	0.0166
732.6554	-0.0035
732.8335	0.0225
733.0115	0.0067
733.1896	-0.0026
733.3676	0.0151
733.5456	-0.0076
733.7235	-0.0072
733.9015	0.0235
734.0794	0.0073
734.2574	-0.0134
734.4353	0.0328
734.6131	0.0183
734.791	-0.0088
734.9689	0.0024
735.1467	0.0188
735.3245	0.0452
735.5023	0.0362
735.68	0.004
735.8578	0.0012
736.0355	0.0057
736.2132	0.0179
736.3909	0.0065
736.5686	0.0048
736.7463	-0.0104
736.9239	0.0395
737.1015	0.0058
737.2791	0.0223
737.4567	0.0113
737.6343	0.0084
737.8118	0.024
737.9894	0.0258
738.1669	-0.0012
738.3444	0.0322
738.5218	-0.0094
738.6993	0.0157
738.8767	0.024
739.0541	0.0016
739.2315	0.0065
739.4089	0.0423
739.5863	0.0156
739.7636	0.0113
739.9409	0.0283
740.1182	0.0095
740.2955	0.0225
740.4728	0.0028
740.65	0.0096
740.8272	0.0501
741.0044	-0.004
741.1816	0.0205
741.3588	-0.0078
741.5359	-0.0155
741.7131	0.0342
741.8902	0.0128
742.0673	-0.022
742.2444	0.0383
742.4214	0.0541
742.5985	0.0039
742.7755	0.0102
742.9525	-0.0117
743.1295	-0.019
743.3064	0.0288
743.4834	-0.0008
743.6603	0.0321
743.8372	-0.0361
744.0141	0.0186
744.191	0.0097
744.3678	-0.0466
744.5446	0.0186
744.7215	0.011
744.8982	0.0336
745.075	0.0891
745.2518	0.0052
745.4285	0.0285
745.6052	-0.0133
745.7819	0.0054
745.9586	0.0423
746.1353	-0.0038
746.3119	0.0314
746.4885	0.013
746.6651	0.0102
746.8417	0.0222
747.0183	0.0574
747.1948	0.0019
747.3714	0.0219
747.5479	0.0311
747.7244	0.038
747.9008	0.0081
748.0773	0.0264
748.2537	0.0125
748.4301	0.0345
748.6065	-0.0312
748.7829	-0.0158
748.9593	-0.0006
749.1356	0.0311
749.3119	0.0257
749.4882	0.0287
749.6645	0.0243
749.8408	0.0169
750.017	0.0265
750.1933	-0.0207
750.3695	0.0233
750.5457	0.0171
750.7218	0.0121
750.898	-0.0019
751.0741	0.0214
751.2502	0.0088
751.4263	0.0087
751.6024	0.0133
751.7784	-0.0065
751.9545	0.0256
752.1305	0.0259
752.3065	0.012
752.4825	0.0099
752.6584	0.0132
752.8344	0.0009
753.0103	-0.0081
753.1862	0.0133
753.3621	0.0028
753.5379	0.0204
753.7138	0.0234
753.8896	0.0166
754.0654	0.0124
754.2412	0.0369
754.417	0.0427
754.5927	0.0261
754.7685	0.032
754.9442	0.0408
755.1199	0.0176
755.2956	0.0217
755.4712	0.015
755.6469	0.015
755.8225	0.0337
755.9981	0.0195
756.1736	0.0013
756.3492	-0.0026
756.5248	0.0318
756.7003	-0.0069
756.8758	-0.001
757.0513	0.0165
757.2267	0.0131
757.4022	-0.0043
757.5776	-0.0035
757.753	0.0334
757.9284	-0.0013
758.1038	0.0097
758.2791	0.015
758.4545	0.0086
758.6298	0.002
758.8051	0.0229
758.9803	0.0203
759.1556	0.001
759.3308	0.0003
759.506	0.0076
759.6812	0.0191
759.8564	0.0118
760.0316	-0.0036
760.2067	0.0297
760.3819	0.0068
760.557	0.0079
760.732	0.0001
760.9071	0.0279
761.0821	-0.0025
761.2572	0.0093
761.4322	0.0213
761.6072	0.0282
761.7821	-0.0306
761.9571	0.0233
762.132	-0.0085
762.3069	0.0026
762.4818	0.026
762.6567	0.0128
762.8316	0.0408
763.0064	0.0323
763.1812	0.0001
763.356	-0.0113
763.5308	0.0164
763.7055	-0.0005
763.8803	0.0012
764.055	-0.0004
764.2297	-0.0251
764.4044	0.0097
764.579	0.0063
764.7537	0.011
764.9283	0.0147
765.1029	0.0271
765.2775	0.012
765.4521	0.0238
765.6266	0.0183
765.8011	0.0228
765.9756	0.0641
766.1501	0.0048
766.3246	0.0506
766.4991	0.0143
766.6735	0.0773
766.8479	-0.0108
767.0223	0.0307
767.1967	0.0054
767.371	0.0268
767.5454	0.0145
767.7197	0.0387
767.894	0.0014
768.0683	0.0408
768.2425	-0.0037
768.4168	0.0168
768.591	0.0173
768.7652	0.0234
768.9394	-0.0006
769.1135	-0.0238
769.2877	0.009
769.4618	0.0429
769.6359	0.0103
769.81	0.0089
769.984	0.0085
770.1581	0.0201
770.3321	0.0366
770.5061	-0.007
770.6801	0.0178
770.8541	0.0394
771.028	0.0702
771.202	0.017
771.3759	0.0111
771.5498	0.0243
771.7236	-0.0038
771.8975	0.0179
772.0713	0.0141
772.2451	-0.0123
772.4189	0.0201
772.5927	-0.0204
772.7665	0.0297
772.9402	0.03
773.1139	0.0108
773.2876	-0.0031
773.4613	0.0398
773.635	0.0516
773.8086	0.0342
773.9822	0.0275
774.1558	0.0653
774.3294	0.0328
774.503	0.0087
774.6765	0.0592
774.8501	-0.0024
775.0236	0.0271
775.1971	-0.0065
775.3705	0.0293
775.544	-0.0237
775.7174	0.0153
775.8908	0.0164
776.0642	0.0078
776.2376	0.0296
776.4109	0.062
776.5843	-0.0177
776.7576	0.0274
776.9309	0.0297
777.1041	-0.0379
777.2774	0.0277
777.4506	0.0619
777.6238	0.011
777.797	0.0534
777.9702	0.017
778.1434	0.0179
778.3165	-0.0398
778.4896	-0.0129
778.6627	0.0013
778.8358	0.0186
779.0089	-0.0151
779.1819	0.0222
779.3549	0.0126
779.5279	0.0292
779.7009	0.0557
779.8739	0.0707
780.0468	0.0176
780.2197	0.0077
780.3926	0.0231
780.5655	0.0054
780.7384	0.0229
780.9112	0.0194
781.0841	0.0591
781.2569	0.0393
781.4297	0.0155
781.6024	0.0397
781.7752	0.0619
781.9479	0.0517
782.1206	0.0269
782.2933	0.0265
782.466	0.0415
782.6386	-0.0149
782.8113	-0.0067
782.9839	-0.0056
783.1565	0.0171
783.329	-0.0106
783.5016	-0.0121
783.6741	0.0254
783.8466	0.0477
784.0191	0.0611
784.1916	-0.0036
784.3641	-0.0199
784.5365	0.0486
784.7089	0.0088
784.8813	0.0643
785.0537	0.0142
785.2261	0.0615
785.3984	0.0408
785.5707	0.0254
785.743	0.0443
785.9153	-0.0056
786.0876	-0.0212
786.2598	0.0329
786.432	0.0279
786.6042	0.0574
786.7764	-0.006
786.9486	0.0341
787.1207	0.0383
787.2928	0.077
787.4649	-0.0162
787.637	0.0333
787.8091	0.0324
787.9811	0.0437
788.1532	0.006
788.3252	-0.0027
788.4972	0.0165
788.6691	-0.0061
788.8411	-0.014
789.013	-0.0004
789.1849	0.0074
789.3568	0.0205
789.5287	0.0639
789.7005	-0.0496
789.8723	0.0215
790.0442	0.059
790.2159	-0.0037
790.3877	0.0356
790.5595	0.0653
790.7312	0.0413
790.9029	0.0108
791.0746	-0.0129
791.2463	-0.0633
791.4179	0.0484
791.5896	0.0449
791.7612	0.0709
791.9328	0.021
792.1044	0.0028
792.2759	-0.0117
792.4474	0.0232
792.619	-0.0096
792.7905	0.0167
792.9619	0.081
793.1334	0.1514
793.3048	0.0623
793.4762	0.0054
793.6476	-0.022
793.819	0.0036
793.9904	-0.007
794.1617	0.0233
794.333	0.0321
794.5043	0.0318
794.6756	0.0289
794.8469	0.0293
795.0181	0.0222
795.1893	0.0174
795.3605	0.0487
795.5317	0.0317
795.7029	0.0666
795.874	0.0013
796.0452	-0.0006
796.2163	0.0879
796.3873	0.1261
796.5584	0.1097
796.7294	0.0315
796.9005	0.0569
797.0715	0.0317
797.2425	0.0575
797.4134	0.0025
797.5844	0.0588
797.7553	-0.0716
797.9262	0.0681
798.0971	0.0653
798.2679	0.0066
798.4388	0.0687
798.6096	0.0273
798.7804	0.0295
798.9512	0.0486
799.122	0.0339
799.2927	0.0641
799.4635	-0.0023
799.6342	-0.0431
799.8049	0.0463
799.9755	0.031
800.1462	0.0436
800.3168	0.0551
800.4874	-0.057
800.658	0.0528
800.8286	0.0311
800.9991	0.0249
801.1696	0.0467
801.3402	-0.0467
801.5106	-0.0177
801.6811	0.0134
801.8516	0.1052
802.022	0.1244
802.1924	0.0244
802.3628	0.0148
802.5332	0.0477
802.7035	0.1266
802.8739	0.0167
803.0442	-0.0264
803.2145	0.0157
803.3847	0.1113
803.555	0.0881
803.7252	0.0302
803.8954	0.0073
804.0656	0.016
804.2358	0.0175
804.4059	0.1033
804.5761	0.0123
804.7462	-0.0027
804.9163	0.0384
805.0864	0.0685
805.2564	0.0531
805.4264	0.0332
805.5965	0.0725
805.7665	-0.0143
805.9364	0.023
806.1064	0.0487
806.2763	-0.0005
806.4462	0.0391
806.6161	-0.0057
806.786	0.0075
806.9559	0.0348
807.1257	-0.0066
807.2955	-0.0279
807.4653	0.0551
807.6351	0.0593
807.8048	0.0797
807.9746	0.0869
808.1443	0.0129
808.314	0.0941
808.4837	-0.0057
808.6533	-0.0296
808.8229	0.0828
808.9926	-0.0102
809.1622	0.0124
809.3317	0.0129
809.5013	0.0081
809.6708	0.0264
809.8403	0.0559
810.0098	-0.0046
810.1793	0.0688
810.3488	0.0205
810.5182	0.07
810.6876	0.0632
810.857	0.0576
811.0264	0.0087
811.1958	0.1983
811.3651	0.0839
811.5344	-0.0211
811.7037	0.1181
811.873	0.0248
812.0422	-0.0299
812.2115	0.0556
812.3807	-0.1756
812.5499	0.017
812.7191	-0.071
812.8882	-0.0406
813.0574	-0.103
813.2265	0.1729
813.3956	-0.0772
813.5646	0.1116
813.7337	0.0602
813.9027	-0.0366
814.0718	-0.0078
814.2407	0.0221
814.4097	0.0472
814.5787	0.098
814.7476	0.0355
814.9165	0.1205
815.0854	0.0008
815.2543	0.1507
815.4232	0.0138
815.592	0.0722
815.7608	-0.1966
815.9296	-0.0756
816.0984	0.066
816.2671	-0.2098
816.4359	0.0579
816.6046	0.0297
816.7733	-0.0884
816.942	0.0147
817.1106	0.2203
817.2793	0.0311
817.4479	0.0277
817.6165	-0.0139
817.785	0.0314
817.9536	-0.1219
818.1221	0.0286
818.2906	0.1075
818.4591	0.0285
818.6276	0.0341
818.7961	0.1261
818.9645	0.0356
819.1329	0.2288
819.3013	-0.0637
819.4697	0.0485
819.638	0.2593
819.8064	0.0181
819.9747	0.1089
820.143	-0.0101
820.3113	0.1867
820.4795	0.0293
820.6477	0.1107
820.816	0.108
820.9842	0.1341
821.1523	0.0659
821.3205	-0.0052
821.4886	0.0198
821.6567	0.0034
821.8248	0.1423
821.9929	-0.1562
822.1609	0.0907
822.329	-0.0275
822.497	0.1324
822.665	0.3018
822.833	0.0288
823.0009	-0.0259
823.1688	0.0911
823.3367	0.0079
823.5046	0.2479
823.6725	-0.0394
823.8404	0.4496
824.0082	0.0195
824.176	-0.0224
824.3438	0.5013
824.5116	-0.053
824.6793	0.0264
824.847	-0
825.0147	-0.0822
825.1824	0.0677
825.3501	-0.0926
825.5177	0.023
825.6854	-0.1276
825.853	0.1356
826.0206	-0.0021
826.1881	0.1324
826.3557	0.0271
826.5232	0.2218
826.6907	0.0252
826.8582	0.2812
827.0257	0.1579
827.1931	0.0327
827.3605	-0.0625
827.528	-0.0609
827.6953	-0.2111
827.8627	-0.1125
828.03	0.0295
828.1974	0.1387
828.3647	0.1637
828.532	-0.0385
828.6992	0.0923
828.8665	-0.2365
829.0337	-0.0775
829.2009	-0.1182
829.3681	-0.0112
829.5352	-0.2568
829.7024	0.4646
829.8695	0.0628
830.0366	0.4119
830.2037	0.2034
830.3707	0.0646
830.5378	0.0193
830.7048	0.2538
830.8718	0.0523
831.0388	0.1111
831.2057	-0
831.3727	0.0533
831.5396	0.002
831.7065	-0.521
831.8734	0.2608
832.0402	0.1497
832.2071	-0.591
832.3739	-0.301
832.5407	-1.415
832.7075	-0.1219
832.8742	0.0727
833.041	0.3544
833.2077	0.2025
833.3744	0.0631
833.541	0.4638
833.7077	-0.0669
833.8743	0.2506
834.0409	0.1858
834.2075	0.1655
834.3741	0.0721
834.5407	0.175
834.7072	0.1264
834.8737	0.4628
835.0402	1.0826
835.2067	0.1432
835.3731	0.1342
835.5395	-0.0271
835.706	0.6221
835.8723	0.6321
836.0387	0.4593
836.2051	-0
836.3714	0.0313
836.5377	0.1788
836.704	0.0111
836.8703	-0.2738
837.0365	-0.2396
837.2027	1.4013
837.3689	0.3074
837.5351	0.0393
837.7013	0.0576
837.8674	-0.0629
838.0335	0.0822
838.1997	-0.0179
838.3657	-0
838.5318	-0
838.6978	-0
838.8639	-0.1649
839.0299	-0.0897
839.1958	0.1552
839.3618	0.2537
839.5277	0.0641
839.6937	-0.1604
839.8596	-0.0268
840.0254	0.1196
840.1913	1.3237
840.3571	-0.0781
840.523	-0
840.6888	0.084
840.8545	0.2518
841.0203	0.0844
841.186	0.113
841.3517	0.4335
841.5174	0.2919
841.6831	0.0662
841.8488	0.233
842.0144	0.3235
842.18	1.4659
842.3456	-0.2048
842.5112	-0
842.6767	0.0486
842.8422	0.5198
843.0077	0.2217
843.1732	-0.436
843.3387	1.0124
843.5042	-0
843.6696	0.3366
843.835	0.0315
844.0004	-0.1501
844.1657	-0
844.3311	-0.0666
844.4964	-0
844.6617	0.1934
844.827	0.3958
844.9923	0.1729
845.1575	-0.3347
845.3227	-0.0667
845.4879	0.2394
845.6531	0.6703
845.8183	0.4966
845.9834	0.8785
846.1485	-0
846.3136	0.0167
846.4787	0.7943
846.6438	0.1673
846.8088	0.4046
846.9738	-0.8325
847.1388	0.2236
847.3038	0.4438
847.4687	0.3966
847.6337	0.0624
847.7986	0.006
847.9635	0.0382
848.1284	0.8774
848.2932	0.6255
848.458	-0
848.6228	-0
848.7876	0.5037
848.9524	-0.4006
849.1172	-1.5166
849.2819	-0
849.4466	0.4208
849.6113	0.6439
849.7759	-0
849.9406	0.1598
850.1052	-0
850.2698	-0
850.4344	-0.2714
850.599	0.2402
850.7635	0.914
850.928	0.0674
851.0925	0.4775
851.257	-0
851.4215	-0
851.5859	0.2382
851.7503	0.1043
851.9147	-0
852.0791	0.0123
852.2434	0.1497
852.4078	-0
852.5721	0.4182
852.7364	0.2732
852.9007	0.1252
853.0649	-0.2744
853.2291	0.2505
853.3934	0.474
853.5575	0.0167
853.7217	0.1981
853.8859	-0.0949
854.05	0.7445
854.2141	0.2814
854.3782	-0
854.5423	0.7445
854.7063	0.3034
854.8703	-0.185
855.0343	-0.0455
855.1983	0.0513
855.3623	0.2628
855.5262	-0
855.6901	0.3212
855.854	0.3873
856.0179	-0.3929
856.1818	-0
856.3456	-0
856.5094	-0
856.6732	-0.1994
856.837	-0
857.0008	-0.371
857.1645	-0
857.3282	0.1567
857.4919	0.0622
857.6556	-0.3588
857.8192	-0.1442
857.9828	0.0657
858.1465	-0.231
858.31	0.0132
858.4736	-0.7873
858.6372	-0
858.8007	0.5767
858.9642	0.2236
859.1277	0.3895
859.2911	-0.7719
859.4546	-0
859.618	0.3642
859.7814	-0.2281
859.9448	-0
860.1081	-0
860.2715	-1.7677
860.4348	-0
860.5981	1.1553
860.7614	-0
860.9246	-0.1743
861.0879	0.4669
861.2511	-0
861.4143	1.4393
861.5774	-0.2132
861.7406	0.1829
861.9037	-0.7262
862.0668	-0.9839
862.2299	0.8363
862.393	-0
862.556	-0
862.7191	-0.572
862.8821	0.1552
863.0451	-0
863.208	-0
863.371	-0.0735
863.5339	0.2217
863.6968	-0
863.8597	0.1075
864.0225	-0
864.1854	0.2062
864.3482	-0.4999
864.511	0.4555
864.6737	-0.0719
864.8365	0.0704
864.9992	-0
865.1619	0.2806
865.3246	-2.1498
865.4873	-0
865.65	1.0969
865.8126	-0
865.9752	-0.0434
866.1378	0.066
866.3004	-0
866.4629	-1.4934
866.6254	-0.2819
866.7879	-0
866.9504	-0
867.1129	0.2016
867.2753	0.0392
867.4377	-0
867.6001	-0.5194
867.7625	0.0901
867.9249	0.2343
868.0872	-0.0234
868.2495	-0
868.4118	0.3421
868.5741	-0.0286
868.7363	0.6128
868.8986	-0.6291
869.0608	-0
869.223	-0
869.3851	-0.4486
869.5473	0.2543
869.7094	-0.0219
869.8715	-0
870.0336	0.3191
870.1957	-0.8055
870.3577	0.5363
870.5197	0.5792
870.6817	-0.8065
870.8437	-0
871.0057	0.1856
871.1676	0.3023
871.3295	-0
871.4914	-1.8401
871.6533	-0
871.8151	-0
871.977	0.3373
872.1388	-0.0127
872.3006	-0
872.4623	-0.3328
872.6241	-0
872.7858	-0
872.9475	-0
873.1092	0.1252
873.2709	0.5907
873.4325	-1.6349
873.5941	-0
873.7557	-0
873.9173	2.2492
874.0789	0.8056
874.2404	-0
874.4019	0.171
874.5634	-0
874.7249	0.0062
874.8863	0.0148
875.0478	-0.0331
875.2092	-0
875.3706	0.2136
875.5319	-0
875.6933	-0
875.8546	-0
876.0159	0.1076
876.1772	-0
876.3385	0.838
876.4997	-0
876.6609	-0
876.8221	1.0308
876.9833	-0
877.1445	0.523
877.3056	-0.7687
877.4667	-0
877.6278	-0
877.7889	-0.1417
877.9499	-0
878.111	0.0787
878.272	-0
878.433	-0
878.5939	-0
878.7549	-0
878.9158	-0
879.0767	0.2612
879.2376	-0.4931
879.3984	-0
879.5593	0.9242
879.7201	-1.7677
879.8809	-0
880.0417	-0.2619
880.2024	-0
880.3632	-0.337
880.5239	-0
880.6846	-0
880.8452	-0.0423
881.0059	-0
881.1665	-0
881.3271	0.027
881.4877	0.031
881.6483	-0
881.8088	-0
881.9693	-1.1879
882.1298	-1.1879
882.2903	-1.1879
