Data from D4ACN5uM420nmA_Absorbance_14-37-08-397.txt Node
Date: Fri Feb 21 14:37:08 GMT 2025
User: LASERRRRR
Spectrometer: FLMT03099
Trigger mode: 0
Integration Time (sec): 1.500000E-2
Scans to average: 1
Electric dark correction enabled: true
Nonlinearity correction enabled: false
Boxcar width: 0
XAxis mode: Wavelengths
Number of Pixels in Spectrum: 3648
>>>>>Begin Spectral Data<<<<<
179.3399	-0.7984
179.5586	-0.7984
179.7771	-0.7984
179.9957	0.0595
180.2143	-0
180.4329	-0.1456
180.6514	0.1903
180.8699	1.5299
181.0885	-0
181.307	0.8871
181.5255	0.4103
181.744	-0
181.9625	0.2079
182.181	-0.0952
182.3994	-0.4895
182.6179	-0
182.8363	0.3963
183.0547	0.1142
183.2732	0.0675
183.4916	0.1638
183.71	0.188
183.9284	-0.0811
184.1467	0.2692
184.3651	-0.0993
184.5835	0.3252
184.8018	0.1956
185.0201	0.0911
185.2385	0.1733
185.4568	0.178
185.6751	0.2323
185.8934	0.1287
186.1117	-0.1372
186.3299	0.0744
186.5482	0.0813
186.7664	0.2396
186.9847	-0.1416
187.2029	0.0732
187.4211	-0.0181
187.6393	0.2508
187.8575	0.1189
188.0757	0.3816
188.2939	0.0486
188.512	0.094
188.7302	-0.0204
188.9483	0.1325
189.1665	0.3962
189.3846	0.2892
189.6027	0.1197
189.8208	0.2822
190.0389	0.2325
190.257	0.0435
190.475	-0.0337
190.6931	0.1561
190.9111	-0.0663
191.1292	0.0753
191.3472	0.1467
191.5652	0.2952
191.7832	0.1825
192.0012	0.1864
192.2192	0.065
192.4371	0.1334
192.6551	0.0926
192.873	0.1789
193.091	0.0969
193.3089	0.0839
193.5268	0.1342
193.7447	0.1567
193.9626	0.1956
194.1805	0.2899
194.3984	0.1164
194.6162	0.2754
194.8341	0.2137
195.0519	0.2638
195.2697	0.2533
195.4875	0.2427
195.7054	0.2295
195.9231	0.1596
196.1409	0.2754
196.3587	0.2486
196.5765	0.252
196.7942	0.3302
197.012	0.3292
197.2297	0.3045
197.4474	0.3972
197.6651	0.3292
197.8828	0.3131
198.1005	0.3602
198.3182	0.3853
198.5358	0.3213
198.7535	0.3002
198.9711	0.3841
199.1888	0.3455
199.4064	0.3681
199.624	0.3899
199.8416	0.3169
200.0592	0.3454
200.2767	0.3406
200.4943	0.4142
200.7119	0.3723
200.9294	0.4165
201.1469	0.395
201.3645	0.4243
201.582	0.3541
201.7995	0.3766
202.017	0.4108
202.2344	0.399
202.4519	0.4082
202.6694	0.3668
202.8868	0.374
203.1042	0.3972
203.3217	0.3893
203.5391	0.4044
203.7565	0.3605
203.9739	0.3687
204.1913	0.3801
204.4086	0.3503
204.626	0.3691
204.8433	0.3692
205.0607	0.3439
205.278	0.3277
205.4953	0.3222
205.7126	0.3508
205.9299	0.3137
206.1472	0.3133
206.3644	0.319
206.5817	0.3078
206.7989	0.3543
207.0162	0.3062
207.2334	0.3198
207.4506	0.3182
207.6678	0.2931
207.885	0.3063
208.1022	0.2867
208.3194	0.2767
208.5365	0.31
208.7537	0.2921
208.9708	0.2904
209.1879	0.3066
209.405	0.2827
209.6222	0.2727
209.8392	0.3166
210.0563	0.2762
210.2734	0.2638
210.4905	0.2838
210.7075	0.274
210.9245	0.2736
211.1416	0.2733
211.3586	0.2625
211.5756	0.2383
211.7926	0.2652
212.0096	0.2548
212.2265	0.2505
212.4435	0.2411
212.6604	0.2226
212.8774	0.2382
213.0943	0.2336
213.3112	0.2426
213.5281	0.2408
213.745	0.2448
213.9619	0.2451
214.1788	0.2715
214.3956	0.245
214.6125	0.2408
214.8293	0.2289
215.0461	0.2398
215.2629	0.2398
215.4798	0.2464
215.6965	0.2388
215.9133	0.2419
216.1301	0.246
216.3469	0.2425
216.5636	0.2608
216.7803	0.2229
216.9971	0.2494
217.2138	0.2388
217.4305	0.2366
217.6472	0.2491
217.8639	0.2425
218.0805	0.2334
218.2972	0.2388
218.5138	0.2443
218.7305	0.2617
218.9471	0.2411
219.1637	0.2672
219.3803	0.2508
219.5969	0.2505
219.8135	0.2601
220.0301	0.2534
220.2466	0.2555
220.4632	0.2354
220.6797	0.2573
220.8962	0.256
221.1127	0.2589
221.3292	0.259
221.5457	0.2777
221.7622	0.2561
221.9787	0.2793
222.1951	0.2664
222.4116	0.2631
222.628	0.2881
222.8444	0.2789
223.0608	0.2764
223.2772	0.2869
223.4936	0.2824
223.71	0.2853
223.9264	0.2759
224.1427	0.2871
224.3591	0.2771
224.5754	0.2845
224.7917	0.288
225.008	0.28
225.2243	0.3023
225.4406	0.2933
225.6569	0.299
225.8732	0.3125
226.0894	0.2911
226.3057	0.3025
226.5219	0.3169
226.7381	0.3175
226.9543	0.3167
227.1705	0.3095
227.3867	0.3137
227.6029	0.3301
227.8191	0.3426
228.0352	0.3414
228.2513	0.3521
228.4675	0.3281
228.6836	0.3458
228.8997	0.348
229.1158	0.3609
229.3319	0.3533
229.548	0.3504
229.764	0.3609
229.9801	0.3688
230.1961	0.3732
230.4121	0.3755
230.6282	0.3747
230.8442	0.3881
231.0602	0.384
231.2761	0.3826
231.4921	0.3843
231.7081	0.388
231.924	0.3932
232.14	0.3969
232.3559	0.3976
232.5718	0.4195
232.7877	0.4019
233.0036	0.4017
233.2195	0.4168
233.4353	0.4206
233.6512	0.4191
233.867	0.4098
234.0829	0.4264
234.2987	0.4286
234.5145	0.4498
234.7303	0.4343
234.9461	0.4429
235.1619	0.44
235.3776	0.4401
235.5934	0.4424
235.8091	0.4456
236.0249	0.454
236.2406	0.4428
236.4563	0.4447
236.672	0.4423
236.8877	0.4428
237.1034	0.4538
237.319	0.4512
237.5347	0.4463
237.7503	0.4526
237.966	0.4638
238.1816	0.4533
238.3972	0.4475
238.6128	0.4614
238.8284	0.462
239.0439	0.4624
239.2595	0.4652
239.475	0.465
239.6906	0.4667
239.9061	0.4628
240.1216	0.4609
240.3371	0.4589
240.5526	0.4797
240.7681	0.4631
240.9836	0.4685
241.199	0.4509
241.4145	0.4494
241.6299	0.4462
241.8453	0.4497
242.0607	0.4357
242.2761	0.4422
242.4915	0.4373
242.7069	0.4332
242.9223	0.4271
243.1376	0.425
243.353	0.4154
243.5683	0.3966
243.7836	0.4008
243.9989	0.3856
244.2142	0.3822
244.4295	0.3817
244.6448	0.3775
244.86	0.3629
245.0753	0.3592
245.2905	0.3596
245.5057	0.3463
245.721	0.3427
245.9362	0.3433
246.1514	0.3246
246.3665	0.3299
246.5817	0.3136
246.7969	0.3102
247.012	0.2991
247.2271	0.3045
247.4423	0.2888
247.6574	0.2883
247.8725	0.2832
248.0876	0.279
248.3026	0.2708
248.5177	0.264
248.7328	0.2601
248.9478	0.2581
249.1628	0.2529
249.3779	0.2448
249.5929	0.251
249.8079	0.2362
250.0228	0.2313
250.2378	0.2422
250.4528	0.2284
250.6677	0.2262
250.8827	0.2197
251.0976	0.2186
251.3125	0.2185
251.5274	0.2142
251.7423	0.2147
251.9572	0.2141
252.172	0.2127
252.3869	0.2084
252.6017	0.206
252.8166	0.2039
253.0314	0.2012
253.2462	0.2028
253.461	0.2021
253.6758	0.1985
253.8906	0.1921
254.1053	0.1978
254.3201	0.2037
254.5348	0.1907
254.7496	0.1868
254.9643	0.1937
255.179	0.1924
255.3937	0.1881
255.6083	0.1912
255.823	0.1876
256.0377	0.1873
256.2523	0.1892
256.467	0.1919
256.6816	0.1834
256.8962	0.1867
257.1108	0.1888
257.3254	0.1856
257.54	0.1823
257.7545	0.1903
257.9691	0.1886
258.1836	0.1773
258.3981	0.1812
258.6127	0.1756
258.8272	0.185
259.0417	0.1792
259.2561	0.1846
259.4706	0.1853
259.6851	0.1811
259.8995	0.1752
260.114	0.1817
260.3284	0.1827
260.5428	0.1823
260.7572	0.1807
260.9716	0.1871
261.186	0.1804
261.4003	0.1797
261.6147	0.1813
261.829	0.1813
262.0433	0.1822
262.2577	0.1872
262.472	0.1852
262.6863	0.1855
262.9005	0.1858
263.1148	0.1854
263.3291	0.1808
263.5433	0.1865
263.7576	0.1862
263.9718	0.186
264.186	0.1918
264.4002	0.1892
264.6144	0.1908
264.8286	0.1883
265.0427	0.1974
265.2569	0.1926
265.471	0.1911
265.6851	0.1873
265.8993	0.182
266.1134	0.189
266.3275	0.191
266.5415	0.1919
266.7556	0.1995
266.9697	0.1961
267.1837	0.1884
267.3978	0.1893
267.6118	0.1929
267.8258	0.19
268.0398	0.1918
268.2538	0.1993
268.4677	0.1893
268.6817	0.1886
268.8957	0.1832
269.1096	0.1835
269.3235	0.1859
269.5374	0.1907
269.7514	0.1832
269.9652	0.1887
270.1791	0.1879
270.393	0.1862
270.6068	0.1879
270.8207	0.1816
271.0345	0.1891
271.2483	0.1828
271.4622	0.1852
271.676	0.186
271.8897	0.1829
272.1035	0.1915
272.3173	0.1843
272.531	0.1835
272.7448	0.1886
272.9585	0.1828
273.1722	0.1778
273.3859	0.1883
273.5996	0.1882
273.8133	0.1924
274.0269	0.1842
274.2406	0.1909
274.4542	0.1923
274.6679	0.1882
274.8815	0.194
275.0951	0.198
275.3087	0.1956
275.5223	0.1909
275.7358	0.196
275.9494	0.1963
276.1629	0.1972
276.3765	0.1983
276.59	0.1908
276.8035	0.1983
277.017	0.204
277.2305	0.2019
277.444	0.2052
277.6574	0.2011
277.8709	0.2037
278.0843	0.205
278.2978	0.2048
278.5112	0.1997
278.7246	0.1978
278.938	0.2055
279.1513	0.1973
279.3647	0.1981
279.5781	0.1971
279.7914	0.1977
280.0047	0.1991
280.2181	0.1996
280.4314	0.202
280.6447	0.2047
280.8579	0.1933
281.0712	0.1942
281.2845	0.1946
281.4977	0.1946
281.711	0.1896
281.9242	0.1936
282.1374	0.1921
282.3506	0.1918
282.5638	0.1945
282.7769	0.1884
282.9901	0.1932
283.2033	0.191
283.4164	0.1921
283.6295	0.1927
283.8426	0.1871
284.0557	0.1908
284.2688	0.193
284.4819	0.1823
284.695	0.1928
284.908	0.1913
285.1211	0.1931
285.3341	0.1844
285.5471	0.1932
285.7601	0.1927
285.9731	0.1952
286.1861	0.1925
286.3991	0.193
286.612	0.1911
286.825	0.1905
287.0379	0.1902
287.2508	0.1987
287.4637	0.1913
287.6766	0.1931
287.8895	0.189
288.1024	0.1895
288.3152	0.1903
288.5281	0.1884
288.7409	0.1964
288.9538	0.194
289.1666	0.1909
289.3794	0.1949
289.5922	0.1869
289.8049	0.193
290.0177	0.1948
290.2304	0.1911
290.4432	0.1949
290.6559	0.1888
290.8686	0.1926
291.0813	0.1917
291.294	0.1941
291.5067	0.1856
291.7194	0.1886
291.932	0.1847
292.1447	0.1947
292.3573	0.1903
292.5699	0.1927
292.7825	0.1927
292.9951	0.1939
293.2077	0.1865
293.4203	0.1914
293.6328	0.1857
293.8454	0.1874
294.0579	0.1872
294.2704	0.1952
294.4829	0.1899
294.6954	0.1901
294.9079	0.1852
295.1204	0.1866
295.3328	0.194
295.5453	0.192
295.7577	0.1948
295.9701	0.1988
296.1825	0.1945
296.3949	0.1882
296.6073	0.1855
296.8197	0.1912
297.0321	0.1956
297.2444	0.1886
297.4567	0.1957
297.6691	0.1884
297.8814	0.1885
298.0937	0.194
298.306	0.1934
298.5182	0.1946
298.7305	0.1925
298.9428	0.1911
299.155	0.1865
299.3672	0.192
299.5794	0.1878
299.7916	0.1914
300.0038	0.1914
300.216	0.1919
300.4282	0.1927
300.6403	0.1954
300.8525	0.1906
301.0646	0.1886
301.2767	0.1836
301.4888	0.192
301.7009	0.193
301.913	0.1893
302.125	0.1882
302.3371	0.1886
302.5491	0.1996
302.7612	0.1967
302.9732	0.1953
303.1852	0.1945
303.3972	0.1902
303.6092	0.1895
303.8211	0.187
304.0331	0.1865
304.245	0.188
304.457	0.1894
304.6689	0.1898
304.8808	0.1841
305.0927	0.1903
305.3046	0.1889
305.5164	0.1853
305.7283	0.1843
305.9401	0.1768
306.152	0.1802
306.3638	0.1801
306.5756	0.1823
306.7874	0.1789
306.9992	0.175
307.2109	0.1769
307.4227	0.1661
307.6344	0.1842
307.8462	0.1698
308.0579	0.1773
308.2696	0.1733
308.4813	0.1734
308.693	0.1667
308.9046	0.1736
309.1163	0.1645
309.328	0.1634
309.5396	0.1576
309.7512	0.161
309.9628	0.1563
310.1744	0.1605
310.386	0.1535
310.5976	0.1586
310.8091	0.1601
311.0207	0.1548
311.2322	0.1489
311.4437	0.1534
311.6552	0.1545
311.8667	0.1524
312.0782	0.148
312.2897	0.1496
312.5012	0.1492
312.7126	0.1478
312.924	0.146
313.1355	0.146
313.3469	0.1495
313.5583	0.1412
313.7696	0.1414
313.981	0.1507
314.1924	0.1424
314.4037	0.1447
314.6151	0.1373
314.8264	0.1493
315.0377	0.1398
315.249	0.1418
315.4603	0.1371
315.6716	0.1392
315.8828	0.1392
316.0941	0.1474
316.3053	0.1335
316.5165	0.14
316.7277	0.1339
316.9389	0.1438
317.1501	0.1396
317.3613	0.1383
317.5724	0.1367
317.7836	0.1289
317.9947	0.1318
318.2058	0.1346
318.417	0.1352
318.6281	0.1301
318.8391	0.1393
319.0502	0.1403
319.2613	0.1321
319.4723	0.1315
319.6834	0.1407
319.8944	0.1298
320.1054	0.138
320.3164	0.1336
320.5274	0.1344
320.7383	0.1411
320.9493	0.1358
321.1602	0.1375
321.3712	0.1366
321.5821	0.131
321.793	0.1386
322.0039	0.1382
322.2148	0.1391
322.4257	0.1321
322.6365	0.1362
322.8474	0.1464
323.0582	0.1377
323.269	0.139
323.4798	0.1313
323.6906	0.137
323.9014	0.1347
324.1122	0.1296
324.3229	0.1442
324.5337	0.1437
324.7444	0.1368
324.9551	0.1434
325.1658	0.1387
325.3765	0.144
325.5872	0.1384
325.7979	0.1366
326.0085	0.1402
326.2192	0.1371
326.4298	0.145
326.6404	0.1464
326.851	0.1396
327.0616	0.143
327.2722	0.1402
327.4828	0.1409
327.6933	0.1492
327.9039	0.137
328.1144	0.1463
328.3249	0.1446
328.5354	0.145
328.7459	0.1459
328.9564	0.1448
329.1669	0.1478
329.3773	0.1496
329.5878	0.1461
329.7982	0.145
330.0086	0.1505
330.219	0.1487
330.4294	0.1535
330.6398	0.1508
330.8502	0.1566
331.0605	0.1475
331.2708	0.1488
331.4812	0.1541
331.6915	0.1504
331.9018	0.1504
332.1121	0.1535
332.3224	0.1529
332.5326	0.1462
332.7429	0.1486
332.9531	0.1528
333.1633	0.1467
333.3735	0.1453
333.5837	0.1535
333.7939	0.1488
334.0041	0.1586
334.2143	0.1499
334.4244	0.1549
334.6346	0.1479
334.8447	0.1533
335.0548	0.1549
335.2649	0.1525
335.475	0.1584
335.685	0.1523
335.8951	0.1506
336.1051	0.1506
336.3152	0.1547
336.5252	0.1444
336.7352	0.1509
336.9452	0.1536
337.1552	0.1519
337.3652	0.1451
337.5751	0.1549
337.7851	0.1485
337.995	0.1583
338.2049	0.156
338.4148	0.1545
338.6247	0.1533
338.8346	0.1586
339.0445	0.1555
339.2543	0.1553
339.4642	0.157
339.674	0.1491
339.8838	0.1538
340.0936	0.1554
340.3034	0.1531
340.5132	0.1482
340.7229	0.1527
340.9327	0.1593
341.1424	0.1573
341.3522	0.1506
341.5619	0.1573
341.7716	0.1626
341.9813	0.1628
342.1909	0.1616
342.4006	0.1584
342.6102	0.1625
342.8199	0.1616
343.0295	0.1547
343.2391	0.1659
343.4487	0.1677
343.6583	0.1717
343.8679	0.1602
344.0774	0.1617
344.287	0.1661
344.4965	0.1742
344.706	0.171
344.9155	0.167
345.125	0.1678
345.3345	0.1708
345.544	0.1704
345.7534	0.1793
345.9629	0.1719
346.1723	0.1755
346.3817	0.1695
346.5911	0.1779
346.8005	0.1807
347.0099	0.1766
347.2193	0.1837
347.4286	0.1854
347.638	0.1841
347.8473	0.1804
348.0566	0.1836
348.2659	0.1846
348.4752	0.1868
348.6845	0.1761
348.8937	0.1804
349.103	0.1804
349.3122	0.1827
349.5214	0.1848
349.7306	0.1917
349.9398	0.1885
350.149	0.1792
350.3582	0.1799
350.5674	0.1908
350.7765	0.1846
350.9856	0.1813
351.1948	0.1894
351.4039	0.1883
351.613	0.1837
351.822	0.188
352.0311	0.1909
352.2402	0.1858
352.4492	0.1838
352.6582	0.1873
352.8672	0.1898
353.0762	0.1874
353.2852	0.1832
353.4942	0.1877
353.7032	0.1862
353.9121	0.1918
354.1211	0.1926
354.33	0.1922
354.5389	0.1895
354.7478	0.1845
354.9567	0.1903
355.1655	0.1856
355.3744	0.1859
355.5833	0.1865
355.7921	0.1853
356.0009	0.1906
356.2097	0.1803
356.4185	0.1881
356.6273	0.1896
356.8361	0.1914
357.0448	0.1898
357.2536	0.1936
357.4623	0.1921
357.671	0.1928
357.8797	0.1995
358.0884	0.1878
358.2971	0.1908
358.5057	0.1972
358.7144	0.1939
358.923	0.1931
359.1316	0.1988
359.3402	0.1923
359.5488	0.2017
359.7574	0.2074
359.966	0.1982
360.1746	0.1988
360.3831	0.2045
360.5916	0.2035
360.8002	0.2084
361.0087	0.2046
361.2172	0.2061
361.4256	0.2042
361.6341	0.2033
361.8426	0.209
362.051	0.2117
362.2594	0.2066
362.4678	0.2087
362.6762	0.212
362.8846	0.21
363.093	0.2114
363.3014	0.2161
363.5097	0.2164
363.718	0.2213
363.9264	0.2175
364.1347	0.2166
364.343	0.2182
364.5513	0.2209
364.7595	0.2217
364.9678	0.2154
365.176	0.2164
365.3842	0.2254
365.5925	0.2174
365.8007	0.2187
366.0089	0.2242
366.217	0.2268
366.4252	0.2257
366.6333	0.2293
366.8415	0.2235
367.0496	0.2241
367.2577	0.226
367.4658	0.2244
367.6739	0.2214
367.882	0.2323
368.09	0.2214
368.2981	0.2319
368.5061	0.2341
368.7141	0.2285
368.9221	0.2462
369.1301	0.2261
369.3381	0.238
369.5461	0.2353
369.754	0.2351
369.962	0.2418
370.1699	0.2426
370.3778	0.2471
370.5857	0.2418
370.7936	0.2371
371.0015	0.2436
371.2093	0.2428
371.4172	0.2391
371.625	0.243
371.8328	0.2421
372.0406	0.2491
372.2484	0.2479
372.4562	0.2453
372.664	0.2517
372.8717	0.2402
373.0795	0.2515
373.2872	0.2503
373.4949	0.2542
373.7026	0.248
373.9103	0.2444
374.118	0.2521
374.3256	0.2575
374.5333	0.2505
374.7409	0.2447
374.9485	0.2467
375.1561	0.2525
375.3637	0.2462
375.5713	0.2574
375.7789	0.252
375.9864	0.2504
376.194	0.2591
376.4015	0.2508
376.609	0.2619
376.8165	0.2588
377.024	0.2552
377.2315	0.2646
377.4389	0.2563
377.6464	0.2651
377.8538	0.2505
378.0612	0.2647
378.2686	0.2627
378.476	0.2723
378.6834	0.2702
378.8908	0.2724
379.0981	0.2647
379.3055	0.2712
379.5128	0.2591
379.7201	0.2675
379.9274	0.2698
380.1347	0.2698
380.342	0.2676
380.5492	0.2683
380.7565	0.2646
380.9637	0.2727
381.1709	0.2691
381.3781	0.2693
381.5853	0.2683
381.7925	0.2815
381.9997	0.2755
382.2068	0.2803
382.4139	0.2702
382.6211	0.2781
382.8282	0.2715
383.0353	0.2747
383.2424	0.2728
383.4494	0.2758
383.6565	0.2757
383.8635	0.277
384.0706	0.2831
384.2776	0.2729
384.4846	0.2791
384.6916	0.2752
384.8986	0.2791
385.1055	0.277
385.3125	0.2864
385.5194	0.2809
385.7263	0.2769
385.9333	0.2827
386.1402	0.283
386.347	0.2752
386.5539	0.2749
386.7608	0.2769
386.9676	0.2875
387.1744	0.2781
387.3813	0.2825
387.5881	0.2803
387.7948	0.2845
388.0016	0.2808
388.2084	0.2764
388.4151	0.2693
388.6219	0.2703
388.8286	0.279
389.0353	0.2764
389.242	0.2714
389.4487	0.2767
389.6553	0.261
389.862	0.2663
390.0686	0.2805
390.2753	0.2769
390.4819	0.2822
390.6885	0.2742
390.8951	0.2752
391.1016	0.2679
391.3082	0.2748
391.5147	0.2707
391.7213	0.2711
391.9278	0.2595
392.1343	0.2745
392.3408	0.269
392.5473	0.2664
392.7537	0.2535
392.9602	0.2601
393.1666	0.2592
393.373	0.2611
393.5794	0.2576
393.7858	0.2638
393.9922	0.2551
394.1986	0.2537
394.4049	0.2489
394.6113	0.2494
394.8176	0.2462
395.0239	0.2378
395.2302	0.2557
395.4365	0.2514
395.6428	0.2527
395.8491	0.2419
396.0553	0.2438
396.2615	0.2441
396.4678	0.2469
396.674	0.2398
396.8802	0.2366
397.0863	0.2386
397.2925	0.243
397.4987	0.2428
397.7048	0.2439
397.9109	0.2452
398.117	0.2393
398.3231	0.2344
398.5292	0.2319
398.7353	0.2396
398.9413	0.2363
399.1474	0.2392
399.3534	0.2374
399.5594	0.2372
399.7654	0.2367
399.9714	0.2459
400.1774	0.2368
400.3833	0.2427
400.5893	0.2361
400.7952	0.2393
401.0011	0.2359
401.207	0.2364
401.4129	0.238
401.6188	0.2309
401.8247	0.2488
402.0305	0.2305
402.2364	0.24
402.4422	0.2343
402.648	0.2468
402.8538	0.2323
403.0596	0.2375
403.2654	0.2467
403.4711	0.235
403.6768	0.225
403.8826	0.2351
404.0883	0.2376
404.294	0.24
404.4997	0.2315
404.7054	0.2401
404.911	0.2382
405.1167	0.2419
405.3223	0.2377
405.5279	0.2331
405.7335	0.234
405.9391	0.2283
406.1447	0.244
406.3502	0.2289
406.5558	0.2427
406.7613	0.2378
406.9668	0.2307
407.1724	0.2291
407.3778	0.2358
407.5833	0.2329
407.7888	0.2406
407.9942	0.2344
408.1997	0.2397
408.4051	0.2356
408.6105	0.2395
408.8159	0.2316
409.0213	0.232
409.2267	0.2372
409.432	0.2337
409.6374	0.2489
409.8427	0.2427
410.048	0.2301
410.2533	0.2242
410.4586	0.2195
410.6639	0.2355
410.8691	0.2297
411.0744	0.2354
411.2796	0.2332
411.4848	0.243
411.69	0.2292
411.8952	0.2288
412.1004	0.2329
412.3056	0.2202
412.5107	0.2413
412.7158	0.2411
412.921	0.2227
413.1261	0.2298
413.3312	0.2384
413.5362	0.2413
413.7413	0.2275
413.9464	0.2225
414.1514	0.2284
414.3564	0.2249
414.5614	0.226
414.7664	0.2217
414.9714	0.2131
415.1764	0.2378
415.3813	0.2297
415.5863	0.2313
415.7912	0.234
415.9961	0.2281
416.201	0.2445
416.4059	0.228
416.6108	0.2345
416.8156	0.2174
417.0205	0.23
417.2253	0.2316
417.4301	0.2342
417.6349	0.227
417.8397	0.2343
418.0445	0.2193
418.2492	0.2185
418.454	0.2264
418.6587	0.2235
418.8634	0.2332
419.0681	0.227
419.2728	0.2187
419.4775	0.2331
419.6822	0.2126
419.8868	0.2223
420.0915	0.2163
420.2961	0.2138
420.5007	0.2254
420.7053	0.215
420.9099	0.2132
421.1144	0.2111
421.319	0.207
421.5235	0.2071
421.728	0.2201
421.9325	0.2188
422.137	0.2187
422.3415	0.2107
422.546	0.2068
422.7504	0.2067
422.9549	0.2169
423.1593	0.2039
423.3637	0.2117
423.5681	0.2068
423.7725	0.2117
423.9769	0.2088
424.1812	0.196
424.3856	0.1889
424.5899	0.2075
424.7942	0.194
424.9985	0.2024
425.2028	0.2074
425.4071	0.1999
425.6113	0.2008
425.8156	0.1982
426.0198	0.1912
426.224	0.2006
426.4282	0.1928
426.6324	0.1926
426.8366	0.1793
427.0407	0.1948
427.2449	0.1891
427.449	0.1932
427.6531	0.2024
427.8572	0.1859
428.0613	0.1926
428.2654	0.1983
428.4694	0.173
428.6735	0.179
428.8775	0.1774
429.0815	0.1819
429.2855	0.177
429.4895	0.1849
429.6935	0.1781
429.8975	0.1683
430.1014	0.1784
430.3053	0.1799
430.5093	0.1672
430.7132	0.1744
430.9171	0.1686
431.1209	0.1737
431.3248	0.1604
431.5286	0.1602
431.7325	0.1699
431.9363	0.1689
432.1401	0.154
432.3439	0.1609
432.5477	0.1485
432.7514	0.1487
432.9552	0.1536
433.1589	0.1581
433.3627	0.1561
433.5664	0.1466
433.7701	0.1546
433.9737	0.1451
434.1774	0.1535
434.3811	0.1446
434.5847	0.1461
434.7883	0.1439
434.9919	0.1397
435.1955	0.1423
435.3991	0.1425
435.6027	0.1344
435.8062	0.1458
436.0098	0.1378
436.2133	0.1268
436.4168	0.1311
436.6203	0.1264
436.8238	0.1277
437.0272	0.1205
437.2307	0.1252
437.4341	0.1289
437.6375	0.1246
437.841	0.1127
438.0443	0.1257
438.2477	0.1111
438.4511	0.0979
438.6545	0.1166
438.8578	0.1127
439.0611	0.116
439.2644	0.1173
439.4677	0.1124
439.671	0.1055
439.8743	0.1121
440.0775	0.1086
440.2808	0.1036
440.484	0.0973
440.6872	0.1026
440.8904	0.093
441.0936	0.0994
441.2967	0.0932
441.4999	0.0861
441.703	0.0901
441.9062	0.089
442.1093	0.0993
442.3124	0.0901
442.5155	0.0752
442.7185	0.0839
442.9216	0.0806
443.1246	0.0854
443.3276	0.083
443.5307	0.0727
443.7337	0.0831
443.9366	0.0797
444.1396	0.0768
444.3426	0.0749
444.5455	0.0738
444.7484	0.0746
444.9513	0.0776
445.1542	0.0761
445.3571	0.0729
445.56	0.0619
445.7628	0.075
445.9657	0.0768
446.1685	0.0696
446.3713	0.0676
446.5741	0.065
446.7769	0.0682
446.9797	0.064
447.1824	0.0635
447.3852	0.0492
447.5879	0.0533
447.7906	0.051
447.9933	0.0584
448.196	0.0512
448.3986	0.0484
448.6013	0.0526
448.8039	0.0613
449.0066	0.066
449.2092	0.0607
449.4118	0.0553
449.6143	0.0498
449.8169	0.0498
450.0195	0.0466
450.222	0.0518
450.4245	0.049
450.627	0.0444
450.8295	0.0448
451.032	0.0529
451.2345	0.042
451.4369	0.0506
451.6394	0.0455
451.8418	0.0344
452.0442	0.0427
452.2466	0.0379
452.449	0.0421
452.6513	0.0354
452.8537	0.0279
453.056	0.0429
453.2583	0.0351
453.4607	0.0321
453.663	0.0357
453.8652	0.0264
454.0675	0.046
454.2697	0.0314
454.472	0.0328
454.6742	0.0361
454.8764	0.0399
455.0786	0.0329
455.2808	0.0257
455.4829	0.0324
455.6851	0.0314
455.8872	0.0206
456.0893	0.0225
456.2915	0.0257
456.4935	0.0293
456.6956	0.0149
456.8977	0.0206
457.0997	0.0297
457.3018	0.0208
457.5038	0.0302
457.7058	0.0298
457.9078	0.0247
458.1098	0.0221
458.3117	0.0295
458.5137	0.0129
458.7156	0.0266
458.9175	0.0238
459.1194	0.0158
459.3213	0.0209
459.5232	0.0285
459.725	0.0205
459.9269	0.0295
460.1287	0.0216
460.3305	0.0254
460.5323	0.0197
460.7341	0.0257
460.9359	0.0241
461.1376	0.0212
461.3394	0.024
461.5411	0.0256
461.7428	0.0184
461.9445	0.0123
462.1462	0.0187
462.3479	0.0172
462.5495	0.0174
462.7512	0.0263
462.9528	0.0199
463.1544	0.0105
463.356	0.0106
463.5576	0.0192
463.7592	0.0235
463.9607	0.018
464.1623	0.0127
464.3638	0.0079
464.5653	0.0101
464.7668	0.0174
464.9683	0.0223
465.1697	0.0193
465.3712	0.0163
465.5726	0.0105
465.7741	0.0163
465.9755	0.0173
466.1769	0.0129
466.3782	0.0151
466.5796	0.0185
466.7809	0.0134
466.9823	0.0085
467.1836	0.0052
467.3849	0.0125
467.5862	0.0069
467.7875	0.0147
467.9887	0.018
468.19	0.0134
468.3912	0.0165
468.5924	0.0146
468.7936	0.0138
468.9948	0.0081
469.196	0.0183
469.3972	0.0063
469.5983	0.0067
469.7994	0.0155
470.0006	0.0098
470.2017	0.0114
470.4027	0.0324
470.6038	0.0078
470.8049	0.0094
471.0059	0.02
471.2069	0.014
471.408	0.0215
471.6089	0.0164
471.8099	0.0165
472.0109	0.017
472.2119	0.0181
472.4128	0.0063
472.6137	0.0192
472.8146	0.0146
473.0155	0.0242
473.2164	0.0149
473.4173	0.0001
473.6181	0.0033
473.819	0.0108
474.0198	0.0073
474.2206	0.0065
474.4214	0.0158
474.6222	0.0035
474.8229	0.007
475.0237	0.0186
475.2244	0.0144
475.4251	0.0067
475.6258	0.0065
475.8265	0.0104
476.0272	0.0089
476.2278	0.0149
476.4285	0.0012
476.6291	0.0161
476.8297	0.0139
477.0303	0.0027
477.2309	0.0135
477.4315	0.0135
477.632	0.0015
477.8326	0.0105
478.0331	0.0148
478.2336	0.0138
478.4341	0.0141
478.6346	0.0036
478.8351	0.007
479.0355	0.0113
479.236	0.0199
479.4364	0.0177
479.6368	0.0147
479.8372	0.0149
480.0376	0.0101
480.2379	0.0119
480.4383	0.0173
480.6386	0.0066
480.8389	0.0079
481.0392	0.0044
481.2395	0.0169
481.4398	0.0083
481.6401	0.014
481.8403	0.0048
482.0405	0.0049
482.2408	0.0111
482.441	0.0094
482.6411	0.0213
482.8413	0.0098
483.0415	0.0136
483.2416	0.0064
483.4417	0.0102
483.6419	0.0109
483.8419	0.0131
484.042	0.0064
484.2421	0.0066
484.4422	0.0052
484.6422	0.0056
484.8422	0.0166
485.0422	0.0054
485.2422	0.005
485.4422	0.0086
485.6422	0.0053
485.8421	0.0063
486.042	0.0145
486.242	0.0082
486.4419	0.0131
486.6417	0.0117
486.8416	0.0106
487.0415	0.005
487.2413	0.0081
487.4411	0.0102
487.641	0.008
487.8408	0.0144
488.0405	0.0178
488.2403	0.0096
488.4401	0.0083
488.6398	0.0108
488.8395	0.0102
489.0392	0.003
489.2389	0.0155
489.4386	0.0015
489.6383	0.0137
489.8379	0.003
490.0376	0.0111
490.2372	0.0092
490.4368	0.0069
490.6364	0.0049
490.836	0.0099
491.0355	0.0013
491.2351	0.0057
491.4346	0.0148
491.6341	0.0043
491.8336	0.0119
492.0331	0.0068
492.2326	0.0104
492.432	0.013
492.6315	0.0199
492.8309	0.0098
493.0303	0.008
493.2297	0.0148
493.4291	0.0041
493.6284	0.0208
493.8278	0.0088
494.0271	0.0126
494.2264	0.0071
494.4257	0.0027
494.625	0.0072
494.8243	0.0068
495.0236	0.0123
495.2228	0.0148
495.422	0.0148
495.6213	0.0116
495.8205	0.0136
496.0196	0.0043
496.2188	0.0078
496.418	0.0076
496.6171	0.0011
496.8162	0.0017
497.0153	0.0158
497.2144	0.0086
497.4135	0.0069
497.6126	0.0069
497.8116	0.0063
498.0107	0.0036
498.2097	0.0088
498.4087	0.0059
498.6077	0.0062
498.8067	0.0102
499.0056	0.0067
499.2046	0.0108
499.4035	0.0128
499.6024	-0.0004
499.8013	0.0115
500.0002	0.0089
500.199	0.0171
500.3979	0.0085
500.5967	0.0056
500.7956	0.0143
500.9944	0.0088
501.1932	0.0159
501.3919	0.0163
501.5907	0.0087
501.7895	0.003
501.9882	0.0104
502.1869	0.0161
502.3856	-0.0032
502.5843	0.0068
502.783	0.0099
502.9816	0.0146
503.1803	0.0114
503.3789	0.0147
503.5775	0.0056
503.7761	0.0096
503.9747	0.0112
504.1732	0.0018
504.3718	0.0128
504.5703	0.0142
504.7689	0.0082
504.9674	0.0047
505.1658	0.0085
505.3643	0.0113
505.5628	0.0134
505.7612	0.0135
505.9597	-0.0011
506.1581	0.0063
506.3565	0.0075
506.5549	0.0055
506.7532	0.0011
506.9516	0.0081
507.1499	0.0118
507.3482	0.0074
507.5465	0.0119
507.7448	0.0185
507.9431	0.012
508.1414	0.002
508.3396	0.0099
508.5379	0.0035
508.7361	0.011
508.9343	0.0216
509.1325	0.0158
509.3306	0.0101
509.5288	-0.0031
509.7269	0.0112
509.9251	0.0212
510.1232	0.0016
510.3213	0.0147
510.5193	0.0116
510.7174	0.0043
510.9154	0.022
511.1135	0.0044
511.3115	0.0113
511.5095	0.0106
511.7075	0.0105
511.9055	0.0151
512.1034	0.0092
512.3014	0.0017
512.4993	0.0186
512.6972	0.0063
512.8951	0.0106
513.093	0.0029
513.2908	0.0191
513.4887	0.0098
513.6865	0.0143
513.8844	0.0118
514.0822	0.0131
514.2799	0.0122
514.4777	0.0022
514.6755	0.0035
514.8732	0.0065
515.0709	0.0074
515.2687	0.0077
515.4664	0.0142
515.664	0.0166
515.8617	0.0152
516.0594	0.0137
516.257	0.0142
516.4546	0.014
516.6522	0.0232
516.8498	0.0057
517.0474	0.0089
517.2449	0.0103
517.4425	0.0171
517.64	0.0132
517.8375	0.0145
518.035	-0.0013
518.2325	0.009
518.43	0.0098
518.6274	0.0053
518.8249	0.0071
519.0223	0.016
519.2197	0.0112
519.4171	0.002
519.6145	0.0075
519.8118	0.0011
520.0092	0.0031
520.2065	0.0122
520.4038	0.0113
520.6011	0.0132
520.7984	0.0093
520.9956	0.0137
521.1929	0.0083
521.3901	0.0119
521.5874	0.0107
521.7846	0.0012
521.9818	0.0108
522.1789	-0.0049
522.3761	0.0242
522.5732	0.0015
522.7704	0.0029
522.9675	0.0045
523.1646	-0.0001
523.3617	0.0033
523.5587	0.0135
523.7558	0.0076
523.9528	0.0182
524.1498	0.0133
524.3468	0.0201
524.5438	0.0184
524.7408	0.0101
524.9378	0.0114
525.1347	0.0198
525.3316	0.011
525.5285	0.0057
525.7254	0.0149
525.9223	0.0262
526.1192	0.0127
526.316	0.012
526.5129	0.0134
526.7097	0.0066
526.9065	0.0097
527.1033	0.0156
527.3	0.0096
527.4968	0.0124
527.6935	0.0014
527.8903	0.011
528.087	0.0075
528.2837	0.0204
528.4804	0.0075
528.677	0.0132
528.8737	0.0093
529.0703	0.0083
529.2669	0.0097
529.4635	0.001
529.6601	-0.0019
529.8567	0.0036
530.0532	0.0075
530.2498	0.0097
530.4463	-0.0071
530.6428	0.0035
530.8393	0.0101
531.0358	0.005
531.2322	0.0002
531.4287	-0.0016
531.6251	-0.0058
531.8215	0.0035
532.0179	0.0091
532.2143	0.0068
532.4107	0.0219
532.607	0.001
532.8034	0.0109
532.9997	-0.0027
533.196	0.0037
533.3923	0.0087
533.5886	0.0033
533.7848	0.0072
533.9811	0.0133
534.1773	0.0007
534.3735	0.0141
534.5697	0.0057
534.7659	0.008
534.9621	0.0025
535.1582	0.0067
535.3544	0.0103
535.5505	0.0117
535.7466	0.0109
535.9427	0.0041
536.1387	0.006
536.3348	0.0074
536.5308	0.0118
536.7269	0.0026
536.9229	0.0113
537.1189	0.0188
537.3148	0.007
537.5108	0.0059
537.7068	0.0164
537.9027	0.0003
538.0986	0.0135
538.2945	-0.001
538.4904	0.0077
538.6863	0.0069
538.8821	0.0133
539.078	0.0155
539.2738	0.0125
539.4696	0.0051
539.6654	0.0069
539.8611	0.0153
540.0569	0.0162
540.2526	0.0036
540.4484	0.0024
540.6441	0.0074
540.8398	0.0197
541.0355	0.0038
541.2311	0.0083
541.4268	0.0188
541.6224	0.019
541.818	0.0183
542.0136	0.016
542.2092	0.0185
542.4048	0.0074
542.6003	0.0041
542.7959	0.0111
542.9914	0.0128
543.1869	0.0096
543.3824	0.0036
543.5779	0.0057
543.7734	0.021
543.9688	0.0114
544.1642	0.0029
544.3596	0.0048
544.555	0.0088
544.7504	0.0117
544.9458	0.0157
545.1411	0.0022
545.3365	0.0066
545.5318	0.02
545.7271	0.0153
545.9224	-0.0087
546.1177	0.0134
546.3129	0.01
546.5081	0.0052
546.7034	0.013
546.8986	0.0089
547.0938	0.0126
547.289	0.0145
547.4841	0.0162
547.6793	0.0089
547.8744	0.0121
548.0695	0.0016
548.2646	0.0089
548.4597	0.004
548.6548	0.0101
548.8498	0.017
549.0448	-0.0017
549.2399	0.0136
549.4349	0.0103
549.6298	0.0075
549.8248	0.0031
550.0198	0.0184
550.2147	0.0108
550.4096	0.0035
550.6045	0.0027
550.7994	0.0067
550.9943	0.0103
551.1892	-0.0075
551.384	0.0141
551.5788	0.0077
551.7737	0.0141
551.9685	0.0078
552.1632	0.0006
552.358	0.0108
552.5528	0.0086
552.7475	0.0129
552.9422	0.006
553.1369	0.0172
553.3316	0.0142
553.5263	0.0139
553.7209	0.0107
553.9156	0.0104
554.1102	0.0175
554.3048	-0.0077
554.4994	0.0069
554.694	0.0191
554.8885	0.0145
555.0831	0.0107
555.2776	0.0142
555.4721	0.0048
555.6666	0.004
555.8611	0.0154
556.0555	0.0148
556.25	0.0096
556.4444	0.0067
556.6388	0.011
556.8332	0.0052
557.0276	0.0053
557.222	0.01
557.4163	0.0065
557.6107	0.0107
557.805	0.0038
557.9993	0.007
558.1936	0.0096
558.3879	0.017
558.5821	0.0026
558.7764	0.0098
558.9706	0.0045
559.1648	0.0093
559.359	-0.0031
559.5532	0.0131
559.7473	0.0099
559.9415	0.0102
560.1356	0.0158
560.3297	0.001
560.5238	0.0105
560.7179	0.0025
560.9119	0.0042
561.106	0.0049
561.3	0.0096
561.494	0.0064
561.688	0.0021
561.882	0.006
562.076	0.005
562.2699	0.0097
562.4639	0.0204
562.6578	0.0113
562.8517	0.0127
563.0456	0.0101
563.2395	0.014
563.4333	0.0111
563.6272	0.0105
563.821	0.0123
564.0148	0.0093
564.2086	0.0129
564.4024	0.0121
564.5961	0.0148
564.7899	0.0164
564.9836	0.002
565.1773	0.0123
565.371	0.012
565.5647	0.0146
565.7584	0.0153
565.952	0.0111
566.1456	0.0077
566.3393	0.0143
566.5329	0.0127
566.7264	0.0205
566.92	0.002
567.1136	0.0025
567.3071	-0.0036
567.5006	0.0122
567.6941	0.0084
567.8876	0.0008
568.0811	0.0223
568.2745	0.0054
568.468	0.0116
568.6614	0.0148
568.8548	0.005
569.0482	0.0147
569.2416	0.006
569.4349	0.0085
569.6283	0.0072
569.8216	0.0118
570.0149	0.0081
570.2082	0.0162
570.4015	0.0151
570.5947	0.0058
570.788	0.01
570.9812	0.0016
571.1744	0.01
571.3676	0.0074
571.5608	0.008
571.754	0.0196
571.9471	0.0146
572.1402	0.0092
572.3333	0.0072
572.5264	0.0097
572.7195	0.0099
572.9126	0.0063
573.1057	0.0101
573.2987	0.0085
573.4917	0.0024
573.6847	0.0042
573.8777	0.0108
574.0707	0.0084
574.2636	0.0114
574.4566	0.0049
574.6495	0.0077
574.8424	0.0163
575.0353	0.0102
575.2281	0.0085
575.421	0.0085
575.6138	0.0077
575.8067	0.011
575.9995	0.0058
576.1923	0.0101
576.385	0.01
576.5778	0.0089
576.7706	0.0073
576.9633	0.0107
577.156	0.004
577.3487	0.0034
577.5414	0.0057
577.734	0.0066
577.9267	0.0062
578.1193	0.0097
578.3119	0.0063
578.5045	0.0097
578.6971	0.007
578.8897	0.0031
579.0822	0.0112
579.2747	0.0077
579.4673	0.0108
579.6598	0.0145
579.8522	0.0082
580.0447	0.0105
580.2372	0.0133
580.4296	0.0108
580.622	0.0045
580.8144	0.0096
581.0068	0.0055
581.1992	0.0086
581.3915	0.0013
581.5839	0.0078
581.7762	0.008
581.9685	0.0071
582.1608	0.0044
582.353	0.0084
582.5453	0.0079
582.7375	0.0091
582.9298	0.0025
583.122	0.0065
583.3142	0.0179
583.5063	0.0088
583.6985	0.0092
583.8906	0.0036
584.0827	0.0114
584.2749	0.006
584.4669	0.0057
584.659	0.0096
584.8511	0.0125
585.0431	0.0107
585.2352	0.0076
585.4272	0.012
585.6192	0.0097
585.8111	0.0054
586.0031	0.0075
586.195	0.0063
586.387	0.0055
586.5789	0.0119
586.7708	0.0122
586.9627	0.0072
587.1545	0.0045
587.3464	0.0089
587.5382	0.0068
587.73	0.0117
587.9218	0.0045
588.1136	0.0037
588.3053	0.0133
588.4971	0.0069
588.6888	0.0049
588.8805	0.006
589.0722	0.0134
589.2639	0.0138
589.4556	0.0089
589.6472	0.0115
589.8389	0.0079
590.0305	0.0097
590.2221	0.0148
590.4137	0.0105
590.6052	0.0103
590.7968	0.0078
590.9883	0.0043
591.1798	0.008
591.3713	0.0083
591.5628	0.0076
591.7543	0.0085
591.9458	0.0012
592.1372	0.0104
592.3286	0.0056
592.52	0.0104
592.7114	0.0079
592.9028	0.0114
593.0941	0.007
593.2855	0.0038
593.4768	0.0145
593.6681	0.0099
593.8594	0.0058
594.0506	0.0113
594.2419	0.0109
594.4331	0.0119
594.6244	0.0002
594.8156	0.0096
595.0067	0.0026
595.1979	0.0049
595.3891	0.0148
595.5802	0.0167
595.7713	0.0136
595.9624	0.0113
596.1535	0.0095
596.3446	0.0051
596.5357	0.0102
596.7267	0.0064
596.9177	0.0061
597.1087	0.0027
597.2997	0.0099
597.4907	0.0065
597.6817	0.0098
597.8726	0.011
598.0635	0.0022
598.2544	0.0184
598.4453	0.0042
598.6362	0.0094
598.827	0.0085
599.0179	0.0056
599.2087	0.0169
599.3995	0.011
599.5903	0.0118
599.7811	0.0155
599.9718	0.0058
600.1626	0.0009
600.3533	0.0079
600.544	0.0049
600.7347	0.0079
600.9254	0.0117
601.116	0.0053
601.3067	0.0096
601.4973	0.0099
601.6879	0.0075
601.8785	0.0103
602.0691	0.0088
602.2596	0.0168
602.4502	0.0102
602.6407	0.0139
602.8312	0.011
603.0217	0.0068
603.2122	0.0072
603.4027	0.0131
603.5931	0.0021
603.7835	0.0113
603.9739	0.0042
604.1643	0.0093
604.3547	0.0082
604.5451	0.0057
604.7354	0.011
604.9257	0.0097
605.116	0.0026
605.3063	0.0123
605.4966	0.0088
605.6869	0.0139
605.8771	0.0071
606.0673	0.0049
606.2575	0.0094
606.4477	0.0127
606.6379	0.0069
606.8281	0.0115
607.0182	0.0088
607.2083	0.0081
607.3985	0.0102
607.5885	0.0058
607.7786	0.0059
607.9687	0.012
608.1587	0.0074
608.3488	0.0089
608.5388	0.0052
608.7288	0.0045
608.9187	0.0087
609.1087	0.0146
609.2986	0.0156
609.4886	0.001
609.6785	0.0061
609.8684	0.0029
610.0582	0.0098
610.2481	-0.0012
610.4379	0.0095
610.6278	0.0033
610.8176	0.011
611.0074	0.0087
611.1971	0.0122
611.3869	0.0088
611.5766	0.0011
611.7664	0.0069
611.9561	0.0109
612.1458	0.0067
612.3354	0.0109
612.5251	0.0021
612.7147	0.0117
612.9044	0.0047
613.094	0.0084
613.2836	0.0009
613.4731	0.0046
613.6627	0.0097
613.8522	0.0141
614.0417	0.0127
614.2313	0.0069
614.4207	0.0143
614.6102	0.0128
614.7997	0.009
614.9891	0.0117
615.1785	0.0024
615.3679	0.0106
615.5573	0.012
615.7467	0.0069
615.9361	0.0112
616.1254	0.0104
616.3147	0.0114
616.504	0.0073
616.6933	0.0013
616.8826	0.0091
617.0718	0.0078
617.2611	0.0047
617.4503	0.0081
617.6395	0.0052
617.8287	0.011
618.0179	0.005
618.207	0.0099
618.3961	0.0067
618.5853	0.0047
618.7744	0.0096
618.9634	0.0153
619.1525	0.0037
619.3416	0.0019
619.5306	0.0122
619.7196	0.0138
619.9086	0.0099
620.0976	-0.0013
620.2866	0.0156
620.4755	0.0095
620.6645	0.0189
620.8534	0.0175
621.0423	0.0083
621.2312	0.0112
621.42	0.0034
621.6089	0.0044
621.7977	0.0113
621.9865	0.0041
622.1753	-0.0012
622.3641	-0.0089
622.5529	0.0001
622.7416	0.0124
622.9303	0.0051
623.1191	0.0004
623.3078	0.0043
623.4964	0.0135
623.6851	0.0014
623.8737	0.0056
624.0624	-0.007
624.251	0.0093
624.4396	0.0115
624.6282	0.0239
624.8167	0.0148
625.0053	0.0165
625.1938	0.0099
625.3823	0.01
625.5708	0.0079
625.7593	-0.0051
625.9477	0.0081
626.1362	0.0011
626.3246	0.0085
626.513	0.0101
626.7014	0.0164
626.8898	0.0159
627.0781	0.0168
627.2665	0.0117
627.4548	0.0016
627.6431	0.0159
627.8314	0.0156
628.0197	0.0237
628.2079	0.0114
628.3962	0.0157
628.5844	0.0167
628.7726	0.0054
628.9608	0.0059
629.1489	0.0115
629.3371	-0.0115
629.5252	0.0143
629.7134	-0.0055
629.9015	0.0182
630.0895	-0.0035
630.2776	0.0139
630.4657	0.0096
630.6537	0.0177
630.8417	0.0003
631.0297	0.0207
631.2177	0.0148
631.4057	0.0028
631.5936	0.0114
631.7815	0.0116
631.9695	0.0244
632.1574	0.0119
632.3452	0.0223
632.5331	0.0109
632.7209	0.029
632.9088	0.0024
633.0966	0.0175
633.2844	0.0158
633.4722	0.008
633.6599	0.0216
633.8477	0.0113
634.0354	0.0042
634.2231	-0.0115
634.4108	0.0073
634.5985	0.0041
634.7861	-0.0028
634.9738	-0.0073
635.1614	-0.002
635.349	0.009
635.5366	0.0202
635.7242	0.0059
635.9117	0.0109
636.0993	0.0113
636.2868	-0.0097
636.4743	0.0261
636.6618	-0.0114
636.8492	0.0029
637.0367	-0.0144
637.2241	0.0035
637.4115	0.0281
637.5989	0.0005
637.7863	0.0259
637.9737	-0.0027
638.161	0.0075
638.3484	-0.0161
638.5357	-0.0031
638.723	0.0141
638.9103	-0.0153
639.0975	0.0214
639.2848	-0.003
639.472	0.0129
639.6592	-0.008
639.8464	0.0015
640.0336	-0.0027
640.2208	0.0093
640.4079	-0.0002
640.595	-0.0043
640.7821	0.0188
640.9692	0.0019
641.1563	0.0122
641.3434	0.0145
641.5304	0.0152
641.7174	0.0181
641.9044	0.012
642.0914	0.0363
642.2784	0.004
642.4653	-0.0052
642.6523	0.0121
642.8392	-0.0068
643.0261	0.0084
643.213	0.0111
643.3999	0.0066
643.5867	0.0245
643.7735	-0.0055
643.9604	-0.0007
644.1472	0.0048
644.3339	0.0119
644.5207	-0.0007
644.7075	0.0128
644.8942	-0.0054
645.0809	0.0014
645.2676	-0.0104
645.4543	-0.0029
645.6409	0.0169
645.8276	0.016
646.0142	0.0019
646.2008	-0.0038
646.3874	-0.005
646.574	0.0133
646.7605	0.0065
646.9471	0.0028
647.1336	-0.0187
647.3201	0.0106
647.5066	0.0082
647.6931	-0.001
647.8795	0.0107
648.0659	0.0119
648.2524	0.0273
648.4388	0.0138
648.6252	0.0211
648.8115	0.0098
648.9979	0.0007
649.1842	0.0182
649.3705	0.0221
649.5568	-0.005
649.7431	0.0067
649.9294	-0.0041
650.1156	-0.0075
650.3018	0.0041
650.488	0.0108
650.6742	0.0022
650.8604	-0.0003
651.0466	-0.0039
651.2327	0.0083
651.4188	-0.012
651.6049	0.0306
651.791	0.0037
651.9771	0.0075
652.1632	0.017
652.3492	-0.0029
652.5352	0.0232
652.7212	0.0153
652.9072	-0.0073
653.0932	0.0143
653.2791	0.0063
653.465	0.0118
653.651	0.0102
653.8369	0.0033
654.0227	-0.0017
654.2086	0.0226
654.3944	0.0157
654.5803	0.0086
654.7661	0.0029
654.9519	0.0006
655.1377	-0.0001
655.3234	-0.0001
655.5092	-0.0001
655.6949	-0.0001
655.8806	-0.0001
656.0663	-0.0001
656.2519	-0.0001
656.4376	-0.0001
656.6232	-0.0001
656.8088	-0.0001
656.9945	-0.0001
657.18	-0.0001
657.3656	-0.0001
657.5511	-0.0001
657.7367	-0.0001
657.9222	-0.0001
658.1077	-0.0001
658.2932	-0.0001
658.4786	-0.0001
658.6641	-0.0001
658.8495	-0.0001
659.0349	-0.0001
659.2203	-0.0001
659.4057	0.0052
659.591	0.2797
659.7764	0.04
659.9617	0.017
660.147	0.0173
660.3323	0.0095
660.5176	-0.0022
660.7028	-0.0047
660.888	0.0055
661.0733	0.0258
661.2585	-0.0078
661.4436	0.0056
661.6288	0.0079
661.8139	0.0127
661.9991	-0.0099
662.1842	-0
662.3693	0.0158
662.5544	-0.0039
662.7394	0.0212
662.9245	0.0013
663.1095	-0.0183
663.2945	0.0059
663.4795	-0.0076
663.6644	-0.0061
663.8494	0.0202
664.0343	0.0201
664.2193	-0.0094
664.4042	0.0057
664.589	0.0193
664.7739	0.0195
664.9587	-0.004
665.1436	-0.0058
665.3284	-0.0028
665.5132	-0.0035
665.698	-0.0073
665.8827	0.0296
666.0675	-0.0069
666.2522	0.0225
666.4369	-0.0065
666.6216	-0.0034
666.8063	-0.0064
666.9909	-0.0057
667.1756	-0.0082
667.3602	-0.0136
667.5448	0.0122
667.7294	0.0074
667.9139	0.0059
668.0985	0.003
668.283	0.0017
668.4675	-0.0007
668.652	0.0019
668.8365	0.0141
669.0209	0.0032
669.2054	0.0313
669.3898	0.0138
669.5742	0.0246
669.7586	0.0156
669.943	0.0114
670.1273	0.0028
670.3117	0.008
670.496	0.0123
670.6803	-0.0093
670.8646	-0.0162
671.0488	0.0262
671.2331	-0.0239
671.4173	0.0028
671.6015	0.0143
671.7857	0.0193
671.9699	0.0151
672.1541	-0.0041
672.3382	-0.0086
672.5223	-0.0074
672.7064	0.0037
672.8905	-0.0189
673.0746	0.002
673.2587	0.0273
673.4427	-0.003
673.6267	0.0217
673.8107	0.0005
673.9947	0.0199
674.1787	0.0192
674.3626	-0.0084
674.5465	0.0251
674.7304	0.0075
674.9143	-0.0032
675.0982	0.0046
675.2821	0.0179
675.4659	-0.0022
675.6497	0.0097
675.8335	0.0033
676.0173	0.0093
676.2011	0.0042
676.3849	0.0154
676.5686	0.0322
676.7523	-0.0023
676.936	0.0147
677.1197	-0.0003
677.3034	0.0487
677.487	0.0051
677.6706	0.011
677.8542	0.0266
678.0378	0.0016
678.2214	0.0072
678.405	-0.0107
678.5885	0.0051
678.772	0.0024
678.9555	0.0078
679.139	0.0137
679.3225	0.008
679.5059	-0.0021
679.6894	0.0038
679.8728	0.0053
680.0562	-0.0116
680.2395	0.0161
680.4229	0.0042
680.6062	0.0185
680.7896	-0.0061
680.9729	0.0135
681.1562	-0.0016
681.3394	-0.0153
681.5227	0.0092
681.7059	0.011
681.8891	0.0067
682.0723	-0.0091
682.2555	0.012
682.4387	0.0045
682.6218	0.0207
682.805	0.0151
682.9881	0.0254
683.1712	0.0116
683.3542	0.014
683.5373	-0.0115
683.7203	0.0103
683.9034	-0.0096
684.0864	0.0033
684.2694	0.009
684.4523	0.0114
684.6353	-0.0024
684.8182	-0.0047
685.0011	0.0112
685.184	0.0078
685.3669	0.0177
685.5498	0.0105
685.7326	0.0112
685.9154	0.0056
686.0982	0.0228
686.281	0.0066
686.4638	0.016
686.6465	-0.0031
686.8293	-0.0112
687.012	0.0053
687.1947	0.013
687.3774	0.0232
687.56	-0.0053
687.7427	-0.0019
687.9253	-0.0158
688.1079	0.0162
688.2905	-0.0033
688.4731	0.0089
688.6556	-0.0125
688.8382	-0.0177
689.0207	0.0145
689.2032	-0
689.3857	-0.0058
689.5681	-0.0093
689.7506	0.0207
689.933	-0.0025
690.1154	0.0348
690.2978	0.0178
690.4802	0.0099
690.6626	0.0089
690.8449	0.0179
691.0272	-0.0137
691.2095	-0.0188
691.3918	0.0157
691.5741	0.0045
691.7563	0.0298
691.9386	0.027
692.1208	0.0059
692.303	-0.0153
692.4852	0.0052
692.6673	0.0159
692.8495	-0.0049
693.0316	0.0058
693.2137	0.0133
693.3958	0.0144
693.5778	0.008
693.7599	0.002
693.9419	-0.0062
694.1239	-0.0122
694.3059	0.0127
694.4879	0.0009
694.6699	-0.012
694.8518	0.02
695.0337	0.0071
695.2157	0.0194
695.3975	0.0252
695.5794	-0.0277
695.7613	0.0072
695.9431	-0.0067
696.1249	0.0127
696.3067	0.001
696.4885	0.0102
696.6703	0.003
696.852	-0.0064
697.0337	0.0206
697.2154	0.0163
697.3971	0.0045
697.5788	0.0065
697.7605	0.0085
697.9421	0.0334
698.1237	0.022
698.3053	-0.0003
698.4869	0.0154
698.6685	0.0075
698.85	0.0117
699.0315	-0.0138
699.213	0.0181
699.3945	0.0194
699.576	0.0408
699.7575	0.0129
699.9389	0.0015
700.1203	0.0068
700.3017	0.025
700.4831	0.0251
700.6645	0.0203
700.8458	-0.0087
701.0271	0.0317
701.2084	0.0043
701.3897	-0.0114
701.571	-0.0086
701.7523	0.0052
701.9335	0.017
702.1147	0.0291
702.2959	0.0297
702.4771	0.0133
702.6583	0.0128
702.8394	-0.0208
703.0205	0.0314
703.2016	-0.0004
703.3827	-0.0054
703.5638	0.0022
703.7449	0.0174
703.9259	0.0162
704.1069	-0.0278
704.2879	0.0237
704.4689	-0.0391
704.6499	0.041
704.8308	0.017
705.0117	0.0097
705.1927	0.0358
705.3735	0.0514
705.5544	0.0141
705.7353	-0.0132
705.9161	-0.0019
706.0969	0.0209
706.2777	0.0326
706.4585	-0.0033
706.6393	0.0299
706.82	0.0061
707.0007	-0.0026
707.1815	0.0046
707.3621	0.0135
707.5428	0.0189
707.7235	0.0141
707.9041	0.0005
708.0847	0.0031
708.2653	0.0187
708.4459	0.0111
708.6265	-0.0054
708.807	0.0281
708.9875	0.0194
709.168	-0.0153
709.3485	0.0271
709.529	0.0064
709.7095	-0.0089
709.8899	-0.0013
710.0703	0.0177
710.2507	-0.0028
710.4311	-0.0172
710.6115	0.0199
710.7918	0.0492
710.9721	0.0324
711.1524	-0.0156
711.3327	-0.0016
711.513	0.0056
711.6932	0.0029
711.8735	0.0343
712.0537	-0.0041
712.2339	0.0164
712.4141	0.0266
712.5942	-0.0269
712.7744	0.0234
712.9545	0.008
713.1346	0.029
713.3147	0.0028
713.4947	0.0061
713.6748	0.0134
713.8548	0.027
714.0348	0.0258
714.2148	0.0003
714.3948	0.0166
714.5748	0.0103
714.7547	0.0289
714.9346	0.0128
715.1145	0.0259
715.2944	-0.0052
715.4743	0.0201
715.6541	-0.0035
715.834	0.0092
716.0138	-0.0038
716.1936	0.0058
716.3733	-0.003
716.5531	0.0097
716.7328	0.0174
716.9126	-0.005
717.0923	-0.0412
717.2719	0.0031
717.4516	0.0148
717.6312	-0.004
717.8109	0.0345
717.9905	-0
718.1701	0.0214
718.3496	0.0039
718.5292	-0.0123
718.7087	-0.0015
718.8882	0.0228
719.0677	-0.0011
719.2472	-0.004
719.4267	0.0078
719.6061	-0.0282
719.7856	0.0367
719.965	0.0085
720.1443	-0.015
720.3237	-0.0098
720.5031	0.0227
720.6824	0.0186
720.8617	0.023
721.041	0.0298
721.2203	0.0057
721.3995	0.0096
721.5788	0.0008
721.758	0.0025
721.9372	-0.006
722.1164	-0.0098
722.2956	0.0304
722.4747	0.0013
722.6538	0.0093
722.8329	0.0395
723.012	0.0025
723.1911	0.0194
723.3702	0.0125
723.5492	-0.0047
723.7282	-0.021
723.9072	0.016
724.0862	0.0058
724.2652	0.0174
724.4441	-0.0041
724.623	0.0117
724.8019	0.009
724.9808	-0.0055
725.1597	0.0173
725.3385	0.0106
725.5174	0.0013
725.6962	0.0266
725.875	-0.0033
726.0538	0.0334
726.2325	0.0138
726.4112	-0.0082
726.59	-0.0023
726.7687	-0.0021
726.9474	0.0358
727.126	0.0396
727.3047	-0.0204
727.4833	0.0072
727.6619	-0.0011
727.8405	-0.0075
728.0191	0.0169
728.1976	0.0225
728.3762	0.0127
728.5547	0.0103
728.7332	0.0415
728.9116	-0.0074
729.0901	0.0073
729.2686	-0.0167
729.447	-0.0088
729.6254	0.0147
729.8038	0.0047
729.9821	-0.006
730.1605	0.0066
730.3388	0.0031
730.5171	0.0112
730.6954	-0.0113
730.8737	-0.0003
731.0519	-0.0086
731.2302	0.0239
731.4084	0.0186
731.5866	-0.0145
731.7648	0.0211
731.9429	0.0138
732.1211	-0.0003
732.2992	0.0096
732.4773	0.008
732.6554	-0.0175
732.8335	0.0348
733.0115	0.0365
733.1896	-0.0145
733.3676	-0.0014
733.5456	0.0309
733.7235	-0.0025
733.9015	0.0068
734.0794	-0.0007
734.2574	0.0093
734.4353	0.0219
734.6131	0.0019
734.791	0.0293
734.9689	-0.0208
735.1467	0.0123
735.3245	0.02
735.5023	0.0134
735.68	0.0091
735.8578	0.0268
736.0355	0.0212
736.2132	0.0295
736.3909	0.0024
736.5686	0.0032
736.7463	-0.0089
736.9239	0.012
737.1015	0.0083
737.2791	0.0106
737.4567	0.0169
737.6343	-0.0057
737.8118	0.0279
737.9894	0.0164
738.1669	0.0169
738.3444	0.0305
738.5218	-0.0115
738.6993	0.0297
738.8767	-0.0057
739.0541	0.0002
739.2315	-0.0079
739.4089	0.0229
739.5863	-0.0079
739.7636	0.0256
739.9409	0.0099
740.1182	0.005
740.2955	0.0215
740.4728	-0.0228
740.65	-0.0129
740.8272	0.0411
741.0044	0.0021
741.1816	0.0036
741.3588	0.0027
741.5359	0.002
741.7131	-0
741.8902	0.01
742.0673	-0.0326
742.2444	0.0422
742.4214	0.0177
742.5985	-0.0243
742.7755	-0
742.9525	-0.0373
743.1295	-0.0274
743.3064	0.0286
743.4834	0.0213
743.6603	0.0406
743.8372	-0.0477
744.0141	0.0165
744.191	0.0085
744.3678	-0.0234
744.5446	0.0142
744.7215	0.0009
744.8982	0.0121
745.075	0.0563
745.2518	-0.0005
745.4285	0.0228
745.6052	-0.0253
745.7819	0.0061
745.9586	-0.0009
746.1353	-0.0121
746.3119	-0.0139
746.4885	0.0547
746.6651	0.0034
746.8417	0.008
747.0183	0.0258
747.1948	-0.0056
747.3714	-0.0052
747.5479	0.0175
747.7244	-0.0068
747.9008	0.0033
748.0773	0.0262
748.2537	0.0168
748.4301	0.0541
748.6065	0.0128
748.7829	-0.0208
748.9593	-0.0121
749.1356	0.0143
749.3119	0.0057
749.4882	0.0168
749.6645	0.0147
749.8408	0.0152
750.017	0.028
750.1933	-0.0143
750.3695	0.0146
750.5457	-0.0212
750.7218	-0.0079
750.898	-0.0087
751.0741	-0.0117
751.2502	0.0137
751.4263	0.0044
751.6024	0.0108
751.7784	0.0003
751.9545	0.0173
752.1305	-0.0083
752.3065	0.0162
752.4825	-0.0032
752.6584	0.0163
752.8344	0.01
753.0103	0.0054
753.1862	0.0184
753.3621	-0.0013
753.5379	0.0023
753.7138	0.0109
753.8896	0.011
754.0654	-0.0048
754.2412	0.0147
754.417	0.005
754.5927	0.0013
754.7685	-0.0131
754.9442	0.0214
755.1199	0.0026
755.2956	0.0108
755.4712	0.0096
755.6469	-0.006
755.8225	0.0067
755.9981	0.025
756.1736	0.0109
756.3492	0.0143
756.5248	0.0249
756.7003	-0.004
756.8758	-0.0024
757.0513	0.0089
757.2267	0.0116
757.4022	0.0024
757.5776	-0.0002
757.753	0.0163
757.9284	0.0167
758.1038	0.0161
758.2791	-0.0077
758.4545	-0.0055
758.6298	0.0021
758.8051	0.005
758.9803	0.0113
759.1556	-0.0032
759.3308	0.0025
759.506	0.0062
759.6812	0.0104
759.8564	-0.0089
760.0316	-0.0043
760.2067	0.0208
760.3819	0.0126
760.557	0.0211
760.732	-0.0029
760.9071	0.0199
761.0821	-0.0102
761.2572	0.0047
761.4322	0.0141
761.6072	0.0082
761.7821	-0.0198
761.9571	0.0127
762.132	0.023
762.3069	0.0192
762.4818	0.0178
762.6567	-0
762.8316	0.0112
763.0064	0.0101
763.1812	-0.0053
763.356	0.0031
763.5308	0.0343
763.7055	0.0043
763.8803	-0.0097
764.055	0.0077
764.2297	-0.0026
764.4044	-0.0068
764.579	0.0002
764.7537	0.0007
764.9283	0.0073
765.1029	0.0192
765.2775	0.011
765.4521	-0.0109
765.6266	0.0273
765.8011	0.0075
765.9756	0.0069
766.1501	0.0089
766.3246	0.0114
766.4991	-0.0053
766.6735	0.0194
766.8479	0.0151
767.0223	0.006
767.1967	0.0108
767.371	0.0189
767.5454	0.0089
767.7197	0.0344
767.894	0.0065
768.0683	0.0127
768.2425	0.0282
768.4168	0.0257
768.591	0.0063
768.7652	-0.0015
768.9394	-0.0165
769.1135	-0.0124
769.2877	0.0302
769.4618	0.044
769.6359	0.005
769.81	-0.0073
769.984	-0.0075
770.1581	0.0079
770.3321	0.0254
770.5061	0.016
770.6801	0.0194
770.8541	0.0055
771.028	0.0449
771.202	0.0245
771.3759	0.0149
771.5498	0.038
771.7236	0.0108
771.8975	0.0036
772.0713	0.0139
772.2451	-0.0168
772.4189	0.0455
772.5927	-0.0112
772.7665	0.0142
772.9402	0.0132
773.1139	-0.012
773.2876	-0.0066
773.4613	0.0201
773.635	0.0396
773.8086	0.0272
773.9822	0.0202
774.1558	0.0447
774.3294	-0.0187
774.503	0.0241
774.6765	0.0166
774.8501	-0.0239
775.0236	0.0135
775.1971	0.0235
775.3705	-0.0131
775.544	-0.0076
775.7174	0.0049
775.8908	0.0026
776.0642	0.0279
776.2376	0.0248
776.4109	-0.0234
776.5843	-0.0027
776.7576	0.0119
776.9309	0.0346
777.1041	-0.0001
777.2774	0.0016
777.4506	0.0192
777.6238	-0.0113
777.797	-0.0056
777.9702	-0.004
778.1434	0.003
778.3165	-0.0068
778.4896	-0.0315
778.6627	0.0149
778.8358	-0.0098
779.0089	-0.0335
779.1819	0.0317
779.3549	0.0029
779.5279	-0.0103
779.7009	0.0356
779.8739	0.0443
780.0468	0.0063
780.2197	-0.0125
780.3926	-0.0205
780.5655	-0.0086
780.7384	-0.0182
780.9112	0.0255
781.0841	0.0131
781.2569	0.01
781.4297	-0.0005
781.6024	0.0291
781.7752	0.0415
781.9479	0.0406
782.1206	-0.0192
782.2933	0.0329
782.466	0.0179
782.6386	-0.0102
782.8113	0.0023
782.9839	-0.0111
783.1565	0.0331
783.329	0.0011
783.5016	0.0216
783.6741	0.0012
783.8466	0.0308
784.0191	0.0061
784.1916	-0.0253
784.3641	-0.0118
784.5365	0.0099
784.7089	0.0041
784.8813	0.0467
785.0537	0.0153
785.2261	0.015
785.3984	0.0329
785.5707	-0.0382
785.743	0.0513
785.9153	-0.0124
786.0876	-0.0323
786.2598	-0.0183
786.432	0.0097
786.6042	0.0184
786.7764	0.0245
786.9486	0.0027
787.1207	0.0346
787.2928	0.0213
787.4649	-0.0077
787.637	0.0186
787.8091	-0.0239
787.9811	0.0349
788.1532	-0.0163
788.3252	-0.0058
788.4972	0.0066
788.6691	-0.0256
788.8411	-0.0263
789.013	0.0069
789.1849	-0.0133
789.3568	0.0127
789.5287	0.0298
789.7005	-0.0177
789.8723	0.0018
790.0442	-0.0698
790.2159	0.0168
790.3877	0.0488
790.5595	-0.0555
790.7312	0.0131
790.9029	-0.026
791.0746	0.0328
791.2463	-0.0315
791.4179	0.0138
791.5896	0.0499
791.7612	0.0703
791.9328	-0.0405
792.1044	0.0379
792.2759	-0.0569
792.4474	-0.0047
792.619	0.0033
792.7905	-0.0035
792.9619	0.0366
793.1334	0.0191
793.3048	0.0532
793.4762	0.0084
793.6476	-0.0713
793.819	0.0197
793.9904	-0.031
794.1617	-0.0254
794.333	0.0123
794.5043	0.0017
794.6756	0.0034
794.8469	0.0092
795.0181	0.0485
795.1893	0.0343
795.3605	0.0463
795.5317	-0.0417
795.7029	0.0042
795.874	-0.0593
796.0452	0.0207
796.2163	0.0529
796.3873	0.0825
796.5584	-0.0159
796.7294	0.0212
796.9005	-0.0312
797.0715	0.0343
797.2425	0.0479
797.4134	0.0446
797.5844	-0.0038
797.7553	-0.0399
797.9262	0.0361
798.0971	-0.0022
798.2679	-0.0167
798.4388	-0.0046
798.6096	0.0223
798.7804	0.0048
798.9512	0.0226
799.122	-0.0262
799.2927	0.0135
799.4635	-0.0661
799.6342	-0.0732
799.8049	0.0347
799.9755	-0.0359
800.1462	-0.0379
800.3168	-0.0378
800.4874	-0.1479
800.658	0.0357
800.8286	0.0237
800.9991	0.102
801.1696	-0.0158
801.3402	-0.0458
801.5106	-0.1092
801.6811	-0.0089
801.8516	0.0635
802.022	0.0803
802.1924	0.0345
802.3628	0.063
802.5332	-0.0199
802.7035	-0.0048
802.8739	-0.0497
803.0442	-0.0594
803.2145	-0.0209
803.3847	-0.0257
803.555	0.0364
803.7252	-0.0456
803.8954	-0.0453
804.0656	-0.0473
804.2358	-0.0627
804.4059	0.0703
804.5761	0.0628
804.7462	0.0033
804.9163	0.0393
805.0864	0.0051
805.2564	0.0172
805.4264	0.0598
805.5965	0.0817
805.7665	-0.0904
805.9364	-0.0078
806.1064	-0.0105
806.2763	0.0322
806.4462	-0.0208
806.6161	0.0169
806.786	0.0039
806.9559	-0.0078
807.1257	0.0249
807.2955	-0.0253
807.4653	0.0095
807.6351	-0.0262
807.8048	-0.0109
807.9746	0.0416
808.1443	-0.0015
808.314	0.019
808.4837	0.0431
808.6533	-0.0558
808.8229	0.0623
808.9926	-0.0015
809.1622	-0.0251
809.3317	-0.1036
809.5013	-0.0233
809.6708	-0.0051
809.8403	0.0163
810.0098	0.0052
810.1793	-0.0363
810.3488	-0.0227
810.5182	0.1103
810.6876	0.0554
810.857	0.0391
811.0264	-0.1279
811.1958	0.0838
811.3651	0.0141
811.5344	0.1243
811.7037	0.1166
811.873	0.0551
812.0422	-0.0652
812.2115	0.0677
812.3807	-0.168
812.5499	0.0377
812.7191	-0.2277
812.8882	-0.1005
813.0574	-0.0808
813.2265	0.0221
813.3956	-0.0145
813.5646	0.0328
813.7337	0.0107
813.9027	0.023
814.0718	0.07
814.2407	-0.0515
814.4097	0.1074
814.5787	0.1279
814.7476	-0.0088
814.9165	0.0924
815.0854	-0.045
815.2543	-0.0274
815.4232	0.0803
815.592	-0.0545
815.7608	-0.1102
815.9296	-0.0552
816.0984	0.044
816.2671	-0.2799
816.4359	0.0802
816.6046	0.0761
816.7733	-0.064
816.942	-0.0002
817.1106	0.056
817.2793	-0.0441
817.4479	-0.0141
817.6165	-0.0002
817.785	0.0896
817.9536	-0.0296
818.1221	0.0253
818.2906	-0.0538
818.4591	-0.0883
818.6276	-0.024
818.7961	0.0327
818.9645	0.0482
819.1329	-0.0045
819.3013	-0.131
819.4697	-0.0754
819.638	-0.1664
819.8064	-0.0163
819.9747	-0.1509
820.143	-0.0454
820.3113	0.3517
820.4795	0.0164
820.6477	0.0669
820.816	0.0182
820.9842	0.1003
821.1523	0.054
821.3205	-0.0295
821.4886	-0.0613
821.6567	-0.1063
821.8248	0.1728
821.9929	-0.0538
822.1609	-0.0387
822.329	0.0845
822.497	0.033
822.665	0.0772
822.833	-0.0914
823.0009	-0.0073
823.1688	-0.029
823.3367	-0.0899
823.5046	0.0737
823.6725	-0.0555
823.8404	-0.0327
824.0082	-0.0593
824.176	-0.1105
824.3438	0.1087
824.5116	0.016
824.6793	0.0902
824.847	0.0553
825.0147	0.0277
825.1824	0.0737
825.3501	-0.074
825.5177	-0.0738
825.6854	-0.1182
825.853	-0.0072
826.0206	-0.0214
826.1881	0.1449
826.3557	0.0215
826.5232	0.0459
826.6907	-0.0595
826.8582	-0.0958
827.0257	0.1417
827.1931	0.1614
827.3605	0.0524
827.528	-0.0721
827.6953	-0.2456
827.8627	-0.0334
828.03	0.1839
828.1974	-0.0036
828.3647	0.1277
828.532	0.0194
828.6992	0.1012
828.8665	0.0137
829.0337	0.0687
829.2009	-0.0983
829.3681	-0.0339
829.5352	-0.2947
829.7024	0.0407
829.8695	0.019
830.0366	0.1883
830.2037	0.0134
830.3707	0.07
830.5378	-0.1447
830.7048	0.0186
830.8718	0.4152
831.0388	-0.1123
831.2057	0.4273
831.3727	-0.2587
831.5396	-0.0634
831.7065	-1.0159
831.8734	0.0386
832.0402	0.1303
832.2071	-0.6322
832.3739	-0.222
832.5407	-1.8937
832.7075	-0.4959
832.8742	-0.0313
833.041	0.0801
833.2077	0.0429
833.3744	0.4517
833.541	0.009
833.7077	-0.2054
833.8743	0.0081
834.0409	0.0737
834.2075	0.0575
834.3741	-0.1583
834.5407	0.2899
834.7072	0.1455
834.8737	0.0305
835.0402	0.6508
835.2067	0.0129
835.3731	-0.157
835.5395	-0.0076
835.706	-0.2775
835.8723	0.1452
836.0387	0.3026
836.2051	0.2149
836.3714	0.1733
836.5377	0.5421
836.704	0.2843
836.8703	-0.2636
837.0365	-0.7891
837.2027	0.0969
837.3689	0.2452
837.5351	0.0064
837.7013	-0.1216
837.8674	-0.1897
838.0335	-0.1059
838.1997	0.1176
838.3657	-0
838.5318	-0.7041
838.6978	0.6009
838.8639	-0.6098
839.0299	0.0656
839.1958	0.0184
839.3618	0.1209
839.5277	-0.0811
839.6937	0.3971
839.8596	-0.1674
840.0254	-0.1048
840.1913	-0
840.3571	-0.2985
840.523	-0
840.6888	0.144
840.8545	-0.3367
841.0203	-0.1164
841.186	-0.0152
841.3517	-0.2543
841.5174	0.3296
841.6831	0.2591
841.8488	0.1726
842.0144	0.1486
842.18	0.1695
842.3456	-0.6686
842.5112	-0
842.6767	-0.1134
842.8422	-0.0822
843.0077	0.346
843.1732	-0.5169
843.3387	-0.2627
843.5042	-0
843.6696	-0.1082
843.835	-0.2512
844.0004	-0.3086
844.1657	-0.6243
844.3311	-0.3833
844.4964	-0.4585
844.6617	0.401
844.827	-0
844.9923	0.1622
845.1575	-0.1402
845.3227	-0.1382
845.4879	-0.1235
845.6531	-0.2503
845.8183	0.3837
845.9834	-0
846.1485	0.3237
846.3136	0.4393
846.4787	-0
846.6438	0.0556
846.8088	0.3683
846.9738	-0
847.1388	-0.0544
847.3038	0.1395
847.4687	-0
847.6337	0.0393
847.7986	-0.2601
847.9635	-0.4156
848.1284	0.4537
848.2932	0.3528
848.458	-0
848.6228	0.1059
848.7876	-0
848.9524	-0.1607
849.1172	-1.6915
849.2819	-0.2767
849.4466	0.1766
849.6113	-0.0243
849.7759	-0
849.9406	1.075
850.1052	-0
850.2698	1.116
850.4344	-0.6068
850.599	0.1073
850.7635	0.0948
850.928	0.3031
851.0925	0.5311
851.257	-0.0142
851.4215	-0.0012
851.5859	-0.0824
851.7503	-0
851.9147	0.7379
852.0791	-0.1749
852.2434	-0.1341
852.4078	-0
852.5721	-0
852.7364	0.043
852.9007	0.2087
853.0649	-0
853.2291	1.104
853.3934	-0
853.5575	-0.0846
853.7217	0.0406
853.8859	-0
854.05	-0.6162
854.2141	-0
854.3782	-0.1443
854.5423	-0.3641
854.7063	-0.199
854.8703	-0.0367
855.0343	-0.0493
855.1983	0.2462
855.3623	-0.0172
855.5262	-0
855.6901	1.633
855.854	0.0176
856.0179	-0.219
856.1818	1.0849
856.3456	0.7684
856.5094	-0.5669
856.6732	-0.9711
856.837	-1.0298
857.0008	0.2646
857.1645	-0.5255
857.3282	-0.5051
857.4919	-0.1563
857.6556	-0.3192
857.8192	0.0703
857.9828	-0.0538
858.1465	0.0255
858.31	-0
858.4736	-0.6574
858.6372	-0.3293
858.8007	-0.0912
858.9642	-0.0062
859.1277	-0
859.2911	-0.7648
859.4546	-0.9031
859.618	-0.1499
859.7814	0.1971
859.9448	-0.1161
860.1081	1.6048
860.2715	-1.8325
860.4348	-0.1429
860.5981	0.1251
860.7614	-0.0718
860.9246	-0.2116
861.0879	0.0997
861.2511	-0
861.4143	0.2352
861.5774	-0.3391
861.7406	-0.18
861.9037	-0
862.0668	-0.3668
862.2299	0.1203
862.393	-0
862.556	-0
862.7191	-0.1226
862.8821	0.1328
863.0451	-0.2151
863.208	-0.0029
863.371	-0.8197
863.5339	0.2911
863.6968	-0
863.8597	-0.0545
864.0225	-0.2738
864.1854	-0
864.3482	-0
864.511	-0.1211
864.6737	-0
864.8365	0.7575
864.9992	0.4289
865.1619	-0.5121
865.3246	-0
865.4873	-0
865.65	-0.2264
865.8126	1.6891
865.9752	-0.3471
866.1378	-0.0475
866.3004	-0.1531
866.4629	-1.7347
866.6254	0.1792
866.7879	-0.5038
866.9504	-0.5305
867.1129	0.226
867.2753	0.0834
867.4377	0.1007
867.6001	-0.1659
867.7625	-0.2871
867.9249	-0
868.0872	0.6322
868.2495	0.7736
868.4118	-0
868.5741	-0
868.7363	-0
868.8986	-0.4428
869.0608	-0.5026
869.223	-0.5802
869.3851	-0
869.5473	-0.0789
869.7094	0.3469
869.8715	-0.8877
870.0336	0.0901
870.1957	-0.5913
870.3577	-0.0657
870.5197	-0.3094
870.6817	-0.4034
870.8437	-0.4461
871.0057	-0.2037
871.1676	0.1503
871.3295	-0.1607
871.4914	-0
871.6533	-0
871.8151	0.3509
871.977	-0.3947
872.1388	-0.2955
872.3006	-0.2743
872.4623	-0.7575
872.6241	0.7129
872.7858	-0.0286
872.9475	-0
873.1092	0.0316
873.2709	-0
873.4325	-1.8841
873.5941	-0
873.7557	1.0451
873.9173	-0.1789
874.0789	0.1693
874.2404	-0
874.4019	0.023
874.5634	-0
874.7249	-0
874.8863	-0
875.0478	-0.4043
875.2092	0.5199
875.3706	-0
875.5319	0.0501
875.6933	-0.0905
875.8546	0.0969
876.0159	0.9288
876.1772	0.0437
876.3385	-0
876.4997	-0.1788
876.6609	-0.0848
876.8221	-0
876.9833	-0.1454
877.1445	0.6177
877.3056	-1.1277
877.4667	-0.8154
877.6278	-0
877.7889	0.202
877.9499	0.5751
878.111	-0.6601
878.272	0.1257
878.433	-0.0195
878.5939	-0.269
878.7549	-0.2604
878.9158	-0
879.0767	0.5042
879.2376	-0.4008
879.3984	0.6321
879.5593	0.227
879.7201	-1.6601
879.8809	-0.1357
880.0417	-0.0607
880.2024	0.4825
880.3632	-0.5346
880.5239	-0.2221
880.6846	-0.3601
880.8452	-0
881.0059	-0
881.1665	0.601
881.3271	0.5608
881.4877	-0.0876
881.6483	-0.714
881.8088	-0
881.9693	-0
882.1298	-0
882.2903	-0
