Data from D4ACN5uM420nmA_Absorbance_14-37-08-021.txt Node
Date: Fri Feb 21 14:37:08 GMT 2025
User: LASERRRRR
Spectrometer: FLMT03099
Trigger mode: 0
Integration Time (sec): 1.500000E-2
Scans to average: 1
Electric dark correction enabled: true
Nonlinearity correction enabled: false
Boxcar width: 0
XAxis mode: Wavelengths
Number of Pixels in Spectrum: 3648
>>>>>Begin Spectral Data<<<<<
179.3399	-0.6632
179.5586	-0.6632
179.7771	-0.6632
179.9957	0.2086
180.2143	-0.1963
180.4329	0.0053
180.6514	-0
180.8699	-0
181.0885	-0
181.307	0.2914
181.5255	0.3439
181.744	-0
181.9625	-0
182.181	0.0236
182.3994	-0.3541
182.6179	-0.0297
182.8363	0.3378
183.0547	-0.2634
183.2732	0.0026
183.4916	0.3099
183.71	0.1869
183.9284	0.1079
184.1467	0.6766
184.3651	0.144
184.5835	0.1575
184.8018	0.0676
185.0201	0.1749
185.2385	0.125
185.4568	0.1866
185.6751	0.1606
185.8934	0.0563
186.1117	-0.1666
186.3299	0.1635
186.5482	0.1727
186.7664	0.0812
186.9847	-0.1684
187.2029	0.2794
187.4211	-0.0774
187.6393	0.149
187.8575	0.1863
188.0757	0.1386
188.2939	0.2195
188.512	0.2803
188.7302	0.1437
188.9483	0.1748
189.1665	0.7261
189.3846	0.4427
189.6027	0.0751
189.8208	0.4682
190.0389	0.0489
190.257	0.0643
190.475	-0.0655
190.6931	0.0274
190.9111	0.2029
191.1292	0.0803
191.3472	0.1234
191.5652	0.268
191.7832	0.1528
192.0012	0.1721
192.2192	0.238
192.4371	0.1736
192.6551	0.2608
192.873	0.0382
193.091	0.1922
193.3089	0.1222
193.5268	0.2594
193.7447	0.154
193.9626	0.3185
194.1805	0.1712
194.3984	0.1727
194.6162	0.3155
194.8341	0.3101
195.0519	0.1901
195.2697	0.2899
195.4875	0.3405
195.7054	0.2838
195.9231	0.1921
196.1409	0.3335
196.3587	0.2641
196.5765	0.2658
196.7942	0.3262
197.012	0.4112
197.2297	0.2733
197.4474	0.4135
197.6651	0.31
197.8828	0.3637
198.1005	0.3447
198.3182	0.3226
198.5358	0.3766
198.7535	0.3542
198.9711	0.4223
199.1888	0.3352
199.4064	0.371
199.624	0.3262
199.8416	0.3818
200.0592	0.3734
200.2767	0.3759
200.4943	0.4547
200.7119	0.3748
200.9294	0.4517
201.1469	0.3813
201.3645	0.4377
201.582	0.3999
201.7995	0.4122
202.017	0.4254
202.2344	0.4329
202.4519	0.412
202.6694	0.4121
202.8868	0.3946
203.1042	0.4164
203.3217	0.4193
203.5391	0.3898
203.7565	0.327
203.9739	0.382
204.1913	0.3234
204.4086	0.352
204.626	0.3299
204.8433	0.3691
205.0607	0.3572
205.278	0.3136
205.4953	0.3472
205.7126	0.3407
205.9299	0.3235
206.1472	0.3419
206.3644	0.3328
206.5817	0.3223
206.7989	0.3341
207.0162	0.3065
207.2334	0.3309
207.4506	0.3251
207.6678	0.3235
207.885	0.3112
208.1022	0.3175
208.3194	0.3096
208.5365	0.2989
208.7537	0.2511
208.9708	0.3252
209.1879	0.2844
209.405	0.2596
209.6222	0.2638
209.8392	0.2924
210.0563	0.2852
210.2734	0.2746
210.4905	0.2704
210.7075	0.2753
210.9245	0.2674
211.1416	0.2621
211.3586	0.2726
211.5756	0.2324
211.7926	0.274
212.0096	0.2621
212.2265	0.2563
212.4435	0.2681
212.6604	0.2617
212.8774	0.2338
213.0943	0.2364
213.3112	0.2433
213.5281	0.2402
213.745	0.2395
213.9619	0.243
214.1788	0.2453
214.3956	0.2539
214.6125	0.2493
214.8293	0.2466
215.0461	0.2472
215.2629	0.2527
215.4798	0.2494
215.6965	0.2498
215.9133	0.2278
216.1301	0.2375
216.3469	0.2512
216.5636	0.2539
216.7803	0.2339
216.9971	0.2521
217.2138	0.2525
217.4305	0.258
217.6472	0.2347
217.8639	0.2504
218.0805	0.2405
218.2972	0.2495
218.5138	0.2591
218.7305	0.2396
218.9471	0.2417
219.1637	0.2595
219.3803	0.2481
219.5969	0.2536
219.8135	0.2514
220.0301	0.2648
220.2466	0.2621
220.4632	0.2492
220.6797	0.267
220.8962	0.254
221.1127	0.2676
221.3292	0.2691
221.5457	0.2737
221.7622	0.2585
221.9787	0.2786
222.1951	0.2804
222.4116	0.2793
222.628	0.2688
222.8444	0.2805
223.0608	0.278
223.2772	0.2798
223.4936	0.2899
223.71	0.2804
223.9264	0.2713
224.1427	0.2913
224.3591	0.2853
224.5754	0.2819
224.7917	0.2877
225.008	0.2935
225.2243	0.3033
225.4406	0.2906
225.6569	0.2962
225.8732	0.3024
226.0894	0.3039
226.3057	0.3051
226.5219	0.3076
226.7381	0.3163
226.9543	0.3202
227.1705	0.3179
227.3867	0.3158
227.6029	0.3302
227.8191	0.3345
228.0352	0.3429
228.2513	0.3545
228.4675	0.3407
228.6836	0.3456
228.8997	0.3447
229.1158	0.3591
229.3319	0.3546
229.548	0.3616
229.764	0.3556
229.9801	0.3694
230.1961	0.3698
230.4121	0.3726
230.6282	0.3778
230.8442	0.3936
231.0602	0.3871
231.2761	0.3838
231.4921	0.3854
231.7081	0.3822
231.924	0.3995
232.14	0.41
232.3559	0.411
232.5718	0.4155
232.7877	0.4153
233.0036	0.4092
233.2195	0.4111
233.4353	0.4241
233.6512	0.4195
233.867	0.4271
234.0829	0.4322
234.2987	0.4278
234.5145	0.4486
234.7303	0.4423
234.9461	0.4475
235.1619	0.4515
235.3776	0.4416
235.5934	0.4352
235.8091	0.4423
236.0249	0.439
236.2406	0.4413
236.4563	0.4469
236.672	0.4314
236.8877	0.4497
237.1034	0.4459
237.319	0.4436
237.5347	0.456
237.7503	0.4565
237.966	0.4729
238.1816	0.4524
238.3972	0.4604
238.6128	0.4651
238.8284	0.4599
239.0439	0.457
239.2595	0.4693
239.475	0.4705
239.6906	0.4685
239.9061	0.4722
240.1216	0.4676
240.3371	0.4574
240.5526	0.4661
240.7681	0.4653
240.9836	0.4601
241.199	0.4654
241.4145	0.4474
241.6299	0.4555
241.8453	0.4359
242.0607	0.4326
242.2761	0.4358
242.4915	0.4189
242.7069	0.4205
242.9223	0.4253
243.1376	0.4164
243.353	0.4067
243.5683	0.3952
243.7836	0.3961
243.9989	0.389
244.2142	0.3811
244.4295	0.3733
244.6448	0.3699
244.86	0.3607
245.0753	0.3471
245.2905	0.3529
245.5057	0.3457
245.721	0.3421
245.9362	0.3321
246.1514	0.3257
246.3665	0.3105
246.5817	0.3068
246.7969	0.2997
247.012	0.2931
247.2271	0.3024
247.4423	0.2918
247.6574	0.2871
247.8725	0.2715
248.0876	0.2742
248.3026	0.2708
248.5177	0.262
248.7328	0.2575
248.9478	0.2577
249.1628	0.2581
249.3779	0.2449
249.5929	0.2442
249.8079	0.2416
250.0228	0.2351
250.2378	0.2448
250.4528	0.2335
250.6677	0.2259
250.8827	0.2219
251.0976	0.2206
251.3125	0.2205
251.5274	0.2195
251.7423	0.2097
251.9572	0.2105
252.172	0.2115
252.3869	0.2173
252.6017	0.2059
252.8166	0.2043
253.0314	0.1981
253.2462	0.1989
253.461	0.1978
253.6758	0.2009
253.8906	0.1942
254.1053	0.1969
254.3201	0.1949
254.5348	0.191
254.7496	0.1888
254.9643	0.194
255.179	0.1894
255.3937	0.1895
255.6083	0.1962
255.823	0.1918
256.0377	0.181
256.2523	0.1898
256.467	0.1912
256.6816	0.1883
256.8962	0.1829
257.1108	0.1898
257.3254	0.1862
257.54	0.1817
257.7545	0.1873
257.9691	0.1816
258.1836	0.1818
258.3981	0.1862
258.6127	0.1825
258.8272	0.1845
259.0417	0.179
259.2561	0.175
259.4706	0.1818
259.6851	0.1825
259.8995	0.1815
260.114	0.184
260.3284	0.1751
260.5428	0.1817
260.7572	0.18
260.9716	0.1881
261.186	0.1834
261.4003	0.1789
261.6147	0.1809
261.829	0.1843
262.0433	0.1871
262.2577	0.1826
262.472	0.1789
262.6863	0.1924
262.9005	0.1777
263.1148	0.1813
263.3291	0.1883
263.5433	0.1841
263.7576	0.1866
263.9718	0.1859
264.186	0.1863
264.4002	0.1859
264.6144	0.1949
264.8286	0.1849
265.0427	0.1886
265.2569	0.1863
265.471	0.1895
265.6851	0.1942
265.8993	0.1853
266.1134	0.1864
266.3275	0.1891
266.5415	0.1902
266.7556	0.1957
266.9697	0.1875
267.1837	0.1914
267.3978	0.1883
267.6118	0.1909
267.8258	0.1912
268.0398	0.1981
268.2538	0.1855
268.4677	0.1882
268.6817	0.1826
268.8957	0.1752
269.1096	0.1794
269.3235	0.1804
269.5374	0.1813
269.7514	0.1881
269.9652	0.187
270.1791	0.1782
270.393	0.1841
270.6068	0.1849
270.8207	0.1821
271.0345	0.1819
271.2483	0.1761
271.4622	0.1856
271.676	0.185
271.8897	0.1783
272.1035	0.1876
272.3173	0.189
272.531	0.1811
272.7448	0.1795
272.9585	0.1801
273.1722	0.1822
273.3859	0.1808
273.5996	0.181
273.8133	0.1878
274.0269	0.1798
274.2406	0.1805
274.4542	0.1872
274.6679	0.1866
274.8815	0.1893
275.0951	0.1934
275.3087	0.1926
275.5223	0.1892
275.7358	0.1858
275.9494	0.1943
276.1629	0.1933
276.3765	0.1937
276.59	0.1866
276.8035	0.1899
277.017	0.1975
277.2305	0.1908
277.444	0.1949
277.6574	0.1936
277.8709	0.2008
278.0843	0.1992
278.2978	0.1996
278.5112	0.1964
278.7246	0.1907
278.938	0.1948
279.1513	0.1967
279.3647	0.196
279.5781	0.1904
279.7914	0.1935
280.0047	0.191
280.2181	0.1941
280.4314	0.1928
280.6447	0.1958
280.8579	0.1884
281.0712	0.1868
281.2845	0.1904
281.4977	0.1944
281.711	0.1906
281.9242	0.1928
282.1374	0.1894
282.3506	0.1915
282.5638	0.1881
282.7769	0.1837
282.9901	0.1881
283.2033	0.1845
283.4164	0.1884
283.6295	0.1892
283.8426	0.1883
284.0557	0.1925
284.2688	0.1942
284.4819	0.1842
284.695	0.194
284.908	0.1885
285.1211	0.198
285.3341	0.185
285.5471	0.192
285.7601	0.1961
285.9731	0.1938
286.1861	0.1933
286.3991	0.1972
286.612	0.1934
286.825	0.1941
287.0379	0.1915
287.2508	0.1965
287.4637	0.1954
287.6766	0.194
287.8895	0.19
288.1024	0.1954
288.3152	0.1932
288.5281	0.1852
288.7409	0.197
288.9538	0.1919
289.1666	0.1921
289.3794	0.1973
289.5922	0.1921
289.8049	0.1981
290.0177	0.1914
290.2304	0.1942
290.4432	0.1981
290.6559	0.1991
290.8686	0.2009
291.0813	0.1933
291.294	0.1917
291.5067	0.1895
291.7194	0.1966
291.932	0.1916
292.1447	0.1912
292.3573	0.193
292.5699	0.1963
292.7825	0.1926
292.9951	0.1886
293.2077	0.1895
293.4203	0.198
293.6328	0.1912
293.8454	0.1946
294.0579	0.1882
294.2704	0.1997
294.4829	0.1912
294.6954	0.1926
294.9079	0.1922
295.1204	0.1898
295.3328	0.1985
295.5453	0.192
295.7577	0.1972
295.9701	0.1915
296.1825	0.1958
296.3949	0.1938
296.6073	0.1918
296.8197	0.1927
297.0321	0.194
297.2444	0.1925
297.4567	0.1932
297.6691	0.1908
297.8814	0.1916
298.0937	0.198
298.306	0.1958
298.5182	0.202
298.7305	0.1933
298.9428	0.1948
299.155	0.1895
299.3672	0.1918
299.5794	0.1992
299.7916	0.191
300.0038	0.1927
300.216	0.1886
300.4282	0.1926
300.6403	0.1999
300.8525	0.1935
301.0646	0.1959
301.2767	0.1909
301.4888	0.1928
301.7009	0.1926
301.913	0.1947
302.125	0.1957
302.3371	0.1964
302.5491	0.1956
302.7612	0.203
302.9732	0.1992
303.1852	0.1965
303.3972	0.194
303.6092	0.1959
303.8211	0.1933
304.0331	0.189
304.245	0.1899
304.457	0.1915
304.6689	0.1891
304.8808	0.1896
305.0927	0.1903
305.3046	0.1894
305.5164	0.1802
305.7283	0.1853
305.9401	0.1802
306.152	0.1832
306.3638	0.1795
306.5756	0.1826
306.7874	0.1785
306.9992	0.1738
307.2109	0.1815
307.4227	0.1732
307.6344	0.1811
307.8462	0.173
308.0579	0.1734
308.2696	0.1741
308.4813	0.1704
308.693	0.1657
308.9046	0.1713
309.1163	0.171
309.328	0.1597
309.5396	0.1608
309.7512	0.1621
309.9628	0.1593
310.1744	0.1559
310.386	0.1515
310.5976	0.1491
310.8091	0.1603
311.0207	0.1489
311.2322	0.1512
311.4437	0.1447
311.6552	0.1489
311.8667	0.1571
312.0782	0.1496
312.2897	0.1492
312.5012	0.1468
312.7126	0.1431
312.924	0.1464
313.1355	0.1422
313.3469	0.1426
313.5583	0.1458
313.7696	0.1453
313.981	0.1449
314.1924	0.1409
314.4037	0.1367
314.6151	0.1381
314.8264	0.1421
315.0377	0.14
315.249	0.1439
315.4603	0.1323
315.6716	0.1438
315.8828	0.1352
316.0941	0.134
316.3053	0.133
316.5165	0.1357
316.7277	0.1277
316.9389	0.1382
317.1501	0.1343
317.3613	0.1308
317.5724	0.1359
317.7836	0.1288
317.9947	0.1331
318.2058	0.1341
318.417	0.131
318.6281	0.1304
318.8391	0.1376
319.0502	0.134
319.2613	0.1341
319.4723	0.132
319.6834	0.1332
319.8944	0.1322
320.1054	0.1338
320.3164	0.1276
320.5274	0.1327
320.7383	0.1337
320.9493	0.1304
321.1602	0.1324
321.3712	0.1324
321.5821	0.1317
321.793	0.1349
322.0039	0.1391
322.2148	0.1357
322.4257	0.1288
322.6365	0.1337
322.8474	0.1341
323.0582	0.1375
323.269	0.1345
323.4798	0.1313
323.6906	0.1343
323.9014	0.1302
324.1122	0.1329
324.3229	0.1453
324.5337	0.1332
324.7444	0.1361
324.9551	0.1408
325.1658	0.135
325.3765	0.1374
325.5872	0.137
325.7979	0.1343
326.0085	0.1345
326.2192	0.1347
326.4298	0.1355
326.6404	0.1394
326.851	0.1358
327.0616	0.1432
327.2722	0.136
327.4828	0.1354
327.6933	0.1455
327.9039	0.1403
328.1144	0.1452
328.3249	0.1436
328.5354	0.14
328.7459	0.139
328.9564	0.1401
329.1669	0.1428
329.3773	0.142
329.5878	0.138
329.7982	0.1452
330.0086	0.1449
330.219	0.142
330.4294	0.1446
330.6398	0.1479
330.8502	0.1456
331.0605	0.1481
331.2708	0.1488
331.4812	0.1507
331.6915	0.1436
331.9018	0.1502
332.1121	0.1499
332.3224	0.1455
332.5326	0.1525
332.7429	0.1405
332.9531	0.1556
333.1633	0.1422
333.3735	0.1488
333.5837	0.1505
333.7939	0.1508
334.0041	0.1507
334.2143	0.1435
334.4244	0.155
334.6346	0.1429
334.8447	0.1459
335.0548	0.1511
335.2649	0.1499
335.475	0.1455
335.685	0.1483
335.8951	0.1387
336.1051	0.1547
336.3152	0.1484
336.5252	0.1506
336.7352	0.1503
336.9452	0.1486
337.1552	0.1507
337.3652	0.1493
337.5751	0.1489
337.7851	0.1456
337.995	0.143
338.2049	0.1509
338.4148	0.1491
338.6247	0.1511
338.8346	0.1478
339.0445	0.1518
339.2543	0.156
339.4642	0.1557
339.674	0.1506
339.8838	0.1499
340.0936	0.1511
340.3034	0.1509
340.5132	0.1438
340.7229	0.155
340.9327	0.1585
341.1424	0.1543
341.3522	0.1441
341.5619	0.16
341.7716	0.1583
341.9813	0.1588
342.1909	0.1626
342.4006	0.1596
342.6102	0.155
342.8199	0.1549
343.0295	0.1537
343.2391	0.1617
343.4487	0.1636
343.6583	0.1634
343.8679	0.1572
344.0774	0.1635
344.287	0.1693
344.4965	0.1699
344.706	0.1729
344.9155	0.1593
345.125	0.1655
345.3345	0.1702
345.544	0.1702
345.7534	0.1637
345.9629	0.1727
346.1723	0.1703
346.3817	0.1652
346.5911	0.1755
346.8005	0.1812
347.0099	0.1707
347.2193	0.1788
347.4286	0.1805
347.638	0.1763
347.8473	0.1779
348.0566	0.1785
348.2659	0.1802
348.4752	0.1743
348.6845	0.1765
348.8937	0.1736
349.103	0.1743
349.3122	0.1783
349.5214	0.1847
349.7306	0.1831
349.9398	0.1823
350.149	0.1774
350.3582	0.1832
350.5674	0.1863
350.7765	0.1881
350.9856	0.1878
351.1948	0.1886
351.4039	0.1835
351.613	0.1866
351.822	0.1901
352.0311	0.1877
352.2402	0.1838
352.4492	0.1897
352.6582	0.1859
352.8672	0.1863
353.0762	0.1851
353.2852	0.1884
353.4942	0.1914
353.7032	0.1858
353.9121	0.1927
354.1211	0.1872
354.33	0.187
354.5389	0.1886
354.7478	0.1828
354.9567	0.1936
355.1655	0.1983
355.3744	0.1886
355.5833	0.1851
355.7921	0.1935
356.0009	0.1907
356.2097	0.1865
356.4185	0.198
356.6273	0.1927
356.8361	0.1967
357.0448	0.1963
357.2536	0.2004
357.4623	0.1944
357.671	0.2045
357.8797	0.1956
358.0884	0.1923
358.2971	0.1995
358.5057	0.1987
358.7144	0.1929
358.923	0.1961
359.1316	0.2044
359.3402	0.1982
359.5488	0.1984
359.7574	0.2006
359.966	0.2095
360.1746	0.1984
360.3831	0.2067
360.5916	0.2015
360.8002	0.2041
361.0087	0.2036
361.2172	0.2058
361.4256	0.2121
361.6341	0.2067
361.8426	0.2135
362.051	0.2125
362.2594	0.2073
362.4678	0.2095
362.6762	0.2189
362.8846	0.2158
363.093	0.2147
363.3014	0.2171
363.5097	0.2155
363.718	0.2213
363.9264	0.2188
364.1347	0.2233
364.343	0.2243
364.5513	0.2235
364.7595	0.2204
364.9678	0.2151
365.176	0.2306
365.3842	0.2269
365.5925	0.2219
365.8007	0.2274
366.0089	0.2297
366.217	0.2345
366.4252	0.2315
366.6333	0.2308
366.8415	0.2408
367.0496	0.2313
367.2577	0.2367
367.4658	0.2261
367.6739	0.2336
367.882	0.2438
368.09	0.2283
368.2981	0.2387
368.5061	0.235
368.7141	0.2358
368.9221	0.2465
369.1301	0.2387
369.3381	0.2411
369.5461	0.2449
369.754	0.2423
369.962	0.2392
370.1699	0.2434
370.3778	0.2516
370.5857	0.2508
370.7936	0.2466
371.0015	0.2431
371.2093	0.2468
371.4172	0.2536
371.625	0.2437
371.8328	0.2423
372.0406	0.2605
372.2484	0.2441
372.4562	0.2499
372.664	0.2535
372.8717	0.2574
373.0795	0.267
373.2872	0.2562
373.4949	0.2638
373.7026	0.2552
373.9103	0.2515
374.118	0.259
374.3256	0.2617
374.5333	0.2575
374.7409	0.2684
374.9485	0.2529
375.1561	0.2678
375.3637	0.2566
375.5713	0.2639
375.7789	0.2518
375.9864	0.2575
376.194	0.2799
376.4015	0.2708
376.609	0.2709
376.8165	0.2681
377.024	0.2648
377.2315	0.271
377.4389	0.2641
377.6464	0.2672
377.8538	0.2718
378.0612	0.2708
378.2686	0.2698
378.476	0.2789
378.6834	0.2718
378.8908	0.2793
379.0981	0.2754
379.3055	0.2797
379.5128	0.2693
379.7201	0.2781
379.9274	0.2891
380.1347	0.2768
380.342	0.2819
380.5492	0.2769
380.7565	0.2809
380.9637	0.2832
381.1709	0.2854
381.3781	0.2805
381.5853	0.2805
381.7925	0.2792
381.9997	0.2902
382.2068	0.2912
382.4139	0.2882
382.6211	0.2928
382.8282	0.2909
383.0353	0.2857
383.2424	0.2918
383.4494	0.2843
383.6565	0.2891
383.8635	0.2789
384.0706	0.2861
384.2776	0.2843
384.4846	0.2855
384.6916	0.2856
384.8986	0.288
385.1055	0.2975
385.3125	0.2922
385.5194	0.2968
385.7263	0.2898
385.9333	0.2896
386.1402	0.2884
386.347	0.2913
386.5539	0.2827
386.7608	0.2904
386.9676	0.284
387.1744	0.294
387.3813	0.285
387.5881	0.2848
387.7948	0.2901
388.0016	0.31
388.2084	0.2811
388.4151	0.2879
388.6219	0.2808
388.8286	0.2887
389.0353	0.2886
389.242	0.2845
389.4487	0.2876
389.6553	0.2821
389.862	0.2822
390.0686	0.2898
390.2753	0.285
390.4819	0.2844
390.6885	0.2819
390.8951	0.291
391.1016	0.2729
391.3082	0.2775
391.5147	0.2805
391.7213	0.2808
391.9278	0.2681
392.1343	0.2828
392.3408	0.2799
392.5473	0.2833
392.7537	0.2744
392.9602	0.2653
393.1666	0.2671
393.373	0.2674
393.5794	0.2687
393.7858	0.2666
393.9922	0.2675
394.1986	0.2688
394.4049	0.2683
394.6113	0.2665
394.8176	0.2692
395.0239	0.2551
395.2302	0.2632
395.4365	0.2664
395.6428	0.2512
395.8491	0.2572
396.0553	0.2504
396.2615	0.2607
396.4678	0.2652
396.674	0.2531
396.8802	0.2551
397.0863	0.2472
397.2925	0.2602
397.4987	0.2517
397.7048	0.2536
397.9109	0.2514
398.117	0.2471
398.3231	0.2486
398.5292	0.2411
398.7353	0.2457
398.9413	0.2525
399.1474	0.2408
399.3534	0.2515
399.5594	0.2552
399.7654	0.2472
399.9714	0.2502
400.1774	0.2497
400.3833	0.2421
400.5893	0.2422
400.7952	0.2556
401.0011	0.2435
401.207	0.2491
401.4129	0.2538
401.6188	0.2386
401.8247	0.2566
402.0305	0.2474
402.2364	0.2449
402.4422	0.2499
402.648	0.2443
402.8538	0.2435
403.0596	0.2452
403.2654	0.2497
403.4711	0.2414
403.6768	0.249
403.8826	0.2438
404.0883	0.2493
404.294	0.243
404.4997	0.2416
404.7054	0.249
404.911	0.2519
405.1167	0.2464
405.3223	0.2413
405.5279	0.2439
405.7335	0.2413
405.9391	0.247
406.1447	0.2565
406.3502	0.2468
406.5558	0.2414
406.7613	0.2376
406.9668	0.2487
407.1724	0.2342
407.3778	0.2496
407.5833	0.2307
407.7888	0.2442
407.9942	0.2431
408.1997	0.2507
408.4051	0.2519
408.6105	0.2425
408.8159	0.2456
409.0213	0.2434
409.2267	0.2452
409.432	0.2466
409.6374	0.2447
409.8427	0.2464
410.048	0.248
410.2533	0.2497
410.4586	0.2339
410.6639	0.2521
410.8691	0.238
411.0744	0.2398
411.2796	0.2445
411.4848	0.2416
411.69	0.2295
411.8952	0.2494
412.1004	0.2375
412.3056	0.236
412.5107	0.2353
412.7158	0.2506
412.921	0.2386
413.1261	0.2354
413.3312	0.2491
413.5362	0.247
413.7413	0.2434
413.9464	0.2245
414.1514	0.226
414.3564	0.2405
414.5614	0.2317
414.7664	0.2438
414.9714	0.2254
415.1764	0.2537
415.3813	0.2378
415.5863	0.2493
415.7912	0.2359
415.9961	0.2451
416.201	0.2495
416.4059	0.238
416.6108	0.2418
416.8156	0.2331
417.0205	0.2366
417.2253	0.2309
417.4301	0.2524
417.6349	0.2322
417.8397	0.2252
418.0445	0.2344
418.2492	0.2329
418.454	0.2336
418.6587	0.2426
418.8634	0.2274
419.0681	0.2364
419.2728	0.2281
419.4775	0.2344
419.6822	0.2253
419.8868	0.2262
420.0915	0.2231
420.2961	0.216
420.5007	0.23
420.7053	0.2288
420.9099	0.2314
421.1144	0.2249
421.319	0.2287
421.5235	0.2117
421.728	0.2247
421.9325	0.2259
422.137	0.2245
422.3415	0.218
422.546	0.2197
422.7504	0.2163
422.9549	0.2318
423.1593	0.2102
423.3637	0.2153
423.5681	0.2274
423.7725	0.2132
423.9769	0.2125
424.1812	0.2066
424.3856	0.209
424.5899	0.2136
424.7942	0.215
424.9985	0.2043
425.2028	0.2076
425.4071	0.2217
425.6113	0.2097
425.8156	0.2049
426.0198	0.211
426.224	0.2166
426.4282	0.1989
426.6324	0.2064
426.8366	0.1931
427.0407	0.2034
427.2449	0.1964
427.449	0.2035
427.6531	0.2152
427.8572	0.2004
428.0613	0.2024
428.2654	0.2012
428.4694	0.1888
428.6735	0.1868
428.8775	0.1958
429.0815	0.1943
429.2855	0.1832
429.4895	0.1944
429.6935	0.1897
429.8975	0.181
430.1014	0.1884
430.3053	0.1935
430.5093	0.1782
430.7132	0.1741
430.9171	0.1826
431.1209	0.177
431.3248	0.1724
431.5286	0.1689
431.7325	0.1765
431.9363	0.1738
432.1401	0.1747
432.3439	0.1721
432.5477	0.16
432.7514	0.1604
432.9552	0.158
433.1589	0.1507
433.3627	0.1641
433.5664	0.1646
433.7701	0.156
433.9737	0.1557
434.1774	0.1504
434.3811	0.1461
434.5847	0.146
434.7883	0.1458
434.9919	0.1463
435.1955	0.1521
435.3991	0.1474
435.6027	0.1441
435.8062	0.1484
436.0098	0.1433
436.2133	0.1405
436.4168	0.1379
436.6203	0.1296
436.8238	0.1379
437.0272	0.1346
437.2307	0.1269
437.4341	0.1279
437.6375	0.1284
437.841	0.1161
438.0443	0.1298
438.2477	0.1199
438.4511	0.1146
438.6545	0.1149
438.8578	0.1176
439.0611	0.1203
439.2644	0.1237
439.4677	0.1214
439.671	0.1033
439.8743	0.1156
440.0775	0.107
440.2808	0.1121
440.484	0.1016
440.6872	0.1047
440.8904	0.0977
441.0936	0.1024
441.2967	0.0927
441.4999	0.0971
441.703	0.1038
441.9062	0.0991
442.1093	0.097
442.3124	0.0929
442.5155	0.0966
442.7185	0.0892
442.9216	0.0885
443.1246	0.0817
443.3276	0.0852
443.5307	0.0777
443.7337	0.0925
443.9366	0.0823
444.1396	0.0748
444.3426	0.0871
444.5455	0.0717
444.7484	0.0783
444.9513	0.0813
445.1542	0.0785
445.3571	0.0787
445.56	0.067
445.7628	0.0736
445.9657	0.0627
446.1685	0.0781
446.3713	0.0685
446.5741	0.0729
446.7769	0.0717
446.9797	0.0658
447.1824	0.0633
447.3852	0.0537
447.5879	0.0675
447.7906	0.0562
447.9933	0.0586
448.196	0.057
448.3986	0.0556
448.6013	0.0557
448.8039	0.0622
449.0066	0.0688
449.2092	0.0619
449.4118	0.0482
449.6143	0.0548
449.8169	0.0506
450.0195	0.0509
450.222	0.0552
450.4245	0.0465
450.627	0.0476
450.8295	0.0512
451.032	0.0514
451.2345	0.0446
451.4369	0.0438
451.6394	0.0475
451.8418	0.0455
452.0442	0.0453
452.2466	0.0377
452.449	0.0443
452.6513	0.0353
452.8537	0.0357
453.056	0.0449
453.2583	0.0357
453.4607	0.0284
453.663	0.0433
453.8652	0.0239
454.0675	0.0451
454.2697	0.0377
454.472	0.0257
454.6742	0.0381
454.8764	0.0411
455.0786	0.0343
455.2808	0.0278
455.4829	0.0298
455.6851	0.03
455.8872	0.0155
456.0893	0.0318
456.2915	0.0209
456.4935	0.0395
456.6956	0.0332
456.8977	0.033
457.0997	0.0312
457.3018	0.0279
457.5038	0.036
457.7058	0.0245
457.9078	0.029
458.1098	0.0323
458.3117	0.0299
458.5137	0.0145
458.7156	0.026
458.9175	0.0254
459.1194	0.0208
459.3213	0.0231
459.5232	0.0231
459.725	0.0266
459.9269	0.0201
460.1287	0.0141
460.3305	0.0232
460.5323	0.0249
460.7341	0.0205
460.9359	0.0169
461.1376	0.0248
461.3394	0.0203
461.5411	0.0319
461.7428	0.0219
461.9445	0.0152
462.1462	0.0216
462.3479	0.0171
462.5495	0.0172
462.7512	0.0226
462.9528	0.0135
463.1544	0.0195
463.356	0.0083
463.5576	0.0188
463.7592	0.0102
463.9607	0.0169
464.1623	0.0169
464.3638	0.014
464.5653	0.0153
464.7668	0.0112
464.9683	0.0117
465.1697	0.0008
465.3712	0.0062
465.5726	0.0068
465.7741	0.0139
465.9755	0.0168
466.1769	0.0189
466.3782	0.0174
466.5796	0.0147
466.7809	0.0179
466.9823	0.0188
467.1836	0.0089
467.3849	0.0145
467.5862	0.001
467.7875	0.0089
467.9887	0.0152
468.19	0.0052
468.3912	0.0118
468.5924	0.0037
468.7936	0.0042
468.9948	0.0004
469.196	0.017
469.3972	-0.0005
469.5983	0.0091
469.7994	0.014
470.0006	0.0125
470.2017	0.0089
470.4027	0.0176
470.6038	0.0091
470.8049	0.0024
471.0059	0.0049
471.2069	0.0094
471.408	0.009
471.6089	0.005
471.8099	0.0056
472.0109	0.0118
472.2119	0.0134
472.4128	0.0137
472.6137	0.0083
472.8146	0.0038
473.0155	0.0156
473.2164	0.007
473.4173	-0.0031
473.6181	0.0004
473.819	0.0113
474.0198	0.0046
474.2206	0.0045
474.4214	0.0119
474.6222	-0.0025
474.8229	0.0108
475.0237	0.0056
475.2244	0.0035
475.4251	0.0051
475.6258	-0.002
475.8265	0.0192
476.0272	0.0039
476.2278	0.0079
476.4285	0.0052
476.6291	0.0082
476.8297	0.0052
477.0303	-0.0099
477.2309	0.0048
477.4315	0.0118
477.632	-0.0049
477.8326	0.0121
478.0331	0.0079
478.2336	0.0103
478.4341	0.0064
478.6346	0.009
478.8351	0.0039
479.0355	0.0108
479.236	0.0134
479.4364	0.0107
479.6368	0.0087
479.8372	0.0032
480.0376	0.0004
480.2379	-0.0011
480.4383	0.0112
480.6386	-0.0035
480.8389	0.0026
481.0392	0.0032
481.2395	0.0117
481.4398	0.0082
481.6401	0.0038
481.8403	-0.0051
482.0405	0.0086
482.2408	0.0037
482.441	0.0071
482.6411	0.0038
482.8413	0.0093
483.0415	0.0091
483.2416	0.0066
483.4417	0.0041
483.6419	0.0014
483.8419	0.0061
484.042	0.0067
484.2421	0.0047
484.4422	0.0043
484.6422	0.0066
484.8422	0.0044
485.0422	0.0029
485.2422	0.0078
485.4422	0.0061
485.6422	0.0039
485.8421	0.0041
486.042	0.0152
486.242	0.0025
486.4419	0.0115
486.6417	0.0047
486.8416	-0.0021
487.0415	0.0047
487.2413	0.0024
487.4411	0.0055
487.641	0.0012
487.8408	-0.0008
488.0405	0.0083
488.2403	-0.0045
488.4401	-0.0024
488.6398	0.0104
488.8395	0.0017
489.0392	-0.0016
489.2389	0.0105
489.4386	-0.0084
489.6383	0.0081
489.8379	-0.0057
490.0376	0.0042
490.2372	-0.0002
490.4368	-0.0005
490.6364	-0.0054
490.836	-0.0037
491.0355	-0.0004
491.2351	-0.0017
491.4346	-0.0003
491.6341	-0.004
491.8336	0.0064
492.0331	-0.0023
492.2326	0.0048
492.432	0.0028
492.6315	0.0059
492.8309	0.0057
493.0303	0.0044
493.2297	0.0027
493.4291	0.0003
493.6284	0.0095
493.8278	-0.0025
494.0271	0.0028
494.2264	0.0014
494.4257	0.0064
494.625	-0.0042
494.8243	-0.006
495.0236	-0.0015
495.2228	-0.0029
495.422	0.0026
495.6213	0.0056
495.8205	0.0069
496.0196	0.0043
496.2188	0.0005
496.418	0.0004
496.6171	0.0048
496.8162	0.0063
497.0153	0.0071
497.2144	-0.0038
497.4135	0.0056
497.6126	-0.004
497.8116	-0.0054
498.0107	0.0008
498.2097	0.0033
498.4087	-0.0006
498.6077	-0.0091
498.8067	-0.0026
499.0056	-0.0008
499.2046	-0.0009
499.4035	-0.0034
499.6024	-0.0059
499.8013	0.0065
500.0002	0.0041
500.199	0.0131
500.3979	0.0027
500.5967	-0.0059
500.7956	0.0059
500.9944	-0.0009
501.1932	0.0075
501.3919	0.0011
501.5907	0.0091
501.7895	0.0002
501.9882	-0.0025
502.1869	0.0116
502.3856	-0.0033
502.5843	0.0037
502.783	0.0006
502.9816	0.0036
503.1803	0.0009
503.3789	0.0014
503.5775	0.0017
503.7761	-0.0063
503.9747	0.0068
504.1732	0.0032
504.3718	0.009
504.5703	-0.0004
504.7689	-0.0042
504.9674	-0.0038
505.1658	-0.0038
505.3643	0.0026
505.5628	0.0087
505.7612	0.0088
505.9597	-0.0093
506.1581	-0.005
506.3565	-0
506.5549	-0.0044
506.7532	-0.0047
506.9516	0.0009
507.1499	-0.0005
507.3482	-0.0011
507.5465	-0.0071
507.7448	-0.0021
507.9431	-0.0055
508.1414	-0.0005
508.3396	-0.0089
508.5379	0.0002
508.7361	-0.0043
508.9343	0.0003
509.1325	0.004
509.3306	-0.0063
509.5288	-0.0078
509.7269	0.0016
509.9251	0.0051
510.1232	0.0044
510.3213	-0.0025
510.5193	-0.0065
510.7174	-0.0082
510.9154	-0
511.1135	-0.0005
511.3115	-0.0047
511.5095	0.0019
511.7075	-0.002
511.9055	0.0041
512.1034	0.0008
512.3014	0.0014
512.4993	0.0021
512.6972	-0.0012
512.8951	0.0008
513.093	-0.0044
513.2908	0.0019
513.4887	-0.0009
513.6865	-0.001
513.8844	0.0079
514.0822	-0.007
514.2799	-0.0119
514.4777	-0.0038
514.6755	-0.001
514.8732	0.0034
515.0709	0.0022
515.2687	-0.0052
515.4664	0.008
515.664	-0.0001
515.8617	0.0018
516.0594	-0.0015
516.257	0.0083
516.4546	0.0132
516.6522	-0.0002
516.8498	0.0001
517.0474	-0.005
517.2449	0.0056
517.4425	-0.0022
517.64	-0.0042
517.8375	0.0005
518.035	-0.0006
518.2325	-0.0127
518.43	0.0012
518.6274	-0.0026
518.8249	-0.0034
519.0223	0.0039
519.2197	-0.0027
519.4171	-0.0032
519.6145	0.0052
519.8118	-0.0119
520.0092	-0.014
520.2065	0.003
520.4038	-0.0145
520.6011	0.0013
520.7984	-0.0002
520.9956	-0.0055
521.1929	-0.011
521.3901	0.0011
521.5874	-0.0024
521.7846	-0.0088
521.9818	-0.0085
522.1789	-0.0149
522.3761	0.0039
522.5732	-0.0022
522.7704	-0.0102
522.9675	-0.0164
523.1646	-0.0055
523.3617	0.0014
523.5587	-0.003
523.7558	-0.0069
523.9528	-0.0065
524.1498	-0.0079
524.3468	-0.0003
524.5438	-0.0021
524.7408	-0.0069
524.9378	0.0015
525.1347	0.001
525.3316	-0.0016
525.5285	-0.0077
525.7254	-0.0063
525.9223	0.0015
526.1192	-0.011
526.316	0.0099
526.5129	-0.0117
526.7097	-0.0134
526.9065	0.0048
527.1033	-0.0066
527.3	-0.0035
527.4968	0.0038
527.6935	-0.0187
527.8903	0.0028
528.087	-0.0051
528.2837	0.0062
528.4804	-0.0036
528.677	0.0052
528.8737	-0.0005
529.0703	-0.0049
529.2669	0.0055
529.4635	-0.0162
529.6601	-0.0079
529.8567	-0.0148
530.0532	0.0001
530.2498	0.0017
530.4463	-0.0056
530.6428	0.0019
530.8393	0.0082
531.0358	-0.0057
531.2322	-0.0075
531.4287	0.0012
531.6251	-0.0165
531.8215	-0.0194
532.0179	0.005
532.2143	0.0106
532.4107	0.0017
532.607	-0.0032
532.8034	-0.0076
532.9997	-0.0084
533.196	-0.0034
533.3923	-0.0025
533.5886	-0.002
533.7848	-0.0092
533.9811	0.004
534.1773	0.003
534.3735	-0.0038
534.5697	-0.0066
534.7659	0.0034
534.9621	-0.0023
535.1582	-0.0019
535.3544	0.0069
535.5505	0.0061
535.7466	0.0056
535.9427	0.0043
536.1387	-0.019
536.3348	-0.008
536.5308	-0.0051
536.7269	-0.0069
536.9229	-0.0016
537.1189	0.0119
537.3148	-0.0052
537.5108	-0.0012
537.7068	0.0024
537.9027	-0.0142
538.0986	0.0092
538.2945	-0.0043
538.4904	-0.0119
538.6863	0.0012
538.8821	0.0126
539.078	-0.0051
539.2738	-0.003
539.4696	-0.0087
539.6654	0.0051
539.8611	-0.0014
540.0569	-0.0035
540.2526	0.0093
540.4484	-0.0089
540.6441	-0
540.8398	0.0053
541.0355	-0.0033
541.2311	-0.0072
541.4268	0.0051
541.6224	0.0005
541.818	-0.0037
542.0136	0.0099
542.2092	0.0066
542.4048	-0.0017
542.6003	0.0043
542.7959	0.0011
542.9914	0.0047
543.1869	-0.0019
543.3824	0.0074
543.5779	0.0104
543.7734	0.0073
543.9688	-0.0012
544.1642	-0.0037
544.3596	0.0031
544.555	-0.0013
544.7504	0.0104
544.9458	0.0011
545.1411	-0.0009
545.3365	-0.0037
545.5318	0.0072
545.7271	0.0079
545.9224	0.0061
546.1177	-0.0043
546.3129	-0.0028
546.5081	0.0004
546.7034	0.0034
546.8986	0.0011
547.0938	0.0134
547.289	0.0134
547.4841	0.0021
547.6793	0.0058
547.8744	0.0038
548.0695	0.0054
548.2646	0.007
548.4597	0.0007
548.6548	0.0062
548.8498	0.0098
549.0448	0.003
549.2399	0.01
549.4349	-0.0008
549.6298	0.0015
549.8248	-0.0034
550.0198	0.0087
550.2147	0.002
550.4096	-0.0057
550.6045	-0.0048
550.7994	0.0041
550.9943	0.0081
551.1892	-0.0112
551.384	0.0009
551.5788	0.0054
551.7737	0.0081
551.9685	0.0014
552.1632	0.0008
552.358	-0.0105
552.5528	0.0016
552.7475	0.0053
552.9422	0.0079
553.1369	0.0057
553.3316	-0.0047
553.5263	0.0051
553.7209	-0.0058
553.9156	0.0024
554.1102	0.0041
554.3048	-0.0017
554.4994	0.0011
554.694	0.0071
554.8885	-0.0041
555.0831	0.0061
555.2776	0.0049
555.4721	-0.0036
555.6666	0.0112
555.8611	-0.0002
556.0555	-0.0034
556.25	0.0028
556.4444	-0.0077
556.6388	-0.0005
556.8332	0.0085
557.0276	0.0003
557.222	-0.0028
557.4163	0.0046
557.6107	-0.0039
557.805	-0.0096
557.9993	0.0037
558.1936	-0.0103
558.3879	-0.0019
558.5821	-0.0195
558.7764	0.0026
558.9706	0.0003
559.1648	0.0065
559.359	-0.0035
559.5532	-0.0081
559.7473	0.0023
559.9415	0.0028
560.1356	0.0121
560.3297	-0.0093
560.5238	0.0072
560.7179	-0.0013
560.9119	-0.0058
561.106	-0.0076
561.3	0.0024
561.494	-0.008
561.688	0.0075
561.882	-0.0023
562.076	-0.0055
562.2699	0.0055
562.4639	0.0133
562.6578	0.0054
562.8517	0.0124
563.0456	0.0005
563.2395	0.0164
563.4333	0.0017
563.6272	0.0089
563.821	-0.0028
564.0148	0.0024
564.2086	-0.0084
564.4024	0.012
564.5961	0.0088
564.7899	0.0163
564.9836	0.0096
565.1773	0.0129
565.371	0.0091
565.5647	0.0045
565.7584	0.0107
565.952	0.0017
566.1456	-0.0004
566.3393	0.0059
566.5329	-0.0016
566.7264	0.0076
566.92	0.0093
567.1136	0.0002
567.3071	0.002
567.5006	0.0087
567.6941	0.0034
567.8876	0.0009
568.0811	0.022
568.2745	-0.0007
568.468	0.0094
568.6614	0.008
568.8548	0.0055
569.0482	0.0131
569.2416	0.0052
569.4349	0.0057
569.6283	0.0021
569.8216	0.0095
570.0149	0.0029
570.2082	0.0135
570.4015	0.0073
570.5947	0.0043
570.788	0.0059
570.9812	0.0024
571.1744	0.0055
571.3676	0.0005
571.5608	0.0042
571.754	0.0117
571.9471	0.0148
572.1402	0.0086
572.3333	0.0083
572.5264	0.0071
572.7195	0.0044
572.9126	0.0033
573.1057	0.0073
573.2987	0.0025
573.4917	0.0077
573.6847	0.005
573.8777	0.0152
574.0707	0.0074
574.2636	0.0083
574.4566	0.0041
574.6495	0.006
574.8424	0.0102
575.0353	0.0084
575.2281	0.0105
575.421	0.0091
575.6138	0.0047
575.8067	0.0089
575.9995	0.0083
576.1923	0.0068
576.385	0.0043
576.5778	0.0106
576.7706	0.0078
576.9633	0.0085
577.156	0.0038
577.3487	0.0076
577.5414	0.0074
577.734	0.0036
577.9267	0.0097
578.1193	0.0113
578.3119	0.0024
578.5045	0.0111
578.6971	0.0003
578.8897	0.0022
579.0822	0.014
579.2747	0.0038
579.4673	0.0077
579.6598	0.0066
579.8522	0.005
580.0447	0.0144
580.2372	0.0143
580.4296	0.0151
580.622	0.0036
580.8144	0.008
581.0068	0.0071
581.1992	0.0094
581.3915	0
581.5839	0.0075
581.7762	0.0025
581.9685	0.0068
582.1608	0.0118
582.353	0.008
582.5453	0.0107
582.7375	0.011
582.9298	0.0036
583.122	0.0001
583.3142	0.0046
583.5063	0.0028
583.6985	0.0031
583.8906	0.0061
584.0827	0.0044
584.2749	0.0063
584.4669	0.0055
584.659	0.0116
584.8511	0.012
585.0431	0.0084
585.2352	0.0115
585.4272	0.0065
585.6192	0.0085
585.8111	0.006
586.0031	0.0061
586.195	0.0089
586.387	0.0031
586.5789	0.0107
586.7708	0.0111
586.9627	0.0054
587.1545	0.0083
587.3464	0.0031
587.5382	0.0093
587.73	0.0097
587.9218	0.0031
588.1136	0.0013
588.3053	0.0044
588.4971	0.0062
588.6888	0.0072
588.8805	0.0036
589.0722	0.012
589.2639	0.0074
589.4556	0.0043
589.6472	0.0079
589.8389	0.005
590.0305	0.0006
590.2221	0.0058
590.4137	0.0061
590.6052	0.0079
590.7968	-0.0016
590.9883	0.0064
591.1798	0.0062
591.3713	0.0093
591.5628	0.011
591.7543	0.0059
591.9458	0.0142
592.1372	0.0065
592.3286	0.001
592.52	0.007
592.7114	0.0086
592.9028	0.0142
593.0941	0.0049
593.2855	0.0075
593.4768	0.0122
593.6681	0.0107
593.8594	0.0095
594.0506	0.0012
594.2419	0.0073
594.4331	0.001
594.6244	0.0038
594.8156	0.0077
595.0067	0.0015
595.1979	0.0021
595.3891	0.0055
595.5802	0.0078
595.7713	0.009
595.9624	0.0159
596.1535	0.0046
596.3446	0.0056
596.5357	0.0044
596.7267	0.0021
596.9177	0.01
597.1087	0.0048
597.2997	0.0045
597.4907	0.0035
597.6817	0.0149
597.8726	0.0085
598.0635	0.0003
598.2544	0.0106
598.4453	0.0103
598.6362	0.0067
598.827	0.0081
599.0179	0.0075
599.2087	0.0106
599.3995	0.008
599.5903	0.0122
599.7811	0.0147
599.9718	0.0069
600.1626	0.0067
600.3533	0.0071
600.544	0.0074
600.7347	0.0077
600.9254	0.0098
601.116	0.0076
601.3067	0.0101
601.4973	0.008
601.6879	0.0067
601.8785	0.0099
602.0691	0.0013
602.2596	0.0113
602.4502	0.0087
602.6407	0.0078
602.8312	0.0072
603.0217	0.0108
603.2122	0.0094
603.4027	0.0062
603.5931	0.0056
603.7835	0.0052
603.9739	0.0003
604.1643	0.0139
604.3547	0.0103
604.5451	0.0134
604.7354	-0
604.9257	0.0022
605.116	0.0029
605.3063	0.0126
605.4966	0.0064
605.6869	0.01
605.8771	0.0085
606.0673	0.0086
606.2575	0.0012
606.4477	0.016
606.6379	0.0064
606.8281	0.007
607.0182	0.0043
607.2083	0.0084
607.3985	0.0095
607.5885	0.0007
607.7786	0.0038
607.9687	0.0069
608.1587	0.0081
608.3488	0.0022
608.5388	0.0051
608.7288	0.0044
608.9187	0.0078
609.1087	0.0113
609.2986	0.0099
609.4886	-0.0003
609.6785	0.0076
609.8684	-0.0036
610.0582	0.0018
610.2481	0.0039
610.4379	0.0121
610.6278	0.0099
610.8176	0.0067
611.0074	0.0087
611.1971	0.0039
611.3869	0.0065
611.5766	-0.0029
611.7664	0.0107
611.9561	0.0041
612.1458	0.0175
612.3354	0.0081
612.5251	0.0033
612.7147	0.0168
612.9044	-0.0013
613.094	0.0104
613.2836	0.0015
613.4731	0.0103
613.6627	0.0075
613.8522	0.0096
614.0417	0.0106
614.2313	0.0041
614.4207	0.0163
614.6102	0.0093
614.7997	0.0119
614.9891	0.0091
615.1785	0.0034
615.3679	0.005
615.5573	0.0071
615.7467	0.0014
615.9361	0.0101
616.1254	0.0136
616.3147	0.012
616.504	0.0123
616.6933	0.0071
616.8826	0.0078
617.0718	0.0136
617.2611	0.0062
617.4503	0.0001
617.6395	0.0089
617.8287	0.0063
618.0179	0.0064
618.207	0.0107
618.3961	0.0044
618.5853	0.0145
618.7744	0.0153
618.9634	0.0111
619.1525	0.0038
619.3416	0.0047
619.5306	0.0106
619.7196	0.0156
619.9086	0.0097
620.0976	0.0008
620.2866	0.0067
620.4755	-0.006
620.6645	0.0179
620.8534	0.0115
621.0423	0.0035
621.2312	-0.0039
621.42	0.0036
621.6089	0.0013
621.7977	0.0147
621.9865	0.0088
622.1753	0.0025
622.3641	0.0019
622.5529	-0
622.7416	0.0026
622.9303	0.0097
623.1191	0.0074
623.3078	0.0098
623.4964	0.0107
623.6851	-0.0002
623.8737	0.0049
624.0624	-0.005
624.251	0.0033
624.4396	-0
624.6282	0.0154
624.8167	0.0068
625.0053	0.0118
625.1938	0.0054
625.3823	0.0114
625.5708	-0.002
625.7593	0.0033
625.9477	0.0052
626.1362	0.0037
626.3246	0.0077
626.513	0.0115
626.7014	0.0182
626.8898	0.0125
627.0781	0.0039
627.2665	0.0111
627.4548	-0.0035
627.6431	0.0105
627.8314	0.0149
628.0197	0.0101
628.2079	-0.0058
628.3962	0.0143
628.5844	0.0117
628.7726	0.0033
628.9608	0.0178
629.1489	0.0168
629.3371	0.0019
629.5252	0.0003
629.7134	0.0033
629.9015	0.019
630.0895	-0.0101
630.2776	0.0132
630.4657	0.0096
630.6537	0.0127
630.8417	-0.0038
631.0297	0.0054
631.2177	0.0169
631.4057	0.0056
631.5936	-0.006
631.7815	0.0051
631.9695	0.0294
632.1574	0.008
632.3452	0.012
632.5331	0.0061
632.7209	0.0001
632.9088	0.0044
633.0966	0.0314
633.2844	0.0214
633.4722	-0.0001
633.6599	0.0177
633.8477	0.0198
634.0354	0.0092
634.2231	-0.0028
634.4108	-0.0073
634.5985	0.0068
634.7861	0.011
634.9738	0.003
635.1614	0.0035
635.349	0.0021
635.5366	0.0102
635.7242	0.0029
635.9117	0.0077
636.0993	0.0142
636.2868	0.0078
636.4743	0.0118
636.6618	-0.0044
636.8492	0.008
637.0367	0.0003
637.2241	0.0087
637.4115	0.0249
637.5989	0.0068
637.7863	0.0197
637.9737	0.0052
638.161	0.0225
638.3484	-0.005
638.5357	0.0021
638.723	0.0165
638.9103	-0.0046
639.0975	0.0039
639.2848	0.0122
639.472	0.0062
639.6592	-0.0128
639.8464	-0.0066
640.0336	0.0128
640.2208	-0.0036
640.4079	0.0023
640.595	-0.0031
640.7821	0.0153
640.9692	0.002
641.1563	0.0093
641.3434	0.0117
641.5304	0.0196
641.7174	0.0143
641.9044	0.0176
642.0914	0.0145
642.2784	0.0025
642.4653	-0.0028
642.6523	0.0032
642.8392	-0.0032
643.0261	0.0094
643.213	0.0097
643.3999	0.0218
643.5867	0.0189
643.7735	-0.0068
643.9604	0.0133
644.1472	0.0103
644.3339	0.0149
644.5207	0.0004
644.7075	0.0074
644.8942	-0.0052
645.0809	0.0082
645.2676	-0.0011
645.4543	-0.0075
645.6409	0.0324
645.8276	0.0142
646.0142	0.0103
646.2008	0.0082
646.3874	-0.0177
646.574	-0.021
646.7605	0.0022
646.9471	-0.0045
647.1336	-0.0091
647.3201	0.0073
647.5066	0.0091
647.6931	-0.0009
647.8795	0.0039
648.0659	0.0089
648.2524	0.0083
648.4388	0.008
648.6252	0.0281
648.8115	0.0011
648.9979	0.009
649.1842	-0.0007
649.3705	0.0186
649.5568	-0.0175
649.7431	0.0017
649.9294	-0.0017
650.1156	-0.0088
650.3018	0.0175
650.488	0.011
650.6742	0.0083
650.8604	0.0183
651.0466	0.0053
651.2327	0.0104
651.4188	0.0176
651.6049	0.0148
651.791	0.0034
651.9771	0.0095
652.1632	0.009
652.3492	0.0037
652.5352	0.0105
652.7212	0.0037
652.9072	-0.0001
653.0932	0.0092
653.2791	0.0048
653.465	-0.0051
653.651	0.0095
653.8369	0.0085
654.0227	0.0064
654.2086	0.0091
654.3944	0.012
654.5803	0.0046
654.7661	0.0044
654.9519	0.0014
655.1377	0
655.3234	0
655.5092	0
655.6949	0
655.8806	0
656.0663	0
656.2519	0
656.4376	0
656.6232	0
656.8088	0
656.9945	0
657.18	0
657.3656	0
657.5511	0
657.7367	0
657.9222	0
658.1077	0
658.2932	0
658.4786	0
658.6641	0
658.8495	0
659.0349	0
659.2203	0
659.4057	0.0188
659.591	0.2955
659.7764	0.0288
659.9617	0.0029
660.147	-0.0051
660.3323	0.0123
660.5176	0.0105
660.7028	0.006
660.888	0.0091
661.0733	0.0091
661.2585	-0.0117
661.4436	0.0038
661.6288	0.0165
661.8139	-0.0046
661.9991	-0.0184
662.1842	-0.003
662.3693	0.0037
662.5544	0.0394
662.7394	0.03
662.9245	0.0032
663.1095	-0.0105
663.2945	-0.0046
663.4795	-0.0036
663.6644	-0.0011
663.8494	0.0179
664.0343	0.0076
664.2193	-0.011
664.4042	0.0088
664.589	-0.0066
664.7739	0.0103
664.9587	0.0163
665.1436	-0.0042
665.3284	-0.0006
665.5132	-0.0215
665.698	0.0146
665.8827	0.0127
666.0675	-0.0064
666.2522	0.003
666.4369	-0.0167
666.6216	0.0218
666.8063	0.0189
666.9909	-0.0035
667.1756	-0.0057
667.3602	0.0058
667.5448	0.026
667.7294	-0.0007
667.9139	-0.0039
668.0985	0.0053
668.283	0.0099
668.4675	0.0219
668.652	0.017
668.8365	0.0029
669.0209	0.013
669.2054	0.0047
669.3898	-0.0141
669.5742	0.0202
669.7586	0.0205
669.943	-0.0001
670.1273	0.0024
670.3117	0.0079
670.496	0.0162
670.6803	0.013
670.8646	-0.0039
671.0488	0.029
671.2331	-0.0127
671.4173	0.0049
671.6015	0.0056
671.7857	0.0066
671.9699	0.0203
672.1541	0.0018
672.3382	0.0034
672.5223	0.0094
672.7064	0.0095
672.8905	-0.0117
673.0746	0.0106
673.2587	0.0215
673.4427	0.0116
673.6267	0.007
673.8107	0.03
673.9947	0.0222
674.1787	-0.0043
674.3626	0.0211
674.5465	0.004
674.7304	0.0028
674.9143	0.0047
675.0982	0.0124
675.2821	-0.0098
675.4659	0.0089
675.6497	0.0311
675.8335	0.009
676.0173	0.0058
676.2011	0.0228
676.3849	-0.0079
676.5686	-0.0014
676.7523	-0.0204
676.936	-0.0158
677.1197	-0.0099
677.3034	0.0313
677.487	0.01
677.6706	0.0215
677.8542	-0.009
678.0378	0.0173
678.2214	0.0006
678.405	0.0149
678.5885	0.0085
678.772	0.0091
678.9555	0.0139
679.139	0.0169
679.3225	0.0228
679.5059	-0.0101
679.6894	0.0136
679.8728	0.0059
680.0562	0.0092
680.2395	-0.0008
680.4229	0.0034
680.6062	0.0065
680.7896	-0.0119
680.9729	0.016
681.1562	0.0043
681.3394	-0.0037
681.5227	0.0094
681.7059	0.0079
681.8891	0.0226
682.0723	-0.003
682.2555	-0.001
682.4387	0.0133
682.6218	0.0203
682.805	0.0192
682.9881	0.0094
683.1712	0.0002
683.3542	0.0085
683.5373	0.0023
683.7203	0.0096
683.9034	-0.0014
684.0864	0.0187
684.2694	-0.0028
684.4523	0.0174
684.6353	0.0104
684.8182	0.0056
685.0011	0.005
685.184	0.0013
685.3669	0.0244
685.5498	0.0045
685.7326	0.0022
685.9154	0.0011
686.0982	0.0163
686.281	-0.0018
686.4638	0.0168
686.6465	-0.0131
686.8293	0.0029
687.012	0.0248
687.1947	0.016
687.3774	0.0004
687.56	-0.0191
687.7427	0.0124
687.9253	-0.0122
688.1079	0.0005
688.2905	0.0293
688.4731	0.0366
688.6556	0.0067
688.8382	-0.0273
689.0207	0.0306
689.2032	0.0172
689.3857	-0.0001
689.5681	0.0041
689.7506	0.0175
689.933	-0.0143
690.1154	0.0332
690.2978	0.003
690.4802	0.0377
690.6626	0.016
690.8449	0.0129
691.0272	0.0085
691.2095	-0.0185
691.3918	0.0094
691.5741	0.015
691.7563	0.015
691.9386	0.0186
692.1208	-0.0033
692.303	-0.0016
692.4852	0.01
692.6673	0.0044
692.8495	-0.0133
693.0316	0.0023
693.2137	0.0038
693.3958	0.0221
693.5778	0.0058
693.7599	0.0062
693.9419	0.0048
694.1239	-0.0113
694.3059	0.0119
694.4879	0.0005
694.6699	0.0005
694.8518	0.0039
695.0337	0.0109
695.2157	0.0205
695.3975	0.0178
695.5794	-0.0254
695.7613	0.0243
695.9431	-0.0037
696.1249	0.0062
696.3067	-0.0135
696.4885	0.012
696.6703	0.005
696.852	0.0011
697.0337	0.0169
697.2154	0.017
697.3971	0.0071
697.5788	0.0129
697.7605	0.0146
697.9421	0.018
698.1237	0.0084
698.3053	-0.0035
698.4869	-0.003
698.6685	0.0035
698.85	0.0063
699.0315	-0.0133
699.213	0.0042
699.3945	-0.0092
699.576	0.0232
699.7575	0.0524
699.9389	-0.0013
700.1203	0.0124
700.3017	-0.0052
700.4831	0.0367
700.6645	0.031
700.8458	-0.0168
701.0271	0.0099
701.2084	0.0182
701.3897	0.0135
701.571	-0.0168
701.7523	0.0086
701.9335	0.0195
702.1147	0.0228
702.2959	-0.0062
702.4771	0.032
702.6583	0.0249
702.8394	-0.0131
703.0205	0.0069
703.2016	-0.0083
703.3827	-0.0051
703.5638	0.0133
703.7449	0.0244
703.9259	0.0302
704.1069	-0.0095
704.2879	-0.0017
704.4689	0.0178
704.6499	0.0175
704.8308	0.0125
705.0117	0.0191
705.1927	0.0384
705.3735	0.0225
705.5544	0.0163
705.7353	-0.0262
705.9161	-0.0458
706.0969	0.0134
706.2777	0.0111
706.4585	0.0098
706.6393	0.0239
706.82	0.0165
707.0007	-0.0083
707.1815	0.001
707.3621	0.0214
707.5428	0.007
707.7235	-0.0013
707.9041	0.0208
708.0847	0.0166
708.2653	0.0306
708.4459	0.0225
708.6265	-0.0179
708.807	0.0104
708.9875	0.0013
709.168	0.0027
709.3485	0.018
709.529	0.007
709.7095	-0.0049
709.8899	0.0091
710.0703	0.029
710.2507	0.0021
710.4311	-0.0109
710.6115	0.0147
710.7918	0.0108
710.9721	0.0083
711.1524	-0.0111
711.3327	-0.0268
711.513	0.0112
711.6932	-0.0106
711.8735	0.0198
712.0537	-0.0173
712.2339	0.0325
712.4141	0.0365
712.5942	-0.0008
712.7744	0.0069
712.9545	0.0361
713.1346	0.0286
713.3147	0.0311
713.4947	0.0029
713.6748	0.0055
713.8548	0.0164
714.0348	0.0168
714.2148	-0.01
714.3948	0.0222
714.5748	0.0378
714.7547	0.0202
714.9346	0.013
715.1145	0.0032
715.2944	-0.0377
715.4743	0.0133
715.6541	-0.0178
715.834	0.0703
716.0138	-0.0049
716.1936	0.0227
716.3733	0.0299
716.5531	0.0129
716.7328	0.0331
716.9126	0.0183
717.0923	-0.0253
717.2719	0.0123
717.4516	-0.0005
717.6312	0.0058
717.8109	0.0214
717.9905	-0.0008
718.1701	0.0171
718.3496	-0.0033
718.5292	0.0183
718.7087	0.0381
718.8882	0.0153
719.0677	-0.0016
719.2472	0.0013
719.4267	0.0196
719.6061	-0.0132
719.7856	0.0348
719.965	-0.0043
720.1443	0.0018
720.3237	-0.0145
720.5031	0.0025
720.6824	-0.005
720.8617	-0.0057
721.041	0.047
721.2203	-0.0268
721.3995	0.021
721.5788	0.0208
721.758	0.0104
721.9372	0.0015
722.1164	0.0112
722.2956	0.0187
722.4747	0.0172
722.6538	-0.0178
722.8329	0.0085
723.012	0.0159
723.1911	-0.0014
723.3702	0.0111
723.5492	0.0209
723.7282	0.0246
723.9072	0.0394
724.0862	-0.0155
724.2652	0.0169
724.4441	-0.0098
724.623	0.0241
724.8019	0.0185
724.9808	0.0255
725.1597	-0.0001
725.3385	0.0206
725.5174	0.0012
725.6962	0.0266
725.875	0.0015
726.0538	0.0143
726.2325	0.0266
726.4112	0.0082
726.59	-0.0145
726.7687	0.0112
726.9474	0.021
727.126	0.0441
727.3047	0.0042
727.4833	0.0075
727.6619	-0.0037
727.8405	0.0075
728.0191	0.0374
728.1976	0.0113
728.3762	0.0078
728.5547	0.001
728.7332	0.0072
728.9116	0.0074
729.0901	0.005
729.2686	0.0185
729.447	-0.002
729.6254	0.011
729.8038	0.0238
729.9821	-0.0107
730.1605	0.0335
730.3388	0.0105
730.5171	0.0211
730.6954	-0.0223
730.8737	0.0096
731.0519	-0.0061
731.2302	0.0117
731.4084	0.0049
731.5866	-0.0058
731.7648	-0.0125
731.9429	0.0228
732.1211	0.0104
732.2992	0.0101
732.4773	0.0056
732.6554	0.0108
732.8335	0.0098
733.0115	0.0193
733.1896	-0.0022
733.3676	0.0174
733.5456	0.0185
733.7235	-0.0021
733.9015	0.0116
734.0794	-0.0044
734.2574	-0.0199
734.4353	0.0195
734.6131	0.0027
734.791	-0.0092
734.9689	-0.0116
735.1467	-0.0126
735.3245	0.0072
735.5023	0.0084
735.68	0.0143
735.8578	0.0146
736.0355	0.0167
736.2132	0.0112
736.3909	0.0273
736.5686	-0.0001
736.7463	0.0019
736.9239	0.0229
737.1015	0.0226
737.2791	0.0144
737.4567	0.011
737.6343	0.0042
737.8118	0.0059
737.9894	-0.0119
738.1669	-0.0051
738.3444	0.0423
738.5218	-0.0104
738.6993	0.012
738.8767	-0.0033
739.0541	-0.0023
739.2315	0.0253
739.4089	0.0375
739.5863	0.0079
739.7636	0.0153
739.9409	0.0169
740.1182	0.0104
740.2955	0.0376
740.4728	-0.0032
740.65	0.0064
740.8272	0.0541
741.0044	-0.0075
741.1816	0.0362
741.3588	-0.0349
741.5359	-0.011
741.7131	0.0003
741.8902	0.0074
742.0673	-0.0075
742.2444	0.0295
742.4214	-0.0072
742.5985	0.0019
742.7755	0.0046
742.9525	-0.019
743.1295	-0.0289
743.3064	-0.0102
743.4834	-0.02
743.6603	0.0526
743.8372	-0.0427
744.0141	0.0159
744.191	0.0319
744.3678	-0.0429
744.5446	-0.0019
744.7215	0.0007
744.8982	0.011
745.075	0.0606
745.2518	0.0072
745.4285	0.0521
745.6052	-0.0254
745.7819	-0.0139
745.9586	0.0067
746.1353	-0.0235
746.3119	0.021
746.4885	0.0179
746.6651	0.0315
746.8417	-0.001
747.0183	0.0518
747.1948	0.0038
747.3714	0.018
747.5479	0.0301
747.7244	-0.0002
747.9008	-0.0235
748.0773	0.0717
748.2537	0.0396
748.4301	-0.0078
748.6065	0.0197
748.7829	-0.0129
748.9593	-0.0088
749.1356	-0.0093
749.3119	0.0012
749.4882	0.0272
749.6645	-0.0034
749.8408	0.03
750.017	0.0157
750.1933	-0.0196
750.3695	0.0098
750.5457	0.005
750.7218	0.0099
750.898	-0.0088
751.0741	0.0009
751.2502	0.0172
751.4263	0.0005
751.6024	0.0245
751.7784	-0.0043
751.9545	0.0021
752.1305	0.0208
752.3065	-0.0055
752.4825	0.0075
752.6584	0.0113
752.8344	0.0006
753.0103	-0.0062
753.1862	0.0193
753.3621	0.0025
753.5379	-0.0104
753.7138	0.0053
753.8896	0.0098
754.0654	0.0228
754.2412	0.0104
754.417	0.0237
754.5927	0.012
754.7685	-0.0029
754.9442	0.0304
755.1199	0.0144
755.2956	0.0196
755.4712	0.02
755.6469	0.0139
755.8225	0.0103
755.9981	0.0201
756.1736	0.0076
756.3492	-0.0025
756.5248	0.0128
756.7003	-0.0145
756.8758	0.0238
757.0513	0.0117
757.2267	0.0143
757.4022	0.0013
757.5776	-0.0062
757.753	0.0225
757.9284	0.0159
758.1038	0.02
758.2791	0.0083
758.4545	-0.0072
758.6298	0.0124
758.8051	-0.0068
758.9803	0.0045
759.1556	-0.0003
759.3308	0.0031
759.506	-0.0075
759.6812	0.0088
759.8564	-0.0022
760.0316	0.0012
760.2067	0.0216
760.3819	0.0048
760.557	-0.0045
760.732	0.024
760.9071	0.0252
761.0821	0.0002
761.2572	0.0177
761.4322	0.0077
761.6072	0.0119
761.7821	-0.0352
761.9571	0.0031
762.132	0.0083
762.3069	0.0024
762.4818	0.043
762.6567	0.0087
762.8316	0.0318
763.0064	0.0169
763.1812	0.0141
763.356	-0.0112
763.5308	0.0281
763.7055	-0.0204
763.8803	-0.0059
764.055	0.0066
764.2297	0.016
764.4044	0.0071
764.579	0.0122
764.7537	0.0051
764.9283	0.0239
765.1029	0.0175
765.2775	0.0201
765.4521	0.0064
765.6266	0.0142
765.8011	0.0193
765.9756	0.0057
766.1501	0.0088
766.3246	0.0062
766.4991	0.0051
766.6735	0.0296
766.8479	-0.0174
767.0223	0.0036
767.1967	-0.008
767.371	0.0242
767.5454	0.039
767.7197	0.0415
767.894	-0.0025
768.0683	0.0354
768.2425	0.0229
768.4168	0.0093
768.591	0.0185
768.7652	0.0215
768.9394	-0.0107
769.1135	-0.0217
769.2877	0.007
769.4618	0.031
769.6359	-0.0112
769.81	0.0065
769.984	0.0109
770.1581	-0.0064
770.3321	0.0379
770.5061	0.0067
770.6801	0.0107
770.8541	0.0185
771.028	0.0609
771.202	0.0156
771.3759	-0.0063
771.5498	0.0415
771.7236	0.0186
771.8975	0.0271
772.0713	0.0538
772.2451	-0.0234
772.4189	-0.0088
772.5927	-0.0138
772.7665	-0.0086
772.9402	0.0313
773.1139	-0.0067
773.2876	-0.0232
773.4613	0.0259
773.635	0.0236
773.8086	0.0289
773.9822	0.0367
774.1558	0.0414
774.3294	-0.0009
774.503	-0.0044
774.6765	0.0337
774.8501	0.0309
775.0236	0.048
775.1971	0.0044
775.3705	-0.014
775.544	-0.0226
775.7174	0.0417
775.8908	0.0148
776.0642	0.0225
776.2376	0.021
776.4109	0.0058
776.5843	-0.0234
776.7576	0.0304
776.9309	0.0454
777.1041	-0.0012
777.2774	-0.0133
777.4506	-0.0113
777.6238	-0.0124
777.797	0.0162
777.9702	0.0254
778.1434	0.0035
778.3165	-0.0424
778.4896	0.0059
778.6627	0.004
778.8358	-0.0216
779.0089	0.0213
779.1819	0.0338
779.3549	0.0021
779.5279	-0.0423
779.7009	0.0341
779.8739	0.0804
780.0468	0.0005
780.2197	0.0265
780.3926	-0.0061
780.5655	0.0108
780.7384	0.0081
780.9112	0.0704
781.0841	0.0226
781.2569	0.0201
781.4297	0.0184
781.6024	0.0222
781.7752	0.0403
781.9479	0.0172
782.1206	-0.0228
782.2933	0.0189
782.466	-0.007
782.6386	0.0155
782.8113	0.0188
782.9839	-0.0106
783.1565	0.0015
783.329	-0.0172
783.5016	0.0466
783.6741	-0.0128
783.8466	0.025
784.0191	0.0353
784.1916	0.0125
784.3641	-0.0243
784.5365	-0.0137
784.7089	0.0006
784.8813	0.0327
785.0537	0.0436
785.2261	0.032
785.3984	0.0032
785.5707	-0.0183
785.743	0.0415
785.9153	-0.024
786.0876	-0.0311
786.2598	-0.0025
786.432	0.0164
786.6042	0.0787
786.7764	-0.019
786.9486	-0.0418
787.1207	0.0245
787.2928	0.0629
787.4649	-0.0198
787.637	0.0136
787.8091	0.0232
787.9811	-0.0057
788.1532	0.0331
788.3252	0.0158
788.4972	0.0065
788.6691	-0.0037
788.8411	-0.0202
789.013	0.0242
789.1849	-0.0087
789.3568	0.0053
789.5287	0.0408
789.7005	-0.0161
789.8723	0.0149
790.0442	-0.0474
790.2159	0.0318
790.3877	0.0377
790.5595	0.0841
790.7312	-0.0218
790.9029	-0.0064
791.0746	0.0277
791.2463	-0.0559
791.4179	-0.0396
791.5896	0.0007
791.7612	0.0017
791.9328	-0.0736
792.1044	0.0053
792.2759	-0.0349
792.4474	0.0174
792.619	0.0763
792.7905	0.017
792.9619	0.0654
793.1334	0.0454
793.3048	0.0606
793.4762	0.0099
793.6476	-0.0523
793.819	0.0024
793.9904	-0.0429
794.1617	-0.0208
794.333	0.0062
794.5043	0.0554
794.6756	0.026
794.8469	0.0242
795.0181	0.001
795.1893	0.0699
795.3605	0.0147
795.5317	-0.0353
795.7029	-0.0119
795.874	0.0044
796.0452	0.0204
796.2163	0.1157
796.3873	0.1146
796.5584	0.0011
796.7294	-0.0334
796.9005	0.001
797.0715	0.0495
797.2425	0.0873
797.4134	0.0466
797.5844	0.0264
797.7553	-0.0561
797.9262	0.065
798.0971	0.0525
798.2679	-0.0353
798.4388	0.0484
798.6096	0.0409
798.7804	0.0324
798.9512	0.0502
799.122	-0.0557
799.2927	0.0676
799.4635	-0.0415
799.6342	-0.0301
799.8049	0.029
799.9755	0.0314
800.1462	0.0306
800.3168	-0.0057
800.4874	-0.0865
800.658	0.0294
800.8286	0.0152
800.9991	-0.0036
801.1696	-0.03
801.3402	-0.0278
801.5106	0.0078
801.6811	0.0231
801.8516	0.0467
802.022	-0.0297
802.1924	-0.0571
802.3628	0.0809
802.5332	0.0263
802.7035	0.0272
802.8739	0.0486
803.0442	-0.0189
803.2145	-0.0022
803.3847	-0.0082
803.555	0.0009
803.7252	-0.033
803.8954	-0.0427
804.0656	0.0086
804.2358	-0.0322
804.4059	0.098
804.5761	0.041
804.7462	-0.0448
804.9163	0.0458
805.0864	-0.0636
805.2564	-0.0351
805.4264	-0.0022
805.5965	0.0486
805.7665	-0.011
805.9364	0.0105
806.1064	0.0102
806.2763	0.0646
806.4462	0.0414
806.6161	0.0006
806.786	0.0017
806.9559	0.0351
807.1257	-0.0372
807.2955	0.0422
807.4653	0.0995
807.6351	-0.0065
807.8048	0.0219
807.9746	0.0199
808.1443	-0.0098
808.314	0.0336
808.4837	0.0174
808.6533	-0.0036
808.8229	-0.0046
808.9926	0.0233
809.1622	0.0414
809.3317	-0.0569
809.5013	-0.0202
809.6708	-0.0247
809.8403	-0.0117
810.0098	-0.0076
810.1793	0.0185
810.3488	-0.0064
810.5182	0.1223
810.6876	0.0963
810.857	-0.0507
811.0264	-0.0181
811.1958	0.0763
811.3651	0.0334
811.5344	0.049
811.7037	-0.0773
811.873	0.07
812.0422	-0.0531
812.2115	0.0207
812.3807	-0.0671
812.5499	-0.0356
812.7191	-0.063
812.8882	-0.0042
813.0574	0.0696
813.2265	0.0359
813.3956	-0.0089
813.5646	0.0015
813.7337	0.0252
813.9027	-0.0227
814.0718	0.0066
814.2407	0.0225
814.4097	0.1069
814.5787	0.1325
814.7476	0.0343
814.9165	0.026
815.0854	0.0623
815.2543	-0.0123
815.4232	0.0886
815.592	-0.0346
815.7608	-0.1172
815.9296	0.0783
816.0984	0.067
816.2671	-0.2242
816.4359	0.0704
816.6046	-0.007
816.7733	-0.0079
816.942	-0.0698
817.1106	0.102
817.2793	-0.0095
817.4479	-0.0496
817.6165	0.1139
817.785	0.0393
817.9536	-0.1175
818.1221	0.0183
818.2906	-0.1073
818.4591	0.0714
818.6276	0.0016
818.7961	-0.0766
818.9645	0.0447
819.1329	0.0712
819.3013	-0.0603
819.4697	0.0037
819.638	0.3423
819.8064	0.0022
819.9747	0.1451
820.143	0.0624
820.3113	0.028
820.4795	0.0479
820.6477	0.1055
820.816	0.0443
820.9842	0.0566
821.1523	-0.055
821.3205	-0.0262
821.4886	-0.1383
821.6567	-0.0506
821.8248	0.0132
821.9929	-0.1021
822.1609	0.1492
822.329	0.002
822.497	0.0485
822.665	0.012
822.833	-0.044
823.0009	-0.0381
823.1688	0.2193
823.3367	-0.1872
823.5046	0.0697
823.6725	-0.135
823.8404	0.2766
824.0082	0.0023
824.176	-0.0115
824.3438	0.1718
824.5116	-0.0635
824.6793	-0.0009
824.847	0.1573
825.0147	0.1306
825.1824	-0.0011
825.3501	-0.0916
825.5177	-0.0833
825.6854	-0.0834
825.853	0.0166
826.0206	-0.0738
826.1881	0.1336
826.3557	-0.0932
826.5232	0.1818
826.6907	0.1142
826.8582	-0.0181
827.0257	0.0022
827.1931	0.1044
827.3605	0.1015
827.528	-0.0775
827.6953	-0.1944
827.8627	-0.0126
828.03	0.0222
828.1974	-0.1401
828.3647	0.0416
828.532	-0.0105
828.6992	0.0967
828.8665	-0.1595
829.0337	-0.083
829.2009	-0.1174
829.3681	-0.1099
829.5352	-0.2509
829.7024	0.3458
829.8695	-0.034
830.0366	0.24
830.2037	0.0719
830.3707	0.1271
830.5378	0.057
830.7048	0.1522
830.8718	0.2628
831.0388	-0.007
831.2057	-0.1211
831.3727	-0.2525
831.5396	0.1466
831.7065	-0.8354
831.8734	0.162
832.0402	0.125
832.2071	-0.6759
832.3739	-0.2097
832.5407	-2.0531
832.7075	-0.3065
832.8742	0.0657
833.041	0.5687
833.2077	-0.0304
833.3744	-0.1213
833.541	0.0526
833.7077	-0.1571
833.8743	0.0113
834.0409	0.0647
834.2075	0.0904
834.3741	-0.2014
834.5407	0.0596
834.7072	-0.0395
834.8737	0.1979
835.0402	0.1024
835.2067	0.1363
835.3731	-0.0571
835.5395	-0.0157
835.706	-0.2336
835.8723	0.1192
836.0387	-0.1571
836.2051	0.4085
836.3714	0.4246
836.5377	0.0657
836.704	0.0123
836.8703	0.0798
837.0365	-0.6632
837.2027	0.5352
837.3689	0.3771
837.5351	0.0412
837.7013	-0.0924
837.8674	-0.4786
838.0335	-0.142
838.1997	0.0446
838.3657	1.5265
838.5318	-0.3302
838.6978	-0
838.8639	-0.5227
839.0299	-0.1256
839.1958	0.0417
839.3618	0.4368
839.5277	0.0239
839.6937	-0.0705
839.8596	-0.1152
840.0254	0.0799
840.1913	-0.5913
840.3571	-0.0843
840.523	-0
840.6888	-0.0141
840.8545	-0.415
841.0203	0.0992
841.186	-0.1509
841.3517	-0.1573
841.5174	0.1181
841.6831	0.3475
841.8488	-0.0427
842.0144	0.2356
842.18	0.189
842.3456	-0.663
842.5112	-0
842.6767	-0.1763
842.8422	-0.0924
843.0077	0.0636
843.1732	-0.4101
843.3387	0.0671
843.5042	-0
843.6696	-0.3694
843.835	0.1253
844.0004	-0.126
844.1657	-0
844.3311	-0.3114
844.4964	-0.3196
844.6617	0.1632
844.827	-0
844.9923	0.1203
845.1575	-0.4022
845.3227	-0.267
845.4879	-0.3796
845.6531	0.1734
845.8183	0.1873
845.9834	-0
846.1485	0.3549
846.3136	-0.1567
846.4787	-0
846.6438	0.0671
846.8088	-0.032
846.9738	-0.45
847.1388	0.1009
847.3038	-0.0093
847.4687	-0
847.6337	-0.878
847.7986	-0.3269
847.9635	-0.2777
848.1284	-0
848.2932	0.5713
848.458	-0
848.6228	0.1333
848.7876	1.1532
848.9524	0.8505
849.1172	-2.0531
849.2819	-0
849.4466	0.1566
849.6113	0.0864
849.7759	-0
849.9406	0.1353
850.1052	-1.1412
850.2698	2.3201
850.4344	-0
850.599	-0.3634
850.7635	-0
850.928	0.392
851.0925	0.2676
851.257	-0.1939
851.4215	-0.1047
851.5859	0.1846
851.7503	-0
851.9147	-0.4688
852.0791	0.2581
852.2434	-0.0212
852.4078	-0
852.5721	1.7152
852.7364	0.4171
852.9007	0.4935
853.0649	-0
853.2291	-0.087
853.3934	-0.0592
853.5575	-0.2505
853.7217	0.0642
853.8859	1.0624
854.05	-0.5396
854.2141	0.5733
854.3782	-0.5554
854.5423	-0.0541
854.7063	0.4399
854.8703	-0.0385
855.0343	-0.0948
855.1983	0.0051
855.3623	0.0056
855.5262	-0
855.6901	0.3508
855.854	0.075
856.0179	0.267
856.1818	0.7506
856.3456	0.279
856.5094	-0.6452
856.6732	0.2898
856.837	-1.2498
857.0008	-0
857.1645	0.1182
857.3282	-0.1963
857.4919	0.2019
857.6556	-0.5804
857.8192	-0.0249
857.9828	-0.2192
858.1465	-0.1721
858.31	-0
858.4736	-0.364
858.6372	-0
858.8007	-0.0284
858.9642	0.2665
859.1277	0.6076
859.2911	-0.0092
859.4546	-0
859.618	-0.0412
859.7814	-0
859.9448	-0
860.1081	0.0455
860.2715	-1.4359
860.4348	0.45
860.5981	0.4983
860.7614	0.2239
860.9246	0.1853
861.0879	0.3845
861.2511	-0.3996
861.4143	-0
861.5774	-0.1882
861.7406	-0.1963
861.9037	-0
862.0668	-0
862.2299	0.2824
862.393	2.2945
862.556	-0
862.7191	-0.2209
862.8821	0.635
863.0451	-0.2168
863.208	-0.4674
863.371	-0.3656
863.5339	0.0615
863.6968	-0
863.8597	-0.45
864.0225	-0
864.1854	-0.1408
864.3482	-0.9286
864.511	0.0848
864.6737	-0
864.8365	-0.1554
864.9992	-0.1165
865.1619	0.1546
865.3246	0.699
865.4873	-0
865.65	-0
865.8126	-0
865.9752	-0.2898
866.1378	-0.2232
866.3004	0.2543
866.4629	-1.9409
866.6254	-0
866.7879	-0
866.9504	-0.2629
867.1129	-0.282
867.2753	0.0187
867.4377	-0.0613
867.6001	-0.7289
867.7625	-0.0549
867.9249	0.8889
868.0872	0.9912
868.2495	0.0545
868.4118	-0
868.5741	-0
868.7363	-0
868.8986	2.0043
869.0608	-0.389
869.223	-0.5475
869.3851	-0
869.5473	-0.0196
869.7094	-0
869.8715	-0
870.0336	-0.053
870.1957	-0.47
870.3577	0.1123
870.5197	0.0962
870.6817	-1.1354
870.8437	0.2795
871.0057	0.4752
871.1676	0.1028
871.3295	-0
871.4914	-0.415
871.6533	-0
871.8151	1.2954
871.977	-0.3626
872.1388	-0.2982
872.3006	-0.5984
872.4623	-0.8529
872.6241	-0
872.7858	-0.0047
872.9475	0.0869
873.1092	-0.0237
873.2709	0.5546
873.4325	-1.9577
873.5941	0.1227
873.7557	-0
873.9173	-0.1409
874.0789	0.0361
874.2404	-0
874.4019	-0.0175
874.5634	-0
874.7249	-0
874.8863	-0.441
875.0478	-0.3616
875.2092	1.6793
875.3706	0.1218
875.5319	-0.0082
875.6933	1.0206
875.8546	-0.0894
876.0159	0.4119
876.1772	-0.5225
876.3385	0.6527
876.4997	-0
876.6609	-0
876.8221	0.5755
876.9833	-0.1557
877.1445	0.259
877.3056	-0.7615
877.4667	-0.5111
877.6278	-0
877.7889	-0
877.9499	-0
878.111	-0.282
878.272	0.019
878.433	-0.2498
878.5939	0.4404
878.7549	1.0093
878.9158	-0.0686
879.0767	-0.163
879.2376	0.8172
879.3984	0.2247
879.5593	-0
879.7201	-0.827
879.8809	-0.1008
880.0417	-0.3308
880.2024	-0.1545
880.3632	0.1136
880.5239	-0.0907
880.6846	-0.7558
880.8452	0.7398
881.0059	-0
881.1665	0.3652
881.3271	0.6252
881.4877	0.1523
881.6483	-0.1675
881.8088	-0
881.9693	-0
882.1298	-0
882.2903	-0
