Data from D4ACN5uM420nmA_Absorbance_14-37-07-481.txt Node
Date: Fri Feb 21 14:37:07 GMT 2025
User: LASERRRRR
Spectrometer: FLMT03099
Trigger mode: 0
Integration Time (sec): 1.500000E-2
Scans to average: 1
Electric dark correction enabled: true
Nonlinearity correction enabled: false
Boxcar width: 0
XAxis mode: Wavelengths
Number of Pixels in Spectrum: 3648
>>>>>Begin Spectral Data<<<<<
179.3399	-0.7805
179.5586	-0.7805
179.7771	-0.7805
179.9957	-0.3052
180.2143	-0
180.4329	0.2272
180.6514	-0
180.8699	-0
181.0885	-0
181.307	0.6075
181.5255	0.2607
181.744	-0
181.9625	0.2488
182.181	-0.0975
182.3994	-0.7058
182.6179	-0
182.8363	-0
183.0547	-0
183.2732	-0.1139
183.4916	0.2073
183.71	0.4088
183.9284	0.0985
184.1467	0.0226
184.3651	0.0636
184.5835	0.1959
184.8018	0.0863
185.0201	0.1365
185.2385	0.3362
185.4568	0.3642
185.6751	0.1264
185.8934	0.2316
186.1117	-0.1376
186.3299	0.4409
186.5482	0.3287
186.7664	0.178
186.9847	0.1667
187.2029	0.6003
187.4211	-0.0889
187.6393	0.0872
187.8575	0.0901
188.0757	0.4173
188.2939	0.015
188.512	0.7612
188.7302	0.1304
188.9483	0.1565
189.1665	0.7784
189.3846	0.0801
189.6027	0.0789
189.8208	0.2257
190.0389	0.2274
190.257	0.0503
190.475	-0.0446
190.6931	0.2027
190.9111	0.2849
191.1292	0.0751
191.3472	0.1598
191.5652	0.2881
191.7832	0.1748
192.0012	0.0776
192.2192	0.2465
192.4371	0.0725
192.6551	0.1401
192.873	0.0748
193.091	0.0557
193.3089	0.2236
193.5268	0.2628
193.7447	0.2492
193.9626	0.1931
194.1805	0.305
194.3984	0.2133
194.6162	0.2075
194.8341	0.2893
195.0519	0.2041
195.2697	0.2189
195.4875	0.2609
195.7054	0.1942
195.9231	0.239
196.1409	0.3796
196.3587	0.2485
196.5765	0.3932
196.7942	0.3554
197.012	0.2799
197.2297	0.2823
197.4474	0.3639
197.6651	0.3679
197.8828	0.3018
198.1005	0.4344
198.3182	0.3972
198.5358	0.4088
198.7535	0.3667
198.9711	0.3444
199.1888	0.33
199.4064	0.3863
199.624	0.3416
199.8416	0.3242
200.0592	0.4038
200.2767	0.3589
200.4943	0.399
200.7119	0.3899
200.9294	0.3846
201.1469	0.405
201.3645	0.4214
201.582	0.3883
201.7995	0.3887
202.017	0.3895
202.2344	0.384
202.4519	0.3657
202.6694	0.3808
202.8868	0.4215
203.1042	0.4075
203.3217	0.3691
203.5391	0.3631
203.7565	0.3182
203.9739	0.3654
204.1913	0.3937
204.4086	0.3217
204.626	0.3642
204.8433	0.3854
205.0607	0.3699
205.278	0.3612
205.4953	0.3206
205.7126	0.3654
205.9299	0.3266
206.1472	0.3133
206.3644	0.3299
206.5817	0.316
206.7989	0.3233
207.0162	0.307
207.2334	0.3176
207.4506	0.3156
207.6678	0.3079
207.885	0.3092
208.1022	0.3255
208.3194	0.2766
208.5365	0.2981
208.7537	0.2986
208.9708	0.2951
209.1879	0.2672
209.405	0.2702
209.6222	0.273
209.8392	0.3124
210.0563	0.28
210.2734	0.2717
210.4905	0.2794
210.7075	0.2696
210.9245	0.2592
211.1416	0.2779
211.3586	0.2454
211.5756	0.2461
211.7926	0.2717
212.0096	0.2619
212.2265	0.2635
212.4435	0.2664
212.6604	0.2579
212.8774	0.2448
213.0943	0.2438
213.3112	0.2449
213.5281	0.2372
213.745	0.236
213.9619	0.222
214.1788	0.2595
214.3956	0.2345
214.6125	0.264
214.8293	0.2578
215.0461	0.2414
215.2629	0.2408
215.4798	0.2482
215.6965	0.2535
215.9133	0.2543
216.1301	0.2486
216.3469	0.241
216.5636	0.2513
216.7803	0.2408
216.9971	0.2502
217.2138	0.2587
217.4305	0.2591
217.6472	0.2408
217.8639	0.2639
218.0805	0.2351
218.2972	0.2388
218.5138	0.2558
218.7305	0.2714
218.9471	0.2628
219.1637	0.2674
219.3803	0.2658
219.5969	0.257
219.8135	0.2675
220.0301	0.2516
220.2466	0.2513
220.4632	0.2549
220.6797	0.2632
220.8962	0.2656
221.1127	0.269
221.3292	0.2658
221.5457	0.2758
221.7622	0.264
221.9787	0.2708
222.1951	0.2755
222.4116	0.2655
222.628	0.2901
222.8444	0.2799
223.0608	0.2849
223.2772	0.269
223.4936	0.2847
223.71	0.281
223.9264	0.2874
224.1427	0.2889
224.3591	0.2885
224.5754	0.3019
224.7917	0.2947
225.008	0.2972
225.2243	0.3114
225.4406	0.2976
225.6569	0.3178
225.8732	0.3102
226.0894	0.2951
226.3057	0.3156
226.5219	0.3078
226.7381	0.3286
226.9543	0.3124
227.1705	0.3248
227.3867	0.323
227.6029	0.3275
227.8191	0.3312
228.0352	0.3443
228.2513	0.359
228.4675	0.3517
228.6836	0.3466
228.8997	0.3394
229.1158	0.3646
229.3319	0.3577
229.548	0.3594
229.764	0.3544
229.9801	0.3811
230.1961	0.3672
230.4121	0.3571
230.6282	0.3841
230.8442	0.3866
231.0602	0.3825
231.2761	0.3874
231.4921	0.3874
231.7081	0.3951
231.924	0.3948
232.14	0.4005
232.3559	0.403
232.5718	0.4136
232.7877	0.4174
233.0036	0.4146
233.2195	0.4162
233.4353	0.4205
233.6512	0.4188
233.867	0.4205
234.0829	0.4297
234.2987	0.4265
234.5145	0.4389
234.7303	0.4388
234.9461	0.4383
235.1619	0.4374
235.3776	0.4367
235.5934	0.4415
235.8091	0.436
236.0249	0.4525
236.2406	0.4313
236.4563	0.4459
236.672	0.4371
236.8877	0.4589
237.1034	0.4455
237.319	0.4562
237.5347	0.4568
237.7503	0.4598
237.966	0.462
238.1816	0.4476
238.3972	0.4667
238.6128	0.4599
238.8284	0.4664
239.0439	0.4651
239.2595	0.4707
239.475	0.464
239.6906	0.4669
239.9061	0.4616
240.1216	0.4631
240.3371	0.4626
240.5526	0.4702
240.7681	0.4672
240.9836	0.4625
241.199	0.4557
241.4145	0.4605
241.6299	0.4501
241.8453	0.4428
242.0607	0.4341
242.2761	0.4365
242.4915	0.423
242.7069	0.4137
242.9223	0.4248
243.1376	0.4091
243.353	0.4037
243.5683	0.4092
243.7836	0.3942
243.9989	0.3819
244.2142	0.3722
244.4295	0.3736
244.6448	0.3723
244.86	0.3492
245.0753	0.3432
245.2905	0.3456
245.5057	0.3371
245.721	0.3391
245.9362	0.3279
246.1514	0.3207
246.3665	0.3138
246.5817	0.2994
246.7969	0.3082
247.012	0.296
247.2271	0.3013
247.4423	0.2871
247.6574	0.2908
247.8725	0.2728
248.0876	0.2733
248.3026	0.2742
248.5177	0.2639
248.7328	0.2597
248.9478	0.2551
249.1628	0.2582
249.3779	0.2395
249.5929	0.2429
249.8079	0.235
250.0228	0.2335
250.2378	0.2336
250.4528	0.2299
250.6677	0.2309
250.8827	0.2189
251.0976	0.2179
251.3125	0.219
251.5274	0.2175
251.7423	0.2101
251.9572	0.2129
252.172	0.2102
252.3869	0.2115
252.6017	0.2009
252.8166	0.201
253.0314	0.2001
253.2462	0.2016
253.461	0.2007
253.6758	0.1969
253.8906	0.196
254.1053	0.1962
254.3201	0.1955
254.5348	0.1938
254.7496	0.1856
254.9643	0.1948
255.179	0.1904
255.3937	0.1887
255.6083	0.1947
255.823	0.1895
256.0377	0.1929
256.2523	0.1839
256.467	0.1901
256.6816	0.1852
256.8962	0.188
257.1108	0.1937
257.3254	0.1892
257.54	0.1824
257.7545	0.1854
257.9691	0.1844
258.1836	0.1805
258.3981	0.1781
258.6127	0.1769
258.8272	0.1822
259.0417	0.1778
259.2561	0.183
259.4706	0.1802
259.6851	0.1818
259.8995	0.1829
260.114	0.18
260.3284	0.1776
260.5428	0.1797
260.7572	0.1812
260.9716	0.186
261.186	0.1774
261.4003	0.1783
261.6147	0.1751
261.829	0.18
262.0433	0.1835
262.2577	0.1773
262.472	0.184
262.6863	0.1831
262.9005	0.183
263.1148	0.1827
263.3291	0.181
263.5433	0.1813
263.7576	0.1888
263.9718	0.187
264.186	0.182
264.4002	0.183
264.6144	0.1862
264.8286	0.183
265.0427	0.1806
265.2569	0.1868
265.471	0.181
265.6851	0.1909
265.8993	0.1862
266.1134	0.1856
266.3275	0.1862
266.5415	0.1854
266.7556	0.1876
266.9697	0.1795
267.1837	0.1835
267.3978	0.1877
267.6118	0.183
267.8258	0.1869
268.0398	0.1822
268.2538	0.1858
268.4677	0.185
268.6817	0.1815
268.8957	0.1749
269.1096	0.1789
269.3235	0.1802
269.5374	0.1817
269.7514	0.1874
269.9652	0.1754
270.1791	0.1759
270.393	0.1782
270.6068	0.1823
270.8207	0.1804
271.0345	0.1801
271.2483	0.1698
271.4622	0.1798
271.676	0.1773
271.8897	0.1794
272.1035	0.1842
272.3173	0.1794
272.531	0.1763
272.7448	0.1709
272.9585	0.1711
273.1722	0.1735
273.3859	0.1745
273.5996	0.1748
273.8133	0.1807
274.0269	0.1727
274.2406	0.1774
274.4542	0.1766
274.6679	0.1773
274.8815	0.1853
275.0951	0.1817
275.3087	0.1849
275.5223	0.1793
275.7358	0.1807
275.9494	0.181
276.1629	0.1821
276.3765	0.1767
276.59	0.1758
276.8035	0.181
277.017	0.185
277.2305	0.1831
277.444	0.1867
277.6574	0.1862
277.8709	0.1892
278.0843	0.1904
278.2978	0.1939
278.5112	0.1812
278.7246	0.181
278.938	0.1831
279.1513	0.1859
279.3647	0.1866
279.5781	0.1828
279.7914	0.1827
280.0047	0.1845
280.2181	0.1881
280.4314	0.1849
280.6447	0.1899
280.8579	0.1826
281.0712	0.1908
281.2845	0.1876
281.4977	0.1868
281.711	0.1871
281.9242	0.1889
282.1374	0.1922
282.3506	0.1881
282.5638	0.1815
282.7769	0.1804
282.9901	0.1919
283.2033	0.1853
283.4164	0.1866
283.6295	0.1891
283.8426	0.1839
284.0557	0.1886
284.2688	0.1878
284.4819	0.1886
284.695	0.1951
284.908	0.1896
285.1211	0.1901
285.3341	0.1845
285.5471	0.1956
285.7601	0.1944
285.9731	0.1897
286.1861	0.1941
286.3991	0.1937
286.612	0.1985
286.825	0.1925
287.0379	0.1931
287.2508	0.1933
287.4637	0.1929
287.6766	0.1962
287.8895	0.1953
288.1024	0.1924
288.3152	0.1931
288.5281	0.1935
288.7409	0.1989
288.9538	0.1933
289.1666	0.1927
289.3794	0.1971
289.5922	0.1863
289.8049	0.1922
290.0177	0.1953
290.2304	0.1912
290.4432	0.2001
290.6559	0.1928
290.8686	0.1959
291.0813	0.1962
291.294	0.2062
291.5067	0.1911
291.7194	0.1969
291.932	0.1959
292.1447	0.1941
292.3573	0.1971
292.5699	0.1983
292.7825	0.1924
292.9951	0.1928
293.2077	0.1975
293.4203	0.1958
293.6328	0.2
293.8454	0.1994
294.0579	0.1909
294.2704	0.1983
294.4829	0.1967
294.6954	0.1944
294.9079	0.1958
295.1204	0.1917
295.3328	0.2073
295.5453	0.1939
295.7577	0.1981
295.9701	0.1947
296.1825	0.2012
296.3949	0.1922
296.6073	0.1923
296.8197	0.2
297.0321	0.2011
297.2444	0.1969
297.4567	0.197
297.6691	0.1933
297.8814	0.1964
298.0937	0.2006
298.306	0.1957
298.5182	0.2022
298.7305	0.1961
298.9428	0.1982
299.155	0.1985
299.3672	0.1963
299.5794	0.1928
299.7916	0.2008
300.0038	0.2002
300.216	0.1911
300.4282	0.1956
300.6403	0.1983
300.8525	0.1944
301.0646	0.2032
301.2767	0.1983
301.4888	0.1939
301.7009	0.1988
301.913	0.1972
302.125	0.1922
302.3371	0.201
302.5491	0.1966
302.7612	0.2032
302.9732	0.197
303.1852	0.1981
303.3972	0.1982
303.6092	0.1947
303.8211	0.1964
304.0331	0.1947
304.245	0.1932
304.457	0.1904
304.6689	0.1965
304.8808	0.191
305.0927	0.1966
305.3046	0.1893
305.5164	0.1871
305.7283	0.1883
305.9401	0.1787
306.152	0.1838
306.3638	0.188
306.5756	0.187
306.7874	0.1789
306.9992	0.1815
307.2109	0.1724
307.4227	0.1793
307.6344	0.1792
307.8462	0.1732
308.0579	0.1761
308.2696	0.1758
308.4813	0.1693
308.693	0.1675
308.9046	0.1699
309.1163	0.1646
309.328	0.1655
309.5396	0.161
309.7512	0.158
309.9628	0.16
310.1744	0.155
310.386	0.1527
310.5976	0.1545
310.8091	0.1562
311.0207	0.1563
311.2322	0.1493
311.4437	0.1509
311.6552	0.1471
311.8667	0.152
312.0782	0.1485
312.2897	0.1467
312.5012	0.1456
312.7126	0.1444
312.924	0.1475
313.1355	0.1451
313.3469	0.1438
313.5583	0.138
313.7696	0.1363
313.981	0.1403
314.1924	0.1313
314.4037	0.1359
314.6151	0.1373
314.8264	0.1379
315.0377	0.138
315.249	0.1421
315.4603	0.135
315.6716	0.1386
315.8828	0.1358
316.0941	0.1426
316.3053	0.1319
316.5165	0.1381
316.7277	0.131
316.9389	0.129
317.1501	0.1333
317.3613	0.1273
317.5724	0.1334
317.7836	0.1228
317.9947	0.1266
318.2058	0.1314
318.417	0.1297
318.6281	0.1228
318.8391	0.1318
319.0502	0.1309
319.2613	0.1249
319.4723	0.1261
319.6834	0.1332
319.8944	0.1302
320.1054	0.1243
320.3164	0.1245
320.5274	0.1296
320.7383	0.1247
320.9493	0.1323
321.1602	0.1315
321.3712	0.1231
321.5821	0.1246
321.793	0.1344
322.0039	0.1263
322.2148	0.129
322.4257	0.1224
322.6365	0.1255
322.8474	0.1289
323.0582	0.1249
323.269	0.1337
323.4798	0.1322
323.6906	0.1262
323.9014	0.1285
324.1122	0.1269
324.3229	0.1349
324.5337	0.1353
324.7444	0.1304
324.9551	0.1382
325.1658	0.1333
325.3765	0.1333
325.5872	0.1358
325.7979	0.1301
326.0085	0.1241
326.2192	0.1296
326.4298	0.1389
326.6404	0.1383
326.851	0.1306
327.0616	0.1386
327.2722	0.1323
327.4828	0.1358
327.6933	0.1425
327.9039	0.1369
328.1144	0.1353
328.3249	0.1374
328.5354	0.1373
328.7459	0.1394
328.9564	0.133
329.1669	0.14
329.3773	0.1392
329.5878	0.1374
329.7982	0.1392
330.0086	0.1383
330.219	0.1368
330.4294	0.1419
330.6398	0.1366
330.8502	0.1449
331.0605	0.1405
331.2708	0.1383
331.4812	0.1398
331.6915	0.1422
331.9018	0.1415
332.1121	0.1449
332.3224	0.1404
332.5326	0.1408
332.7429	0.1397
332.9531	0.1491
333.1633	0.1358
333.3735	0.1412
333.5837	0.1413
333.7939	0.1433
334.0041	0.1432
334.2143	0.1397
334.4244	0.1458
334.6346	0.1415
334.8447	0.1448
335.0548	0.1453
335.2649	0.1448
335.475	0.1475
335.685	0.1466
335.8951	0.1413
336.1051	0.1473
336.3152	0.148
336.5252	0.1399
336.7352	0.1554
336.9452	0.147
337.1552	0.1446
337.3652	0.1356
337.5751	0.1502
337.7851	0.1434
337.995	0.1505
338.2049	0.1467
338.4148	0.1477
338.6247	0.1463
338.8346	0.1459
339.0445	0.1456
339.2543	0.1423
339.4642	0.1442
339.674	0.1472
339.8838	0.1476
340.0936	0.1522
340.3034	0.1405
340.5132	0.1428
340.7229	0.149
340.9327	0.1599
341.1424	0.1498
341.3522	0.1475
341.5619	0.1501
341.7716	0.1553
341.9813	0.1559
342.1909	0.1534
342.4006	0.1606
342.6102	0.1568
342.8199	0.1596
343.0295	0.1456
343.2391	0.1576
343.4487	0.1616
343.6583	0.1649
343.8679	0.156
344.0774	0.155
344.287	0.1574
344.4965	0.1569
344.706	0.1616
344.9155	0.167
345.125	0.1609
345.3345	0.1739
345.544	0.1587
345.7534	0.17
345.9629	0.1629
346.1723	0.1638
346.3817	0.167
346.5911	0.1695
346.8005	0.1716
347.0099	0.1692
347.2193	0.1714
347.4286	0.176
347.638	0.169
347.8473	0.1731
348.0566	0.1728
348.2659	0.1711
348.4752	0.1704
348.6845	0.1722
348.8937	0.1719
349.103	0.173
349.3122	0.1751
349.5214	0.1775
349.7306	0.1811
349.9398	0.1712
350.149	0.1776
350.3582	0.1788
350.5674	0.1806
350.7765	0.1791
350.9856	0.1786
351.1948	0.1853
351.4039	0.183
351.613	0.1781
351.822	0.1912
352.0311	0.1873
352.2402	0.1849
352.4492	0.1799
352.6582	0.1858
352.8672	0.1864
353.0762	0.1863
353.2852	0.1855
353.4942	0.1868
353.7032	0.1848
353.9121	0.1861
354.1211	0.1917
354.33	0.1876
354.5389	0.1831
354.7478	0.1808
354.9567	0.192
355.1655	0.1881
355.3744	0.1919
355.5833	0.1897
355.7921	0.1909
356.0009	0.193
356.2097	0.1886
356.4185	0.1937
356.6273	0.195
356.8361	0.196
357.0448	0.1962
357.2536	0.1943
357.4623	0.1968
357.671	0.1982
357.8797	0.1964
358.0884	0.1895
358.2971	0.1979
358.5057	0.1981
358.7144	0.1985
358.923	0.2023
359.1316	0.2
359.3402	0.2126
359.5488	0.2035
359.7574	0.2096
359.966	0.2062
360.1746	0.2017
360.3831	0.204
360.5916	0.2086
360.8002	0.2153
361.0087	0.2107
361.2172	0.2211
361.4256	0.2114
361.6341	0.2145
361.8426	0.2159
362.051	0.2218
362.2594	0.215
362.4678	0.2163
362.6762	0.2197
362.8846	0.2179
363.093	0.2199
363.3014	0.2268
363.5097	0.2222
363.718	0.2249
363.9264	0.2278
364.1347	0.2324
364.343	0.2314
364.5513	0.2315
364.7595	0.23
364.9678	0.2257
365.176	0.2349
365.3842	0.2352
365.5925	0.2302
365.8007	0.2353
366.0089	0.2383
366.217	0.2332
366.4252	0.2368
366.6333	0.2295
366.8415	0.2383
367.0496	0.2344
367.2577	0.2483
367.4658	0.2421
367.6739	0.2435
367.882	0.2462
368.09	0.2425
368.2981	0.2506
368.5061	0.2478
368.7141	0.2428
368.9221	0.2508
369.1301	0.2451
369.3381	0.2592
369.5461	0.2524
369.754	0.2513
369.962	0.2501
370.1699	0.256
370.3778	0.2676
370.5857	0.2566
370.7936	0.2597
371.0015	0.2557
371.2093	0.2552
371.4172	0.2512
371.625	0.2566
371.8328	0.2548
372.0406	0.2684
372.2484	0.2636
372.4562	0.2715
372.664	0.2661
372.8717	0.2593
373.0795	0.2673
373.2872	0.2682
373.4949	0.2669
373.7026	0.2677
373.9103	0.2617
374.118	0.267
374.3256	0.2719
374.5333	0.27
374.7409	0.2751
374.9485	0.2717
375.1561	0.279
375.3637	0.2711
375.5713	0.2773
375.7789	0.2719
375.9864	0.2785
376.194	0.2853
376.4015	0.279
376.609	0.2822
376.8165	0.2873
377.024	0.2808
377.2315	0.2778
377.4389	0.2654
377.6464	0.2875
377.8538	0.2909
378.0612	0.3003
378.2686	0.2889
378.476	0.3032
378.6834	0.2873
378.8908	0.2959
379.0981	0.2891
379.3055	0.2865
379.5128	0.2846
379.7201	0.2953
379.9274	0.2894
380.1347	0.2842
380.342	0.302
380.5492	0.2943
380.7565	0.2869
380.9637	0.2955
381.1709	0.2961
381.3781	0.2996
381.5853	0.298
381.7925	0.291
381.9997	0.3024
382.2068	0.3038
382.4139	0.3013
382.6211	0.2925
382.8282	0.3114
383.0353	0.3107
383.2424	0.2969
383.4494	0.2908
383.6565	0.2999
383.8635	0.3029
384.0706	0.3109
384.2776	0.3148
384.4846	0.3009
384.6916	0.304
384.8986	0.3029
385.1055	0.3146
385.3125	0.3119
385.5194	0.3132
385.7263	0.3082
385.9333	0.3053
386.1402	0.3083
386.347	0.3059
386.5539	0.311
386.7608	0.3125
386.9676	0.3018
387.1744	0.3076
387.3813	0.2991
387.5881	0.2968
387.7948	0.3143
388.0016	0.3175
388.2084	0.309
388.4151	0.3025
388.6219	0.3002
388.8286	0.3085
389.0353	0.3036
389.242	0.3083
389.4487	0.308
389.6553	0.2915
389.862	0.3027
390.0686	0.3024
390.2753	0.3026
390.4819	0.304
390.6885	0.303
390.8951	0.3007
391.1016	0.296
391.3082	0.2974
391.5147	0.2918
391.7213	0.2894
391.9278	0.2882
392.1343	0.2974
392.3408	0.2969
392.5473	0.2859
392.7537	0.2866
392.9602	0.2788
393.1666	0.2861
393.373	0.2846
393.5794	0.2827
393.7858	0.291
393.9922	0.2828
394.1986	0.2813
394.4049	0.28
394.6113	0.2766
394.8176	0.277
395.0239	0.2771
395.2302	0.2753
395.4365	0.2795
395.6428	0.2747
395.8491	0.2731
396.0553	0.2675
396.2615	0.2763
396.4678	0.2799
396.674	0.2627
396.8802	0.2604
397.0863	0.2612
397.2925	0.2706
397.4987	0.2605
397.7048	0.2739
397.9109	0.2521
398.117	0.2664
398.3231	0.2639
398.5292	0.2578
398.7353	0.2565
398.9413	0.2632
399.1474	0.26
399.3534	0.2656
399.5594	0.2594
399.7654	0.2648
399.9714	0.2651
400.1774	0.2565
400.3833	0.2627
400.5893	0.2597
400.7952	0.2621
401.0011	0.2586
401.207	0.2558
401.4129	0.2597
401.6188	0.2595
401.8247	0.2669
402.0305	0.2649
402.2364	0.266
402.4422	0.2626
402.648	0.2658
402.8538	0.2671
403.0596	0.2551
403.2654	0.2609
403.4711	0.2601
403.6768	0.2502
403.8826	0.2556
404.0883	0.2605
404.294	0.2617
404.4997	0.2654
404.7054	0.2689
404.911	0.253
405.1167	0.2593
405.3223	0.2579
405.5279	0.2696
405.7335	0.2624
405.9391	0.2512
406.1447	0.2545
406.3502	0.2569
406.5558	0.257
406.7613	0.2576
406.9668	0.2575
407.1724	0.2646
407.3778	0.2508
407.5833	0.257
407.7888	0.259
407.9942	0.2592
408.1997	0.2568
408.4051	0.2604
408.6105	0.2613
408.8159	0.2454
409.0213	0.2581
409.2267	0.2582
409.432	0.2487
409.6374	0.263
409.8427	0.2774
410.048	0.2647
410.2533	0.248
410.4586	0.2631
410.6639	0.2708
410.8691	0.2543
411.0744	0.2578
411.2796	0.2574
411.4848	0.2624
411.69	0.2524
411.8952	0.253
412.1004	0.2614
412.3056	0.2612
412.5107	0.256
412.7158	0.2666
412.921	0.2598
413.1261	0.2563
413.3312	0.2536
413.5362	0.2672
413.7413	0.2648
413.9464	0.2436
414.1514	0.2514
414.3564	0.2517
414.5614	0.2581
414.7664	0.2574
414.9714	0.2511
415.1764	0.2621
415.3813	0.2603
415.5863	0.2554
415.7912	0.253
415.9961	0.2535
416.201	0.2632
416.4059	0.2537
416.6108	0.2595
416.8156	0.2493
417.0205	0.2556
417.2253	0.2522
417.4301	0.2504
417.6349	0.256
417.8397	0.2485
418.0445	0.2538
418.2492	0.2407
418.454	0.2457
418.6587	0.2526
418.8634	0.2518
419.0681	0.256
419.2728	0.2484
419.4775	0.2563
419.6822	0.2394
419.8868	0.249
420.0915	0.2331
420.2961	0.2306
420.5007	0.2452
420.7053	0.2365
420.9099	0.2418
421.1144	0.2409
421.319	0.2292
421.5235	0.2286
421.728	0.2444
421.9325	0.2401
422.137	0.2365
422.3415	0.2376
422.546	0.2286
422.7504	0.2386
422.9549	0.2373
423.1593	0.2268
423.3637	0.2334
423.5681	0.2315
423.7725	0.2283
423.9769	0.2338
424.1812	0.224
424.3856	0.2255
424.5899	0.2305
424.7942	0.2241
424.9985	0.2231
425.2028	0.2293
425.4071	0.2253
425.6113	0.2165
425.8156	0.2232
426.0198	0.2162
426.224	0.2231
426.4282	0.2084
426.6324	0.2134
426.8366	0.2102
427.0407	0.2115
427.2449	0.211
427.449	0.2197
427.6531	0.2254
427.8572	0.2083
428.0613	0.2082
428.2654	0.2101
428.4694	0.2032
428.6735	0.2015
428.8775	0.2092
429.0815	0.2056
429.2855	0.1979
429.4895	0.2036
429.6935	0.199
429.8975	0.1848
430.1014	0.1963
430.3053	0.2021
430.5093	0.1923
430.7132	0.1938
430.9171	0.1903
431.1209	0.1958
431.3248	0.1751
431.5286	0.1788
431.7325	0.194
431.9363	0.1769
432.1401	0.1825
432.3439	0.1758
432.5477	0.1728
432.7514	0.174
432.9552	0.1683
433.1589	0.1652
433.3627	0.1735
433.5664	0.165
433.7701	0.1753
433.9737	0.177
434.1774	0.1629
434.3811	0.1567
434.5847	0.1592
434.7883	0.1515
434.9919	0.1493
435.1955	0.1516
435.3991	0.1557
435.6027	0.1582
435.8062	0.1592
436.0098	0.1431
436.2133	0.1433
436.4168	0.1541
436.6203	0.1399
436.8238	0.144
437.0272	0.1515
437.2307	0.1357
437.4341	0.1465
437.6375	0.1405
437.841	0.1308
438.0443	0.1339
438.2477	0.1246
438.4511	0.1253
438.6545	0.131
438.8578	0.1268
439.0611	0.1303
439.2644	0.128
439.4677	0.1248
439.671	0.1138
439.8743	0.1223
440.0775	0.1167
440.2808	0.1189
440.484	0.1127
440.6872	0.1163
440.8904	0.0999
441.0936	0.1059
441.2967	0.1027
441.4999	0.0915
441.703	0.1004
441.9062	0.1067
442.1093	0.1079
442.3124	0.0924
442.5155	0.0956
442.7185	0.091
442.9216	0.089
443.1246	0.0998
443.3276	0.0932
443.5307	0.0832
443.7337	0.0896
443.9366	0.0843
444.1396	0.0835
444.3426	0.086
444.5455	0.0877
444.7484	0.0807
444.9513	0.0813
445.1542	0.0905
445.3571	0.0869
445.56	0.0781
445.7628	0.0751
445.9657	0.0741
446.1685	0.0725
446.3713	0.0836
446.5741	0.0778
446.7769	0.0804
446.9797	0.0692
447.1824	0.0733
447.3852	0.0614
447.5879	0.0635
447.7906	0.0581
447.9933	0.0614
448.196	0.0591
448.3986	0.0597
448.6013	0.0554
448.8039	0.0584
449.0066	0.0626
449.2092	0.0647
449.4118	0.0547
449.6143	0.0598
449.8169	0.0566
450.0195	0.0537
450.222	0.0568
450.4245	0.0553
450.627	0.0439
450.8295	0.0461
451.032	0.0373
451.2345	0.0479
451.4369	0.0499
451.6394	0.0477
451.8418	0.0537
452.0442	0.0538
452.2466	0.0381
452.449	0.0393
452.6513	0.0353
452.8537	0.0407
453.056	0.0369
453.2583	0.0335
453.4607	0.0386
453.663	0.0423
453.8652	0.0269
454.0675	0.0406
454.2697	0.0388
454.472	0.0369
454.6742	0.0438
454.8764	0.0444
455.0786	0.0441
455.2808	0.0294
455.4829	0.0316
455.6851	0.037
455.8872	0.0305
456.0893	0.0333
456.2915	0.0368
456.4935	0.0279
456.6956	0.0267
456.8977	0.031
457.0997	0.039
457.3018	0.0277
457.5038	0.0343
457.7058	0.0309
457.9078	0.0283
458.1098	0.0295
458.3117	0.0392
458.5137	0.0092
458.7156	0.0341
458.9175	0.0294
459.1194	0.0253
459.3213	0.0209
459.5232	0.0316
459.725	0.0232
459.9269	0.0258
460.1287	0.0228
460.3305	0.0284
460.5323	0.0272
460.7341	0.0157
460.9359	0.0166
461.1376	0.026
461.3394	0.0259
461.5411	0.033
461.7428	0.0196
461.9445	0.0127
462.1462	0.024
462.3479	0.0156
462.5495	0.0259
462.7512	0.019
462.9528	0.0152
463.1544	0.0199
463.356	0.0129
463.5576	0.0237
463.7592	0.0138
463.9607	0.0155
464.1623	0.0081
464.3638	0.0107
464.5653	0.025
464.7668	0.0181
464.9683	0.0163
465.1697	0.0121
465.3712	0.0052
465.5726	0.0204
465.7741	0.023
465.9755	0.0179
466.1769	0.0146
466.3782	0.0136
466.5796	0.0145
466.7809	0.021
466.9823	0.014
467.1836	0.0154
467.3849	0.0247
467.5862	0.013
467.7875	0.0143
467.9887	0.0147
468.19	0.0124
468.3912	0.0201
468.5924	0.0146
468.7936	0.0115
468.9948	0.008
469.196	0.0179
469.3972	0.0063
469.5983	0.0144
469.7994	0.0123
470.0006	0.0072
470.2017	0.0071
470.4027	0.0323
470.6038	0.0094
470.8049	0.0031
471.0059	0.0244
471.2069	0.0138
471.408	0.0215
471.6089	0.0227
471.8099	0.0104
472.0109	0.0119
472.2119	0.0128
472.4128	0.0108
472.6137	0.0112
472.8146	0.0158
473.0155	0.0249
473.2164	0.0094
473.4173	0.0037
473.6181	0.0054
473.819	0.0129
474.0198	0.0136
474.2206	-0.0035
474.4214	0.0194
474.6222	0.0016
474.8229	0.0053
475.0237	0.0163
475.2244	0.0128
475.4251	0.0195
475.6258	0.006
475.8265	0.0073
476.0272	0.0081
476.2278	0.0165
476.4285	0.012
476.6291	0.0111
476.8297	0.0136
477.0303	0.0045
477.2309	0.0218
477.4315	0.0169
477.632	0.0042
477.8326	0.0179
478.0331	0.0196
478.2336	0.0078
478.4341	0.0177
478.6346	0.0127
478.8351	0.0061
479.0355	0.0214
479.236	0.0123
479.4364	0.0109
479.6368	0.0102
479.8372	0.0057
480.0376	0.009
480.2379	0.0133
480.4383	0.0143
480.6386	0.0013
480.8389	0.0117
481.0392	0.012
481.2395	0.0152
481.4398	0.0158
481.6401	0.0124
481.8403	0.0091
482.0405	0.008
482.2408	0.0112
482.441	0.0069
482.6411	0.0105
482.8413	0.0089
483.0415	0.0167
483.2416	0.0145
483.4417	0.0094
483.6419	0.0033
483.8419	0.0127
484.042	0.0148
484.2421	0.0052
484.4422	0.0077
484.6422	0.0087
484.8422	0.0131
485.0422	0.0072
485.2422	0.0071
485.4422	0.0083
485.6422	0.0075
485.8421	0.0063
486.042	0.0161
486.242	0.0082
486.4419	0.008
486.6417	0.0101
486.8416	0.009
487.0415	0.0077
487.2413	0.0047
487.4411	0.0092
487.641	0.0073
487.8408	0.0135
488.0405	0.0155
488.2403	0.0126
488.4401	0.0042
488.6398	0.0131
488.8395	0.0108
489.0392	0.0163
489.2389	0.0156
489.4386	0.0024
489.6383	0.0126
489.8379	0.0052
490.0376	0.0116
490.2372	0.0043
490.4368	0.0096
490.6364	0.0024
490.836	0.007
491.0355	0.0063
491.2351	0.0049
491.4346	0.0118
491.6341	0.0083
491.8336	0.0145
492.0331	0.0071
492.2326	0.0084
492.432	0.0164
492.6315	0.0188
492.8309	0.0163
493.0303	0.0085
493.2297	0.0188
493.4291	0.0036
493.6284	0.0159
493.8278	0.0104
494.0271	0.0116
494.2264	0.0083
494.4257	0.01
494.625	0.0104
494.8243	0.0047
495.0236	0.0113
495.2228	0.0103
495.422	0.0151
495.6213	0.0109
495.8205	0.0089
496.0196	0.01
496.2188	0.009
496.418	0.0026
496.6171	0.007
496.8162	0.0091
497.0153	0.0128
497.2144	0.0017
497.4135	0.0061
497.6126	0.009
497.8116	0.0086
498.0107	0.0121
498.2097	0.0124
498.4087	0.01
498.6077	0.0037
498.8067	0.0112
499.0056	0.0024
499.2046	0.014
499.4035	0.0095
499.6024	-0.0012
499.8013	0.0155
500.0002	0.0123
500.199	0.016
500.3979	0.0082
500.5967	0.0149
500.7956	0.0048
500.9944	0.0124
501.1932	0.0195
501.3919	0.0219
501.5907	0.0086
501.7895	0.0082
501.9882	0.0042
502.1869	0.0196
502.3856	0.0031
502.5843	0.0142
502.783	0.0048
502.9816	0.014
503.1803	0.0095
503.3789	0.0123
503.5775	0.0052
503.7761	0.0073
503.9747	0.0154
504.1732	0.0028
504.3718	0.0143
504.5703	0.0114
504.7689	-0.0021
504.9674	0.015
505.1658	0.0085
505.3643	0.0095
505.5628	0.0147
505.7612	0.0121
505.9597	0.0017
506.1581	0.0097
506.3565	0.0045
506.5549	0.01
506.7532	0.0087
506.9516	0.0035
507.1499	0.0095
507.3482	0.0122
507.5465	0.0188
507.7448	0.0102
507.9431	0.0177
508.1414	0.0092
508.3396	0.0144
508.5379	0.0093
508.7361	0.0051
508.9343	0.0151
509.1325	0.0118
509.3306	0.0054
509.5288	0.0102
509.7269	0.0104
509.9251	0.0183
510.1232	0.011
510.3213	0.0159
510.5193	0.0054
510.7174	-0.0046
510.9154	0.011
511.1135	0.0006
511.3115	0.01
511.5095	0.007
511.7075	0.0058
511.9055	0.0132
512.1034	0.0075
512.3014	0.0134
512.4993	0.0071
512.6972	0.0115
512.8951	0.013
513.093	0.0061
513.2908	0.0183
513.4887	0.011
513.6865	0.0111
513.8844	0.0134
514.0822	0.0165
514.2799	0.0005
514.4777	0.0022
514.6755	0.0029
514.8732	0.0164
515.0709	-0.0008
515.2687	0.0056
515.4664	0.0208
515.664	0.0107
515.8617	0.011
516.0594	0.0132
516.257	0.0114
516.4546	0.0213
516.6522	0.01
516.8498	0.0094
517.0474	0.0125
517.2449	0.0084
517.4425	0.0039
517.64	0.0174
517.8375	0.0188
518.035	0.0107
518.2325	0.0059
518.43	0.0128
518.6274	0.007
518.8249	0.0059
519.0223	0.0138
519.2197	0.0056
519.4171	-0.0001
519.6145	0.0171
519.8118	0.0057
520.0092	0.0098
520.2065	0.0211
520.4038	0.0088
520.6011	0.0053
520.7984	0.017
520.9956	0.0199
521.1929	0.0092
521.3901	0.0131
521.5874	0.0095
521.7846	0.0111
521.9818	0.0123
522.1789	0.0044
522.3761	0.0182
522.5732	0.0105
522.7704	0.009
522.9675	-0.0044
523.1646	0.0024
523.3617	0.015
523.5587	0.0093
523.7558	0.0099
523.9528	0.0174
524.1498	-0.0004
524.3468	0.0082
524.5438	0.0181
524.7408	0.0004
524.9378	0.0125
525.1347	0.0167
525.3316	0.0074
525.5285	0.0085
525.7254	0.0175
525.9223	0.0139
526.1192	0.0076
526.316	0.0143
526.5129	0.0079
526.7097	0.0023
526.9065	0.02
527.1033	0.0101
527.3	0.0082
527.4968	0.008
527.6935	-0.0006
527.8903	0.0142
528.087	0.0092
528.2837	0.0085
528.4804	0.0051
528.677	0.0044
528.8737	0.0133
529.0703	0.0093
529.2669	0.0235
529.4635	-0.0026
529.6601	-0.0009
529.8567	0.0049
530.0532	0.0099
530.2498	0.0028
530.4463	0.0016
530.6428	0.009
530.8393	0.0213
531.0358	0.0008
531.2322	-0.0032
531.4287	0.012
531.6251	-0.0029
531.8215	0.0015
532.0179	0.019
532.2143	0.0098
532.4107	0.0132
532.607	0.0028
532.8034	0.0089
532.9997	0.0087
533.196	0.0066
533.3923	0.014
533.5886	0.007
533.7848	0.0082
533.9811	0.0193
534.1773	0.009
534.3735	0.0142
534.5697	0.0071
534.7659	0.0131
534.9621	0.0067
535.1582	0.0153
535.3544	0.0108
535.5505	0.0217
535.7466	0.0109
535.9427	0.0206
536.1387	0.0049
536.3348	0.0152
536.5308	0.0046
536.7269	0.0064
536.9229	0.0053
537.1189	0.0164
537.3148	-0.0002
537.5108	0.0017
537.7068	0.0151
537.9027	0.0002
538.0986	0.009
538.2945	-0.0008
538.4904	0.0124
538.6863	0.0057
538.8821	0.0183
539.078	0.0097
539.2738	0.015
539.4696	-0.0018
539.6654	0.0098
539.8611	0.0119
540.0569	0.0153
540.2526	0.0184
540.4484	0.0022
540.6441	-0.0043
540.8398	0.0194
541.0355	0.0034
541.2311	0.0121
541.4268	0.0157
541.6224	0.0159
541.818	0.0126
542.0136	0.0117
542.2092	0.0166
542.4048	0.0056
542.6003	0.0087
542.7959	0.0067
542.9914	0.0092
543.1869	0.0144
543.3824	0.0063
543.5779	0.0173
543.7734	0.0245
543.9688	0.008
544.1642	0.0064
544.3596	0.0108
544.555	0.0111
544.7504	0.0188
544.9458	0.0162
545.1411	0.0064
545.3365	0.0022
545.5318	0.0134
545.7271	0.0125
545.9224	0.0133
546.1177	0.0133
546.3129	0.0061
546.5081	0.0112
546.7034	0.0096
546.8986	0.0108
547.0938	0.0104
547.289	0.0124
547.4841	0.0159
547.6793	0.0104
547.8744	0.0097
548.0695	-0.0031
548.2646	0.0057
548.4597	0.005
548.6548	0.0243
548.8498	0.0131
549.0448	0.0109
549.2399	0.0208
549.4349	0.0126
549.6298	0.0182
549.8248	0.0095
550.0198	0.0081
550.2147	0.0061
550.4096	0.0024
550.6045	0.0021
550.7994	0.0063
550.9943	0.0057
551.1892	-0.0049
551.384	0.0084
551.5788	0.0059
551.7737	0.019
551.9685	0.0152
552.1632	0.0089
552.358	-0.0013
552.5528	0.0088
552.7475	0.0107
552.9422	0.0121
553.1369	0.013
553.3316	0.0096
553.5263	0.0135
553.7209	0.0125
553.9156	0.0061
554.1102	0.0121
554.3048	0.0033
554.4994	0.0083
554.694	0.014
554.8885	0.0191
555.0831	0.0172
555.2776	0.0124
555.4721	0.0133
555.6666	0.0157
555.8611	0.0156
556.0555	0.0107
556.25	0.0106
556.4444	0.0146
556.6388	0.0081
556.8332	0.0053
557.0276	0.0079
557.222	-0.0021
557.4163	0.0178
557.6107	0.0089
557.805	0.0048
557.9993	0.0091
558.1936	0.007
558.3879	0.0193
558.5821	0.0011
558.7764	0.0087
558.9706	0.0087
559.1648	0.0198
559.359	0.0008
559.5532	0.0033
559.7473	0.0068
559.9415	0.0093
560.1356	0.0236
560.3297	0.0044
560.5238	0.0073
560.7179	0.01
560.9119	0.0032
561.106	0.006
561.3	0.0062
561.494	0.0048
561.688	0.0123
561.882	0.0068
562.076	0.0094
562.2699	0.0225
562.4639	0.014
562.6578	0.0112
562.8517	0.0119
563.0456	0.0069
563.2395	0.0146
563.4333	0.0155
563.6272	0.007
563.821	0.0099
564.0148	0.0116
564.2086	0.0126
564.4024	0.0066
564.5961	0.0096
564.7899	0.0198
564.9836	0.0108
565.1773	0.0147
565.371	0.0057
565.5647	0.0091
565.7584	0.0172
565.952	0.012
566.1456	0.0068
566.3393	0.0115
566.5329	0.0061
566.7264	0.0135
566.92	0.0107
567.1136	0.0051
567.3071	0.0033
567.5006	0.0121
567.6941	0.0084
567.8876	0.0042
568.0811	0.0218
568.2745	0.0062
568.468	0.0123
568.6614	0.0169
568.8548	0.0107
569.0482	0.0133
569.2416	0.0139
569.4349	0.0106
569.6283	0.0035
569.8216	0.0129
570.0149	0.0053
570.2082	0.0115
570.4015	0.0123
570.5947	0.0088
570.788	0.0139
570.9812	0.0046
571.1744	0.011
571.3676	0.0091
571.5608	0.0092
571.754	0.0125
571.9471	0.0154
572.1402	0.0085
572.3333	0.0106
572.5264	0.0108
572.7195	0.0071
572.9126	0.002
573.1057	0.0115
573.2987	0.005
573.4917	0.0073
573.6847	0.0061
573.8777	0.0101
574.0707	0.0077
574.2636	0.0076
574.4566	0.0015
574.6495	0.0055
574.8424	0.01
575.0353	0.0097
575.2281	0.0143
575.421	0.0049
575.6138	0.006
575.8067	0.0088
575.9995	0.0088
576.1923	0.011
576.385	0.007
576.5778	0.0114
576.7706	0.0083
576.9633	0.0076
577.156	0.0033
577.3487	0.0038
577.5414	0.0058
577.734	0.004
577.9267	0.0134
578.1193	0.0103
578.3119	0.0042
578.5045	0.0124
578.6971	0.0042
578.8897	0.0055
579.0822	0.0158
579.2747	0.0061
579.4673	0.012
579.6598	0.0102
579.8522	0.0064
580.0447	0.0087
580.2372	0.0122
580.4296	0.0111
580.622	0.0063
580.8144	0.0071
581.0068	0.007
581.1992	0.0074
581.3915	0
581.5839	0.0082
581.7762	0.0096
581.9685	0.0062
582.1608	0.0072
582.353	0.0072
582.5453	0.0081
582.7375	0.011
582.9298	0.0034
583.122	0.0028
583.3142	0.0149
583.5063	0.0107
583.6985	0.0057
583.8906	0.0053
584.0827	0.0088
584.2749	0.0028
584.4669	0.01
584.659	0.0092
584.8511	0.0145
585.0431	0.0097
585.2352	0.0095
585.4272	0.0095
585.6192	0.0098
585.8111	0.0072
586.0031	0.0055
586.195	0.0055
586.387	0.007
586.5789	0.0075
586.7708	0.0096
586.9627	0.0119
587.1545	0.0119
587.3464	0.0056
587.5382	0.0088
587.73	0.009
587.9218	0.0038
588.1136	0.0043
588.3053	0.0125
588.4971	0.0086
588.6888	0.0035
588.8805	0.0083
589.0722	0.0139
589.2639	0.0071
589.4556	0.0116
589.6472	0.0147
589.8389	0.0109
590.0305	0.0084
590.2221	0.0097
590.4137	0.0109
590.6052	0.0078
590.7968	0.01
590.9883	0.008
591.1798	0.007
591.3713	0.0096
591.5628	0.003
591.7543	0.0044
591.9458	0.004
592.1372	0.0094
592.3286	0.0108
592.52	0.0068
592.7114	0.0071
592.9028	0.01
593.0941	0.008
593.2855	0.0049
593.4768	0.0128
593.6681	0.0096
593.8594	0.0087
594.0506	0.0086
594.2419	0.0069
594.4331	0.0148
594.6244	0.0057
594.8156	0.01
595.0067	0.0024
595.1979	0.0091
595.3891	0.01
595.5802	0.0135
595.7713	0.0115
595.9624	0.0134
596.1535	0.0069
596.3446	0.0035
596.5357	0.0091
596.7267	0.0114
596.9177	0.0025
597.1087	0.006
597.2997	0.0117
597.4907	0.0041
597.6817	0.0082
597.8726	0.011
598.0635	0.0075
598.2544	0.0112
598.4453	0.0102
598.6362	0.0061
598.827	0.0016
599.0179	0.0046
599.2087	0.0099
599.3995	0.0097
599.5903	0.0163
599.7811	0.0153
599.9718	0.0042
600.1626	0.0059
600.3533	0.0039
600.544	0.0079
600.7347	0.0083
600.9254	0.01
601.116	0.0084
601.3067	0.0072
601.4973	0.013
601.6879	0.006
601.8785	0.0129
602.0691	0.0036
602.2596	0.0037
602.4502	0.0097
602.6407	0.0055
602.8312	0.0101
603.0217	0.0068
603.2122	0.0093
603.4027	0.0088
603.5931	0.0045
603.7835	0.0153
603.9739	0.0034
604.1643	0.0087
604.3547	0.0077
604.5451	0.0134
604.7354	0.0066
604.9257	0.0063
605.116	0.0027
605.3063	0.0077
605.4966	0.0102
605.6869	0.016
605.8771	0.0078
606.0673	0.0088
606.2575	0.0102
606.4477	0.0092
606.6379	0.0036
606.8281	0.0077
607.0182	0.0064
607.2083	0.0089
607.3985	0.0057
607.5885	0.0057
607.7786	0.0129
607.9687	0.0116
608.1587	0.0113
608.3488	0.0091
608.5388	0.0057
608.7288	0.0058
608.9187	0.0073
609.1087	0.0099
609.2986	0.0139
609.4886	0.0036
609.6785	0.0112
609.8684	0.0047
610.0582	0.0079
610.2481	0.0067
610.4379	0.01
610.6278	0.0144
610.8176	0.0104
611.0074	0.0061
611.1971	0.0074
611.3869	0.009
611.5766	0.003
611.7664	0.0146
611.9561	0.0113
612.1458	0.0177
612.3354	0.006
612.5251	0.0062
612.7147	0.0059
612.9044	0.0039
613.094	0.0122
613.2836	0.0077
613.4731	0.0073
613.6627	0.0177
613.8522	0.0155
614.0417	0.0102
614.2313	0.0077
614.4207	0.0114
614.6102	0.0069
614.7997	0.0132
614.9891	0.0109
615.1785	-0.0013
615.3679	0.0116
615.5573	0.0101
615.7467	0.0055
615.9361	0.016
616.1254	0.0125
616.3147	0.0073
616.504	0.0082
616.6933	0.0121
616.8826	0.0083
617.0718	0.0077
617.2611	0.0045
617.4503	0.0094
617.6395	0.0088
617.8287	0.0136
618.0179	0.002
618.207	0.0117
618.3961	0.0053
618.5853	0.0059
618.7744	0.0032
618.9634	0.0161
619.1525	0.0048
619.3416	0.0028
619.5306	0.0229
619.7196	0.0161
619.9086	0.009
620.0976	0.0058
620.2866	0.0039
620.4755	0.0047
620.6645	0.0146
620.8534	0.0141
621.0423	0.0085
621.2312	0.0106
621.42	0.0081
621.6089	0.0042
621.7977	0.0155
621.9865	-0.0044
622.1753	0.0027
622.3641	0.009
622.5529	-0.0003
622.7416	0.005
622.9303	0.0075
623.1191	0.0043
623.3078	0.0063
623.4964	0.0046
623.6851	0.0095
623.8737	0.0154
624.0624	-0.0052
624.251	-0.0018
624.4396	0.0118
624.6282	0.0134
624.8167	0.003
625.0053	0.0127
625.1938	0.0074
625.3823	0.0138
625.5708	0.0082
625.7593	0.0056
625.9477	0.0121
626.1362	0.0018
626.3246	0.0034
626.513	0.0096
626.7014	0.0146
626.8898	0.0074
627.0781	0.0035
627.2665	-0.001
627.4548	0.0041
627.6431	0.0166
627.8314	0.0168
628.0197	0.0094
628.2079	0.0051
628.3962	0.0134
628.5844	0.018
628.7726	0.0001
628.9608	0.0115
629.1489	0.0071
629.3371	0.0047
629.5252	0.0097
629.7134	0.0038
629.9015	0.0149
630.0895	-0.0053
630.2776	0.0123
630.4657	0.0158
630.6537	0.0189
630.8417	-0.0043
631.0297	0.0006
631.2177	0.0223
631.4057	0.0208
631.5936	0.0073
631.7815	0.0047
631.9695	0.016
632.1574	0.0184
632.3452	0.0171
632.5331	0.0112
632.7209	0.0137
632.9088	0.0097
633.0966	0.0212
633.2844	0.0037
633.4722	0.0111
633.6599	0.0252
633.8477	0.0163
634.0354	0.0129
634.2231	0.0001
634.4108	0.0072
634.5985	0.0175
634.7861	-0.0031
634.9738	-0.0011
635.1614	0.0094
635.349	0.0201
635.5366	0.0001
635.7242	0.0026
635.9117	0.007
636.0993	0.0099
636.2868	-0.0002
636.4743	0.0098
636.6618	0.0043
636.8492	0.0228
637.0367	0.0077
637.2241	0.0147
637.4115	0.0284
637.5989	0.0045
637.7863	0.0369
637.9737	0.0151
638.161	0.0099
638.3484	0.0081
638.5357	-0.0009
638.723	0.0246
638.9103	-0.0124
639.0975	0.0096
639.2848	0.0206
639.472	0.0313
639.6592	0.0017
639.8464	0.018
640.0336	0.026
640.2208	0.0065
640.4079	0.0108
640.595	0.0145
640.7821	0.0151
640.9692	0.0002
641.1563	0.0244
641.3434	0.0202
641.5304	0.0073
641.7174	0.0298
641.9044	0.0021
642.0914	0.0251
642.2784	0.0091
642.4653	-0.0012
642.6523	0.0175
642.8392	0.0058
643.0261	0.0063
643.213	0.0031
643.3999	0.0415
643.5867	0.0127
643.7735	0.0058
643.9604	0.0176
644.1472	0.019
644.3339	0.0069
644.5207	-0.0038
644.7075	0.0055
644.8942	0.0102
645.0809	0.0047
645.2676	-0.0044
645.4543	0.0017
645.6409	0.027
645.8276	0.0017
646.0142	0.0122
646.2008	0.0206
646.3874	0.0103
646.574	0.0066
646.7605	0.0105
646.9471	0.0117
647.1336	0.0051
647.3201	0.0121
647.5066	0.0111
647.6931	0.0002
647.8795	0.0128
648.0659	0.0095
648.2524	0.0222
648.4388	0.0145
648.6252	0.0149
648.8115	0.0065
648.9979	0.01
649.1842	0.0073
649.3705	0.02
649.5568	-0.0108
649.7431	0.0049
649.9294	-0.0075
650.1156	0.0098
650.3018	0.0236
650.488	0.0156
650.6742	0.0298
650.8604	0.0158
651.0466	-0.0022
651.2327	0.0155
651.4188	0.0018
651.6049	0.0212
651.791	0.0064
651.9771	0.0047
652.1632	0.0048
652.3492	0.0041
652.5352	0.0352
652.7212	0.0079
652.9072	0.0121
653.0932	0.0069
653.2791	0.0177
653.465	0.0105
653.651	0.0014
653.8369	0.0227
654.0227	0.0073
654.2086	0.0163
654.3944	0.0113
654.5803	0.0028
654.7661	0.0008
654.9519	0.0007
655.1377	0
655.3234	0
655.5092	0
655.6949	0
655.8806	0
656.0663	0
656.2519	0
656.4376	0
656.6232	0
656.8088	0
656.9945	0
657.18	0
657.3656	0
657.5511	0
657.7367	0
657.9222	0
658.1077	0
658.2932	0
658.4786	0
658.6641	0
658.8495	0
659.0349	0
659.2203	0
659.4057	0.0169
659.591	0.3042
659.7764	0.0314
659.9617	0.0207
660.147	0.0092
660.3323	0.0186
660.5176	0.011
660.7028	-0.0036
660.888	0.0073
661.0733	0.0148
661.2585	-0.0193
661.4436	0.0128
661.6288	0.004
661.8139	0.0022
661.9991	-0.0223
662.1842	-0.0055
662.3693	0.0042
662.5544	0.0335
662.7394	0.0329
662.9245	-0.0047
663.1095	-0.006
663.2945	-0.0031
663.4795	0.0046
663.6644	0.0147
663.8494	0.0099
664.0343	0.0262
664.2193	0.0007
664.4042	0.0023
664.589	0.0182
664.7739	0.0069
664.9587	-0.0042
665.1436	-0.0087
665.3284	0.0075
665.5132	-0.0134
665.698	0.0249
665.8827	0.0174
666.0675	-0.0103
666.2522	-0.0123
666.4369	0.0006
666.6216	-0.0078
666.8063	0.0243
666.9909	-0.0133
667.1756	0.0083
667.3602	-0.0007
667.5448	0.0118
667.7294	-0.0013
667.9139	0.0045
668.0985	0.001
668.283	0.0054
668.4675	0.0389
668.652	0.0234
668.8365	0.0138
669.0209	0.0143
669.2054	0.0067
669.3898	0.0089
669.5742	0.0184
669.7586	0.025
669.943	0.0377
670.1273	0.0118
670.3117	0.0196
670.496	0.0067
670.6803	-0.0018
670.8646	-0.0205
671.0488	0.0283
671.2331	-0
671.4173	0.0133
671.6015	0.0038
671.7857	0.0157
671.9699	0.0188
672.1541	0.0022
672.3382	0.0081
672.5223	0.0023
672.7064	0.0035
672.8905	0.0002
673.0746	0.013
673.2587	0.0227
673.4427	-0.0083
673.6267	0.0206
673.8107	0.0158
673.9947	0.0305
674.1787	0.0024
674.3626	0.0212
674.5465	0.0057
674.7304	0.0048
674.9143	-0.0093
675.0982	0.0071
675.2821	0.0046
675.4659	0.0049
675.6497	0.0023
675.8335	0.0112
676.0173	0.0159
676.2011	0.0324
676.3849	0.0237
676.5686	0.0229
676.7523	0.0233
676.936	0.0196
677.1197	0.0008
677.3034	0.0359
677.487	0.007
677.6706	-0.0009
677.8542	0.0036
678.0378	0.0095
678.2214	0.0062
678.405	0.0055
678.5885	0.0202
678.772	0.0085
678.9555	0.0018
679.139	0.0048
679.3225	-0.0073
679.5059	-0.0089
679.6894	0.0063
679.8728	0.0055
680.0562	0.0105
680.2395	0.0102
680.4229	-0.004
680.6062	0.019
680.7896	0.0088
680.9729	0.0198
681.1562	0.0165
681.3394	0.0135
681.5227	0.0322
681.7059	0.0316
681.8891	0.008
682.0723	0.0011
682.2555	0.0072
682.4387	0.0137
682.6218	0.0151
682.805	0.0229
682.9881	0.0251
683.1712	0.0236
683.3542	0.0163
683.5373	-0.0083
683.7203	0.0218
683.9034	-0.0105
684.0864	0.0004
684.2694	0.0004
684.4523	0.0121
684.6353	0.0117
684.8182	-0.0059
685.0011	0.0066
685.184	0.01
685.3669	0.0162
685.5498	0.0052
685.7326	-0.0095
685.9154	0.0094
686.0982	0.0062
686.281	0.0079
686.4638	0.0193
686.6465	0.0068
686.8293	0.0006
687.012	0.0096
687.1947	0.0057
687.3774	0.0126
687.56	0.0007
687.7427	-0.0032
687.9253	-0.0104
688.1079	-0.0036
688.2905	0.0048
688.4731	0.0298
688.6556	0.0275
688.8382	-0.0188
689.0207	0.0119
689.2032	0.024
689.3857	0.0031
689.5681	-0.0042
689.7506	0.0332
689.933	-0.011
690.1154	0.0114
690.2978	0.0278
690.4802	0.0262
690.6626	0.005
690.8449	0.0151
691.0272	-0.0002
691.2095	-0.0009
691.3918	0.029
691.5741	0.009
691.7563	0.0118
691.9386	0.0193
692.1208	0.0046
692.303	-0.0085
692.4852	0.0157
692.6673	-0.0058
692.8495	-0.0003
693.0316	0.015
693.2137	0.0145
693.3958	0.0199
693.5778	0.0228
693.7599	-0.0033
693.9419	-0.0171
694.1239	0.0177
694.3059	0.0136
694.4879	0.0085
694.6699	-0.0012
694.8518	0.0197
695.0337	0.0143
695.2157	0.0342
695.3975	0.0262
695.5794	-0.0278
695.7613	-0.006
695.9431	-0.0098
696.1249	0.028
696.3067	-0.0132
696.4885	0.0177
696.6703	0.0052
696.852	-0.0059
697.0337	0.0238
697.2154	0.008
697.3971	0.0226
697.5788	0.0229
697.7605	0.0009
697.9421	0.0162
698.1237	0.0012
698.3053	-0.011
698.4869	0.0204
698.6685	0.0154
698.85	0.0297
699.0315	-0.0004
699.213	0.013
699.3945	0.0116
699.576	0.029
699.7575	0.0106
699.9389	0.005
700.1203	0.0088
700.3017	0.0342
700.4831	0.0231
700.6645	0.0179
700.8458	-0.0079
701.0271	0.0235
701.2084	-0.002
701.3897	0.0147
701.571	-0.0109
701.7523	0.0003
701.9335	0.0147
702.1147	0.0014
702.2959	-0.0025
702.4771	-0.0018
702.6583	0.028
702.8394	-0.0224
703.0205	0.012
703.2016	-0.0047
703.3827	0.0172
703.5638	0.0107
703.7449	0.0221
703.9259	0.0047
704.1069	-0.0134
704.2879	0.0179
704.4689	0.0257
704.6499	-0.0005
704.8308	0.0141
705.0117	0.0327
705.1927	0.0069
705.3735	0.0033
705.5544	0.0234
705.7353	0.005
705.9161	-0.0169
706.0969	0.0194
706.2777	0.0088
706.4585	0.0157
706.6393	0.0171
706.82	0.0131
707.0007	0.0008
707.1815	-0.0085
707.3621	0.023
707.5428	0.016
707.7235	0.0239
707.9041	0.0101
708.0847	0.0049
708.2653	0.0359
708.4459	0.0157
708.6265	-0.008
708.807	0.0045
708.9875	0.0077
709.168	0.0125
709.3485	0.0149
709.529	0.011
709.7095	-0.0149
709.8899	0.0075
710.0703	0.0103
710.2507	0.0034
710.4311	-0.0266
710.6115	0.0167
710.7918	0.0122
710.9721	0.0094
711.1524	-0.0059
711.3327	-0.0238
711.513	0.0015
711.6932	-0.0105
711.8735	0.0116
712.0537	0.0229
712.2339	0.0147
712.4141	0.0226
712.5942	0.0069
712.7744	0.0275
712.9545	0.0119
713.1346	0.0299
713.3147	0.0125
713.4947	-0.0179
713.6748	0.0298
713.8548	0.029
714.0348	0.0102
714.2148	0.0302
714.3948	0.0069
714.5748	0.0275
714.7547	0.0206
714.9346	0.0012
715.1145	-0.0057
715.2944	-0.0078
715.4743	-0.0072
715.6541	-0.0014
715.834	0.0375
716.0138	0.0199
716.1936	0.0178
716.3733	-0.0061
716.5531	0.013
716.7328	0.0521
716.9126	0.0132
717.0923	-0.0097
717.2719	0.0413
717.4516	0.0206
717.6312	-0.0209
717.8109	0.0264
717.9905	0.002
718.1701	0.0164
718.3496	-0.0032
718.5292	0.0137
718.7087	0.0071
718.8882	0.0402
719.0677	-0.0091
719.2472	0.0165
719.4267	0.007
719.6061	-0.0001
719.7856	0.0405
719.965	-0.0092
720.1443	-0.0177
720.3237	-0.0106
720.5031	0.0111
720.6824	0.0022
720.8617	0.0183
721.041	0.0201
721.2203	-0.0073
721.3995	0.0003
721.5788	-0.0024
721.758	-0.0111
721.9372	0.0077
722.1164	-0.0052
722.2956	-0.0113
722.4747	0.0233
722.6538	0.012
722.8329	0.0174
723.012	0.0021
723.1911	0.0093
723.3702	0.0325
723.5492	-0.0048
723.7282	0.0021
723.9072	0.0258
724.0862	-0.0036
724.2652	0.0287
724.4441	-0.0061
724.623	0.0083
724.8019	-0.011
724.9808	0.0156
725.1597	0.0103
725.3385	0.0126
725.5174	0.0054
725.6962	0.0227
725.875	0.0154
726.0538	0.0069
726.2325	0.0249
726.4112	-0.0027
726.59	0.0003
726.7687	-0.0163
726.9474	0.0279
727.126	0.0189
727.3047	0.0019
727.4833	0.0271
727.6619	-0.0061
727.8405	0.0075
728.0191	0.0311
728.1976	-0.0187
728.3762	0.0079
728.5547	-0.0001
728.7332	0.0225
728.9116	-0.0068
729.0901	0.0147
729.2686	0.0108
729.447	-0.0029
729.6254	-0.0041
729.8038	0.0163
729.9821	0.0018
730.1605	0.0199
730.3388	0.0124
730.5171	0.0266
730.6954	0.0007
730.8737	0.0155
731.0519	-0.0101
731.2302	0.0176
731.4084	0.0041
731.5866	0.0034
731.7648	0.0149
731.9429	0.0174
732.1211	-0.0003
732.2992	0.0099
732.4773	0.0042
732.6554	-0.0046
732.8335	0.0419
733.0115	0.0182
733.1896	-0.0054
733.3676	0.0238
733.5456	0.0025
733.7235	0.0042
733.9015	0.0089
734.0794	-0.0012
734.2574	-0.0045
734.4353	0.0211
734.6131	-0.0025
734.791	0.0047
734.9689	-0.0032
735.1467	0.0157
735.3245	0.0177
735.5023	0.0159
735.68	-0
735.8578	0.0158
736.0355	-0.003
736.2132	0.0104
736.3909	0.0107
736.5686	0.0118
736.7463	-0.0261
736.9239	0.0166
737.1015	0.0286
737.2791	0.0015
737.4567	0.0242
737.6343	0.0111
737.8118	0.0336
737.9894	0.0063
738.1669	0.0023
738.3444	0.0265
738.5218	-0.0249
738.6993	0.0151
738.8767	-0.001
739.0541	-0.0101
739.2315	0.0031
739.4089	0.0121
739.5863	0.0096
739.7636	0.0058
739.9409	-0.0062
740.1182	0.0081
740.2955	0.0406
740.4728	-0.0044
740.65	-0.0005
740.8272	0.0216
741.0044	-0.0232
741.1816	0.0131
741.3588	-0.0304
741.5359	-0.0258
741.7131	-0.0058
741.8902	0.0303
742.0673	-0.0319
742.2444	0.0421
742.4214	0.0185
742.5985	0.0118
742.7755	-0.0103
742.9525	-0.0119
743.1295	-0.0174
743.3064	-0.0073
743.4834	0.0145
743.6603	0.073
743.8372	-0.0565
744.0141	0.0331
744.191	0.0061
744.3678	-0.0477
744.5446	0.0081
744.7215	-0.0093
744.8982	0.025
745.075	0.0388
745.2518	0.0314
745.4285	0.0356
745.6052	-0.0277
745.7819	0.0185
745.9586	0.0067
746.1353	-0.0224
746.3119	0.007
746.4885	0.011
746.6651	0.022
746.8417	-0.0038
747.0183	0.0416
747.1948	0.0216
747.3714	-0.0038
747.5479	0.0185
747.7244	0.0119
747.9008	0.0055
748.0773	0.0318
748.2537	0.0208
748.4301	0.0264
748.6065	-0.0152
748.7829	-0.0173
748.9593	0.0139
749.1356	0.0125
749.3119	0.0306
749.4882	0.0107
749.6645	0.0024
749.8408	0.0255
750.017	0.0139
750.1933	-0.0094
750.3695	0.0122
750.5457	-0.0176
750.7218	-0.0095
750.898	0.0057
751.0741	0.0159
751.2502	0.0153
751.4263	0.0009
751.6024	0.0137
751.7784	-0.0111
751.9545	-0.0015
752.1305	0.0256
752.3065	-0.0127
752.4825	0.0023
752.6584	-0.0012
752.8344	-0.0099
753.0103	-0.0184
753.1862	0.025
753.3621	-0.0174
753.5379	0.0047
753.7138	0.002
753.8896	0.0045
754.0654	0.0007
754.2412	0.0169
754.417	0.0327
754.5927	0.0266
754.7685	0.0115
754.9442	0.0173
755.1199	0.0061
755.2956	0.0071
755.4712	-0.0045
755.6469	0.0167
755.8225	0.0296
755.9981	0.014
756.1736	0.0096
756.3492	-0
756.5248	0.0253
756.7003	-0.0087
756.8758	0.0095
757.0513	-0.0036
757.2267	0.0192
757.4022	-0.0179
757.5776	0.0038
757.753	0.0132
757.9284	0.0063
758.1038	0.0177
758.2791	0.0166
758.4545	-0.0225
758.6298	-0.0006
758.8051	0.006
758.9803	0.0177
759.1556	0.0041
759.3308	0.0034
759.506	0.0071
759.6812	-0.0007
759.8564	0.0112
760.0316	0.0057
760.2067	0.0404
760.3819	0.0141
760.557	0.0095
760.732	-0.005
760.9071	0.0233
761.0821	-0.0118
761.2572	0.0106
761.4322	0.0153
761.6072	-0.0021
761.7821	-0.0185
761.9571	0.0025
762.132	0.0053
762.3069	0.0528
762.4818	0.0218
762.6567	0.0055
762.8316	0.0158
763.0064	0.0101
763.1812	0.0081
763.356	0.0003
763.5308	0.0168
763.7055	-0.0062
763.8803	0.005
764.055	0.0087
764.2297	-0.0126
764.4044	0.015
764.579	0.0081
764.7537	0.0138
764.9283	0.0287
765.1029	0.0108
765.2775	0.0078
765.4521	0.0169
765.6266	0.0178
765.8011	0.0137
765.9756	0.0229
766.1501	-0.0009
766.3246	0.0246
766.4991	-0.0053
766.6735	0.0413
766.8479	0.002
767.0223	-0.0044
767.1967	0.0267
767.371	0.0077
767.5454	0.0137
767.7197	0.0113
767.894	0.0295
768.0683	0.0297
768.2425	0.0059
768.4168	0.0118
768.591	0.002
768.7652	-0.0101
768.9394	-0.0197
769.1135	-0.0009
769.2877	0.0298
769.4618	0.0268
769.6359	0.005
769.81	0.0171
769.984	-0.022
770.1581	-0.0071
770.3321	0.0383
770.5061	-0.0089
770.6801	0.0145
770.8541	0.01
771.028	0.0539
771.202	0.0323
771.3759	-0.0119
771.5498	0.0343
771.7236	0.0062
771.8975	0.0277
772.0713	0.0177
772.2451	0.0068
772.4189	-0.002
772.5927	-0.0403
772.7665	-0.0262
772.9402	0.0428
773.1139	-0.0067
773.2876	-0.0242
773.4613	-0.0001
773.635	0.0138
773.8086	0.0125
773.9822	0.0239
774.1558	0.0199
774.3294	0.0201
774.503	0.045
774.6765	-0.0001
774.8501	-0.0042
775.0236	0.0027
775.1971	0.0045
775.3705	-0.0124
775.544	-0.0496
775.7174	0.0392
775.8908	0.0007
776.0642	0.0358
776.2376	0.0282
776.4109	0.0227
776.5843	-0.029
776.7576	0.0206
776.9309	0.0419
777.1041	-0.0416
777.2774	-0.0132
777.4506	-0.0169
777.6238	-0.0165
777.797	0.0193
777.9702	0.0311
778.1434	0.0247
778.3165	0.0233
778.4896	-0.0394
778.6627	0.0231
778.8358	0.0046
779.0089	-0.0119
779.1819	0.0333
779.3549	0.0087
779.5279	0.0117
779.7009	0.0308
779.8739	0.0578
780.0468	0.0253
780.2197	0.059
780.3926	0.0038
780.5655	0.0241
780.7384	-0.0082
780.9112	0.0469
781.0841	0.0276
781.2569	-0.0116
781.4297	0.0349
781.6024	0.0305
781.7752	0.0251
781.9479	0.0591
782.1206	-0.0022
782.2933	-0.0046
782.466	0.0096
782.6386	-0.0108
782.8113	0.025
782.9839	-0.0123
783.1565	0.015
783.329	-0.0248
783.5016	0.0016
783.6741	0.0224
783.8466	0.0245
784.0191	0.0252
784.1916	0.0007
784.3641	-0.027
784.5365	0.029
784.7089	0.0091
784.8813	0.0709
785.0537	0.0224
785.2261	0.0219
785.3984	0.0218
785.5707	-0.0203
785.743	0.0315
785.9153	-0.021
786.0876	-0.0195
786.2598	-0.0162
786.432	0.0267
786.6042	0.0548
786.7764	0.0023
786.9486	-0.0083
787.1207	0.0279
787.2928	0.0271
787.4649	0.0218
787.637	0.0005
787.8091	0.0112
787.9811	0.015
788.1532	-0.0007
788.3252	0.0099
788.4972	0.001
788.6691	0.0052
788.8411	-0.0149
789.013	0.0113
789.1849	0.0128
789.3568	-0.0171
789.5287	0.0475
789.7005	-0.0113
789.8723	0.0074
790.0442	0.0099
790.2159	0.0124
790.3877	0.0527
790.5595	-0.0033
790.7312	0.0609
790.9029	-0.0103
791.0746	0.0032
791.2463	-0.0283
791.4179	-0.0012
791.5896	0.0487
791.7612	0.0809
791.9328	-0.0496
792.1044	0.009
792.2759	-0.0592
792.4474	-0.0527
792.619	0.0353
792.7905	0.0403
792.9619	0.0929
793.1334	0.0956
793.3048	0.056
793.4762	0.0241
793.6476	-0.0095
793.819	0.021
793.9904	-0.0225
794.1617	-0.0207
794.333	0.0256
794.5043	0.0216
794.6756	0.0022
794.8469	0.0173
795.0181	0.0127
795.1893	0.0479
795.3605	0.0531
795.5317	0.0202
795.7029	0.0285
795.874	0.0121
796.0452	0.0504
796.2163	0.0455
796.3873	0.1483
796.5584	-0.0051
796.7294	0.0354
796.9005	0.0012
797.0715	-0.038
797.2425	0.049
797.4134	0.068
797.5844	0.0666
797.7553	-0.115
797.9262	0.0894
798.0971	0.0344
798.2679	0.0312
798.4388	0.0732
798.6096	0.0412
798.7804	-0.0062
798.9512	0.0583
799.122	0.0049
799.2927	0.0148
799.4635	-0.0317
799.6342	-0.0108
799.8049	0.0753
799.9755	-0.0115
800.1462	0.0534
800.3168	0.0353
800.4874	-0.1182
800.658	0.0015
800.8286	0.006
800.9991	-0.0034
801.1696	-0.0173
801.3402	-0.018
801.5106	-0.0683
801.6811	0.0387
801.8516	0.0399
802.022	0.0249
802.1924	-0.08
802.3628	0.0259
802.5332	0.0789
802.7035	0.0241
802.8739	-0.0668
803.0442	0.0346
803.2145	0.0181
803.3847	-0.0079
803.555	0.0565
803.7252	-0.0056
803.8954	0.0131
804.0656	0.079
804.2358	-0.0003
804.4059	0.0593
804.5761	0.0073
804.7462	0.0375
804.9163	0.0141
805.0864	-0.0055
805.2564	-0.0652
805.4264	0.0148
805.5965	0.0584
805.7665	-0.0152
805.9364	0.0139
806.1064	0.0351
806.2763	0.0221
806.4462	0.0026
806.6161	0.0159
806.786	0.0506
806.9559	0.0037
807.1257	-0.0238
807.2955	0.0241
807.4653	0.1043
807.6351	0.0613
807.8048	0.0236
807.9746	0.0293
808.1443	-0.0239
808.314	0.0313
808.4837	0.0513
808.6533	0.0013
808.8229	-0.0609
808.9926	0.0025
809.1622	0.0093
809.3317	0.0318
809.5013	-0.0694
809.6708	0.0797
809.8403	0.0548
810.0098	0.0272
810.1793	0.0167
810.3488	-0.0919
810.5182	0.102
810.6876	0.1319
810.857	0.0177
811.0264	-0.1089
811.1958	0.1325
811.3651	-0.0299
811.5344	0.1214
811.7037	-0.0252
811.873	0.0783
812.0422	-0.1456
812.2115	0.0385
812.3807	-0.1592
812.5499	-0.0376
812.7191	0.0762
812.8882	-0.1544
813.0574	-0.003
813.2265	-0.0394
813.3956	-0.0363
813.5646	-0.0004
813.7337	-0.0347
813.9027	-0.0125
814.0718	0.0126
814.2407	0.0128
814.4097	0.0298
814.5787	0.0894
814.7476	0.0393
814.9165	0.0013
815.0854	-0.0133
815.2543	0.0465
815.4232	0.1442
815.592	-0.0389
815.7608	-0.0429
815.9296	0.0023
816.0984	0.12
816.2671	-0.2868
816.4359	0.1315
816.6046	0.2158
816.7733	-0.1547
816.942	-0.0412
817.1106	0.1053
817.2793	-0.0671
817.4479	-0.0074
817.6165	-0.004
817.785	0.06
817.9536	-0.025
818.1221	0.0498
818.2906	-0.0072
818.4591	0.0271
818.6276	0.0247
818.7961	0.0608
818.9645	0.1188
819.1329	0.1359
819.3013	-0.068
819.4697	0.1102
819.638	0.3966
819.8064	0.1552
819.9747	0.1236
820.143	0.0155
820.3113	0.1651
820.4795	-0.0005
820.6477	0.0721
820.816	0.011
820.9842	0.0596
821.1523	0.0113
821.3205	0.0399
821.4886	-0.0543
821.6567	-0.0481
821.8248	0.1651
821.9929	-0.1657
822.1609	-0.039
822.329	0.0597
822.497	0.0573
822.665	-0.0578
822.833	-0.0698
823.0009	-0.1088
823.1688	0.0485
823.3367	-0.2592
823.5046	0.0424
823.6725	0.0665
823.8404	0.1326
824.0082	-0.106
824.176	-0.0615
824.3438	0.4555
824.5116	-0.0284
824.6793	0.2548
824.847	-0.0451
825.0147	0.4576
825.1824	0.0694
825.3501	0.0638
825.5177	0.0922
825.6854	-0.2202
825.853	0.063
826.0206	0.1047
826.1881	-0.0519
826.3557	-0.0041
826.5232	0.1786
826.6907	0.0115
826.8582	0.0538
827.0257	0.1842
827.1931	-0.0219
827.3605	-0.071
827.528	-0.1633
827.6953	-0.1422
827.8627	-0.0302
828.03	0.0973
828.1974	-0.042
828.3647	0.0161
828.532	0.0158
828.6992	0.1191
828.8665	-0.2094
829.0337	0.0069
829.2009	-0.1403
829.3681	-0.0814
829.5352	-0.2357
829.7024	0.0965
829.8695	0.0473
830.0366	0.0908
830.2037	0.0662
830.3707	0.1196
830.5378	0.2349
830.7048	-0.2403
830.8718	0.0306
831.0388	0.0322
831.2057	-0.1753
831.3727	-0.1391
831.5396	-0.1541
831.7065	-0.608
831.8734	0.1121
832.0402	0.082
832.2071	-0.2736
832.3739	-0.0854
832.5407	-1.8224
832.7075	-0.3534
832.8742	-0.0245
833.041	0.0855
833.2077	0.2567
833.3744	-0.0321
833.541	0.0695
833.7077	-0.0193
833.8743	-0.0211
834.0409	0.1069
834.2075	0.0632
834.3741	-0.0899
834.5407	0.1076
834.7072	-0.0046
834.8737	0.1334
835.0402	0.2417
835.2067	-0.039
835.3731	-0.1573
835.5395	0.0031
835.706	-0.0762
835.8723	0.1284
836.0387	-0.0592
836.2051	0.3916
836.3714	0.1724
836.5377	-0.0938
836.704	0.204
836.8703	-0.2208
837.0365	-0.5475
837.2027	0.3097
837.3689	0.3555
837.5351	0.2432
837.7013	0.442
837.8674	-0.3456
838.0335	-0.006
838.1997	-0.0351
838.3657	-0
838.5318	-0.6306
838.6978	0.7258
838.8639	0.2801
839.0299	-0.0874
839.1958	0.1713
839.3618	0.289
839.5277	0.0978
839.6937	-0.1195
839.8596	-0.0971
840.0254	-0.1054
840.1913	-0.2503
840.3571	0.3901
840.523	-1.8751
840.6888	0.0375
840.8545	-0.4463
841.0203	0.2512
841.186	-0.0435
841.3517	-0.054
841.5174	0.1629
841.6831	0.085
841.8488	-0.0565
842.0144	0.4804
842.18	0.1047
842.3456	-0.388
842.5112	-0
842.6767	0.1034
842.8422	-0.0211
843.0077	-0.2168
843.1732	0.1447
843.3387	0.1194
843.5042	0.8067
843.6696	0.0288
843.835	0.1819
844.0004	-0.2326
844.1657	0.3245
844.3311	-0.2009
844.4964	-0.4937
844.6617	0.1053
844.827	-0
844.9923	0.1213
845.1575	-0.3618
845.3227	-0.0767
845.4879	-0.3397
845.6531	0.2667
845.8183	-0.0193
845.9834	-0
846.1485	0.0603
846.3136	0.1164
846.4787	0.3374
846.6438	-0.028
846.8088	0.81
846.9738	-0
847.1388	0.6054
847.3038	0.1485
847.4687	0.4293
847.6337	-0.3324
847.7986	-0.4052
847.9635	0.1651
848.1284	0.4138
848.2932	-0.0314
848.458	-0
848.6228	-0.1065
848.7876	-0
848.9524	-0.2778
849.1172	-1.8547
849.2819	-0.4443
849.4466	1.2808
849.6113	-0.1019
849.7759	-0.4458
849.9406	-0.0991
850.1052	-0
850.2698	-0
850.4344	0.3058
850.599	0.4294
850.7635	0.2023
850.928	0.3555
851.0925	0.1326
851.257	0.1755
851.4215	-0
851.5859	0.2947
851.7503	-0
851.9147	-0
852.0791	-0.0936
852.2434	0.0398
852.4078	-0
852.5721	-0.028
852.7364	-0.0319
852.9007	-0.2528
853.0649	-0
853.2291	0.0078
853.3934	-0
853.5575	-0.2495
853.7217	0.4962
853.8859	-0.434
854.05	-0.5384
854.2141	-0
854.3782	-0.1203
854.5423	-0.2701
854.7063	-0.1153
854.8703	0.0635
855.0343	-0.1333
855.1983	-0.0373
855.3623	0.0245
855.5262	-0
855.6901	0.0572
855.854	0.17
856.0179	-0.0328
856.1818	0.8895
856.3456	0.0997
856.5094	-0
856.6732	0.3048
856.837	-1.103
857.0008	-0
857.1645	-0
857.3282	-0.4463
857.4919	-0.1513
857.6556	0.1751
857.8192	-0.1487
857.9828	0.4176
858.1465	-0
858.31	-0
858.4736	0.1013
858.6372	-0.1417
858.8007	-0.0144
858.9642	0.4198
859.1277	1.8346
859.2911	-0.5041
859.4546	-0
859.618	0.1084
859.7814	-0
859.9448	-0
860.1081	-0
860.2715	-1.9221
860.4348	-0.1961
860.5981	0.3643
860.7614	0.1745
860.9246	-0.0732
861.0879	0.0331
861.2511	-0.0751
861.4143	-0
861.5774	-0.1626
861.7406	0.5745
861.9037	-0
862.0668	-0.854
862.2299	-0.1432
862.393	-0
862.556	0.0324
862.7191	0.0239
862.8821	0.1579
863.0451	-0.1389
863.208	-0
863.371	-0.4233
863.5339	0.6154
863.6968	-0
863.8597	-0.4863
864.0225	0.208
864.1854	-0
864.3482	-0
864.511	0.0097
864.6737	-0
864.8365	0.4223
864.9992	-0
865.1619	-0.4863
865.3246	-1.4314
865.4873	-0
865.65	-0.2137
865.8126	-0
865.9752	-0.1111
866.1378	0.1926
866.3004	-0.3415
866.4629	-1.9131
866.6254	-0.6059
866.7879	-0.1882
866.9504	-0
867.1129	-0.2297
867.2753	-0.1788
867.4377	0.3506
867.6001	0.2968
867.7625	-0.0435
867.9249	0.3224
868.0872	-0
868.2495	0.3735
868.4118	-0
868.5741	0.6906
868.7363	-0.8137
868.8986	0.573
869.0608	0.7816
869.223	1.2579
869.3851	-0
869.5473	-0.0014
869.7094	-0
869.8715	0.6792
870.0336	0.0699
870.1957	-0
870.3577	0.4719
870.5197	-0.2248
870.6817	-0.8605
870.8437	-0
871.0057	-0
871.1676	0.1934
871.3295	-0
871.4914	-0
871.6533	-0
871.8151	0.3017
871.977	-0.266
872.1388	1.0488
872.3006	-0.7375
872.4623	-0.8225
872.6241	0.7082
872.7858	-0.0297
872.9475	0.1842
873.1092	0.4501
873.2709	0.757
873.4325	-1.6449
873.5941	-0.7016
873.7557	1.228
873.9173	0.7114
874.0789	0.0294
874.2404	-0
874.4019	-0.1324
874.5634	-0
874.7249	0.4396
874.8863	-0
875.0478	-0.4303
875.2092	0.8563
875.3706	0.7364
875.5319	0.8058
875.6933	-0
875.8546	-0
876.0159	-0.0846
876.1772	-0.1568
876.3385	-0
876.4997	0.1059
876.6609	0.9333
876.8221	-0
876.9833	-0
877.1445	0.7945
877.3056	-0.6579
877.4667	-0.7728
877.6278	0.1153
877.7889	-0.0477
877.9499	-0
878.111	-0.4568
878.272	-0.0565
878.433	-0.021
878.5939	-0.0367
878.7549	0.7179
878.9158	0.2085
879.0767	-0
879.2376	0.1578
879.3984	1.3284
879.5593	0.4988
879.7201	-0
879.8809	-0.3086
880.0417	-0.3992
880.2024	-0
880.3632	-0.2931
880.5239	0.2503
880.6846	1.0586
880.8452	-0.2631
881.0059	-0
881.1665	0.4688
881.3271	0.1801
881.4877	0.2075
881.6483	-1.5989
881.8088	-0
881.9693	-0
882.1298	-0
882.2903	-0
