Data from D4ACN5uM420nmA_Absorbance_14-37-07-421.txt Node
Date: Fri Feb 21 14:37:07 GMT 2025
User: LASERRRRR
Spectrometer: FLMT03099
Trigger mode: 0
Integration Time (sec): 1.500000E-2
Scans to average: 1
Electric dark correction enabled: true
Nonlinearity correction enabled: false
Boxcar width: 0
XAxis mode: Wavelengths
Number of Pixels in Spectrum: 3648
>>>>>Begin Spectral Data<<<<<
179.3399	-0
179.5586	-0
179.7771	-0
179.9957	-0.1669
180.2143	-0
180.4329	-0.1757
180.6514	-0
180.8699	-0
181.0885	-0.3746
181.307	0.2
181.5255	0.1736
181.744	0.0595
181.9625	1.0375
182.181	0.4081
182.3994	-0.608
182.6179	-0.2834
182.8363	-0
183.0547	-0
183.2732	0.2054
183.4916	0.1963
183.71	0.1869
183.9284	0.059
184.1467	0.189
184.3651	0.3949
184.5835	0.2328
184.8018	0.2183
185.0201	0.0618
185.2385	0.2972
185.4568	0.1218
185.6751	0.0093
185.8934	0.4801
186.1117	0.0797
186.3299	0.1027
186.5482	0.2229
186.7664	0.0812
186.9847	-0.0152
187.2029	0.2483
187.4211	-0.0774
187.6393	0.2551
187.8575	0.1128
188.0757	0.3541
188.2939	0.1488
188.512	0.3464
188.7302	0.1071
188.9483	0.1135
189.1665	0.4017
189.3846	0.1832
189.6027	0.1794
189.8208	0.2154
190.0389	0.1344
190.257	-0.0105
190.475	0.0881
190.6931	0.1262
190.9111	0.007
191.1292	0.1355
191.3472	0.202
191.5652	0.2618
191.7832	0.2244
192.0012	0.189
192.2192	0.1081
192.4371	0.1941
192.6551	0.0752
192.873	0.1303
193.091	0.1009
193.3089	0.2711
193.5268	0.2124
193.7447	0.1562
193.9626	0.2043
194.1805	0.2009
194.3984	0.253
194.6162	0.2613
194.8341	0.3559
195.0519	0.24
195.2697	0.2241
195.4875	0.244
195.7054	0.2643
195.9231	0.2008
196.1409	0.3369
196.3587	0.2805
196.5765	0.3709
196.7942	0.328
197.012	0.342
197.2297	0.3191
197.4474	0.3637
197.6651	0.3061
197.8828	0.2496
198.1005	0.3624
198.3182	0.3746
198.5358	0.3644
198.7535	0.3793
198.9711	0.4262
199.1888	0.3287
199.4064	0.4334
199.624	0.4196
199.8416	0.3287
200.0592	0.3944
200.2767	0.3907
200.4943	0.4296
200.7119	0.4297
200.9294	0.392
201.1469	0.4162
201.3645	0.4289
201.582	0.3898
201.7995	0.4094
202.017	0.4459
202.2344	0.4425
202.4519	0.3859
202.6694	0.3757
202.8868	0.3914
203.1042	0.3792
203.3217	0.3793
203.5391	0.3825
203.7565	0.3776
203.9739	0.3855
204.1913	0.3615
204.4086	0.3609
204.626	0.3568
204.8433	0.3697
205.0607	0.3504
205.278	0.3629
205.4953	0.318
205.7126	0.3249
205.9299	0.3431
206.1472	0.2986
206.3644	0.3379
206.5817	0.3385
206.7989	0.3108
207.0162	0.3274
207.2334	0.3296
207.4506	0.3125
207.6678	0.3027
207.885	0.3255
208.1022	0.3036
208.3194	0.2937
208.5365	0.2845
208.7537	0.3208
208.9708	0.3046
209.1879	0.3008
209.405	0.2687
209.6222	0.252
209.8392	0.3214
210.0563	0.2761
210.2734	0.2746
210.4905	0.2737
210.7075	0.2693
210.9245	0.2729
211.1416	0.2597
211.3586	0.2649
211.5756	0.2415
211.7926	0.2707
212.0096	0.2705
212.2265	0.2647
212.4435	0.2684
212.6604	0.2532
212.8774	0.2493
213.0943	0.2516
213.3112	0.2505
213.5281	0.247
213.745	0.254
213.9619	0.2461
214.1788	0.2678
214.3956	0.2507
214.6125	0.2365
214.8293	0.2541
215.0461	0.2684
215.2629	0.2517
215.4798	0.2386
215.6965	0.2403
215.9133	0.2514
216.1301	0.2392
216.3469	0.2715
216.5636	0.2347
216.7803	0.2455
216.9971	0.2605
217.2138	0.2626
217.4305	0.2597
217.6472	0.2514
217.8639	0.2487
218.0805	0.2649
218.2972	0.2586
218.5138	0.2601
218.7305	0.2499
218.9471	0.2445
219.1637	0.2705
219.3803	0.2708
219.5969	0.2614
219.8135	0.2705
220.0301	0.2664
220.2466	0.2637
220.4632	0.2492
220.6797	0.2522
220.8962	0.2645
221.1127	0.2656
221.3292	0.2718
221.5457	0.2631
221.7622	0.2676
221.9787	0.2843
222.1951	0.284
222.4116	0.2689
222.628	0.2789
222.8444	0.2793
223.0608	0.2704
223.2772	0.2876
223.4936	0.2773
223.71	0.2779
223.9264	0.2794
224.1427	0.2887
224.3591	0.3009
224.5754	0.2984
224.7917	0.2848
225.008	0.2959
225.2243	0.3144
225.4406	0.3031
225.6569	0.3127
225.8732	0.3137
226.0894	0.317
226.3057	0.3049
226.5219	0.3222
226.7381	0.3281
226.9543	0.3115
227.1705	0.3218
227.3867	0.325
227.6029	0.338
227.8191	0.3328
228.0352	0.3378
228.2513	0.3623
228.4675	0.3362
228.6836	0.3465
228.8997	0.3321
229.1158	0.3558
229.3319	0.3559
229.548	0.3479
229.764	0.3619
229.9801	0.3786
230.1961	0.3614
230.4121	0.3801
230.6282	0.3847
230.8442	0.3901
231.0602	0.3863
231.2761	0.3843
231.4921	0.3932
231.7081	0.4005
231.924	0.3974
232.14	0.4038
232.3559	0.4012
232.5718	0.4105
232.7877	0.4151
233.0036	0.4068
233.2195	0.4207
233.4353	0.4193
233.6512	0.4187
233.867	0.436
234.0829	0.4321
234.2987	0.4198
234.5145	0.4346
234.7303	0.4292
234.9461	0.451
235.1619	0.4394
235.3776	0.4345
235.5934	0.4483
235.8091	0.4386
236.0249	0.4557
236.2406	0.4331
236.4563	0.4532
236.672	0.4527
236.8877	0.4406
237.1034	0.4535
237.319	0.4504
237.5347	0.4478
237.7503	0.4576
237.966	0.4573
238.1816	0.4597
238.3972	0.4645
238.6128	0.4576
238.8284	0.4727
239.0439	0.4564
239.2595	0.4622
239.475	0.4621
239.6906	0.4625
239.9061	0.4728
240.1216	0.4639
240.3371	0.4564
240.5526	0.4707
240.7681	0.463
240.9836	0.4584
241.199	0.4575
241.4145	0.4533
241.6299	0.4502
241.8453	0.4465
242.0607	0.4432
242.2761	0.4522
242.4915	0.4219
242.7069	0.4165
242.9223	0.4234
243.1376	0.4129
243.353	0.4029
243.5683	0.3946
243.7836	0.3942
243.9989	0.3835
244.2142	0.3767
244.4295	0.3694
244.6448	0.3698
244.86	0.3567
245.0753	0.3472
245.2905	0.3421
245.5057	0.3487
245.721	0.3315
245.9362	0.3241
246.1514	0.3255
246.3665	0.3221
246.5817	0.2986
246.7969	0.3058
247.012	0.2974
247.2271	0.3009
247.4423	0.2869
247.6574	0.2858
247.8725	0.2735
248.0876	0.2688
248.3026	0.2719
248.5177	0.2506
248.7328	0.2528
248.9478	0.252
249.1628	0.2471
249.3779	0.2472
249.5929	0.2411
249.8079	0.243
250.0228	0.2395
250.2378	0.2347
250.4528	0.234
250.6677	0.2262
250.8827	0.2205
251.0976	0.219
251.3125	0.2177
251.5274	0.2181
251.7423	0.2161
251.9572	0.2117
252.172	0.2133
252.3869	0.2115
252.6017	0.209
252.8166	0.2037
253.0314	0.2027
253.2462	0.2033
253.461	0.2001
253.6758	0.2046
253.8906	0.1945
254.1053	0.1962
254.3201	0.1937
254.5348	0.1864
254.7496	0.1884
254.9643	0.1923
255.179	0.1889
255.3937	0.1982
255.6083	0.1972
255.823	0.1861
256.0377	0.1871
256.2523	0.1886
256.467	0.1957
256.6816	0.1865
256.8962	0.1819
257.1108	0.1835
257.3254	0.1853
257.54	0.1876
257.7545	0.1881
257.9691	0.1863
258.1836	0.1809
258.3981	0.1841
258.6127	0.1752
258.8272	0.1832
259.0417	0.1815
259.2561	0.179
259.4706	0.1758
259.6851	0.1764
259.8995	0.183
260.114	0.1849
260.3284	0.1749
260.5428	0.1821
260.7572	0.1807
260.9716	0.1857
261.186	0.1807
261.4003	0.1769
261.6147	0.1748
261.829	0.1796
262.0433	0.1804
262.2577	0.1847
262.472	0.1778
262.6863	0.1831
262.9005	0.1772
263.1148	0.1806
263.3291	0.184
263.5433	0.1827
263.7576	0.1807
263.9718	0.1826
264.186	0.1833
264.4002	0.1817
264.6144	0.1864
264.8286	0.179
265.0427	0.1876
265.2569	0.1935
265.471	0.1873
265.6851	0.1858
265.8993	0.1828
266.1134	0.1872
266.3275	0.1887
266.5415	0.1853
266.7556	0.1868
266.9697	0.1867
267.1837	0.1891
267.3978	0.1822
267.6118	0.1824
267.8258	0.1859
268.0398	0.1871
268.2538	0.1852
268.4677	0.1846
268.6817	0.1784
268.8957	0.1778
269.1096	0.1773
269.3235	0.182
269.5374	0.1876
269.7514	0.1788
269.9652	0.181
270.1791	0.1775
270.393	0.1753
270.6068	0.1842
270.8207	0.1799
271.0345	0.1718
271.2483	0.1744
271.4622	0.1814
271.676	0.1795
271.8897	0.1741
272.1035	0.1805
272.3173	0.1742
272.531	0.1767
272.7448	0.177
272.9585	0.1768
273.1722	0.171
273.3859	0.1741
273.5996	0.1797
273.8133	0.1779
274.0269	0.1717
274.2406	0.1798
274.4542	0.1751
274.6679	0.1787
274.8815	0.1815
275.0951	0.1809
275.3087	0.1759
275.5223	0.178
275.7358	0.1841
275.9494	0.1804
276.1629	0.1796
276.3765	0.174
276.59	0.1778
276.8035	0.1788
277.017	0.1871
277.2305	0.179
277.444	0.1855
277.6574	0.1842
277.8709	0.1848
278.0843	0.1821
278.2978	0.1873
278.5112	0.1868
278.7246	0.1842
278.938	0.1856
279.1513	0.187
279.3647	0.185
279.5781	0.1818
279.7914	0.1862
280.0047	0.1891
280.2181	0.1797
280.4314	0.1868
280.6447	0.1893
280.8579	0.1828
281.0712	0.1839
281.2845	0.1853
281.4977	0.1885
281.711	0.1797
281.9242	0.1901
282.1374	0.1847
282.3506	0.1866
282.5638	0.1809
282.7769	0.1849
282.9901	0.1858
283.2033	0.1878
283.4164	0.1853
283.6295	0.1914
283.8426	0.1864
284.0557	0.1908
284.2688	0.1878
284.4819	0.187
284.695	0.195
284.908	0.1867
285.1211	0.1879
285.3341	0.1917
285.5471	0.1902
285.7601	0.1902
285.9731	0.1938
286.1861	0.1922
286.3991	0.1929
286.612	0.1955
286.825	0.193
287.0379	0.1909
287.2508	0.1911
287.4637	0.1974
287.6766	0.19
287.8895	0.1928
288.1024	0.1985
288.3152	0.1984
288.5281	0.1902
288.7409	0.2007
288.9538	0.1911
289.1666	0.1965
289.3794	0.1893
289.5922	0.1898
289.8049	0.1953
290.0177	0.2007
290.2304	0.1957
290.4432	0.2009
290.6559	0.1989
290.8686	0.1939
291.0813	0.197
291.294	0.1993
291.5067	0.1916
291.7194	0.1918
291.932	0.192
292.1447	0.2003
292.3573	0.197
292.5699	0.2024
292.7825	0.1936
292.9951	0.1992
293.2077	0.1913
293.4203	0.1982
293.6328	0.1998
293.8454	0.1994
294.0579	0.1968
294.2704	0.1979
294.4829	0.2006
294.6954	0.2004
294.9079	0.1929
295.1204	0.1973
295.3328	0.2049
295.5453	0.2007
295.7577	0.1984
295.9701	0.1964
296.1825	0.2004
296.3949	0.2008
296.6073	0.1996
296.8197	0.2039
297.0321	0.2015
297.2444	0.1908
297.4567	0.1936
297.6691	0.198
297.8814	0.1971
298.0937	0.1972
298.306	0.1958
298.5182	0.201
298.7305	0.198
298.9428	0.1978
299.155	0.1935
299.3672	0.1956
299.5794	0.2037
299.7916	0.193
300.0038	0.1994
300.216	0.1979
300.4282	0.196
300.6403	0.1979
300.8525	0.1937
301.0646	0.195
301.2767	0.1948
301.4888	0.2023
301.7009	0.1961
301.913	0.1988
302.125	0.1971
302.3371	0.1962
302.5491	0.1993
302.7612	0.2031
302.9732	0.1953
303.1852	0.199
303.3972	0.1974
303.6092	0.1965
303.8211	0.1948
304.0331	0.1948
304.245	0.1927
304.457	0.1932
304.6689	0.1933
304.8808	0.1907
305.0927	0.1915
305.3046	0.1927
305.5164	0.1865
305.7283	0.1876
305.9401	0.1756
306.152	0.1841
306.3638	0.1844
306.5756	0.1889
306.7874	0.1764
306.9992	0.1835
307.2109	0.1747
307.4227	0.1761
307.6344	0.1776
307.8462	0.1772
308.0579	0.1756
308.2696	0.1718
308.4813	0.1737
308.693	0.1694
308.9046	0.1692
309.1163	0.1663
309.328	0.1637
309.5396	0.161
309.7512	0.1581
309.9628	0.1569
310.1744	0.1544
310.386	0.1486
310.5976	0.1517
310.8091	0.1533
311.0207	0.1496
311.2322	0.1464
311.4437	0.147
311.6552	0.1539
311.8667	0.1458
312.0782	0.1453
312.2897	0.145
312.5012	0.1422
312.7126	0.1446
312.924	0.143
313.1355	0.1448
313.3469	0.1421
313.5583	0.1451
313.7696	0.1397
313.981	0.1461
314.1924	0.1361
314.4037	0.1334
314.6151	0.1368
314.8264	0.1384
315.0377	0.1383
315.249	0.1404
315.4603	0.1313
315.6716	0.1382
315.8828	0.1349
316.0941	0.1297
316.3053	0.1302
316.5165	0.1349
316.7277	0.1311
316.9389	0.13
317.1501	0.1313
317.3613	0.1314
317.5724	0.1262
317.7836	0.1227
317.9947	0.123
318.2058	0.1256
318.417	0.1326
318.6281	0.1298
318.8391	0.128
319.0502	0.1307
319.2613	0.1308
319.4723	0.1239
319.6834	0.1296
319.8944	0.1261
320.1054	0.1282
320.3164	0.1184
320.5274	0.1289
320.7383	0.129
320.9493	0.1327
321.1602	0.1278
321.3712	0.127
321.5821	0.1251
321.793	0.13
322.0039	0.1281
322.2148	0.1273
322.4257	0.1283
322.6365	0.1255
322.8474	0.1334
323.0582	0.1292
323.269	0.1323
323.4798	0.1309
323.6906	0.1232
323.9014	0.1281
324.1122	0.1246
324.3229	0.1361
324.5337	0.1342
324.7444	0.1282
324.9551	0.1315
325.1658	0.1302
325.3765	0.1325
325.5872	0.1279
325.7979	0.1333
326.0085	0.1307
326.2192	0.1282
326.4298	0.1371
326.6404	0.1361
326.851	0.1338
327.0616	0.1385
327.2722	0.1364
327.4828	0.1355
327.6933	0.1435
327.9039	0.1336
328.1144	0.1322
328.3249	0.1414
328.5354	0.1338
328.7459	0.1323
328.9564	0.1382
329.1669	0.1421
329.3773	0.1397
329.5878	0.1368
329.7982	0.1398
330.0086	0.1387
330.219	0.1368
330.4294	0.1369
330.6398	0.1391
330.8502	0.145
331.0605	0.1351
331.2708	0.1372
331.4812	0.1392
331.6915	0.1376
331.9018	0.1388
332.1121	0.1489
332.3224	0.1422
332.5326	0.1352
332.7429	0.1413
332.9531	0.1442
333.1633	0.1361
333.3735	0.1361
333.5837	0.1434
333.7939	0.145
334.0041	0.1428
334.2143	0.1419
334.4244	0.1498
334.6346	0.1445
334.8447	0.1408
335.0548	0.1445
335.2649	0.148
335.475	0.1457
335.685	0.1472
335.8951	0.1369
336.1051	0.1472
336.3152	0.1484
336.5252	0.1449
336.7352	0.1443
336.9452	0.1449
337.1552	0.1453
337.3652	0.1429
337.5751	0.1427
337.7851	0.145
337.995	0.1503
338.2049	0.1437
338.4148	0.1454
338.6247	0.1515
338.8346	0.1406
339.0445	0.1472
339.2543	0.143
339.4642	0.1431
339.674	0.144
339.8838	0.1444
340.0936	0.1437
340.3034	0.1468
340.5132	0.1427
340.7229	0.1522
340.9327	0.1602
341.1424	0.1495
341.3522	0.1433
341.5619	0.1517
341.7716	0.1518
341.9813	0.1549
342.1909	0.1533
342.4006	0.1563
342.6102	0.1511
342.8199	0.1542
343.0295	0.1511
343.2391	0.1523
343.4487	0.153
343.6583	0.1646
343.8679	0.1538
344.0774	0.1558
344.287	0.1557
344.4965	0.164
344.706	0.163
344.9155	0.1581
345.125	0.1598
345.3345	0.1684
345.544	0.1623
345.7534	0.159
345.9629	0.1591
346.1723	0.1703
346.3817	0.1668
346.5911	0.1668
346.8005	0.1705
347.0099	0.1646
347.2193	0.1679
347.4286	0.1762
347.638	0.1747
347.8473	0.1684
348.0566	0.1681
348.2659	0.1732
348.4752	0.1728
348.6845	0.1653
348.8937	0.1757
349.103	0.1759
349.3122	0.1736
349.5214	0.1796
349.7306	0.1798
349.9398	0.178
350.149	0.1701
350.3582	0.1807
350.5674	0.1794
350.7765	0.1853
350.9856	0.1711
351.1948	0.1854
351.4039	0.1802
351.613	0.181
351.822	0.1837
352.0311	0.1874
352.2402	0.1844
352.4492	0.1844
352.6582	0.182
352.8672	0.1806
353.0762	0.1906
353.2852	0.187
353.4942	0.1839
353.7032	0.1885
353.9121	0.1902
354.1211	0.1904
354.33	0.1933
354.5389	0.1863
354.7478	0.1799
354.9567	0.1885
355.1655	0.1918
355.3744	0.1883
355.5833	0.1922
355.7921	0.193
356.0009	0.1915
356.2097	0.191
356.4185	0.1891
356.6273	0.198
356.8361	0.1979
357.0448	0.1964
357.2536	0.1997
357.4623	0.1986
357.671	0.1997
357.8797	0.2009
358.0884	0.2005
358.2971	0.1975
358.5057	0.2023
358.7144	0.2022
358.923	0.2075
359.1316	0.2088
359.3402	0.2066
359.5488	0.2056
359.7574	0.2078
359.966	0.2066
360.1746	0.2079
360.3831	0.2142
360.5916	0.2214
360.8002	0.2124
361.0087	0.2096
361.2172	0.2174
361.4256	0.2097
361.6341	0.2158
361.8426	0.2173
362.051	0.2194
362.2594	0.22
362.4678	0.2202
362.6762	0.2249
362.8846	0.225
363.093	0.2203
363.3014	0.2279
363.5097	0.2284
363.718	0.2309
363.9264	0.225
364.1347	0.2247
364.343	0.2322
364.5513	0.2253
364.7595	0.232
364.9678	0.2291
365.176	0.2329
365.3842	0.232
365.5925	0.2348
365.8007	0.2314
366.0089	0.2404
366.217	0.241
366.4252	0.2351
366.6333	0.2391
366.8415	0.2456
367.0496	0.2466
367.2577	0.2552
367.4658	0.2397
367.6739	0.2417
367.882	0.2471
368.09	0.237
368.2981	0.2491
368.5061	0.2493
368.7141	0.2385
368.9221	0.2515
369.1301	0.2565
369.3381	0.2572
369.5461	0.2595
369.754	0.2492
369.962	0.2517
370.1699	0.2654
370.3778	0.2589
370.5857	0.25
370.7936	0.2647
371.0015	0.2554
371.2093	0.263
371.4172	0.2541
371.625	0.2649
371.8328	0.2559
372.0406	0.2719
372.2484	0.2603
372.4562	0.2654
372.664	0.2692
372.8717	0.2728
373.0795	0.2714
373.2872	0.274
373.4949	0.2661
373.7026	0.2733
373.9103	0.2705
374.118	0.2642
374.3256	0.275
374.5333	0.2596
374.7409	0.2798
374.9485	0.2752
375.1561	0.2802
375.3637	0.2703
375.5713	0.2835
375.7789	0.2746
375.9864	0.2777
376.194	0.285
376.4015	0.2717
376.609	0.2882
376.8165	0.2886
377.024	0.2836
377.2315	0.2915
377.4389	0.2749
377.6464	0.2889
377.8538	0.2825
378.0612	0.2801
378.2686	0.287
378.476	0.2949
378.6834	0.2851
378.8908	0.2998
379.0981	0.2922
379.3055	0.2902
379.5128	0.2841
379.7201	0.299
379.9274	0.2885
380.1347	0.2983
380.342	0.2966
380.5492	0.2975
380.7565	0.2999
380.9637	0.2987
381.1709	0.2898
381.3781	0.3023
381.5853	0.2945
381.7925	0.2976
381.9997	0.3108
382.2068	0.3005
382.4139	0.3039
382.6211	0.3054
382.8282	0.3043
383.0353	0.3038
383.2424	0.3018
383.4494	0.3066
383.6565	0.3078
383.8635	0.3052
384.0706	0.304
384.2776	0.3091
384.4846	0.3119
384.6916	0.31
384.8986	0.3133
385.1055	0.313
385.3125	0.3196
385.5194	0.3121
385.7263	0.3106
385.9333	0.3049
386.1402	0.3154
386.347	0.3073
386.5539	0.3049
386.7608	0.309
386.9676	0.3083
387.1744	0.307
387.3813	0.3129
387.5881	0.3027
387.7948	0.311
388.0016	0.3165
388.2084	0.3038
388.4151	0.3078
388.6219	0.2999
388.8286	0.3122
389.0353	0.3149
389.242	0.3128
389.4487	0.2983
389.6553	0.2982
389.862	0.297
390.0686	0.3001
390.2753	0.3016
390.4819	0.2975
390.6885	0.2959
390.8951	0.3033
391.1016	0.2955
391.3082	0.3067
391.5147	0.2888
391.7213	0.2986
391.9278	0.2992
392.1343	0.2891
392.3408	0.2898
392.5473	0.297
392.7537	0.2896
392.9602	0.2863
393.1666	0.2923
393.373	0.2928
393.5794	0.2833
393.7858	0.2865
393.9922	0.2799
394.1986	0.2835
394.4049	0.2795
394.6113	0.2776
394.8176	0.2844
395.0239	0.2777
395.2302	0.2711
395.4365	0.282
395.6428	0.277
395.8491	0.278
396.0553	0.262
396.2615	0.2763
396.4678	0.2698
396.674	0.2647
396.8802	0.2635
397.0863	0.2653
397.2925	0.2797
397.4987	0.2632
397.7048	0.2753
397.9109	0.2652
398.117	0.2737
398.3231	0.2608
398.5292	0.2584
398.7353	0.261
398.9413	0.2606
399.1474	0.2611
399.3534	0.2689
399.5594	0.2751
399.7654	0.2566
399.9714	0.2595
400.1774	0.2603
400.3833	0.2634
400.5893	0.2601
400.7952	0.2717
401.0011	0.2702
401.207	0.2644
401.4129	0.2694
401.6188	0.2586
401.8247	0.2704
402.0305	0.2653
402.2364	0.2616
402.4422	0.2683
402.648	0.2663
402.8538	0.2659
403.0596	0.2615
403.2654	0.2648
403.4711	0.2591
403.6768	0.2553
403.8826	0.2643
404.0883	0.2661
404.294	0.2679
404.4997	0.2684
404.7054	0.2652
404.911	0.2561
405.1167	0.2577
405.3223	0.2601
405.5279	0.2715
405.7335	0.2639
405.9391	0.253
406.1447	0.2725
406.3502	0.2531
406.5558	0.26
406.7613	0.2571
406.9668	0.2571
407.1724	0.2651
407.3778	0.2633
407.5833	0.2571
407.7888	0.2573
407.9942	0.2646
408.1997	0.2697
408.4051	0.2627
408.6105	0.2681
408.8159	0.2552
409.0213	0.2518
409.2267	0.2652
409.432	0.2521
409.6374	0.2657
409.8427	0.2737
410.048	0.2607
410.2533	0.2593
410.4586	0.2545
410.6639	0.2747
410.8691	0.2573
411.0744	0.2552
411.2796	0.2621
411.4848	0.2602
411.69	0.2608
411.8952	0.2592
412.1004	0.2511
412.3056	0.2572
412.5107	0.2576
412.7158	0.2619
412.921	0.2592
413.1261	0.2587
413.3312	0.2595
413.5362	0.2735
413.7413	0.2563
413.9464	0.2408
414.1514	0.2561
414.3564	0.2532
414.5614	0.2542
414.7664	0.2534
414.9714	0.2405
415.1764	0.2609
415.3813	0.2556
415.5863	0.2597
415.7912	0.2596
415.9961	0.2558
416.201	0.2619
416.4059	0.2467
416.6108	0.2611
416.8156	0.2618
417.0205	0.2556
417.2253	0.2577
417.4301	0.2576
417.6349	0.2548
417.8397	0.2541
418.0445	0.2446
418.2492	0.245
418.454	0.2513
418.6587	0.2556
418.8634	0.2585
419.0681	0.2519
419.2728	0.251
419.4775	0.2579
419.6822	0.2397
419.8868	0.2422
420.0915	0.2467
420.2961	0.2357
420.5007	0.2447
420.7053	0.243
420.9099	0.2401
421.1144	0.2372
421.319	0.2374
421.5235	0.2344
421.728	0.2455
421.9325	0.2382
422.137	0.2343
422.3415	0.2457
422.546	0.236
422.7504	0.2397
422.9549	0.2296
423.1593	0.2319
423.3637	0.2309
423.5681	0.2292
423.7725	0.2306
423.9769	0.2368
424.1812	0.2263
424.3856	0.2335
424.5899	0.2279
424.7942	0.2225
424.9985	0.2203
425.2028	0.2274
425.4071	0.2242
425.6113	0.2275
425.8156	0.2299
426.0198	0.2357
426.224	0.2276
426.4282	0.2158
426.6324	0.2259
426.8366	0.2257
427.0407	0.2157
427.2449	0.2071
427.449	0.2288
427.6531	0.2121
427.8572	0.2153
428.0613	0.2246
428.2654	0.2052
428.4694	0.2066
428.6735	0.2102
428.8775	0.2031
429.0815	0.1934
429.2855	0.2076
429.4895	0.199
429.6935	0.1909
429.8975	0.2027
430.1014	0.1989
430.3053	0.2046
430.5093	0.2001
430.7132	0.1883
430.9171	0.1947
431.1209	0.1958
431.3248	0.1829
431.5286	0.1823
431.7325	0.1909
431.9363	0.179
432.1401	0.1818
432.3439	0.1764
432.5477	0.1619
432.7514	0.1678
432.9552	0.1859
433.1589	0.1681
433.3627	0.1811
433.5664	0.1632
433.7701	0.1698
433.9737	0.1655
434.1774	0.1719
434.3811	0.1636
434.5847	0.1658
434.7883	0.164
434.9919	0.1573
435.1955	0.1617
435.3991	0.1516
435.6027	0.1472
435.8062	0.1582
436.0098	0.1496
436.2133	0.1523
436.4168	0.1456
436.6203	0.1368
436.8238	0.1386
437.0272	0.1448
437.2307	0.1404
437.4341	0.1393
437.6375	0.1389
437.841	0.1329
438.0443	0.1402
438.2477	0.1233
438.4511	0.1213
438.6545	0.1304
438.8578	0.1312
439.0611	0.131
439.2644	0.1324
439.4677	0.121
439.671	0.1095
439.8743	0.1252
440.0775	0.1163
440.2808	0.1128
440.484	0.1135
440.6872	0.1106
440.8904	0.1073
441.0936	0.1091
441.2967	0.1048
441.4999	0.098
441.703	0.1056
441.9062	0.1037
442.1093	0.1084
442.3124	0.0904
442.5155	0.1035
442.7185	0.0866
442.9216	0.0957
443.1246	0.0896
443.3276	0.0901
443.5307	0.0926
443.7337	0.0953
443.9366	0.0826
444.1396	0.0816
444.3426	0.0891
444.5455	0.0841
444.7484	0.0795
444.9513	0.0855
445.1542	0.0869
445.3571	0.075
445.56	0.0747
445.7628	0.0732
445.9657	0.0864
446.1685	0.072
446.3713	0.0717
446.5741	0.0822
446.7769	0.0782
446.9797	0.0694
447.1824	0.066
447.3852	0.0569
447.5879	0.0678
447.7906	0.0675
447.9933	0.0694
448.196	0.062
448.3986	0.0575
448.6013	0.0541
448.8039	0.0679
449.0066	0.0656
449.2092	0.0641
449.4118	0.0506
449.6143	0.0546
449.8169	0.0594
450.0195	0.0555
450.222	0.0604
450.4245	0.0588
450.627	0.0484
450.8295	0.0526
451.032	0.0451
451.2345	0.0385
451.4369	0.0527
451.6394	0.0419
451.8418	0.0501
452.0442	0.0422
452.2466	0.04
452.449	0.0506
452.6513	0.041
452.8537	0.0366
453.056	0.039
453.2583	0.041
453.4607	0.0357
453.663	0.0492
453.8652	0.0371
454.0675	0.0465
454.2697	0.0369
454.472	0.0326
454.6742	0.0422
454.8764	0.0365
455.0786	0.0398
455.2808	0.0312
455.4829	0.0396
455.6851	0.033
455.8872	0.0292
456.0893	0.0317
456.2915	0.0306
456.4935	0.0319
456.6956	0.0365
456.8977	0.0297
457.0997	0.0366
457.3018	0.0188
457.5038	0.0282
457.7058	0.0385
457.9078	0.0293
458.1098	0.0248
458.3117	0.0338
458.5137	0.0224
458.7156	0.0199
458.9175	0.0271
459.1194	0.0219
459.3213	0.0195
459.5232	0.0289
459.725	0.0193
459.9269	0.0318
460.1287	0.0182
460.3305	0.0212
460.5323	0.0214
460.7341	0.0329
460.9359	0.0155
461.1376	0.0233
461.3394	0.0241
461.5411	0.0222
461.7428	0.0212
461.9445	0.0188
462.1462	0.017
462.3479	0.0181
462.5495	0.0233
462.7512	0.0146
462.9528	0.0182
463.1544	0.011
463.356	0.0156
463.5576	0.0273
463.7592	0.0151
463.9607	0.0162
464.1623	0.0092
464.3638	0.012
464.5653	0.017
464.7668	0.0269
464.9683	0.0092
465.1697	0.003
465.3712	0.0038
465.5726	0.0137
465.7741	0.0172
465.9755	0.0164
466.1769	0.0122
466.3782	0.0081
466.5796	0.0149
466.7809	0.0182
466.9823	-0.0015
467.1836	0.0125
467.3849	0.0129
467.5862	0.0062
467.7875	0.0069
467.9887	0.0163
468.19	0.0049
468.3912	0.0171
468.5924	0.005
468.7936	0.0126
468.9948	0.0044
469.196	0.0131
469.3972	0.0045
469.5983	0.0161
469.7994	0.0174
470.0006	0.0042
470.2017	0.008
470.4027	0.0253
470.6038	0.0087
470.8049	0.0031
471.0059	0.0238
471.2069	0.0162
471.408	0.0167
471.6089	0.0161
471.8099	0.0157
472.0109	0.0107
472.2119	0.0187
472.4128	0.0059
472.6137	0.0108
472.8146	0.0129
473.0155	0.0128
473.2164	0.0171
473.4173	-0.0004
473.6181	-0.0001
473.819	0.0128
474.0198	0.0029
474.2206	0.0018
474.4214	0.0083
474.6222	-0.0006
474.8229	0.0066
475.0237	0.0125
475.2244	0.0155
475.4251	0.0011
475.6258	0.0009
475.8265	0.0033
476.0272	0.0071
476.2278	0.0136
476.4285	0.0001
476.6291	0.0034
476.8297	0.0041
477.0303	-0.0018
477.2309	0.0069
477.4315	0.0104
477.632	-0.0014
477.8326	0.0078
478.0331	0.0114
478.2336	0.0051
478.4341	0.0107
478.6346	-0.0024
478.8351	0.0002
479.0355	0.0094
479.236	0.0118
479.4364	0.0062
479.6368	0.0047
479.8372	0.0037
480.0376	0.0035
480.2379	0.0046
480.4383	0.0174
480.6386	0
480.8389	0.0054
481.0392	0.0023
481.2395	0.0091
481.4398	0.0003
481.6401	0.0051
481.8403	0.0065
482.0405	-0.0001
482.2408	0.0028
482.441	0.0052
482.6411	0.009
482.8413	-0.0032
483.0415	0.0086
483.2416	-0.0005
483.4417	0.0049
483.6419	0.0067
483.8419	0.0087
484.042	-0.0009
484.2421	-0.0004
484.4422	0.0035
484.6422	0.0033
484.8422	0.0017
485.0422	0.0097
485.2422	0.0057
485.4422	0.0061
485.6422	0.0065
485.8421	0.0074
486.042	0.0107
486.242	0.0005
486.4419	0.0072
486.6417	0.0067
486.8416	0.0087
487.0415	0.0077
487.2413	0.0023
487.4411	0.0033
487.641	-0.0004
487.8408	0.0039
488.0405	0.0103
488.2403	0.0016
488.4401	0.003
488.6398	0.011
488.8395	0.0043
489.0392	0.0088
489.2389	0.0065
489.4386	-0.0027
489.6383	0.0102
489.8379	-0.0004
490.0376	0.006
490.2372	-0.0049
490.4368	0.0033
490.6364	-0.0048
490.836	-0.0035
491.0355	-0.0023
491.2351	-0.0022
491.4346	-0.0044
491.6341	-0.0037
491.8336	0.0052
492.0331	0.0005
492.2326	0.0015
492.432	0.0038
492.6315	0.0112
492.8309	0.0047
493.0303	0.0046
493.2297	0.0007
493.4291	-0.0034
493.6284	0.0128
493.8278	-0.0003
494.0271	-0.0047
494.2264	0.0043
494.4257	0.0098
494.625	0.0028
494.8243	-0.005
495.0236	0.0103
495.2228	0.0037
495.422	0.0031
495.6213	0.0011
495.8205	0.0056
496.0196	0.0045
496.2188	0.0008
496.418	0.005
496.6171	-0.0046
496.8162	0.0068
497.0153	0.0031
497.2144	0.0032
497.4135	-0.0006
497.6126	0.0036
497.8116	-0.0103
498.0107	-0.0032
498.2097	-0.0004
498.4087	-0.0007
498.6077	-0.0058
498.8067	-0.002
499.0056	-0.0044
499.2046	0.0012
499.4035	-0.0002
499.6024	-0.0066
499.8013	0.0028
500.0002	-0.0033
500.199	0.0011
500.3979	-0.0073
500.5967	0.0042
500.7956	-0.0008
500.9944	-0.0046
501.1932	0.0099
501.3919	0.0033
501.5907	0.0063
501.7895	-0.0023
501.9882	0.0008
502.1869	0.0101
502.3856	-0.0023
502.5843	0.0026
502.783	-0.0051
502.9816	0.0063
503.1803	-0.0018
503.3789	0.0029
503.5775	-0.0066
503.7761	-0.004
503.9747	0.005
504.1732	-0.0064
504.3718	0.005
504.5703	-0.0005
504.7689	-0.0067
504.9674	-0.0101
505.1658	-0.0046
505.3643	0.007
505.5628	0.0014
505.7612	0.0036
505.9597	-0.004
506.1581	0.0007
506.3565	0.005
506.5549	0.0036
506.7532	-0.0024
506.9516	0.0046
507.1499	-0.0027
507.3482	-0.0005
507.5465	-0.0014
507.7448	-0.0031
507.9431	0.0025
508.1414	-0.0122
508.3396	-0.0001
508.5379	-0.0011
508.7361	0.0021
508.9343	0.002
509.1325	-0.0016
509.3306	-0.004
509.5288	-0.0153
509.7269	-0.0009
509.9251	-0.0021
510.1232	0.0039
510.3213	0.0029
510.5193	-0.0026
510.7174	-0.0019
510.9154	0.0013
511.1135	-0.013
511.3115	-0.0081
511.5095	-0.0088
511.7075	-0.0003
511.9055	0.0004
512.1034	-0.0073
512.3014	-0.0027
512.4993	0.0012
512.6972	-0.0023
512.8951	0.0072
513.093	-0.0028
513.2908	0.0058
513.4887	-0.0044
513.6865	-0.0029
513.8844	-0.0019
514.0822	-0.0026
514.2799	-0.0095
514.4777	-0.0096
514.6755	-0.005
514.8732	-0.0076
515.0709	-0.0054
515.2687	-0.0158
515.4664	0.0023
515.664	-0.0041
515.8617	0.0028
516.0594	0.0023
516.257	-0.003
516.4546	0.0195
516.6522	0.0028
516.8498	0.0005
517.0474	-0.0069
517.2449	-0.0056
517.4425	-0.0091
517.64	-0.0016
517.8375	-0.0079
518.035	-0.0021
518.2325	-0.0121
518.43	-0.0114
518.6274	-0.0063
518.8249	-0.0063
519.0223	0.0058
519.2197	0.0029
519.4171	-0.002
519.6145	0.0053
519.8118	-0.0037
520.0092	-0.0134
520.2065	0.004
520.4038	-0.0008
520.6011	0.0032
520.7984	0.0002
520.9956	0.0094
521.1929	-0.0039
521.3901	-0.0029
521.5874	-0.0055
521.7846	-0.014
521.9818	-0.0069
522.1789	-0.0173
522.3761	0.0111
522.5732	0.0009
522.7704	-0.0106
522.9675	-0.0125
523.1646	-0.0039
523.3617	-0.0025
523.5587	0.003
523.7558	-0.0117
523.9528	0.0006
524.1498	-0.0078
524.3468	-0.0006
524.5438	-0.0033
524.7408	-0.0071
524.9378	0.0028
525.1347	0.0031
525.3316	-0.0027
525.5285	0.0059
525.7254	-0.0025
525.9223	0.0028
526.1192	-0.0004
526.316	0.0017
526.5129	-0.0054
526.7097	-0.007
526.9065	-0.0002
527.1033	0.0003
527.3	-0.007
527.4968	0.0024
527.6935	-0.0129
527.8903	-0.0086
528.087	-0.0082
528.2837	0.0012
528.4804	-0.005
528.677	-0.0035
528.8737	-0.0001
529.0703	-0.0113
529.2669	0.006
529.4635	-0.0054
529.6601	-0.0153
529.8567	-0.0061
530.0532	0.0016
530.2498	-0.0098
530.4463	-0.0092
530.6428	0.0035
530.8393	0.0002
531.0358	-0.0052
531.2322	-0.0026
531.4287	0.0061
531.6251	-0.0113
531.8215	-0.0095
532.0179	0.0022
532.2143	-0.0029
532.4107	0.0103
532.607	-0.0057
532.8034	-0.0061
532.9997	-0.0119
533.196	-0.0069
533.3923	0.0023
533.5886	0.002
533.7848	-0.0038
533.9811	0.006
534.1773	0.0004
534.3735	-0.0007
534.5697	-0.001
534.7659	-0.0022
534.9621	0.0039
535.1582	-0.0017
535.3544	0.0135
535.5505	-0.0018
535.7466	-0.005
535.9427	-0.001
536.1387	-0.0088
536.3348	0.0063
536.5308	-0.0042
536.7269	-0.0144
536.9229	-0.0021
537.1189	0.0114
537.3148	-0.0054
537.5108	-0.002
537.7068	0.0036
537.9027	-0.0146
538.0986	0.0015
538.2945	-0.0051
538.4904	-0.0086
538.6863	0.0027
538.8821	0.0029
539.078	-0.003
539.2738	0.0041
539.4696	-0.009
539.6654	-0.0086
539.8611	0.0036
540.0569	-0.008
540.2526	0.0031
540.4484	-0.008
540.6441	0.0008
540.8398	0.0042
541.0355	-0.0042
541.2311	0.0025
541.4268	0.0018
541.6224	0.0004
541.818	-0.0003
542.0136	-0.0005
542.2092	0.0047
542.4048	0.0045
542.6003	-0.006
542.7959	0.0066
542.9914	0.0015
543.1869	-0.0003
543.3824	0.0071
543.5779	0.008
543.7734	0.0123
543.9688	0.0122
544.1642	0.0043
544.3596	0.0076
544.555	-0.0035
544.7504	0.0036
544.9458	-0.0061
545.1411	-0.0039
545.3365	-0.0002
545.5318	0.008
545.7271	0.0009
545.9224	-0.0052
546.1177	0.0052
546.3129	-0.001
546.5081	-0.0021
546.7034	0.0095
546.8986	-0.0046
547.0938	-0.0013
547.289	0.0086
547.4841	0.0047
547.6793	-0.0005
547.8744	0.0074
548.0695	-0
548.2646	-0.0015
548.4597	-0.0024
548.6548	0.0095
548.8498	-0.0044
549.0448	-0.0016
549.2399	0.0109
549.4349	-0.0015
549.6298	0.0084
549.8248	-0.009
550.0198	0.0006
550.2147	0.0098
550.4096	0.0026
550.6045	-0.0078
550.7994	-0.0003
550.9943	0.0011
551.1892	-0.0191
551.384	0.0042
551.5788	-0.0052
551.7737	0.0088
551.9685	0.0062
552.1632	0.0011
552.358	-0.0019
552.5528	0.0026
552.7475	-0.0097
552.9422	0.0038
553.1369	0.0056
553.3316	0.0046
553.5263	0.0041
553.7209	-0.0047
553.9156	0.0074
554.1102	0.0053
554.3048	-0.0032
554.4994	-0.0065
554.694	-0.0065
554.8885	-0.0003
555.0831	0.011
555.2776	0.0012
555.4721	-0.0012
555.6666	-0.0003
555.8611	0.006
556.0555	0.002
556.25	-0.0026
556.4444	0.0027
556.6388	-0.0048
556.8332	0.0014
557.0276	0.0051
557.222	0.0032
557.4163	0.0098
557.6107	0.0084
557.805	-0.0065
557.9993	0.0073
558.1936	-0.0009
558.3879	0.0024
558.5821	-0.0008
558.7764	0.0049
558.9706	-0.0007
559.1648	0.0085
559.359	-0.0128
559.5532	0.0027
559.7473	-0.0053
559.9415	-0.005
560.1356	0.0107
560.3297	0.0055
560.5238	0.0136
560.7179	-0.0054
560.9119	0.0062
561.106	-0.0084
561.3	0.0074
561.494	0.0024
561.688	0.0021
561.882	0.0005
562.076	0.0072
562.2699	0.0034
562.4639	0.0134
562.6578	0.0076
562.8517	0.0045
563.0456	0.0001
563.2395	0.0075
563.4333	0.0026
563.6272	0.0011
563.821	-0.0067
564.0148	0.0044
564.2086	-0.0029
564.4024	0.013
564.5961	-0.0029
564.7899	0.0173
564.9836	-0.003
565.1773	0.0078
565.371	0.0086
565.5647	0.0036
565.7584	0.0154
565.952	0.0024
566.1456	0.0012
566.3393	0.0044
566.5329	0.0093
566.7264	0.003
566.92	0.0123
567.1136	0.0039
567.3071	-0.0069
567.5006	0.0077
567.6941	0.006
567.8876	0.0034
568.0811	0.0212
568.2745	0.0021
568.468	0.0061
568.6614	0.0078
568.8548	0.009
569.0482	0.007
569.2416	0.0041
569.4349	0.0047
569.6283	0.0033
569.8216	0.0116
570.0149	0.0085
570.2082	0.0099
570.4015	0.0015
570.5947	0.0017
570.788	0.0128
570.9812	0.0021
571.1744	0.0102
571.3676	0.0079
571.5608	0.0052
571.754	0.0179
571.9471	0.0122
572.1402	0.0076
572.3333	0.0065
572.5264	0.0098
572.7195	0.0053
572.9126	0.0046
573.1057	0.0104
573.2987	0.0081
573.4917	0.0084
573.6847	0.0059
573.8777	0.0095
574.0707	0.0056
574.2636	0.0078
574.4566	0.0044
574.6495	0.0033
574.8424	0.0066
575.0353	0.0091
575.2281	0.0095
575.421	0.0058
575.6138	0.0041
575.8067	0.01
575.9995	0.0066
576.1923	0.0091
576.385	0.0081
576.5778	0.0134
576.7706	0.006
576.9633	0.0085
577.156	0
577.3487	0.0047
577.5414	0.0053
577.734	0.0066
577.9267	0.0095
578.1193	0.0116
578.3119	0.0071
578.5045	0.0078
578.6971	0.002
578.8897	0.0066
579.0822	0.0121
579.2747	0.0077
579.4673	0.0055
579.6598	0.0082
579.8522	0.0062
580.0447	0.0114
580.2372	0.0095
580.4296	0.013
580.622	0.0054
580.8144	0.0085
581.0068	0.0053
581.1992	0.008
581.3915	0.0008
581.5839	0.0095
581.7762	0.0069
581.9685	0.007
582.1608	0.0053
582.353	0.0075
582.5453	0.0084
582.7375	0.0083
582.9298	0.0017
583.122	0.0069
583.3142	0.0049
583.5063	0.0052
583.6985	0.006
583.8906	0.0056
584.0827	0.0072
584.2749	0.0062
584.4669	0.0027
584.659	0.0104
584.8511	0.0103
585.0431	0.0086
585.2352	0.0072
585.4272	0.0089
585.6192	0.008
585.8111	0.0044
586.0031	0.0057
586.195	0.0045
586.387	0.0063
586.5789	0.0114
586.7708	0.0129
586.9627	0.0059
587.1545	0.0078
587.3464	0.0059
587.5382	0.0079
587.73	0.0129
587.9218	0.0021
588.1136	0.0032
588.3053	0.007
588.4971	0.0065
588.6888	0.0117
588.8805	0.0038
589.0722	0.0168
589.2639	0.0053
589.4556	0.0085
589.6472	0.0123
589.8389	0.0109
590.0305	0.0045
590.2221	0.0075
590.4137	0.0081
590.6052	0.0044
590.7968	0.0062
590.9883	0.0088
591.1798	0.0083
591.3713	0.0014
591.5628	0.0096
591.7543	0.0075
591.9458	0.0074
592.1372	0.0054
592.3286	0.0085
592.52	0.0095
592.7114	0.0042
592.9028	0.0101
593.0941	0.0041
593.2855	0.0038
593.4768	0.0133
593.6681	0.0114
593.8594	0.0115
594.0506	0.0059
594.2419	0.007
594.4331	0.0092
594.6244	0.0017
594.8156	0.0059
595.0067	0.0007
595.1979	0.003
595.3891	0.0118
595.5802	0.0122
595.7713	0.0103
595.9624	0.0147
596.1535	0.0088
596.3446	0.0042
596.5357	0.0074
596.7267	0.0022
596.9177	0.0104
597.1087	-0.0021
597.2997	0.0124
597.4907	0.0074
597.6817	0.0093
597.8726	0.0073
598.0635	-0.0009
598.2544	0.0053
598.4453	0.0059
598.6362	0.0076
598.827	0.0055
599.0179	0.0081
599.2087	0.013
599.3995	0.0126
599.5903	0.0115
599.7811	0.0152
599.9718	0.004
600.1626	0.0045
600.3533	0.0077
600.544	0.0071
600.7347	0.0087
600.9254	0.0123
601.116	0.0063
601.3067	0.0065
601.4973	0.0084
601.6879	0.0049
601.8785	0.0097
602.0691	-0.0018
602.2596	0.0104
602.4502	0.0086
602.6407	0.0032
602.8312	0.0098
603.0217	0.008
603.2122	0.0053
603.4027	0.0047
603.5931	0.0033
603.7835	0.0104
603.9739	0.0103
604.1643	0.0091
604.3547	0.0153
604.5451	0.0104
604.7354	0.0098
604.9257	0.0061
605.116	-0.001
605.3063	0.0108
605.4966	0.0033
605.6869	0.0119
605.8771	0.006
606.0673	0.0089
606.2575	0.0065
606.4477	0.012
606.6379	0.0076
606.8281	0.0057
607.0182	0.0009
607.2083	0.0077
607.3985	0.0076
607.5885	0.0077
607.7786	0.0099
607.9687	0.0075
608.1587	0.0075
608.3488	0.0102
608.5388	0.0006
608.7288	-0.0004
608.9187	0.006
609.1087	0.009
609.2986	0.0101
609.4886	0.0046
609.6785	0.006
609.8684	0.0017
610.0582	0.0007
610.2481	0.0022
610.4379	0.0081
610.6278	0.0005
610.8176	0.0132
611.0074	0.0032
611.1971	0.0106
611.3869	0.0122
611.5766	0.0019
611.7664	0.0144
611.9561	0.0115
612.1458	0.0079
612.3354	0.0102
612.5251	0.0124
612.7147	0.0139
612.9044	0.0038
613.094	0.0072
613.2836	-0.0016
613.4731	0.0079
613.6627	0.0056
613.8522	0.0097
614.0417	0.0134
614.2313	0.0123
614.4207	0.0078
614.6102	0.0131
614.7997	0.0147
614.9891	0.0027
615.1785	-0.0008
615.3679	0.013
615.5573	0.0094
615.7467	-0.0033
615.9361	0.0038
616.1254	0.0082
616.3147	0.0098
616.504	0.0065
616.6933	0.0118
616.8826	0.0029
617.0718	0.0097
617.2611	0.01
617.4503	0.0104
617.6395	0.0003
617.8287	0.0204
618.0179	0.0077
618.207	0.0082
618.3961	-0.0023
618.5853	0.0045
618.7744	0.0004
618.9634	0.0117
619.1525	0.0108
619.3416	0.0103
619.5306	0.0073
619.7196	0.0109
619.9086	0.008
620.0976	0.0007
620.2866	0.0138
620.4755	0.0028
620.6645	0.0042
620.8534	0.0061
621.0423	0.0034
621.2312	-0.0024
621.42	0.0024
621.6089	0.0004
621.7977	0.0014
621.9865	0.0068
622.1753	-0.0049
622.3641	0.0051
622.5529	0.0028
622.7416	0.0013
622.9303	0.0121
623.1191	0.0063
623.3078	0.0019
623.4964	-0.0034
623.6851	0.011
623.8737	-0.0026
624.0624	-0.0079
624.251	0.0101
624.4396	0.0097
624.6282	0.0149
624.8167	-0.0011
625.0053	0.0111
625.1938	0.0085
625.3823	0.0109
625.5708	0.0023
625.7593	0.0056
625.9477	0.0106
626.1362	-0.002
626.3246	0.0082
626.513	0.0116
626.7014	0.0071
626.8898	0.0219
627.0781	0.0068
627.2665	0.0068
627.4548	0.0002
627.6431	0.0038
627.8314	0.0136
628.0197	0.0029
628.2079	-0.0011
628.3962	-0.0026
628.5844	-0.0022
628.7726	0.0028
628.9608	0.007
629.1489	0.0044
629.3371	-0.0094
629.5252	0.0187
629.7134	0.0059
629.9015	0.0032
630.0895	-0.0116
630.2776	0.0239
630.4657	0.0171
630.6537	0.0109
630.8417	-0.0121
631.0297	-0.0042
631.2177	0.0037
631.4057	0.016
631.5936	0.0069
631.7815	0.0125
631.9695	0.0384
632.1574	0.0145
632.3452	0.0246
632.5331	0.0155
632.7209	0.0048
632.9088	0.0174
633.0966	0.0217
633.2844	0.0099
633.4722	0.0042
633.6599	0.0243
633.8477	0.0034
634.0354	0.0199
634.2231	-0.0102
634.4108	-0.0001
634.5985	0.0131
634.7861	-0.0026
634.9738	-0.0043
635.1614	0.0189
635.349	0.0019
635.5366	0.007
635.7242	0.0092
635.9117	0.0056
636.0993	0.0138
636.2868	0.0051
636.4743	0.0069
636.6618	-0.0118
636.8492	0.0141
637.0367	0.0053
637.2241	0.0003
637.4115	0.0298
637.5989	0.003
637.7863	0.0254
637.9737	0.0204
638.161	0.0132
638.3484	-0.0075
638.5357	0.0096
638.723	0.0172
638.9103	-0.002
639.0975	0.0115
639.2848	0.0174
639.472	0.0052
639.6592	-0.0135
639.8464	0.0022
640.0336	0.0107
640.2208	0.0003
640.4079	0.0027
640.595	-0.0068
640.7821	0.0236
640.9692	-0.0171
641.1563	0.0038
641.3434	0.0258
641.5304	0.0237
641.7174	0.0168
641.9044	0.0104
642.0914	0.0232
642.2784	-0.0001
642.4653	-0.0003
642.6523	0.0114
642.8392	0.0057
643.0261	0.0187
643.213	0.0323
643.3999	0.0072
643.5867	0.0018
643.7735	0.005
643.9604	0.0157
644.1472	0.0093
644.3339	-0.009
644.5207	0.0013
644.7075	0.0172
644.8942	-0.0158
645.0809	0.0138
645.2676	-0.0069
645.4543	0.0109
645.6409	0.0221
645.8276	0.0137
646.0142	-0.0036
646.2008	0.0049
646.3874	0.0035
646.574	0.0112
646.7605	0.0033
646.9471	0.0083
647.1336	-0.0198
647.3201	0.0063
647.5066	0.0037
647.6931	0.0057
647.8795	0.0046
648.0659	-0.0038
648.2524	0.0148
648.4388	0.0149
648.6252	0.0142
648.8115	0.006
648.9979	0.0169
649.1842	0.0076
649.3705	0.0094
649.5568	-0.0027
649.7431	-0.012
649.9294	-0.0001
650.1156	-0.0044
650.3018	0.0019
650.488	0.0117
650.6742	0.0184
650.8604	0.0084
651.0466	-0.0028
651.2327	0.0084
651.4188	0.0049
651.6049	0.0125
651.791	0.0072
651.9771	0.0026
652.1632	0.0003
652.3492	0.0029
652.5352	0.0148
652.7212	0.0037
652.9072	0.0138
653.0932	0.023
653.2791	0.0152
653.465	0.0077
653.651	0.0155
653.8369	0.0083
654.0227	-0.0124
654.2086	0.0082
654.3944	0.012
654.5803	0.0028
654.7661	0.0051
654.9519	0.005
655.1377	0.0001
655.3234	0.0001
655.5092	0.0001
655.6949	0.0001
655.8806	0.0001
656.0663	0.0001
656.2519	0.0001
656.4376	0.0001
656.6232	0.0001
656.8088	0.0001
656.9945	0.0001
657.18	0.0001
657.3656	0.0001
657.5511	0.0001
657.7367	0.0001
657.9222	0.0001
658.1077	0.0001
658.2932	0.0001
658.4786	0.0001
658.6641	0.0001
658.8495	0.0001
659.0349	0.0001
659.2203	0.0001
659.4057	0.0191
659.591	0.2833
659.7764	0.032
659.9617	0.0163
660.147	0.0075
660.3323	0.0141
660.5176	0.0045
660.7028	0.0083
660.888	0.0114
661.0733	0.0134
661.2585	0.0099
661.4436	0.0219
661.6288	0.0316
661.8139	-0.0068
661.9991	-0.0272
662.1842	0.0149
662.3693	0.0024
662.5544	-0.0027
662.7394	0.0159
662.9245	-0.0093
663.1095	0.0027
663.2945	-0.006
663.4795	0.004
663.6644	-0.0085
663.8494	-0.0009
664.0343	0.0131
664.2193	0.0212
664.4042	0.0022
664.589	0.0108
664.7739	0.0189
664.9587	0.0142
665.1436	0.0091
665.3284	0.0057
665.5132	-0.0176
665.698	0.007
665.8827	0.0144
666.0675	0.004
666.2522	0.0112
666.4369	-0.0056
666.6216	0.0154
666.8063	0.0067
666.9909	-0.0134
667.1756	-0.008
667.3602	0.0075
667.5448	0.0382
667.7294	0.0337
667.9139	0.002
668.0985	0.0164
668.283	-0.0025
668.4675	0.014
668.652	0.0041
668.8365	0.0089
669.0209	-0.0052
669.2054	0.0244
669.3898	0.0034
669.5742	0.036
669.7586	0.0081
669.943	0.0073
670.1273	0.0027
670.3117	0.0042
670.496	0.007
670.6803	-0.0235
670.8646	-0.0299
671.0488	0.0299
671.2331	-0.0186
671.4173	-0.0021
671.6015	-0.006
671.7857	0.0131
671.9699	0.0222
672.1541	0.0042
672.3382	0.0015
672.5223	-0.0008
672.7064	0.0099
672.8905	0.006
673.0746	0.0169
673.2587	0.0135
673.4427	0.0004
673.6267	0.0337
673.8107	0.0244
673.9947	0.0183
674.1787	-0.0019
674.3626	0.0287
674.5465	0.0335
674.7304	0.0041
674.9143	0.007
675.0982	0.0083
675.2821	-0.001
675.4659	-0.0126
675.6497	0.0088
675.8335	0.0325
676.0173	-0.0222
676.2011	0.0307
676.3849	0.0105
676.5686	-0.0004
676.7523	0.018
676.936	0.0152
677.1197	-0.0006
677.3034	0.0256
677.487	0.0089
677.6706	0.0073
677.8542	0.0104
678.0378	0.0121
678.2214	0.0133
678.405	0.0039
678.5885	0.0169
678.772	0.0205
678.9555	0.0094
679.139	0.0179
679.3225	0.006
679.5059	0.0044
679.6894	0.011
679.8728	0.0032
680.0562	0.004
680.2395	0.0138
680.4229	0.0095
680.6062	0.0016
680.7896	0.0024
680.9729	0.0123
681.1562	-0.0017
681.3394	-0.0003
681.5227	0.0087
681.7059	0.0057
681.8891	0.0066
682.0723	0.0097
682.2555	0.0049
682.4387	0.0047
682.6218	0.0101
682.805	0.0127
682.9881	0.0064
683.1712	0.0187
683.3542	0.012
683.5373	-0.0038
683.7203	-0.0097
683.9034	0.008
684.0864	-0.0147
684.2694	0.0101
684.4523	0.0065
684.6353	0.0062
684.8182	0.0153
685.0011	0.0072
685.184	0.0026
685.3669	0.0216
685.5498	-0.0088
685.7326	0.0156
685.9154	0.0031
686.0982	0.0334
686.281	0.0032
686.4638	0.0105
686.6465	0.001
686.8293	-0.0034
687.012	0.0222
687.1947	0.0067
687.3774	0.0053
687.56	-0.0059
687.7427	-0.0001
687.9253	-0.009
688.1079	0.013
688.2905	0.0014
688.4731	0.0121
688.6556	0.0107
688.8382	0.0002
689.0207	0.0178
689.2032	0.0084
689.3857	-0.0103
689.5681	-0.002
689.7506	0.0241
689.933	0.0064
690.1154	0.0205
690.2978	0.0183
690.4802	0.0149
690.6626	0.0234
690.8449	0.0194
691.0272	0.018
691.2095	-0.0136
691.3918	-0.0033
691.5741	0.0083
691.7563	0.0092
691.9386	0.0386
692.1208	0.0098
692.303	0.0068
692.4852	0.0127
692.6673	0.0032
692.8495	-0.0097
693.0316	0.0358
693.2137	0.0316
693.3958	0.0091
693.5778	0.0031
693.7599	-0.0118
693.9419	-0.0244
694.1239	0.0006
694.3059	0.0159
694.4879	0.0155
694.6699	-0.0068
694.8518	0.0058
695.0337	0.0236
695.2157	0.012
695.3975	0.0109
695.5794	-0.014
695.7613	0.0042
695.9431	-0.0075
696.1249	0.0129
696.3067	0.0002
696.4885	0.0218
696.6703	0.0117
696.852	0.0082
697.0337	0.03
697.2154	0.0053
697.3971	0.0109
697.5788	0.0212
697.7605	-0.0133
697.9421	0.0216
698.1237	0.033
698.3053	-0.0025
698.4869	0.0066
698.6685	-0.0216
698.85	0.0041
699.0315	0.0055
699.213	0.0205
699.3945	0.0012
699.576	0.0182
699.7575	0.0068
699.9389	0.0351
700.1203	0.0083
700.3017	0.0142
700.4831	0.0113
700.6645	-0.0035
700.8458	-0.0126
701.0271	0.0186
701.2084	0.0077
701.3897	0.0085
701.571	-0.0215
701.7523	0.002
701.9335	-0.0001
702.1147	0.0272
702.2959	-0.0004
702.4771	0.0135
702.6583	0.0156
702.8394	-0.032
703.0205	0.0331
703.2016	0.0042
703.3827	-0.0051
703.5638	0.0079
703.7449	0.0317
703.9259	0.001
704.1069	0.0015
704.2879	0.0018
704.4689	-0.0058
704.6499	0.0242
704.8308	-0.002
705.0117	0.0008
705.1927	-0.017
705.3735	0.0022
705.5544	0.0363
705.7353	-0.0109
705.9161	-0.0266
706.0969	0.014
706.2777	0.005
706.4585	-0.0017
706.6393	0.0355
706.82	0.022
707.0007	0.0114
707.1815	0.0103
707.3621	0.0331
707.5428	0.0165
707.7235	0.0158
707.9041	0.0056
708.0847	0.0075
708.2653	0.026
708.4459	0.0126
708.6265	-0.0198
708.807	0.0058
708.9875	-0.0012
709.168	0.0139
709.3485	0.0184
709.529	0.0172
709.7095	0.0037
709.8899	0.0132
710.0703	0.0131
710.2507	0.0115
710.4311	0.0092
710.6115	0.0263
710.7918	0.0255
710.9721	-0.0107
711.1524	-0.0139
711.3327	-0.0178
711.513	-0.0001
711.6932	0.0162
711.8735	0.0157
712.0537	-0.003
712.2339	0.0027
712.4141	0.0229
712.5942	-0.0091
712.7744	0.0123
712.9545	0.0306
713.1346	0.0425
713.3147	0.0022
713.4947	0.0097
713.6748	0.0058
713.8548	-0.0014
714.0348	0.0102
714.2148	0.0187
714.3948	0.0127
714.5748	0.0108
714.7547	0.0195
714.9346	0.0154
715.1145	0.0002
715.2944	-0.0281
715.4743	0.0188
715.6541	-0.0153
715.834	0.0189
716.0138	0.0238
716.1936	-0.007
716.3733	-0.0047
716.5531	0.0264
716.7328	0.0199
716.9126	0.0105
717.0923	-0.0013
717.2719	0.0132
717.4516	0.007
717.6312	0.0083
717.8109	0.0305
717.9905	0.021
718.1701	0.0118
718.3496	-0.0083
718.5292	-0.0072
718.7087	0.0101
718.8882	0.0405
719.0677	0.0102
719.2472	0.0105
719.4267	0.0029
719.6061	-0.009
719.7856	0.0323
719.965	0.0277
720.1443	-0.0044
720.3237	0.0038
720.5031	0.0072
720.6824	0.0033
720.8617	0.0167
721.041	0.0222
721.2203	-0.0085
721.3995	0.001
721.5788	-0.0068
721.758	0.0125
721.9372	-0.0061
722.1164	0.0029
722.2956	0.0052
722.4747	0.0335
722.6538	-0.0119
722.8329	0.0375
723.012	0.0159
723.1911	-0.0085
723.3702	0.0181
723.5492	-0.0023
723.7282	-0.0019
723.9072	0.0334
724.0862	0.0043
724.2652	0.0223
724.4441	-0.0022
724.623	-0.0009
724.8019	0.0049
724.9808	0.0335
725.1597	-0.0055
725.3385	0.021
725.5174	0.0119
725.6962	0.0284
725.875	0.0188
726.0538	0.0292
726.2325	0.0059
726.4112	-0.0123
726.59	-0.0093
726.7687	0.0219
726.9474	0.0227
727.126	0.0181
727.3047	-0.006
727.4833	0.0082
727.6619	-0.017
727.8405	-0.0179
728.0191	0.0129
728.1976	0.0235
728.3762	0.0046
728.5547	0.0117
728.7332	0.01
728.9116	0.0006
729.0901	0.0319
729.2686	0.0123
729.447	0.0031
729.6254	0.0321
729.8038	0.0046
729.9821	-0.0128
730.1605	0.0157
730.3388	0.0002
730.5171	0.0165
730.6954	-0.0065
730.8737	0.0145
731.0519	-0.0138
731.2302	0.0181
731.4084	0.0046
731.5866	0.0043
731.7648	-0.0037
731.9429	0.0173
732.1211	0.0026
732.2992	0.0092
732.4773	-0.0071
732.6554	-0.0107
732.8335	0.033
733.0115	0.0122
733.1896	-0.0148
733.3676	0.025
733.5456	-0.0062
733.7235	0.0039
733.9015	0.0138
734.0794	-0.0051
734.2574	-0.0055
734.4353	0.0342
734.6131	0.0081
734.791	0.0116
734.9689	0.0053
735.1467	-0.0026
735.3245	0.0177
735.5023	0.0142
735.68	0.0107
735.8578	0.0037
736.0355	0.0123
736.2132	-0.0001
736.3909	0.0245
736.5686	0.0157
736.7463	-0.0081
736.9239	0.0212
737.1015	0.0076
737.2791	0.017
737.4567	0.0249
737.6343	0.0035
737.8118	0.0408
737.9894	-0.0067
738.1669	-0.0054
738.3444	0.0357
738.5218	-0.0033
738.6993	0.0156
738.8767	0.0024
739.0541	0.0277
739.2315	0.0058
739.4089	0.0231
739.5863	-0.0108
739.7636	0.0164
739.9409	0.0094
740.1182	0.0232
740.2955	0.0388
740.4728	0.0082
740.65	-0.0242
740.8272	-0.0065
741.0044	-0.0007
741.1816	0.0082
741.3588	-0.0284
741.5359	-0.0081
741.7131	0.0097
741.8902	0.0099
742.0673	-0.0075
742.2444	0.0359
742.4214	0.0192
742.5985	-0.0096
742.7755	0.0184
742.9525	-0.012
743.1295	-0.0261
743.3064	-0.014
743.4834	-0.0109
743.6603	0.0331
743.8372	-0.0219
744.0141	0.0468
744.191	0.0041
744.3678	-0.0253
744.5446	0.0062
744.7215	-0.0102
744.8982	0.0205
745.075	0.0337
745.2518	0.0095
745.4285	0.0295
745.6052	-0.007
745.7819	0.0238
745.9586	0.0287
746.1353	-0.0147
746.3119	0.0103
746.4885	0.0123
746.6651	-0.0014
746.8417	0.0062
747.0183	0.0429
747.1948	0.017
747.3714	0.0022
747.5479	0.0411
747.7244	0.0136
747.9008	0.0004
748.0773	0.0575
748.2537	0.0065
748.4301	0.0421
748.6065	-0.0117
748.7829	0.0045
748.9593	-0.0043
749.1356	-0.0143
749.3119	0.0125
749.4882	0.0244
749.6645	0.002
749.8408	0.0293
750.017	0.0157
750.1933	-0.0327
750.3695	0.0162
750.5457	-0.0068
750.7218	-0.013
750.898	-0.0071
751.0741	0.0102
751.2502	0.0201
751.4263	0.0024
751.6024	0.012
751.7784	0.0091
751.9545	0.0103
752.1305	0.0184
752.3065	0.0206
752.4825	-0.0001
752.6584	0.005
752.8344	-0.006
753.0103	-0.0115
753.1862	-0.0033
753.3621	0.0186
753.5379	0.0022
753.7138	-0.0048
753.8896	0.0395
754.0654	-0.0056
754.2412	0.0248
754.417	0.0166
754.5927	0.0169
754.7685	0.0141
754.9442	0.0135
755.1199	0.0132
755.2956	-0.008
755.4712	0.0191
755.6469	0.0039
755.8225	0.0123
755.9981	0.0116
756.1736	0.0195
756.3492	0.0137
756.5248	0.0084
756.7003	0.0008
756.8758	-0.0043
757.0513	0.0026
757.2267	0.0085
757.4022	0.0069
757.5776	0.0179
757.753	0.0201
757.9284	0.0082
758.1038	0.0061
758.2791	0.0246
758.4545	0.0028
758.6298	0.0113
758.8051	0.0227
758.9803	0.0134
759.1556	-0.0084
759.3308	0.0153
759.506	0.0131
759.6812	0.0088
759.8564	-0.0084
760.0316	0.0166
760.2067	0.0204
760.3819	0.0093
760.557	0.0123
760.732	0.009
760.9071	0.0042
761.0821	-0.0032
761.2572	0.0137
761.4322	0.0146
761.6072	-0.0055
761.7821	-0.0223
761.9571	0.0249
762.132	0.0095
762.3069	0.0248
762.4818	0.0372
762.6567	0.0132
762.8316	0.0263
763.0064	0.0049
763.1812	0.0105
763.356	-0.0197
763.5308	0.031
763.7055	0.0052
763.8803	0.0203
764.055	-0.0019
764.2297	0.0023
764.4044	0.0048
764.579	-0.0055
764.7537	0.0113
764.9283	0.0167
765.1029	0.011
765.2775	0.0182
765.4521	0.0195
765.6266	0.0145
765.8011	0.0392
765.9756	0.0017
766.1501	0.0096
766.3246	-0.0047
766.4991	0.009
766.6735	0.0353
766.8479	-0.0225
767.0223	0.0233
767.1967	-0.0163
767.371	0.0108
767.5454	0.0283
767.7197	0.0343
767.894	0.0142
768.0683	0.0354
768.2425	0.0116
768.4168	0.0158
768.591	-0.0036
768.7652	0.0075
768.9394	-0.0174
769.1135	-0.02
769.2877	0.0057
769.4618	0.053
769.6359	0.0143
769.81	0.03
769.984	0.0242
770.1581	0.0116
770.3321	0.0152
770.5061	0.0133
770.6801	-0.018
770.8541	0.0251
771.028	0.0438
771.202	0.0296
771.3759	0.0104
771.5498	0.0324
771.7236	0.0116
771.8975	0.052
772.0713	0.004
772.2451	0.0038
772.4189	0.0182
772.5927	-0.0188
772.7665	0.0089
772.9402	0.0035
773.1139	-0.0351
773.2876	0.0121
773.4613	0.0621
773.635	0.04
773.8086	0.0265
773.9822	0.0459
774.1558	0.0192
774.3294	0.0366
774.503	0.0284
774.6765	0.0555
774.8501	-0.0097
775.0236	0.0738
775.1971	0.009
775.3705	0.0044
775.544	-0.019
775.7174	0.0435
775.8908	0.0103
776.0642	0.0465
776.2376	0.021
776.4109	0.0354
776.5843	-0.0124
776.7576	-0.0265
776.9309	0.0228
777.1041	0.0524
777.2774	-0.0291
777.4506	0.0181
777.6238	-0.034
777.797	0.0441
777.9702	-0.0041
778.1434	0.0266
778.3165	-0.0294
778.4896	-0.0203
778.6627	0.0291
778.8358	0.0133
779.0089	0.0126
779.1819	0.0063
779.3549	0.0062
779.5279	-0.0186
779.7009	0.0523
779.8739	0.0772
780.0468	0.0083
780.2197	0.0216
780.3926	-0.0256
780.5655	0.0325
780.7384	-0.0098
780.9112	0.0084
781.0841	0.0054
781.2569	0.0404
781.4297	-0.0109
781.6024	0.0053
781.7752	0.0419
781.9479	0.0502
782.1206	-0.0018
782.2933	0.0477
782.466	0.0084
782.6386	0.0185
782.8113	0.017
782.9839	0.0302
783.1565	0.0413
783.329	-0.0139
783.5016	0.0366
783.6741	0.0115
783.8466	0.0344
784.0191	0.0067
784.1916	-0.0409
784.3641	-0.0299
784.5365	0.0224
784.7089	0.0081
784.8813	0.0947
785.0537	0.0244
785.2261	-0.0047
785.3984	0.0402
785.5707	-0.0039
785.743	0.0765
785.9153	-0.0295
786.0876	0.0066
786.2598	0.0012
786.432	0.0156
786.6042	0.0216
786.7764	-0.0295
786.9486	-0.0192
787.1207	0.0543
787.2928	0.061
787.4649	0.0096
787.637	0.0087
787.8091	0.0021
787.9811	0.0456
788.1532	0.0185
788.3252	0.0243
788.4972	0.0155
788.6691	-0.023
788.8411	-0.0132
789.013	0.0151
789.1849	-0.027
789.3568	0.0393
789.5287	0.0304
789.7005	-0.0304
789.8723	-0.031
790.0442	-0.0198
790.2159	0.0165
790.3877	0.0426
790.5595	0.0209
790.7312	0.017
790.9029	0.0206
791.0746	0.0065
791.2463	-0.066
791.4179	0.0191
791.5896	-0.0003
791.7612	0.0572
791.9328	-0.0163
792.1044	-0.0528
792.2759	-0.0593
792.4474	0.0385
792.619	0.0123
792.7905	-0.0004
792.9619	0.063
793.1334	0.0991
793.3048	0.0763
793.4762	-0.0264
793.6476	-0.0143
793.819	0.016
793.9904	0.0053
794.1617	-0.01
794.333	0.0285
794.5043	0.0203
794.6756	0.0127
794.8469	0.0584
795.0181	0.027
795.1893	0.0294
795.3605	0.0367
795.5317	0.0151
795.7029	-0.0143
795.874	0.0178
796.0452	0.076
796.2163	0.0688
796.3873	0.0546
796.5584	0.0415
796.7294	0.001
796.9005	0.064
797.0715	0.039
797.2425	0.0777
797.4134	0.0341
797.5844	0.0635
797.7553	-0.0713
797.9262	0.1263
798.0971	0.0572
798.2679	0.0045
798.4388	0.0757
798.6096	-0.0032
798.7804	0.0057
798.9512	0.0437
799.122	-0.0349
799.2927	0.0902
799.4635	-0.0442
799.6342	-0.0111
799.8049	0.0606
799.9755	0.0228
800.1462	-0.0125
800.3168	0.1028
800.4874	-0.1171
800.658	0.0392
800.8286	0.0073
800.9991	0.0122
801.1696	-0.0537
801.3402	0.0781
801.5106	-0.0408
801.6811	0.0326
801.8516	0.0538
802.022	-0.0487
802.1924	0.0163
802.3628	-0.0272
802.5332	0.0573
802.7035	0.1909
802.8739	-0.0553
803.0442	-0.0153
803.2145	0.057
803.3847	0.0332
803.555	0.0249
803.7252	-0.0886
803.8954	-0.0005
804.0656	0.086
804.2358	-0.0184
804.4059	0.059
804.5761	0.094
804.7462	-0.0338
804.9163	0.0026
805.0864	-0.0812
805.2564	-0.0227
805.4264	-0.0488
805.5965	0.0533
805.7665	-0.0397
805.9364	0.0418
806.1064	0.0517
806.2763	0.0209
806.4462	0.0244
806.6161	0.0068
806.786	-0.0013
806.9559	-0.0032
807.1257	0.013
807.2955	-0.0104
807.4653	0.002
807.6351	0.0339
807.8048	0.047
807.9746	-0.021
808.1443	-0.0215
808.314	0.0425
808.4837	0.0668
808.6533	0.0026
808.8229	0.0493
808.9926	0.005
809.1622	0.02
809.3317	0.026
809.5013	0.0517
809.6708	-0.0608
809.8403	0.0656
810.0098	0.0269
810.1793	0.0719
810.3488	-0.0339
810.5182	0.1531
810.6876	-0.0064
810.857	0.0242
811.0264	-0.0617
811.1958	0.0763
811.3651	-0.0496
811.5344	0.0798
811.7037	-0.0869
811.873	0.0324
812.0422	-0.0709
812.2115	0.1313
812.3807	-0.0781
812.5499	-0.0957
812.7191	0.007
812.8882	-0.1323
813.0574	0.04
813.2265	0.0729
813.3956	-0.017
813.5646	-0.025
813.7337	0.0177
813.9027	-0.0304
814.0718	-0.0382
814.2407	0.0293
814.4097	0.0601
814.5787	0.0539
814.7476	0.0068
814.9165	0.0718
815.0854	0.0494
815.2543	-0.0737
815.4232	0.1839
815.592	0.0789
815.7608	-0.1775
815.9296	0.085
816.0984	0.1529
816.2671	-0.1272
816.4359	0.0794
816.6046	-0.0552
816.7733	-0.1149
816.942	0.0018
817.1106	0.0553
817.2793	-0.0234
817.4479	0.1203
817.6165	-0.0207
817.785	0.1777
817.9536	-0.0664
818.1221	0.0856
818.2906	-0.0719
818.4591	0.0244
818.6276	0.0883
818.7961	0.0529
818.9645	-0.0689
819.1329	0.1465
819.3013	-0.0871
819.4697	0.1533
819.638	0.0877
819.8064	0.0122
819.9747	0.2905
820.143	-0.103
820.3113	0.1292
820.4795	-0.009
820.6477	0.1204
820.816	0.1546
820.9842	-0.0052
821.1523	0.0586
821.3205	-0.0126
821.4886	-0.1169
821.6567	-0.0895
821.8248	0.2648
821.9929	-0.1386
822.1609	0.0755
822.329	0.0945
822.497	0.0541
822.665	-0.0611
822.833	0.0765
823.0009	-0.1279
823.1688	-0.1158
823.3367	-0.0438
823.5046	0.1169
823.6725	-0.0171
823.8404	0.2095
824.0082	0.1286
824.176	0.0867
824.3438	0.3103
824.5116	-0.0662
824.6793	0.1064
824.847	-0.224
825.0147	0.1233
825.1824	0.0454
825.3501	-0.0445
825.5177	-0.0182
825.6854	-0.1829
825.853	-0.0215
826.0206	0.0209
826.1881	-0.0393
826.3557	0.1157
826.5232	0.0424
826.6907	0.0516
826.8582	-0.1543
827.0257	0.1229
827.1931	0.1114
827.3605	0.0143
827.528	-0.2079
827.6953	-0.1607
827.8627	-0.0482
828.03	0.1127
828.1974	0.0056
828.3647	0.1056
828.532	0.4086
828.6992	0.1075
828.8665	0.0742
829.0337	0.0421
829.2009	0.1634
829.3681	-0.0011
829.5352	-0.113
829.7024	0.7699
829.8695	-0.0375
830.0366	0.0587
830.2037	0.0881
830.3707	0.0513
830.5378	-0.0438
830.7048	-0.104
830.8718	0.1705
831.0388	0.0144
831.2057	-0.2137
831.3727	0.0252
831.5396	-0.0517
831.7065	-0.8598
831.8734	0.5892
832.0402	0.2127
832.2071	-0.3327
832.3739	0.0446
832.5407	-2.0116
832.7075	-0.3977
832.8742	0.965
833.041	0.1218
833.2077	-0
833.3744	-0.0094
833.541	0.2237
833.7077	-0.2644
833.8743	0.1407
834.0409	0.1149
834.2075	0.1702
834.3741	-0.1186
834.5407	0.0596
834.7072	0.4134
834.8737	0.3684
835.0402	0.2938
835.2067	-0.1173
835.3731	0.0494
835.5395	-0.0366
835.706	-0.1626
835.8723	-0.0136
836.0387	0.3666
836.2051	-0.0262
836.3714	0.0481
836.5377	0.1147
836.704	0.0617
836.8703	-0.0843
837.0365	-0.397
837.2027	0.0657
837.3689	0.2171
837.5351	0.3829
837.7013	-0.076
837.8674	0.3211
838.0335	-0.1495
838.1997	-0.2758
838.3657	-0
838.5318	-0.4432
838.6978	-0
838.8639	-0.1445
839.0299	-0.0286
839.1958	-0.0883
839.3618	-0
839.5277	0.1045
839.6937	-0.1586
839.8596	-0.0036
840.0254	-0.1382
840.1913	1.1081
840.3571	-0.1082
840.523	-0
840.6888	0.0363
840.8545	-0.5679
841.0203	0.2311
841.186	0.6566
841.3517	-0.0031
841.5174	0.0035
841.6831	0.0316
841.8488	0.2825
842.0144	0.35
842.18	0.7382
842.3456	-0.7448
842.5112	-1.4295
842.6767	-0.1763
842.8422	0.411
843.0077	0.3898
843.1732	-0.4921
843.3387	-0.149
843.5042	-0
843.6696	-0.2507
843.835	-0.0164
844.0004	-0.1695
844.1657	-0
844.3311	-0.3248
844.4964	-0.2682
844.6617	1.8129
844.827	0.1204
844.9923	0.3621
845.1575	-0.0301
845.3227	-0.5042
845.4879	-0.1882
845.6531	-0.1545
845.8183	0.025
845.9834	-0
846.1485	1.0236
846.3136	0.1291
846.4787	-0
846.6438	0.0371
846.8088	-0
846.9738	-0.7353
847.1388	-0.0187
847.3038	0.0826
847.4687	-0
847.6337	-0.6907
847.7986	0.2086
847.9635	-0.1764
848.1284	-0
848.2932	0.3485
848.458	-0
848.6228	0.1668
848.7876	1.1532
848.9524	1.1708
849.1172	-1.6641
849.2819	-0.1109
849.4466	0.4412
849.6113	-0.0262
849.7759	-0
849.9406	-0.0675
850.1052	-0.083
850.2698	0.63
850.4344	-0.8096
850.599	0.3559
850.7635	0.4272
850.928	0.2666
851.0925	0.3046
851.257	0.083
851.4215	-0
851.5859	0.2292
851.7503	-0.6223
851.9147	-0.1769
852.0791	-0.1986
852.2434	0.1429
852.4078	-0
852.5721	0.2639
852.7364	0.5428
852.9007	0.2653
853.0649	-0.2534
853.2291	-0.03
853.3934	-0
853.5575	-0.0963
853.7217	0.2996
853.8859	-0
854.05	-0.5995
854.2141	0.6316
854.3782	-0.4549
854.5423	-0.0754
854.7063	-0.1573
854.8703	0.0128
855.0343	-0.0113
855.1983	0.1379
855.3623	-0.0793
855.5262	-0.2011
855.6901	0.1312
855.854	1.9046
856.0179	-0.2576
856.1818	0.7506
856.3456	0.3829
856.5094	-0.4628
856.6732	-0.2468
856.837	-1.2683
857.0008	0.4688
857.1645	-0
857.3282	-0.0645
857.4919	0.1438
857.6556	-0.6409
857.8192	0.3207
857.9828	-0.0462
858.1465	-0
858.31	0.0556
858.4736	-0.1608
858.6372	0.3189
858.8007	-0
858.9642	0.5792
859.1277	-0
859.2911	0.0815
859.4546	-0
859.618	0.1066
859.7814	0.0075
859.9448	-0
860.1081	0.6386
860.2715	-0
860.4348	0.9332
860.5981	-0.0167
860.7614	0.2239
860.9246	0.065
861.0879	-0.1031
861.2511	-0.4716
861.4143	-0.9176
861.5774	-0.2618
861.7406	-0.1699
861.9037	0.1227
862.0668	-0.7524
862.2299	-0
862.393	0.2117
862.556	-0
862.7191	-0.1675
862.8821	0.052
863.0451	0.3467
863.208	-0.5428
863.371	-0.6216
863.5339	0.5981
863.6968	-0
863.8597	-0
864.0225	-0.2537
864.1854	1.2062
864.3482	-0
864.511	0.0848
864.6737	0.1694
864.8365	0.0148
864.9992	-0
865.1619	-0.5701
865.3246	-1.5587
865.4873	-0
865.65	0.1073
865.8126	0.5166
865.9752	-0.1134
866.1378	0.1089
866.3004	0.345
866.4629	-1.9816
866.6254	0.0675
866.7879	-0
866.9504	-0
867.1129	-0.2326
867.2753	0.0545
867.4377	-0.1663
867.6001	-0
867.7625	0.1839
867.9249	0.4552
868.0872	-0.0479
868.2495	-0
868.4118	-0
868.5741	-0
868.7363	0.4988
868.8986	-0.6669
869.0608	-0
869.223	-0.41
869.3851	-0
869.5473	-0.1876
869.7094	-0
869.8715	-0
870.0336	-0.0333
870.1957	-0.1725
870.3577	0.4042
870.5197	-0.1611
870.6817	-0
870.8437	0.0914
871.0057	-0
871.1676	0.2854
871.3295	-0
871.4914	-1.5866
871.6533	0.1694
871.8151	0.3144
871.977	0.4206
872.1388	-0
872.3006	-0.6399
872.4623	-0.3552
872.6241	0.277
872.7858	1.2029
872.9475	-0
873.1092	0.1889
873.2709	0.1401
873.4325	-1.8129
873.5941	-0.0504
873.7557	-0
873.9173	-0.072
874.0789	0.2638
874.2404	-0
874.4019	-0.0793
874.5634	-0
874.7249	-0.072
874.8863	-0.3282
875.0478	-0.0882
875.2092	-0
875.3706	0.1334
875.5319	0.6522
875.6933	-0
875.8546	-0.113
876.0159	-0.1445
876.1772	0.5166
876.3385	-0
876.4997	0.0093
876.6609	0.1708
876.8221	-0
876.9833	-0.0979
877.1445	0.3368
877.3056	-0
877.4667	-0
877.6278	-0
877.7889	-0
877.9499	0.4018
878.111	-0.6807
878.272	-0.1675
878.433	-0
878.5939	-0
878.7549	-0.2121
878.9158	-0.3689
879.0767	-0.2112
879.2376	-0.3761
879.3984	-0
879.5593	-0
879.7201	-1.1326
879.8809	-0
880.0417	-0.2236
880.2024	-0
880.3632	-0
880.5239	-0.2074
880.6846	-0.0165
880.8452	0.6737
881.0059	-0
881.1665	0.0215
881.3271	0.9237
881.4877	0.0942
881.6483	-1.4517
881.8088	-0
881.9693	-0
882.1298	-0
882.2903	-0
