Data from D4ACN5uM420nmA_Absorbance_14-37-07-346.txt Node
Date: Fri Feb 21 14:37:07 GMT 2025
User: LASERRRRR
Spectrometer: FLMT03099
Trigger mode: 0
Integration Time (sec): 1.500000E-2
Scans to average: 1
Electric dark correction enabled: true
Nonlinearity correction enabled: false
Boxcar width: 0
XAxis mode: Wavelengths
Number of Pixels in Spectrum: 3648
>>>>>Begin Spectral Data<<<<<
179.3399	-0.2865
179.5586	-0.2865
179.7771	-0.2865
179.9957	1.6616
180.2143	-0
180.4329	-0.2551
180.6514	-0
180.8699	0.1875
181.0885	-0
181.307	0.1035
181.5255	-0.0337
181.744	-0.1679
181.9625	1.6187
182.181	-0.3262
182.3994	-0.2906
182.6179	0.2469
182.8363	-0
183.0547	-0
183.2732	0.0675
183.4916	0.4222
183.71	0.1663
183.9284	0.2784
184.1467	0.0814
184.3651	-0.0293
184.5835	0.1327
184.8018	0.3096
185.0201	0.1884
185.2385	0.1779
185.4568	0.1829
185.6751	0.2366
185.8934	0.214
186.1117	-0.1959
186.3299	0.1191
186.5482	0.3707
186.7664	0.1723
186.9847	0.0981
187.2029	0.2734
187.4211	0.0337
187.6393	0.2128
187.8575	0.0997
188.0757	0.1819
188.2939	0.3299
188.512	0.2145
188.7302	0.1355
188.9483	0.3954
189.1665	0.6579
189.3846	0.1337
189.6027	0.2807
189.8208	0.1514
190.0389	0.2827
190.257	0.04
190.475	-0.0936
190.6931	0.0067
190.9111	0.1032
191.1292	0.0869
191.3472	0.3385
191.5652	0.1318
191.7832	0.3321
192.0012	0.2039
192.2192	0.1117
192.4371	0.096
192.6551	0.2616
192.873	0.1382
193.091	0.2406
193.3089	0.1411
193.5268	0.1566
193.7447	0.1312
193.9626	0.2072
194.1805	0.3079
194.3984	0.2055
194.6162	0.2402
194.8341	0.2974
195.0519	0.2148
195.2697	0.2321
195.4875	0.2783
195.7054	0.2647
195.9231	0.2359
196.1409	0.3374
196.3587	0.3327
196.5765	0.3126
196.7942	0.2915
197.012	0.2985
197.2297	0.3072
197.4474	0.3827
197.6651	0.2973
197.8828	0.2991
198.1005	0.368
198.3182	0.392
198.5358	0.329
198.7535	0.368
198.9711	0.3434
199.1888	0.3628
199.4064	0.4337
199.624	0.3663
199.8416	0.3939
200.0592	0.4145
200.2767	0.4138
200.4943	0.4122
200.7119	0.39
200.9294	0.3894
201.1469	0.4311
201.3645	0.4677
201.582	0.4478
201.7995	0.4059
202.017	0.3918
202.2344	0.4095
202.4519	0.3978
202.6694	0.3877
202.8868	0.4493
203.1042	0.4045
203.3217	0.3671
203.5391	0.4065
203.7565	0.3592
203.9739	0.3761
204.1913	0.3701
204.4086	0.3617
204.626	0.3979
204.8433	0.383
205.0607	0.3706
205.278	0.338
205.4953	0.3775
205.7126	0.3151
205.9299	0.3323
206.1472	0.3249
206.3644	0.3416
206.5817	0.3428
206.7989	0.3686
207.0162	0.3389
207.2334	0.3288
207.4506	0.3131
207.6678	0.2907
207.885	0.2709
208.1022	0.3205
208.3194	0.2942
208.5365	0.2879
208.7537	0.2953
208.9708	0.2846
209.1879	0.2904
209.405	0.2875
209.6222	0.2935
209.8392	0.2812
210.0563	0.302
210.2734	0.2845
210.4905	0.2886
210.7075	0.2787
210.9245	0.2999
211.1416	0.2646
211.3586	0.2558
211.5756	0.2336
211.7926	0.2851
212.0096	0.2752
212.2265	0.2675
212.4435	0.2589
212.6604	0.2407
212.8774	0.2547
213.0943	0.2574
213.3112	0.2543
213.5281	0.2733
213.745	0.2381
213.9619	0.2444
214.1788	0.2648
214.3956	0.2468
214.6125	0.246
214.8293	0.2481
215.0461	0.2624
215.2629	0.2508
215.4798	0.2416
215.6965	0.2567
215.9133	0.2253
216.1301	0.2498
216.3469	0.2511
216.5636	0.2606
216.7803	0.25
216.9971	0.2486
217.2138	0.2462
217.4305	0.2409
217.6472	0.2509
217.8639	0.26
218.0805	0.2652
218.2972	0.2565
218.5138	0.2379
218.7305	0.264
218.9471	0.2477
219.1637	0.2597
219.3803	0.2724
219.5969	0.2453
219.8135	0.2791
220.0301	0.2551
220.2466	0.2562
220.4632	0.2467
220.6797	0.2503
220.8962	0.2628
221.1127	0.2709
221.3292	0.2598
221.5457	0.2706
221.7622	0.2632
221.9787	0.2796
222.1951	0.2752
222.4116	0.2795
222.628	0.2846
222.8444	0.2805
223.0608	0.2841
223.2772	0.2846
223.4936	0.2857
223.71	0.2838
223.9264	0.291
224.1427	0.2841
224.3591	0.2807
224.5754	0.2953
224.7917	0.2986
225.008	0.2992
225.2243	0.2915
225.4406	0.2998
225.6569	0.3046
225.8732	0.324
226.0894	0.321
226.3057	0.3091
226.5219	0.3129
226.7381	0.3311
226.9543	0.3217
227.1705	0.317
227.3867	0.3183
227.6029	0.3322
227.8191	0.3551
228.0352	0.3384
228.2513	0.3538
228.4675	0.3423
228.6836	0.3418
228.8997	0.3403
229.1158	0.3634
229.3319	0.3637
229.548	0.3607
229.764	0.3511
229.9801	0.3671
230.1961	0.3685
230.4121	0.368
230.6282	0.3861
230.8442	0.3915
231.0602	0.3879
231.2761	0.3764
231.4921	0.3825
231.7081	0.3879
231.924	0.4105
232.14	0.4034
232.3559	0.4009
232.5718	0.4142
232.7877	0.4095
233.0036	0.4132
233.2195	0.4094
233.4353	0.4215
233.6512	0.4171
233.867	0.4237
234.0829	0.4305
234.2987	0.4233
234.5145	0.4334
234.7303	0.4404
234.9461	0.4456
235.1619	0.4412
235.3776	0.4341
235.5934	0.4373
235.8091	0.4443
236.0249	0.449
236.2406	0.4502
236.4563	0.4522
236.672	0.4481
236.8877	0.452
237.1034	0.4493
237.319	0.4542
237.5347	0.4459
237.7503	0.4514
237.966	0.4695
238.1816	0.4572
238.3972	0.4591
238.6128	0.4735
238.8284	0.4575
239.0439	0.4651
239.2595	0.4699
239.475	0.4708
239.6906	0.4563
239.9061	0.4654
240.1216	0.4625
240.3371	0.4589
240.5526	0.4625
240.7681	0.4752
240.9836	0.4644
241.199	0.4622
241.4145	0.4484
241.6299	0.4449
241.8453	0.4441
242.0607	0.4377
242.2761	0.4384
242.4915	0.4308
242.7069	0.4186
242.9223	0.4215
243.1376	0.4164
243.353	0.4005
243.5683	0.3991
243.7836	0.3879
243.9989	0.3732
244.2142	0.3825
244.4295	0.3795
244.6448	0.3748
244.86	0.3541
245.0753	0.3567
245.2905	0.3433
245.5057	0.3394
245.721	0.3366
245.9362	0.3333
246.1514	0.3295
246.3665	0.3121
246.5817	0.3057
246.7969	0.2955
247.012	0.2907
247.2271	0.291
247.4423	0.2864
247.6574	0.2831
247.8725	0.2694
248.0876	0.2772
248.3026	0.2747
248.5177	0.2567
248.7328	0.2517
248.9478	0.2518
249.1628	0.2518
249.3779	0.2487
249.5929	0.2455
249.8079	0.2419
250.0228	0.2355
250.2378	0.2295
250.4528	0.2372
250.6677	0.2253
250.8827	0.2221
251.0976	0.2216
251.3125	0.2235
251.5274	0.2212
251.7423	0.2122
251.9572	0.2108
252.172	0.2121
252.3869	0.2086
252.6017	0.2126
252.8166	0.2079
253.0314	0.2054
253.2462	0.1977
253.461	0.2105
253.6758	0.2021
253.8906	0.1995
254.1053	0.2055
254.3201	0.1961
254.5348	0.1895
254.7496	0.1889
254.9643	0.1969
255.179	0.193
255.3937	0.1947
255.6083	0.1971
255.823	0.1913
256.0377	0.1846
256.2523	0.1904
256.467	0.1915
256.6816	0.1881
256.8962	0.1847
257.1108	0.1918
257.3254	0.1845
257.54	0.1875
257.7545	0.1836
257.9691	0.1919
258.1836	0.1782
258.3981	0.1885
258.6127	0.1776
258.8272	0.1853
259.0417	0.1768
259.2561	0.1835
259.4706	0.1819
259.6851	0.1815
259.8995	0.1799
260.114	0.1834
260.3284	0.1755
260.5428	0.1776
260.7572	0.1844
260.9716	0.187
261.186	0.1794
261.4003	0.1799
261.6147	0.1814
261.829	0.1857
262.0433	0.1789
262.2577	0.177
262.472	0.1826
262.6863	0.1889
262.9005	0.1821
263.1148	0.1815
263.3291	0.1773
263.5433	0.1871
263.7576	0.1853
263.9718	0.1831
264.186	0.185
264.4002	0.1852
264.6144	0.1898
264.8286	0.1902
265.0427	0.1883
265.2569	0.1817
265.471	0.187
265.6851	0.1852
265.8993	0.1782
266.1134	0.1881
266.3275	0.1839
266.5415	0.1832
266.7556	0.1905
266.9697	0.1847
267.1837	0.1856
267.3978	0.1866
267.6118	0.1819
267.8258	0.1792
268.0398	0.1869
268.2538	0.1904
268.4677	0.1791
268.6817	0.1831
268.8957	0.1741
269.1096	0.1821
269.3235	0.1754
269.5374	0.1829
269.7514	0.1835
269.9652	0.1753
270.1791	0.1816
270.393	0.181
270.6068	0.1781
270.8207	0.1776
271.0345	0.1748
271.2483	0.1712
271.4622	0.1787
271.676	0.1732
271.8897	0.1725
272.1035	0.1808
272.3173	0.1779
272.531	0.1784
272.7448	0.1726
272.9585	0.1665
273.1722	0.169
273.3859	0.1771
273.5996	0.1744
273.8133	0.1763
274.0269	0.1711
274.2406	0.1757
274.4542	0.1813
274.6679	0.1748
274.8815	0.1807
275.0951	0.1801
275.3087	0.1795
275.5223	0.1697
275.7358	0.1807
275.9494	0.186
276.1629	0.1819
276.3765	0.1799
276.59	0.1824
276.8035	0.177
277.017	0.186
277.2305	0.1814
277.444	0.1852
277.6574	0.1802
277.8709	0.185
278.0843	0.1832
278.2978	0.1878
278.5112	0.1856
278.7246	0.1838
278.938	0.1796
279.1513	0.1843
279.3647	0.1818
279.5781	0.1825
279.7914	0.1843
280.0047	0.1868
280.2181	0.1823
280.4314	0.1877
280.6447	0.1903
280.8579	0.1803
281.0712	0.1808
281.2845	0.1854
281.4977	0.1862
281.711	0.1858
281.9242	0.1831
282.1374	0.1902
282.3506	0.1891
282.5638	0.1843
282.7769	0.1762
282.9901	0.19
283.2033	0.1905
283.4164	0.1836
283.6295	0.1833
283.8426	0.1878
284.0557	0.1901
284.2688	0.1871
284.4819	0.1854
284.695	0.1893
284.908	0.1883
285.1211	0.1922
285.3341	0.1823
285.5471	0.1916
285.7601	0.1918
285.9731	0.1889
286.1861	0.1936
286.3991	0.1935
286.612	0.1928
286.825	0.1944
287.0379	0.1922
287.2508	0.1944
287.4637	0.1995
287.6766	0.1942
287.8895	0.1917
288.1024	0.1972
288.3152	0.1955
288.5281	0.1923
288.7409	0.1968
288.9538	0.1965
289.1666	0.1923
289.3794	0.1927
289.5922	0.1921
289.8049	0.1945
290.0177	0.1995
290.2304	0.1975
290.4432	0.1952
290.6559	0.2021
290.8686	0.1991
291.0813	0.1988
291.294	0.1957
291.5067	0.1938
291.7194	0.1992
291.932	0.1926
292.1447	0.1962
292.3573	0.1963
292.5699	0.1983
292.7825	0.1937
292.9951	0.1935
293.2077	0.2054
293.4203	0.1941
293.6328	0.1988
293.8454	0.202
294.0579	0.1937
294.2704	0.1999
294.4829	0.1985
294.6954	0.1976
294.9079	0.1936
295.1204	0.1933
295.3328	0.2057
295.5453	0.1987
295.7577	0.2014
295.9701	0.1992
296.1825	0.2008
296.3949	0.1951
296.6073	0.1948
296.8197	0.1988
297.0321	0.2016
297.2444	0.1994
297.4567	0.1983
297.6691	0.1959
297.8814	0.1944
298.0937	0.1988
298.306	0.1967
298.5182	0.2063
298.7305	0.1989
298.9428	0.2028
299.155	0.1911
299.3672	0.1986
299.5794	0.1956
299.7916	0.1968
300.0038	0.2016
300.216	0.1965
300.4282	0.2035
300.6403	0.1995
300.8525	0.1992
301.0646	0.1964
301.2767	0.1966
301.4888	0.1992
301.7009	0.1991
301.913	0.1991
302.125	0.1975
302.3371	0.1963
302.5491	0.2034
302.7612	0.2012
302.9732	0.2041
303.1852	0.2011
303.3972	0.195
303.6092	0.1985
303.8211	0.1922
304.0331	0.1944
304.245	0.1962
304.457	0.1978
304.6689	0.192
304.8808	0.1903
305.0927	0.1928
305.3046	0.1937
305.5164	0.192
305.7283	0.1856
305.9401	0.1819
306.152	0.1888
306.3638	0.1876
306.5756	0.1925
306.7874	0.1833
306.9992	0.1808
307.2109	0.181
307.4227	0.1806
307.6344	0.1796
307.8462	0.174
308.0579	0.1739
308.2696	0.1723
308.4813	0.1732
308.693	0.1737
308.9046	0.1756
309.1163	0.1671
309.328	0.1588
309.5396	0.157
309.7512	0.1577
309.9628	0.1578
310.1744	0.1599
310.386	0.1539
310.5976	0.1555
310.8091	0.1555
311.0207	0.1483
311.2322	0.1486
311.4437	0.1495
311.6552	0.1536
311.8667	0.1475
312.0782	0.1437
312.2897	0.1466
312.5012	0.1436
312.7126	0.1462
312.924	0.1463
313.1355	0.1449
313.3469	0.1405
313.5583	0.1373
313.7696	0.1322
313.981	0.143
314.1924	0.1368
314.4037	0.1384
314.6151	0.1355
314.8264	0.1396
315.0377	0.1363
315.249	0.1346
315.4603	0.1302
315.6716	0.1304
315.8828	0.1369
316.0941	0.1319
316.3053	0.1211
316.5165	0.1313
316.7277	0.1239
316.9389	0.1329
317.1501	0.1321
317.3613	0.1282
317.5724	0.13
317.7836	0.1258
317.9947	0.127
318.2058	0.1302
318.417	0.1302
318.6281	0.126
318.8391	0.1312
319.0502	0.1274
319.2613	0.1268
319.4723	0.1239
319.6834	0.1302
319.8944	0.1247
320.1054	0.1282
320.3164	0.1222
320.5274	0.1245
320.7383	0.1288
320.9493	0.1267
321.1602	0.1272
321.3712	0.1257
321.5821	0.1267
321.793	0.139
322.0039	0.1318
322.2148	0.1323
322.4257	0.1291
322.6365	0.1247
322.8474	0.1265
323.0582	0.1242
323.269	0.1304
323.4798	0.126
323.6906	0.1265
323.9014	0.1265
324.1122	0.1237
324.3229	0.1329
324.5337	0.1293
324.7444	0.129
324.9551	0.1288
325.1658	0.1326
325.3765	0.1286
325.5872	0.1351
325.7979	0.137
326.0085	0.1271
326.2192	0.1314
326.4298	0.1339
326.6404	0.1396
326.851	0.1273
327.0616	0.1358
327.2722	0.131
327.4828	0.1309
327.6933	0.1416
327.9039	0.1326
328.1144	0.1377
328.3249	0.136
328.5354	0.1404
328.7459	0.134
328.9564	0.1332
329.1669	0.1328
329.3773	0.1346
329.5878	0.1338
329.7982	0.1398
330.0086	0.1399
330.219	0.1343
330.4294	0.138
330.6398	0.1378
330.8502	0.1392
331.0605	0.1371
331.2708	0.1353
331.4812	0.1392
331.6915	0.1406
331.9018	0.1437
332.1121	0.146
332.3224	0.1355
332.5326	0.1355
332.7429	0.14
332.9531	0.1458
333.1633	0.1351
333.3735	0.1376
333.5837	0.1356
333.7939	0.136
334.0041	0.1452
334.2143	0.1346
334.4244	0.1437
334.6346	0.1342
334.8447	0.1394
335.0548	0.1417
335.2649	0.1402
335.475	0.1438
335.685	0.1419
335.8951	0.1403
336.1051	0.1435
336.3152	0.1476
336.5252	0.1412
336.7352	0.1404
336.9452	0.1477
337.1552	0.1501
337.3652	0.1389
337.5751	0.1448
337.7851	0.1442
337.995	0.1467
338.2049	0.1442
338.4148	0.1388
338.6247	0.1518
338.8346	0.1483
339.0445	0.1448
339.2543	0.1416
339.4642	0.1442
339.674	0.1448
339.8838	0.1467
340.0936	0.1437
340.3034	0.1418
340.5132	0.1418
340.7229	0.1458
340.9327	0.1493
341.1424	0.1476
341.3522	0.1439
341.5619	0.154
341.7716	0.1535
341.9813	0.1535
342.1909	0.1515
342.4006	0.1521
342.6102	0.1587
342.8199	0.1556
343.0295	0.1513
343.2391	0.1575
343.4487	0.1548
343.6583	0.1643
343.8679	0.1493
344.0774	0.1524
344.287	0.162
344.4965	0.1586
344.706	0.1616
344.9155	0.1559
345.125	0.1663
345.3345	0.1625
345.544	0.1605
345.7534	0.1647
345.9629	0.168
346.1723	0.1606
346.3817	0.1656
346.5911	0.1639
346.8005	0.166
347.0099	0.1633
347.2193	0.1696
347.4286	0.1746
347.638	0.17
347.8473	0.1733
348.0566	0.1715
348.2659	0.1704
348.4752	0.1726
348.6845	0.1746
348.8937	0.1736
349.103	0.1708
349.3122	0.1789
349.5214	0.1776
349.7306	0.1786
349.9398	0.173
350.149	0.1745
350.3582	0.18
350.5674	0.1771
350.7765	0.1799
350.9856	0.17
351.1948	0.1762
351.4039	0.1796
351.613	0.1812
351.822	0.1844
352.0311	0.1801
352.2402	0.1789
352.4492	0.1908
352.6582	0.1826
352.8672	0.1791
353.0762	0.1853
353.2852	0.19
353.4942	0.1877
353.7032	0.1847
353.9121	0.1931
354.1211	0.1914
354.33	0.1956
354.5389	0.183
354.7478	0.1886
354.9567	0.1878
355.1655	0.1939
355.3744	0.1892
355.5833	0.1853
355.7921	0.1954
356.0009	0.1944
356.2097	0.184
356.4185	0.1933
356.6273	0.1933
356.8361	0.1952
357.0448	0.1964
357.2536	0.1955
357.4623	0.1999
357.671	0.1939
357.8797	0.2059
358.0884	0.195
358.2971	0.2001
358.5057	0.2059
358.7144	0.2018
358.923	0.2
359.1316	0.2093
359.3402	0.1991
359.5488	0.2023
359.7574	0.2099
359.966	0.2121
360.1746	0.2098
360.3831	0.2174
360.5916	0.2126
360.8002	0.2149
361.0087	0.2132
361.2172	0.2124
361.4256	0.2123
361.6341	0.2181
361.8426	0.215
362.051	0.2252
362.2594	0.2128
362.4678	0.2171
362.6762	0.2179
362.8846	0.2203
363.093	0.2241
363.3014	0.2273
363.5097	0.2222
363.718	0.2268
363.9264	0.2273
364.1347	0.2235
364.343	0.2287
364.5513	0.2322
364.7595	0.2386
364.9678	0.2306
365.176	0.2315
365.3842	0.2399
365.5925	0.2342
365.8007	0.2347
366.0089	0.247
366.217	0.2385
366.4252	0.237
366.6333	0.2435
366.8415	0.2409
367.0496	0.2492
367.2577	0.2399
367.4658	0.2399
367.6739	0.2354
367.882	0.2532
368.09	0.2364
368.2981	0.247
368.5061	0.2474
368.7141	0.2455
368.9221	0.2607
369.1301	0.248
369.3381	0.2543
369.5461	0.2517
369.754	0.257
369.962	0.2573
370.1699	0.2547
370.3778	0.2667
370.5857	0.259
370.7936	0.2648
371.0015	0.2638
371.2093	0.2614
371.4172	0.26
371.625	0.2583
371.8328	0.2616
372.0406	0.2728
372.2484	0.2762
372.4562	0.2722
372.664	0.2688
372.8717	0.2712
373.0795	0.2772
373.2872	0.2787
373.4949	0.2693
373.7026	0.2759
373.9103	0.2648
374.118	0.2722
374.3256	0.2812
374.5333	0.2806
374.7409	0.2706
374.9485	0.2749
375.1561	0.2819
375.3637	0.2764
375.5713	0.2875
375.7789	0.2775
375.9864	0.2786
376.194	0.289
376.4015	0.2841
376.609	0.2861
376.8165	0.2932
377.024	0.2856
377.2315	0.2878
377.4389	0.2781
377.6464	0.2962
377.8538	0.2879
378.0612	0.2926
378.2686	0.2914
378.476	0.3013
378.6834	0.2919
378.8908	0.2911
379.0981	0.2948
379.3055	0.2959
379.5128	0.2979
379.7201	0.3048
379.9274	0.3011
380.1347	0.2951
380.342	0.2978
380.5492	0.2993
380.7565	0.2944
380.9637	0.2943
381.1709	0.2885
381.3781	0.3033
381.5853	0.2997
381.7925	0.2952
381.9997	0.3023
382.2068	0.3026
382.4139	0.3004
382.6211	0.3095
382.8282	0.3164
383.0353	0.3125
383.2424	0.3108
383.4494	0.3121
383.6565	0.3096
383.8635	0.3139
384.0706	0.3148
384.2776	0.3152
384.4846	0.3133
384.6916	0.3068
384.8986	0.312
385.1055	0.3143
385.3125	0.3148
385.5194	0.314
385.7263	0.2995
385.9333	0.3165
386.1402	0.3168
386.347	0.3105
386.5539	0.318
386.7608	0.3057
386.9676	0.3087
387.1744	0.3163
387.3813	0.3193
387.5881	0.305
387.7948	0.3141
388.0016	0.3196
388.2084	0.3098
388.4151	0.3095
388.6219	0.3028
388.8286	0.3081
389.0353	0.3158
389.242	0.3131
389.4487	0.3136
389.6553	0.2965
389.862	0.3014
390.0686	0.3085
390.2753	0.3074
390.4819	0.3114
390.6885	0.2996
390.8951	0.3023
391.1016	0.2931
391.3082	0.3069
391.5147	0.291
391.7213	0.2934
391.9278	0.2886
392.1343	0.3033
392.3408	0.2943
392.5473	0.2986
392.7537	0.2876
392.9602	0.2864
393.1666	0.3035
393.373	0.2884
393.5794	0.2875
393.7858	0.2952
393.9922	0.2917
394.1986	0.2822
394.4049	0.2813
394.6113	0.2851
394.8176	0.2809
395.0239	0.2841
395.2302	0.2829
395.4365	0.2871
395.6428	0.2777
395.8491	0.2717
396.0553	0.2696
396.2615	0.2788
396.4678	0.2755
396.674	0.273
396.8802	0.2707
397.0863	0.2676
397.2925	0.2748
397.4987	0.2698
397.7048	0.2692
397.9109	0.262
398.117	0.2704
398.3231	0.266
398.5292	0.2583
398.7353	0.2695
398.9413	0.2675
399.1474	0.2625
399.3534	0.2716
399.5594	0.267
399.7654	0.2619
399.9714	0.2708
400.1774	0.2629
400.3833	0.2657
400.5893	0.2651
400.7952	0.2762
401.0011	0.2662
401.207	0.2588
401.4129	0.2652
401.6188	0.2618
401.8247	0.2691
402.0305	0.2624
402.2364	0.2729
402.4422	0.2672
402.648	0.2676
402.8538	0.2687
403.0596	0.2739
403.2654	0.2616
403.4711	0.2704
403.6768	0.2689
403.8826	0.2669
404.0883	0.2649
404.294	0.2712
404.4997	0.2568
404.7054	0.2675
404.911	0.2701
405.1167	0.2653
405.3223	0.2656
405.5279	0.2633
405.7335	0.2641
405.9391	0.2653
406.1447	0.2723
406.3502	0.2625
406.5558	0.2617
406.7613	0.2602
406.9668	0.2614
407.1724	0.2721
407.3778	0.2724
407.5833	0.2601
407.7888	0.2749
407.9942	0.2579
408.1997	0.2704
408.4051	0.2552
408.6105	0.2618
408.8159	0.2626
409.0213	0.273
409.2267	0.2778
409.432	0.2567
409.6374	0.2622
409.8427	0.2737
410.048	0.2664
410.2533	0.262
410.4586	0.2653
410.6639	0.2681
410.8691	0.2535
411.0744	0.2606
411.2796	0.267
411.4848	0.265
411.69	0.2582
411.8952	0.2705
412.1004	0.2618
412.3056	0.2565
412.5107	0.2621
412.7158	0.2669
412.921	0.2642
413.1261	0.2613
413.3312	0.2609
413.5362	0.264
413.7413	0.2622
413.9464	0.2496
414.1514	0.2623
414.3564	0.2527
414.5614	0.2573
414.7664	0.2496
414.9714	0.2599
415.1764	0.2644
415.3813	0.249
415.5863	0.2703
415.7912	0.2577
415.9961	0.2538
416.201	0.2571
416.4059	0.2594
416.6108	0.2538
416.8156	0.267
417.0205	0.2676
417.2253	0.2433
417.4301	0.2623
417.6349	0.2501
417.8397	0.256
418.0445	0.2529
418.2492	0.253
418.454	0.2574
418.6587	0.2516
418.8634	0.2609
419.0681	0.2554
419.2728	0.2512
419.4775	0.2625
419.6822	0.2555
419.8868	0.2515
420.0915	0.2531
420.2961	0.2431
420.5007	0.2519
420.7053	0.2545
420.9099	0.2507
421.1144	0.2511
421.319	0.2387
421.5235	0.2446
421.728	0.252
421.9325	0.2457
422.137	0.2405
422.3415	0.2367
422.546	0.2377
422.7504	0.2424
422.9549	0.2429
423.1593	0.2334
423.3637	0.2358
423.5681	0.2329
423.7725	0.2374
423.9769	0.237
424.1812	0.2284
424.3856	0.2327
424.5899	0.2291
424.7942	0.2285
424.9985	0.235
425.2028	0.2322
425.4071	0.2327
425.6113	0.2359
425.8156	0.2239
426.0198	0.2221
426.224	0.2307
426.4282	0.2094
426.6324	0.2281
426.8366	0.216
427.0407	0.2156
427.2449	0.2218
427.449	0.2186
427.6531	0.2185
427.8572	0.2214
428.0613	0.2131
428.2654	0.2111
428.4694	0.1967
428.6735	0.2079
428.8775	0.2087
429.0815	0.207
429.2855	0.2156
429.4895	0.1969
429.6935	0.2046
429.8975	0.1921
430.1014	0.2033
430.3053	0.2029
430.5093	0.1943
430.7132	0.1869
430.9171	0.191
431.1209	0.1907
431.3248	0.1874
431.5286	0.1828
431.7325	0.193
431.9363	0.1865
432.1401	0.1921
432.3439	0.1866
432.5477	0.1797
432.7514	0.1755
432.9552	0.1842
433.1589	0.1717
433.3627	0.1812
433.5664	0.1686
433.7701	0.1775
433.9737	0.1758
434.1774	0.1673
434.3811	0.1562
434.5847	0.1647
434.7883	0.1655
434.9919	0.1623
435.1955	0.1629
435.3991	0.1597
435.6027	0.1441
435.8062	0.1681
436.0098	0.1482
436.2133	0.145
436.4168	0.1491
436.6203	0.1385
436.8238	0.1513
437.0272	0.1479
437.2307	0.144
437.4341	0.1356
437.6375	0.1344
437.841	0.1292
438.0443	0.1344
438.2477	0.126
438.4511	0.1225
438.6545	0.1391
438.8578	0.1296
439.0611	0.1292
439.2644	0.1285
439.4677	0.1245
439.671	0.1086
439.8743	0.1298
440.0775	0.1138
440.2808	0.1187
440.484	0.1181
440.6872	0.12
440.8904	0.1047
441.0936	0.1161
441.2967	0.102
441.4999	0.102
441.703	0.1042
441.9062	0.1015
442.1093	0.1069
442.3124	0.0949
442.5155	0.1017
442.7185	0.0919
442.9216	0.0964
443.1246	0.0949
443.3276	0.0874
443.5307	0.0891
443.7337	0.0887
443.9366	0.0916
444.1396	0.0904
444.3426	0.0806
444.5455	0.089
444.7484	0.0828
444.9513	0.0829
445.1542	0.0808
445.3571	0.088
445.56	0.0685
445.7628	0.0779
445.9657	0.0772
446.1685	0.0805
446.3713	0.0746
446.5741	0.08
446.7769	0.0818
446.9797	0.073
447.1824	0.0727
447.3852	0.0601
447.5879	0.0678
447.7906	0.0584
447.9933	0.0661
448.196	0.0628
448.3986	0.0647
448.6013	0.0551
448.8039	0.0597
449.0066	0.0711
449.2092	0.0676
449.4118	0.061
449.6143	0.0613
449.8169	0.0629
450.0195	0.0544
450.222	0.0532
450.4245	0.059
450.627	0.0549
450.8295	0.049
451.032	0.0533
451.2345	0.0482
451.4369	0.0561
451.6394	0.045
451.8418	0.0363
452.0442	0.0496
452.2466	0.0428
452.449	0.0518
452.6513	0.0403
452.8537	0.0403
453.056	0.0395
453.2583	0.0432
453.4607	0.0334
453.663	0.0373
453.8652	0.0344
454.0675	0.0397
454.2697	0.0323
454.472	0.0279
454.6742	0.0398
454.8764	0.0406
455.0786	0.0352
455.2808	0.0282
455.4829	0.0392
455.6851	0.0398
455.8872	0.0191
456.0893	0.0352
456.2915	0.0218
456.4935	0.0286
456.6956	0.0313
456.8977	0.0317
457.0997	0.031
457.3018	0.0267
457.5038	0.0382
457.7058	0.0315
457.9078	0.0244
458.1098	0.0327
458.3117	0.0353
458.5137	0.0191
458.7156	0.0246
458.9175	0.0292
459.1194	0.0281
459.3213	0.0195
459.5232	0.0282
459.725	0.0231
459.9269	0.0249
460.1287	0.0292
460.3305	0.0264
460.5323	0.0269
460.7341	0.0268
460.9359	0.0104
461.1376	0.0192
461.3394	0.0206
461.5411	0.0213
461.7428	0.0258
461.9445	0.0225
462.1462	0.0222
462.3479	0.015
462.5495	0.0293
462.7512	0.0366
462.9528	0.0181
463.1544	0.0187
463.356	0.014
463.5576	0.0255
463.7592	0.0202
463.9607	0.0119
464.1623	0.0164
464.3638	0.0189
464.5653	0.0178
464.7668	0.0226
464.9683	0.0227
465.1697	0.0233
465.3712	0.0124
465.5726	0.0178
465.7741	0.0246
465.9755	0.009
466.1769	0.0118
466.3782	0.0165
466.5796	0.023
466.7809	0.0198
466.9823	0.021
467.1836	0.0143
467.3849	0.0138
467.5862	0.0081
467.7875	0.0132
467.9887	0.0253
468.19	0.0155
468.3912	0.02
468.5924	0.0164
468.7936	0.0146
468.9948	0.0148
469.196	0.007
469.3972	0.0103
469.5983	0.0146
469.7994	0.0158
470.0006	0.0152
470.2017	0.015
470.4027	0.0227
470.6038	0.0231
470.8049	0.0179
471.0059	0.022
471.2069	0.0154
471.408	0.0291
471.6089	0.0216
471.8099	0.0175
472.0109	0.0092
472.2119	0.0248
472.4128	0.007
472.6137	0.0041
472.8146	0.0169
473.0155	0.0211
473.2164	0.0145
473.4173	0.0009
473.6181	0.0049
473.819	0.0076
474.0198	0.0105
474.2206	0.0092
474.4214	0.0142
474.6222	0.0033
474.8229	0.0122
475.0237	0.0158
475.2244	0.0137
475.4251	0.0028
475.6258	0.0069
475.8265	0.0115
476.0272	0.0117
476.2278	0.0116
476.4285	0.0162
476.6291	0.0082
476.8297	0.0134
477.0303	0.0037
477.2309	0.0099
477.4315	0.0091
477.632	0.0004
477.8326	0.0181
478.0331	0.0166
478.2336	0.0069
478.4341	0.0098
478.6346	0.0119
478.8351	0.008
479.0355	0.0116
479.236	0.0182
479.4364	0.0154
479.6368	0.0123
479.8372	0.012
480.0376	0.0093
480.2379	0.0063
480.4383	0.0185
480.6386	0.0052
480.8389	0.0119
481.0392	0.0121
481.2395	0.0164
481.4398	0.004
481.6401	0.0135
481.8403	0.0039
482.0405	0.0134
482.2408	0.0108
482.441	0.0137
482.6411	0.0117
482.8413	0.006
483.0415	0.0227
483.2416	0.0094
483.4417	0.008
483.6419	0.0034
483.8419	0.018
484.042	0.0104
484.2421	-0.0008
484.4422	0.0067
484.6422	0.0058
484.8422	0.0077
485.0422	0.007
485.2422	0.0083
485.4422	0.0093
485.6422	0.0066
485.8421	0.0101
486.042	0.0174
486.242	0.0055
486.4419	0.0118
486.6417	0.0036
486.8416	0.0075
487.0415	0.0024
487.2413	0.0057
487.4411	0.013
487.641	0.0043
487.8408	0.0123
488.0405	0.0133
488.2403	0.0043
488.4401	0.0088
488.6398	0.016
488.8395	0.009
489.0392	0.0143
489.2389	0.0134
489.4386	0.0105
489.6383	0.0151
489.8379	-0.001
490.0376	0.0132
490.2372	0.0121
490.4368	0.0087
490.6364	0.0094
490.836	0.0031
491.0355	0.0025
491.2351	0.006
491.4346	0.0129
491.6341	0.0079
491.8336	0.0114
492.0331	0.0091
492.2326	0.0085
492.432	0.012
492.6315	0.0193
492.8309	0.0099
493.0303	0.0167
493.2297	0.0077
493.4291	0.0076
493.6284	0.0127
493.8278	0.0023
494.0271	0.0091
494.2264	0.0006
494.4257	0.0124
494.625	0.014
494.8243	0.0073
495.0236	0.0149
495.2228	0.0259
495.422	0.0128
495.6213	0.0094
495.8205	0.0138
496.0196	0.0178
496.2188	0.0176
496.418	0.0128
496.6171	0.0055
496.8162	0.0108
497.0153	0.0052
497.2144	0.0176
497.4135	0.008
497.6126	0.0133
497.8116	0.0111
498.0107	0.009
498.2097	0.0112
498.4087	0.0067
498.6077	-0.0033
498.8067	0.0145
499.0056	0.0107
499.2046	0.0125
499.4035	0.009
499.6024	0.0046
499.8013	0.0168
500.0002	0.012
500.199	0.0109
500.3979	0.0033
500.5967	0.007
500.7956	0.0145
500.9944	0.0101
501.1932	0.0133
501.3919	0.0171
501.5907	0.0092
501.7895	0.0049
501.9882	0.0157
502.1869	0.0208
502.3856	0.0105
502.5843	0.0124
502.783	0.0103
502.9816	0.0101
503.1803	0.0062
503.3789	0.0136
503.5775	0.0077
503.7761	0.0088
503.9747	0.0179
504.1732	-0.0011
504.3718	0.0173
504.5703	-0.0005
504.7689	-0.0006
504.9674	0.0035
505.1658	-0.0019
505.3643	0.0103
505.5628	0.0092
505.7612	0.0201
505.9597	0.0023
506.1581	0.0087
506.3565	0.008
506.5549	0.0103
506.7532	0.0071
506.9516	0.015
507.1499	0.01
507.3482	0.009
507.5465	0.0117
507.7448	0.0208
507.9431	0.015
508.1414	0.0092
508.3396	0.0094
508.5379	0.0001
508.7361	0.0144
508.9343	0.019
509.1325	0.0157
509.3306	0.0077
509.5288	-0.0025
509.7269	0.0147
509.9251	0.0113
510.1232	0.0182
510.3213	0.0128
510.5193	0.0073
510.7174	0.0085
510.9154	0.0104
511.1135	0.0082
511.3115	0.0095
511.5095	0.0055
511.7075	0.0182
511.9055	0.0066
512.1034	0.0121
512.3014	0.0038
512.4993	0.0173
512.6972	0.0077
512.8951	0.0123
513.093	0.0017
513.2908	0.0178
513.4887	0.0143
513.6865	0.013
513.8844	0.0233
514.0822	0.0138
514.2799	0.0054
514.4777	-0.0043
514.6755	0.0071
514.8732	0.0128
515.0709	0.0187
515.2687	0.0024
515.4664	0.0166
515.664	0.0101
515.8617	0.0201
516.0594	0.008
516.257	0.0159
516.4546	0.0292
516.6522	0.0125
516.8498	0.0148
517.0474	0.0078
517.2449	0.0176
517.4425	0.0169
517.64	0.0127
517.8375	0.0161
518.035	0.0026
518.2325	0.0126
518.43	0.0149
518.6274	0.0076
518.8249	0.0036
519.0223	0.0179
519.2197	0.0108
519.4171	0.0078
519.6145	0.0199
519.8118	-0.0058
520.0092	0.0005
520.2065	0.017
520.4038	0.0091
520.6011	0.0073
520.7984	0.0124
520.9956	0.0092
521.1929	0.0078
521.3901	0.0098
521.5874	0.0284
521.7846	0.0067
521.9818	0.0069
522.1789	0.0027
522.3761	0.0251
522.5732	0.0137
522.7704	0.0087
522.9675	0.0068
523.1646	-0.0008
523.3617	0.0175
523.5587	0.01
523.7558	0.0081
523.9528	0.016
524.1498	0.0057
524.3468	0.0025
524.5438	0.0132
524.7408	0.0046
524.9378	0.0174
525.1347	0.0162
525.3316	0.0086
525.5285	0.0077
525.7254	0.0143
525.9223	0.0152
526.1192	0.0221
526.316	0.017
526.5129	0.0116
526.7097	0.0025
526.9065	0.0103
527.1033	0.0107
527.3	0.0022
527.4968	0.0193
527.6935	0.0067
527.8903	0.0117
528.087	0.0037
528.2837	0.0237
528.4804	0.0083
528.677	0.015
528.8737	0.0037
529.0703	0.0083
529.2669	0.0069
529.4635	0.001
529.6601	-0.0096
529.8567	0.0164
530.0532	0.0091
530.2498	0.0052
530.4463	0.0042
530.6428	0.0094
530.8393	0.0139
531.0358	-0.0031
531.2322	-0.0008
531.4287	0.0087
531.6251	-0.0049
531.8215	0.0134
532.0179	0.009
532.2143	0.0147
532.4107	0.0169
532.607	0.0038
532.8034	0.0041
532.9997	0.003
533.196	0.0027
533.3923	0.018
533.5886	0.018
533.7848	0.0096
533.9811	0.0109
534.1773	0.0136
534.3735	0.0132
534.5697	0.001
534.7659	0.0103
534.9621	0.0079
535.1582	0.0113
535.3544	0.0256
535.5505	0.0166
535.7466	0.0104
535.9427	0.0098
536.1387	0.0106
536.3348	0.0156
536.5308	0.0066
536.7269	0.0049
536.9229	0.0114
537.1189	0.0076
537.3148	0.0061
537.5108	0.0152
537.7068	0.0202
537.9027	0.0002
538.0986	0.0072
538.2945	0.0019
538.4904	0.0041
538.6863	0.0106
538.8821	0.0078
539.078	0.0098
539.2738	0.0078
539.4696	0.0077
539.6654	0.0118
539.8611	0.0133
540.0569	0.0067
540.2526	0.0153
540.4484	-0.0033
540.6441	0.0103
540.8398	0.0156
541.0355	0.0154
541.2311	0.0146
541.4268	0.0152
541.6224	0.0198
541.818	0.0148
542.0136	0.0098
542.2092	0.0159
542.4048	0.0192
542.6003	0.0042
542.7959	0.0162
542.9914	0.0156
543.1869	0.0177
543.3824	0.0156
543.5779	0.0286
543.7734	0.0161
543.9688	0.0085
544.1642	0.002
544.3596	0.0096
544.555	0.0099
544.7504	0.0226
544.9458	0.0151
545.1411	0.0129
545.3365	0.0122
545.5318	0.0114
545.7271	0.0126
545.9224	0.0111
546.1177	0.0123
546.3129	0.002
546.5081	0.0093
546.7034	0.0137
546.8986	0.0091
547.0938	0.0138
547.289	0.0123
547.4841	0.0192
547.6793	0.0121
547.8744	0.0111
548.0695	0.0033
548.2646	0.0158
548.4597	0.0064
548.6548	0.0198
548.8498	0.0197
549.0448	0.0063
549.2399	0.028
549.4349	0.0151
549.6298	0.0127
549.8248	0.0086
550.0198	0.0117
550.2147	0.0155
550.4096	0.0032
550.6045	0.017
550.7994	0.0092
550.9943	0.0191
551.1892	-0.0081
551.384	0.0218
551.5788	0.0088
551.7737	0.014
551.9685	0.0049
552.1632	0.006
552.358	0.0124
552.5528	0.0169
552.7475	0.019
552.9422	0.0128
553.1369	0.0118
553.3316	0.01
553.5263	0.015
553.7209	0.0031
553.9156	0.0117
554.1102	0.0054
554.3048	0.0141
554.4994	0.0056
554.694	0.0152
554.8885	0.019
555.0831	0.0183
555.2776	0.0042
555.4721	0.0134
555.6666	0.013
555.8611	0.0082
556.0555	0.0061
556.25	0.0098
556.4444	0.0102
556.6388	0.0034
556.8332	0.0067
557.0276	0.0236
557.222	-0.0006
557.4163	0.0048
557.6107	0.011
557.805	0.0087
557.9993	0.0061
558.1936	-0.0006
558.3879	0.0122
558.5821	-0.0017
558.7764	0.0036
558.9706	0.0004
559.1648	0.0143
559.359	-0.0005
559.5532	0.007
559.7473	-0.0031
559.9415	0.0065
560.1356	0.022
560.3297	0.0138
560.5238	0.0052
560.7179	0.0045
560.9119	0.0015
561.106	0.0045
561.3	0.0058
561.494	0.0036
561.688	0.0091
561.882	0.016
562.076	0.0161
562.2699	0.0187
562.4639	0.0235
562.6578	0.0184
562.8517	0.0017
563.0456	0.0107
563.2395	0.0134
563.4333	0.017
563.6272	0.0046
563.821	0.0158
564.0148	0.008
564.2086	0.0071
564.4024	0.0193
564.5961	0.0165
564.7899	0.013
564.9836	0.0058
565.1773	0.015
565.371	0.0112
565.5647	0.0124
565.7584	0.0175
565.952	0.0104
566.1456	0.0098
566.3393	0.0137
566.5329	0.0074
566.7264	0.0154
566.92	0.0056
567.1136	0.0052
567.3071	0.0084
567.5006	0.0113
567.6941	0.0019
567.8876	0.0085
568.0811	0.0268
568.2745	0.0042
568.468	0.0135
568.6614	0.0072
568.8548	0.0111
569.0482	0.0097
569.2416	0.0066
569.4349	0.0071
569.6283	0.0077
569.8216	0.0123
570.0149	0.0091
570.2082	0.0166
570.4015	0.0083
570.5947	0.0045
570.788	0.0104
570.9812	0.0069
571.1744	0.0107
571.3676	0.0068
571.5608	0.0025
571.754	0.019
571.9471	0.0124
572.1402	0.0076
572.3333	0.0086
572.5264	0.0073
572.7195	0.012
572.9126	0.0078
573.1057	0.0066
573.2987	0.0053
573.4917	0.0082
573.6847	0.0138
573.8777	0.0126
574.0707	0.0106
574.2636	0.0072
574.4566	0.0069
574.6495	0.0069
574.8424	0.011
575.0353	0.0141
575.2281	0.0132
575.421	0.0037
575.6138	0.01
575.8067	0.0077
575.9995	0.0107
576.1923	0.0063
576.385	0.0148
576.5778	0.0088
576.7706	0.0093
576.9633	0.0101
577.156	0.0039
577.3487	0.0099
577.5414	0.0051
577.734	0.0085
577.9267	0.0114
578.1193	0.0085
578.3119	0.0074
578.5045	0.0077
578.6971	0.007
578.8897	0.0067
579.0822	0.0161
579.2747	0.0041
579.4673	0.0058
579.6598	0.0084
579.8522	0.0062
580.0447	0.0122
580.2372	0.0138
580.4296	0.0167
580.622	0.0083
580.8144	0.0116
581.0068	0.0073
581.1992	0.0085
581.3915	0.0018
581.5839	0.0065
581.7762	0.0067
581.9685	0.0065
582.1608	0.0056
582.353	0.0077
582.5453	0.0125
582.7375	0.0117
582.9298	0.0055
583.122	0.007
583.3142	0.0121
583.5063	0.0075
583.6985	0.0024
583.8906	0.0075
584.0827	0.0106
584.2749	0.0069
584.4669	0.0069
584.659	0.0118
584.8511	0.0125
585.0431	0.0096
585.2352	0.0084
585.4272	0.0085
585.6192	0.0086
585.8111	0.0045
586.0031	0.0058
586.195	0.0105
586.387	0.0051
586.5789	0.01
586.7708	0.0114
586.9627	0.0107
587.1545	0.0091
587.3464	0.0119
587.5382	0.0059
587.73	0.0163
587.9218	0.0089
588.1136	0.0055
588.3053	0.0072
588.4971	0.0116
588.6888	0.0023
588.8805	0.0078
589.0722	0.0143
589.2639	0.0124
589.4556	0.0076
589.6472	0.0116
589.8389	0.0121
590.0305	0.0109
590.2221	0.0141
590.4137	0.0084
590.6052	0.0093
590.7968	0.0176
590.9883	0.0102
591.1798	0.0075
591.3713	0.0068
591.5628	0.0061
591.7543	0.0084
591.9458	0.0043
592.1372	0.0119
592.3286	0.0077
592.52	0.0102
592.7114	0.0075
592.9028	0.0141
593.0941	0.0059
593.2855	0.0071
593.4768	0.0102
593.6681	0.0111
593.8594	0.0119
594.0506	0.0077
594.2419	0.0084
594.4331	0.008
594.6244	0.0057
594.8156	0.0113
595.0067	0.0044
595.1979	0.0076
595.3891	0.0075
595.5802	0.0115
595.7713	0.0092
595.9624	0.0119
596.1535	0.0079
596.3446	0.0028
596.5357	0.0107
596.7267	0.0015
596.9177	0.0132
597.1087	0.0046
597.2997	0.007
597.4907	0.0028
597.6817	0.0136
597.8726	0.0138
598.0635	0.0042
598.2544	0.0085
598.4453	0.0113
598.6362	0.0085
598.827	0.0073
599.0179	0.0087
599.2087	0.011
599.3995	0.0078
599.5903	0.0154
599.7811	0.0165
599.9718	0.0032
600.1626	0.0081
600.3533	0.0055
600.544	0.0045
600.7347	0.0097
600.9254	0.0142
601.116	0.0037
601.3067	0.0069
601.4973	0.0094
601.6879	0.0121
601.8785	0.0136
602.0691	0.0084
602.2596	0.0056
602.4502	0.0101
602.6407	0.0095
602.8312	0.0106
603.0217	0.011
603.2122	0.0106
603.4027	0.0092
603.5931	0.0072
603.7835	0.0108
603.9739	0.0082
604.1643	0.0105
604.3547	0.0088
604.5451	0.0114
604.7354	0.0045
604.9257	0.0045
605.116	0.0029
605.3063	0.0068
605.4966	0.0082
605.6869	0.0149
605.8771	0.0088
606.0673	0.0109
606.2575	0.0079
606.4477	0.0155
606.6379	0.0071
606.8281	0.0068
607.0182	0.0105
607.2083	0.0086
607.3985	0.007
607.5885	0.0036
607.7786	0.0101
607.9687	0.0095
608.1587	0.0121
608.3488	0.0108
608.5388	0.0092
608.7288	0.0036
608.9187	0.0099
609.1087	0.0082
609.2986	0.0134
609.4886	0.0001
609.6785	0.011
609.8684	0.002
610.0582	0.0075
610.2481	0.0032
610.4379	0.0063
610.6278	0.0039
610.8176	0.019
611.0074	0.0078
611.1971	0.0137
611.3869	0.0106
611.5766	0.0062
611.7664	0.0151
611.9561	0.0096
612.1458	0.0128
612.3354	0.0039
612.5251	0.01
612.7147	0.0084
612.9044	0.0005
613.094	0.0166
613.2836	0.0009
613.4731	0.0097
613.6627	0.0139
613.8522	0.0163
614.0417	0.0112
614.2313	0.0087
614.4207	0.0084
614.6102	0.0059
614.7997	0.0114
614.9891	0.0112
615.1785	0.0018
615.3679	0.0132
615.5573	0.0093
615.7467	0.0076
615.9361	0.0099
616.1254	0.0081
616.3147	0.0092
616.504	0.0023
616.6933	0.0058
616.8826	-0.0008
617.0718	0.0082
617.2611	0.0046
617.4503	0.0063
617.6395	0.0123
617.8287	0.0124
618.0179	0.0071
618.207	0.0191
618.3961	-0.0043
618.5853	0.0031
618.7744	0.0136
618.9634	0.014
619.1525	0.0012
619.3416	0.0001
619.5306	0.0097
619.7196	0.0064
619.9086	0.0049
620.0976	-0.0052
620.2866	0.0072
620.4755	0.0143
620.6645	0.0154
620.8534	0.0099
621.0423	0.0114
621.2312	-0.0012
621.42	0.0121
621.6089	0.0046
621.7977	0.012
621.9865	0.0017
622.1753	0.0063
622.3641	0.0042
622.5529	0.004
622.7416	0.0038
622.9303	0.0064
623.1191	0.0088
623.3078	0.0115
623.4964	0.0193
623.6851	0.0155
623.8737	0.0032
624.0624	-0.005
624.251	0.007
624.4396	0.007
624.6282	0.0194
624.8167	0.0035
625.0053	0.0132
625.1938	0.0092
625.3823	0.013
625.5708	-0.0006
625.7593	-0.0038
625.9477	0.024
626.1362	0.0099
626.3246	0.0019
626.513	0.01
626.7014	0.0111
626.8898	0.0164
627.0781	0.0076
627.2665	0.0135
627.4548	0.0022
627.6431	0.0122
627.8314	0.0324
628.0197	0.016
628.2079	0.0054
628.3962	0.0042
628.5844	0.0044
628.7726	0.0168
628.9608	0.0081
629.1489	0.0028
629.3371	0.0068
629.5252	0.0137
629.7134	0.0033
629.9015	0.0161
630.0895	-0.0005
630.2776	0.0136
630.4657	0.0125
630.6537	0.0092
630.8417	-0.0067
631.0297	0.0047
631.2177	0.0065
631.4057	0.015
631.5936	0.0084
631.7815	0.0003
631.9695	0.0269
632.1574	0.013
632.3452	0.0077
632.5331	0.0144
632.7209	0.0246
632.9088	0.0116
633.0966	0.0279
633.2844	0.0144
633.4722	0.0302
633.6599	0.0321
633.8477	0.0265
634.0354	0.0136
634.2231	0.0029
634.4108	0.0089
634.5985	0.0203
634.7861	0.0123
634.9738	-0.0013
635.1614	0.0132
635.349	0.0113
635.5366	0.0171
635.7242	0.0233
635.9117	0.0174
636.0993	0.002
636.2868	0.0054
636.4743	0.0065
636.6618	-0.0031
636.8492	0.0201
637.0367	0.01
637.2241	0.0202
637.4115	0.0338
637.5989	0.0052
637.7863	0.033
637.9737	0.0077
638.161	0.0124
638.3484	0.0105
638.5357	0.0093
638.723	0.0227
638.9103	-0.0098
639.0975	-0.0062
639.2848	0.0143
639.472	0.013
639.6592	0.0011
639.8464	0.0036
640.0336	0.0131
640.2208	0.019
640.4079	0.0025
640.595	-0.0155
640.7821	0.0105
640.9692	-0.0019
641.1563	0.0158
641.3434	0.0107
641.5304	0.0176
641.7174	0.0112
641.9044	0.0015
642.0914	0.0353
642.2784	0.0052
642.4653	-0.0139
642.6523	0.0061
642.8392	0.0029
643.0261	0.0203
643.213	0.0057
643.3999	0.0242
643.5867	0.0044
643.7735	0.0107
643.9604	0.0183
644.1472	0.0155
644.3339	0.0102
644.5207	-0.0007
644.7075	0.0111
644.8942	0.004
645.0809	0.0185
645.2676	-0.0066
645.4543	0.0073
645.6409	0.0281
645.8276	0.0123
646.0142	0.0109
646.2008	0.0133
646.3874	-0.0036
646.574	-0.0017
646.7605	0.0252
646.9471	0.0061
647.1336	-0.0157
647.3201	0.0127
647.5066	0.0189
647.6931	0.0113
647.8795	0.0192
648.0659	0.0099
648.2524	0.011
648.4388	0.005
648.6252	0.0101
648.8115	0.0098
648.9979	0.0221
649.1842	0.0182
649.3705	0.0172
649.5568	-0.01
649.7431	0.0129
649.9294	-0.0027
650.1156	-0.0123
650.3018	0.0123
650.488	0.0015
650.6742	0.0167
650.8604	0.0254
651.0466	0.0044
651.2327	0.0209
651.4188	-0.0109
651.6049	0.0232
651.791	0.0104
651.9771	0.0043
652.1632	0.0082
652.3492	0.0053
652.5352	0.0241
652.7212	0.0099
652.9072	-0.0012
653.0932	0.0047
653.2791	0.0303
653.465	0.0146
653.651	0.0064
653.8369	0.021
654.0227	-0.007
654.2086	0.018
654.3944	0.0183
654.5803	0.0056
654.7661	0.0077
654.9519	0.0006
655.1377	0.0002
655.3234	0.0002
655.5092	0.0002
655.6949	0.0002
655.8806	0.0002
656.0663	0.0002
656.2519	0.0002
656.4376	0.0002
656.6232	0.0002
656.8088	0.0002
656.9945	0.0002
657.18	0.0002
657.3656	0.0002
657.5511	0.0002
657.7367	0.0002
657.9222	0.0002
658.1077	0.0002
658.2932	0.0002
658.4786	0.0002
658.6641	0.0002
658.8495	0.0002
659.0349	0.0002
659.2203	0.0002
659.4057	0.0117
659.591	0.2901
659.7764	0.0378
659.9617	0.0212
660.147	0.0163
660.3323	-0.0024
660.5176	0.0212
660.7028	-0.0011
660.888	0.0036
661.0733	0.0364
661.2585	-0
661.4436	-0.0041
661.6288	0.0208
661.8139	0.0048
661.9991	-0.0046
662.1842	-0.0047
662.3693	0.0203
662.5544	0.0443
662.7394	0.0267
662.9245	0.0251
663.1095	0.0071
663.2945	0.0008
663.4795	0.0099
663.6644	0.0099
663.8494	0.0057
664.0343	0.0166
664.2193	-0.0096
664.4042	0.0107
664.589	0.0252
664.7739	0.0149
664.9587	-0.0125
665.1436	0.0151
665.3284	-0.006
665.5132	-0.0038
665.698	0.0096
665.8827	0.0137
666.0675	-0.0233
666.2522	0.0235
666.4369	0.001
666.6216	0.0297
666.8063	0.0034
666.9909	0.0017
667.1756	0.0216
667.3602	0.017
667.5448	0.0098
667.7294	-0.0054
667.9139	-0.0035
668.0985	0.0176
668.283	0.003
668.4675	0.0113
668.652	0.0107
668.8365	0.0176
669.0209	0.0127
669.2054	0.0155
669.3898	0.0054
669.5742	0.0262
669.7586	0.0458
669.943	0.026
670.1273	0.0111
670.3117	0.0219
670.496	0.0143
670.6803	-0.0093
670.8646	-0.0181
671.0488	0.0248
671.2331	-0.0026
671.4173	0.0149
671.6015	0.0161
671.7857	0.0063
671.9699	0.0149
672.1541	0.0058
672.3382	0.0016
672.5223	0.0165
672.7064	0.002
672.8905	0.0153
673.0746	0.0201
673.2587	0.0265
673.4427	0.0086
673.6267	0.0159
673.8107	0.0181
673.9947	0.0226
674.1787	0.0173
674.3626	0.0172
674.5465	0.0207
674.7304	0.0316
674.9143	0.0019
675.0982	0.0031
675.2821	0.0043
675.4659	-0.0043
675.6497	0.01
675.8335	0.0051
676.0173	0.014
676.2011	0.0248
676.3849	0.0038
676.5686	0.0165
676.7523	0.0195
676.936	0.0312
677.1197	-0.0103
677.3034	0.0379
677.487	0.0217
677.6706	0.0202
677.8542	0.007
678.0378	0.0095
678.2214	-0.0067
678.405	0.0171
678.5885	0.009
678.772	0.0183
678.9555	-0.0052
679.139	0.0257
679.3225	0.03
679.5059	0.0017
679.6894	0.0238
679.8728	0.0169
680.0562	0.0004
680.2395	-0.0019
680.4229	0.0045
680.6062	0.0118
680.7896	0.0069
680.9729	0.0075
681.1562	0.0096
681.3394	-0.0038
681.5227	0.008
681.7059	0.0105
681.8891	0.0332
682.0723	0.0107
682.2555	0.0066
682.4387	0.0134
682.6218	0.019
682.805	0.0232
682.9881	0.0035
683.1712	0.0151
683.3542	0.028
683.5373	-0.0026
683.7203	0.0197
683.9034	-0.0174
684.0864	0.0021
684.2694	0.0161
684.4523	0.0155
684.6353	-0.0013
684.8182	0.0133
685.0011	0.0269
685.184	0.0084
685.3669	0.0303
685.5498	-0.0007
685.7326	0.011
685.9154	0.0092
686.0982	0.0251
686.281	0.0061
686.4638	-0.0004
686.6465	0.0134
686.8293	0.0078
687.012	0.0214
687.1947	0.0132
687.3774	0.0193
687.56	-0.007
687.7427	0.0149
687.9253	-0.0055
688.1079	0.0053
688.2905	0.0141
688.4731	0.025
688.6556	-0.0006
688.8382	-0.0169
689.0207	0.0017
689.2032	0.0238
689.3857	0.0145
689.5681	0.0098
689.7506	0.0428
689.933	-0.0214
690.1154	0.0086
690.2978	-0.0003
690.4802	0.0217
690.6626	0.0068
690.8449	0.0166
691.0272	-0.0013
691.2095	-0.0228
691.3918	0.0137
691.5741	0.019
691.7563	0.009
691.9386	0.026
692.1208	0.0139
692.303	0.0089
692.4852	0.0036
692.6673	-0.004
692.8495	-0.0161
693.0316	0.0148
693.2137	0.0299
693.3958	0.0172
693.5778	0.0104
693.7599	0.0059
693.9419	0.0035
694.1239	0.016
694.3059	0.035
694.4879	-0.0003
694.6699	0.02
694.8518	0.0208
695.0337	0.0016
695.2157	0.0441
695.3975	0.0035
695.5794	-0
695.7613	0.01
695.9431	-0.0113
696.1249	0.0291
696.3067	0.0029
696.4885	0.0254
696.6703	0.0106
696.852	-0.0006
697.0337	0.0219
697.2154	0.0118
697.3971	0.016
697.5788	0.0279
697.7605	-0.0043
697.9421	0.019
698.1237	0.0156
698.3053	-0.0063
698.4869	0.008
698.6685	0.0054
698.85	0.0163
699.0315	-0.0081
699.213	0.0251
699.3945	0.0027
699.576	0.0506
699.7575	0.0239
699.9389	0.0058
700.1203	0.0084
700.3017	0.0035
700.4831	0.0384
700.6645	0.0227
700.8458	0.0035
701.0271	0.035
701.2084	0.0409
701.3897	0.032
701.571	-0.0167
701.7523	0.002
701.9335	0.0255
702.1147	0.026
702.2959	-0.0016
702.4771	0.0241
702.6583	-0.0035
702.8394	-0.0136
703.0205	0.0346
703.2016	-0.0047
703.3827	0.0004
703.5638	-0.0134
703.7449	0.0359
703.9259	0.026
704.1069	-0.0259
704.2879	0.0015
704.4689	0.0124
704.6499	0.0405
704.8308	0.0184
705.0117	-0.0404
705.1927	0.0049
705.3735	0.0428
705.5544	0.0164
705.7353	-0.0112
705.9161	-0.006
706.0969	0.0292
706.2777	0.0227
706.4585	0.0043
706.6393	0.0169
706.82	0.0185
707.0007	0.009
707.1815	-0.0033
707.3621	0.0264
707.5428	0.0269
707.7235	0.0057
707.9041	0.0298
708.0847	0.0137
708.2653	0.012
708.4459	0.0129
708.6265	-0.0308
708.807	0.0212
708.9875	-0.008
709.168	0.0064
709.3485	0.0286
709.529	0.0093
709.7095	-0.0055
709.8899	0.0159
710.0703	0.004
710.2507	0.0209
710.4311	-0.0172
710.6115	0.0311
710.7918	0.0092
710.9721	0.0141
711.1524	-0
711.3327	-0.0181
711.513	0.0121
711.6932	-0.003
711.8735	0.047
712.0537	-0.0125
712.2339	0.0172
712.4141	0.0286
712.5942	-0.0015
712.7744	0.0241
712.9545	0.0209
713.1346	0.0219
713.3147	0.0255
713.4947	-0.0223
713.6748	0.0018
713.8548	0.0162
714.0348	0.0241
714.2148	0.0127
714.3948	0.0133
714.5748	0.0248
714.7547	0.0196
714.9346	0.0192
715.1145	0.008
715.2944	-0
715.4743	0.0088
715.6541	-0.0085
715.834	0.0456
716.0138	0.0086
716.1936	-0.0116
716.3733	0.0168
716.5531	0.0021
716.7328	0.0539
716.9126	0.0158
717.0923	-0.0081
717.2719	0.0054
717.4516	0.0079
717.6312	-0.0125
717.8109	0.0245
717.9905	-0.0069
718.1701	0.0403
718.3496	-0.0043
718.5292	0.0224
718.7087	0.0194
718.8882	0.0347
719.0677	-0.0051
719.2472	0.0214
719.4267	-0.0132
719.6061	-0.0039
719.7856	0.048
719.965	0.0033
720.1443	0.0051
720.3237	0.0071
720.5031	-0.0087
720.6824	0.0206
720.8617	0.0298
721.041	0.0389
721.2203	0.002
721.3995	-0.0069
721.5788	0.0103
721.758	-0
721.9372	0.0471
722.1164	-0.0085
722.2956	0.037
722.4747	0.0092
722.6538	0.0022
722.8329	0.0233
723.012	-0.0038
723.1911	0.0094
723.3702	0.0245
723.5492	0.013
723.7282	0.0043
723.9072	0.016
724.0862	-0.0154
724.2652	0.0148
724.4441	0.0041
724.623	-0.0266
724.8019	0.0152
724.9808	0.0152
725.1597	0.0321
725.3385	0.0315
725.5174	0.0162
725.6962	0.0173
725.875	0.0196
726.0538	0.0209
726.2325	0.0295
726.4112	-0.0085
726.59	-0.0167
726.7687	-0.0021
726.9474	0.0253
727.126	0.0438
727.3047	-0.0024
727.4833	0.0224
727.6619	-0.0061
727.8405	0.0253
728.0191	0.036
728.1976	0.0082
728.3762	0.0153
728.5547	0.0289
728.7332	0.0129
728.9116	0.0162
729.0901	0.0009
729.2686	-0.0078
729.447	-0.0063
729.6254	0.0153
729.8038	0.0262
729.9821	-0.014
730.1605	0.018
730.3388	0.0095
730.5171	0.0227
730.6954	0.0015
730.8737	0.0172
731.0519	0.0048
731.2302	0.0294
731.4084	0.0089
731.5866	-0.0063
731.7648	0.0009
731.9429	0.0278
732.1211	0.0252
732.2992	0.0055
732.4773	0.008
732.6554	-0.0087
732.8335	0.0106
733.0115	0.0174
733.1896	0.0056
733.3676	0.0276
733.5456	0.011
733.7235	0.0047
733.9015	0.0092
734.0794	0.0018
734.2574	-0.0089
734.4353	0.0121
734.6131	0.0153
734.791	0.0056
734.9689	0.0092
735.1467	0.0025
735.3245	0.0197
735.5023	0.0054
735.68	0.0033
735.8578	0.041
736.0355	0.0257
736.2132	0.0181
736.3909	0.0135
736.5686	0.0203
736.7463	-0.0094
736.9239	0.0406
737.1015	0.0092
737.2791	0.0278
737.4567	0.0148
737.6343	0.0083
737.8118	0.0139
737.9894	-0.0128
738.1669	-0.0053
738.3444	0.0533
738.5218	-0.0026
738.6993	0.0181
738.8767	-0.0023
739.0541	0.0209
739.2315	0.0024
739.4089	0.0179
739.5863	0.0115
739.7636	0.0073
739.9409	0.0069
740.1182	0.0015
740.2955	0.0243
740.4728	-0.0162
740.65	0.02
740.8272	0.0537
741.0044	0.0069
741.1816	0.0414
741.3588	-0.0298
741.5359	-0.0201
741.7131	0.004
741.8902	0.0238
742.0673	0.0016
742.2444	0.0434
742.4214	0.0408
742.5985	0.005
742.7755	0.0013
742.9525	-0.028
743.1295	0.0264
743.3064	0.0073
743.4834	0.0105
743.6603	0.0785
743.8372	-0.0402
744.0141	0.0004
744.191	-0.0188
744.3678	-0.041
744.5446	0.0179
744.7215	0.0094
744.8982	0.0274
745.075	0.0357
745.2518	0.0124
745.4285	0.0398
745.6052	-0.0331
745.7819	0.0094
745.9586	0.0165
746.1353	0.0171
746.3119	-0.0175
746.4885	0.0319
746.6651	-0.009
746.8417	0.0163
747.0183	0.0648
747.1948	0.0047
747.3714	0.0301
747.5479	0.0308
747.7244	-0.0051
747.9008	0.0084
748.0773	0.0416
748.2537	0.0168
748.4301	0.0043
748.6065	-0.005
748.7829	-0.0271
748.9593	0.0065
749.1356	0.0214
749.3119	0.0148
749.4882	0.0155
749.6645	0.0103
749.8408	0.0183
750.017	0.0322
750.1933	-0.0215
750.3695	-0.0026
750.5457	0.0071
750.7218	-0.0029
750.898	0.0178
751.0741	0.0192
751.2502	0.009
751.4263	-0.0007
751.6024	0.0154
751.7784	0.007
751.9545	0.0207
752.1305	0.0122
752.3065	0.0211
752.4825	-0.0076
752.6584	0.0191
752.8344	-0.0004
753.0103	-0.0159
753.1862	0.0167
753.3621	0.0026
753.5379	0.0156
753.7138	0.0334
753.8896	0.0408
754.0654	-0.0102
754.2412	0.0209
754.417	0.0227
754.5927	0.035
754.7685	0.0105
754.9442	0.0126
755.1199	0.0241
755.2956	0.0147
755.4712	-0.0109
755.6469	0.0023
755.8225	0.0124
755.9981	0.0199
756.1736	0.016
756.3492	0.0141
756.5248	0.0341
756.7003	0.0055
756.8758	0.0132
757.0513	0.0038
757.2267	0.0145
757.4022	-0.0152
757.5776	0.0044
757.753	0.0064
757.9284	0.012
758.1038	0.0282
758.2791	-0
758.4545	-0.012
758.6298	0.0154
758.8051	0.0101
758.9803	0.004
759.1556	0.0251
759.3308	0.002
759.506	0.008
759.6812	0.0117
759.8564	0.0193
760.0316	0.0156
760.2067	0.0257
760.3819	0.0131
760.557	0.0063
760.732	-0.0056
760.9071	0.0097
761.0821	0.0042
761.2572	0.0095
761.4322	0.03
761.6072	0.0205
761.7821	-0.0212
761.9571	0.0175
762.132	0.023
762.3069	0.0325
762.4818	0.0049
762.6567	0.0354
762.8316	0.0391
763.0064	0.0125
763.1812	-0.0152
763.356	-0.0007
763.5308	0.0209
763.7055	0.0043
763.8803	-0.0122
764.055	-0.0013
764.2297	-0.0128
764.4044	-0.0013
764.579	0.0064
764.7537	-0
764.9283	0.019
765.1029	0.0123
765.2775	0.0229
765.4521	0.0079
765.6266	0.0098
765.8011	0.029
765.9756	0.0218
766.1501	-0.0013
766.3246	0.0119
766.4991	0.0101
766.6735	0.0599
766.8479	0.0349
767.0223	0.0088
767.1967	0.0359
767.371	0.0287
767.5454	0.0275
767.7197	0.0331
767.894	-0.0112
768.0683	0.0313
768.2425	0.001
768.4168	0.0275
768.591	0.012
768.7652	0.02
768.9394	-0.0189
769.1135	-0.0073
769.2877	0.0093
769.4618	0.0526
769.6359	0.005
769.81	0.0192
769.984	-0.0101
770.1581	0.006
770.3321	0.0114
770.5061	-0.0011
770.6801	0.0225
770.8541	0.0147
771.028	0.0467
771.202	0.0545
771.3759	0.0165
771.5498	0.0097
771.7236	0.03
771.8975	0.0311
772.0713	-0.0175
772.2451	-0.0063
772.4189	0.0412
772.5927	-0.025
772.7665	-0.008
772.9402	0.0348
773.1139	-0.0157
773.2876	0.0122
773.4613	0.0315
773.635	0.053
773.8086	0.0475
773.9822	0.0474
774.1558	0.0764
774.3294	-0.0061
774.503	0.0278
774.6765	0.0152
774.8501	-0.0062
775.0236	0.0466
775.1971	0.0649
775.3705	0.0231
775.544	-0.0296
775.7174	0.0174
775.8908	0.0114
776.0642	0.0175
776.2376	0.0346
776.4109	0.0264
776.5843	-0.0206
776.7576	0.037
776.9309	0.0844
777.1041	0.0302
777.2774	-0.0058
777.4506	0.0025
777.6238	-0.0181
777.797	-0.026
777.9702	0.02
778.1434	0.0455
778.3165	0.0118
778.4896	-0.0298
778.6627	0.0412
778.8358	0.0183
779.0089	0.0084
779.1819	0.0317
779.3549	-0.0069
779.5279	-0.002
779.7009	0.0227
779.8739	0.0871
780.0468	-0.0112
780.2197	-0.004
780.3926	-0.0091
780.5655	0.0229
780.7384	0.013
780.9112	0.0201
781.0841	0.0018
781.2569	0.0445
781.4297	0.0364
781.6024	0.0243
781.7752	0.0584
781.9479	0.026
782.1206	0.0194
782.2933	-0.0012
782.466	0.0342
782.6386	0.0301
782.8113	0.0325
782.9839	-0.0111
783.1565	0.0191
783.329	0.0011
783.5016	0.0264
783.6741	0.013
783.8466	0.068
784.0191	0.0491
784.1916	-0.0268
784.3641	-0.0175
784.5365	0.0482
784.7089	-0.0361
784.8813	0.064
785.0537	0.0492
785.2261	-0.0045
785.3984	0.0219
785.5707	-0.0081
785.743	0.0388
785.9153	0.0066
786.0876	0.0038
786.2598	-0.0126
786.432	-0.006
786.6042	0.0412
786.7764	-0.0048
786.9486	0.0097
787.1207	0.0247
787.2928	0.0313
787.4649	0.0184
787.637	0.0235
787.8091	0.0179
787.9811	0.0409
788.1532	0.0364
788.3252	0.0395
788.4972	0.0397
788.6691	0.0334
788.8411	0.0292
789.013	0.0351
789.1849	-0.0015
789.3568	-0.0079
789.5287	0.0459
789.7005	0.0405
789.8723	-0.0471
790.0442	-0.04
790.2159	0.0168
790.3877	0.036
790.5595	0.0481
790.7312	0.0429
790.9029	-0.0112
791.0746	0.0232
791.2463	-0.0474
791.4179	0.0478
791.5896	0.0499
791.7612	0.053
791.9328	0.0011
792.1044	0.0557
792.2759	-0.0547
792.4474	0.0058
792.619	0.0341
792.7905	0.0114
792.9619	0.0411
793.1334	0.0659
793.3048	0.0608
793.4762	0.0259
793.6476	-0.0048
793.819	0.019
793.9904	-0.0236
794.1617	-0.0272
794.333	0.0356
794.5043	0.0421
794.6756	0.0194
794.8469	0.0296
795.0181	0.0415
795.1893	0.0289
795.3605	0.0142
795.5317	0.054
795.7029	-0.0285
795.874	0.0122
796.0452	0.0293
796.2163	0.064
796.3873	0.0866
796.5584	0.0925
796.7294	0.0244
796.9005	0.0148
797.0715	-0.0171
797.2425	0.0292
797.4134	0.0288
797.5844	0.0347
797.7553	0.0246
797.9262	0.0848
798.0971	0.0895
798.2679	0.0339
798.4388	0.0388
798.6096	0.0383
798.7804	0.0712
798.9512	0.1215
799.122	0.0038
799.2927	0.0333
799.4635	-0.0465
799.6342	-0.0107
799.8049	0.092
799.9755	-0.0359
800.1462	0.0166
800.3168	0.0574
800.4874	-0.0373
800.658	0.0127
800.8286	0.0093
800.9991	0.0126
801.1696	0.0087
801.3402	0.0531
801.5106	-0.0535
801.6811	-0.0343
801.8516	0.1468
802.022	-0.038
802.1924	0.0082
802.3628	0.1058
802.5332	0.0989
802.7035	0.0852
802.8739	0.1122
803.0442	-0.0342
803.2145	0.0182
803.3847	0.0908
803.555	0.1051
803.7252	0.0388
803.8954	0.0448
804.0656	0.0328
804.2358	-0.0249
804.4059	0.0666
804.5761	0.1065
804.7462	0.0157
804.9163	0.0864
805.0864	-0.0001
805.2564	-0.0667
805.4264	-0.0051
805.5965	0.0667
805.7665	0.0014
805.9364	-0.0109
806.1064	-0.015
806.2763	0.0519
806.4462	0.0766
806.6161	0.0088
806.786	-0.0365
806.9559	0.0504
807.1257	-0.015
807.2955	-0.0326
807.4653	0.0257
807.6351	0.0517
807.8048	0.0644
807.9746	0.0555
808.1443	-0.0147
808.314	0.0963
808.4837	0.07
808.6533	-0.017
808.8229	0.0451
808.9926	0.0109
809.1622	0.0191
809.3317	0.0156
809.5013	-0.0145
809.6708	0.0398
809.8403	0.0031
810.0098	0.0991
810.1793	0.0346
810.3488	0.0236
810.5182	0.1358
810.6876	0.0156
810.857	0.0931
811.0264	0.1045
811.1958	0.1405
811.3651	0.0496
811.5344	0.0229
811.7037	0.014
811.873	0.01
812.0422	-0.0089
812.2115	-0.0294
812.3807	-0.0747
812.5499	-0.0398
812.7191	-0.0866
812.8882	-0.0533
813.0574	-0.008
813.2265	0.0192
813.3956	-0.0512
813.5646	0.0231
813.7337	0.0353
813.9027	0.0208
814.0718	0.0013
814.2407	0.117
814.4097	0.1039
814.5787	0.0715
814.7476	0.041
814.9165	0.0513
815.0854	-0.0551
815.2543	0.0117
815.4232	0.0672
815.592	0.0393
815.7608	-0.0277
815.9296	0.0346
816.0984	0.0848
816.2671	-0.2799
816.4359	0.0925
816.6046	0.0583
816.7733	0.0506
816.942	-0.0286
817.1106	0.0406
817.2793	-0.154
817.4479	0.0166
817.6165	0.1025
817.785	0.1124
817.9536	-0.0248
818.1221	0.0862
818.2906	0.0099
818.4591	0.0133
818.6276	-0.0099
818.7961	0.1828
818.9645	-0.0896
819.1329	0.1195
819.3013	0.0159
819.4697	0.2136
819.638	0.0947
819.8064	0.0409
819.9747	0.0945
820.143	-0.1053
820.3113	0.1432
820.4795	0.1669
820.6477	0.1004
820.816	0.0525
820.9842	0.0112
821.1523	0.031
821.3205	0.0969
821.4886	-0.0183
821.6567	-0.019
821.8248	0.1883
821.9929	-0.1156
822.1609	0.0845
822.329	-0.0686
822.497	0.0383
822.665	-0.0067
822.833	0.0913
823.0009	-0.0744
823.1688	0.1681
823.3367	-0.1603
823.5046	0.125
823.6725	-0.0497
823.8404	0.16
824.0082	0.0599
824.176	-0.0824
824.3438	0.1584
824.5116	0.0921
824.6793	0.1436
824.847	0.0296
825.0147	0.0336
825.1824	0.0171
825.3501	0.1007
825.5177	0.084
825.6854	-0.1652
825.853	0.0437
826.0206	-0.0415
826.1881	-0.0548
826.3557	0.1215
826.5232	0.2239
826.6907	0.0417
826.8582	-0.1192
827.0257	0.3255
827.1931	0.3802
827.3605	-0.0508
827.528	-0.0935
827.6953	-0.1346
827.8627	-0.1227
828.03	0.0852
828.1974	0.0927
828.3647	0.1859
828.532	-0.0003
828.6992	0.1749
828.8665	0.0517
829.0337	0.0557
829.2009	0.0116
829.3681	0.076
829.5352	-0.1606
829.7024	0.0915
829.8695	0.2038
830.0366	0.1749
830.2037	0.1057
830.3707	-0.0243
830.5378	-0.0375
830.7048	0.1605
830.8718	0.0748
831.0388	0.1146
831.2057	0.1486
831.3727	-0.1049
831.5396	0.425
831.7065	-0.7603
831.8734	0.3026
832.0402	0.214
832.2071	-0
832.3739	-0.208
832.5407	-1.4559
832.7075	-0.4767
832.8742	0.5421
833.041	0.36
833.2077	0.3945
833.3744	0.2238
833.541	0.258
833.7077	-0.0306
833.8743	0.0124
834.0409	-0.0003
834.2075	0.1416
834.3741	-0.0212
834.5407	-0.0875
834.7072	0.0201
834.8737	0.3706
835.0402	0.2325
835.2067	-0.0385
835.3731	0.6352
835.5395	-0.0219
835.706	0.1873
835.8723	0.2794
836.0387	0.0318
836.2051	0.701
836.3714	0.2274
836.5377	0.0775
836.704	0.523
836.8703	-0.141
837.0365	-0.9031
837.2027	0.2365
837.3689	0.9471
837.5351	0.2442
837.7013	-0.0107
837.8674	-0
838.0335	0.049
838.1997	0.4393
838.3657	-0
838.5318	0.5355
838.6978	0.5002
838.8639	-0.2951
839.0299	-0.0397
839.1958	0.3666
839.3618	-0
839.5277	-0.013
839.6937	-0.0212
839.8596	-0.0513
840.0254	0.3031
840.1913	0.1435
840.3571	0.075
840.523	-0
840.6888	-0.1229
840.8545	-0
841.0203	0.2616
841.186	-0.008
841.3517	0.116
841.5174	0.1792
841.6831	0.4876
841.8488	-0.1548
842.0144	-0.0964
842.18	0.4393
842.3456	-0.6535
842.5112	-0.9031
842.6767	-0.0283
842.8422	0.886
843.0077	-0.0206
843.1732	0.3282
843.3387	0.318
843.5042	-0
843.6696	-0.2035
843.835	-0.0485
844.0004	-0.084
844.1657	-0
844.3311	-0.294
844.4964	-0
844.6617	0.6088
844.827	-0
844.9923	0.3221
845.1575	1.4452
845.3227	-0.1233
845.4879	1.5667
845.6531	-0.1265
845.8183	0.3221
845.9834	-0
846.1485	0.9368
846.3136	0.2009
846.4787	0.0433
846.6438	0.844
846.8088	0.3456
846.9738	-0
847.1388	0.1824
847.3038	0.3635
847.4687	0.5794
847.6337	-0
847.7986	0.2636
847.9635	0.253
848.1284	-0
848.2932	-0
848.458	-0
848.6228	1.3414
848.7876	-0.18
848.9524	-0.4543
849.1172	-0.9031
849.2819	-0
849.4466	0.7521
849.6113	0.2871
849.7759	-0
849.9406	0.0871
850.1052	-0.4694
850.2698	-0.1452
850.4344	-0.2228
850.599	-0.2461
850.7635	0.1517
850.928	-0
851.0925	1.0724
851.257	0.071
851.4215	0.5476
851.5859	-0
851.7503	-0.2547
851.9147	0.1786
852.0791	-0.1806
852.2434	0.1452
852.4078	-0.2325
852.5721	-0.0441
852.7364	1.0546
852.9007	-0.0503
853.0649	-0
853.2291	1.4464
853.3934	-0
853.5575	-0.1547
853.7217	0.0345
853.8859	-0.4476
854.05	-0.4681
854.2141	0.8905
854.3782	0.0526
854.5423	-0
854.7063	0.1541
854.8703	0.2462
855.0343	0.1281
855.1983	-0.0081
855.3623	-0
855.5262	1.6924
855.6901	1.2905
855.854	0.2684
856.0179	0.0853
856.1818	0.0618
856.3456	0.0749
856.5094	-0
856.6732	-0
856.837	-1.0138
857.0008	-0.3374
857.1645	-0
857.3282	-0.2621
857.4919	0.8071
857.6556	0.0788
857.8192	0.3264
857.9828	-0.1745
858.1465	0.2109
858.31	-0
858.4736	-0.3502
858.6372	-0.2175
858.8007	0.1468
858.9642	0.5847
859.1277	1.0662
859.2911	-0.2493
859.4546	-1.1072
859.618	0.5341
859.7814	-0
859.9448	0.3351
860.1081	0.1576
860.2715	-1.058
860.4348	0.2109
860.5981	0.145
860.7614	0.1792
860.9246	0.1707
861.0879	-0
861.2511	-0.7754
861.4143	-0
861.5774	-0.11
861.7406	-0
861.9037	-0
862.0668	-0.4745
862.2299	-0
862.393	1.6924
862.556	-0
862.7191	-0
862.8821	0.1719
863.0451	0.2813
863.208	-0.5598
863.371	-0.3374
863.5339	0.3958
863.6968	0.2726
863.8597	0.1257
864.0225	0.0664
864.1854	-0.4155
864.3482	-0
864.511	0.6371
864.6737	-0.5092
864.8365	0.2694
864.9992	0.8875
865.1619	-0.0545
865.3246	-1.6884
865.4873	-0
865.65	-0.1072
865.8126	1.087
865.9752	-0.2593
866.1378	0.499
866.3004	-0.174
866.4629	-0.6601
866.6254	-0
866.7879	-0
866.9504	-0.2455
867.1129	-0.5051
867.2753	0.0332
867.4377	-0.3048
867.6001	-0.7853
867.7625	0.3504
867.9249	0.2511
868.0872	-0
868.2495	0.6597
868.4118	-0.02
868.5741	0.2646
868.7363	-0.6227
868.8986	-0.6584
869.0608	-0
869.223	-0.309
869.3851	-0
869.5473	0.5683
869.7094	0.07
869.8715	-0.2696
870.0336	0.4434
870.1957	-0.5913
870.3577	-0
870.5197	0.4507
870.6817	-0.8315
870.8437	0.4054
871.0057	1.7625
871.1676	0.1106
871.3295	-0
871.4914	-0
871.6533	-0.5742
871.8151	0.288
871.977	-0.3345
872.1388	-0
872.3006	-0.5598
872.4623	-0.4034
872.6241	-0
872.7858	-0
872.9475	-0
873.1092	0.0546
873.2709	0.2171
873.4325	-1.7613
873.5941	-0
873.7557	-0
873.9173	0.3354
874.0789	-0
874.2404	-0
874.4019	-0.058
874.5634	-0
874.7249	-0
874.8863	-0
875.0478	-0.2909
875.2092	0.5199
875.3706	0.9756
875.5319	-0
875.6933	-0
875.8546	-0
876.0159	0.3107
876.1772	-0.2403
876.3385	-0
876.4997	0.5616
876.6609	-0
876.8221	-0.0526
876.9833	-0.3682
877.1445	0.1424
877.3056	-0.3411
877.4667	-0.9893
877.6278	-0
877.7889	-0.3055
877.9499	-0
878.111	-0.5409
878.272	-0
878.433	-0
878.5939	-0
878.7549	-0
878.9158	-0
879.0767	-0
879.2376	-0
879.3984	0.6651
879.5593	1.0829
879.7201	-1.9874
879.8809	0.0247
880.0417	0.1664
880.2024	-0.0186
880.3632	-0.2514
880.5239	-0.0528
880.6846	-0
880.8452	-0.2637
881.0059	-0
881.1665	-0.1393
881.3271	0.2382
881.4877	0.2534
881.6483	-1.0876
881.8088	-0
881.9693	-0
882.1298	-0
882.2903	-0
