Data from D4ACN5uM420nmA_Absorbance_14-37-09-026.txt Node
Date: Fri Feb 21 14:37:09 GMT 2025
User: LASERRRRR
Spectrometer: FLMT03099
Trigger mode: 0
Integration Time (sec): 1.500000E-2
Scans to average: 1
Electric dark correction enabled: true
Nonlinearity correction enabled: false
Boxcar width: 0
XAxis mode: Wavelengths
Number of Pixels in Spectrum: 3648
>>>>>Begin Spectral Data<<<<<
179.3399	-0
179.5586	-0
179.7771	-0
179.9957	-0.2496
180.2143	-0.757
180.4329	-0
180.6514	-0
180.8699	1.2288
181.0885	0.5558
181.307	0.2087
181.5255	1.1811
181.744	-0
181.9625	0.859
182.181	-0.2682
182.3994	-0.0297
182.6179	-0.4182
182.8363	-0
183.0547	1.8851
183.2732	-0.0029
183.4916	0.3338
183.71	0.3125
183.9284	0.1606
184.1467	0.3824
184.3651	-0.0074
184.5835	0.2471
184.8018	-0.0653
185.0201	0.3778
185.2385	0.4789
185.4568	0.3673
185.6751	0.1701
185.8934	0.1657
186.1117	-0.0043
186.3299	0.1931
186.5482	0.2037
186.7664	0.0499
186.9847	0.0106
187.2029	0.2527
187.4211	-0.0307
187.6393	0.1087
187.8575	0.2073
188.0757	0.3673
188.2939	0.1688
188.512	0.2066
188.7302	0.0519
188.9483	0.2205
189.1665	0.5557
189.3846	0.2062
189.6027	0.1984
189.8208	0.2374
190.0389	0.2536
190.257	0.1308
190.475	0.2043
190.6931	0.1336
190.9111	0.2206
191.1292	0.0355
191.3472	0.1159
191.5652	0.2974
191.7832	0.1245
192.0012	0.1945
192.2192	0.1305
192.4371	0.2081
192.6551	0.1269
192.873	0.1692
193.091	0.1356
193.3089	0.2573
193.5268	0.201
193.7447	0.1871
193.9626	0.1675
194.1805	0.1629
194.3984	0.2327
194.6162	0.2473
194.8341	0.1952
195.0519	0.2048
195.2697	0.2579
195.4875	0.275
195.7054	0.1988
195.9231	0.2045
196.1409	0.3577
196.3587	0.3164
196.5765	0.2475
196.7942	0.3273
197.012	0.2792
197.2297	0.2558
197.4474	0.4595
197.6651	0.3776
197.8828	0.3309
198.1005	0.4069
198.3182	0.4273
198.5358	0.4312
198.7535	0.3638
198.9711	0.3426
199.1888	0.3392
199.4064	0.4342
199.624	0.3526
199.8416	0.3218
200.0592	0.3829
200.2767	0.4047
200.4943	0.4064
200.7119	0.3763
200.9294	0.405
201.1469	0.4101
201.3645	0.4545
201.582	0.3756
201.7995	0.4081
202.017	0.4007
202.2344	0.4231
202.4519	0.3757
202.6694	0.4108
202.8868	0.3903
203.1042	0.413
203.3217	0.3804
203.5391	0.4189
203.7565	0.3679
203.9739	0.4248
204.1913	0.3517
204.4086	0.3461
204.626	0.3838
204.8433	0.3459
205.0607	0.3541
205.278	0.3434
205.4953	0.3108
205.7126	0.3426
205.9299	0.3208
206.1472	0.3276
206.3644	0.3428
206.5817	0.3094
206.7989	0.3157
207.0162	0.3166
207.2334	0.3119
207.4506	0.2827
207.6678	0.3008
207.885	0.2928
208.1022	0.2986
208.3194	0.2878
208.5365	0.2772
208.7537	0.2826
208.9708	0.2976
209.1879	0.2909
209.405	0.265
209.6222	0.2647
209.8392	0.3156
210.0563	0.2791
210.2734	0.2561
210.4905	0.2772
210.7075	0.2744
210.9245	0.2593
211.1416	0.259
211.3586	0.2654
211.5756	0.2293
211.7926	0.2539
212.0096	0.2608
212.2265	0.2706
212.4435	0.2541
212.6604	0.2358
212.8774	0.24
213.0943	0.251
213.3112	0.2515
213.5281	0.2503
213.745	0.2606
213.9619	0.2422
214.1788	0.2563
214.3956	0.2459
214.6125	0.2416
214.8293	0.2515
215.0461	0.2348
215.2629	0.2519
215.4798	0.2403
215.6965	0.2303
215.9133	0.2355
216.1301	0.2425
216.3469	0.2465
216.5636	0.2409
216.7803	0.2491
216.9971	0.2397
217.2138	0.2305
217.4305	0.2404
217.6472	0.2333
217.8639	0.2478
218.0805	0.2527
218.2972	0.2611
218.5138	0.2448
218.7305	0.2446
218.9471	0.2325
219.1637	0.2665
219.3803	0.245
219.5969	0.2359
219.8135	0.2539
220.0301	0.248
220.2466	0.2564
220.4632	0.2563
220.6797	0.2486
220.8962	0.2608
221.1127	0.2575
221.3292	0.2503
221.5457	0.271
221.7622	0.2592
221.9787	0.2785
222.1951	0.2737
222.4116	0.2809
222.628	0.2779
222.8444	0.2668
223.0608	0.271
223.2772	0.2731
223.4936	0.2727
223.71	0.2883
223.9264	0.2909
224.1427	0.284
224.3591	0.2742
224.5754	0.2837
224.7917	0.283
225.008	0.2897
225.2243	0.2894
225.4406	0.2849
225.6569	0.2993
225.8732	0.2908
226.0894	0.305
226.3057	0.301
226.5219	0.3084
226.7381	0.3163
226.9543	0.3127
227.1705	0.3081
227.3867	0.3246
227.6029	0.3291
227.8191	0.3318
228.0352	0.3411
228.2513	0.3484
228.4675	0.3299
228.6836	0.3523
228.8997	0.3307
229.1158	0.3516
229.3319	0.3524
229.548	0.3589
229.764	0.3692
229.9801	0.3584
230.1961	0.3746
230.4121	0.3634
230.6282	0.3676
230.8442	0.3835
231.0602	0.3817
231.2761	0.3815
231.4921	0.3956
231.7081	0.3896
231.924	0.3919
232.14	0.4049
232.3559	0.4088
232.5718	0.4208
232.7877	0.409
233.0036	0.407
233.2195	0.4134
233.4353	0.4189
233.6512	0.4224
233.867	0.4265
234.0829	0.4137
234.2987	0.4352
234.5145	0.4243
234.7303	0.43
234.9461	0.4489
235.1619	0.457
235.3776	0.4326
235.5934	0.4352
235.8091	0.4472
236.0249	0.4455
236.2406	0.4404
236.4563	0.4464
236.672	0.4419
236.8877	0.456
237.1034	0.4432
237.319	0.4388
237.5347	0.4521
237.7503	0.4528
237.966	0.4624
238.1816	0.448
238.3972	0.4612
238.6128	0.4611
238.8284	0.4591
239.0439	0.4624
239.2595	0.4604
239.475	0.4643
239.6906	0.467
239.9061	0.466
240.1216	0.463
240.3371	0.4631
240.5526	0.4643
240.7681	0.4607
240.9836	0.4527
241.199	0.4572
241.4145	0.4581
241.6299	0.4582
241.8453	0.4546
242.0607	0.448
242.2761	0.439
242.4915	0.4365
242.7069	0.4195
242.9223	0.4312
243.1376	0.4261
243.353	0.406
243.5683	0.399
243.7836	0.4043
243.9989	0.3874
244.2142	0.3856
244.4295	0.3847
244.6448	0.3815
244.86	0.3645
245.0753	0.3558
245.2905	0.3477
245.5057	0.3453
245.721	0.3473
245.9362	0.339
246.1514	0.3297
246.3665	0.321
246.5817	0.3164
246.7969	0.3106
247.012	0.2971
247.2271	0.3046
247.4423	0.2953
247.6574	0.2938
247.8725	0.2793
248.0876	0.2772
248.3026	0.2742
248.5177	0.2639
248.7328	0.2578
248.9478	0.2519
249.1628	0.2493
249.3779	0.2465
249.5929	0.2442
249.8079	0.2414
250.0228	0.2322
250.2378	0.2329
250.4528	0.2352
250.6677	0.2335
250.8827	0.2262
251.0976	0.2183
251.3125	0.2206
251.5274	0.2177
251.7423	0.2151
251.9572	0.2194
252.172	0.2102
252.3869	0.2098
252.6017	0.1996
252.8166	0.1991
253.0314	0.2014
253.2462	0.2046
253.461	0.195
253.6758	0.1998
253.8906	0.2012
254.1053	0.1986
254.3201	0.1941
254.5348	0.1891
254.7496	0.1892
254.9643	0.1922
255.179	0.1882
255.3937	0.1947
255.6083	0.1949
255.823	0.1892
256.0377	0.181
256.2523	0.1847
256.467	0.1903
256.6816	0.1876
256.8962	0.1889
257.1108	0.1873
257.3254	0.1881
257.54	0.1857
257.7545	0.187
257.9691	0.1865
258.1836	0.1784
258.3981	0.1834
258.6127	0.1785
258.8272	0.1848
259.0417	0.1786
259.2561	0.1837
259.4706	0.175
259.6851	0.1842
259.8995	0.1779
260.114	0.1802
260.3284	0.177
260.5428	0.1815
260.7572	0.1866
260.9716	0.1813
261.186	0.1814
261.4003	0.18
261.6147	0.1831
261.829	0.1791
262.0433	0.1839
262.2577	0.1848
262.472	0.1855
262.6863	0.1898
262.9005	0.1853
263.1148	0.183
263.3291	0.1846
263.5433	0.196
263.7576	0.1856
263.9718	0.1887
264.186	0.1905
264.4002	0.1891
264.6144	0.1959
264.8286	0.187
265.0427	0.1966
265.2569	0.1966
265.471	0.1905
265.6851	0.1931
265.8993	0.1912
266.1134	0.1939
266.3275	0.1878
266.5415	0.1965
266.7556	0.1991
266.9697	0.1922
267.1837	0.1994
267.3978	0.1943
267.6118	0.1953
267.8258	0.1941
268.0398	0.2001
268.2538	0.1971
268.4677	0.1932
268.6817	0.1933
268.8957	0.1939
269.1096	0.1898
269.3235	0.1955
269.5374	0.1918
269.7514	0.193
269.9652	0.1884
270.1791	0.191
270.393	0.1883
270.6068	0.1911
270.8207	0.1906
271.0345	0.1895
271.2483	0.1885
271.4622	0.1908
271.676	0.1958
271.8897	0.1911
272.1035	0.1944
272.3173	0.1892
272.531	0.1915
272.7448	0.1895
272.9585	0.1892
273.1722	0.1858
273.3859	0.1903
273.5996	0.197
273.8133	0.1945
274.0269	0.1873
274.2406	0.1977
274.4542	0.1954
274.6679	0.1988
274.8815	0.2017
275.0951	0.2041
275.3087	0.2088
275.5223	0.1986
275.7358	0.2002
275.9494	0.2031
276.1629	0.2061
276.3765	0.2042
276.59	0.1974
276.8035	0.2064
277.017	0.2091
277.2305	0.2072
277.444	0.2077
277.6574	0.208
277.8709	0.2162
278.0843	0.2102
278.2978	0.2087
278.5112	0.2092
278.7246	0.2067
278.938	0.2049
279.1513	0.2076
279.3647	0.2082
279.5781	0.2054
279.7914	0.2054
280.0047	0.2037
280.2181	0.1994
280.4314	0.2012
280.6447	0.206
280.8579	0.1979
281.0712	0.1966
281.2845	0.1988
281.4977	0.201
281.711	0.195
281.9242	0.1978
282.1374	0.1949
282.3506	0.1957
282.5638	0.195
282.7769	0.1932
282.9901	0.1926
283.2033	0.1945
283.4164	0.1944
283.6295	0.1929
283.8426	0.1886
284.0557	0.1953
284.2688	0.1951
284.4819	0.1879
284.695	0.1957
284.908	0.1884
285.1211	0.1951
285.3341	0.1902
285.5471	0.1923
285.7601	0.1911
285.9731	0.1865
286.1861	0.19
286.3991	0.1953
286.612	0.1943
286.825	0.1936
287.0379	0.1854
287.2508	0.189
287.4637	0.1937
287.6766	0.191
287.8895	0.1878
288.1024	0.1951
288.3152	0.1931
288.5281	0.1879
288.7409	0.1946
288.9538	0.1989
289.1666	0.1866
289.3794	0.1865
289.5922	0.1902
289.8049	0.196
290.0177	0.1881
290.2304	0.1864
290.4432	0.1964
290.6559	0.1832
290.8686	0.1896
291.0813	0.188
291.294	0.1896
291.5067	0.1873
291.7194	0.1919
291.932	0.1886
292.1447	0.1893
292.3573	0.1886
292.5699	0.1905
292.7825	0.1882
292.9951	0.1867
293.2077	0.1859
293.4203	0.1842
293.6328	0.1845
293.8454	0.1869
294.0579	0.1876
294.2704	0.193
294.4829	0.1851
294.6954	0.1905
294.9079	0.185
295.1204	0.1838
295.3328	0.1922
295.5453	0.1919
295.7577	0.1881
295.9701	0.1897
296.1825	0.1903
296.3949	0.1918
296.6073	0.186
296.8197	0.1892
297.0321	0.1886
297.2444	0.1842
297.4567	0.1865
297.6691	0.1853
297.8814	0.1863
298.0937	0.1893
298.306	0.1841
298.5182	0.1907
298.7305	0.1885
298.9428	0.1882
299.155	0.1822
299.3672	0.1892
299.5794	0.1863
299.7916	0.1865
300.0038	0.1904
300.216	0.1866
300.4282	0.1899
300.6403	0.1899
300.8525	0.1869
301.0646	0.1933
301.2767	0.1893
301.4888	0.1903
301.7009	0.1916
301.913	0.1887
302.125	0.1826
302.3371	0.1904
302.5491	0.1897
302.7612	0.1927
302.9732	0.1946
303.1852	0.192
303.3972	0.1882
303.6092	0.1921
303.8211	0.1898
304.0331	0.1844
304.245	0.1894
304.457	0.1889
304.6689	0.1875
304.8808	0.1864
305.0927	0.1871
305.3046	0.1841
305.5164	0.1823
305.7283	0.1773
305.9401	0.1796
306.152	0.1783
306.3638	0.1792
306.5756	0.1806
306.7874	0.1748
306.9992	0.1721
307.2109	0.1764
307.4227	0.1762
307.6344	0.1796
307.8462	0.1719
308.0579	0.1734
308.2696	0.1719
308.4813	0.1657
308.693	0.1683
308.9046	0.1688
309.1163	0.1651
309.328	0.1659
309.5396	0.1609
309.7512	0.1575
309.9628	0.1624
310.1744	0.1557
310.386	0.1532
310.5976	0.1554
310.8091	0.1588
311.0207	0.1565
311.2322	0.1547
311.4437	0.1478
311.6552	0.1538
311.8667	0.1554
312.0782	0.1488
312.2897	0.1572
312.5012	0.1511
312.7126	0.147
312.924	0.1509
313.1355	0.1504
313.3469	0.1502
313.5583	0.1466
313.7696	0.1384
313.981	0.1495
314.1924	0.1422
314.4037	0.1418
314.6151	0.1475
314.8264	0.1452
315.0377	0.1442
315.249	0.1476
315.4603	0.1425
315.6716	0.1437
315.8828	0.1447
316.0941	0.1451
316.3053	0.1441
316.5165	0.1463
316.7277	0.1397
316.9389	0.1435
317.1501	0.1466
317.3613	0.1424
317.5724	0.1428
317.7836	0.1356
317.9947	0.1358
318.2058	0.1383
318.417	0.1356
318.6281	0.1359
318.8391	0.1428
319.0502	0.1422
319.2613	0.1413
319.4723	0.1397
319.6834	0.1439
319.8944	0.1406
320.1054	0.1457
320.3164	0.1319
320.5274	0.1429
320.7383	0.1445
320.9493	0.1385
321.1602	0.1409
321.3712	0.1358
321.5821	0.135
321.793	0.1389
322.0039	0.1432
322.2148	0.1401
322.4257	0.1365
322.6365	0.134
322.8474	0.1423
323.0582	0.1448
323.269	0.1349
323.4798	0.1379
323.6906	0.1361
323.9014	0.1398
324.1122	0.1382
324.3229	0.1506
324.5337	0.1478
324.7444	0.1404
324.9551	0.1379
325.1658	0.1418
325.3765	0.1377
325.5872	0.1472
325.7979	0.1433
326.0085	0.1393
326.2192	0.1413
326.4298	0.1489
326.6404	0.145
326.851	0.1406
327.0616	0.1489
327.2722	0.1496
327.4828	0.1454
327.6933	0.1536
327.9039	0.15
328.1144	0.1512
328.3249	0.151
328.5354	0.1592
328.7459	0.1511
328.9564	0.1492
329.1669	0.1596
329.3773	0.1559
329.5878	0.1544
329.7982	0.1573
330.0086	0.1533
330.219	0.1537
330.4294	0.1538
330.6398	0.1538
330.8502	0.1593
331.0605	0.1581
331.2708	0.1553
331.4812	0.1503
331.6915	0.1603
331.9018	0.1589
332.1121	0.1572
332.3224	0.1592
332.5326	0.1553
332.7429	0.1548
332.9531	0.1594
333.1633	0.1533
333.3735	0.1529
333.5837	0.1533
333.7939	0.1529
334.0041	0.16
334.2143	0.1523
334.4244	0.1615
334.6346	0.159
334.8447	0.1583
335.0548	0.1635
335.2649	0.1591
335.475	0.1575
335.685	0.1552
335.8951	0.151
336.1051	0.1546
336.3152	0.1568
336.5252	0.1564
336.7352	0.1524
336.9452	0.1573
337.1552	0.1538
337.3652	0.1508
337.5751	0.1534
337.7851	0.1518
337.995	0.1609
338.2049	0.1567
338.4148	0.1618
338.6247	0.1576
338.8346	0.1499
339.0445	0.1549
339.2543	0.161
339.4642	0.1592
339.674	0.1523
339.8838	0.1566
340.0936	0.1594
340.3034	0.1527
340.5132	0.1478
340.7229	0.1541
340.9327	0.1658
341.1424	0.1616
341.3522	0.152
341.5619	0.1644
341.7716	0.156
341.9813	0.1662
342.1909	0.1609
342.4006	0.1701
342.6102	0.162
342.8199	0.168
343.0295	0.1626
343.2391	0.1667
343.4487	0.1657
343.6583	0.173
343.8679	0.1631
344.0774	0.1656
344.287	0.167
344.4965	0.1713
344.706	0.1745
344.9155	0.1787
345.125	0.1714
345.3345	0.1841
345.544	0.1732
345.7534	0.1795
345.9629	0.1774
346.1723	0.1812
346.3817	0.1768
346.5911	0.1764
346.8005	0.1786
347.0099	0.1835
347.2193	0.1825
347.4286	0.185
347.638	0.1876
347.8473	0.1849
348.0566	0.1881
348.2659	0.1876
348.4752	0.1861
348.6845	0.1893
348.8937	0.1829
349.103	0.1943
349.3122	0.1871
349.5214	0.1924
349.7306	0.1909
349.9398	0.1859
350.149	0.1851
350.3582	0.1924
350.5674	0.1966
350.7765	0.1946
350.9856	0.185
351.1948	0.187
351.4039	0.1906
351.613	0.1922
351.822	0.1943
352.0311	0.1875
352.2402	0.1927
352.4492	0.1886
352.6582	0.1892
352.8672	0.1887
353.0762	0.1908
353.2852	0.1889
353.4942	0.1958
353.7032	0.1898
353.9121	0.1931
354.1211	0.1967
354.33	0.1941
354.5389	0.1859
354.7478	0.1872
354.9567	0.1873
355.1655	0.193
355.3744	0.1841
355.5833	0.1876
355.7921	0.1923
356.0009	0.1907
356.2097	0.1803
356.4185	0.1909
356.6273	0.1874
356.8361	0.1908
357.0448	0.1905
357.2536	0.1873
357.4623	0.1953
357.671	0.1914
357.8797	0.192
358.0884	0.1876
358.2971	0.1873
358.5057	0.193
358.7144	0.1868
358.923	0.1922
359.1316	0.1915
359.3402	0.1887
359.5488	0.1951
359.7574	0.1983
359.966	0.1982
360.1746	0.1971
360.3831	0.2016
360.5916	0.2017
360.8002	0.2039
361.0087	0.196
361.2172	0.2019
361.4256	0.1982
361.6341	0.2055
361.8426	0.2007
362.051	0.2101
362.2594	0.1989
362.4678	0.1985
362.6762	0.202
362.8846	0.2036
363.093	0.2027
363.3014	0.2077
363.5097	0.2072
363.718	0.2053
363.9264	0.2159
364.1347	0.2142
364.343	0.2034
364.5513	0.2132
364.7595	0.2111
364.9678	0.2096
365.176	0.2111
365.3842	0.212
365.5925	0.2099
365.8007	0.2052
366.0089	0.2202
366.217	0.2157
366.4252	0.2174
366.6333	0.2186
366.8415	0.2199
367.0496	0.2264
367.2577	0.218
367.4658	0.2127
367.6739	0.214
367.882	0.2228
368.09	0.2116
368.2981	0.2298
368.5061	0.2252
368.7141	0.2212
368.9221	0.2324
369.1301	0.2209
369.3381	0.2347
369.5461	0.2262
369.754	0.2362
369.962	0.2285
370.1699	0.2266
370.3778	0.2378
370.5857	0.2274
370.7936	0.2327
371.0015	0.2282
371.2093	0.237
371.4172	0.2277
371.625	0.2287
371.8328	0.2271
372.0406	0.2408
372.2484	0.2306
372.4562	0.2439
372.664	0.2364
372.8717	0.2316
373.0795	0.2478
373.2872	0.2412
373.4949	0.2379
373.7026	0.2349
373.9103	0.236
374.118	0.2424
374.3256	0.2446
374.5333	0.2359
374.7409	0.2304
374.9485	0.2446
375.1561	0.2435
375.3637	0.24
375.5713	0.247
375.7789	0.2433
375.9864	0.2417
376.194	0.2566
376.4015	0.2476
376.609	0.2445
376.8165	0.2531
377.024	0.249
377.2315	0.2409
377.4389	0.2483
377.6464	0.2581
377.8538	0.252
378.0612	0.2601
378.2686	0.2508
378.476	0.2628
378.6834	0.2512
378.8908	0.2529
379.0981	0.2451
379.3055	0.2505
379.5128	0.2581
379.7201	0.2602
379.9274	0.2525
380.1347	0.2577
380.342	0.263
380.5492	0.2602
380.7565	0.2514
380.9637	0.2531
381.1709	0.252
381.3781	0.2643
381.5853	0.26
381.7925	0.2576
381.9997	0.2637
382.2068	0.2616
382.4139	0.2566
382.6211	0.2639
382.8282	0.2688
383.0353	0.259
383.2424	0.2665
383.4494	0.2665
383.6565	0.2674
383.8635	0.2655
384.0706	0.2757
384.2776	0.2603
384.4846	0.2653
384.6916	0.2668
384.8986	0.2726
385.1055	0.2788
385.3125	0.273
385.5194	0.2656
385.7263	0.268
385.9333	0.2724
386.1402	0.2644
386.347	0.2688
386.5539	0.2635
386.7608	0.2774
386.9676	0.2637
387.1744	0.2658
387.3813	0.2659
387.5881	0.2543
387.7948	0.2751
388.0016	0.2796
388.2084	0.2598
388.4151	0.2693
388.6219	0.2544
388.8286	0.2592
389.0353	0.2704
389.242	0.2642
389.4487	0.2511
389.6553	0.2519
389.862	0.2569
390.0686	0.2743
390.2753	0.2633
390.4819	0.2632
390.6885	0.2596
390.8951	0.251
391.1016	0.2604
391.3082	0.2611
391.5147	0.2504
391.7213	0.2509
391.9278	0.251
392.1343	0.2542
392.3408	0.2547
392.5473	0.2499
392.7537	0.2485
392.9602	0.2455
393.1666	0.2433
393.373	0.2426
393.5794	0.244
393.7858	0.2354
393.9922	0.2445
394.1986	0.2351
394.4049	0.2365
394.6113	0.2398
394.8176	0.2428
395.0239	0.2371
395.2302	0.245
395.4365	0.2458
395.6428	0.24
395.8491	0.2354
396.0553	0.2327
396.2615	0.2325
396.4678	0.2367
396.674	0.2325
396.8802	0.2309
397.0863	0.2254
397.2925	0.2399
397.4987	0.227
397.7048	0.2345
397.9109	0.2271
398.117	0.2217
398.3231	0.2291
398.5292	0.2243
398.7353	0.2264
398.9413	0.2317
399.1474	0.2248
399.3534	0.2263
399.5594	0.2222
399.7654	0.2262
399.9714	0.2244
400.1774	0.2235
400.3833	0.2284
400.5893	0.2152
400.7952	0.2251
401.0011	0.2283
401.207	0.211
401.4129	0.2287
401.6188	0.2127
401.8247	0.2311
402.0305	0.2268
402.2364	0.2319
402.4422	0.2344
402.648	0.2235
402.8538	0.2161
403.0596	0.2206
403.2654	0.2191
403.4711	0.2271
403.6768	0.2267
403.8826	0.2325
404.0883	0.2246
404.294	0.234
404.4997	0.2216
404.7054	0.2189
404.911	0.2144
405.1167	0.2262
405.3223	0.2282
405.5279	0.224
405.7335	0.213
405.9391	0.224
406.1447	0.2306
406.3502	0.2216
406.5558	0.2165
406.7613	0.216
406.9668	0.2192
407.1724	0.2222
407.3778	0.2246
407.5833	0.2182
407.7888	0.2303
407.9942	0.2101
408.1997	0.2269
408.4051	0.2257
408.6105	0.2272
408.8159	0.2242
409.0213	0.2279
409.2267	0.2269
409.432	0.2278
409.6374	0.2224
409.8427	0.2275
410.048	0.2199
410.2533	0.2157
410.4586	0.2182
410.6639	0.2364
410.8691	0.2114
411.0744	0.2209
411.2796	0.2331
411.4848	0.2268
411.69	0.2106
411.8952	0.2247
412.1004	0.2098
412.3056	0.2146
412.5107	0.2257
412.7158	0.2281
412.921	0.2215
413.1261	0.2219
413.3312	0.2243
413.5362	0.233
413.7413	0.2136
413.9464	0.1985
414.1514	0.2164
414.3564	0.21
414.5614	0.2132
414.7664	0.2138
414.9714	0.208
415.1764	0.2138
415.3813	0.2156
415.5863	0.2249
415.7912	0.2184
415.9961	0.2173
416.201	0.2222
416.4059	0.2179
416.6108	0.2131
416.8156	0.2148
417.0205	0.2181
417.2253	0.2144
417.4301	0.2185
417.6349	0.2207
417.8397	0.2053
418.0445	0.2139
418.2492	0.2148
418.454	0.2227
418.6587	0.2229
418.8634	0.2072
419.0681	0.21
419.2728	0.2097
419.4775	0.2139
419.6822	0.202
419.8868	0.2039
420.0915	0.2015
420.2961	0.1914
420.5007	0.2063
420.7053	0.1981
420.9099	0.2049
421.1144	0.2031
421.319	0.1973
421.5235	0.1992
421.728	0.2163
421.9325	0.2088
422.137	0.2028
422.3415	0.1956
422.546	0.1951
422.7504	0.2054
422.9549	0.2029
423.1593	0.1934
423.3637	0.1966
423.5681	0.1972
423.7725	0.1933
423.9769	0.1995
424.1812	0.193
424.3856	0.1905
424.5899	0.1847
424.7942	0.1889
424.9985	0.1955
425.2028	0.2093
425.4071	0.1906
425.6113	0.1889
425.8156	0.1812
426.0198	0.1926
426.224	0.1927
426.4282	0.1854
426.6324	0.1803
426.8366	0.1868
427.0407	0.1825
427.2449	0.1785
427.449	0.1783
427.6531	0.1805
427.8572	0.1792
428.0613	0.1825
428.2654	0.1831
428.4694	0.1657
428.6735	0.1712
428.8775	0.1769
429.0815	0.1697
429.2855	0.1687
429.4895	0.1708
429.6935	0.1757
429.8975	0.1618
430.1014	0.1671
430.3053	0.1634
430.5093	0.1621
430.7132	0.1539
430.9171	0.1577
431.1209	0.1667
431.3248	0.1544
431.5286	0.15
431.7325	0.168
431.9363	0.1551
432.1401	0.1467
432.3439	0.1515
432.5477	0.1458
432.7514	0.1473
432.9552	0.1493
433.1589	0.139
433.3627	0.1431
433.5664	0.1452
433.7701	0.1461
433.9737	0.1462
434.1774	0.1385
434.3811	0.1287
434.5847	0.1329
434.7883	0.1291
434.9919	0.1353
435.1955	0.1378
435.3991	0.1349
435.6027	0.1297
435.8062	0.1428
436.0098	0.121
436.2133	0.1242
436.4168	0.1253
436.6203	0.1226
436.8238	0.1241
437.0272	0.1207
437.2307	0.1205
437.4341	0.1151
437.6375	0.1177
437.841	0.1094
438.0443	0.1188
438.2477	0.0994
438.4511	0.0964
438.6545	0.1084
438.8578	0.1135
439.0611	0.1131
439.2644	0.1029
439.4677	0.1054
439.671	0.1008
439.8743	0.1107
440.0775	0.1003
440.2808	0.0989
440.484	0.0998
440.6872	0.0897
440.8904	0.0815
441.0936	0.102
441.2967	0.0823
441.4999	0.087
441.703	0.0793
441.9062	0.0878
442.1093	0.0904
442.3124	0.0855
442.5155	0.0863
442.7185	0.0777
442.9216	0.0873
443.1246	0.0823
443.3276	0.0793
443.5307	0.0728
443.7337	0.0863
443.9366	0.0787
444.1396	0.0731
444.3426	0.0753
444.5455	0.0717
444.7484	0.0676
444.9513	0.0668
445.1542	0.0755
445.3571	0.0693
445.56	0.0619
445.7628	0.0631
445.9657	0.0695
446.1685	0.0728
446.3713	0.0656
446.5741	0.0669
446.7769	0.0675
446.9797	0.0582
447.1824	0.0558
447.3852	0.0472
447.5879	0.055
447.7906	0.0545
447.9933	0.0631
448.196	0.0455
448.3986	0.0503
448.6013	0.0515
448.8039	0.056
449.0066	0.0554
449.2092	0.0528
449.4118	0.0557
449.6143	0.0585
449.8169	0.0351
450.0195	0.0463
450.222	0.0488
450.4245	0.0451
450.627	0.0466
450.8295	0.05
451.032	0.0396
451.2345	0.0409
451.4369	0.0409
451.6394	0.0467
451.8418	0.0366
452.0442	0.0493
452.2466	0.031
452.449	0.0318
452.6513	0.033
452.8537	0.0302
453.056	0.0311
453.2583	0.029
453.4607	0.0301
453.663	0.0343
453.8652	0.0323
454.0675	0.0349
454.2697	0.0242
454.472	0.0322
454.6742	0.0369
454.8764	0.0321
455.0786	0.0345
455.2808	0.0216
455.4829	0.0258
455.6851	0.0411
455.8872	0.0249
456.0893	0.0255
456.2915	0.0204
456.4935	0.0385
456.6956	0.0278
456.8977	0.0228
457.0997	0.0283
457.3018	0.02
457.5038	0.0272
457.7058	0.0313
457.9078	0.0316
458.1098	0.0252
458.3117	0.0222
458.5137	0.0148
458.7156	0.025
458.9175	0.0236
459.1194	0.0149
459.3213	0.016
459.5232	0.0296
459.725	0.0255
459.9269	0.0217
460.1287	0.0214
460.3305	0.0287
460.5323	0.024
460.7341	0.0181
460.9359	0.0082
461.1376	0.0128
461.3394	0.0126
461.5411	0.0196
461.7428	0.0232
461.9445	0.0136
462.1462	0.0145
462.3479	0.0178
462.5495	0.0252
462.7512	0.0333
462.9528	0.0172
463.1544	0.0103
463.356	0.0162
463.5576	0.0224
463.7592	0.0086
463.9607	0.0099
464.1623	0.0087
464.3638	0.0176
464.5653	0.0133
464.7668	0.0208
464.9683	0.0112
465.1697	0.0077
465.3712	0.0045
465.5726	0.0096
465.7741	0.0229
465.9755	0.0142
466.1769	0.0136
466.3782	0.0031
466.5796	0.0149
466.7809	0.0181
466.9823	0.0071
467.1836	0.0078
467.3849	0.0093
467.5862	0.0002
467.7875	0.0109
467.9887	0.009
468.19	0.0209
468.3912	0.0146
468.5924	0.0023
468.7936	0.0134
468.9948	0.0091
469.196	0.0093
469.3972	-0.0023
469.5983	0.0085
469.7994	0.011
470.0006	0.0112
470.2017	0.0092
470.4027	0.0291
470.6038	0.0005
470.8049	0.0084
471.0059	0.018
471.2069	0.0109
471.408	0.0108
471.6089	0.0032
471.8099	0.0049
472.0109	0.0146
472.2119	0.0144
472.4128	0.0017
472.6137	0.0072
472.8146	0.0145
473.0155	0.0162
473.2164	0.0086
473.4173	-0.0029
473.6181	0.0021
473.819	0.0096
474.0198	0.0053
474.2206	-0.0002
474.4214	0.0108
474.6222	-0.0017
474.8229	0.0065
475.0237	0.0117
475.2244	0.0132
475.4251	0.0062
475.6258	-0.0065
475.8265	0.0152
476.0272	0.0073
476.2278	0.0057
476.4285	0.0027
476.6291	0.0063
476.8297	0.0061
477.0303	0.0108
477.2309	0.0111
477.4315	0.0067
477.632	-0.0011
477.8326	0.0054
478.0331	0.0142
478.2336	0.0089
478.4341	0.0101
478.6346	-0.0019
478.8351	0.012
479.0355	0.0126
479.236	0.0118
479.4364	0.0063
479.6368	0.0036
479.8372	0.006
480.0376	0.0105
480.2379	0.006
480.4383	0.0099
480.6386	0.0015
480.8389	0.0015
481.0392	0.004
481.2395	0.0117
481.4398	0.0102
481.6401	0.005
481.8403	0.0046
482.0405	0.0002
482.2408	-0.0007
482.441	0.0085
482.6411	0.0059
482.8413	0.0017
483.0415	0.0046
483.2416	0.0104
483.4417	0.0059
483.6419	-0.0034
483.8419	0.0041
484.042	-0.0024
484.2421	0.0012
484.4422	0.0059
484.6422	0.0036
484.8422	0.0105
485.0422	0.0077
485.2422	0.003
485.4422	0.0052
485.6422	0.0019
485.8421	0.0013
486.042	0.0126
486.242	-0.0007
486.4419	0.0083
486.6417	0.0033
486.8416	0.0075
487.0415	0.0006
487.2413	-0.0027
487.4411	0.0069
487.641	0.0036
487.8408	0.004
488.0405	0.0098
488.2403	0.0006
488.4401	-0.0021
488.6398	0.0077
488.8395	0.0038
489.0392	0.0039
489.2389	0.011
489.4386	-0.0018
489.6383	0.0105
489.8379	0.002
490.0376	0.0022
490.2372	0.0012
490.4368	-0.0012
490.6364	-0.0013
490.836	0.0003
491.0355	-0.0005
491.2351	0.0037
491.4346	0.0117
491.6341	-0.005
491.8336	0.0115
492.0331	0.0004
492.2326	0.0056
492.432	0.007
492.6315	0.0039
492.8309	0.0006
493.0303	-0.0102
493.2297	0.0075
493.4291	-0.0019
493.6284	0.0091
493.8278	-0.0038
494.0271	0.0015
494.2264	-0.0014
494.4257	0.0124
494.625	0.001
494.8243	-0.0067
495.0236	0.0014
495.2228	0.0061
495.422	0.0058
495.6213	0.002
495.8205	0.007
496.0196	0.0039
496.2188	0.0056
496.418	-0.0008
496.6171	-0.0027
496.8162	0.0043
497.0153	0.0008
497.2144	-0.0011
497.4135	0.0036
497.6126	-0.0014
497.8116	0.0023
498.0107	0.0018
498.2097	-0.0035
498.4087	0.0027
498.6077	-0.0043
498.8067	0.0074
499.0056	-0.0062
499.2046	0.0015
499.4035	0.0011
499.6024	-0.009
499.8013	0.0018
500.0002	0.0043
500.199	0.0121
500.3979	-0.0072
500.5967	-0.0002
500.7956	0.0022
500.9944	0.0051
501.1932	0.0085
501.3919	0.008
501.5907	0.0051
501.7895	-0.0024
501.9882	0.0025
502.1869	0.0114
502.3856	0.0082
502.5843	0.0017
502.783	-0.0034
502.9816	0.0113
503.1803	-0.0041
503.3789	0.0085
503.5775	0.0107
503.7761	0.0002
503.9747	0.0018
504.1732	-0.0067
504.3718	0.0146
504.5703	0.0017
504.7689	-0.0038
504.9674	0.0018
505.1658	-0.0066
505.3643	0.0032
505.5628	0.0129
505.7612	0.005
505.9597	-0.0068
506.1581	-0.0005
506.3565	0.0009
506.5549	-0.0026
506.7532	-0.0058
506.9516	0.0035
507.1499	0.0041
507.3482	-0.0026
507.5465	0.0011
507.7448	0.0004
507.9431	-0.0035
508.1414	-0.0092
508.3396	0.0022
508.5379	-0.0012
508.7361	0.0012
508.9343	-0.0002
509.1325	0.0075
509.3306	-0.0031
509.5288	-0.0073
509.7269	0.0019
509.9251	0.0112
510.1232	0.0018
510.3213	0.004
510.5193	-0.0054
510.7174	-0.0037
510.9154	-0.0004
511.1135	-0.006
511.3115	-0.0048
511.5095	0.0027
511.7075	-0.0038
511.9055	-0.001
512.1034	-0.0011
512.3014	-0.0006
512.4993	0.0065
512.6972	-0.0027
512.8951	0.0003
513.093	0.0043
513.2908	0.0037
513.4887	-0.003
513.6865	0.0021
513.8844	0.0004
514.0822	0.0049
514.2799	-0.0048
514.4777	-0.0082
514.6755	-0.0013
514.8732	-0.001
515.0709	-0.0027
515.2687	-0.004
515.4664	0.0067
515.664	-0.0037
515.8617	0.003
516.0594	0.0006
516.257	-0.0011
516.4546	0.0022
516.6522	-0.0099
516.8498	-0.0022
517.0474	-0.0076
517.2449	-0.0031
517.4425	0.0051
517.64	0.0022
517.8375	0.0034
518.035	0.0003
518.2325	-0.0161
518.43	-0.0032
518.6274	-0.0037
518.8249	-0.0109
519.0223	0.0053
519.2197	0.0011
519.4171	-0.0041
519.6145	-0.0001
519.8118	-0.0085
520.0092	-0.0117
520.2065	0.0122
520.4038	-0.0043
520.6011	0.0094
520.7984	-0.0003
520.9956	-0.0015
521.1929	0.0023
521.3901	0.0014
521.5874	-0.0042
521.7846	-0.0179
521.9818	-0.0074
522.1789	-0.0137
522.3761	0.0034
522.5732	-0.0017
522.7704	-0.0034
522.9675	-0.015
523.1646	-0.0116
523.3617	0.005
523.5587	-0.0089
523.7558	0.0003
523.9528	0.0034
524.1498	-0.0022
524.3468	-0.0014
524.5438	-0.0062
524.7408	-0.003
524.9378	0.001
525.1347	0.0058
525.3316	-0.0037
525.5285	-0.0029
525.7254	-0.0023
525.9223	0.0094
526.1192	0.0067
526.316	0.0094
526.5129	0.0012
526.7097	-0.0054
526.9065	-0.0007
527.1033	0.0086
527.3	-0.012
527.4968	-0.003
527.6935	-0.0063
527.8903	-0.0013
528.087	-0.0052
528.2837	0.0034
528.4804	-0.0035
528.677	0.0034
528.8737	-0.0036
529.0703	-0.006
529.2669	0.0045
529.4635	0
529.6601	-0.0119
529.8567	-0.0106
530.0532	-0.0052
530.2498	-0.0023
530.4463	-0.0099
530.6428	-0.0021
530.8393	0.0097
531.0358	-0.0063
531.2322	-0.002
531.4287	-0.0072
531.6251	-0.0043
531.8215	-0.0015
532.0179	0.0081
532.2143	-0.0002
532.4107	0.0063
532.607	-0.0048
532.8034	-0.0028
532.9997	-0.0134
533.196	0.0002
533.3923	0.0008
533.5886	0.0062
533.7848	-0.0036
533.9811	0.0032
534.1773	-0.0041
534.3735	0.0054
534.5697	-0.0001
534.7659	0.0032
534.9621	0.0039
535.1582	0.0031
535.3544	0.0107
535.5505	-0.0013
535.7466	0.0015
535.9427	0.0004
536.1387	-0.0038
536.3348	0.0086
536.5308	-0.0042
536.7269	-0.0099
536.9229	0.0017
537.1189	0.0104
537.3148	0.0094
537.5108	0.0056
537.7068	0.0025
537.9027	-0.0088
538.0986	0.0018
538.2945	-0.0025
538.4904	-0.0036
538.6863	-0.0037
538.8821	0.0018
539.078	0.0037
539.2738	0.0011
539.4696	-0.0088
539.6654	-0.0008
539.8611	0
540.0569	-0.0016
540.2526	0.007
540.4484	-0.0049
540.6441	0.006
540.8398	0.0039
541.0355	-0.0012
541.2311	-0.0046
541.4268	0.0045
541.6224	0.0062
541.818	0.0036
542.0136	0.0015
542.2092	0.0064
542.4048	0.0014
542.6003	0.0008
542.7959	0.0074
542.9914	-0.0021
543.1869	-0.003
543.3824	0.0021
543.5779	0.0124
543.7734	0.0091
543.9688	0.0033
544.1642	-0.0037
544.3596	0.0092
544.555	0.0016
544.7504	0.0079
544.9458	0.006
545.1411	-0.0044
545.3365	0.0026
545.5318	-0.0007
545.7271	0.0041
545.9224	-0.0028
546.1177	0.004
546.3129	0.0035
546.5081	-0.01
546.7034	-0.0032
546.8986	-0.0061
547.0938	0.0016
547.289	0.0061
547.4841	0.0064
547.6793	-0.0036
547.8744	0.0148
548.0695	-0.0069
548.2646	0.0041
548.4597	0.0003
548.6548	0.0108
548.8498	0.0065
549.0448	-0.0001
549.2399	0.0141
549.4349	0.006
549.6298	0.0078
549.8248	-0.0013
550.0198	0.0037
550.2147	0.0007
550.4096	-0.0061
550.6045	-0.0018
550.7994	0.001
550.9943	0.0101
551.1892	-0.0211
551.384	0.0046
551.5788	0.0023
551.7737	0.0097
551.9685	0.0107
552.1632	0.0101
552.358	0.01
552.5528	0.0024
552.7475	0.0087
552.9422	0.009
553.1369	0.0098
553.3316	0.0147
553.5263	0.0088
553.7209	-0.0008
553.9156	-0.0016
554.1102	-0.0003
554.3048	-0.0013
554.4994	-0.0011
554.694	0.0102
554.8885	0.0019
555.0831	0.007
555.2776	-0.004
555.4721	0.0092
555.6666	-0.0001
555.8611	0.0052
556.0555	0.0034
556.25	-0.0019
556.4444	-0.0006
556.6388	-0.0076
556.8332	0.0044
557.0276	0.0115
557.222	-0.0082
557.4163	-0.0064
557.6107	0.0041
557.805	-0.0093
557.9993	-0.0009
558.1936	-0.0084
558.3879	-0.0044
558.5821	-0.0007
558.7764	-0.0004
558.9706	-0.0041
559.1648	-0.0041
559.359	0.004
559.5532	0.0065
559.7473	-0.0051
559.9415	0.009
560.1356	0.0115
560.3297	-0.0061
560.5238	0.0102
560.7179	0.0021
560.9119	0.008
561.106	-0.0079
561.3	0.0085
561.494	-0.0126
561.688	0.0038
561.882	0.0026
562.076	0.0033
562.2699	0.0131
562.4639	0.0194
562.6578	0.0169
562.8517	0.0106
563.0456	-0.0001
563.2395	0.0061
563.4333	0.0027
563.6272	0.0007
563.821	-0.0004
564.0148	0.0027
564.2086	0.0012
564.4024	0.015
564.5961	0.0106
564.7899	0.0168
564.9836	0.0024
565.1773	0.008
565.371	0.0008
565.5647	-0.0009
565.7584	0.0139
565.952	0.009
566.1456	0.0019
566.3393	0.003
566.5329	-0.0009
566.7264	0.0026
566.92	0.0129
567.1136	0.0085
567.3071	-0.0017
567.5006	0.0083
567.6941	0.0028
567.8876	0.005
568.0811	0.0162
568.2745	0.0015
568.468	0.0078
568.6614	0.011
568.8548	0.0092
569.0482	0.0036
569.2416	0.007
569.4349	0.0092
569.6283	0.0047
569.8216	0.006
570.0149	0.0051
570.2082	0.0121
570.4015	0.0036
570.5947	0.0073
570.788	0.0076
570.9812	0.0028
571.1744	0.0048
571.3676	0.0065
571.5608	0.007
571.754	0.0141
571.9471	0.0138
572.1402	0.0088
572.3333	0.0086
572.5264	0.0068
572.7195	0.0028
572.9126	0.0019
573.1057	0.007
573.2987	0.0106
573.4917	0.0054
573.6847	0.0049
573.8777	0.0107
574.0707	0.0061
574.2636	0.0084
574.4566	0.0051
574.6495	0.0047
574.8424	0.0119
575.0353	0.0102
575.2281	0.0136
575.421	0.0043
575.6138	0.0031
575.8067	0.0072
575.9995	0.0054
576.1923	0.0115
576.385	0.0102
576.5778	0.011
576.7706	0.0095
576.9633	0.0103
577.156	-0.0023
577.3487	0.008
577.5414	0.0044
577.734	0.0078
577.9267	0.0065
578.1193	0.0125
578.3119	0.0052
578.5045	0.0067
578.6971	0.0022
578.8897	0.0093
579.0822	0.0109
579.2747	0.0086
579.4673	0.0081
579.6598	0.0089
579.8522	0.0071
580.0447	0.0105
580.2372	0.0113
580.4296	0.0089
580.622	0.0051
580.8144	0.009
581.0068	0.0082
581.1992	0.0064
581.3915	0.0002
581.5839	0.0093
581.7762	0.007
581.9685	0.0058
582.1608	0.0113
582.353	0.0103
582.5453	0.0076
582.7375	0.0081
582.9298	0.0025
583.122	0.0099
583.3142	0.0121
583.5063	0.0077
583.6985	0.0037
583.8906	0.0046
584.0827	0.0067
584.2749	0.0069
584.4669	0.0037
584.659	0.0102
584.8511	0.0097
585.0431	0.0099
585.2352	0.0074
585.4272	0.0096
585.6192	0.0083
585.8111	0.0049
586.0031	0.0029
586.195	0.0059
586.387	0.0057
586.5789	0.0131
586.7708	0.0095
586.9627	0.0067
587.1545	0.009
587.3464	0.0051
587.5382	0.0051
587.73	0.0092
587.9218	0.0031
588.1136	0.0003
588.3053	0.0079
588.4971	0.0048
588.6888	0.0091
588.8805	0.0056
589.0722	0.0122
589.2639	0.0045
589.4556	0.0077
589.6472	0.0102
589.8389	0.0049
590.0305	0.0003
590.2221	0.0117
590.4137	0.0045
590.6052	0.005
590.7968	0.0113
590.9883	0.0114
591.1798	0.007
591.3713	0.0019
591.5628	0.0065
591.7543	0.0058
591.9458	0.0048
592.1372	0.0063
592.3286	0.0055
592.52	0.0095
592.7114	0.0081
592.9028	0.0124
593.0941	0.0024
593.2855	0.0109
593.4768	0.0128
593.6681	0.0121
593.8594	0.0086
594.0506	0.0034
594.2419	0.007
594.4331	0.008
594.6244	0.0047
594.8156	0.008
595.0067	0.0002
595.1979	0.0039
595.3891	0.0028
595.5802	0.0106
595.7713	0.0102
595.9624	0.0128
596.1535	0.0158
596.3446	0.0011
596.5357	0.008
596.7267	0.0017
596.9177	0.004
597.1087	0.0091
597.2997	0.008
597.4907	0.0071
597.6817	0.01
597.8726	0.0099
598.0635	0.0008
598.2544	0.0078
598.4453	0.0036
598.6362	0.0071
598.827	0.0099
599.0179	0.0064
599.2087	0.0098
599.3995	0.0089
599.5903	0.0135
599.7811	0.0129
599.9718	0.006
600.1626	0.0043
600.3533	0.0067
600.544	0.0047
600.7347	0.0078
600.9254	0.0099
601.116	0.0073
601.3067	0.0054
601.4973	0.0138
601.6879	0.0073
601.8785	0.0097
602.0691	0.0066
602.2596	0.013
602.4502	0.0071
602.6407	0.0092
602.8312	0.0085
603.0217	0.0022
603.2122	0.0045
603.4027	0.0044
603.5931	0.0061
603.7835	0.0091
603.9739	0.0069
604.1643	0.0105
604.3547	0.0077
604.5451	0.0097
604.7354	0.0016
604.9257	0.0086
605.116	-0.0016
605.3063	0.0077
605.4966	0.007
605.6869	0.0079
605.8771	0.0122
606.0673	0.0052
606.2575	0.0058
606.4477	0.0123
606.6379	0.0072
606.8281	0.0065
607.0182	0.0031
607.2083	0.0068
607.3985	0.0071
607.5885	0.0043
607.7786	0.0105
607.9687	0.009
608.1587	0.009
608.3488	0.0013
608.5388	0.0019
608.7288	-0.0005
608.9187	0.0066
609.1087	0.0132
609.2986	0.0095
609.4886	0.0072
609.6785	0.0051
609.8684	0.0069
610.0582	0.0013
610.2481	-0.0016
610.4379	0.0036
610.6278	0.0025
610.8176	0.0084
611.0074	0.0086
611.1971	0.0077
611.3869	0.0067
611.5766	0.005
611.7664	0.011
611.9561	0.0112
612.1458	0.0074
612.3354	0.005
612.5251	0.0033
612.7147	0.0102
612.9044	0.002
613.094	0.0102
613.2836	0.0068
613.4731	0.007
613.6627	0.007
613.8522	0.0123
614.0417	0.0101
614.2313	0.0059
614.4207	0.0089
614.6102	0.0077
614.7997	0.0136
614.9891	0.0091
615.1785	0.0018
615.3679	0.0139
615.5573	0.0054
615.7467	0.0086
615.9361	0.002
616.1254	0.0128
616.3147	0.0055
616.504	0.0011
616.6933	0.0027
616.8826	0.0067
617.0718	0.0067
617.2611	0.0027
617.4503	0.0049
617.6395	0.0057
617.8287	0.0148
618.0179	0.0057
618.207	0.0144
618.3961	-0.0006
618.5853	0.0046
618.7744	0.0083
618.9634	0.0109
619.1525	0.0015
619.3416	0.0017
619.5306	0.0111
619.7196	0.0149
619.9086	0.0055
620.0976	-0.0029
620.2866	0.0093
620.4755	0.0045
620.6645	0.0182
620.8534	0.0089
621.0423	-0.0018
621.2312	-0.0025
621.42	0.0057
621.6089	0.0041
621.7977	0.0049
621.9865	0.0043
622.1753	0.0022
622.3641	0.0013
622.5529	0.0017
622.7416	-0.0041
622.9303	-0.0029
623.1191	0.0119
623.3078	0.0003
623.4964	0.0083
623.6851	0.0075
623.8737	-0.0002
624.0624	-0.0121
624.251	0.009
624.4396	0.0086
624.6282	0.0128
624.8167	0
625.0053	0.0202
625.1938	0.0056
625.3823	0.0039
625.5708	-0.0001
625.7593	0.005
625.9477	0.0069
626.1362	0.0092
626.3246	0.0048
626.513	0.0103
626.7014	0.0055
626.8898	0.0171
627.0781	0.0032
627.2665	0.0203
627.4548	-0.0002
627.6431	-0.0022
627.8314	0.0148
628.0197	0.0173
628.2079	0.0089
628.3962	0.006
628.5844	0.004
628.7726	0.0059
628.9608	0.0097
629.1489	0.0146
629.3371	-0.001
629.5252	0.0003
629.7134	0.0017
629.9015	0.0142
630.0895	0.0028
630.2776	0.0064
630.4657	0.0225
630.6537	0.0013
630.8417	-0.0017
631.0297	-0.0038
631.2177	0.0154
631.4057	-0.0001
631.5936	0.0006
631.7815	0.0115
631.9695	0.0243
632.1574	0.0093
632.3452	0.0165
632.5331	0.0041
632.7209	0.0037
632.9088	0.0048
633.0966	0.0188
633.2844	0.0138
633.4722	-0.0015
633.6599	0.0259
633.8477	0.0139
634.0354	0.0126
634.2231	-0.0073
634.4108	0.0088
634.5985	0.018
634.7861	-0.0005
634.9738	-0.0044
635.1614	0.0012
635.349	0.0023
635.5366	-0.0037
635.7242	0.0061
635.9117	0.0062
636.0993	0.0164
636.2868	0.002
636.4743	0.0082
636.6618	0.0027
636.8492	0.0134
637.0367	-0.0013
637.2241	0.005
637.4115	0.0241
637.5989	-0.0047
637.7863	0.0141
637.9737	-0.0045
638.161	0.0093
638.3484	0.0068
638.5357	0.0146
638.723	0.0197
638.9103	-0.0066
639.0975	0.0129
639.2848	0.0111
639.472	0.0125
639.6592	-0.0153
639.8464	0.0012
640.0336	0.0046
640.2208	-0.0048
640.4079	-0.0087
640.595	-0.0071
640.7821	0.0127
640.9692	-0.0088
641.1563	0.0084
641.3434	0.0194
641.5304	0.0054
641.7174	0.0131
641.9044	0.0005
642.0914	0.0219
642.2784	-0.0032
642.4653	-0.0067
642.6523	0.0188
642.8392	0.0005
643.0261	0.0243
643.213	0.0217
643.3999	0.0138
643.5867	0.005
643.7735	0.0039
643.9604	0.0358
644.1472	0.0044
644.3339	-0.0013
644.5207	0.0022
644.7075	-0.0002
644.8942	-0.0006
645.0809	-0.0184
645.2676	0.0084
645.4543	-0.0078
645.6409	0.0195
645.8276	0.0074
646.0142	0.0014
646.2008	-0.0048
646.3874	-0.0068
646.574	-0.0005
646.7605	-0.0077
646.9471	-0.0027
647.1336	0.0035
647.3201	0.0217
647.5066	0.0103
647.6931	-0.0094
647.8795	0.0012
648.0659	-0.0098
648.2524	0
648.4388	0.0021
648.6252	0.011
648.8115	0.0048
648.9979	0.0188
649.1842	-0.0008
649.3705	0.0095
649.5568	-0.0244
649.7431	-0.0049
649.9294	0.006
650.1156	-0.0105
650.3018	0.0101
650.488	-0.0017
650.6742	0.0072
650.8604	0.005
651.0466	0.0132
651.2327	0.0144
651.4188	0.0046
651.6049	0.0239
651.791	0.0161
651.9771	0.0198
652.1632	0.0222
652.3492	0.0014
652.5352	0.0116
652.7212	0.0014
652.9072	-0.002
653.0932	0.0058
653.2791	0.0003
653.465	0.0083
653.651	0.0115
653.8369	0.0161
654.0227	-0.0014
654.2086	0.0193
654.3944	0.01
654.5803	0.0048
654.7661	0.0089
654.9519	-0.0008
655.1377	0.0001
655.3234	0.0001
655.5092	0.0001
655.6949	0.0001
655.8806	0.0001
656.0663	0.0001
656.2519	0.0001
656.4376	0.0001
656.6232	0.0001
656.8088	0.0001
656.9945	0.0001
657.18	0.0001
657.3656	0.0001
657.5511	0.0001
657.7367	0.0001
657.9222	0.0001
658.1077	0.0001
658.2932	0.0001
658.4786	0.0001
658.6641	0.0001
658.8495	0.0001
659.0349	0.0001
659.2203	0.0001
659.4057	0.0158
659.591	0.2647
659.7764	0.0261
659.9617	0.0226
660.147	0.0172
660.3323	0.0032
660.5176	0.0113
660.7028	0.0005
660.888	0.017
661.0733	0.0147
661.2585	-0.0157
661.4436	0.0159
661.6288	0.0206
661.8139	0.0151
661.9991	-0.0294
662.1842	-0.0096
662.3693	-0.0027
662.5544	0.013
662.7394	0.0277
662.9245	0.0006
663.1095	0.0113
663.2945	-0.0184
663.4795	-0.0018
663.6644	-0.0041
663.8494	0.01
664.0343	0.0052
664.2193	0.0094
664.4042	0.0113
664.589	0.0261
664.7739	-0.0087
664.9587	-0.0181
665.1436	-0.0019
665.3284	0.0048
665.5132	-0.0061
665.698	0.0131
665.8827	0.0149
666.0675	-0.0205
666.2522	0.0047
666.4369	-0.0178
666.6216	0.0152
666.8063	0.0066
666.9909	-0.0089
667.1756	-0.0012
667.3602	0.0057
667.5448	0.0177
667.7294	0.0261
667.9139	0.0117
668.0985	0.0234
668.283	-0.003
668.4675	0.0077
668.652	0.0135
668.8365	-0.0049
669.0209	0.0185
669.2054	0.001
669.3898	0.0068
669.5742	0.0103
669.7586	0.0169
669.943	0.0313
670.1273	0.0052
670.3117	-0.0005
670.496	0.0059
670.6803	-0.0031
670.8646	-0.0151
671.0488	0.0216
671.2331	-0.0021
671.4173	0.0119
671.6015	0.008
671.7857	0.0042
671.9699	0.0004
672.1541	-0.0094
672.3382	0.0032
672.5223	0.002
672.7064	0.0023
672.8905	-0.0229
673.0746	0.0034
673.2587	0.0185
673.4427	0.0231
673.6267	0.0011
673.8107	0.0136
673.9947	0.0266
674.1787	0.0174
674.3626	0.0035
674.5465	0.0068
674.7304	-0.0073
674.9143	-0.0088
675.0982	-0.0082
675.2821	0.0044
675.4659	-0.0048
675.6497	0.0189
675.8335	0.0034
676.0173	-0.015
676.2011	0.0146
676.3849	0.0042
676.5686	0.0086
676.7523	-0.0039
676.936	-0.0017
677.1197	0.0143
677.3034	0.0334
677.487	0.0001
677.6706	0.0273
677.8542	-0.0026
678.0378	0.002
678.2214	-0.0004
678.405	-0.0038
678.5885	0.0116
678.772	-0.0006
678.9555	-0.0018
679.139	0.0043
679.3225	0.0092
679.5059	-0.0026
679.6894	0.0145
679.8728	0.0087
680.0562	0.0052
680.2395	-0.0044
680.4229	-0.0004
680.6062	0.0052
680.7896	-0.0043
680.9729	0.0192
681.1562	-0.0116
681.3394	0.0092
681.5227	0.0038
681.7059	0.0111
681.8891	0.0022
682.0723	-0.0121
682.2555	0.0092
682.4387	0.0229
682.6218	0.0185
682.805	-0.0093
682.9881	0.0159
683.1712	0.0229
683.3542	-0.006
683.5373	-0.0125
683.7203	0.0337
683.9034	-0.0164
684.0864	0.0009
684.2694	0.0046
684.4523	0.0035
684.6353	-0.0036
684.8182	-0.0051
685.0011	0.0075
685.184	0.0103
685.3669	0.0335
685.5498	0.002
685.7326	0.0086
685.9154	-0.0113
686.0982	0.0196
686.281	0.0029
686.4638	0.0092
686.6465	-0.0055
686.8293	-0.0041
687.012	0.0118
687.1947	0.0146
687.3774	0.0176
687.56	0.0032
687.7427	0.011
687.9253	-0.0168
688.1079	0.0117
688.2905	0.004
688.4731	0.0093
688.6556	-0.0027
688.8382	-0.0118
689.0207	-0.0042
689.2032	0.0257
689.3857	-0.0101
689.5681	-0.001
689.7506	0.0272
689.933	-0.0085
690.1154	0.0315
690.2978	0.0102
690.4802	0.0139
690.6626	0.0094
690.8449	0.0057
691.0272	-0.0024
691.2095	-0.0054
691.3918	0.0174
691.5741	0.0037
691.7563	0.0119
691.9386	0.038
692.1208	0.013
692.303	-0.0079
692.4852	-0.0063
692.6673	0.0012
692.8495	-0.0074
693.0316	0.0194
693.2137	0.0056
693.3958	0.0212
693.5778	0.0087
693.7599	0.0097
693.9419	-0.0065
694.1239	0.0129
694.3059	0.0204
694.4879	0.0262
694.6699	-0.0016
694.8518	0.0173
695.0337	0.0175
695.2157	0.0145
695.3975	-0.0159
695.5794	-0.0109
695.7613	-0.0062
695.9431	-0.0173
696.1249	0.0186
696.3067	0.0201
696.4885	0.0231
696.6703	-0.0026
696.852	0.0079
697.0337	0.0115
697.2154	0.0138
697.3971	0.0079
697.5788	0.016
697.7605	-0.0076
697.9421	-0.0048
698.1237	0.0229
698.3053	-0.007
698.4869	0.0304
698.6685	-0.0085
698.85	0.0087
699.0315	-0.003
699.213	0.0156
699.3945	0.0028
699.576	0.0285
699.7575	0.0209
699.9389	-0.0038
700.1203	0.0122
700.3017	-0.0034
700.4831	0.0012
700.6645	0.0497
700.8458	0.022
701.0271	0.0444
701.2084	0.0449
701.3897	0.0282
701.571	-0.0096
701.7523	0.0113
701.9335	0.0057
702.1147	0.0224
702.2959	-0.0063
702.4771	0.0085
702.6583	-0.0127
702.8394	-0.0242
703.0205	0.0128
703.2016	0.007
703.3827	-0.0132
703.5638	-0.0018
703.7449	0.0267
703.9259	0.0044
704.1069	-0.0203
704.2879	-0.0011
704.4689	0.0023
704.6499	0.0079
704.8308	-0.014
705.0117	0.0089
705.1927	-0.0048
705.3735	0.0133
705.5544	0.0232
705.7353	0.0176
705.9161	-0.0285
706.0969	0.0076
706.2777	-0.0075
706.4585	0.0078
706.6393	0.0071
706.82	0.0387
707.0007	0.0071
707.1815	-0.0107
707.3621	0.0296
707.5428	0.0244
707.7235	-0.0075
707.9041	0.0087
708.0847	-0.0005
708.2653	0.0163
708.4459	0.0028
708.6265	-0.0118
708.807	0.0029
708.9875	-0.0164
709.168	0.0019
709.3485	0.0189
709.529	0.017
709.7095	-0.0077
709.8899	0.0236
710.0703	0.0095
710.2507	0.0051
710.4311	-0.0252
710.6115	0.0136
710.7918	0.0399
710.9721	-0.0006
711.1524	-0.0184
711.3327	-0.0176
711.513	-0.0205
711.6932	0.0266
711.8735	0.0033
712.0537	-0.0163
712.2339	0.0115
712.4141	0.0145
712.5942	-0.0043
712.7744	0.0228
712.9545	0.024
713.1346	0.0166
713.3147	0.0126
713.4947	-0.0057
713.6748	0.0022
713.8548	0.0291
714.0348	0.0307
714.2148	0.0215
714.3948	0.0055
714.5748	-0.0002
714.7547	0.0416
714.9346	0.0306
715.1145	0.0101
715.2944	0.0016
715.4743	0.0159
715.6541	0.0018
715.834	0.0536
716.0138	0.0236
716.1936	-0.0211
716.3733	0.0042
716.5531	0.0028
716.7328	0.0048
716.9126	0.0108
717.0923	-0.0089
717.2719	0.0191
717.4516	-0.0185
717.6312	-0.012
717.8109	0.0296
717.9905	0.015
718.1701	-0.0032
718.3496	-0.0081
718.5292	0.0024
718.7087	0.0012
718.8882	0.0159
719.0677	-0.001
719.2472	0.0015
719.4267	0.0023
719.6061	0.007
719.7856	0.0548
719.965	0.0125
720.1443	0.0044
720.3237	-0.0023
720.5031	-0.0145
720.6824	0.0275
720.8617	0.0119
721.041	0.021
721.2203	-0.015
721.3995	0.0121
721.5788	0.0121
721.758	0.0047
721.9372	0.0017
722.1164	0.0176
722.2956	-0.015
722.4747	0.0081
722.6538	0.0181
722.8329	0.0119
723.012	-0.0062
723.1911	0.0031
723.3702	0.0073
723.5492	0.0083
723.7282	-0.0016
723.9072	0.0065
724.0862	0.0096
724.2652	0.0061
724.4441	-0.0056
724.623	-0.0099
724.8019	0.0004
724.9808	0.0178
725.1597	0.0217
725.3385	0.0145
725.5174	0.0076
725.6962	-0.0016
725.875	0.0031
726.0538	0.0099
726.2325	0.0317
726.4112	0.0076
726.59	-0.0053
726.7687	0.0068
726.9474	0.017
727.126	-0.0018
727.3047	0.0021
727.4833	0.0265
727.6619	-0.0003
727.8405	0.0101
728.0191	0.0228
728.1976	0.0029
728.3762	0.007
728.5547	-0.0128
728.7332	0.0371
728.9116	-0.0043
729.0901	0.0138
729.2686	-0.0059
729.447	-0.004
729.6254	-0.0034
729.8038	-0.0083
729.9821	-0.0024
730.1605	0.032
730.3388	0.0147
730.5171	0.008
730.6954	-0.0141
730.8737	0.0075
731.0519	0.0013
731.2302	0.0103
731.4084	0.0031
731.5866	-0.0197
731.7648	0.0197
731.9429	0.0332
732.1211	-0.0032
732.2992	0.0065
732.4773	0.0087
732.6554	-0.003
732.8335	0.0189
733.0115	0.0214
733.1896	-0.0026
733.3676	0.0052
733.5456	0.0051
733.7235	-0.0087
733.9015	-0.001
734.0794	0.0028
734.2574	-0.0261
734.4353	0.0137
734.6131	0.0105
734.791	-0.0033
734.9689	-0.0125
735.1467	-0.009
735.3245	0.0126
735.5023	0.0091
735.68	0.0031
735.8578	-0.0098
736.0355	0.0068
736.2132	0.0001
736.3909	0.0224
736.5686	-0.0043
736.7463	-0.0126
736.9239	0.029
737.1015	0.0081
737.2791	0.011
737.4567	0.0222
737.6343	-0.0112
737.8118	0.0011
737.9894	0.0043
738.1669	0.0007
738.3444	0.0489
738.5218	-0.0179
738.6993	0.0205
738.8767	0.0114
739.0541	-0.0073
739.2315	-0.0104
739.4089	0.0218
739.5863	0.0039
739.7636	0.0181
739.9409	0.0045
740.1182	-0.0117
740.2955	0.0196
740.4728	-0.0198
740.65	-0.0164
740.8272	0.0365
741.0044	-0.0407
741.1816	0.0382
741.3588	-0.0281
741.5359	0.0026
741.7131	0.0289
741.8902	-0.002
742.0673	0.0051
742.2444	0.0448
742.4214	0.023
742.5985	0.0145
742.7755	-0.0016
742.9525	0.0035
743.1295	-0.0366
743.3064	0.0175
743.4834	0.0267
743.6603	0.0033
743.8372	-0.0644
744.0141	-0.0048
744.191	0.0105
744.3678	-0.0315
744.5446	-0.0154
744.7215	0.0219
744.8982	0.0113
745.075	0.058
745.2518	0.0033
745.4285	0.0185
745.6052	-0.0424
745.7819	0.0129
745.9586	0.0209
746.1353	-0.0458
746.3119	-0.0219
746.4885	0.0316
746.6651	0.0141
746.8417	0.0103
747.0183	0.0189
747.1948	-0.0156
747.3714	-0.0142
747.5479	0.0321
747.7244	-0.0016
747.9008	-0.0221
748.0773	0.0501
748.2537	-0.0261
748.4301	0.021
748.6065	0.0092
748.7829	-0.0199
748.9593	-0.0298
749.1356	0.0004
749.3119	0.0091
749.4882	0.019
749.6645	0.0001
749.8408	0.001
750.017	0.0168
750.1933	-0.0391
750.3695	0.0057
750.5457	-0.0003
750.7218	-0.0006
750.898	0.0089
751.0741	0.016
751.2502	-0.0045
751.4263	0.01
751.6024	0.0172
751.7784	-0.0171
751.9545	0.0105
752.1305	0.0202
752.3065	0.006
752.4825	-0.0137
752.6584	0.0096
752.8344	0.0056
753.0103	-0.0179
753.1862	0.0126
753.3621	-0.0019
753.5379	-0.0062
753.7138	0.0205
753.8896	-0.0003
754.0654	-0.0118
754.2412	0.0184
754.417	0.0161
754.5927	-0.0043
754.7685	0.0218
754.9442	0.0264
755.1199	0.0086
755.2956	0.0148
755.4712	-0.0026
755.6469	0.0162
755.8225	0.0203
755.9981	0.0131
756.1736	-0.0094
756.3492	0.0052
756.5248	0.0257
756.7003	-0.0099
756.8758	0.0018
757.0513	0.0121
757.2267	-0.0078
757.4022	-0.0082
757.5776	0.0045
757.753	0.0299
757.9284	0.0049
758.1038	0.0055
758.2791	0.0187
758.4545	-0.0022
758.6298	-0.0039
758.8051	0.0125
758.9803	0.0126
759.1556	-0.0138
759.3308	0.0003
759.506	0.0014
759.6812	-0.0034
759.8564	0.0024
760.0316	0.0125
760.2067	0.0344
760.3819	0.0005
760.557	-0.0048
760.732	0.0085
760.9071	0.0107
761.0821	-0.0044
761.2572	0.017
761.4322	0.0093
761.6072	0.0104
761.7821	-0.0333
761.9571	-0.001
762.132	0.0184
762.3069	0.0318
762.4818	0.0227
762.6567	-0.0082
762.8316	0.0192
763.0064	0.0133
763.1812	0.0165
763.356	-0.0137
763.5308	0.0351
763.7055	0.0051
763.8803	-0.0066
764.055	-0.0045
764.2297	-0.0044
764.4044	0.0088
764.579	-0.0083
764.7537	-0.0113
764.9283	0.0081
765.1029	-0.0057
765.2775	0.0101
765.4521	0.0277
765.6266	-0.0092
765.8011	0.0188
765.9756	0.0129
766.1501	0.0121
766.3246	0.0042
766.4991	0.0098
766.6735	0.0231
766.8479	0.0214
767.0223	0.0185
767.1967	0.0116
767.371	0.0164
767.5454	0.0413
767.7197	0.0355
767.894	-0.0173
768.0683	0.0372
768.2425	0.0068
768.4168	0.0105
768.591	0.0029
768.7652	0.0317
768.9394	-0.023
769.1135	-0.0012
769.2877	0.0372
769.4618	0.0096
769.6359	0.0111
769.81	0.0194
769.984	0.0248
770.1581	0.0012
770.3321	0.0172
770.5061	0.0088
770.6801	0.0007
770.8541	-0.0057
771.028	0.0567
771.202	0.0217
771.3759	0.0235
771.5498	0.0086
771.7236	0.0142
771.8975	0.0079
772.0713	0.0089
772.2451	-0.0176
772.4189	-0.0013
772.5927	-0.01
772.7665	0.0046
772.9402	0.0189
773.1139	0.0046
773.2876	-0.0059
773.4613	0.0098
773.635	0.0358
773.8086	0.0215
773.9822	0.0191
774.1558	0.0317
774.3294	-0.0039
774.503	-0.0101
774.6765	0.0552
774.8501	-0.0172
775.0236	0.0262
775.1971	0.0205
775.3705	0.008
775.544	-0.0083
775.7174	0.0254
775.8908	-0.0059
776.0642	0.0362
776.2376	-0.0015
776.4109	0.0258
776.5843	-0.0204
776.7576	0.0157
776.9309	0.0368
777.1041	-0.0189
777.2774	-0.0031
777.4506	-0.0023
777.6238	-0.0367
777.797	0.0399
777.9702	0.0108
778.1434	0.0095
778.3165	-0.0319
778.4896	-0.0463
778.6627	0.0097
778.8358	0.0113
779.0089	-0.0187
779.1819	0.0099
779.3549	-0.013
779.5279	0.0228
779.7009	0.027
779.8739	0.0505
780.0468	-0.0123
780.2197	0.0069
780.3926	-0.0178
780.5655	0.0177
780.7384	-0.0085
780.9112	0.0393
781.0841	0.002
781.2569	0.0106
781.4297	-0.0053
781.6024	0.0093
781.7752	0.0484
781.9479	0.0298
782.1206	0.0342
782.2933	0.0041
782.466	0.006
782.6386	0.01
782.8113	-0.0085
782.9839	-0.0034
783.1565	0.009
783.329	-0.0067
783.5016	-0.005
783.6741	-0.0143
783.8466	0.0482
784.0191	0.0291
784.1916	0.001
784.3641	0.0143
784.5365	0.0181
784.7089	-0.0335
784.8813	0.0627
785.0537	0.0099
785.2261	-0.0042
785.3984	0.0302
785.5707	-0.0172
785.743	0.0441
785.9153	-0.0115
786.0876	-0.0726
786.2598	-0.0343
786.432	0.0192
786.6042	0.0595
786.7764	-0.0328
786.9486	-0.0376
787.1207	0.0262
787.2928	0.0496
787.4649	-0.0238
787.637	0.017
787.8091	0.0084
787.9811	0.0245
788.1532	0.055
788.3252	0.0155
788.4972	-0.0145
788.6691	0.0072
788.8411	-0.0193
789.013	0.0065
789.1849	-0.0055
789.3568	-0.0029
789.5287	0.0545
789.7005	0.004
789.8723	-0.0443
790.0442	-0.0047
790.2159	0.0097
790.3877	0.0452
790.5595	0.0097
790.7312	-0.0269
790.9029	-0.0008
791.0746	0.0357
791.2463	-0.0322
791.4179	-0.0313
791.5896	0.0277
791.7612	0.0367
791.9328	0.0053
792.1044	-0.011
792.2759	-0.0511
792.4474	0.0443
792.619	0.0153
792.7905	0.0522
792.9619	0.0746
793.1334	0.0561
793.3048	0.0451
793.4762	0.0444
793.6476	-0.0244
793.819	0.0028
793.9904	-0.0136
794.1617	-0.0048
794.333	0.0036
794.5043	0.0065
794.6756	0.0184
794.8469	0.0553
795.0181	-0.0042
795.1893	0.0206
795.3605	0.0246
795.5317	0.0436
795.7029	0.0361
795.874	-0.0153
796.0452	0.0264
796.2163	0.0632
796.3873	0.1025
796.5584	0.0569
796.7294	0.0577
796.9005	0.0123
797.0715	-0.0271
797.2425	0.0358
797.4134	0.0292
797.5844	0.0066
797.7553	-0.0792
797.9262	0.0782
798.0971	0.0439
798.2679	0.0176
798.4388	0.0619
798.6096	0.0045
798.7804	0.0385
798.9512	0.0206
799.122	0.0055
799.2927	0.0978
799.4635	-0.0298
799.6342	-0.0377
799.8049	0.0378
799.9755	-0.0559
800.1462	0.0494
800.3168	-0.0202
800.4874	-0.0649
800.658	0.0247
800.8286	0.0619
800.9991	0.0757
801.1696	0.048
801.3402	-0.0646
801.5106	-0.014
801.6811	-0.0187
801.8516	0.0567
802.022	0.0178
802.1924	0.0375
802.3628	0.1351
802.5332	0.1595
802.7035	0.0231
802.8739	-0.0053
803.0442	0.0375
803.2145	0.0344
803.3847	0.0194
803.555	0.0862
803.7252	-0.0066
803.8954	0.0037
804.0656	0.0142
804.2358	0.061
804.4059	0.0376
804.5761	0.0592
804.7462	0.0479
804.9163	-0.0027
805.0864	-0.003
805.2564	-0.1281
805.4264	0.0276
805.5965	0.0607
805.7665	-0.043
805.9364	-0.0296
806.1064	0.0472
806.2763	0.0366
806.4462	0.0182
806.6161	0.0091
806.786	0.0073
806.9559	0.0497
807.1257	0.0599
807.2955	0.0037
807.4653	0.0223
807.6351	0.0152
807.8048	-0.0248
807.9746	0.0352
808.1443	-0.0542
808.314	0.0318
808.4837	0.0749
808.6533	0.0626
808.8229	0.0073
808.9926	0.0241
809.1622	0.005
809.3317	-0.0694
809.5013	-0.0656
809.6708	0.0038
809.8403	0.0004
810.0098	0.0553
810.1793	-0.0916
810.3488	-0.0034
810.5182	0.0772
810.6876	0.0834
810.857	0.0028
811.0264	0.0213
811.1958	0.0489
811.3651	0.0478
811.5344	0.1505
811.7037	0.0525
811.873	0.0299
812.0422	-0.0193
812.2115	0.0499
812.3807	-0.0655
812.5499	-0.0366
812.7191	0.0094
812.8882	-0.0085
813.0574	0.0714
813.2265	0.078
813.3956	0.0263
813.5646	0.0855
813.7337	-0.0597
813.9027	-0.0136
814.0718	0.0543
814.2407	-0.0076
814.4097	-0.0133
814.5787	0.0604
814.7476	0.0595
814.9165	-0.016
815.0854	-0.0217
815.2543	0.0197
815.4232	0.0788
815.592	0.0599
815.7608	-0.1154
815.9296	0.0035
816.0984	0.0044
816.2671	-0.3688
816.4359	-0.0094
816.6046	0.0424
816.7733	0.0293
816.942	-0.0993
817.1106	0.0266
817.2793	-0.0948
817.4479	-0.0087
817.6165	0.0714
817.785	0.1018
817.9536	-0.0585
818.1221	0.0462
818.2906	-0.1084
818.4591	-0.0634
818.6276	0.0666
818.7961	0.0237
818.9645	0.0006
819.1329	0.3401
819.3013	0.0271
819.4697	-0.055
819.638	0.091
819.8064	0.0385
819.9747	0.1525
820.143	-0.0884
820.3113	0.0471
820.4795	0.0062
820.6477	0.1283
820.816	0.0285
820.9842	0.0455
821.1523	0.0394
821.3205	0.066
821.4886	-0.0096
821.6567	-0.0296
821.8248	0.1257
821.9929	-0.0476
822.1609	0.0145
822.329	0.051
822.497	0.0585
822.665	0.045
822.833	0.0975
823.0009	-0.0426
823.1688	0.041
823.3367	-0.0605
823.5046	0.1084
823.6725	-0.0771
823.8404	-0.0487
824.0082	0.0735
824.176	-0.0597
824.3438	0.0539
824.5116	-0.0241
824.6793	0.1084
824.847	-0.0101
825.0147	0.0992
825.1824	0.1175
825.3501	0.0965
825.5177	0.0151
825.6854	-0.0726
825.853	-0.0229
826.0206	-0.0469
826.1881	0.0762
826.3557	0.2351
826.5232	0.0412
826.6907	0.0806
826.8582	-0.0239
827.0257	0.3641
827.1931	0.0926
827.3605	-0.0178
827.528	-0.0525
827.6953	-0.1657
827.8627	-0.0664
828.03	0.1555
828.1974	-0.0346
828.3647	0.0404
828.532	-0.0211
828.6992	0.2257
828.8665	-0.2687
829.0337	0.3121
829.2009	-0.0909
829.3681	-0.0474
829.5352	-0.2186
829.7024	0.057
829.8695	-0.032
830.0366	0.1224
830.2037	0.1001
830.3707	0.1052
830.5378	0.0183
830.7048	-0.2087
830.8718	0.1616
831.0388	-0.0631
831.2057	0.0435
831.3727	-0.256
831.5396	0.1645
831.7065	-0.6298
831.8734	0.4563
832.0402	0.136
832.2071	-0.3885
832.3739	0.3619
832.5407	-1.9611
832.7075	-0.3166
832.8742	0.3509
833.041	0.4245
833.2077	0.1317
833.3744	0.1805
833.541	0.0556
833.7077	-0.1085
833.8743	0.0226
834.0409	-0.0883
834.2075	0.0355
834.3741	-0.019
834.5407	0.5216
834.7072	0.2552
834.8737	0.4199
835.0402	0.2779
835.2067	0.0362
835.3731	-0.1245
835.5395	-0.038
835.706	-0.0459
835.8723	0.1238
836.0387	0.0548
836.2051	-0.0443
836.3714	0.2676
836.5377	0.2697
836.704	0.1522
836.8703	-0.1224
837.0365	0.357
837.2027	0.3509
837.3689	0.2857
837.5351	0.0695
837.7013	-0.0711
837.8674	1.0947
838.0335	0.0939
838.1997	0.1076
838.3657	-0
838.5318	-0.8702
838.6978	-0
838.8639	-0.3873
839.0299	-0.0794
839.1958	0.1287
839.3618	0.1268
839.5277	-0.0408
839.6937	0.1093
839.8596	0.743
840.0254	0.0858
840.1913	0.0227
840.3571	0.0911
840.523	-0
840.6888	-0.1023
840.8545	-0.3719
841.0203	0.0834
841.186	0.5289
841.3517	-0.0336
841.5174	0.1363
841.6831	0.1669
841.8488	-0.0459
842.0144	0.6349
842.18	0.2395
842.3456	-0.0566
842.5112	-0
842.6767	0.0636
842.8422	-0.1758
843.0077	-0.056
843.1732	0.1004
843.3387	-0.0099
843.5042	-0.1769
843.6696	-0
843.835	0.0292
844.0004	-0.0812
844.1657	-0
844.3311	-0
844.4964	-0.0806
844.6617	0.1187
844.827	-0
844.9923	0.404
845.1575	-0
845.3227	0.0478
845.4879	0.1776
845.6531	0.2738
845.8183	0.0406
845.9834	0.7665
846.1485	0.2117
846.3136	-0.2197
846.4787	-0
846.6438	-0.2747
846.8088	0.4004
846.9738	-0
847.1388	0.6395
847.3038	0.2666
847.4687	-0
847.6337	-0.6596
847.7986	-0.2729
847.9635	0.0248
848.1284	0.6984
848.2932	0.9433
848.458	-0
848.6228	-0
848.7876	0.9661
848.9524	-0
849.1172	-1.7437
849.2819	-0.7593
849.4466	0.3066
849.6113	0.2062
849.7759	-0
849.9406	-0.0957
850.1052	-0.6657
850.2698	0.2129
850.4344	-0
850.599	0.2864
850.7635	1.1811
850.928	0.2165
851.0925	0.1486
851.257	0.4988
851.4215	-0
851.5859	0.0535
851.7503	-0
851.9147	-0
852.0791	-0.0468
852.2434	0.5371
852.4078	-0
852.5721	0.2738
852.7364	0.38
852.9007	-0.0151
853.0649	-0
853.2291	0.5772
853.3934	-0
853.5575	-0.0517
853.7217	0.2735
853.8859	-0
854.05	-0.6433
854.2141	-0
854.3782	-0.0594
854.5423	0.3243
854.7063	0.2645
854.8703	-0.2144
855.0343	0.1092
855.1983	-0.0203
855.3623	-0.1092
855.5262	-0
855.6901	0.0464
855.854	0.1564
856.0179	-0.069
856.1818	-0
856.3456	-0
856.5094	-0
856.6732	-0.2574
856.837	-0.7442
857.0008	-0
857.1645	-0.1286
857.3282	-0.6833
857.4919	0.2926
857.6556	-0.0181
857.8192	0.2893
857.9828	0.3475
858.1465	0.8893
858.31	-0
858.4736	-0.9048
858.6372	-0
858.8007	-0.1454
858.9642	0.6928
859.1277	-0
859.2911	-0.1364
859.4546	-1.2648
859.618	0.2617
859.7814	0.8622
859.9448	0.4927
860.1081	0.243
860.2715	-1.3252
860.4348	-0.0096
860.5981	1.1383
860.7614	0.427
860.9246	0.6608
861.0879	-0.1869
861.2511	-0
861.4143	-0
861.5774	0.3764
861.7406	0.2092
861.9037	-0
862.0668	-0
862.2299	0.7291
862.393	-0
862.556	-0.3224
862.7191	-0.2747
862.8821	0.4155
863.0451	-0.1438
863.208	-0
863.371	-0.5624
863.5339	0.3081
863.6968	2.0855
863.8597	-0
864.0225	0.6767
864.1854	-0.3683
864.3482	-0
864.511	-0.0909
864.6737	-0.3143
864.8365	0.0111
864.9992	-0
865.1619	-0.5092
865.3246	-1.6955
865.4873	-0
865.65	-0
865.8126	0.3274
865.9752	0.0616
866.1378	0.9938
866.3004	-0.0921
866.4629	-1.4973
866.6254	-0
866.7879	0.2993
866.9504	0.7959
867.1129	-0.1652
867.2753	0.4119
867.4377	-0.1042
867.6001	-0.6148
867.7625	0.2113
867.9249	0.3395
868.0872	-0.1602
868.2495	-0
868.4118	-0.1538
868.5741	1.4108
868.7363	0.7097
868.8986	-0.0601
869.0608	-0.6122
869.223	-0.7382
869.3851	-0
869.5473	0.4651
869.7094	0.5002
869.8715	-0.8824
870.0336	0.2349
870.1957	-0
870.3577	-0
870.5197	-0.1067
870.6817	-0.7763
870.8437	-0
871.0057	0.1497
871.1676	0.0479
871.3295	-0
871.4914	-1.7356
871.6533	-0.2645
871.8151	0.1039
871.977	-0.211
872.1388	-0.1286
872.3006	-0.3821
872.4623	-0
872.6241	-0
872.7858	-0
872.9475	-0
873.1092	0.494
873.2709	1.2585
873.4325	-0
873.5941	-0.5134
873.7557	-0
873.9173	-0.1948
874.0789	0.0327
874.2404	-0
874.4019	0.0775
874.5634	-0
874.7249	-0
874.8863	-0.0301
875.0478	0.0456
875.2092	-0
875.3706	0.0828
875.5319	-0
875.6933	-0
875.8546	-0.3181
876.0159	-0
876.1772	-0
876.3385	1.4263
876.4997	-0
876.6609	0.7358
876.8221	0.1678
876.9833	-0.2479
877.1445	0.8306
877.3056	-0
877.4667	0.3118
877.6278	0.4718
877.7889	0.4498
877.9499	-0
878.111	-0.1444
878.272	0.007
878.433	-0.2437
878.5939	-0
878.7549	-0
878.9158	0.2638
879.0767	0.0985
879.2376	-0
879.3984	0.3641
879.5593	0.0629
879.7201	-1.2483
879.8809	1.6968
880.0417	-0.2388
880.2024	0.0718
880.3632	-0.2652
880.5239	0.2606
880.6846	-0
880.8452	-0.1543
881.0059	-0
881.1665	0.0292
881.3271	0.1338
881.4877	0.641
881.6483	-1.1425
881.8088	-0
881.9693	-0
882.1298	-0
882.2903	-0
