Data from D4ACN5uM420nmA_Absorbance_14-37-07-331.txt Node
Date: Fri Feb 21 14:37:07 GMT 2025
User: LASERRRRR
Spectrometer: FLMT03099
Trigger mode: 0
Integration Time (sec): 1.500000E-2
Scans to average: 1
Electric dark correction enabled: true
Nonlinearity correction enabled: false
Boxcar width: 0
XAxis mode: Wavelengths
Number of Pixels in Spectrum: 3648
>>>>>Begin Spectral Data<<<<<
179.3399	-0
179.5586	-0
179.7771	-0
179.9957	-0.1047
180.2143	-0
180.4329	-0.1757
180.6514	-0
180.8699	0.2776
181.0885	-0
181.307	-0
181.5255	-0.0196
181.744	-0.131
181.9625	0.0801
182.181	-0
182.3994	-0.5058
182.6179	-0
182.8363	-0
183.0547	0.1796
183.2732	0.2054
183.4916	0.2274
183.71	0.379
183.9284	0.1291
184.1467	0.0866
184.3651	0.0341
184.5835	0.1107
184.8018	0.3393
185.0201	0.1869
185.2385	0.2569
185.4568	0.1768
185.6751	0.1159
185.8934	0.1679
186.1117	-0.1212
186.3299	0.5107
186.5482	0.3392
186.7664	0.0244
186.9847	0.1084
187.2029	0.4558
187.4211	0.119
187.6393	0.0602
187.8575	0.2159
188.0757	0.186
188.2939	0.0976
188.512	0.4737
188.7302	0.2768
188.9483	0.5638
189.1665	0.5006
189.3846	0.5203
189.6027	0.1332
189.8208	0.5611
190.0389	0.2507
190.257	0.2876
190.475	0.0065
190.6931	0.1125
190.9111	0.1407
191.1292	0.2341
191.3472	0.1559
191.5652	0.3497
191.7832	0.1098
192.0012	0.1995
192.2192	0.1633
192.4371	0.2156
192.6551	0.1747
192.873	0.1375
193.091	0.1729
193.3089	0.1222
193.5268	0.1995
193.7447	0.1857
193.9626	0.2563
194.1805	0.2395
194.3984	0.2011
194.6162	0.2771
194.8341	0.2662
195.0519	0.1884
195.2697	0.2508
195.4875	0.3229
195.7054	0.2549
195.9231	0.2435
196.1409	0.2781
196.3587	0.3024
196.5765	0.3079
196.7942	0.3683
197.012	0.3841
197.2297	0.4092
197.4474	0.3488
197.6651	0.3022
197.8828	0.336
198.1005	0.3796
198.3182	0.372
198.5358	0.3276
198.7535	0.3973
198.9711	0.4249
199.1888	0.3076
199.4064	0.3828
199.624	0.4135
199.8416	0.4048
200.0592	0.4384
200.2767	0.4253
200.4943	0.4615
200.7119	0.3936
200.9294	0.4173
201.1469	0.4298
201.3645	0.4622
201.582	0.4068
201.7995	0.4066
202.017	0.4188
202.2344	0.3847
202.4519	0.4194
202.6694	0.404
202.8868	0.3922
203.1042	0.3827
203.3217	0.3977
203.5391	0.417
203.7565	0.3824
203.9739	0.398
204.1913	0.3371
204.4086	0.3532
204.626	0.3496
204.8433	0.3811
205.0607	0.3617
205.278	0.3281
205.4953	0.335
205.7126	0.3697
205.9299	0.3332
206.1472	0.3147
206.3644	0.3741
206.5817	0.3169
206.7989	0.3394
207.0162	0.3313
207.2334	0.3653
207.4506	0.2979
207.6678	0.3204
207.885	0.3392
208.1022	0.289
208.3194	0.2887
208.5365	0.2837
208.7537	0.3131
208.9708	0.2994
209.1879	0.2855
209.405	0.2772
209.6222	0.2541
209.8392	0.3101
210.0563	0.273
210.2734	0.2766
210.4905	0.249
210.7075	0.2739
210.9245	0.2671
211.1416	0.2985
211.3586	0.2649
211.5756	0.2744
211.7926	0.2514
212.0096	0.2663
212.2265	0.2611
212.4435	0.2565
212.6604	0.2549
212.8774	0.2561
213.0943	0.2554
213.3112	0.2454
213.5281	0.2584
213.745	0.2414
213.9619	0.2433
214.1788	0.2617
214.3956	0.2352
214.6125	0.2452
214.8293	0.2538
215.0461	0.2402
215.2629	0.2684
215.4798	0.2559
215.6965	0.2452
215.9133	0.2418
216.1301	0.2481
216.3469	0.2555
216.5636	0.2648
216.7803	0.2429
216.9971	0.2529
217.2138	0.2563
217.4305	0.2618
217.6472	0.2447
217.8639	0.2584
218.0805	0.2397
218.2972	0.2526
218.5138	0.257
218.7305	0.2636
218.9471	0.2592
219.1637	0.2792
219.3803	0.2543
219.5969	0.2509
219.8135	0.258
220.0301	0.242
220.2466	0.2701
220.4632	0.2435
220.6797	0.2708
220.8962	0.2462
221.1127	0.2762
221.3292	0.2649
221.5457	0.2647
221.7622	0.2694
221.9787	0.2742
222.1951	0.2728
222.4116	0.2905
222.628	0.2829
222.8444	0.2779
223.0608	0.2847
223.2772	0.2905
223.4936	0.2834
223.71	0.2823
223.9264	0.2821
224.1427	0.2842
224.3591	0.285
224.5754	0.2961
224.7917	0.2905
225.008	0.2867
225.2243	0.2949
225.4406	0.2829
225.6569	0.3029
225.8732	0.3166
226.0894	0.3051
226.3057	0.3055
226.5219	0.3121
226.7381	0.3249
226.9543	0.3206
227.1705	0.32
227.3867	0.327
227.6029	0.3354
227.8191	0.3406
228.0352	0.348
228.2513	0.3476
228.4675	0.3471
228.6836	0.339
228.8997	0.344
229.1158	0.3644
229.3319	0.3563
229.548	0.3591
229.764	0.3575
229.9801	0.3997
230.1961	0.368
230.4121	0.3763
230.6282	0.3751
230.8442	0.3928
231.0602	0.3771
231.2761	0.3848
231.4921	0.3965
231.7081	0.406
231.924	0.4094
232.14	0.4076
232.3559	0.404
232.5718	0.4059
232.7877	0.4195
233.0036	0.4083
233.2195	0.4136
233.4353	0.4145
233.6512	0.4199
233.867	0.4292
234.0829	0.4258
234.2987	0.4191
234.5145	0.4236
234.7303	0.4244
234.9461	0.4344
235.1619	0.448
235.3776	0.4474
235.5934	0.4314
235.8091	0.4474
236.0249	0.4446
236.2406	0.4438
236.4563	0.4606
236.672	0.4417
236.8877	0.4547
237.1034	0.4491
237.319	0.4695
237.5347	0.4564
237.7503	0.4587
237.966	0.4616
238.1816	0.4534
238.3972	0.4572
238.6128	0.4752
238.8284	0.4645
239.0439	0.4738
239.2595	0.4739
239.475	0.4576
239.6906	0.4648
239.9061	0.4637
240.1216	0.4654
240.3371	0.4735
240.5526	0.46
240.7681	0.4646
240.9836	0.4611
241.199	0.466
241.4145	0.4415
241.6299	0.4432
241.8453	0.4468
242.0607	0.4476
242.2761	0.4376
242.4915	0.4278
242.7069	0.4211
242.9223	0.4198
243.1376	0.4114
243.353	0.4059
243.5683	0.4002
243.7836	0.3912
243.9989	0.3838
244.2142	0.3797
244.4295	0.3718
244.6448	0.3687
244.86	0.354
245.0753	0.3482
245.2905	0.3433
245.5057	0.3326
245.721	0.3361
245.9362	0.3316
246.1514	0.3222
246.3665	0.3111
246.5817	0.3025
246.7969	0.3034
247.012	0.2901
247.2271	0.2961
247.4423	0.2809
247.6574	0.2856
247.8725	0.2754
248.0876	0.2754
248.3026	0.2672
248.5177	0.2586
248.7328	0.2598
248.9478	0.2589
249.1628	0.2535
249.3779	0.2377
249.5929	0.2462
249.8079	0.246
250.0228	0.2364
250.2378	0.2318
250.4528	0.2373
250.6677	0.2201
250.8827	0.223
251.0976	0.2142
251.3125	0.2222
251.5274	0.221
251.7423	0.2097
251.9572	0.2119
252.172	0.2084
252.3869	0.2115
252.6017	0.2046
252.8166	0.2036
253.0314	0.2023
253.2462	0.1963
253.461	0.1984
253.6758	0.1943
253.8906	0.1947
254.1053	0.1956
254.3201	0.1988
254.5348	0.1924
254.7496	0.1888
254.9643	0.1969
255.179	0.1915
255.3937	0.1974
255.6083	0.1891
255.823	0.1882
256.0377	0.1828
256.2523	0.189
256.467	0.1897
256.6816	0.1892
256.8962	0.1895
257.1108	0.1923
257.3254	0.1853
257.54	0.1856
257.7545	0.1879
257.9691	0.1869
258.1836	0.1828
258.3981	0.1816
258.6127	0.178
258.8272	0.1888
259.0417	0.1763
259.2561	0.1818
259.4706	0.1742
259.6851	0.1796
259.8995	0.1778
260.114	0.1844
260.3284	0.1736
260.5428	0.1835
260.7572	0.175
260.9716	0.1923
261.186	0.1777
261.4003	0.1774
261.6147	0.1794
261.829	0.1786
262.0433	0.1868
262.2577	0.1781
262.472	0.1804
262.6863	0.1834
262.9005	0.1799
263.1148	0.1865
263.3291	0.1813
263.5433	0.1816
263.7576	0.1844
263.9718	0.1801
264.186	0.184
264.4002	0.1856
264.6144	0.1882
264.8286	0.1769
265.0427	0.1863
265.2569	0.1848
265.471	0.1928
265.6851	0.1906
265.8993	0.182
266.1134	0.1845
266.3275	0.1873
266.5415	0.19
266.7556	0.1909
266.9697	0.1844
267.1837	0.1831
267.3978	0.1823
267.6118	0.1773
267.8258	0.1858
268.0398	0.1844
268.2538	0.1896
268.4677	0.1783
268.6817	0.183
268.8957	0.1743
269.1096	0.1759
269.3235	0.1767
269.5374	0.1833
269.7514	0.1812
269.9652	0.1813
270.1791	0.1742
270.393	0.1777
270.6068	0.1777
270.8207	0.1732
271.0345	0.1778
271.2483	0.1692
271.4622	0.1735
271.676	0.1776
271.8897	0.1728
272.1035	0.1806
272.3173	0.1843
272.531	0.1807
272.7448	0.1779
272.9585	0.1744
273.1722	0.1692
273.3859	0.1793
273.5996	0.1749
273.8133	0.1756
274.0269	0.1742
274.2406	0.176
274.4542	0.1759
274.6679	0.1799
274.8815	0.1874
275.0951	0.1837
275.3087	0.181
275.5223	0.177
275.7358	0.1843
275.9494	0.1787
276.1629	0.1833
276.3765	0.1793
276.59	0.1774
276.8035	0.1753
277.017	0.1812
277.2305	0.1824
277.444	0.1856
277.6574	0.1832
277.8709	0.1847
278.0843	0.1845
278.2978	0.1871
278.5112	0.1875
278.7246	0.1818
278.938	0.1809
279.1513	0.1845
279.3647	0.1834
279.5781	0.1854
279.7914	0.1863
280.0047	0.1853
280.2181	0.1833
280.4314	0.1807
280.6447	0.1878
280.8579	0.176
281.0712	0.1833
281.2845	0.1854
281.4977	0.1839
281.711	0.1821
281.9242	0.1862
282.1374	0.1838
282.3506	0.1812
282.5638	0.1825
282.7769	0.183
282.9901	0.1885
283.2033	0.1843
283.4164	0.1818
283.6295	0.1902
283.8426	0.1866
284.0557	0.1898
284.2688	0.1909
284.4819	0.1798
284.695	0.1965
284.908	0.1853
285.1211	0.1922
285.3341	0.1871
285.5471	0.1915
285.7601	0.1969
285.9731	0.1916
286.1861	0.1953
286.3991	0.1963
286.612	0.1912
286.825	0.1921
287.0379	0.1904
287.2508	0.1945
287.4637	0.1904
287.6766	0.1984
287.8895	0.1948
288.1024	0.204
288.3152	0.1956
288.5281	0.1884
288.7409	0.1971
288.9538	0.1932
289.1666	0.1944
289.3794	0.1959
289.5922	0.1944
289.8049	0.1978
290.0177	0.2009
290.2304	0.1947
290.4432	0.1967
290.6559	0.1994
290.8686	0.196
291.0813	0.2011
291.294	0.1977
291.5067	0.1951
291.7194	0.1958
291.932	0.1909
292.1447	0.1964
292.3573	0.2015
292.5699	0.1983
292.7825	0.1963
292.9951	0.1995
293.2077	0.201
293.4203	0.1972
293.6328	0.1939
293.8454	0.1967
294.0579	0.1955
294.2704	0.2032
294.4829	0.196
294.6954	0.1953
294.9079	0.193
295.1204	0.1955
295.3328	0.1995
295.5453	0.2052
295.7577	0.2046
295.9701	0.2031
296.1825	0.2018
296.3949	0.1982
296.6073	0.1963
296.8197	0.1993
297.0321	0.1955
297.2444	0.1976
297.4567	0.2045
297.6691	0.1939
297.8814	0.2002
298.0937	0.2029
298.306	0.1972
298.5182	0.2044
298.7305	0.196
298.9428	0.1972
299.155	0.1888
299.3672	0.1964
299.5794	0.196
299.7916	0.2015
300.0038	0.1993
300.216	0.2021
300.4282	0.1944
300.6403	0.2047
300.8525	0.1986
301.0646	0.1977
301.2767	0.199
301.4888	0.1977
301.7009	0.2014
301.913	0.2029
302.125	0.1949
302.3371	0.195
302.5491	0.2
302.7612	0.2043
302.9732	0.2023
303.1852	0.1994
303.3972	0.2004
303.6092	0.1977
303.8211	0.1979
304.0331	0.196
304.245	0.1948
304.457	0.1907
304.6689	0.1944
304.8808	0.1964
305.0927	0.1919
305.3046	0.1927
305.5164	0.1878
305.7283	0.1889
305.9401	0.1805
306.152	0.184
306.3638	0.1906
306.5756	0.1903
306.7874	0.1751
306.9992	0.177
307.2109	0.1788
307.4227	0.1805
307.6344	0.1796
307.8462	0.1741
308.0579	0.1764
308.2696	0.177
308.4813	0.172
308.693	0.1675
308.9046	0.1757
309.1163	0.1626
309.328	0.1633
309.5396	0.1548
309.7512	0.1569
309.9628	0.1579
310.1744	0.153
310.386	0.1541
310.5976	0.1492
310.8091	0.1545
311.0207	0.1512
311.2322	0.1521
311.4437	0.1467
311.6552	0.1461
311.8667	0.1599
312.0782	0.147
312.2897	0.1462
312.5012	0.1417
312.7126	0.1374
312.924	0.1433
313.1355	0.14
313.3469	0.1341
313.5583	0.1401
313.7696	0.1346
313.981	0.1452
314.1924	0.1388
314.4037	0.137
314.6151	0.1334
314.8264	0.1383
315.0377	0.1345
315.249	0.1386
315.4603	0.1292
315.6716	0.1408
315.8828	0.1326
316.0941	0.1303
316.3053	0.1284
316.5165	0.1337
316.7277	0.127
316.9389	0.1296
317.1501	0.1283
317.3613	0.135
317.5724	0.1287
317.7836	0.1278
317.9947	0.1248
318.2058	0.1271
318.417	0.1214
318.6281	0.1275
318.8391	0.136
319.0502	0.1288
319.2613	0.1296
319.4723	0.1203
319.6834	0.126
319.8944	0.1248
320.1054	0.1321
320.3164	0.1237
320.5274	0.125
320.7383	0.1336
320.9493	0.1236
321.1602	0.1259
321.3712	0.126
321.5821	0.1257
321.793	0.1318
322.0039	0.126
322.2148	0.1285
322.4257	0.1271
322.6365	0.1267
322.8474	0.1275
323.0582	0.1297
323.269	0.1354
323.4798	0.1319
323.6906	0.127
323.9014	0.1255
324.1122	0.1236
324.3229	0.1315
324.5337	0.1372
324.7444	0.1352
324.9551	0.1298
325.1658	0.1297
325.3765	0.1358
325.5872	0.1294
325.7979	0.1327
326.0085	0.1293
326.2192	0.1288
326.4298	0.1295
326.6404	0.137
326.851	0.1307
327.0616	0.1338
327.2722	0.1342
327.4828	0.1307
327.6933	0.1396
327.9039	0.1349
328.1144	0.1346
328.3249	0.1349
328.5354	0.131
328.7459	0.1342
328.9564	0.1373
329.1669	0.1412
329.3773	0.1351
329.5878	0.134
329.7982	0.1375
330.0086	0.1359
330.219	0.1388
330.4294	0.1342
330.6398	0.1407
330.8502	0.146
331.0605	0.1329
331.2708	0.1371
331.4812	0.1368
331.6915	0.1385
331.9018	0.1395
332.1121	0.1424
332.3224	0.1381
332.5326	0.1394
332.7429	0.1335
332.9531	0.1382
333.1633	0.1359
333.3735	0.1373
333.5837	0.1389
333.7939	0.1377
334.0041	0.1377
334.2143	0.1441
334.4244	0.1435
334.6346	0.1373
334.8447	0.1394
335.0548	0.1408
335.2649	0.1402
335.475	0.1478
335.685	0.1416
335.8951	0.1394
336.1051	0.1464
336.3152	0.1453
336.5252	0.1444
336.7352	0.1435
336.9452	0.1449
337.1552	0.1453
337.3652	0.1381
337.5751	0.1399
337.7851	0.143
337.995	0.1519
338.2049	0.1434
338.4148	0.1453
338.6247	0.1502
338.8346	0.146
339.0445	0.1476
339.2543	0.1446
339.4642	0.1464
339.674	0.1426
339.8838	0.1413
340.0936	0.1496
340.3034	0.1427
340.5132	0.138
340.7229	0.1475
340.9327	0.159
341.1424	0.1462
341.3522	0.1474
341.5619	0.1572
341.7716	0.1524
341.9813	0.1559
342.1909	0.1565
342.4006	0.154
342.6102	0.154
342.8199	0.1493
343.0295	0.1525
343.2391	0.1583
343.4487	0.1567
343.6583	0.1588
343.8679	0.1507
344.0774	0.1541
344.287	0.1587
344.4965	0.1569
344.706	0.1665
344.9155	0.1554
345.125	0.1598
345.3345	0.1693
345.544	0.1626
345.7534	0.1584
345.9629	0.1661
346.1723	0.1679
346.3817	0.1655
346.5911	0.1653
346.8005	0.171
347.0099	0.1679
347.2193	0.1726
347.4286	0.1725
347.638	0.1741
347.8473	0.1778
348.0566	0.1732
348.2659	0.1723
348.4752	0.1706
348.6845	0.1727
348.8937	0.1712
349.103	0.171
349.3122	0.1779
349.5214	0.1772
349.7306	0.1805
349.9398	0.1754
350.149	0.1759
350.3582	0.1747
350.5674	0.1856
350.7765	0.1834
350.9856	0.178
351.1948	0.186
351.4039	0.1838
351.613	0.1851
351.822	0.1836
352.0311	0.1894
352.2402	0.1812
352.4492	0.1792
352.6582	0.1867
352.8672	0.1881
353.0762	0.1868
353.2852	0.1825
353.4942	0.1845
353.7032	0.1855
353.9121	0.1907
354.1211	0.1904
354.33	0.1935
354.5389	0.185
354.7478	0.1884
354.9567	0.1968
355.1655	0.1852
355.3744	0.1871
355.5833	0.1948
355.7921	0.1963
356.0009	0.1909
356.2097	0.1921
356.4185	0.1964
356.6273	0.1975
356.8361	0.196
357.0448	0.2055
357.2536	0.1995
357.4623	0.1974
357.671	0.1987
357.8797	0.1978
358.0884	0.1924
358.2971	0.1965
358.5057	0.1955
358.7144	0.1975
358.923	0.2061
359.1316	0.2085
359.3402	0.2064
359.5488	0.2077
359.7574	0.2128
359.966	0.2112
360.1746	0.2098
360.3831	0.2136
360.5916	0.2098
360.8002	0.2104
361.0087	0.2129
361.2172	0.2147
361.4256	0.2093
361.6341	0.214
361.8426	0.2154
362.051	0.2221
362.2594	0.225
362.4678	0.2197
362.6762	0.2247
362.8846	0.2294
363.093	0.229
363.3014	0.228
363.5097	0.2255
363.718	0.2264
363.9264	0.2256
364.1347	0.2266
364.343	0.2367
364.5513	0.2263
364.7595	0.2371
364.9678	0.2225
365.176	0.2347
365.3842	0.23
365.5925	0.2358
365.8007	0.2412
366.0089	0.2505
366.217	0.2363
366.4252	0.2406
366.6333	0.2426
366.8415	0.2416
367.0496	0.2393
367.2577	0.2454
367.4658	0.2393
367.6739	0.2375
367.882	0.2404
368.09	0.2455
368.2981	0.2561
368.5061	0.2511
368.7141	0.2555
368.9221	0.2596
369.1301	0.2537
369.3381	0.2557
369.5461	0.2516
369.754	0.259
369.962	0.2572
370.1699	0.2609
370.3778	0.2677
370.5857	0.2589
370.7936	0.2598
371.0015	0.2595
371.2093	0.2567
371.4172	0.2595
371.625	0.2637
371.8328	0.264
372.0406	0.2673
372.2484	0.2714
372.4562	0.2697
372.664	0.2757
372.8717	0.2716
373.0795	0.2753
373.2872	0.2792
373.4949	0.2843
373.7026	0.2684
373.9103	0.2713
374.118	0.2758
374.3256	0.2756
374.5333	0.2803
374.7409	0.2773
374.9485	0.2765
375.1561	0.2881
375.3637	0.2746
375.5713	0.2879
375.7789	0.2837
375.9864	0.2818
376.194	0.2847
376.4015	0.2849
376.609	0.282
376.8165	0.2905
377.024	0.2901
377.2315	0.2908
377.4389	0.2824
377.6464	0.2955
377.8538	0.2899
378.0612	0.2869
378.2686	0.2903
378.476	0.3
378.6834	0.2876
378.8908	0.2965
379.0981	0.2917
379.3055	0.2941
379.5128	0.2897
379.7201	0.3001
379.9274	0.2937
380.1347	0.298
380.342	0.3067
380.5492	0.3012
380.7565	0.2971
380.9637	0.2962
381.1709	0.2995
381.3781	0.2972
381.5853	0.3006
381.7925	0.2953
381.9997	0.3063
382.2068	0.3116
382.4139	0.3065
382.6211	0.3101
382.8282	0.3127
383.0353	0.3144
383.2424	0.3065
383.4494	0.3089
383.6565	0.3068
383.8635	0.3028
384.0706	0.3118
384.2776	0.3092
384.4846	0.3084
384.6916	0.3102
384.8986	0.319
385.1055	0.3186
385.3125	0.3127
385.5194	0.3123
385.7263	0.3108
385.9333	0.3118
386.1402	0.3103
386.347	0.3039
386.5539	0.3189
386.7608	0.3071
386.9676	0.3023
387.1744	0.3114
387.3813	0.3205
387.5881	0.3026
387.7948	0.3211
388.0016	0.3196
388.2084	0.3159
388.4151	0.3084
388.6219	0.3091
388.8286	0.3227
389.0353	0.3136
389.242	0.3101
389.4487	0.3095
389.6553	0.3022
389.862	0.3017
390.0686	0.3021
390.2753	0.3046
390.4819	0.3004
390.6885	0.2983
390.8951	0.3075
391.1016	0.3064
391.3082	0.3049
391.5147	0.3068
391.7213	0.2923
391.9278	0.2946
392.1343	0.2961
392.3408	0.3076
392.5473	0.2981
392.7537	0.2906
392.9602	0.2927
393.1666	0.298
393.373	0.2889
393.5794	0.2839
393.7858	0.2931
393.9922	0.2854
394.1986	0.2858
394.4049	0.2841
394.6113	0.2802
394.8176	0.286
395.0239	0.2782
395.2302	0.2778
395.4365	0.2852
395.6428	0.2797
395.8491	0.2788
396.0553	0.2812
396.2615	0.2838
396.4678	0.2783
396.674	0.2684
396.8802	0.2787
397.0863	0.2734
397.2925	0.2762
397.4987	0.2638
397.7048	0.2884
397.9109	0.2651
398.117	0.2707
398.3231	0.2687
398.5292	0.2632
398.7353	0.2703
398.9413	0.2711
399.1474	0.2641
399.3534	0.2679
399.5594	0.2708
399.7654	0.2678
399.9714	0.2672
400.1774	0.2725
400.3833	0.2651
400.5893	0.2693
400.7952	0.2701
401.0011	0.2701
401.207	0.2721
401.4129	0.263
401.6188	0.2621
401.8247	0.2809
402.0305	0.255
402.2364	0.2595
402.4422	0.2774
402.648	0.2638
402.8538	0.263
403.0596	0.2628
403.2654	0.2681
403.4711	0.2602
403.6768	0.2592
403.8826	0.2716
404.0883	0.265
404.294	0.2611
404.4997	0.2723
404.7054	0.2646
404.911	0.2644
405.1167	0.2646
405.3223	0.2616
405.5279	0.2606
405.7335	0.2706
405.9391	0.2594
406.1447	0.2669
406.3502	0.261
406.5558	0.2643
406.7613	0.2631
406.9668	0.2599
407.1724	0.2683
407.3778	0.2567
407.5833	0.2644
407.7888	0.2685
407.9942	0.2685
408.1997	0.2644
408.4051	0.2641
408.6105	0.271
408.8159	0.2633
409.0213	0.2599
409.2267	0.266
409.432	0.2638
409.6374	0.2733
409.8427	0.2687
410.048	0.2641
410.2533	0.2734
410.4586	0.2497
410.6639	0.2726
410.8691	0.259
411.0744	0.2581
411.2796	0.2594
411.4848	0.2597
411.69	0.2585
411.8952	0.2616
412.1004	0.2649
412.3056	0.2454
412.5107	0.2684
412.7158	0.272
412.921	0.2568
413.1261	0.2584
413.3312	0.2639
413.5362	0.276
413.7413	0.2579
413.9464	0.2481
414.1514	0.256
414.3564	0.2615
414.5614	0.2455
414.7664	0.2604
414.9714	0.2501
415.1764	0.2624
415.3813	0.2545
415.5863	0.2556
415.7912	0.2627
415.9961	0.256
416.201	0.2655
416.4059	0.2575
416.6108	0.2544
416.8156	0.2486
417.0205	0.2627
417.2253	0.2525
417.4301	0.2657
417.6349	0.2508
417.8397	0.2414
418.0445	0.2469
418.2492	0.252
418.454	0.2393
418.6587	0.2554
418.8634	0.257
419.0681	0.2598
419.2728	0.2439
419.4775	0.261
419.6822	0.2439
419.8868	0.2367
420.0915	0.2426
420.2961	0.2435
420.5007	0.2456
420.7053	0.2387
420.9099	0.2457
421.1144	0.2564
421.319	0.2455
421.5235	0.2375
421.728	0.2475
421.9325	0.249
422.137	0.2443
422.3415	0.2345
422.546	0.2361
422.7504	0.2407
422.9549	0.247
423.1593	0.2394
423.3637	0.235
423.5681	0.2412
423.7725	0.2381
423.9769	0.2395
424.1812	0.2215
424.3856	0.2259
424.5899	0.2336
424.7942	0.2212
424.9985	0.2289
425.2028	0.2361
425.4071	0.2321
425.6113	0.2229
425.8156	0.2278
426.0198	0.2315
426.224	0.2298
426.4282	0.2179
426.6324	0.2129
426.8366	0.2072
427.0407	0.2291
427.2449	0.2102
427.449	0.2154
427.6531	0.2238
427.8572	0.2192
428.0613	0.2181
428.2654	0.2151
428.4694	0.2021
428.6735	0.205
428.8775	0.203
429.0815	0.2037
429.2855	0.2102
429.4895	0.2037
429.6935	0.206
429.8975	0.1871
430.1014	0.2049
430.3053	0.203
430.5093	0.1965
430.7132	0.1941
430.9171	0.1885
431.1209	0.191
431.3248	0.1796
431.5286	0.1947
431.7325	0.1965
431.9363	0.1848
432.1401	0.1852
432.3439	0.1798
432.5477	0.184
432.7514	0.1803
432.9552	0.1719
433.1589	0.1773
433.3627	0.1804
433.5664	0.1669
433.7701	0.1696
433.9737	0.1759
434.1774	0.1756
434.3811	0.1638
434.5847	0.1593
434.7883	0.1619
434.9919	0.1565
435.1955	0.1654
435.3991	0.1586
435.6027	0.1606
435.8062	0.1734
436.0098	0.1536
436.2133	0.151
436.4168	0.1562
436.6203	0.1445
436.8238	0.1529
437.0272	0.1387
437.2307	0.1415
437.4341	0.1392
437.6375	0.1377
437.841	0.138
438.0443	0.1309
438.2477	0.1263
438.4511	0.1348
438.6545	0.1326
438.8578	0.1276
439.0611	0.1294
439.2644	0.1207
439.4677	0.1271
439.671	0.1181
439.8743	0.1239
440.0775	0.112
440.2808	0.1205
440.484	0.1123
440.6872	0.1098
440.8904	0.1038
441.0936	0.1128
441.2967	0.1023
441.4999	0.1017
441.703	0.1058
441.9062	0.1069
442.1093	0.1134
442.3124	0.1011
442.5155	0.1032
442.7185	0.0892
442.9216	0.1002
443.1246	0.0965
443.3276	0.0928
443.5307	0.0921
443.7337	0.1032
443.9366	0.0822
444.1396	0.0843
444.3426	0.081
444.5455	0.0864
444.7484	0.0805
444.9513	0.0865
445.1542	0.085
445.3571	0.0896
445.56	0.0792
445.7628	0.0699
445.9657	0.0811
446.1685	0.0844
446.3713	0.0764
446.5741	0.0762
446.7769	0.0775
446.9797	0.0805
447.1824	0.0691
447.3852	0.0613
447.5879	0.0711
447.7906	0.0578
447.9933	0.0659
448.196	0.0557
448.3986	0.0596
448.6013	0.0511
448.8039	0.0666
449.0066	0.0664
449.2092	0.0625
449.4118	0.0655
449.6143	0.0566
449.8169	0.061
450.0195	0.0573
450.222	0.0556
450.4245	0.0532
450.627	0.0506
450.8295	0.0515
451.032	0.0499
451.2345	0.0475
451.4369	0.0485
451.6394	0.0493
451.8418	0.048
452.0442	0.0431
452.2466	0.0412
452.449	0.0491
452.6513	0.0379
452.8537	0.0397
453.056	0.0465
453.2583	0.0343
453.4607	0.029
453.663	0.0355
453.8652	0.0303
454.0675	0.0525
454.2697	0.0364
454.472	0.0314
454.6742	0.0472
454.8764	0.0426
455.0786	0.0338
455.2808	0.0354
455.4829	0.0382
455.6851	0.0384
455.8872	0.0263
456.0893	0.0348
456.2915	0.0287
456.4935	0.0398
456.6956	0.0289
456.8977	0.0329
457.0997	0.0336
457.3018	0.0178
457.5038	0.0339
457.7058	0.0361
457.9078	0.0308
458.1098	0.0282
458.3117	0.0375
458.5137	0.0146
458.7156	0.0332
458.9175	0.0344
459.1194	0.0215
459.3213	0.0213
459.5232	0.0233
459.725	0.0275
459.9269	0.0233
460.1287	0.0246
460.3305	0.025
460.5323	0.0222
460.7341	0.0262
460.9359	0.0134
461.1376	0.0177
461.3394	0.0249
461.5411	0.0293
461.7428	0.0197
461.9445	0.0238
462.1462	0.0192
462.3479	0.0168
462.5495	0.0221
462.7512	0.0306
462.9528	0.0212
463.1544	0.0169
463.356	0.0199
463.5576	0.0243
463.7592	0.0138
463.9607	0.0171
464.1623	0.0181
464.3638	0.0161
464.5653	0.0269
464.7668	0.0242
464.9683	0.0229
465.1697	0.0137
465.3712	0.0124
465.5726	0.0172
465.7741	0.0225
465.9755	0.0248
466.1769	0.0164
466.3782	0.0107
466.5796	0.013
466.7809	0.0278
466.9823	0.0132
467.1836	0.0154
467.3849	0.0157
467.5862	0.0083
467.7875	0.0215
467.9887	0.0142
468.19	0.0221
468.3912	0.0176
468.5924	0.0201
468.7936	0.0178
468.9948	0.0089
469.196	0.0153
469.3972	0.0087
469.5983	0.0112
469.7994	0.02
470.0006	0.0114
470.2017	0.0143
470.4027	0.0262
470.6038	0.0162
470.8049	0.0072
471.0059	0.0121
471.2069	0.0173
471.408	0.0226
471.6089	0.0159
471.8099	0.0196
472.0109	0.0148
472.2119	0.0228
472.4128	0.0118
472.6137	0.0157
472.8146	0.0187
473.0155	0.0306
473.2164	0.012
473.4173	0.0059
473.6181	0.0035
473.819	0.0102
474.0198	0.002
474.2206	0.0048
474.4214	0.0169
474.6222	0.0046
474.8229	0.0053
475.0237	0.0123
475.2244	0.0147
475.4251	0.0134
475.6258	0.0079
475.8265	0.0154
476.0272	0.0114
476.2278	0.0133
476.4285	0.0097
476.6291	0.0132
476.8297	0.0169
477.0303	-0.0028
477.2309	0.0223
477.4315	0.0153
477.632	0.0146
477.8326	0.0123
478.0331	0.0105
478.2336	0.0066
478.4341	0.0167
478.6346	0.0045
478.8351	0.0103
479.0355	0.0128
479.236	0.0185
479.4364	0.0118
479.6368	0.0071
479.8372	0.0129
480.0376	0.0116
480.2379	0.0144
480.4383	0.0134
480.6386	-0.0002
480.8389	0.0111
481.0392	0.0095
481.2395	0.0202
481.4398	0.0176
481.6401	0.0159
481.8403	0.0073
482.0405	0.0095
482.2408	0.0075
482.441	0.0164
482.6411	0.0152
482.8413	0.0077
483.0415	0.0198
483.2416	0.0081
483.4417	0.0115
483.6419	-0
483.8419	0.0088
484.042	0.0136
484.2421	0.0075
484.4422	0.0067
484.6422	0.0057
484.8422	0.0173
485.0422	0.0088
485.2422	0.0061
485.4422	0.008
485.6422	0.0062
485.8421	0.0065
486.042	0.0155
486.242	0.01
486.4419	0.01
486.6417	0.0068
486.8416	0.012
487.0415	0.0074
487.2413	0.0046
487.4411	0.009
487.641	0.01
487.8408	0.01
488.0405	0.0116
488.2403	0.0051
488.4401	0.0128
488.6398	0.013
488.8395	0.0101
489.0392	0.0193
489.2389	0.0117
489.4386	0.0078
489.6383	0.009
489.8379	0.0026
490.0376	0.0132
490.2372	0.0072
490.4368	0.0073
490.6364	0.0059
490.836	0.0052
491.0355	0.0092
491.2351	0.0107
491.4346	0.0094
491.6341	0.0113
491.8336	0.0156
492.0331	0.003
492.2326	0.0113
492.432	0.01
492.6315	0.0178
492.8309	0.0115
493.0303	0.0121
493.2297	0.0124
493.4291	0.0089
493.6284	0.0154
493.8278	0.0115
494.0271	0.0124
494.2264	0.0097
494.4257	0.0139
494.625	0.0032
494.8243	0.0042
495.0236	0.016
495.2228	0.0214
495.422	0.008
495.6213	0.0112
495.8205	0.0131
496.0196	0.0068
496.2188	0.0116
496.418	0.004
496.6171	0.0064
496.8162	0.0051
497.0153	0.0172
497.2144	0.0149
497.4135	0.0055
497.6126	0.0155
497.8116	0.0087
498.0107	0.0094
498.2097	0.0152
498.4087	0.007
498.6077	0.0012
498.8067	0.0134
499.0056	0.0099
499.2046	0.0146
499.4035	0.0116
499.6024	0.0028
499.8013	0.0133
500.0002	0.0156
500.199	0.0245
500.3979	0.0037
500.5967	0.0005
500.7956	0.011
500.9944	0.0068
501.1932	0.0113
501.3919	0.0172
501.5907	0.0145
501.7895	0.0095
501.9882	0.0092
502.1869	0.0165
502.3856	0.0145
502.5843	0.0124
502.783	0.0088
502.9816	0.0149
503.1803	0.0112
503.3789	0.018
503.5775	0.0065
503.7761	0.0091
503.9747	0.0088
504.1732	0.0056
504.3718	0.0149
504.5703	0.0073
504.7689	0.0039
504.9674	0.0013
505.1658	0.0116
505.3643	0.0145
505.5628	0.0103
505.7612	0.0118
505.9597	0.0058
506.1581	0.0154
506.3565	0.0145
506.5549	0.0075
506.7532	0.0066
506.9516	0.0112
507.1499	0.0131
507.3482	0.0123
507.5465	0.0173
507.7448	0.0116
507.9431	0.0148
508.1414	0.0107
508.3396	0.0134
508.5379	0.0056
508.7361	0.0062
508.9343	0.0144
509.1325	0.021
509.3306	0.0121
509.5288	-0.001
509.7269	0.0167
509.9251	0.0153
510.1232	0.0126
510.3213	0.0116
510.5193	0.0078
510.7174	0.0014
510.9154	0.0071
511.1135	0.0102
511.3115	0.008
511.5095	0.0076
511.7075	0.0107
511.9055	0.0103
512.1034	0.0133
512.3014	0.0049
512.4993	0.0133
512.6972	0.0053
512.8951	0.0132
513.093	0.006
513.2908	0.0228
513.4887	0.0068
513.6865	0.0074
513.8844	0.0157
514.0822	0.0113
514.2799	-0.0009
514.4777	0.0085
514.6755	0.003
514.8732	0.0115
515.0709	0.0049
515.2687	0.0081
515.4664	0.0249
515.664	0.0058
515.8617	0.0255
516.0594	0.0106
516.257	0.0082
516.4546	0.0227
516.6522	0.0115
516.8498	0.0058
517.0474	0.0186
517.2449	0.0047
517.4425	0.0116
517.64	0.0097
517.8375	0.0106
518.035	0.006
518.2325	0.007
518.43	0.0046
518.6274	0.0096
518.8249	0.0133
519.0223	0.0139
519.2197	0.0116
519.4171	0.0172
519.6145	0.0232
519.8118	0.0032
520.0092	0.0131
520.2065	0.0197
520.4038	0.0141
520.6011	0.0192
520.7984	0.0103
520.9956	0.0092
521.1929	0.0075
521.3901	0.0128
521.5874	0.0141
521.7846	0.0027
521.9818	0.0191
522.1789	-0.0013
522.3761	0.0167
522.5732	0.0086
522.7704	0.0073
522.9675	0.0067
523.1646	-0.0041
523.3617	0.0065
523.5587	0.0089
523.7558	0.0077
523.9528	0.0197
524.1498	0.0118
524.3468	0.008
524.5438	0.008
524.7408	-0.0024
524.9378	0.0145
525.1347	0.013
525.3316	0.0091
525.5285	0.0126
525.7254	0.0168
525.9223	0.0226
526.1192	0.0173
526.316	0.0082
526.5129	0.0131
526.7097	0.0095
526.9065	0.0143
527.1033	0.0045
527.3	0.0196
527.4968	0.0131
527.6935	-0.0012
527.8903	0.0048
528.087	0.0137
528.2837	0.016
528.4804	0.0007
528.677	0.0047
528.8737	0.0079
529.0703	0.0143
529.2669	0.0246
529.4635	0.0079
529.6601	0.0014
529.8567	0.0004
530.0532	0.0068
530.2498	0.0115
530.4463	-0.0013
530.6428	0.0084
530.8393	0.0094
531.0358	0.0166
531.2322	-0.0016
531.4287	0.0157
531.6251	0.004
531.8215	0.0152
532.0179	0.0136
532.2143	0.0075
532.4107	0.0146
532.607	-0.0019
532.8034	0.0044
532.9997	-0.0023
533.196	0.0059
533.3923	0.0166
533.5886	0.0127
533.7848	0.0034
533.9811	0.0053
534.1773	0.0079
534.3735	0.0103
534.5697	0.0126
534.7659	0.0139
534.9621	0.0128
535.1582	0.0155
535.3544	0.0185
535.5505	0.0189
535.7466	0.0096
535.9427	0.0132
536.1387	0.0034
536.3348	0.015
536.5308	0.0092
536.7269	0.0011
536.9229	0.0087
537.1189	0.0154
537.3148	0.014
537.5108	0.0038
537.7068	0.0081
537.9027	-0.0049
538.0986	0.0081
538.2945	0.0108
538.4904	0.0042
538.6863	0.0094
538.8821	0.0112
539.078	0.0049
539.2738	0.0044
539.4696	-0.0011
539.6654	0.0113
539.8611	0.0167
540.0569	0.0044
540.2526	0.0213
540.4484	0.0011
540.6441	0.0104
540.8398	0.0196
541.0355	0.0104
541.2311	0.0113
541.4268	0.0159
541.6224	0.0213
541.818	0.0158
542.0136	0.0166
542.2092	0.0179
542.4048	0.0059
542.6003	0.0078
542.7959	0.0149
542.9914	0.0073
543.1869	0.005
543.3824	0.0216
543.5779	0.0257
543.7734	0.0161
543.9688	0.0139
544.1642	0.0096
544.3596	0.0157
544.555	0.0046
544.7504	0.0097
544.9458	0.0121
545.1411	0.0103
545.3365	0.0092
545.5318	0.0172
545.7271	0.0172
545.9224	0.0078
546.1177	0.0133
546.3129	0.0096
546.5081	0.0151
546.7034	0.0062
546.8986	0.0092
547.0938	0.0149
547.289	0.0189
547.4841	0.0064
547.6793	0.0021
547.8744	0.0114
548.0695	0.0042
548.2646	0.015
548.4597	0.0045
548.6548	0.0168
548.8498	0.0154
549.0448	0.0122
549.2399	0.0208
549.4349	0.0028
549.6298	0.0129
549.8248	0.002
550.0198	0.0212
550.2147	0.0085
550.4096	0.0027
550.6045	0.0016
550.7994	0.0099
550.9943	0.0127
551.1892	0.0056
551.384	0.0042
551.5788	0.0129
551.7737	0.009
551.9685	0.0075
552.1632	0.006
552.358	0.0072
552.5528	0.0188
552.7475	0.0065
552.9422	0.0169
553.1369	0.0138
553.3316	0.0096
553.5263	0.0055
553.7209	0.0089
553.9156	0.0189
554.1102	0.0078
554.3048	-0.0023
554.4994	0.0169
554.694	0.0152
554.8885	0.0013
555.0831	0.0114
555.2776	0.0035
555.4721	0.016
555.6666	0.0096
555.8611	0.0166
556.0555	0.0149
556.25	0.0193
556.4444	-0.0005
556.6388	0.0063
556.8332	0.0105
557.0276	0.0048
557.222	0.0158
557.4163	0.0129
557.6107	0.0016
557.805	0.0071
557.9993	0.0128
558.1936	0.0013
558.3879	0.0148
558.5821	0.0139
558.7764	0.0049
558.9706	0.0198
559.1648	0.0156
559.359	0.0047
559.5532	0.0063
559.7473	0.0018
559.9415	0.0078
560.1356	0.0168
560.3297	0.0018
560.5238	0.0104
560.7179	0.0019
560.9119	0.0094
561.106	0.001
561.3	0.0173
561.494	0.0068
561.688	0.0044
561.882	0.0061
562.076	0.0098
562.2699	0.0075
562.4639	0.0225
562.6578	0.0168
562.8517	0.0111
563.0456	0.0085
563.2395	0.021
563.4333	0.0063
563.6272	0.0104
563.821	0.007
564.0148	-0.0005
564.2086	0.008
564.4024	0.0105
564.5961	0.0099
564.7899	0.0219
564.9836	0.0095
565.1773	0.0117
565.371	0.0143
565.5647	0.0123
565.7584	0.0161
565.952	0.0049
566.1456	0.0154
566.3393	0.0023
566.5329	0.006
566.7264	0.0061
566.92	0.0082
567.1136	0.0008
567.3071	0.0056
567.5006	0.0133
567.6941	0.0064
567.8876	0.0137
568.0811	0.0202
568.2745	0.0036
568.468	0.0093
568.6614	0.0122
568.8548	0.0117
569.0482	0.0088
569.2416	0.009
569.4349	0.0075
569.6283	0.0057
569.8216	0.0133
570.0149	0.0026
570.2082	0.0159
570.4015	0.0112
570.5947	0.0065
570.788	0.0124
570.9812	0.009
571.1744	0.006
571.3676	0.0064
571.5608	0.0059
571.754	0.0164
571.9471	0.0119
572.1402	0.0088
572.3333	0.0111
572.5264	0.0096
572.7195	0.0044
572.9126	0.0062
573.1057	0.0098
573.2987	0.0079
573.4917	0.0076
573.6847	0.0057
573.8777	0.0127
574.0707	0.0084
574.2636	0.0052
574.4566	0.0086
574.6495	0.006
574.8424	0.0088
575.0353	0.0084
575.2281	0.0119
575.421	0.0038
575.6138	0.0052
575.8067	0.0114
575.9995	0.0076
576.1923	0.0123
576.385	0.0116
576.5778	0.0143
576.7706	0.0092
576.9633	0.0097
577.156	0.0024
577.3487	0.0052
577.5414	0.0068
577.734	0.0033
577.9267	0.0098
578.1193	0.0102
578.3119	0.0022
578.5045	0.0079
578.6971	0.0057
578.8897	0.0066
579.0822	0.014
579.2747	0.0069
579.4673	0.0055
579.6598	0.0119
579.8522	0.0113
580.0447	0.0131
580.2372	0.0107
580.4296	0.013
580.622	0.0081
580.8144	0.006
581.0068	0.0054
581.1992	0.0069
581.3915	0.0017
581.5839	0.0079
581.7762	0.0044
581.9685	0.0112
582.1608	0.0064
582.353	0.0073
582.5453	0.0094
582.7375	0.012
582.9298	0.007
583.122	0.0062
583.3142	0.0081
583.5063	0.0054
583.6985	0.0059
583.8906	0.0064
584.0827	0.0071
584.2749	0.0048
584.4669	0.0083
584.659	0.0107
584.8511	0.009
585.0431	0.0097
585.2352	0.0054
585.4272	0.0081
585.6192	0.0074
585.8111	0.0106
586.0031	0.0073
586.195	0.0038
586.387	0.0056
586.5789	0.0126
586.7708	0.012
586.9627	0.0088
587.1545	0.0082
587.3464	0.0084
587.5382	0.0052
587.73	0.0134
587.9218	0.01
588.1136	0.0003
588.3053	0.0109
588.4971	0.0054
588.6888	0.0057
588.8805	0.0048
589.0722	0.0196
589.2639	0.0093
589.4556	0.0083
589.6472	0.0162
589.8389	0.0074
590.0305	0.0064
590.2221	0.0096
590.4137	0.0044
590.6052	0.0101
590.7968	0.012
590.9883	0.0102
591.1798	0.0038
591.3713	0.006
591.5628	0.0119
591.7543	0.0098
591.9458	0.0061
592.1372	0.0062
592.3286	0.0093
592.52	0.0104
592.7114	0.0084
592.9028	0.0103
593.0941	0.0031
593.2855	0.0082
593.4768	0.0074
593.6681	0.0136
593.8594	0.009
594.0506	0.0105
594.2419	0.0071
594.4331	0.0067
594.6244	0.0049
594.8156	0.0069
595.0067	0.0041
595.1979	0.0028
595.3891	0.0066
595.5802	0.0139
595.7713	0.0055
595.9624	0.0147
596.1535	0.0043
596.3446	0.006
596.5357	0.0076
596.7267	0.0089
596.9177	0.011
597.1087	0.009
597.2997	0.0137
597.4907	0.0023
597.6817	0.0124
597.8726	0.0138
598.0635	0.0082
598.2544	0.0087
598.4453	0.0046
598.6362	0.0077
598.827	0.0047
599.0179	0.0088
599.2087	0.0164
599.3995	0.0091
599.5903	0.0105
599.7811	0.0154
599.9718	0.0041
600.1626	0.0071
600.3533	0.0047
600.544	0.0069
600.7347	0.006
600.9254	0.0161
601.116	0.0116
601.3067	0.0098
601.4973	0.013
601.6879	0.0101
601.8785	0.0109
602.0691	0.0061
602.2596	0.0034
602.4502	0.0148
602.6407	0.0092
602.8312	0.0117
603.0217	0.0095
603.2122	0.0108
603.4027	0.0065
603.5931	0.0109
603.7835	0.0096
603.9739	0.0055
604.1643	0.0132
604.3547	0.0146
604.5451	0.0096
604.7354	0.0034
604.9257	0.0089
605.116	0.0018
605.3063	0.0101
605.4966	0.0051
605.6869	0.0173
605.8771	0.0113
606.0673	0.0054
606.2575	0.0019
606.4477	0.0119
606.6379	0.0023
606.8281	0.0044
607.0182	0.0074
607.2083	0.013
607.3985	0.0048
607.5885	0.0046
607.7786	0.0065
607.9687	0.0127
608.1587	0.0107
608.3488	0.0079
608.5388	0.0074
608.7288	0.0012
608.9187	0.0065
609.1087	0.0124
609.2986	0.0101
609.4886	0.0117
609.6785	0.0162
609.8684	-0.0006
610.0582	0.0077
610.2481	0.0019
610.4379	0.0101
610.6278	0.0098
610.8176	0.0128
611.0074	0.0131
611.1971	0.0086
611.3869	0.0149
611.5766	0.0001
611.7664	0.0155
611.9561	0.0104
612.1458	0.0084
612.3354	0.0124
612.5251	0.0099
612.7147	0.0081
612.9044	0.0111
613.094	0.0118
613.2836	0.0058
613.4731	0.0102
613.6627	0.0087
613.8522	0.0095
614.0417	0.013
614.2313	0.0143
614.4207	0.0146
614.6102	0.009
614.7997	0.0144
614.9891	0.0118
615.1785	0.0072
615.3679	0.0068
615.5573	0.0122
615.7467	0.0002
615.9361	0.0083
616.1254	0.0161
616.3147	0.0078
616.504	0.0108
616.6933	0.0012
616.8826	0.0085
617.0718	0.0135
617.2611	0.0092
617.4503	0.0087
617.6395	0.0079
617.8287	0.0096
618.0179	0.0027
618.207	0.0146
618.3961	0.0076
618.5853	0.0018
618.7744	0.0112
618.9634	0.0182
619.1525	0.0107
619.3416	0.0079
619.5306	0.0143
619.7196	0.0102
619.9086	0.0105
620.0976	-0.0028
620.2866	0.0126
620.4755	0.0049
620.6645	0.0105
620.8534	0.0117
621.0423	0.0053
621.2312	0.0083
621.42	0.0055
621.6089	-0.001
621.7977	0.0115
621.9865	0.0054
622.1753	0.005
622.3641	0.0043
622.5529	0.0058
622.7416	0.0043
622.9303	0.001
623.1191	0.0135
623.3078	0.0085
623.4964	0.0101
623.6851	0.0111
623.8737	0.0114
624.0624	-0.0017
624.251	0.0093
624.4396	0.0161
624.6282	0.0119
624.8167	0.0043
625.0053	0.0218
625.1938	0.0065
625.3823	0.0113
625.5708	0.0084
625.7593	0.0119
625.9477	0.0063
626.1362	0.0082
626.3246	0.006
626.513	0.0025
626.7014	0.0158
626.8898	0.0053
627.0781	0.0164
627.2665	0.011
627.4548	0.0008
627.6431	0.017
627.8314	0.0194
628.0197	0.0186
628.2079	0.0016
628.3962	0.0143
628.5844	0.012
628.7726	0.0028
628.9608	0.0067
629.1489	0.0116
629.3371	-0
629.5252	0.0121
629.7134	0.0018
629.9015	0.0269
630.0895	-0.0038
630.2776	0.0112
630.4657	0.0156
630.6537	0.0046
630.8417	-0.0063
631.0297	0.0135
631.2177	0.0145
631.4057	0.01
631.5936	0.0087
631.7815	0.0239
631.9695	0.0308
632.1574	0.0321
632.3452	0.0169
632.5331	0.0117
632.7209	0.0203
632.9088	0.0095
633.0966	0.0257
633.2844	0.0084
633.4722	0.0065
633.6599	0.0221
633.8477	0.014
634.0354	0.0087
634.2231	-0.0018
634.4108	0.0045
634.5985	0.0175
634.7861	0.0001
634.9738	0.01
635.1614	0.0049
635.349	0.0048
635.5366	0.0073
635.7242	0.013
635.9117	0.0172
636.0993	0.0122
636.2868	0.0051
636.4743	0.009
636.6618	-0.0062
636.8492	0.0212
637.0367	-0.0037
637.2241	0.0161
637.4115	0.0302
637.5989	0.007
637.7863	0.0296
637.9737	0.0165
638.161	0.0063
638.3484	-0.0092
638.5357	0.0079
638.723	0.0304
638.9103	0.0051
639.0975	0.0064
639.2848	0.0152
639.472	0.0305
639.6592	-0.0022
639.8464	0.0047
640.0336	0.0203
640.2208	0.0092
640.4079	-0.0095
640.595	0.0024
640.7821	0.0062
640.9692	0.0081
641.1563	0.0241
641.3434	0.0236
641.5304	0.0256
641.7174	0.0346
641.9044	0.0098
642.0914	0.0209
642.2784	0.009
642.4653	-0.0093
642.6523	0.0128
642.8392	0.0006
643.0261	0.0096
643.213	0.0057
643.3999	0.0255
643.5867	0.0155
643.7735	-0.0051
643.9604	0.023
644.1472	0.0209
644.3339	0.0178
644.5207	0.0084
644.7075	-0.0065
644.8942	-0.0036
645.0809	0.0042
645.2676	-0.0104
645.4543	-0.0061
645.6409	0.0191
645.8276	0.0203
646.0142	0.001
646.2008	0.0107
646.3874	0.0063
646.574	-0.0024
646.7605	0.0061
646.9471	0.012
647.1336	-0.0268
647.3201	0.0225
647.5066	0.0064
647.6931	0.0182
647.8795	0.0039
648.0659	0.0001
648.2524	0.0186
648.4388	0.0126
648.6252	0.0441
648.8115	0.0035
648.9979	0.0198
649.1842	0.027
649.3705	0.0209
649.5568	-0.0017
649.7431	-0.0073
649.9294	0.0117
650.1156	-0.0013
650.3018	0.0114
650.488	0.0092
650.6742	0.0287
650.8604	0.0147
651.0466	-0.0116
651.2327	0.0272
651.4188	0.0264
651.6049	0.0255
651.791	0.0088
651.9771	0.003
652.1632	0.0182
652.3492	0.007
652.5352	0.0146
652.7212	0.0062
652.9072	0.0018
653.0932	-0.0001
653.2791	0.0179
653.465	0.0163
653.651	0.03
653.8369	0.0246
654.0227	0.0006
654.2086	0.0275
654.3944	0.0119
654.5803	0.0043
654.7661	0.009
654.9519	-0.0007
655.1377	0.0001
655.3234	0.0001
655.5092	0.0001
655.6949	0.0001
655.8806	0.0001
656.0663	0.0001
656.2519	0.0001
656.4376	0.0001
656.6232	0.0001
656.8088	0.0001
656.9945	0.0001
657.18	0.0001
657.3656	0.0001
657.5511	0.0001
657.7367	0.0001
657.9222	0.0001
658.1077	0.0001
658.2932	0.0001
658.4786	0.0001
658.6641	0.0001
658.8495	0.0001
659.0349	0.0001
659.2203	0.0001
659.4057	0.006
659.591	0.2619
659.7764	0.0376
659.9617	0.0099
660.147	0.0167
660.3323	0.0175
660.5176	0.0054
660.7028	-0.0028
660.888	0.0063
661.0733	0.0336
661.2585	-0.0163
661.4436	0.0206
661.6288	0.0207
661.8139	0.0103
661.9991	0.0004
662.1842	-0.0079
662.3693	0.0078
662.5544	-0.0006
662.7394	0.0189
662.9245	0.0127
663.1095	-0.008
663.2945	-0.0134
663.4795	0.0032
663.6644	-0.01
663.8494	0.0306
664.0343	0.0238
664.2193	0.0023
664.4042	0.0207
664.589	0.0118
664.7739	0.0149
664.9587	-0.0025
665.1436	-0.0052
665.3284	0.0181
665.5132	-0.0063
665.698	0.0231
665.8827	0.0349
666.0675	-0.0135
666.2522	0.0211
666.4369	-0.0014
666.6216	0.0186
666.8063	0.007
666.9909	0.0091
667.1756	0.0079
667.3602	-0.0063
667.5448	0.0064
667.7294	0.0289
667.9139	0.0256
668.0985	0.014
668.283	0.012
668.4675	0.0268
668.652	0.0386
668.8365	0.0009
669.0209	0.0309
669.2054	0.0257
669.3898	0.0079
669.5742	0.0165
669.7586	0.0233
669.943	0.0285
670.1273	0.005
670.3117	0.0104
670.496	0.0031
670.6803	0.0213
670.8646	-0.0072
671.0488	0.0429
671.2331	-0.0188
671.4173	-0.0001
671.6015	0.0169
671.7857	0.0228
671.9699	0.015
672.1541	0.0108
672.3382	0.0212
672.5223	0.0188
672.7064	0.0156
672.8905	-0.01
673.0746	0.0086
673.2587	0.004
673.4427	-0.0006
673.6267	0.0197
673.8107	0.012
673.9947	0.0204
674.1787	-0.0124
674.3626	0.0271
674.5465	0.0304
674.7304	0.0101
674.9143	-0.0007
675.0982	0.0096
675.2821	0.0101
675.4659	-0.0062
675.6497	0.0196
675.8335	0.0245
676.0173	0.0033
676.2011	0.0244
676.3849	0.0027
676.5686	0.0164
676.7523	-0.0128
676.936	0.0189
677.1197	0.0018
677.3034	0.0268
677.487	0.0258
677.6706	-0.0062
677.8542	0.0051
678.0378	0.0177
678.2214	0.0142
678.405	0.0043
678.5885	0.016
678.772	0.0131
678.9555	-0.0042
679.139	0.0133
679.3225	0.0041
679.5059	0.0108
679.6894	0.0106
679.8728	-0.0039
680.0562	0.0019
680.2395	0.0066
680.4229	0.0007
680.6062	0.028
680.7896	-0.0023
680.9729	0.026
681.1562	0.0002
681.3394	0.0079
681.5227	0.0164
681.7059	0.0117
681.8891	0.0198
682.0723	-0.0025
682.2555	0.0116
682.4387	0.0354
682.6218	0.0256
682.805	0.0298
682.9881	0.0324
683.1712	0.0116
683.3542	0.0208
683.5373	-0.0052
683.7203	0.0182
683.9034	0.0082
684.0864	0.0043
684.2694	0.0081
684.4523	0.0262
684.6353	0.0029
684.8182	0.0118
685.0011	0.0174
685.184	0.0006
685.3669	0.0194
685.5498	0.0026
685.7326	-0.0053
685.9154	-0.0052
686.0982	0.0327
686.281	-0.004
686.4638	0.0172
686.6465	0.011
686.8293	-0.0063
687.012	0.0201
687.1947	0.0076
687.3774	0.0071
687.56	-0.0099
687.7427	-0.0146
687.9253	-0.0033
688.1079	0.0188
688.2905	0.0017
688.4731	0.0207
688.6556	0.0139
688.8382	-0.0142
689.0207	0.0223
689.2032	0.0104
689.3857	0.012
689.5681	-0.0001
689.7506	0.0347
689.933	0.013
690.1154	-0.0029
690.2978	0.01
690.4802	0.0427
690.6626	0.0208
690.8449	0.0218
691.0272	-0.0038
691.2095	-0.0089
691.3918	0.0188
691.5741	0.0253
691.7563	0.0191
691.9386	0.0151
692.1208	0.0034
692.303	0.0029
692.4852	-0.001
692.6673	-0.0047
692.8495	-0.0006
693.0316	0.0009
693.2137	0.0098
693.3958	0.0088
693.5778	0.0319
693.7599	0.0045
693.9419	-0.006
694.1239	0.0166
694.3059	0.0182
694.4879	0.0027
694.6699	-0.0018
694.8518	0.0097
695.0337	0.0264
695.2157	0.0419
695.3975	0.0009
695.5794	0.0006
695.7613	0.0181
695.9431	-0.0075
696.1249	0.0171
696.3067	0.0202
696.4885	0.017
696.6703	0.004
696.852	0.0022
697.0337	0.0213
697.2154	0.0139
697.3971	0.0071
697.5788	0.0175
697.7605	-0.0163
697.9421	0.0185
698.1237	-0.0003
698.3053	-0.0064
698.4869	0.0085
698.6685	-0.0142
698.85	0.0162
699.0315	-0.0202
699.213	0.0221
699.3945	0.0084
699.576	0.0341
699.7575	0.0215
699.9389	0.0231
700.1203	0.0169
700.3017	0.009
700.4831	0.0242
700.6645	0.0662
700.8458	-0.021
701.0271	0.0316
701.2084	0.026
701.3897	0.0063
701.571	-0.002
701.7523	0.0096
701.9335	0.0046
702.1147	0.0411
702.2959	0.0008
702.4771	0.0206
702.6583	0.0008
702.8394	-0.0001
703.0205	0.0092
703.2016	0.0186
703.3827	-0.0119
703.5638	0.0071
703.7449	0.0165
703.9259	0.0187
704.1069	0.0136
704.2879	0.0106
704.4689	0.037
704.6499	0.0603
704.8308	0.0251
705.0117	0.0244
705.1927	0.046
705.3735	0.0071
705.5544	0.0177
705.7353	-0.0097
705.9161	-0.0046
706.0969	0.019
706.2777	0.006
706.4585	-0.0125
706.6393	0.0246
706.82	0.0237
707.0007	0.0209
707.1815	0.0048
707.3621	0.0428
707.5428	0.0228
707.7235	0.0039
707.9041	0.0088
708.0847	-0.0016
708.2653	0.0232
708.4459	0.0077
708.6265	0.0056
708.807	0.0321
708.9875	-0.0088
709.168	0.0088
709.3485	0.0467
709.529	-0.0043
709.7095	-0.03
709.8899	0.0176
710.0703	0.0374
710.2507	0.0125
710.4311	-0.0076
710.6115	0.0254
710.7918	0.0447
710.9721	0.0051
711.1524	-0.0042
711.3327	-0.0087
711.513	0.0124
711.6932	0.0084
711.8735	0.019
712.0537	0.0019
712.2339	0.0155
712.4141	0.0317
712.5942	0.0174
712.7744	0.0285
712.9545	0.0076
713.1346	0.0154
713.3147	0.0061
713.4947	-0.0006
713.6748	0.0098
713.8548	0.0349
714.0348	0.0395
714.2148	0.0146
714.3948	0.0204
714.5748	0.0087
714.7547	0.0218
714.9346	0.0392
715.1145	0.0056
715.2944	-0.0067
715.4743	0.0345
715.6541	0.0055
715.834	0.0441
716.0138	0.0104
716.1936	-0.0044
716.3733	0.0054
716.5531	0.0368
716.7328	-0.0002
716.9126	-0.0022
717.0923	-0.0197
717.2719	0.0241
717.4516	0.0127
717.6312	-0.0029
717.8109	0.0493
717.9905	0.0177
718.1701	0.0236
718.3496	-0.0068
718.5292	0.0082
718.7087	-0.0053
718.8882	0.0263
719.0677	-0.0191
719.2472	0.0013
719.4267	-0.0038
719.6061	-0.0027
719.7856	0.0172
719.965	0.017
720.1443	-0.0151
720.3237	-0.0041
720.5031	0.0274
720.6824	0.013
720.8617	0.0178
721.041	0.04
721.2203	0.0188
721.3995	0.0084
721.5788	0.007
721.758	0.0019
721.9372	0.0031
722.1164	-0.012
722.2956	0.0132
722.4747	-0.0097
722.6538	0.0137
722.8329	0.038
723.012	0.0221
723.1911	0.0315
723.3702	0.026
723.5492	0.0116
723.7282	0.0134
723.9072	0.0261
724.0862	0.013
724.2652	0.016
724.4441	-0.0018
724.623	0.0179
724.8019	0.0074
724.9808	0.0226
725.1597	0.0047
725.3385	0.0154
725.5174	0.0105
725.6962	0.0113
725.875	0.023
726.0538	0.0344
726.2325	0.0069
726.4112	0.0197
726.59	-0.0104
726.7687	-0.0111
726.9474	0.0126
727.126	0.0244
727.3047	-0.0137
727.4833	0.0098
727.6619	-0.0104
727.8405	0.0006
728.0191	0.0284
728.1976	-0.0029
728.3762	0.0258
728.5547	0.0079
728.7332	0.0298
728.9116	0.0105
729.0901	0.0248
729.2686	0.0094
729.447	0.0031
729.6254	0.0059
729.8038	-0.0085
729.9821	-0.0104
730.1605	0.0209
730.3388	0.0175
730.5171	0.0203
730.6954	-0.0084
730.8737	-0.0036
731.0519	-0.0016
731.2302	0.0332
731.4084	-0.0145
731.5866	-0.0064
731.7648	0.0099
731.9429	0.0349
732.1211	0.0233
732.2992	0.0086
732.4773	0.0045
732.6554	0.0062
732.8335	0.0262
733.0115	-0.0004
733.1896	-0.0117
733.3676	0.0164
733.5456	-0.0032
733.7235	0.0128
733.9015	0.0001
734.0794	-0.0021
734.2574	-0.016
734.4353	0.0146
734.6131	0.0027
734.791	-0.0037
734.9689	0.0042
735.1467	-0.0001
735.3245	0.0298
735.5023	0.0238
735.68	0.0157
735.8578	0.0256
736.0355	0.012
736.2132	0.0136
736.3909	0.0211
736.5686	0.0151
736.7463	-0.0092
736.9239	0.02
737.1015	0.0167
737.2791	0.0214
737.4567	0.0002
737.6343	0.0148
737.8118	0.0149
737.9894	0.0218
738.1669	0.0046
738.3444	0.0417
738.5218	-0.0039
738.6993	0.0281
738.8767	0.0248
739.0541	0.0029
739.2315	0.0044
739.4089	0.0314
739.5863	0.0184
739.7636	-0.0018
739.9409	0.0054
740.1182	0.0268
740.2955	0.0452
740.4728	0.0185
740.65	-0.013
740.8272	0.0225
741.0044	-0.0163
741.1816	0.0384
741.3588	0.0108
741.5359	0.0013
741.7131	0.0151
741.8902	0.0125
742.0673	-0.0038
742.2444	0.0271
742.4214	0.0369
742.5985	0.01
742.7755	0.0042
742.9525	-0.0267
743.1295	-0.0174
743.3064	0.0008
743.4834	0.0227
743.6603	0.0865
743.8372	-0.0195
744.0141	0.0234
744.191	0.0229
744.3678	-0.0244
744.5446	0.0444
744.7215	0.0106
744.8982	0.0162
745.075	0.0749
745.2518	0.0217
745.4285	0.0309
745.6052	-0.0084
745.7819	0.0307
745.9586	0.0258
746.1353	-0.0206
746.3119	0.0142
746.4885	0.041
746.6651	0.0143
746.8417	0.0071
747.0183	0.0217
747.1948	0.0184
747.3714	0.0391
747.5479	0.0242
747.7244	0.0055
747.9008	-0.0101
748.0773	0.0444
748.2537	0.0015
748.4301	0.0346
748.6065	0.0026
748.7829	-0.0197
748.9593	0.0111
749.1356	-0.0025
749.3119	0.0237
749.4882	0.0316
749.6645	0.025
749.8408	0.0374
750.017	0.0042
750.1933	-0.0121
750.3695	0.0055
750.5457	0.0019
750.7218	-0.0105
750.898	0.0269
751.0741	-0.0042
751.2502	0.0197
751.4263	0.0101
751.6024	0.0124
751.7784	0.0098
751.9545	0.0183
752.1305	0.0268
752.3065	0.0169
752.4825	-0.008
752.6584	0.0081
752.8344	-0.0258
753.0103	-0.0132
753.1862	0.0392
753.3621	0.0122
753.5379	0.0169
753.7138	0.0232
753.8896	0.0259
754.0654	0.0106
754.2412	0.0193
754.417	0.006
754.5927	0.0092
754.7685	0.0203
754.9442	0.0383
755.1199	0.0213
755.2956	0.0143
755.4712	0.0253
755.6469	0.0019
755.8225	0.0069
755.9981	0.0158
756.1736	0.0187
756.3492	-0.0095
756.5248	0.0299
756.7003	0.0006
756.8758	0.0092
757.0513	0.0032
757.2267	0.0032
757.4022	-0.0066
757.5776	0.0141
757.753	0.0203
757.9284	0.0099
758.1038	0.0295
758.2791	0.0122
758.4545	0.0279
758.6298	0.0308
758.8051	0.0087
758.9803	0.0074
759.1556	0.0075
759.3308	0.0058
759.506	-0.0047
759.6812	0.004
759.8564	-0.0088
760.0316	0.0095
760.2067	0.0322
760.3819	-0.0063
760.557	-0.0072
760.732	-0.0014
760.9071	0.0235
761.0821	0.0026
761.2572	0.0368
761.4322	0.0343
761.6072	0.0074
761.7821	-0.0129
761.9571	0.0325
762.132	0.015
762.3069	0.0169
762.4818	0.0209
762.6567	-0.0198
762.8316	0.0186
763.0064	0.0042
763.1812	0.0233
763.356	-0.0193
763.5308	0.0177
763.7055	-0.0044
763.8803	-0.0004
764.055	0.0141
764.2297	-0.0041
764.4044	-0.0023
764.579	-0.0042
764.7537	0.0006
764.9283	0.0216
765.1029	0.0081
765.2775	0.0083
765.4521	0.0084
765.6266	-0.0094
765.8011	0.02
765.9756	0.0278
766.1501	0.0192
766.3246	0.009
766.4991	0.0317
766.6735	0.0559
766.8479	-0.006
767.0223	0.0086
767.1967	0.0357
767.371	0.0247
767.5454	0.0098
767.7197	0.018
767.894	0.0184
768.0683	0.0339
768.2425	0.0095
768.4168	0.0179
768.591	0.0119
768.7652	0.0335
768.9394	-0.0194
769.1135	0.0117
769.2877	0.0579
769.4618	0.025
769.6359	0.0151
769.81	0.0415
769.984	0.0132
770.1581	-0.0046
770.3321	0.0405
770.5061	0.017
770.6801	0.0029
770.8541	0.0203
771.028	0.0276
771.202	0.0252
771.3759	0.0192
771.5498	0.0222
771.7236	-0.0001
771.8975	0.032
772.0713	0.0128
772.2451	-0.0164
772.4189	0.0233
772.5927	-0.0409
772.7665	-0.0036
772.9402	0.0229
773.1139	0.0076
773.2876	-0.0185
773.4613	0.0307
773.635	0.0423
773.8086	0.0129
773.9822	0.0182
774.1558	0.0357
774.3294	0.0025
774.503	0.0046
774.6765	0.03
774.8501	0.008
775.0236	0.0433
775.1971	-0.001
775.3705	0.0036
775.544	-0.0003
775.7174	0.0122
775.8908	0.0085
776.0642	0.0374
776.2376	0.0462
776.4109	-0.0196
776.5843	0.0222
776.7576	0.017
776.9309	0.009
777.1041	-0.0065
777.2774	0.0524
777.4506	-0.0045
777.6238	0.0094
777.797	0.0356
777.9702	0.0084
778.1434	-0.0033
778.3165	-0.0248
778.4896	-0.0333
778.6627	0.0202
778.8358	0.0163
779.0089	-0.0109
779.1819	0.0432
779.3549	0.0109
779.5279	-0.0002
779.7009	0.0559
779.8739	0.0837
780.0468	0.0304
780.2197	0.0072
780.3926	-0.0061
780.5655	0.0215
780.7384	0.0102
780.9112	0.018
781.0841	-0.0048
781.2569	0.0326
781.4297	0.029
781.6024	0.0256
781.7752	0.0455
781.9479	0.0426
782.1206	0.0062
782.2933	0.0527
782.466	0.044
782.6386	-0.0142
782.8113	0.0354
782.9839	0.0099
783.1565	0.0265
783.329	0.0187
783.5016	0.0404
783.6741	-0.0093
783.8466	0.0465
784.0191	0.0251
784.1916	-0.0026
784.3641	0.0272
784.5365	0.0224
784.7089	0.0022
784.8813	0.0554
785.0537	0.0339
785.2261	-0.0134
785.3984	0.0145
785.5707	-0.009
785.743	0.0812
785.9153	0.0248
786.0876	0.0297
786.2598	0.0111
786.432	0.0443
786.6042	0.0583
786.7764	0.011
786.9486	-0.0098
787.1207	0.0272
787.2928	0.0604
787.4649	-0.0054
787.637	0.0228
787.8091	0.0226
787.9811	0.0132
788.1532	0.0463
788.3252	0.0027
788.4972	-0.0142
788.6691	0.0402
788.8411	-0.008
789.013	0.0316
789.1849	0.0201
789.3568	0.0274
789.5287	0.0531
789.7005	-0.026
789.8723	-0.0003
790.0442	0.0087
790.2159	0.008
790.3877	0.0151
790.5595	0.0584
790.7312	0.0254
790.9029	-0.0338
791.0746	0.0146
791.2463	-0.023
791.4179	0.0007
791.5896	-0.0261
791.7612	0.0098
791.9328	0.0346
792.1044	0.0364
792.2759	-0.0291
792.4474	0.0055
792.619	-0.0116
792.7905	0.017
792.9619	0.0715
793.1334	0.0577
793.3048	0.0772
793.4762	-0.0342
793.6476	-0.0158
793.819	-0.0022
793.9904	-0.0133
794.1617	-0.0179
794.333	0.0385
794.5043	0.0413
794.6756	-0.0099
794.8469	0.0035
795.0181	0.0119
795.1893	0.0301
795.3605	0.0502
795.5317	-0.0034
795.7029	0.0031
795.874	0.0149
796.0452	0.0423
796.2163	0.0288
796.3873	0.0795
796.5584	0.0076
796.7294	0.1705
796.9005	-0.0049
797.0715	-0.0425
797.2425	0.119
797.4134	0.0535
797.5844	0.033
797.7553	0.0021
797.9262	0.0718
798.0971	0.0398
798.2679	0.0057
798.4388	0.073
798.6096	0.0395
798.7804	0.0221
798.9512	0.0463
799.122	-0.0131
799.2927	0.074
799.4635	-0.0388
799.6342	-0.0243
799.8049	0.0901
799.9755	0.006
800.1462	0.0037
800.3168	0.0754
800.4874	-0.0643
800.658	-0.0252
800.8286	0.0434
800.9991	0.0371
801.1696	-0.0176
801.3402	0.0503
801.5106	-0.009
801.6811	0.0364
801.8516	0.0557
802.022	-0.0025
802.1924	-0.023
802.3628	0.0602
802.5332	0.1164
802.7035	0.0532
802.8739	-0.0233
803.0442	0.0835
803.2145	0.0011
803.3847	0.0662
803.555	0.0417
803.7252	-0.0197
803.8954	-0.0367
804.0656	0.0133
804.2358	-0.006
804.4059	0.0434
804.5761	0.0032
804.7462	0.0584
804.9163	0.0898
805.0864	0.0226
805.2564	0.0246
805.4264	0.0826
805.5965	0.0393
805.7665	0.0326
805.9364	-0.0112
806.1064	-0.0231
806.2763	0.033
806.4462	-0.0031
806.6161	0.0296
806.786	-0.0312
806.9559	0.0458
807.1257	-0.0372
807.2955	0.0251
807.4653	0.0664
807.6351	0.0725
807.8048	0.0335
807.9746	0.0579
808.1443	-0.0561
808.314	0.0224
808.4837	0.08
808.6533	0.017
808.8229	0.0635
808.9926	0.1683
809.1622	0.0492
809.3317	0.0315
809.5013	-0.0289
809.6708	0.0579
809.8403	0.0383
810.0098	0.0157
810.1793	0.012
810.3488	-0.0139
810.5182	0.116
810.6876	-0.0121
810.857	0.0532
811.0264	-0.083
811.1958	0.0673
811.3651	0.0016
811.5344	0.0245
811.7037	0.0643
811.873	0.082
812.0422	0.002
812.2115	-0.03
812.3807	-0.0232
812.5499	-0.0009
812.7191	-0.0908
812.8882	-0.0399
813.0574	0.0232
813.2265	0.03
813.3956	0.0642
813.5646	-0.0163
813.7337	-0.0129
813.9027	-0.0877
814.0718	0.0286
814.2407	0.0522
814.4097	0.031
814.5787	0.1063
814.7476	0.0083
814.9165	0.0133
815.0854	0.0389
815.2543	-0.0409
815.4232	0.204
815.592	0.0641
815.7608	-0.1233
815.9296	0.0555
816.0984	0.0131
816.2671	-0.2707
816.4359	0.098
816.6046	0.0574
816.7733	-0.0961
816.942	-0.0342
817.1106	0.0227
817.2793	-0.0123
817.4479	-0.0579
817.6165	-0.0006
817.785	0.0061
817.9536	-0.0348
818.1221	0.0097
818.2906	-0.1614
818.4591	0.1012
818.6276	-0.0706
818.7961	0.075
818.9645	0.0147
819.1329	0.1465
819.3013	-0.0317
819.4697	-0.1442
819.638	0.1103
819.8064	0.0775
819.9747	0.1451
820.143	0.0148
820.3113	0.0116
820.4795	0.0271
820.6477	0.193
820.816	-0.0052
820.9842	0.0696
821.1523	0.072
821.3205	0.0417
821.4886	0.0777
821.6567	-0.0242
821.8248	0.0917
821.9929	-0.1451
822.1609	-0.0044
822.329	-0.024
822.497	0.1717
822.665	-0.0169
822.833	0.1657
823.0009	-0.0477
823.1688	0.1791
823.3367	0.0093
823.5046	0.0762
823.6725	-0.0356
823.8404	0.0825
824.0082	0.1101
824.176	-0.0665
824.3438	0.0334
824.5116	0.0681
824.6793	0.1277
824.847	-0.019
825.0147	-0.023
825.1824	0.0269
825.3501	0.315
825.5177	0.1046
825.6854	-0.1378
825.853	-0.0046
826.0206	0.0816
826.1881	-0.0189
826.3557	0.1203
826.5232	0.2634
826.6907	-0.0325
826.8582	0.1748
827.0257	0.0364
827.1931	0.0516
827.3605	0.0386
827.528	-0.0775
827.6953	-0.2317
827.8627	-0.0126
828.03	0.1829
828.1974	0.1307
828.3647	0.0598
828.532	0.1549
828.6992	0.2045
828.8665	-0.2858
829.0337	-0.0302
829.2009	-0.1865
829.3681	0.3099
829.5352	-0.3206
829.7024	0.1066
829.8695	-0.034
830.0366	0.0724
830.2037	0.2088
830.3707	0.0838
830.5378	0.083
830.7048	-0.1289
830.8718	0.0634
831.0388	0.1963
831.2057	0.2356
831.3727	-0.2918
831.5396	-0.1082
831.7065	-0.7821
831.8734	0.5017
832.0402	0.0813
832.2071	-0.5886
832.3739	-0.1725
832.5407	-1.846
832.7075	-0.2842
832.8742	0.3963
833.041	0.1417
833.2077	-0
833.3744	0.2221
833.541	0.1084
833.7077	-0.2103
833.8743	0.0244
834.0409	0.0891
834.2075	0.2019
834.3741	-0.0551
834.5407	0.4333
834.7072	0.0771
834.8737	0.2098
835.0402	1.4078
835.2067	0.8666
835.3731	-0.0176
835.5395	0.0062
835.706	-0.2027
835.8723	-0.1541
836.0387	0.5892
836.2051	0.5272
836.3714	0.1414
836.5377	0.3963
836.704	0.1956
836.8703	-0.1983
837.0365	-0.5337
837.2027	0.5087
837.3689	0.0137
837.5351	0.4557
837.7013	-0.173
837.8674	0.528
838.0335	0.1165
838.1997	0.1785
838.3657	0.6031
838.5318	-0
838.6978	-0
838.8639	-0.5365
839.0299	0.1607
839.1958	0.0172
839.3618	0.8213
839.5277	-0.3002
839.6937	-0
839.8596	-0.2943
840.0254	0.0601
840.1913	-0.2105
840.3571	-0.0675
840.523	-0
840.6888	-0.0081
840.8545	-0.282
841.0203	-0.0325
841.186	0.1251
841.3517	-0.1886
841.5174	0.1251
841.6831	0.0606
841.8488	0.1114
842.0144	-0.2425
842.18	0.122
842.3456	-0.5328
842.5112	-1.3413
842.6767	-0.0366
842.8422	-0.0843
843.0077	0.0331
843.1732	0.1398
843.3387	-0
843.5042	-0
843.6696	-0
843.835	-0.2239
844.0004	-0.126
844.1657	-0
844.3311	-0.0092
844.4964	-0.24
844.6617	0.737
844.827	-0
844.9923	0.0719
845.1575	0.0159
845.3227	-0.1418
845.4879	-0
845.6531	0.2988
845.8183	0.3782
845.9834	-0
846.1485	0.025
846.3136	0.071
846.4787	-0
846.6438	-0.2498
846.8088	0.1219
846.9738	-0.5407
847.1388	0.8023
847.3038	0.6158
847.4687	1.701
847.6337	-0.7229
847.7986	-0.4279
847.9635	0.1948
848.1284	-0
848.2932	0.133
848.458	-0
848.6228	-0
848.7876	-0
848.9524	-0
849.1172	-0
849.2819	-0
849.4466	0.1928
849.6113	0.186
849.7759	-0
849.9406	0.2606
850.1052	-1.1209
850.2698	-0
850.4344	-0.5166
850.599	-0.1988
850.7635	0.5605
850.928	0.6364
851.0925	0.3898
851.257	-0.2926
851.4215	0.2572
851.5859	0.6228
851.7503	-0
851.9147	-0.3263
852.0791	0.5605
852.2434	0.2561
852.4078	-0
852.5721	0.2015
852.7364	0.0288
852.9007	0.0627
853.0649	-0
853.2291	0.4946
853.3934	-0
853.5575	-0.0038
853.7217	0.3109
853.8859	-0.1189
854.05	-0.5396
854.2141	0.314
854.3782	0.3699
854.5423	-0.1849
854.7063	0.3477
854.8703	0.1379
855.0343	-0.1215
855.1983	0.2299
855.3623	-0.0931
855.5262	-0
855.6901	0.3646
855.854	0.2996
856.0179	-0
856.1818	0.35
856.3456	0.2412
856.5094	-0
856.6732	-0.4321
856.837	-1.2498
857.0008	-0
857.1645	-0.1217
857.3282	-0.4886
857.4919	0.3149
857.6556	-0
857.8192	0.5594
857.9828	-0.3216
858.1465	0.3243
858.31	0.9694
858.4736	0.0595
858.6372	-0
858.8007	-0.0042
858.9642	0.256
859.1277	-0
859.2911	-0.3248
859.4546	-0
859.618	-0
859.7814	-0
859.9448	0.3798
860.1081	-0
860.2715	-1.4873
860.4348	0.2729
860.5981	0.4546
860.7614	-0.138
860.9246	-0.0411
861.0879	0.2659
861.2511	-0.9892
861.4143	-0.2374
861.5774	0.6186
861.7406	-0
861.9037	-0.8799
862.0668	-0
862.2299	-0.0743
862.393	-0
862.556	-0
862.7191	-0.6702
862.8821	0.1312
863.0451	0.6248
863.208	-0.241
863.371	0.1616
863.5339	0.6282
863.6968	-0
863.8597	-0
864.0225	-0
864.1854	-0.351
864.3482	-0.5842
864.511	0.2148
864.6737	-0
864.8365	0.5842
864.9992	-0
865.1619	-0.2374
865.3246	-1.5289
865.4873	-0
865.65	-0
865.8126	0.6731
865.9752	-0.4539
866.1378	0.6828
866.3004	-0.0869
866.4629	-1.5546
866.6254	-0
866.7879	-0
866.9504	-0.1886
867.1129	-0
867.2753	-0.1872
867.4377	-0.2991
867.6001	-0.62
867.7625	0.0935
867.9249	-0
868.0872	-0
868.2495	-0
868.4118	-0
868.5741	-0
868.7363	-0
868.8986	-0.1195
869.0608	-0.4794
869.223	-0.297
869.3851	-0
869.5473	0.1368
869.7094	-0.3185
869.8715	-0.699
870.0336	-0.1363
870.1957	-0
870.3577	-0
870.5197	0.1564
870.6817	0.8562
870.8437	-0.1882
871.0057	-0
871.1676	0.232
871.3295	-0.2635
871.4914	-0
871.6533	-0
871.8151	1.0686
871.977	-0.4878
872.1388	0.3933
872.3006	-0.241
872.4623	-0.9291
872.6241	-0
872.7858	-0.0698
872.9475	-0
873.1092	0.1287
873.2709	0.2942
873.4325	-1.8242
873.5941	0.1227
873.7557	-0
873.9173	0.0575
874.0789	0.1889
874.2404	-0
874.4019	-0.0391
874.5634	0.2028
874.7249	1.5088
874.8863	-0.4673
875.0478	-0.3378
875.2092	0.2905
875.3706	0.6204
875.5319	-0
875.6933	-0
875.8546	-0
876.0159	0.3068
876.1772	-0.3593
876.3385	-0
876.4997	-0
876.6609	-0.0885
876.8221	0.8721
876.9833	-0.0127
877.1445	0.1465
877.3056	-0
877.4667	-0.3166
877.6278	-0
877.7889	-0.312
877.9499	-0
878.111	-0.415
878.272	-0.0842
878.433	0.5327
878.5939	0.1138
878.7549	0.2157
878.9158	-0
879.0767	-0
879.2376	-0
879.3984	0.4076
879.5593	0.1557
879.7201	-1.5546
879.8809	-0
880.0417	0.1625
880.2024	0.025
880.3632	-0.4666
880.5239	0.1393
880.6846	-0
880.8452	0.3176
881.0059	-0
881.1665	0.8472
881.3271	0.1498
881.4877	0.2342
881.6483	-0.4597
881.8088	-0
881.9693	-0
882.1298	-0
882.2903	-0
