Data from D4ACN5uM420nmA_Absorbance_14-37-08-246.txt Node
Date: Fri Feb 21 14:37:08 GMT 2025
User: LASERRRRR
Spectrometer: FLMT03099
Trigger mode: 0
Integration Time (sec): 1.500000E-2
Scans to average: 1
Electric dark correction enabled: true
Nonlinearity correction enabled: false
Boxcar width: 0
XAxis mode: Wavelengths
Number of Pixels in Spectrum: 3648
>>>>>Begin Spectral Data<<<<<
179.3399	-0.7285
179.5586	-0.7285
179.7771	-0.7285
179.9957	-0.4949
180.2143	-0
180.4329	-0.1112
180.6514	-0
180.8699	-0.0542
181.0885	0.168
181.307	0.2358
181.5255	0.0851
181.744	-0
181.9625	1.0099
182.181	-0
182.3994	-0.2205
182.6179	-0.5501
182.8363	-0
183.0547	-0
183.2732	0.2139
183.4916	0.353
183.71	0.2112
183.9284	0.1149
184.1467	0.089
184.3651	0.0043
184.5835	0.0858
184.8018	0.0825
185.0201	0.0679
185.2385	0.143
185.4568	0.1833
185.6751	0.1958
185.8934	0.2989
186.1117	-0.21
186.3299	0.0607
186.5482	0.2813
186.7664	0.1545
186.9847	-0.1137
187.2029	0.2902
187.4211	0.1608
187.6393	0.1286
187.8575	0.2498
188.0757	0.2743
188.2939	0.0197
188.512	0.3486
188.7302	0.1312
188.9483	0.164
189.1665	0.1283
189.3846	0.7242
189.6027	0.0306
189.8208	0.1022
190.0389	0.2624
190.257	0.296
190.475	-0.0644
190.6931	0.3462
190.9111	-0.0245
191.1292	0.1301
191.3472	0.1214
191.5652	0.2063
191.7832	0.0745
192.0012	0.2415
192.2192	0.1389
192.4371	0.0751
192.6551	0.1527
192.873	0.0989
193.091	0.118
193.3089	0.139
193.5268	0.2107
193.7447	0.1211
193.9626	0.2121
194.1805	0.2291
194.3984	0.2428
194.6162	0.202
194.8341	0.2924
195.0519	0.235
195.2697	0.2515
195.4875	0.2963
195.7054	0.2267
195.9231	0.2191
196.1409	0.3306
196.3587	0.3111
196.5765	0.3442
196.7942	0.3595
197.012	0.3095
197.2297	0.2639
197.4474	0.3688
197.6651	0.3052
197.8828	0.302
198.1005	0.3924
198.3182	0.3649
198.5358	0.3541
198.7535	0.3512
198.9711	0.3381
199.1888	0.3784
199.4064	0.3735
199.624	0.39
199.8416	0.404
200.0592	0.3806
200.2767	0.3723
200.4943	0.4396
200.7119	0.3816
200.9294	0.3923
201.1469	0.3651
201.3645	0.4552
201.582	0.4123
201.7995	0.4032
202.017	0.3942
202.2344	0.4297
202.4519	0.3542
202.6694	0.4385
202.8868	0.3839
203.1042	0.3879
203.3217	0.3951
203.5391	0.3607
203.7565	0.3698
203.9739	0.3532
204.1913	0.3361
204.4086	0.3392
204.626	0.3824
204.8433	0.3502
205.0607	0.3625
205.278	0.3433
205.4953	0.3347
205.7126	0.3383
205.9299	0.3334
206.1472	0.3244
206.3644	0.3365
206.5817	0.3131
206.7989	0.3381
207.0162	0.2957
207.2334	0.3275
207.4506	0.3101
207.6678	0.3079
207.885	0.3051
208.1022	0.3009
208.3194	0.2997
208.5365	0.3049
208.7537	0.304
208.9708	0.3121
209.1879	0.2994
209.405	0.2663
209.6222	0.2681
209.8392	0.2751
210.0563	0.2766
210.2734	0.2907
210.4905	0.2805
210.7075	0.2618
210.9245	0.2598
211.1416	0.2758
211.3586	0.2514
211.5756	0.2431
211.7926	0.2655
212.0096	0.2602
212.2265	0.2615
212.4435	0.2459
212.6604	0.2436
212.8774	0.2377
213.0943	0.2528
213.3112	0.2452
213.5281	0.2492
213.745	0.2307
213.9619	0.2441
214.1788	0.2439
214.3956	0.2329
214.6125	0.2572
214.8293	0.252
215.0461	0.2436
215.2629	0.2629
215.4798	0.2522
215.6965	0.2428
215.9133	0.235
216.1301	0.2493
216.3469	0.2527
216.5636	0.2468
216.7803	0.2467
216.9971	0.2612
217.2138	0.2435
217.4305	0.2409
217.6472	0.227
217.8639	0.2582
218.0805	0.2619
218.2972	0.2523
218.5138	0.2252
218.7305	0.2585
218.9471	0.2584
219.1637	0.2679
219.3803	0.2464
219.5969	0.2623
219.8135	0.2735
220.0301	0.2503
220.2466	0.2497
220.4632	0.2544
220.6797	0.2697
220.8962	0.2446
221.1127	0.2652
221.3292	0.268
221.5457	0.2747
221.7622	0.2634
221.9787	0.2724
222.1951	0.2747
222.4116	0.2769
222.628	0.2703
222.8444	0.2781
223.0608	0.2681
223.2772	0.2745
223.4936	0.272
223.71	0.2819
223.9264	0.2726
224.1427	0.283
224.3591	0.2789
224.5754	0.2842
224.7917	0.3021
225.008	0.284
225.2243	0.3062
225.4406	0.2952
225.6569	0.3038
225.8732	0.3098
226.0894	0.308
226.3057	0.3035
226.5219	0.3017
226.7381	0.3157
226.9543	0.3097
227.1705	0.331
227.3867	0.3178
227.6029	0.3278
227.8191	0.3434
228.0352	0.3368
228.2513	0.3532
228.4675	0.3425
228.6836	0.3483
228.8997	0.352
229.1158	0.358
229.3319	0.3605
229.548	0.3463
229.764	0.3576
229.9801	0.3667
230.1961	0.3698
230.4121	0.3737
230.6282	0.3862
230.8442	0.4014
231.0602	0.3862
231.2761	0.3827
231.4921	0.3933
231.7081	0.3985
231.924	0.3992
232.14	0.414
232.3559	0.4083
232.5718	0.4165
232.7877	0.4241
233.0036	0.4137
233.2195	0.4196
233.4353	0.4071
233.6512	0.4244
233.867	0.4259
234.0829	0.4286
234.2987	0.4301
234.5145	0.4333
234.7303	0.4389
234.9461	0.4454
235.1619	0.442
235.3776	0.4431
235.5934	0.4375
235.8091	0.4478
236.0249	0.444
236.2406	0.447
236.4563	0.4451
236.672	0.448
236.8877	0.4517
237.1034	0.4491
237.319	0.4508
237.5347	0.4536
237.7503	0.4455
237.966	0.4586
238.1816	0.4517
238.3972	0.4653
238.6128	0.4666
238.8284	0.4694
239.0439	0.4632
239.2595	0.4615
239.475	0.4549
239.6906	0.4622
239.9061	0.4617
240.1216	0.4685
240.3371	0.4608
240.5526	0.459
240.7681	0.4644
240.9836	0.4542
241.199	0.4642
241.4145	0.4496
241.6299	0.4497
241.8453	0.4488
242.0607	0.4463
242.2761	0.4359
242.4915	0.4396
242.7069	0.4308
242.9223	0.4334
243.1376	0.4076
243.353	0.4054
243.5683	0.4072
243.7836	0.4007
243.9989	0.3904
244.2142	0.3804
244.4295	0.3883
244.6448	0.3766
244.86	0.3569
245.0753	0.3489
245.2905	0.3554
245.5057	0.3392
245.721	0.344
245.9362	0.332
246.1514	0.3229
246.3665	0.3151
246.5817	0.3044
246.7969	0.2986
247.012	0.3121
247.2271	0.3034
247.4423	0.2949
247.6574	0.2918
247.8725	0.2771
248.0876	0.2799
248.3026	0.2727
248.5177	0.2619
248.7328	0.2637
248.9478	0.2604
249.1628	0.2517
249.3779	0.2484
249.5929	0.2462
249.8079	0.2386
250.0228	0.2353
250.2378	0.2391
250.4528	0.2353
250.6677	0.2331
250.8827	0.2181
251.0976	0.2149
251.3125	0.2189
251.5274	0.2142
251.7423	0.2126
251.9572	0.2056
252.172	0.2127
252.3869	0.2075
252.6017	0.2055
252.8166	0.2093
253.0314	0.202
253.2462	0.1997
253.461	0.192
253.6758	0.2017
253.8906	0.2006
254.1053	0.1983
254.3201	0.1996
254.5348	0.1896
254.7496	0.1876
254.9643	0.1952
255.179	0.1911
255.3937	0.1912
255.6083	0.191
255.823	0.1896
256.0377	0.1919
256.2523	0.1904
256.467	0.1884
256.6816	0.1809
256.8962	0.185
257.1108	0.1918
257.3254	0.1897
257.54	0.1855
257.7545	0.1852
257.9691	0.1836
258.1836	0.177
258.3981	0.1835
258.6127	0.1761
258.8272	0.1905
259.0417	0.1775
259.2561	0.176
259.4706	0.1883
259.6851	0.1813
259.8995	0.1812
260.114	0.1846
260.3284	0.1789
260.5428	0.1864
260.7572	0.1792
260.9716	0.1863
261.186	0.184
261.4003	0.1843
261.6147	0.1788
261.829	0.1801
262.0433	0.1818
262.2577	0.1846
262.472	0.1821
262.6863	0.1885
262.9005	0.1836
263.1148	0.1829
263.3291	0.184
263.5433	0.1848
263.7576	0.191
263.9718	0.1881
264.186	0.1852
264.4002	0.1897
264.6144	0.1905
264.8286	0.1899
265.0427	0.1931
265.2569	0.1939
265.471	0.1869
265.6851	0.1951
265.8993	0.1933
266.1134	0.1899
266.3275	0.1901
266.5415	0.1925
266.7556	0.196
266.9697	0.1938
267.1837	0.1979
267.3978	0.1918
267.6118	0.1904
267.8258	0.1898
268.0398	0.1912
268.2538	0.1932
268.4677	0.1905
268.6817	0.1836
268.8957	0.1807
269.1096	0.1821
269.3235	0.1857
269.5374	0.1911
269.7514	0.1897
269.9652	0.1855
270.1791	0.1856
270.393	0.1864
270.6068	0.1844
270.8207	0.1815
271.0345	0.1853
271.2483	0.1731
271.4622	0.1874
271.676	0.1827
271.8897	0.183
272.1035	0.1918
272.3173	0.1864
272.531	0.1868
272.7448	0.1816
272.9585	0.182
273.1722	0.1828
273.3859	0.1874
273.5996	0.1897
273.8133	0.1916
274.0269	0.1829
274.2406	0.1859
274.4542	0.1865
274.6679	0.1853
274.8815	0.1913
275.0951	0.1991
275.3087	0.1934
275.5223	0.1908
275.7358	0.1976
275.9494	0.1955
276.1629	0.1991
276.3765	0.1935
276.59	0.1945
276.8035	0.191
277.017	0.1994
277.2305	0.2024
277.444	0.2007
277.6574	0.198
277.8709	0.1979
278.0843	0.2009
278.2978	0.2016
278.5112	0.1909
278.7246	0.1983
278.938	0.1972
279.1513	0.2006
279.3647	0.1969
279.5781	0.1947
279.7914	0.1938
280.0047	0.1981
280.2181	0.1917
280.4314	0.1914
280.6447	0.1998
280.8579	0.1844
281.0712	0.1937
281.2845	0.1969
281.4977	0.1937
281.711	0.1935
281.9242	0.1895
282.1374	0.1924
282.3506	0.1915
282.5638	0.1947
282.7769	0.1877
282.9901	0.1907
283.2033	0.1918
283.4164	0.1899
283.6295	0.1936
283.8426	0.1873
284.0557	0.1914
284.2688	0.1915
284.4819	0.1873
284.695	0.2007
284.908	0.1878
285.1211	0.1947
285.3341	0.195
285.5471	0.1865
285.7601	0.1917
285.9731	0.1946
286.1861	0.1918
286.3991	0.1933
286.612	0.1892
286.825	0.1928
287.0379	0.1907
287.2508	0.1953
287.4637	0.1912
287.6766	0.1899
287.8895	0.1891
288.1024	0.1976
288.3152	0.1981
288.5281	0.1903
288.7409	0.1956
288.9538	0.1883
289.1666	0.1909
289.3794	0.1907
289.5922	0.1829
289.8049	0.1965
290.0177	0.1925
290.2304	0.1944
290.4432	0.1932
290.6559	0.1987
290.8686	0.1859
291.0813	0.1953
291.294	0.1965
291.5067	0.1881
291.7194	0.1956
291.932	0.1914
292.1447	0.1887
292.3573	0.1945
292.5699	0.1913
292.7825	0.1909
292.9951	0.191
293.2077	0.1908
293.4203	0.1935
293.6328	0.1874
293.8454	0.1955
294.0579	0.1965
294.2704	0.1954
294.4829	0.1899
294.6954	0.1897
294.9079	0.1948
295.1204	0.1897
295.3328	0.1979
295.5453	0.1923
295.7577	0.1962
295.9701	0.1919
296.1825	0.1964
296.3949	0.1911
296.6073	0.1889
296.8197	0.1888
297.0321	0.1874
297.2444	0.1874
297.4567	0.1888
297.6691	0.1871
297.8814	0.1962
298.0937	0.1859
298.306	0.1918
298.5182	0.1967
298.7305	0.1922
298.9428	0.1957
299.155	0.1896
299.3672	0.1903
299.5794	0.1986
299.7916	0.1927
300.0038	0.1913
300.216	0.196
300.4282	0.1893
300.6403	0.1979
300.8525	0.19
301.0646	0.1833
301.2767	0.1911
301.4888	0.1912
301.7009	0.1951
301.913	0.1919
302.125	0.189
302.3371	0.1965
302.5491	0.1862
302.7612	0.196
302.9732	0.1899
303.1852	0.1967
303.3972	0.194
303.6092	0.195
303.8211	0.1862
304.0331	0.191
304.245	0.189
304.457	0.1892
304.6689	0.1883
304.8808	0.188
305.0927	0.1897
305.3046	0.1852
305.5164	0.191
305.7283	0.1793
305.9401	0.1738
306.152	0.178
306.3638	0.1829
306.5756	0.1835
306.7874	0.1727
306.9992	0.1777
307.2109	0.1806
307.4227	0.1745
307.6344	0.1809
307.8462	0.1681
308.0579	0.1807
308.2696	0.1717
308.4813	0.1743
308.693	0.1646
308.9046	0.1732
309.1163	0.1607
309.328	0.1601
309.5396	0.1615
309.7512	0.1576
309.9628	0.1581
310.1744	0.157
310.386	0.1528
310.5976	0.1564
310.8091	0.1555
311.0207	0.1562
311.2322	0.1477
311.4437	0.1519
311.6552	0.1524
311.8667	0.1547
312.0782	0.1488
312.2897	0.1491
312.5012	0.1498
312.7126	0.1431
312.924	0.1511
313.1355	0.1414
313.3469	0.1469
313.5583	0.1429
313.7696	0.1441
313.981	0.1477
314.1924	0.144
314.4037	0.1384
314.6151	0.1454
314.8264	0.1454
315.0377	0.1373
315.249	0.1458
315.4603	0.1382
315.6716	0.138
315.8828	0.1375
316.0941	0.1416
316.3053	0.1365
316.5165	0.1387
316.7277	0.1379
316.9389	0.1394
317.1501	0.1351
317.3613	0.1386
317.5724	0.1352
317.7836	0.1317
317.9947	0.134
318.2058	0.13
318.417	0.1348
318.6281	0.1323
318.8391	0.1348
319.0502	0.1379
319.2613	0.1357
319.4723	0.1303
319.6834	0.1402
319.8944	0.1325
320.1054	0.1408
320.3164	0.1287
320.5274	0.1326
320.7383	0.1352
320.9493	0.1405
321.1602	0.1328
321.3712	0.1356
321.5821	0.1288
321.793	0.1403
322.0039	0.1336
322.2148	0.1309
322.4257	0.133
322.6365	0.132
322.8474	0.1371
323.0582	0.1333
323.269	0.1353
323.4798	0.1426
323.6906	0.1341
323.9014	0.1333
324.1122	0.1325
324.3229	0.146
324.5337	0.1423
324.7444	0.1404
324.9551	0.1343
325.1658	0.1369
325.3765	0.1423
325.5872	0.145
325.7979	0.1427
326.0085	0.1396
326.2192	0.1382
326.4298	0.1406
326.6404	0.1502
326.851	0.1397
327.0616	0.1463
327.2722	0.1463
327.4828	0.1392
327.6933	0.1487
327.9039	0.1464
328.1144	0.1488
328.3249	0.1508
328.5354	0.1465
328.7459	0.1496
328.9564	0.1416
329.1669	0.1514
329.3773	0.1437
329.5878	0.1514
329.7982	0.1489
330.0086	0.1497
330.219	0.1457
330.4294	0.1524
330.6398	0.1511
330.8502	0.1455
331.0605	0.147
331.2708	0.1408
331.4812	0.1526
331.6915	0.1468
331.9018	0.1492
332.1121	0.1561
332.3224	0.1499
332.5326	0.144
332.7429	0.1495
332.9531	0.1556
333.1633	0.1453
333.3735	0.1487
333.5837	0.1545
333.7939	0.1501
334.0041	0.1476
334.2143	0.1492
334.4244	0.1616
334.6346	0.1448
334.8447	0.1499
335.0548	0.1492
335.2649	0.1499
335.475	0.1517
335.685	0.1503
335.8951	0.1483
336.1051	0.158
336.3152	0.1559
336.5252	0.1487
336.7352	0.1492
336.9452	0.1495
337.1552	0.146
337.3652	0.1489
337.5751	0.1475
337.7851	0.1524
337.995	0.1487
338.2049	0.1543
338.4148	0.1486
338.6247	0.1522
338.8346	0.15
339.0445	0.1518
339.2543	0.1554
339.4642	0.1488
339.674	0.1492
339.8838	0.1553
340.0936	0.1515
340.3034	0.1509
340.5132	0.1439
340.7229	0.1504
340.9327	0.162
341.1424	0.1512
341.3522	0.1506
341.5619	0.1652
341.7716	0.1623
341.9813	0.1605
342.1909	0.1621
342.4006	0.1596
342.6102	0.1586
342.8199	0.1602
343.0295	0.1532
343.2391	0.1583
343.4487	0.1635
343.6583	0.1665
343.8679	0.1564
344.0774	0.1652
344.287	0.165
344.4965	0.171
344.706	0.1672
344.9155	0.1642
345.125	0.1624
345.3345	0.1717
345.544	0.175
345.7534	0.1745
345.9629	0.1686
346.1723	0.1761
346.3817	0.1734
346.5911	0.1735
346.8005	0.1772
347.0099	0.1746
347.2193	0.1792
347.4286	0.1841
347.638	0.1801
347.8473	0.1879
348.0566	0.1769
348.2659	0.1815
348.4752	0.1795
348.6845	0.1786
348.8937	0.1839
349.103	0.1805
349.3122	0.1781
349.5214	0.185
349.7306	0.1894
349.9398	0.1828
350.149	0.1825
350.3582	0.1812
350.5674	0.1878
350.7765	0.1901
350.9856	0.1815
351.1948	0.1918
351.4039	0.1844
351.613	0.1817
351.822	0.1895
352.0311	0.1863
352.2402	0.1936
352.4492	0.1908
352.6582	0.1904
352.8672	0.1871
353.0762	0.1905
353.2852	0.1869
353.4942	0.1925
353.7032	0.1865
353.9121	0.1925
354.1211	0.1961
354.33	0.2004
354.5389	0.1839
354.7478	0.1885
354.9567	0.1933
355.1655	0.1888
355.3744	0.1885
355.5833	0.1907
355.7921	0.1968
356.0009	0.196
356.2097	0.1829
356.4185	0.1852
356.6273	0.1896
356.8361	0.1959
357.0448	0.191
357.2536	0.1918
357.4623	0.1957
357.671	0.1925
357.8797	0.1991
358.0884	0.1948
358.2971	0.1936
358.5057	0.1905
358.7144	0.1956
358.923	0.2003
359.1316	0.1999
359.3402	0.1969
359.5488	0.1967
359.7574	0.2091
359.966	0.2013
360.1746	0.195
360.3831	0.2059
360.5916	0.2083
360.8002	0.2024
361.0087	0.2018
361.2172	0.2036
361.4256	0.2092
361.6341	0.2043
361.8426	0.209
362.051	0.2029
362.2594	0.2177
362.4678	0.2058
362.6762	0.2133
362.8846	0.21
363.093	0.2109
363.3014	0.2143
363.5097	0.2152
363.718	0.2206
363.9264	0.2205
364.1347	0.22
364.343	0.216
364.5513	0.2195
364.7595	0.227
364.9678	0.2138
365.176	0.2219
365.3842	0.2274
365.5925	0.226
365.8007	0.2214
366.0089	0.2302
366.217	0.2265
366.4252	0.219
366.6333	0.232
366.8415	0.2332
367.0496	0.2226
367.2577	0.2274
367.4658	0.2257
367.6739	0.2252
367.882	0.2312
368.09	0.2302
368.2981	0.2347
368.5061	0.2326
368.7141	0.2404
368.9221	0.2436
369.1301	0.2355
369.3381	0.2379
369.5461	0.2443
369.754	0.2426
369.962	0.2377
370.1699	0.2521
370.3778	0.2442
370.5857	0.24
370.7936	0.239
371.0015	0.2421
371.2093	0.2365
371.4172	0.2401
371.625	0.2382
371.8328	0.2391
372.0406	0.2496
372.2484	0.2443
372.4562	0.2485
372.664	0.2468
372.8717	0.2499
373.0795	0.2555
373.2872	0.2557
373.4949	0.2565
373.7026	0.2495
373.9103	0.245
374.118	0.2604
374.3256	0.2582
374.5333	0.2612
374.7409	0.2501
374.9485	0.2528
375.1561	0.2582
375.3637	0.258
375.5713	0.2626
375.7789	0.2609
375.9864	0.2575
376.194	0.2682
376.4015	0.2567
376.609	0.267
376.8165	0.2615
377.024	0.2613
377.2315	0.2547
377.4389	0.2629
377.6464	0.2633
377.8538	0.2705
378.0612	0.2694
378.2686	0.2678
378.476	0.28
378.6834	0.2619
378.8908	0.2694
379.0981	0.2706
379.3055	0.2654
379.5128	0.2598
379.7201	0.2745
379.9274	0.268
380.1347	0.2718
380.342	0.2731
380.5492	0.2721
380.7565	0.2634
380.9637	0.2817
381.1709	0.2668
381.3781	0.28
381.5853	0.2737
381.7925	0.2676
381.9997	0.2783
382.2068	0.2789
382.4139	0.2797
382.6211	0.2834
382.8282	0.2915
383.0353	0.2817
383.2424	0.2829
383.4494	0.2815
383.6565	0.2766
383.8635	0.2866
384.0706	0.2808
384.2776	0.2765
384.4846	0.2816
384.6916	0.2831
384.8986	0.2812
385.1055	0.2925
385.3125	0.2797
385.5194	0.2925
385.7263	0.283
385.9333	0.2888
386.1402	0.2795
386.347	0.2817
386.5539	0.2895
386.7608	0.2801
386.9676	0.2893
387.1744	0.284
387.3813	0.2887
387.5881	0.2738
387.7948	0.2867
388.0016	0.2948
388.2084	0.2781
388.4151	0.2848
388.6219	0.2793
388.8286	0.2784
389.0353	0.2815
389.242	0.2816
389.4487	0.2771
389.6553	0.2733
389.862	0.2723
390.0686	0.2883
390.2753	0.2722
390.4819	0.2803
390.6885	0.2757
390.8951	0.2792
391.1016	0.2804
391.3082	0.2727
391.5147	0.2728
391.7213	0.2733
391.9278	0.2675
392.1343	0.2771
392.3408	0.2722
392.5473	0.2624
392.7537	0.262
392.9602	0.2599
393.1666	0.2656
393.373	0.2591
393.5794	0.2573
393.7858	0.2681
393.9922	0.2642
394.1986	0.248
394.4049	0.2591
394.6113	0.2596
394.8176	0.2605
395.0239	0.2563
395.2302	0.2469
395.4365	0.2621
395.6428	0.2572
395.8491	0.2509
396.0553	0.2449
396.2615	0.2568
396.4678	0.2565
396.674	0.25
396.8802	0.2446
397.0863	0.241
397.2925	0.2461
397.4987	0.2389
397.7048	0.2561
397.9109	0.2417
398.117	0.2448
398.3231	0.2351
398.5292	0.2322
398.7353	0.2323
398.9413	0.238
399.1474	0.2428
399.3534	0.2336
399.5594	0.2384
399.7654	0.2428
399.9714	0.2366
400.1774	0.2338
400.3833	0.2428
400.5893	0.2387
400.7952	0.2484
401.0011	0.2436
401.207	0.2477
401.4129	0.2352
401.6188	0.2412
401.8247	0.2544
402.0305	0.2361
402.2364	0.2447
402.4422	0.2353
402.648	0.2383
402.8538	0.2432
403.0596	0.2399
403.2654	0.2329
403.4711	0.2388
403.6768	0.2391
403.8826	0.2431
404.0883	0.238
404.294	0.2311
404.4997	0.2364
404.7054	0.2398
404.911	0.2337
405.1167	0.2345
405.3223	0.2263
405.5279	0.24
405.7335	0.2453
405.9391	0.2343
406.1447	0.2359
406.3502	0.236
406.5558	0.238
406.7613	0.2418
406.9668	0.2373
407.1724	0.2406
407.3778	0.2419
407.5833	0.2254
407.7888	0.2445
407.9942	0.2419
408.1997	0.2358
408.4051	0.2377
408.6105	0.2444
408.8159	0.2429
409.0213	0.232
409.2267	0.2308
409.432	0.23
409.6374	0.2428
409.8427	0.2468
410.048	0.2322
410.2533	0.2402
410.4586	0.2289
410.6639	0.2364
410.8691	0.2316
411.0744	0.2313
411.2796	0.247
411.4848	0.2405
411.69	0.2288
411.8952	0.2436
412.1004	0.2391
412.3056	0.2323
412.5107	0.2264
412.7158	0.2476
412.921	0.2381
413.1261	0.225
413.3312	0.2328
413.5362	0.2399
413.7413	0.2353
413.9464	0.2311
414.1514	0.2352
414.3564	0.2303
414.5614	0.2378
414.7664	0.2253
414.9714	0.2312
415.1764	0.2359
415.3813	0.2305
415.5863	0.2388
415.7912	0.2396
415.9961	0.2358
416.201	0.2326
416.4059	0.2366
416.6108	0.2328
416.8156	0.222
417.0205	0.2399
417.2253	0.2376
417.4301	0.2401
417.6349	0.2281
417.8397	0.22
418.0445	0.2193
418.2492	0.2314
418.454	0.219
418.6587	0.2311
418.8634	0.228
419.0681	0.2324
419.2728	0.2232
419.4775	0.2331
419.6822	0.2282
419.8868	0.2211
420.0915	0.218
420.2961	0.2147
420.5007	0.2227
420.7053	0.2182
420.9099	0.2165
421.1144	0.2171
421.319	0.2227
421.5235	0.2039
421.728	0.221
421.9325	0.2239
422.137	0.2212
422.3415	0.2154
422.546	0.2098
422.7504	0.2185
422.9549	0.2298
423.1593	0.2039
423.3637	0.2047
423.5681	0.2164
423.7725	0.2114
423.9769	0.2174
424.1812	0.2089
424.3856	0.1954
424.5899	0.209
424.7942	0.2042
424.9985	0.1972
425.2028	0.2077
425.4071	0.2038
425.6113	0.2135
425.8156	0.2051
426.0198	0.1977
426.224	0.2018
426.4282	0.1944
426.6324	0.192
426.8366	0.1929
427.0407	0.1957
427.2449	0.1842
427.449	0.19
427.6531	0.2074
427.8572	0.1877
428.0613	0.2057
428.2654	0.1927
428.4694	0.1845
428.6735	0.1862
428.8775	0.1821
429.0815	0.1808
429.2855	0.1867
429.4895	0.1842
429.6935	0.1778
429.8975	0.1747
430.1014	0.1861
430.3053	0.1816
430.5093	0.1687
430.7132	0.1745
430.9171	0.1699
431.1209	0.1763
431.3248	0.1652
431.5286	0.1608
431.7325	0.1775
431.9363	0.1613
432.1401	0.1608
432.3439	0.1601
432.5477	0.1563
432.7514	0.1695
432.9552	0.16
433.1589	0.1613
433.3627	0.1588
433.5664	0.1497
433.7701	0.1567
433.9737	0.1589
434.1774	0.1515
434.3811	0.1422
434.5847	0.1501
434.7883	0.142
434.9919	0.136
435.1955	0.1459
435.3991	0.1495
435.6027	0.146
435.8062	0.1533
436.0098	0.1353
436.2133	0.1325
436.4168	0.1309
436.6203	0.1286
436.8238	0.1331
437.0272	0.1319
437.2307	0.1264
437.4341	0.1323
437.6375	0.1288
437.841	0.113
438.0443	0.1318
438.2477	0.1153
438.4511	0.1111
438.6545	0.1228
438.8578	0.1193
439.0611	0.1195
439.2644	0.107
439.4677	0.1121
439.671	0.1062
439.8743	0.1092
440.0775	0.1076
440.2808	0.1011
440.484	0.1033
440.6872	0.1038
440.8904	0.0884
441.0936	0.1014
441.2967	0.084
441.4999	0.0877
441.703	0.0988
441.9062	0.0969
442.1093	0.1062
442.3124	0.0959
442.5155	0.0924
442.7185	0.0824
442.9216	0.0852
443.1246	0.0824
443.3276	0.0805
443.5307	0.0747
443.7337	0.0828
443.9366	0.0762
444.1396	0.075
444.3426	0.0786
444.5455	0.0774
444.7484	0.0728
444.9513	0.0762
445.1542	0.0794
445.3571	0.0734
445.56	0.061
445.7628	0.0683
445.9657	0.0706
446.1685	0.0712
446.3713	0.0686
446.5741	0.0696
446.7769	0.0668
446.9797	0.0664
447.1824	0.0637
447.3852	0.0557
447.5879	0.0634
447.7906	0.0461
447.9933	0.0571
448.196	0.0487
448.3986	0.0503
448.6013	0.0402
448.8039	0.0599
449.0066	0.0627
449.2092	0.0644
449.4118	0.0595
449.6143	0.0573
449.8169	0.048
450.0195	0.0481
450.222	0.0563
450.4245	0.0549
450.627	0.0515
450.8295	0.0468
451.032	0.0493
451.2345	0.0429
451.4369	0.047
451.6394	0.0482
451.8418	0.0493
452.0442	0.0517
452.2466	0.0317
452.449	0.0403
452.6513	0.0374
452.8537	0.0327
453.056	0.0391
453.2583	0.0384
453.4607	0.0315
453.663	0.0451
453.8652	0.0266
454.0675	0.0394
454.2697	0.0294
454.472	0.0332
454.6742	0.0375
454.8764	0.0411
455.0786	0.0272
455.2808	0.0357
455.4829	0.0354
455.6851	0.0389
455.8872	0.0227
456.0893	0.0339
456.2915	0.0211
456.4935	0.0322
456.6956	0.0308
456.8977	0.0304
457.0997	0.0341
457.3018	0.0201
457.5038	0.0311
457.7058	0.0269
457.9078	0.0285
458.1098	0.032
458.3117	0.0334
458.5137	0.0105
458.7156	0.0193
458.9175	0.0297
459.1194	0.0269
459.3213	0.0268
459.5232	0.0361
459.725	0.0249
459.9269	0.0261
460.1287	0.0176
460.3305	0.0281
460.5323	0.0318
460.7341	0.0243
460.9359	0.0139
461.1376	0.0241
461.3394	0.0263
461.5411	0.0269
461.7428	0.0172
461.9445	0.0232
462.1462	0.0201
462.3479	0.0224
462.5495	0.0276
462.7512	0.0204
462.9528	0.0177
463.1544	0.0206
463.356	0.0115
463.5576	0.0235
463.7592	0.0121
463.9607	0.0197
464.1623	0.0142
464.3638	0.0175
464.5653	0.0146
464.7668	0.0241
464.9683	0.0165
465.1697	0.0163
465.3712	0.0104
465.5726	0.0159
465.7741	0.0207
465.9755	0.0113
466.1769	0.0118
466.3782	0.0104
466.5796	0.0161
466.7809	0.0239
466.9823	0.008
467.1836	0.0087
467.3849	0.0179
467.5862	0.0068
467.7875	0.0134
467.9887	0.016
468.19	0.0131
468.3912	0.0174
468.5924	0.0081
468.7936	0.0105
468.9948	0.0055
469.196	0.0105
469.3972	0.0103
469.5983	0.0058
469.7994	0.0127
470.0006	0.0158
470.2017	0.0183
470.4027	0.0223
470.6038	0.0069
470.8049	0.0115
471.0059	0.0167
471.2069	0.0169
471.408	0.0252
471.6089	0.0221
471.8099	0.0178
472.0109	0.0154
472.2119	0.0191
472.4128	0.0124
472.6137	0.0077
472.8146	0.0098
473.0155	0.0184
473.2164	0.0173
473.4173	0.003
473.6181	0.0086
473.819	0.0073
474.0198	0.0095
474.2206	-0.0013
474.4214	0.0096
474.6222	0.0003
474.8229	0.0125
475.0237	0.0138
475.2244	0.0124
475.4251	0.0136
475.6258	0.0096
475.8265	0.0123
476.0272	0.0081
476.2278	0.0118
476.4285	0.0101
476.6291	0.0106
476.8297	0.0081
477.0303	0.0007
477.2309	0.0171
477.4315	0.0117
477.632	0.0057
477.8326	0.0087
478.0331	0.0177
478.2336	0.0114
478.4341	0.0141
478.6346	0.0108
478.8351	0.0096
479.0355	0.0188
479.236	0.0147
479.4364	0.0139
479.6368	0.0147
479.8372	0.0142
480.0376	0.0097
480.2379	0.0077
480.4383	0.0193
480.6386	0.0015
480.8389	0.0058
481.0392	0.01
481.2395	0.0146
481.4398	0.0166
481.6401	0.0155
481.8403	0.0084
482.0405	0.0145
482.2408	0.0128
482.441	0.0102
482.6411	0.014
482.8413	0.0081
483.0415	0.0184
483.2416	0.0077
483.4417	0.0121
483.6419	0.005
483.8419	0.0072
484.042	0.0076
484.2421	0.002
484.4422	0.0079
484.6422	0.0074
484.8422	0.0096
485.0422	0.0071
485.2422	0.0083
485.4422	0.0056
485.6422	0.0116
485.8421	0.0056
486.042	0.0167
486.242	0.0048
486.4419	0.0077
486.6417	0.0061
486.8416	0.0087
487.0415	0.0083
487.2413	0.0032
487.4411	0.0045
487.641	0.0049
487.8408	0.012
488.0405	0.0171
488.2403	0.0075
488.4401	0.0126
488.6398	0.0106
488.8395	0.0114
489.0392	0.0128
489.2389	0.0141
489.4386	0.0052
489.6383	0.0148
489.8379	0.0069
490.0376	0.0104
490.2372	0.0051
490.4368	0.0075
490.6364	0.0037
490.836	0.0031
491.0355	0.008
491.2351	0.0086
491.4346	0.0076
491.6341	0.0126
491.8336	0.0111
492.0331	0.005
492.2326	0.0038
492.432	0.0107
492.6315	0.0177
492.8309	0.0152
493.0303	0.0193
493.2297	0.0124
493.4291	0.0059
493.6284	0.0155
493.8278	0.0031
494.0271	0.0062
494.2264	0.0052
494.4257	0.0128
494.625	0.0052
494.8243	0.0062
495.0236	0.0064
495.2228	0.0167
495.422	0.0066
495.6213	0.0062
495.8205	0.0182
496.0196	0.0132
496.2188	0.0092
496.418	0.009
496.6171	0.0063
496.8162	0.0087
497.0153	0.0103
497.2144	0.0099
497.4135	0.007
497.6126	0.0054
497.8116	0.0068
498.0107	0.0146
498.2097	0.0116
498.4087	0.0128
498.6077	0.002
498.8067	0.0094
499.0056	0.0073
499.2046	0.0082
499.4035	0.0072
499.6024	-0.0021
499.8013	0.0118
500.0002	0.0097
500.199	0.0125
500.3979	0.0051
500.5967	0.0132
500.7956	0.0061
500.9944	0.0041
501.1932	0.0151
501.3919	0.0141
501.5907	0.0144
501.7895	0.0116
501.9882	0.0146
502.1869	0.0139
502.3856	-0.0007
502.5843	0.0111
502.783	0.0063
502.9816	0.0143
503.1803	0.01
503.3789	0.0141
503.5775	0.0108
503.7761	0.0156
503.9747	0.0192
504.1732	0.0041
504.3718	0.0161
504.5703	0.0121
504.7689	0.0015
504.9674	0.0049
505.1658	0.0052
505.3643	0.0111
505.5628	0.0141
505.7612	0.0122
505.9597	0.0082
506.1581	0.0094
506.3565	0.0063
506.5549	0.0054
506.7532	0
506.9516	0.0104
507.1499	0.0141
507.3482	0.0078
507.5465	0.0124
507.7448	0.0108
507.9431	0.0145
508.1414	0.007
508.3396	0.0056
508.5379	0.005
508.7361	0.0153
508.9343	0.0226
509.1325	0.0107
509.3306	0.0073
509.5288	-0.0036
509.7269	0.0138
509.9251	0.016
510.1232	0.0229
510.3213	0.011
510.5193	0.0108
510.7174	0.0138
510.9154	0.0171
511.1135	0.0048
511.3115	0.0094
511.5095	0.0089
511.7075	0.0064
511.9055	0.0033
512.1034	0.0142
512.3014	0.0129
512.4993	0.0141
512.6972	0.0061
512.8951	0.0104
513.093	0.0049
513.2908	0.0203
513.4887	0.0069
513.6865	0.0131
513.8844	0.0126
514.0822	0.0032
514.2799	0.0059
514.4777	0.0086
514.6755	0.0068
514.8732	0.0102
515.0709	0.0109
515.2687	0.0058
515.4664	0.0139
515.664	0.0182
515.8617	0.0178
516.0594	0.0085
516.257	0.0151
516.4546	0.0232
516.6522	0.0143
516.8498	0.0104
517.0474	0.0091
517.2449	0.0083
517.4425	0.0152
517.64	0.0074
517.8375	0.0074
518.035	0.0098
518.2325	0.0086
518.43	0.0003
518.6274	0.0079
518.8249	0.0054
519.0223	0.0165
519.2197	0.0097
519.4171	0.0075
519.6145	0.0083
519.8118	-0.0114
520.0092	0.0047
520.2065	0.0137
520.4038	0.0109
520.6011	0.0185
520.7984	0.0086
520.9956	0.0123
521.1929	0.0041
521.3901	0.0071
521.5874	0.0083
521.7846	0.0002
521.9818	0.0053
522.1789	-0.0006
522.3761	0.0159
522.5732	0.0076
522.7704	0.0073
522.9675	0.0086
523.1646	0.0063
523.3617	0.0163
523.5587	0.0046
523.7558	0.0093
523.9528	0.0184
524.1498	0.0104
524.3468	0.0032
524.5438	0.0135
524.7408	0.0029
524.9378	0.0266
525.1347	0.0102
525.3316	0.0006
525.5285	0.0047
525.7254	0.0173
525.9223	0.0119
526.1192	0.0103
526.316	0.0128
526.5129	0.0141
526.7097	0.0022
526.9065	0.0198
527.1033	0.0117
527.3	-0.0067
527.4968	0.0107
527.6935	0.0042
527.8903	0.0067
528.087	0.0055
528.2837	0.01
528.4804	-0.0019
528.677	0.005
528.8737	0.0056
529.0703	0.0106
529.2669	0.0197
529.4635	0.0014
529.6601	-0.0042
529.8567	0.0058
530.0532	0.0048
530.2498	0.0083
530.4463	0.0013
530.6428	0.013
530.8393	0.0251
531.0358	0.0023
531.2322	0.0018
531.4287	0.0045
531.6251	-0.0042
531.8215	-0.0016
532.0179	0.0104
532.2143	0.0069
532.4107	0.0139
532.607	0.0069
532.8034	0.0109
532.9997	0.0075
533.196	0.0087
533.3923	0.02
533.5886	0.0141
533.7848	0.0077
533.9811	0.0084
534.1773	-0.0011
534.3735	0.0236
534.5697	0.0001
534.7659	0.0071
534.9621	0.0074
535.1582	0.0098
535.3544	0.0162
535.5505	0.0085
535.7466	0.0096
535.9427	0.0077
536.1387	0.0093
536.3348	0.0148
536.5308	0.0014
536.7269	0.0081
536.9229	0.0062
537.1189	0.0113
537.3148	0.0099
537.5108	0.0043
537.7068	0.0123
537.9027	-0.0065
538.0986	0.0074
538.2945	0.0063
538.4904	-0.0007
538.6863	0.0047
538.8821	0.0175
539.078	0.0033
539.2738	0.0087
539.4696	0.0049
539.6654	0.014
539.8611	0.0099
540.0569	0.0057
540.2526	0.0197
540.4484	0.0026
540.6441	0.0028
540.8398	0.0205
541.0355	0.0088
541.2311	0.0124
541.4268	0.0111
541.6224	0.0215
541.818	0.0111
542.0136	0.016
542.2092	0.0133
542.4048	0.0019
542.6003	0.0064
542.7959	0.0219
542.9914	0.0124
543.1869	0.01
543.3824	0.0112
543.5779	0.0187
543.7734	0.016
543.9688	0.0094
544.1642	0.0088
544.3596	0.0177
544.555	0.0116
544.7504	0.0141
544.9458	0.0053
545.1411	0.004
545.3365	0.0127
545.5318	0.0141
545.7271	0.0217
545.9224	0.001
546.1177	0.0035
546.3129	0.013
546.5081	0.0076
546.7034	0.0075
546.8986	0.0144
547.0938	0.0138
547.289	0.0113
547.4841	0.0085
547.6793	0.0137
547.8744	0.0172
548.0695	0.001
548.2646	0.0094
548.4597	0.0061
548.6548	0.0184
548.8498	0.0137
549.0448	0.0067
549.2399	0.0202
549.4349	0.007
549.6298	0.0131
549.8248	0.0102
550.0198	0.0093
550.2147	0.015
550.4096	0.005
550.6045	0.0126
550.7994	0.0084
550.9943	0.0111
551.1892	-0.0058
551.384	0.0182
551.5788	0.0067
551.7737	0.0083
551.9685	0.0125
552.1632	0.0049
552.358	0.009
552.5528	0.0172
552.7475	0.0042
552.9422	0.0157
553.1369	0.015
553.3316	0.0138
553.5263	0.0071
553.7209	0.002
553.9156	0.0102
554.1102	0.0041
554.3048	0.0083
554.4994	0.0037
554.694	0.0116
554.8885	0.0121
555.0831	0.0127
555.2776	0.0182
555.4721	0.0124
555.6666	0.0073
555.8611	0.0067
556.0555	0.0146
556.25	0.016
556.4444	0.0091
556.6388	0.0106
556.8332	0.0119
557.0276	0.0038
557.222	-0.0041
557.4163	0.0149
557.6107	0.009
557.805	0.0008
557.9993	0.0093
558.1936	-0.0113
558.3879	0.0162
558.5821	0.0093
558.7764	0.0031
558.9706	0.003
559.1648	0.0158
559.359	0.001
559.5532	0.0013
559.7473	0.0128
559.9415	0.015
560.1356	0.0183
560.3297	0.0018
560.5238	0.0152
560.7179	0.0038
560.9119	0.005
561.106	-0.0017
561.3	0.0065
561.494	0.0021
561.688	0.003
561.882	0.0099
562.076	0.0146
562.2699	0.0208
562.4639	0.0254
562.6578	0.0212
562.8517	0.0129
563.0456	0.0095
563.2395	0.0147
563.4333	0.0011
563.6272	0.006
563.821	0.0088
564.0148	0.0059
564.2086	0.0021
564.4024	0.0162
564.5961	0.0156
564.7899	0.0195
564.9836	0.0077
565.1773	0.0183
565.371	0.0108
565.5647	0.0071
565.7584	0.0158
565.952	0.0061
566.1456	0.0062
566.3393	0.0101
566.5329	0.0016
566.7264	0.0113
566.92	0.007
567.1136	0.0076
567.3071	-0.0019
567.5006	0.0175
567.6941	0.0107
567.8876	0.0051
568.0811	0.0248
568.2745	0.0035
568.468	0.0062
568.6614	0.0126
568.8548	0.0086
569.0482	0.0116
569.2416	0.0143
569.4349	0.0074
569.6283	0.004
569.8216	0.0134
570.0149	0.0061
570.2082	0.0101
570.4015	0.0083
570.5947	0.0053
570.788	0.0128
570.9812	0.0021
571.1744	0.0095
571.3676	0.0093
571.5608	0.0104
571.754	0.016
571.9471	0.0157
572.1402	0.0101
572.3333	0.0077
572.5264	0.0024
572.7195	0.011
572.9126	0.0082
573.1057	0.0074
573.2987	0.008
573.4917	0.0052
573.6847	0.008
573.8777	0.0094
574.0707	0.0143
574.2636	0.0058
574.4566	0.0076
574.6495	0.0055
574.8424	0.0094
575.0353	0.0099
575.2281	0.0096
575.421	0.0062
575.6138	0.0086
575.8067	0.01
575.9995	0.0069
576.1923	0.0137
576.385	0.007
576.5778	0.0122
576.7706	0.009
576.9633	0.0101
577.156	0.0017
577.3487	0.007
577.5414	0.0062
577.734	0.0049
577.9267	0.0132
578.1193	0.0118
578.3119	0.0072
578.5045	0.0082
578.6971	0.0034
578.8897	0.0078
579.0822	0.0075
579.2747	0.0076
579.4673	0.0125
579.6598	0.0084
579.8522	0.0078
580.0447	0.007
580.2372	0.0141
580.4296	0.0129
580.622	0.0063
580.8144	0.0081
581.0068	0.0084
581.1992	0.009
581.3915	0.0009
581.5839	0.0068
581.7762	0.007
581.9685	0.0093
582.1608	0.0074
582.353	0.0077
582.5453	0.0091
582.7375	0.0062
582.9298	0.0049
583.122	0.0062
583.3142	0.0109
583.5063	0.0061
583.6985	0.0089
583.8906	0.0067
584.0827	0.0092
584.2749	0.0032
584.4669	0.0075
584.659	0.0102
584.8511	0.0117
585.0431	0.0123
585.2352	0.0042
585.4272	0.0087
585.6192	0.0105
585.8111	0.0061
586.0031	0.0049
586.195	0.0063
586.387	0.0048
586.5789	0.0088
586.7708	0.0077
586.9627	0.0073
587.1545	0.007
587.3464	0.0111
587.5382	0.0091
587.73	0.0068
587.9218	0.0039
588.1136	0.0031
588.3053	0.0104
588.4971	0.0044
588.6888	0.0092
588.8805	0.0091
589.0722	0.0199
589.2639	0.0102
589.4556	0.0096
589.6472	0.0128
589.8389	0.0059
590.0305	0.0028
590.2221	0.0105
590.4137	0.0022
590.6052	0.0014
590.7968	0.0091
590.9883	0.0098
591.1798	0.0068
591.3713	0.0057
591.5628	0.004
591.7543	0.0041
591.9458	0.01
592.1372	0.0103
592.3286	0.0047
592.52	0.0128
592.7114	0.0016
592.9028	0.0124
593.0941	0.0079
593.2855	0.008
593.4768	0.0148
593.6681	0.0118
593.8594	0.0113
594.0506	0.0093
594.2419	0.0085
594.4331	0.013
594.6244	0.0022
594.8156	0.0023
595.0067	-0.0002
595.1979	0.001
595.3891	0.0077
595.5802	0.0067
595.7713	0.008
595.9624	0.0119
596.1535	0.0054
596.3446	0.0069
596.5357	0.0112
596.7267	0.0105
596.9177	0.0016
597.1087	0.0055
597.2997	0.0053
597.4907	0.0026
597.6817	0.0127
597.8726	0.0158
598.0635	0.0063
598.2544	0.0128
598.4453	0.0078
598.6362	0.0101
598.827	0.0026
599.0179	0.0109
599.2087	0.0143
599.3995	0.0107
599.5903	0.0082
599.7811	0.0166
599.9718	0.0062
600.1626	0.0062
600.3533	0.0032
600.544	0.0071
600.7347	0.0088
600.9254	0.017
601.116	0.0114
601.3067	0.0065
601.4973	0.007
601.6879	0.0113
601.8785	0.0169
602.0691	0.0067
602.2596	0.0064
602.4502	0.0097
602.6407	0.0116
602.8312	0.0114
603.0217	0.0115
603.2122	0.009
603.4027	0.0033
603.5931	0.0072
603.7835	0.0092
603.9739	0.0051
604.1643	0.0112
604.3547	0.011
604.5451	0.0065
604.7354	0.0016
604.9257	0.0047
605.116	0.001
605.3063	0.0083
605.4966	0.0127
605.6869	0.0117
605.8771	0.0061
606.0673	0.0073
606.2575	0.0102
606.4477	0.0146
606.6379	0.0033
606.8281	0.0062
607.0182	0.01
607.2083	0.0107
607.3985	0.0054
607.5885	0.0057
607.7786	0.0048
607.9687	0.0099
608.1587	0.0135
608.3488	0.0058
608.5388	0.0028
608.7288	-0.0033
608.9187	0.0131
609.1087	0.013
609.2986	0.0145
609.4886	0.0072
609.6785	0.0065
609.8684	0.0048
610.0582	0.0062
610.2481	-0.0034
610.4379	0.0069
610.6278	0.0057
610.8176	0.0092
611.0074	0.0066
611.1971	0.0041
611.3869	0.0081
611.5766	-0.0001
611.7664	0.0081
611.9561	0.0113
612.1458	0.0123
612.3354	0.0041
612.5251	0.0068
612.7147	0.0058
612.9044	0.0057
613.094	0.0084
613.2836	0.0127
613.4731	0.0074
613.6627	0.0151
613.8522	0.0186
614.0417	0.0079
614.2313	0.0076
614.4207	0.0041
614.6102	0.017
614.7997	0.0129
614.9891	0.0085
615.1785	0.0034
615.3679	0.0102
615.5573	0.0086
615.7467	0.0054
615.9361	0.0096
616.1254	0.0172
616.3147	0.0026
616.504	0.0051
616.6933	0.0101
616.8826	0.0081
617.0718	0.0149
617.2611	0.0037
617.4503	0.0104
617.6395	0.0114
617.8287	0.0089
618.0179	0.0036
618.207	0.0245
618.3961	-0.0047
618.5853	0.0078
618.7744	0.0047
618.9634	0.0134
619.1525	0.0155
619.3416	0.0032
619.5306	0.0079
619.7196	0.0094
619.9086	0.0158
620.0976	-0.0052
620.2866	0.0193
620.4755	-0.0006
620.6645	0.0099
620.8534	0.0004
621.0423	0.0048
621.2312	0.0056
621.42	0.0055
621.6089	-0.0003
621.7977	0.0147
621.9865	0.008
622.1753	0.0016
622.3641	-0.0067
622.5529	0.0021
622.7416	0.0084
622.9303	0.0069
623.1191	0.0148
623.3078	0.0068
623.4964	0.0061
623.6851	0.0171
623.8737	0.0088
624.0624	-0.0025
624.251	0.0064
624.4396	0.0109
624.6282	0.0124
624.8167	0.0071
625.0053	0.016
625.1938	0.0119
625.3823	0.0063
625.5708	0.0029
625.7593	-0.0044
625.9477	0.0145
626.1362	0.0034
626.3246	0.0092
626.513	0.0129
626.7014	0.0144
626.8898	0.0162
627.0781	0.0058
627.2665	0.0136
627.4548	-0.0031
627.6431	0.0143
627.8314	0.0167
628.0197	0.0128
628.2079	0.0083
628.3962	0.0067
628.5844	0.0149
628.7726	0.0017
628.9608	0.0124
629.1489	0.0167
629.3371	0.0048
629.5252	0.009
629.7134	-0.0098
629.9015	0.0142
630.0895	-0.0043
630.2776	0.002
630.4657	0.0155
630.6537	0.0145
630.8417	-0.0059
631.0297	-0.0021
631.2177	0.0061
631.4057	0.0062
631.5936	0.0048
631.7815	0.0078
631.9695	0.017
632.1574	0.0148
632.3452	0.0065
632.5331	0.0034
632.7209	0.0139
632.9088	0.0092
633.0966	0.0152
633.2844	0.0122
633.4722	0.008
633.6599	0.0195
633.8477	0.011
634.0354	0.0156
634.2231	-0.0038
634.4108	-0.0033
634.5985	0.0176
634.7861	0.0045
634.9738	-0.0076
635.1614	0
635.349	0.0033
635.5366	-0.0022
635.7242	0.015
635.9117	0.0073
636.0993	0.0157
636.2868	-0.003
636.4743	0.0073
636.6618	-0.0075
636.8492	0.0072
637.0367	-0.0082
637.2241	-0.0047
637.4115	0.032
637.5989	0.0048
637.7863	0.0272
637.9737	0.0141
638.161	0.0019
638.3484	0.0018
638.5357	0.0038
638.723	0.0283
638.9103	-0.0037
639.0975	0.0166
639.2848	0.018
639.472	0.014
639.6592	-0.0188
639.8464	0.0078
640.0336	0.0216
640.2208	0.0002
640.4079	0.0171
640.595	0.0091
640.7821	0.0091
640.9692	-0.0006
641.1563	0.0135
641.3434	0.0143
641.5304	0.0115
641.7174	0.0171
641.9044	0.0079
642.0914	0.0418
642.2784	0.0115
642.4653	-0.0041
642.6523	0.0062
642.8392	0.0011
643.0261	0.0068
643.213	0.0051
643.3999	0.0178
643.5867	0.0163
643.7735	0.0078
643.9604	0.0245
644.1472	0.0236
644.3339	0.0112
644.5207	-0.0124
644.7075	-0.0057
644.8942	-0.007
645.0809	0.0119
645.2676	-0.0036
645.4543	0.0044
645.6409	0.0248
645.8276	0.0191
646.0142	-0.0064
646.2008	0.0144
646.3874	-0.0041
646.574	-0.0187
646.7605	-0.0022
646.9471	-0.0066
647.1336	-0.0023
647.3201	0.0114
647.5066	0.0116
647.6931	-0.003
647.8795	0.0125
648.0659	0.0103
648.2524	0.0089
648.4388	0.0211
648.6252	0.0129
648.8115	0.016
648.9979	0.0184
649.1842	0.0211
649.3705	0.013
649.5568	-0.001
649.7431	0.0098
649.9294	0.0053
650.1156	-0.0007
650.3018	0.015
650.488	0.0128
650.6742	0.0226
650.8604	0.0123
651.0466	-0.0053
651.2327	0.0246
651.4188	0.0007
651.6049	0.0323
651.791	-0.0041
651.9771	0.0144
652.1632	0.0168
652.3492	-0.0029
652.5352	0.0255
652.7212	0.0053
652.9072	0.002
653.0932	0.0169
653.2791	0.0069
653.465	0.0142
653.651	0.0166
653.8369	0.012
654.0227	-0.0067
654.2086	0.0075
654.3944	0.0199
654.5803	0.0031
654.7661	0.0074
654.9519	0.0053
655.1377	-0
655.3234	-0
655.5092	-0
655.6949	-0
655.8806	-0
656.0663	-0
656.2519	-0
656.4376	-0
656.6232	-0
656.8088	-0
656.9945	-0
657.18	-0
657.3656	-0
657.5511	-0
657.7367	-0
657.9222	-0
658.1077	-0
658.2932	-0
658.4786	-0
658.6641	-0
658.8495	-0
659.0349	-0
659.2203	-0
659.4057	0.0237
659.591	0.2891
659.7764	0.0288
659.9617	0.0177
660.147	0.0064
660.3323	0.0091
660.5176	0.0164
660.7028	0.0091
660.888	0.0039
661.0733	0.0222
661.2585	0.0037
661.4436	0.0194
661.6288	0.0089
661.8139	0.0081
661.9991	-0.0008
662.1842	-0.0055
662.3693	0.0172
662.5544	0.0116
662.7394	0.0335
662.9245	0.0151
663.1095	-0.0031
663.2945	0.0054
663.4795	-0.0008
663.6644	0.0003
663.8494	0.0284
664.0343	-0.0086
664.2193	0.0045
664.4042	0.0083
664.589	0.0109
664.7739	-0.0029
664.9587	-0.0069
665.1436	-0.0106
665.3284	-0.0055
665.5132	-0.0243
665.698	0.0014
665.8827	0.0131
666.0675	0.0109
666.2522	0.0154
666.4369	0.0079
666.6216	0.0208
666.8063	0.0079
666.9909	-0.0047
667.1756	-0.0059
667.3602	0.0103
667.5448	0.0172
667.7294	0.0179
667.9139	0.0035
668.0985	0.0208
668.283	0.001
668.4675	0.0397
668.652	0.0276
668.8365	0.0007
669.0209	0.0303
669.2054	0.0232
669.3898	0.0177
669.5742	0.0045
669.7586	0.019
669.943	-0.0003
670.1273	-0.0003
670.3117	0.0248
670.496	0.0358
670.6803	0.0128
670.8646	-0.0106
671.0488	0.0295
671.2331	-0.0164
671.4173	0.0051
671.6015	0.0099
671.7857	0.0094
671.9699	0.0142
672.1541	-0.0056
672.3382	0.0068
672.5223	0.0015
672.7064	-0.0022
672.8905	0.0091
673.0746	0.0141
673.2587	0.0208
673.4427	0.0231
673.6267	0.0184
673.8107	0.0084
673.9947	0.0367
674.1787	0.0158
674.3626	-0.0019
674.5465	0.0073
674.7304	0.0142
674.9143	0.012
675.0982	0.0323
675.2821	-0.0014
675.4659	-0.0046
675.6497	0.0164
675.8335	0.0042
676.0173	0.0227
676.2011	0.0273
676.3849	0.0141
676.5686	0.0182
676.7523	-0.0046
676.936	-0.0128
677.1197	0.0028
677.3034	0.0249
677.487	0.0007
677.6706	0.0105
677.8542	-0.0168
678.0378	0.0014
678.2214	0.0129
678.405	-0.0103
678.5885	0.0088
678.772	-0.0079
678.9555	0.0201
679.139	0.0265
679.3225	0.0105
679.5059	0.0091
679.6894	0.0214
679.8728	0.0196
680.0562	-0.0004
680.2395	0.0166
680.4229	0.0108
680.6062	0.007
680.7896	0.002
680.9729	0.022
681.1562	-0.0028
681.3394	0.0052
681.5227	-0.0019
681.7059	0.0255
681.8891	0.0193
682.0723	-0.0029
682.2555	0.0059
682.4387	-0.0051
682.6218	0.0174
682.805	0.0032
682.9881	-0.0005
683.1712	0.0138
683.3542	0.0166
683.5373	-0.0009
683.7203	0.0216
683.9034	0.0067
684.0864	-0.0066
684.2694	0.0054
684.4523	0.0147
684.6353	0.0009
684.8182	-0.0032
685.0011	0.0131
685.184	0.0092
685.3669	0.0235
685.5498	0.0109
685.7326	0.0028
685.9154	0.0006
686.0982	0.0235
686.281	0.0205
686.4638	0.0085
686.6465	0.0031
686.8293	-0.0044
687.012	0.0018
687.1947	-0.005
687.3774	0.02
687.56	0.0116
687.7427	0.0142
687.9253	0.0035
688.1079	0.0074
688.2905	0.0033
688.4731	0.022
688.6556	-0
688.8382	-0.0266
689.0207	0.0138
689.2032	0.0112
689.3857	0.0067
689.5681	0.0118
689.7506	0.0483
689.933	-0.0133
690.1154	0.0006
690.2978	0.0147
690.4802	0.0111
690.6626	0.0135
690.8449	0.0119
691.0272	0.0157
691.2095	-0.0129
691.3918	0.0148
691.5741	0.0195
691.7563	0.0177
691.9386	0.017
692.1208	0.0072
692.303	0.0053
692.4852	0.0091
692.6673	0.0113
692.8495	-0
693.0316	-0.0085
693.2137	0.0092
693.3958	0.013
693.5778	0.0056
693.7599	0.0003
693.9419	-0.0014
694.1239	0.0093
694.3059	0.0137
694.4879	0.0041
694.6699	-0.0023
694.8518	0.015
695.0337	0.0202
695.2157	0.041
695.3975	0.0019
695.5794	-0.0267
695.7613	0.0084
695.9431	-0.0047
696.1249	0.0308
696.3067	-0.0052
696.4885	0.0141
696.6703	0.0218
696.852	-0.003
697.0337	0.0223
697.2154	0.0148
697.3971	0.0063
697.5788	0.0054
697.7605	-0.0014
697.9421	0.0308
698.1237	0.0128
698.3053	-0.0131
698.4869	-0.0005
698.6685	-0.0187
698.85	0.0436
699.0315	0.0201
699.213	0.0152
699.3945	-0.0074
699.576	0.036
699.7575	-0.0036
699.9389	0.0012
700.1203	-0.0126
700.3017	0.0309
700.4831	0.0295
700.6645	0.0543
700.8458	-0.0028
701.0271	0.0346
701.2084	-0.0031
701.3897	0.0214
701.571	-0.0008
701.7523	0.0226
701.9335	0.0072
702.1147	0.0254
702.2959	-0.0106
702.4771	-0.0053
702.6583	0.0013
702.8394	-0.0259
703.0205	0.0188
703.2016	0.0154
703.3827	-0.005
703.5638	0.017
703.7449	0.0154
703.9259	0.0117
704.1069	-0.0045
704.2879	0.0123
704.4689	0.0395
704.6499	0.0078
704.8308	0.0228
705.0117	0.0031
705.1927	0.0196
705.3735	0.0097
705.5544	0.0336
705.7353	0.0029
705.9161	-0.0372
706.0969	0.0102
706.2777	0.0021
706.4585	0.0024
706.6393	0.0288
706.82	0.0108
707.0007	0.002
707.1815	0.0099
707.3621	0.0355
707.5428	0.0229
707.7235	0.0118
707.9041	0.0041
708.0847	-0.0005
708.2653	0.0227
708.4459	0.0009
708.6265	-0.0187
708.807	-0.0034
708.9875	-0.0105
709.168	0.0147
709.3485	0.0185
709.529	0.0427
709.7095	-0.0058
709.8899	0.0056
710.0703	0.0262
710.2507	-0.0098
710.4311	-0.0346
710.6115	0.0344
710.7918	0.0026
710.9721	0.0084
711.1524	-0.0156
711.3327	0.0004
711.513	0.0134
711.6932	-0.0258
711.8735	0.028
712.0537	-0.0041
712.2339	0.0198
712.4141	0.0175
712.5942	0.0029
712.7744	0.0397
712.9545	0.0113
713.1346	0.0359
713.3147	0.0155
713.4947	-0.0249
713.6748	0.0164
713.8548	0.0293
714.0348	0.0309
714.2148	0.0022
714.3948	0.0398
714.5748	0.0106
714.7547	0.015
714.9346	0.0138
715.1145	0.0179
715.2944	-0.0073
715.4743	0.0146
715.6541	-0.0205
715.834	0.0614
716.0138	0.0057
716.1936	0.0043
716.3733	0.0127
716.5531	-0.0048
716.7328	0.0147
716.9126	0.0184
717.0923	-0.0075
717.2719	0.0233
717.4516	0.0157
717.6312	-0.0235
717.8109	0.0318
717.9905	0.0163
718.1701	0.0257
718.3496	0.0148
718.5292	0.0341
718.7087	-0.019
718.8882	0.0151
719.0677	0.0089
719.2472	-0.0072
719.4267	0.0201
719.6061	-0.0245
719.7856	0.0273
719.965	-0.0193
720.1443	0.0249
720.3237	0.0024
720.5031	0.0195
720.6824	0.0096
720.8617	-0.0022
721.041	0.0367
721.2203	-0.0155
721.3995	-0.003
721.5788	0.0016
721.758	0.0148
721.9372	0.0024
722.1164	0.006
722.2956	0.0107
722.4747	0.0206
722.6538	0.0022
722.8329	0.0275
723.012	-0.0084
723.1911	-0.003
723.3702	0.0178
723.5492	0.0256
723.7282	-0
723.9072	0.0064
724.0862	0.009
724.2652	0.0148
724.4441	-0.0032
724.623	0.0068
724.8019	0.0127
724.9808	-0.0124
725.1597	0.001
725.3385	-0.0064
725.5174	0.0176
725.6962	0.0044
725.875	-0.003
726.0538	0.0109
726.2325	0.0094
726.4112	-0.0264
726.59	-0.0084
726.7687	-0.0029
726.9474	-0.0076
727.126	0.0119
727.3047	-0.0113
727.4833	0.0188
727.6619	-0.0141
727.8405	-0.0007
728.0191	0.0216
728.1976	-0.0067
728.3762	0.0198
728.5547	-0.0061
728.7332	0.0035
728.9116	0.0131
729.0901	-0.0025
729.2686	0.0016
729.447	0.0035
729.6254	0.0262
729.8038	0.0236
729.9821	-0.0127
730.1605	0.0112
730.3388	0.0039
730.5171	0.0191
730.6954	-0.0103
730.8737	0.006
731.0519	-0.0066
731.2302	0.0013
731.4084	0.0155
731.5866	-0.0069
731.7648	0.0134
731.9429	0.026
732.1211	-0.0006
732.2992	0.0084
732.4773	0.0141
732.6554	-0.0274
732.8335	0.028
733.0115	0.0288
733.1896	0.0032
733.3676	0.0291
733.5456	0.0139
733.7235	0.006
733.9015	0.0068
734.0794	-0.0005
734.2574	-0.0116
734.4353	0.0261
734.6131	-0.0047
734.791	0.0025
734.9689	-0.0115
735.1467	-0.021
735.3245	0.0035
735.5023	0.0096
735.68	0.019
735.8578	0.0073
736.0355	0.0243
736.2132	0.0042
736.3909	0.0121
736.5686	-0.0035
736.7463	-0.014
736.9239	0.0198
737.1015	-0.0108
737.2791	0.0155
737.4567	0.018
737.6343	0.005
737.8118	0.0261
737.9894	0.0074
738.1669	-0.001
738.3444	0.0377
738.5218	-0.0098
738.6993	0.0217
738.8767	0.0122
739.0541	-0.0171
739.2315	-0.0128
739.4089	0.0122
739.5863	0.0074
739.7636	0.0201
739.9409	0.0167
740.1182	0.0169
740.2955	0.0227
740.4728	-0.0013
740.65	-0.0092
740.8272	0.0211
741.0044	0.0189
741.1816	0.0084
741.3588	-0.0252
741.5359	0.0132
741.7131	0.0085
741.8902	-0.015
742.0673	-0.0233
742.2444	0.0401
742.4214	0.0217
742.5985	0.0021
742.7755	-0.0107
742.9525	-0.0156
743.1295	-0.024
743.3064	0.0179
743.4834	-0.002
743.6603	0.0543
743.8372	-0.0198
744.0141	0.045
744.191	0.0128
744.3678	-0.0343
744.5446	-0
744.7215	0.0153
744.8982	0.0154
745.075	0.0791
745.2518	0.0068
745.4285	0.0193
745.6052	-0.0135
745.7819	0.023
745.9586	0.0096
746.1353	0.0119
746.3119	-0.0056
746.4885	0.0557
746.6651	0.0153
746.8417	0.0243
747.0183	0.0281
747.1948	-0.0009
747.3714	0.0057
747.5479	0.0474
747.7244	-0.0023
747.9008	0.0056
748.0773	0.0499
748.2537	0.0398
748.4301	0.0168
748.6065	0.0036
748.7829	-0.0176
748.9593	-0.0015
749.1356	0.024
749.3119	0.0045
749.4882	0.0368
749.6645	0.0018
749.8408	0.0349
750.017	0.0219
750.1933	-0.0117
750.3695	0.0297
750.5457	0.0092
750.7218	-0.0016
750.898	0.0047
751.0741	0.0045
751.2502	0.0053
751.4263	0.006
751.6024	0.0108
751.7784	0.0212
751.9545	0.0301
752.1305	0.0217
752.3065	0.0293
752.4825	-0.0103
752.6584	0.027
752.8344	-0.0105
753.0103	-0.0103
753.1862	0.0089
753.3621	-0.0016
753.5379	-0.0037
753.7138	0.019
753.8896	0.0011
754.0654	-0.0094
754.2412	0.0137
754.417	0.0095
754.5927	0.0213
754.7685	0.0258
754.9442	0.0173
755.1199	0.0145
755.2956	0.0036
755.4712	0.0096
755.6469	0.0143
755.8225	0.0156
755.9981	0.0172
756.1736	0.0032
756.3492	0.0078
756.5248	0.0256
756.7003	0.0109
756.8758	0.0047
757.0513	-0.002
757.2267	0.0156
757.4022	-0.0045
757.5776	0.0159
757.753	0.019
757.9284	0.0078
758.1038	0.0207
758.2791	-0.0049
758.4545	-0.0017
758.6298	0.0116
758.8051	0.0063
758.9803	0.0143
759.1556	0.006
759.3308	-0.0061
759.506	0.015
759.6812	-0.0059
759.8564	0.0015
760.0316	-0.0027
760.2067	0.0327
760.3819	0.0083
760.557	0.0109
760.732	-0.002
760.9071	-0.0035
761.0821	0.0142
761.2572	0.0158
761.4322	0.019
761.6072	0.035
761.7821	-0.0107
761.9571	0.0296
762.132	0.0203
762.3069	0.0039
762.4818	0.0027
762.6567	-0.0036
762.8316	0.0294
763.0064	0.0027
763.1812	0.0139
763.356	-0.0101
763.5308	0.007
763.7055	0.0016
763.8803	-0.0178
764.055	-0.0013
764.2297	-0.0035
764.4044	0.0051
764.579	-0.0032
764.7537	0.017
764.9283	0.0205
765.1029	0.0015
765.2775	0.0162
765.4521	0.0082
765.6266	-0.004
765.8011	-0.0067
765.9756	-0
766.1501	0.0085
766.3246	0.0185
766.4991	0.0082
766.6735	0.0261
766.8479	0.0043
767.0223	0.0077
767.1967	-0.022
767.371	0.0115
767.5454	0.0458
767.7197	0.0079
767.894	0.0127
768.0683	0.0128
768.2425	-0.0045
768.4168	0.0007
768.591	0.0234
768.7652	0.0111
768.9394	-0.0109
769.1135	0.0273
769.2877	0.0361
769.4618	0.0481
769.6359	-0.0083
769.81	0.0167
769.984	0.0023
770.1581	0.042
770.3321	0.0118
770.5061	-0.0053
770.6801	-0.001
770.8541	0.0112
771.028	0.0263
771.202	0.0067
771.3759	0.0337
771.5498	0.0241
771.7236	0.0183
771.8975	0.0023
772.0713	-0.0023
772.2451	-0.0338
772.4189	0.0005
772.5927	-0.0293
772.7665	-0.0243
772.9402	0.0187
773.1139	0.0072
773.2876	0.0296
773.4613	0.0208
773.635	0.035
773.8086	0.0273
773.9822	0.0122
774.1558	0.0505
774.3294	-0.0041
774.503	-0.0075
774.6765	0.023
774.8501	-0.0101
775.0236	0.0328
775.1971	-0.0302
775.3705	-0.0242
775.544	-0.0241
775.7174	0.015
775.8908	-0.0121
776.0642	0.0025
776.2376	0.041
776.4109	0.0256
776.5843	0.0044
776.7576	0.0077
776.9309	-0.0074
777.1041	-0.0366
777.2774	-0.0304
777.4506	-0.0101
777.6238	-0.0017
777.797	0.0209
777.9702	0.0093
778.1434	-0.0074
778.3165	-0.0193
778.4896	-0.0475
778.6627	0.016
778.8358	-0.0097
779.0089	-0.0136
779.1819	0.0109
779.3549	0.0047
779.5279	-0.0115
779.7009	0.0336
779.8739	0.0526
780.0468	0.0071
780.2197	-0.0345
780.3926	-0.0223
780.5655	-0.0108
780.7384	0.0152
780.9112	0.0326
781.0841	0.0317
781.2569	-0.0045
781.4297	0.0205
781.6024	0.0158
781.7752	0.0237
781.9479	0.0531
782.1206	0.0021
782.2933	0.0057
782.466	0.036
782.6386	0.0104
782.8113	0.0331
782.9839	-0.0029
783.1565	0.0214
783.329	0.0165
783.5016	0.0034
783.6741	-0.0301
783.8466	0.0185
784.0191	0.0196
784.1916	0.0032
784.3641	-0.0642
784.5365	0.0349
784.7089	-0.0156
784.8813	0.0549
785.0537	0.0027
785.2261	0.0244
785.3984	0.0021
785.5707	0.012
785.743	0.0403
785.9153	-0.0209
786.0876	-0.015
786.2598	0.0068
786.432	0.0128
786.6042	0.0349
786.7764	-0.0149
786.9486	0.0077
787.1207	0.0401
787.2928	0.0179
787.4649	0.0052
787.637	-0.0093
787.8091	-0.0075
787.9811	0.0308
788.1532	0.0151
788.3252	0.0076
788.4972	0.0237
788.6691	0.0185
788.8411	0.0191
789.013	-0.0037
789.1849	-0.0014
789.3568	-0.0101
789.5287	0.0627
789.7005	-0.0158
789.8723	-0.0333
790.0442	-0.0175
790.2159	-0.0112
790.3877	0.0381
790.5595	0.0379
790.7312	-0.003
790.9029	-0.0171
791.0746	-0.0177
791.2463	-0.0046
791.4179	-0.0011
791.5896	0.0434
791.7612	0.0497
791.9328	-0.0012
792.1044	0.0246
792.2759	-0.0654
792.4474	-0.0204
792.619	-0.0422
792.7905	0.0127
792.9619	0.0504
793.1334	0.003
793.3048	0.0766
793.4762	0.0034
793.6476	-0.0223
793.819	0.0081
793.9904	-0.0018
794.1617	-0.0189
794.333	0.04
794.5043	0.0254
794.6756	0.0367
794.8469	0.0074
795.0181	0.0273
795.1893	-0.0006
795.3605	0.0363
795.5317	0.008
795.7029	-0.0108
795.874	-0
796.0452	0.0113
796.2163	0.086
796.3873	0.0937
796.5584	0.0316
796.7294	0.0106
796.9005	0.0784
797.0715	-0.0304
797.2425	0.0727
797.4134	0.0516
797.5844	0.0625
797.7553	-0.0125
797.9262	0.1053
798.0971	-0.0052
798.2679	-0.0036
798.4388	0.0721
798.6096	0.0567
798.7804	0.0149
798.9512	0.0889
799.122	0.0347
799.2927	0.065
799.4635	0.0045
799.6342	-0.0492
799.8049	0.0308
799.9755	-0.0373
800.1462	-0.0027
800.3168	0.0666
800.4874	-0.1002
800.658	0.0242
800.8286	0.0255
800.9991	0.0176
801.1696	0.0193
801.3402	-0.0456
801.5106	-0.0552
801.6811	-0.039
801.8516	0.0749
802.022	-0.0326
802.1924	-0.0674
802.3628	0.0841
802.5332	-0.0235
802.7035	0.0629
802.8739	0.0322
803.0442	-0.0358
803.2145	-0.0538
803.3847	0.0439
803.555	0.0268
803.7252	-0.0407
803.8954	-0.0481
804.0656	0.0346
804.2358	-0.0433
804.4059	0.0388
804.5761	0.0355
804.7462	0.0322
804.9163	-0.0139
805.0864	0.042
805.2564	-0.0038
805.4264	-0.0146
805.5965	0.0768
805.7665	0.0603
805.9364	0.0306
806.1064	-0.0194
806.2763	0.0323
806.4462	0.0626
806.6161	0.0179
806.786	0.0194
806.9559	0.0615
807.1257	-0.0461
807.2955	-0.0459
807.4653	0.0024
807.6351	0.0588
807.8048	-0.0147
807.9746	-0.0335
808.1443	-0.0461
808.314	0.0277
808.4837	0.0075
808.6533	0.0031
808.8229	0.0141
808.9926	0.0413
809.1622	0.0131
809.3317	-0.0363
809.5013	-0.0073
809.6708	0.0118
809.8403	-0.0127
810.0098	-0.0018
810.1793	0.0417
810.3488	-0.0404
810.5182	0.1105
810.6876	-0.0096
810.857	0.025
811.0264	-0.0268
811.1958	0.0658
811.3651	-0.0274
811.5344	0.1765
811.7037	0.1078
811.873	0.0571
812.0422	-0.1104
812.2115	-0.0115
812.3807	-0.069
812.5499	0.0052
812.7191	-0.0082
812.8882	0.0393
813.0574	0.0297
813.2265	0.0459
813.3956	-0.0103
813.5646	-0.0989
813.7337	-0.0474
813.9027	-0.0101
814.0718	0.0014
814.2407	-0.0048
814.4097	0.033
814.5787	0.0337
814.7476	0.0224
814.9165	0.0447
815.0854	-0.0293
815.2543	-0.059
815.4232	0.0939
815.592	0.1178
815.7608	-0.0274
815.9296	-0.0695
816.0984	0.2752
816.2671	-0.3239
816.4359	0.0538
816.6046	0.0316
816.7733	-0.0811
816.942	-0.1305
817.1106	0.1268
817.2793	-0.0567
817.4479	-0.0425
817.6165	0.0133
817.785	0.0816
817.9536	-0.1265
818.1221	-0.0102
818.2906	-0.0958
818.4591	0.0395
818.6276	-0.0097
818.7961	-0.0094
818.9645	0.0344
819.1329	0.0215
819.3013	0.0399
819.4697	0.18
819.638	-0.0262
819.8064	0.1654
819.9747	0.103
820.143	-0.0451
820.3113	0.0788
820.4795	0.0489
820.6477	0.1465
820.816	0.0501
820.9842	0.0679
821.1523	0.0413
821.3205	-0.004
821.4886	-0.022
821.6567	-0.0584
821.8248	0.1807
821.9929	-0.1154
822.1609	-0.0067
822.329	0.0848
822.497	-0.0049
822.665	-0.0952
822.833	-0.0881
823.0009	0.0684
823.1688	0.2216
823.3367	-0.0985
823.5046	-0.0134
823.6725	-0.0316
823.8404	0.0247
824.0082	-0.0712
824.176	-0.0475
824.3438	0.1091
824.5116	0.0163
824.6793	0.1041
824.847	0.1356
825.0147	-0
825.1824	-0.02
825.3501	-0.0903
825.5177	0.1786
825.6854	-0.0475
825.853	-0.0556
826.0206	-0.0346
826.1881	-0.0178
826.3557	0.0527
826.5232	0.0349
826.6907	0.0024
826.8582	0.0043
827.0257	0.2109
827.1931	0.0112
827.3605	-0.0833
827.528	-0.1768
827.6953	-0.254
827.8627	-0.1282
828.03	0.1958
828.1974	0.1232
828.3647	-0.0133
828.532	0.0197
828.6992	0.0173
828.8665	-0.2216
829.0337	0.0352
829.2009	-0.1312
829.3681	0.0577
829.5352	-0.0908
829.7024	0.2942
829.8695	-0.0826
830.0366	0.2168
830.2037	0.1455
830.3707	0.0031
830.5378	0.0227
830.7048	-0.1889
830.8718	0.0552
831.0388	0.1991
831.2057	0.0859
831.3727	-0.2498
831.5396	0.2569
831.7065	-0.9096
831.8734	0.2342
832.0402	0.2992
832.2071	-0.5112
832.3739	-0.2858
832.5407	-2.0509
832.7075	-0.4714
832.8742	0.2516
833.041	0.144
833.2077	0.0773
833.3744	-0.0643
833.541	0.019
833.7077	0.3295
833.8743	0.1485
834.0409	-0.0573
834.2075	0.1349
834.3741	-0.1628
834.5407	0.1345
834.7072	0.0464
834.8737	-0.0074
835.0402	0.0239
835.2067	-0.159
835.3731	-0.0831
835.5395	0.0112
835.706	-0.2877
835.8723	-0.1609
836.0387	0.1054
836.2051	0.0082
836.3714	-0.092
836.5377	0.0506
836.704	0.157
836.8703	0.2748
837.0365	-0.4543
837.2027	-0.0863
837.3689	0.2199
837.5351	0.1282
837.7013	-0.288
837.8674	0.2382
838.0335	-0.1445
838.1997	-0.0742
838.3657	-0
838.5318	0.5455
838.6978	-0.014
838.8639	-0.4758
839.0299	-0.0751
839.1958	-0.018
839.3618	-0.1162
839.5277	-0.0962
839.6937	0.1334
839.8596	-0.2525
840.0254	0.0085
840.1913	0.7295
840.3571	-0.1134
840.523	-1.3541
840.6888	0.1534
840.8545	-0.5732
841.0203	0.7786
841.186	-0.194
841.3517	-0.2591
841.5174	0.1068
841.6831	-0.1432
841.8488	-0.0246
842.0144	-0.2293
842.18	0.4671
842.3456	-0.4977
842.5112	-0
842.6767	-0.1345
842.8422	-0.3129
843.0077	0.2283
843.1732	-0.3905
843.3387	0.0884
843.5042	-0
843.6696	-0
843.835	-0.2435
844.0004	-0.1385
844.1657	-0
844.3311	0.1288
844.4964	-0.9272
844.6617	-0
844.827	-0
844.9923	0.116
845.1575	-0.2821
845.3227	-0.5556
845.4879	-0.4195
845.6531	-0.112
845.8183	0.2695
845.9834	-0
846.1485	0.3588
846.3136	-0.1375
846.4787	-0
846.6438	-0
846.8088	-0
846.9738	-0.0857
847.1388	0.1335
847.3038	0.0941
847.4687	-0
847.6337	0.3634
847.7986	-0.2099
847.9635	-0.0691
848.1284	2.0235
848.2932	-0.1099
848.458	-0
848.6228	-0
848.7876	-0
848.9524	-0
849.1172	-1.3979
849.2819	-0
849.4466	0.2256
849.6113	0.1101
849.7759	-0.4591
849.9406	-0.143
850.1052	-1.4592
850.2698	-0
850.4344	-0.4543
850.599	0.2076
850.7635	0.0647
850.928	0.1613
851.0925	0.1145
851.257	-0.0383
851.4215	-0
851.5859	0.0839
851.7503	-0
851.9147	-0.1053
852.0791	-0.1194
852.2434	0.3673
852.4078	0.0291
852.5721	0.2213
852.7364	-0.3749
852.9007	-0.1534
853.0649	1.3054
853.2291	-0
853.3934	-0.6091
853.5575	-0.4099
853.7217	1.0713
853.8859	-0.5943
854.05	-0.3942
854.2141	0.1668
854.3782	-0.211
854.5423	-0.4041
854.7063	-0.0688
854.8703	0.3042
855.0343	-0.1744
855.1983	-0.0498
855.3623	0.0351
855.5262	-0
855.6901	0.7218
855.854	0.1803
856.0179	-0.4815
856.1818	0.7155
856.3456	0.3403
856.5094	-0.0479
856.6732	-0.1515
856.837	-1.3481
857.0008	-0.1994
857.1645	0.0468
857.3282	-0.4111
857.4919	0.7203
857.6556	0.1121
857.8192	0.3778
857.9828	-0.2623
858.1465	0.5446
858.31	0.418
858.4736	-0.5668
858.6372	-0.065
858.8007	-0.182
858.9642	-0.102
859.1277	0.6663
859.2911	0.1288
859.4546	-0
859.618	0.9821
859.7814	0.023
859.9448	-0.0495
860.1081	-0
860.2715	-0
860.4348	-0.0489
860.5981	0.3845
860.7614	-0.2053
860.9246	0.257
861.0879	0.1784
861.2511	-0
861.4143	0.1069
861.5774	0.2268
861.7406	-0.0905
861.9037	-0
862.0668	-0
862.2299	0.187
862.393	0.4816
862.556	0.6517
862.7191	-0.6436
862.8821	0.1725
863.0451	0.0895
863.208	-0
863.371	-0.091
863.5339	1.5197
863.6968	0.7285
863.8597	-0.3706
864.0225	-0
864.1854	-0.2562
864.3482	-1.2466
864.511	-0.1203
864.6737	-0
864.8365	0.1823
864.9992	-0
865.1619	0.2111
865.3246	-2.0179
865.4873	-0
865.65	-0
865.8126	0.0275
865.9752	-0.2386
866.1378	-0.0825
866.3004	-0.4712
866.4629	-1.8316
866.6254	-0
866.7879	0.2889
866.9504	-0
867.1129	-0.128
867.2753	0.2249
867.4377	-0.0569
867.6001	-0.7125
867.7625	-0.0978
867.9249	-0.1723
868.0872	0.1023
868.2495	0.5337
868.4118	-0
868.5741	-0.491
868.7363	-0
868.8986	-0
869.0608	-0.1392
869.223	-0.0867
869.3851	-0
869.5473	-0.0711
869.7094	-0
869.8715	-1.0541
870.0336	0.0583
870.1957	-0
870.3577	0.2319
870.5197	-0.1176
870.6817	-0.6526
870.8437	-0.1088
871.0057	0.5226
871.1676	0.3284
871.3295	-0
871.4914	-1.3054
871.6533	-0
871.8151	0.2214
871.977	-0.3937
872.1388	-0.0619
872.3006	-0
872.4623	-0.8769
872.6241	0.1729
872.7858	-0
872.9475	-0
873.1092	0.2848
873.2709	0.2088
873.4325	-1.3979
873.5941	-0
873.7557	0.9168
873.9173	0.2019
874.0789	0.0903
874.2404	-0
874.4019	0.0402
874.5634	-0
874.7249	-0
874.8863	0.8577
875.0478	-0.2694
875.2092	-0
875.3706	0.4616
875.5319	-0
875.6933	-0
875.8546	-0.2441
876.0159	-0.1589
876.1772	-0.3723
876.3385	0.0518
876.4997	0.3665
876.6609	0.3911
876.8221	-0
876.9833	-0
877.1445	0.2139
877.3056	0.2126
877.4667	-0
877.6278	-0
877.7889	0.1724
877.9499	-0
878.111	-0.5888
878.272	-0.027
878.433	0.1529
878.5939	0.2576
878.7549	0.7376
878.9158	0.0655
879.0767	-0.3155
879.2376	-0
879.3984	0.5227
879.5593	0.2279
879.7201	-1.1677
879.8809	-0
880.0417	-0.4111
880.2024	0.3048
880.3632	-0.3441
880.5239	0.2544
880.6846	1.1677
880.8452	0.5988
881.0059	-0
881.1665	-0.0244
881.3271	-0
881.4877	0.0978
881.6483	-1.1587
881.8088	-0
881.9693	-0
882.1298	-0
882.2903	-0
