Data from D4ACN5uM420nmA_Absorbance_14-37-07-316.txt Node
Date: Fri Feb 21 14:37:07 GMT 2025
User: LASERRRRR
Spectrometer: FLMT03099
Trigger mode: 0
Integration Time (sec): 1.500000E-2
Scans to average: 1
Electric dark correction enabled: true
Nonlinearity correction enabled: false
Boxcar width: 0
XAxis mode: Wavelengths
Number of Pixels in Spectrum: 3648
>>>>>Begin Spectral Data<<<<<
179.3399	1.1139
179.5586	1.1139
179.7771	1.1139
179.9957	-0.112
180.2143	-1.4792
180.4329	1.0548
180.6514	-0
180.8699	-0
181.0885	-0
181.307	0.3087
181.5255	0.0851
181.744	-0
181.9625	1.0985
182.181	1.3339
182.3994	-0
182.6179	-0.6833
182.8363	-0.0905
183.0547	-0
183.2732	0.1113
183.4916	0.146
183.71	0.2112
183.9284	0.0041
184.1467	0.0961
184.3651	0.0744
184.5835	0.3208
184.8018	0.0393
185.0201	0.3228
185.2385	0.0912
185.4568	0.1276
185.6751	0.1371
185.8934	0.1195
186.1117	-0.1692
186.3299	0.1436
186.5482	0.6162
186.7664	0.0582
186.9847	0.2109
187.2029	0.0637
187.4211	-0.103
187.6393	0.1689
187.8575	0.3139
188.0757	0.1879
188.2939	0.0803
188.512	0.3421
188.7302	0.299
188.9483	0.3963
189.1665	0.5132
189.3846	0.2153
189.6027	0.1164
189.8208	0.341
190.0389	0.1712
190.257	0.0885
190.475	-0
190.6931	0.114
190.9111	0.1312
191.1292	0.0221
191.3472	0.0942
191.5652	0.2827
191.7832	0.0923
192.0012	0.0397
192.2192	0.1547
192.4371	0.1258
192.6551	0.1552
192.873	0.0836
193.091	0.1301
193.3089	0.1437
193.5268	0.1708
193.7447	0.1418
193.9626	0.1801
194.1805	0.2447
194.3984	0.1588
194.6162	0.2383
194.8341	0.3391
195.0519	0.2185
195.2697	0.2013
195.4875	0.265
195.7054	0.2224
195.9231	0.157
196.1409	0.3187
196.3587	0.3143
196.5765	0.32
196.7942	0.2852
197.012	0.2854
197.2297	0.3086
197.4474	0.4057
197.6651	0.3211
197.8828	0.3335
198.1005	0.408
198.3182	0.4057
198.5358	0.3258
198.7535	0.3739
198.9711	0.3987
199.1888	0.3312
199.4064	0.4089
199.624	0.3831
199.8416	0.3357
200.0592	0.3382
200.2767	0.3543
200.4943	0.4712
200.7119	0.392
200.9294	0.4288
201.1469	0.4015
201.3645	0.4511
201.582	0.3737
201.7995	0.396
202.017	0.3888
202.2344	0.3765
202.4519	0.4239
202.6694	0.3702
202.8868	0.3748
203.1042	0.4106
203.3217	0.3378
203.5391	0.3651
203.7565	0.3553
203.9739	0.3836
204.1913	0.3585
204.4086	0.3741
204.626	0.3856
204.8433	0.3611
205.0607	0.3619
205.278	0.3329
205.4953	0.3294
205.7126	0.3606
205.9299	0.3475
206.1472	0.3621
206.3644	0.3453
206.5817	0.3502
206.7989	0.3444
207.0162	0.2957
207.2334	0.3407
207.4506	0.311
207.6678	0.302
207.885	0.3013
208.1022	0.3001
208.3194	0.2884
208.5365	0.2791
208.7537	0.2905
208.9708	0.2924
209.1879	0.2878
209.405	0.278
209.6222	0.2954
209.8392	0.2826
210.0563	0.2797
210.2734	0.2767
210.4905	0.2842
210.7075	0.2828
210.9245	0.2951
211.1416	0.2699
211.3586	0.255
211.5756	0.2437
211.7926	0.2523
212.0096	0.2713
212.2265	0.2648
212.4435	0.2387
212.6604	0.2774
212.8774	0.2533
213.0943	0.2653
213.3112	0.2517
213.5281	0.2447
213.745	0.2378
213.9619	0.2586
214.1788	0.2684
214.3956	0.2495
214.6125	0.2594
214.8293	0.252
215.0461	0.2529
215.2629	0.2636
215.4798	0.2376
215.6965	0.2514
215.9133	0.2481
216.1301	0.2496
216.3469	0.2619
216.5636	0.2569
216.7803	0.2404
216.9971	0.2614
217.2138	0.2384
217.4305	0.2455
217.6472	0.2379
217.8639	0.2419
218.0805	0.2338
218.2972	0.2359
218.5138	0.2535
218.7305	0.2716
218.9471	0.2347
219.1637	0.2687
219.3803	0.2705
219.5969	0.2456
219.8135	0.2534
220.0301	0.2673
220.2466	0.2545
220.4632	0.253
220.6797	0.2699
220.8962	0.2679
221.1127	0.2547
221.3292	0.26
221.5457	0.2747
221.7622	0.2731
221.9787	0.2877
222.1951	0.278
222.4116	0.2808
222.628	0.2813
222.8444	0.2798
223.0608	0.2743
223.2772	0.2877
223.4936	0.2854
223.71	0.281
223.9264	0.3067
224.1427	0.2812
224.3591	0.2843
224.5754	0.2845
224.7917	0.2914
225.008	0.289
225.2243	0.3102
225.4406	0.3077
225.6569	0.3235
225.8732	0.3099
226.0894	0.3039
226.3057	0.296
226.5219	0.3142
226.7381	0.3249
226.9543	0.3203
227.1705	0.3183
227.3867	0.3157
227.6029	0.3241
227.8191	0.3458
228.0352	0.3521
228.2513	0.3442
228.4675	0.3416
228.6836	0.3484
228.8997	0.3419
229.1158	0.3481
229.3319	0.3577
229.548	0.3474
229.764	0.3551
229.9801	0.3728
230.1961	0.3694
230.4121	0.3748
230.6282	0.3897
230.8442	0.3887
231.0602	0.3918
231.2761	0.3825
231.4921	0.3798
231.7081	0.3847
231.924	0.3934
232.14	0.4113
232.3559	0.4052
232.5718	0.4096
232.7877	0.4111
233.0036	0.4124
233.2195	0.4169
233.4353	0.4181
233.6512	0.4058
233.867	0.4159
234.0829	0.4338
234.2987	0.4347
234.5145	0.4377
234.7303	0.4386
234.9461	0.4474
235.1619	0.4394
235.3776	0.4355
235.5934	0.4274
235.8091	0.4402
236.0249	0.4488
236.2406	0.4377
236.4563	0.4474
236.672	0.4502
236.8877	0.4551
237.1034	0.4527
237.319	0.4587
237.5347	0.4609
237.7503	0.452
237.966	0.4618
238.1816	0.4555
238.3972	0.4606
238.6128	0.4665
238.8284	0.4649
239.0439	0.4659
239.2595	0.4641
239.475	0.4722
239.6906	0.4539
239.9061	0.4656
240.1216	0.4699
240.3371	0.4673
240.5526	0.4772
240.7681	0.4687
240.9836	0.4527
241.199	0.4544
241.4145	0.455
241.6299	0.4528
241.8453	0.4409
242.0607	0.4433
242.2761	0.4359
242.4915	0.4343
242.7069	0.4192
242.9223	0.4191
243.1376	0.4171
243.353	0.4101
243.5683	0.3969
243.7836	0.3928
243.9989	0.3783
244.2142	0.3671
244.4295	0.3665
244.6448	0.3688
244.86	0.3533
245.0753	0.3419
245.2905	0.3428
245.5057	0.3348
245.721	0.3335
245.9362	0.3257
246.1514	0.327
246.3665	0.3094
246.5817	0.3019
246.7969	0.2994
247.012	0.2946
247.2271	0.294
247.4423	0.2879
247.6574	0.2847
247.8725	0.271
248.0876	0.2693
248.3026	0.2752
248.5177	0.257
248.7328	0.2519
248.9478	0.2542
249.1628	0.2572
249.3779	0.2494
249.5929	0.2407
249.8079	0.2386
250.0228	0.2298
250.2378	0.2346
250.4528	0.2311
250.6677	0.2295
250.8827	0.2175
251.0976	0.2218
251.3125	0.2217
251.5274	0.2156
251.7423	0.2152
251.9572	0.2174
252.172	0.2085
252.3869	0.2102
252.6017	0.2088
252.8166	0.2062
253.0314	0.1999
253.2462	0.201
253.461	0.1987
253.6758	0.197
253.8906	0.1977
254.1053	0.1989
254.3201	0.1989
254.5348	0.1884
254.7496	0.1871
254.9643	0.1924
255.179	0.1899
255.3937	0.1967
255.6083	0.1887
255.823	0.1873
256.0377	0.1843
256.2523	0.1842
256.467	0.1913
256.6816	0.1855
256.8962	0.1912
257.1108	0.1809
257.3254	0.1843
257.54	0.1858
257.7545	0.1873
257.9691	0.186
258.1836	0.1789
258.3981	0.1823
258.6127	0.1787
258.8272	0.1917
259.0417	0.1815
259.2561	0.1824
259.4706	0.18
259.6851	0.1822
259.8995	0.1833
260.114	0.178
260.3284	0.1792
260.5428	0.1796
260.7572	0.1801
260.9716	0.1815
261.186	0.1811
261.4003	0.1797
261.6147	0.1809
261.829	0.1834
262.0433	0.1823
262.2577	0.1831
262.472	0.1782
262.6863	0.1832
262.9005	0.1835
263.1148	0.1759
263.3291	0.1811
263.5433	0.1825
263.7576	0.1791
263.9718	0.1822
264.186	0.1829
264.4002	0.183
264.6144	0.1929
264.8286	0.184
265.0427	0.178
265.2569	0.1867
265.471	0.1795
265.6851	0.1891
265.8993	0.1802
266.1134	0.1861
266.3275	0.1833
266.5415	0.1855
266.7556	0.1873
266.9697	0.1877
267.1837	0.1844
267.3978	0.1794
267.6118	0.1799
267.8258	0.1857
268.0398	0.1846
268.2538	0.1866
268.4677	0.1864
268.6817	0.1814
268.8957	0.1769
269.1096	0.1743
269.3235	0.1775
269.5374	0.1826
269.7514	0.1797
269.9652	0.1809
270.1791	0.1758
270.393	0.175
270.6068	0.1779
270.8207	0.1736
271.0345	0.1707
271.2483	0.1735
271.4622	0.1741
271.676	0.1765
271.8897	0.1699
272.1035	0.1825
272.3173	0.1798
272.531	0.1768
272.7448	0.1712
272.9585	0.1713
273.1722	0.1702
273.3859	0.1756
273.5996	0.1761
273.8133	0.1751
274.0269	0.1748
274.2406	0.1754
274.4542	0.1718
274.6679	0.1776
274.8815	0.1757
275.0951	0.1789
275.3087	0.1818
275.5223	0.1699
275.7358	0.1775
275.9494	0.1748
276.1629	0.1796
276.3765	0.1767
276.59	0.1712
276.8035	0.1805
277.017	0.1827
277.2305	0.1827
277.444	0.1797
277.6574	0.1776
277.8709	0.1871
278.0843	0.18
278.2978	0.1818
278.5112	0.185
278.7246	0.1832
278.938	0.1788
279.1513	0.1791
279.3647	0.182
279.5781	0.1844
279.7914	0.1799
280.0047	0.182
280.2181	0.1869
280.4314	0.188
280.6447	0.1896
280.8579	0.1791
281.0712	0.1851
281.2845	0.1884
281.4977	0.1844
281.711	0.1809
281.9242	0.1887
282.1374	0.1815
282.3506	0.1887
282.5638	0.1859
282.7769	0.1812
282.9901	0.1847
283.2033	0.1886
283.4164	0.1875
283.6295	0.1852
283.8426	0.1816
284.0557	0.187
284.2688	0.1887
284.4819	0.183
284.695	0.1886
284.908	0.1854
285.1211	0.1899
285.3341	0.1851
285.5471	0.1925
285.7601	0.1861
285.9731	0.1888
286.1861	0.193
286.3991	0.2042
286.612	0.1962
286.825	0.1933
287.0379	0.1897
287.2508	0.1914
287.4637	0.195
287.6766	0.1875
287.8895	0.1893
288.1024	0.1976
288.3152	0.1973
288.5281	0.1905
288.7409	0.1976
288.9538	0.1998
289.1666	0.1958
289.3794	0.1964
289.5922	0.1973
289.8049	0.1956
290.0177	0.1993
290.2304	0.2017
290.4432	0.1997
290.6559	0.1964
290.8686	0.2001
291.0813	0.1985
291.294	0.2055
291.5067	0.1945
291.7194	0.2026
291.932	0.1976
292.1447	0.2052
292.3573	0.1972
292.5699	0.197
292.7825	0.1959
292.9951	0.1951
293.2077	0.1991
293.4203	0.2005
293.6328	0.1937
293.8454	0.1979
294.0579	0.1943
294.2704	0.2011
294.4829	0.1967
294.6954	0.1963
294.9079	0.1964
295.1204	0.1983
295.3328	0.2009
295.5453	0.2001
295.7577	0.1956
295.9701	0.2055
296.1825	0.2006
296.3949	0.1956
296.6073	0.1956
296.8197	0.2022
297.0321	0.1981
297.2444	0.1975
297.4567	0.1949
297.6691	0.199
297.8814	0.2012
298.0937	0.1974
298.306	0.1985
298.5182	0.199
298.7305	0.2013
298.9428	0.1982
299.155	0.1936
299.3672	0.1997
299.5794	0.2
299.7916	0.2021
300.0038	0.1999
300.216	0.1961
300.4282	0.2009
300.6403	0.2005
300.8525	0.2022
301.0646	0.2012
301.2767	0.1979
301.4888	0.1933
301.7009	0.1996
301.913	0.2039
302.125	0.1938
302.3371	0.195
302.5491	0.1981
302.7612	0.2082
302.9732	0.1953
303.1852	0.1972
303.3972	0.1976
303.6092	0.1974
303.8211	0.1994
304.0331	0.2004
304.245	0.1956
304.457	0.1999
304.6689	0.1892
304.8808	0.1885
305.0927	0.1934
305.3046	0.1936
305.5164	0.1925
305.7283	0.186
305.9401	0.1826
306.152	0.1861
306.3638	0.1848
306.5756	0.1866
306.7874	0.1777
306.9992	0.1778
307.2109	0.1803
307.4227	0.1746
307.6344	0.1805
307.8462	0.1721
308.0579	0.1757
308.2696	0.1746
308.4813	0.1722
308.693	0.17
308.9046	0.171
309.1163	0.1637
309.328	0.1586
309.5396	0.1607
309.7512	0.1609
309.9628	0.1589
310.1744	0.163
310.386	0.1498
310.5976	0.1562
310.8091	0.1556
311.0207	0.1521
311.2322	0.1481
311.4437	0.1471
311.6552	0.1479
311.8667	0.1486
312.0782	0.1448
312.2897	0.1494
312.5012	0.1449
312.7126	0.1384
312.924	0.1427
313.1355	0.1392
313.3469	0.14
313.5583	0.142
313.7696	0.1341
313.981	0.145
314.1924	0.136
314.4037	0.1353
314.6151	0.1373
314.8264	0.1408
315.0377	0.1386
315.249	0.1348
315.4603	0.1314
315.6716	0.1326
315.8828	0.1295
316.0941	0.1349
316.3053	0.1306
316.5165	0.1364
316.7277	0.131
316.9389	0.1288
317.1501	0.1271
317.3613	0.1247
317.5724	0.1294
317.7836	0.1259
317.9947	0.128
318.2058	0.1263
318.417	0.1279
318.6281	0.1268
318.8391	0.1277
319.0502	0.1305
319.2613	0.1222
319.4723	0.1229
319.6834	0.1278
319.8944	0.1241
320.1054	0.1302
320.3164	0.1223
320.5274	0.1286
320.7383	0.1302
320.9493	0.1227
321.1602	0.1321
321.3712	0.128
321.5821	0.1257
321.793	0.1275
322.0039	0.1242
322.2148	0.131
322.4257	0.1247
322.6365	0.1224
322.8474	0.128
323.0582	0.1257
323.269	0.1301
323.4798	0.1282
323.6906	0.1275
323.9014	0.1296
324.1122	0.1179
324.3229	0.1316
324.5337	0.1343
324.7444	0.1261
324.9551	0.1309
325.1658	0.1336
325.3765	0.1313
325.5872	0.1341
325.7979	0.1317
326.0085	0.1271
326.2192	0.1269
326.4298	0.1357
326.6404	0.1343
326.851	0.1306
327.0616	0.1337
327.2722	0.1358
327.4828	0.135
327.6933	0.1413
327.9039	0.1293
328.1144	0.1325
328.3249	0.1334
328.5354	0.1307
328.7459	0.1355
328.9564	0.1383
329.1669	0.1358
329.3773	0.1353
329.5878	0.1349
329.7982	0.1296
330.0086	0.1329
330.219	0.1367
330.4294	0.1401
330.6398	0.1338
330.8502	0.1382
331.0605	0.1351
331.2708	0.1334
331.4812	0.1378
331.6915	0.1401
331.9018	0.1382
332.1121	0.1428
332.3224	0.1367
332.5326	0.1316
332.7429	0.1361
332.9531	0.1391
333.1633	0.1355
333.3735	0.1332
333.5837	0.1421
333.7939	0.1391
334.0041	0.1392
334.2143	0.1374
334.4244	0.1442
334.6346	0.1343
334.8447	0.1469
335.0548	0.1435
335.2649	0.1424
335.475	0.1454
335.685	0.1369
335.8951	0.1395
336.1051	0.1482
336.3152	0.1465
336.5252	0.1385
336.7352	0.1434
336.9452	0.1412
337.1552	0.1424
337.3652	0.1428
337.5751	0.1426
337.7851	0.1386
337.995	0.1416
338.2049	0.1389
338.4148	0.1395
338.6247	0.1453
338.8346	0.1441
339.0445	0.1415
339.2543	0.15
339.4642	0.1383
339.674	0.144
339.8838	0.1441
340.0936	0.142
340.3034	0.1412
340.5132	0.1379
340.7229	0.1452
340.9327	0.155
341.1424	0.1499
341.3522	0.1366
341.5619	0.1524
341.7716	0.1576
341.9813	0.1545
342.1909	0.1552
342.4006	0.1507
342.6102	0.1522
342.8199	0.1533
343.0295	0.1481
343.2391	0.154
343.4487	0.1537
343.6583	0.1629
343.8679	0.1581
344.0774	0.1545
344.287	0.1627
344.4965	0.159
344.706	0.1606
344.9155	0.1575
345.125	0.1581
345.3345	0.1701
345.544	0.1608
345.7534	0.1549
345.9629	0.1644
346.1723	0.1663
346.3817	0.1612
346.5911	0.162
346.8005	0.1681
347.0099	0.1716
347.2193	0.1688
347.4286	0.1711
347.638	0.1735
347.8473	0.1667
348.0566	0.1667
348.2659	0.1647
348.4752	0.175
348.6845	0.1759
348.8937	0.1731
349.103	0.1778
349.3122	0.1687
349.5214	0.1744
349.7306	0.1792
349.9398	0.181
350.149	0.172
350.3582	0.1749
350.5674	0.1803
350.7765	0.1787
350.9856	0.1785
351.1948	0.1805
351.4039	0.1838
351.613	0.1866
351.822	0.1904
352.0311	0.1779
352.2402	0.1782
352.4492	0.1811
352.6582	0.1835
352.8672	0.1868
353.0762	0.1868
353.2852	0.1811
353.4942	0.1931
353.7032	0.1838
353.9121	0.1898
354.1211	0.1949
354.33	0.1954
354.5389	0.1926
354.7478	0.1865
354.9567	0.1899
355.1655	0.1913
355.3744	0.1884
355.5833	0.1891
355.7921	0.1977
356.0009	0.1953
356.2097	0.1905
356.4185	0.194
356.6273	0.1869
356.8361	0.1896
357.0448	0.1973
357.2536	0.1992
357.4623	0.1944
357.671	0.2024
357.8797	0.1988
358.0884	0.1947
358.2971	0.1952
358.5057	0.2092
358.7144	0.2054
358.923	0.2028
359.1316	0.2048
359.3402	0.2076
359.5488	0.2052
359.7574	0.2103
359.966	0.2079
360.1746	0.1992
360.3831	0.2154
360.5916	0.2137
360.8002	0.2184
361.0087	0.2152
361.2172	0.2176
361.4256	0.215
361.6341	0.2163
361.8426	0.2136
362.051	0.2133
362.2594	0.2115
362.4678	0.2128
362.6762	0.2263
362.8846	0.2316
363.093	0.2277
363.3014	0.2313
363.5097	0.2272
363.718	0.2273
363.9264	0.2205
364.1347	0.2275
364.343	0.2249
364.5513	0.2327
364.7595	0.2386
364.9678	0.2216
365.176	0.239
365.3842	0.2353
365.5925	0.2352
365.8007	0.2359
366.0089	0.2477
366.217	0.239
366.4252	0.2359
366.6333	0.2443
366.8415	0.2389
367.0496	0.2465
367.2577	0.2472
367.4658	0.2372
367.6739	0.2475
367.882	0.2482
368.09	0.2469
368.2981	0.2553
368.5061	0.2537
368.7141	0.2436
368.9221	0.2563
369.1301	0.262
369.3381	0.2587
369.5461	0.2564
369.754	0.2631
369.962	0.256
370.1699	0.2593
370.3778	0.2667
370.5857	0.2527
370.7936	0.2587
371.0015	0.2691
371.2093	0.2622
371.4172	0.2678
371.625	0.2584
371.8328	0.263
372.0406	0.2577
372.2484	0.2592
372.4562	0.2694
372.664	0.2669
372.8717	0.2666
373.0795	0.2792
373.2872	0.2692
373.4949	0.2796
373.7026	0.2719
373.9103	0.2618
374.118	0.2735
374.3256	0.2802
374.5333	0.2669
374.7409	0.2779
374.9485	0.2781
375.1561	0.2809
375.3637	0.2728
375.5713	0.2827
375.7789	0.2815
375.9864	0.2843
376.194	0.2839
376.4015	0.2814
376.609	0.2792
376.8165	0.2807
377.024	0.2849
377.2315	0.2946
377.4389	0.2826
377.6464	0.2911
377.8538	0.2915
378.0612	0.293
378.2686	0.2896
378.476	0.2938
378.6834	0.2993
378.8908	0.301
379.0981	0.2987
379.3055	0.2985
379.5128	0.2935
379.7201	0.2937
379.9274	0.3045
380.1347	0.3001
380.342	0.3036
380.5492	0.2973
380.7565	0.2964
380.9637	0.3059
381.1709	0.2937
381.3781	0.316
381.5853	0.2968
381.7925	0.3037
381.9997	0.3079
382.2068	0.2958
382.4139	0.2987
382.6211	0.3084
382.8282	0.3071
383.0353	0.3064
383.2424	0.3065
383.4494	0.3111
383.6565	0.3061
383.8635	0.3115
384.0706	0.3161
384.2776	0.3179
384.4846	0.3141
384.6916	0.3173
384.8986	0.3163
385.1055	0.3172
385.3125	0.3151
385.5194	0.3101
385.7263	0.3063
385.9333	0.3184
386.1402	0.3128
386.347	0.3147
386.5539	0.3067
386.7608	0.3067
386.9676	0.3129
387.1744	0.316
387.3813	0.3193
387.5881	0.3062
387.7948	0.314
388.0016	0.3252
388.2084	0.3164
388.4151	0.3172
388.6219	0.3069
388.8286	0.3117
389.0353	0.3087
389.242	0.3121
389.4487	0.3055
389.6553	0.3032
389.862	0.2992
390.0686	0.3086
390.2753	0.2961
390.4819	0.3059
390.6885	0.3061
390.8951	0.3059
391.1016	0.3045
391.3082	0.3051
391.5147	0.2968
391.7213	0.299
391.9278	0.2999
392.1343	0.3003
392.3408	0.3011
392.5473	0.3
392.7537	0.288
392.9602	0.2927
393.1666	0.2998
393.373	0.283
393.5794	0.283
393.7858	0.2962
393.9922	0.2771
394.1986	0.281
394.4049	0.2826
394.6113	0.2941
394.8176	0.2856
395.0239	0.2779
395.2302	0.2891
395.4365	0.2838
395.6428	0.2734
395.8491	0.2788
396.0553	0.2698
396.2615	0.2796
396.4678	0.2824
396.674	0.2733
396.8802	0.269
397.0863	0.2677
397.2925	0.2693
397.4987	0.2645
397.7048	0.2728
397.9109	0.2677
398.117	0.2598
398.3231	0.2705
398.5292	0.2662
398.7353	0.267
398.9413	0.2674
399.1474	0.2691
399.3534	0.2649
399.5594	0.2722
399.7654	0.2583
399.9714	0.275
400.1774	0.2626
400.3833	0.2694
400.5893	0.2607
400.7952	0.2768
401.0011	0.2602
401.207	0.2635
401.4129	0.2621
401.6188	0.2737
401.8247	0.2777
402.0305	0.2593
402.2364	0.2655
402.4422	0.2671
402.648	0.2814
402.8538	0.2545
403.0596	0.2657
403.2654	0.2662
403.4711	0.2627
403.6768	0.26
403.8826	0.2658
404.0883	0.2696
404.294	0.2611
404.4997	0.2727
404.7054	0.2679
404.911	0.2629
405.1167	0.2604
405.3223	0.2641
405.5279	0.2701
405.7335	0.2627
405.9391	0.2528
406.1447	0.2618
406.3502	0.2653
406.5558	0.2685
406.7613	0.2665
406.9668	0.2657
407.1724	0.2633
407.3778	0.2687
407.5833	0.2571
407.7888	0.2645
407.9942	0.2663
408.1997	0.2504
408.4051	0.2678
408.6105	0.269
408.8159	0.2623
409.0213	0.2664
409.2267	0.2692
409.432	0.2624
409.6374	0.2628
409.8427	0.2717
410.048	0.2686
410.2533	0.27
410.4586	0.2602
410.6639	0.2697
410.8691	0.2548
411.0744	0.2662
411.2796	0.2616
411.4848	0.2653
411.69	0.2576
411.8952	0.2723
412.1004	0.2731
412.3056	0.2659
412.5107	0.2684
412.7158	0.2776
412.921	0.2702
413.1261	0.254
413.3312	0.2639
413.5362	0.274
413.7413	0.2581
413.9464	0.2559
414.1514	0.2556
414.3564	0.2528
414.5614	0.2614
414.7664	0.2515
414.9714	0.2423
415.1764	0.2592
415.3813	0.2516
415.5863	0.2575
415.7912	0.2553
415.9961	0.2585
416.201	0.2669
416.4059	0.2593
416.6108	0.2506
416.8156	0.2579
417.0205	0.258
417.2253	0.2565
417.4301	0.2583
417.6349	0.2564
417.8397	0.2503
418.0445	0.2577
418.2492	0.2473
418.454	0.2531
418.6587	0.2487
418.8634	0.2529
419.0681	0.2587
419.2728	0.252
419.4775	0.2693
419.6822	0.2397
419.8868	0.246
420.0915	0.2488
420.2961	0.2383
420.5007	0.2477
420.7053	0.2428
420.9099	0.248
421.1144	0.2378
421.319	0.2355
421.5235	0.2367
421.728	0.2543
421.9325	0.2426
422.137	0.2394
422.3415	0.2434
422.546	0.2257
422.7504	0.2378
422.9549	0.246
423.1593	0.2359
423.3637	0.2358
423.5681	0.2384
423.7725	0.2368
423.9769	0.2458
424.1812	0.224
424.3856	0.2204
424.5899	0.2293
424.7942	0.2287
424.9985	0.2223
425.2028	0.2334
425.4071	0.2407
425.6113	0.2262
425.8156	0.2227
426.0198	0.226
426.224	0.2349
426.4282	0.2194
426.6324	0.2173
426.8366	0.2189
427.0407	0.2233
427.2449	0.2225
427.449	0.2126
427.6531	0.219
427.8572	0.2104
428.0613	0.2212
428.2654	0.2131
428.4694	0.2027
428.6735	0.203
428.8775	0.204
429.0815	0.2023
429.2855	0.202
429.4895	0.2006
429.6935	0.2025
429.8975	0.1996
430.1014	0.2051
430.3053	0.205
430.5093	0.1905
430.7132	0.1899
430.9171	0.1892
431.1209	0.1988
431.3248	0.1894
431.5286	0.1811
431.7325	0.1931
431.9363	0.1768
432.1401	0.1876
432.3439	0.1786
432.5477	0.1768
432.7514	0.1743
432.9552	0.1739
433.1589	0.1679
433.3627	0.1791
433.5664	0.1606
433.7701	0.1688
433.9737	0.1723
434.1774	0.1639
434.3811	0.1666
434.5847	0.1679
434.7883	0.1674
434.9919	0.1662
435.1955	0.1638
435.3991	0.1624
435.6027	0.16
435.8062	0.1648
436.0098	0.1434
436.2133	0.1456
436.4168	0.1449
436.6203	0.1496
436.8238	0.1487
437.0272	0.139
437.2307	0.1315
437.4341	0.1433
437.6375	0.15
437.841	0.1256
438.0443	0.1447
438.2477	0.1311
438.4511	0.1289
438.6545	0.1377
438.8578	0.1346
439.0611	0.1289
439.2644	0.1264
439.4677	0.1107
439.671	0.1168
439.8743	0.1185
440.0775	0.116
440.2808	0.1172
440.484	0.1137
440.6872	0.1092
440.8904	0.1017
441.0936	0.1168
441.2967	0.0995
441.4999	0.1079
441.703	0.0985
441.9062	0.1172
442.1093	0.1115
442.3124	0.1004
442.5155	0.1035
442.7185	0.095
442.9216	0.0994
443.1246	0.1044
443.3276	0.0976
443.5307	0.0935
443.7337	0.0964
443.9366	0.0852
444.1396	0.0869
444.3426	0.0835
444.5455	0.0857
444.7484	0.0849
444.9513	0.0825
445.1542	0.0799
445.3571	0.085
445.56	0.0777
445.7628	0.0808
445.9657	0.0812
446.1685	0.0792
446.3713	0.08
446.5741	0.0782
446.7769	0.0778
446.9797	0.0703
447.1824	0.0744
447.3852	0.053
447.5879	0.0611
447.7906	0.0613
447.9933	0.0569
448.196	0.0602
448.3986	0.0613
448.6013	0.0562
448.8039	0.0578
449.0066	0.0677
449.2092	0.062
449.4118	0.0572
449.6143	0.0612
449.8169	0.0557
450.0195	0.058
450.222	0.0585
450.4245	0.0613
450.627	0.0596
450.8295	0.0518
451.032	0.0458
451.2345	0.0449
451.4369	0.0451
451.6394	0.0434
451.8418	0.0492
452.0442	0.0429
452.2466	0.0347
452.449	0.0422
452.6513	0.0423
452.8537	0.0296
453.056	0.0447
453.2583	0.046
453.4607	0.0272
453.663	0.0358
453.8652	0.0331
454.0675	0.0494
454.2697	0.0327
454.472	0.0383
454.6742	0.042
454.8764	0.0354
455.0786	0.0264
455.2808	0.0283
455.4829	0.043
455.6851	0.0389
455.8872	0.0267
456.0893	0.0281
456.2915	0.0278
456.4935	0.0311
456.6956	0.0256
456.8977	0.0209
457.0997	0.0427
457.3018	0.0168
457.5038	0.0314
457.7058	0.0317
457.9078	0.0299
458.1098	0.0319
458.3117	0.0318
458.5137	0.0162
458.7156	0.0254
458.9175	0.0256
459.1194	0.0264
459.3213	0.021
459.5232	0.0306
459.725	0.0215
459.9269	0.0194
460.1287	0.0096
460.3305	0.0287
460.5323	0.0273
460.7341	0.0269
460.9359	0.0142
461.1376	0.0232
461.3394	0.0287
461.5411	0.0232
461.7428	0.0236
461.9445	0.0229
462.1462	0.0184
462.3479	0.0169
462.5495	0.0255
462.7512	0.0328
462.9528	0.0131
463.1544	0.022
463.356	0.0157
463.5576	0.02
463.7592	0.0227
463.9607	0.0143
464.1623	0.0125
464.3638	0.0123
464.5653	0.0157
464.7668	0.0205
464.9683	0.0236
465.1697	0.02
465.3712	0.0104
465.5726	0.0146
465.7741	0.0233
465.9755	0.0146
466.1769	0.0146
466.3782	0.0145
466.5796	0.0103
466.7809	0.0161
466.9823	0.0079
467.1836	0.0089
467.3849	0.0152
467.5862	0.004
467.7875	0.0146
467.9887	0.0167
468.19	0.0231
468.3912	0.0187
468.5924	0.0129
468.7936	0.0111
468.9948	0.0087
469.196	0.0078
469.3972	0.0088
469.5983	0.0089
469.7994	0.0285
470.0006	0.0127
470.2017	0.0096
470.4027	0.027
470.6038	0.0149
470.8049	0.0168
471.0059	0.0184
471.2069	0.0076
471.408	0.0116
471.6089	0.022
471.8099	0.0141
472.0109	0.0103
472.2119	0.0245
472.4128	0.0158
472.6137	0.0111
472.8146	0.0099
473.0155	0.0208
473.2164	0.0141
473.4173	0.0062
473.6181	0.0089
473.819	0.011
474.0198	-0.0012
474.2206	-0.0041
474.4214	0.0054
474.6222	0.0055
474.8229	0.002
475.0237	0.0117
475.2244	0.0182
475.4251	0.0106
475.6258	0.0081
475.8265	0.0101
476.0272	0.0012
476.2278	0.0163
476.4285	0.0032
476.6291	0.0089
476.8297	0.0087
477.0303	0.0021
477.2309	0.0088
477.4315	0.0061
477.632	-0.004
477.8326	0.0083
478.0331	0.0081
478.2336	-0.0007
478.4341	0.0057
478.6346	0.0038
478.8351	0.0043
479.0355	0.024
479.236	0.019
479.4364	0.0107
479.6368	0.0015
479.8372	0.0056
480.0376	0.0056
480.2379	0.0057
480.4383	0.0064
480.6386	-0.0047
480.8389	0.0137
481.0392	0.0061
481.2395	0.0146
481.4398	0.0054
481.6401	0.0109
481.8403	0.0031
482.0405	0.0111
482.2408	0.0076
482.441	0.007
482.6411	0.005
482.8413	0.0054
483.0415	0.0142
483.2416	0.0039
483.4417	0.0067
483.6419	0.0036
483.8419	0.0065
484.042	0.0122
484.2421	0.0002
484.4422	0.0065
484.6422	0.0094
484.8422	0.0031
485.0422	0.0051
485.2422	0.0059
485.4422	0.0029
485.6422	0.0035
485.8421	0.0028
486.042	0.0135
486.242	0.0027
486.4419	0.0093
486.6417	0.0057
486.8416	0.0069
487.0415	0.0051
487.2413	-0.0036
487.4411	0.0071
487.641	0.0084
487.8408	0.0087
488.0405	0.0093
488.2403	0.0044
488.4401	0.0073
488.6398	0.015
488.8395	0.0026
489.0392	0.003
489.2389	0.0095
489.4386	-0.0011
489.6383	0.008
489.8379	-0.0034
490.0376	0.0108
490.2372	-0.004
490.4368	0.0053
490.6364	-0.0012
490.836	-0.001
491.0355	-0.0019
491.2351	-0.0043
491.4346	0.0037
491.6341	-0.0078
491.8336	0.0006
492.0331	-0.0011
492.2326	0.0102
492.432	0.002
492.6315	0.0041
492.8309	0.0054
493.0303	-0.0057
493.2297	0.0038
493.4291	0.0015
493.6284	0.0083
493.8278	0.0052
494.0271	0.0116
494.2264	-0.0083
494.4257	0.0044
494.625	-0.0021
494.8243	0.0013
495.0236	0.006
495.2228	0.0081
495.422	0.0041
495.6213	0.0034
495.8205	0.006
496.0196	0.0053
496.2188	0.0065
496.418	-0.0015
496.6171	-0
496.8162	0.0056
497.0153	0.0022
497.2144	0.0021
497.4135	0.0009
497.6126	0.0062
497.8116	0.0011
498.0107	0.0081
498.2097	0.0035
498.4087	0.0015
498.6077	-0.0102
498.8067	0.0058
499.0056	0.0071
499.2046	0.0022
499.4035	-0.0001
499.6024	-0.0039
499.8013	0.0118
500.0002	-0.0001
500.199	0.0111
500.3979	-0.0032
500.5967	0.0026
500.7956	0.0024
500.9944	0.003
501.1932	0.0025
501.3919	0.0023
501.5907	0.0077
501.7895	0.0017
501.9882	-0.0015
502.1869	0.0083
502.3856	-0.003
502.5843	-0.0014
502.783	0.0034
502.9816	-0
503.1803	0.0045
503.3789	0.0027
503.5775	0.0089
503.7761	-0.0033
503.9747	0.0052
504.1732	-0.0037
504.3718	0.0102
504.5703	0.0086
504.7689	-0.0103
504.9674	-0.0021
505.1658	-0.004
505.3643	0.0035
505.5628	0.0043
505.7612	0.0073
505.9597	-0.0099
506.1581	0.0063
506.3565	0.0037
506.5549	0.0027
506.7532	-0.009
506.9516	0.0017
507.1499	-0.0085
507.3482	0.0055
507.5465	0.0044
507.7448	-0.0049
507.9431	0.0004
508.1414	-0.0072
508.3396	0.0042
508.5379	-0.0002
508.7361	0.0035
508.9343	0.0062
509.1325	0.0025
509.3306	-0.0052
509.5288	-0.0054
509.7269	-0.001
509.9251	0.0087
510.1232	0.0006
510.3213	0.0005
510.5193	-0.0022
510.7174	-0.0019
510.9154	0.0047
511.1135	0.0027
511.3115	-0.0066
511.5095	0.0003
511.7075	0.0037
511.9055	-0.0035
512.1034	-0.0085
512.3014	0.0046
512.4993	0.0006
512.6972	-0.0006
512.8951	-0.008
513.093	-0.0023
513.2908	0.0086
513.4887	-0.0003
513.6865	0.0051
513.8844	0.0001
514.0822	0.0016
514.2799	-0.0064
514.4777	-0.0139
514.6755	-0.008
514.8732	0.0019
515.0709	-0.0047
515.2687	-0.0021
515.4664	0.0038
515.664	0.0068
515.8617	0.0078
516.0594	-0.0026
516.257	0.0045
516.4546	0.0115
516.6522	0.0079
516.8498	-0.0079
517.0474	-0.0021
517.2449	0.0014
517.4425	-0.0001
517.64	-0.0051
517.8375	0.0015
518.035	-0.0007
518.2325	-0.0079
518.43	-0.0049
518.6274	-0.0019
518.8249	-0.0049
519.0223	0.0101
519.2197	-0.0078
519.4171	-0.0024
519.6145	0.0049
519.8118	-0.0189
520.0092	-0.0124
520.2065	0.0063
520.4038	-0.0099
520.6011	-0.0086
520.7984	0.0053
520.9956	0.001
521.1929	-0.0031
521.3901	0.004
521.5874	-0.0042
521.7846	-0.0142
521.9818	-0.0001
522.1789	-0.0051
522.3761	0.0063
522.5732	0.0004
522.7704	-0.0109
522.9675	-0.0046
523.1646	-0.0074
523.3617	0.0068
523.5587	-0.0041
523.7558	0.0064
523.9528	-0.005
524.1498	-0.0029
524.3468	-0.0051
524.5438	-0.001
524.7408	-0.0089
524.9378	0.0026
525.1347	0.0015
525.3316	-0.0146
525.5285	-0.0015
525.7254	-0.0027
525.9223	0.0057
526.1192	0.0004
526.316	-0.0024
526.5129	-0.0022
526.7097	-0.0036
526.9065	0.0015
527.1033	-0.0021
527.3	0.0049
527.4968	-0.0051
527.6935	-0.0102
527.8903	-0.0022
528.087	-0.0012
528.2837	0.0098
528.4804	-0.0113
528.677	-0.0025
528.8737	0.0012
529.0703	-0.012
529.2669	0.0071
529.4635	-0.0087
529.6601	-0.013
529.8567	-0.0039
530.0532	0.0047
530.2498	-0.0031
530.4463	-0.0067
530.6428	0.0004
530.8393	0.0022
531.0358	-0.0099
531.2322	-0.0077
531.4287	-0.0065
531.6251	-0.0111
531.8215	-0.0037
532.0179	0.0044
532.2143	-0.0015
532.4107	-0.0009
532.607	-0.0068
532.8034	-0.0145
532.9997	0.0027
533.196	-0.0049
533.3923	0.0071
533.5886	-0.0046
533.7848	-0.0016
533.9811	0.0074
534.1773	0.0023
534.3735	0.004
534.5697	0.0017
534.7659	-0.0021
534.9621	0.0009
535.1582	-0.0041
535.3544	-0.0023
535.5505	0.0012
535.7466	0.004
535.9427	-0.0003
536.1387	-0.0018
536.3348	0.0086
536.5308	0.0006
536.7269	-0.0039
536.9229	-0.0029
537.1189	0.005
537.3148	0.0027
537.5108	-0.0078
537.7068	0.0079
537.9027	-0.0103
538.0986	0.0079
538.2945	-0.0125
538.4904	-0.0067
538.6863	-0.0028
538.8821	0.0031
539.078	0.0062
539.2738	0.0053
539.4696	0.0015
539.6654	-0.0007
539.8611	0.0016
540.0569	-0.0099
540.2526	0.0074
540.4484	-0.0103
540.6441	0.0071
540.8398	0.0183
541.0355	-0.0037
541.2311	-0.0016
541.4268	0.0036
541.6224	0.0046
541.818	0.0041
542.0136	0.0037
542.2092	0.0084
542.4048	0.0072
542.6003	-0.0042
542.7959	0.0059
542.9914	-0.0027
543.1869	0.0062
543.3824	0.0033
543.5779	0.0064
543.7734	0.0087
543.9688	0.0082
544.1642	0.0055
544.3596	0.0042
544.555	0.0069
544.7504	0.0089
544.9458	0.0015
545.1411	-0.0004
545.3365	0.0011
545.5318	0.0063
545.7271	0.0103
545.9224	-0.0073
546.1177	0.0082
546.3129	0.0038
546.5081	-0.0049
546.7034	0.0048
546.8986	0.0045
547.0938	0.0003
547.289	0.0068
547.4841	0.0106
547.6793	0.003
547.8744	0.0123
548.0695	-0.006
548.2646	0.0082
548.4597	0.0026
548.6548	0.0084
548.8498	0.0033
549.0448	-0.0019
549.2399	0.013
549.4349	0.0014
549.6298	0.0047
549.8248	-0.0063
550.0198	-0.003
550.2147	0.0012
550.4096	-0.0009
550.6045	0.0033
550.7994	0.0027
550.9943	0.0003
551.1892	-0.0184
551.384	0.0092
551.5788	0.009
551.7737	-0.0052
551.9685	0.0036
552.1632	-0.0073
552.358	0.003
552.5528	0.0062
552.7475	0.0054
552.9422	0.0048
553.1369	0.0101
553.3316	0.0095
553.5263	0.0078
553.7209	0.0128
553.9156	-0.0066
554.1102	-0.001
554.3048	-0.0137
554.4994	-0.0008
554.694	0.0087
554.8885	0.0065
555.0831	0.008
555.2776	0.0048
555.4721	0.0113
555.6666	0.0129
555.8611	0.0067
556.0555	-0.0008
556.25	0.0093
556.4444	0.0019
556.6388	0.0037
556.8332	0.0026
557.0276	0.0015
557.222	-0.0051
557.4163	0.0096
557.6107	0.0013
557.805	-0.0106
557.9993	0.0039
558.1936	-0.0171
558.3879	0.0066
558.5821	-0.0005
558.7764	-0.0045
558.9706	-0.0025
559.1648	0.0023
559.359	-0.0008
559.5532	-0.0035
559.7473	-0.0073
559.9415	0.0008
560.1356	0.0114
560.3297	-0.0023
560.5238	0.0008
560.7179	-0.0034
560.9119	-0.0025
561.106	-0.0035
561.3	0.0108
561.494	-0.0076
561.688	0.0013
561.882	0.0048
562.076	0.0061
562.2699	0.0058
562.4639	0.0127
562.6578	0.0215
562.8517	0.0059
563.0456	0.0137
563.2395	-0.0016
563.4333	-0.0035
563.6272	0.0035
563.821	0.0041
564.0148	-0.0026
564.2086	0.0136
564.4024	0.008
564.5961	0.0057
564.7899	0.0083
564.9836	-0.0021
565.1773	0.0116
565.371	0.0017
565.5647	0.0002
565.7584	0.0094
565.952	0.0041
566.1456	-0.0062
566.3393	0.0061
566.5329	0.0023
566.7264	0.0085
566.92	0.0033
567.1136	0.0049
567.3071	-0.0074
567.5006	0.0097
567.6941	0.0038
567.8876	0.0106
568.0811	0.0151
568.2745	0.0043
568.468	0.0084
568.6614	0.0067
568.8548	0.0091
569.0482	0.0064
569.2416	0.0015
569.4349	0.0046
569.6283	0.0051
569.8216	0.0078
570.0149	-0.0003
570.2082	0.0179
570.4015	0.009
570.5947	0.0092
570.788	0.008
570.9812	0.0096
571.1744	0.013
571.3676	0.0081
571.5608	0.008
571.754	0.0145
571.9471	0.01
572.1402	0.0111
572.3333	0.0108
572.5264	0.0096
572.7195	0.0053
572.9126	0.0085
573.1057	0.0077
573.2987	0.0068
573.4917	0.0041
573.6847	0.0094
573.8777	0.0131
574.0707	0.0083
574.2636	0.0095
574.4566	0.0035
574.6495	0.004
574.8424	0.0121
575.0353	0.0081
575.2281	0.0134
575.421	0.0081
575.6138	0.0049
575.8067	0.0063
575.9995	0.0064
576.1923	0.0065
576.385	0.0074
576.5778	0.0146
576.7706	0.0128
576.9633	0.0082
577.156	-0.0029
577.3487	0.0078
577.5414	0.0034
577.734	0.0058
577.9267	0.0111
578.1193	0.0081
578.3119	0.0027
578.5045	0.0043
578.6971	0.0047
578.8897	0.0062
579.0822	0.0139
579.2747	0.0071
579.4673	0.0083
579.6598	0.012
579.8522	0.0079
580.0447	0.0087
580.2372	0.0082
580.4296	0.0119
580.622	0.0058
580.8144	0.0087
581.0068	0.0102
581.1992	0.0103
581.3915	0.0003
581.5839	0.0057
581.7762	0.0071
581.9685	0.0101
582.1608	0.0073
582.353	0.0077
582.5453	0.0071
582.7375	0.0073
582.9298	0.0047
583.122	0.0038
583.3142	0.01
583.5063	0.0032
583.6985	0.004
583.8906	0.0073
584.0827	0.0094
584.2749	0.0059
584.4669	0.0074
584.659	0.0092
584.8511	0.0093
585.0431	0.0103
585.2352	0.0088
585.4272	0.0092
585.6192	0.0089
585.8111	0.0082
586.0031	0.0045
586.195	0.0032
586.387	0.0075
586.5789	0.008
586.7708	0.0096
586.9627	0.0076
587.1545	0.0043
587.3464	0.0094
587.5382	0.0061
587.73	0.0105
587.9218	0.0023
588.1136	0.0049
588.3053	0.0083
588.4971	0.0055
588.6888	0.0049
588.8805	0.0031
589.0722	0.0169
589.2639	0.0097
589.4556	0.0089
589.6472	0.0088
589.8389	0.0066
590.0305	-0.0021
590.2221	0.0046
590.4137	0.0087
590.6052	0.0016
590.7968	0.004
590.9883	0.0091
591.1798	0.0042
591.3713	0.0127
591.5628	0.0115
591.7543	0.0047
591.9458	0.002
592.1372	0.0088
592.3286	0.0029
592.52	0.0063
592.7114	0.0097
592.9028	0.0104
593.0941	0.0074
593.2855	0.0068
593.4768	0.0143
593.6681	0.0068
593.8594	0.0116
594.0506	0.0082
594.2419	0.0083
594.4331	0.0102
594.6244	0.0014
594.8156	0.0073
595.0067	0.0078
595.1979	0.0026
595.3891	0.0089
595.5802	0.0119
595.7713	0.0072
595.9624	0.0096
596.1535	0.0059
596.3446	0.0068
596.5357	0.013
596.7267	0.0094
596.9177	0.0033
597.1087	0.0031
597.2997	0.007
597.4907	0.0004
597.6817	0.0107
597.8726	0.0143
598.0635	0.0038
598.2544	0.0084
598.4453	0.007
598.6362	0.0079
598.827	0.003
599.0179	0.009
599.2087	0.0106
599.3995	0.0111
599.5903	0.0132
599.7811	0.0152
599.9718	0.0042
600.1626	0.0063
600.3533	0.0068
600.544	0.0081
600.7347	0.0139
600.9254	0.016
601.116	0.01
601.3067	0.0034
601.4973	0.0101
601.6879	0.0111
601.8785	0.0113
602.0691	0.0058
602.2596	0.0082
602.4502	0.0142
602.6407	0.0097
602.8312	0.0065
603.0217	0.0067
603.2122	0.0059
603.4027	0.0131
603.5931	0.0002
603.7835	0.0087
603.9739	0.0022
604.1643	0.0066
604.3547	0.0125
604.5451	0.0122
604.7354	0.0073
604.9257	0.0059
605.116	0.0058
605.3063	0.007
605.4966	0.0049
605.6869	0.0148
605.8771	0.0064
606.0673	0.0056
606.2575	0.0084
606.4477	0.014
606.6379	0.008
606.8281	0.002
607.0182	0.0067
607.2083	0.0094
607.3985	0.0074
607.5885	0.0047
607.7786	0.0058
607.9687	0.0182
608.1587	0.0149
608.3488	0.0081
608.5388	0.0044
608.7288	-0.0019
608.9187	0.0034
609.1087	0.0048
609.2986	0.0109
609.4886	0.0016
609.6785	0.0025
609.8684	0.003
610.0582	0.009
610.2481	-0.0013
610.4379	0.0082
610.6278	0.008
610.8176	0.0122
611.0074	0.0117
611.1971	0.0114
611.3869	0.006
611.5766	-0.0005
611.7664	0.0132
611.9561	0.007
612.1458	0.009
612.3354	0.0076
612.5251	0.0141
612.7147	0.0153
612.9044	0.007
613.094	0.0122
613.2836	0.003
613.4731	0.0074
613.6627	0.0043
613.8522	0.0181
614.0417	0.0125
614.2313	0.0125
614.4207	0.0054
614.6102	0.0158
614.7997	0.0094
614.9891	0.0065
615.1785	0.0023
615.3679	0.0084
615.5573	0.0127
615.7467	0.0014
615.9361	0.004
616.1254	0.0121
616.3147	0.0066
616.504	0.0064
616.6933	0.0088
616.8826	0.0031
617.0718	0.0145
617.2611	0.0046
617.4503	0.0061
617.6395	0.0165
617.8287	0.0097
618.0179	0.0047
618.207	0.0145
618.3961	0.0007
618.5853	0.0036
618.7744	0.015
618.9634	0.0149
619.1525	0.007
619.3416	-0.0008
619.5306	0.0123
619.7196	0.0141
619.9086	0.0055
620.0976	0.0027
620.2866	0.0193
620.4755	0.0043
620.6645	0.0105
620.8534	0.0065
621.0423	-0.0013
621.2312	0.0071
621.42	0.0079
621.6089	0.0028
621.7977	0.0082
621.9865	0.0049
622.1753	-0.0035
622.3641	0.0007
622.5529	-0.0013
622.7416	0.0027
622.9303	0.0089
623.1191	0.0122
623.3078	0.0058
623.4964	0.0069
623.6851	0.008
623.8737	0.005
624.0624	-0.0094
624.251	0.0022
624.4396	0.0066
624.6282	0.0171
624.8167	-0.0014
625.0053	0.0058
625.1938	-0.0017
625.3823	0.0101
625.5708	0.0037
625.7593	-0.0007
625.9477	0.0201
626.1362	-0.0036
626.3246	-0.0048
626.513	0.0076
626.7014	0.0073
626.8898	0.0137
627.0781	0.0037
627.2665	0.007
627.4548	-0.0055
627.6431	0.0154
627.8314	0.0085
628.0197	0.0034
628.2079	-0.0091
628.3962	-0.0101
628.5844	0.0081
628.7726	0.0039
628.9608	0.0119
629.1489	0.0131
629.3371	-0.0014
629.5252	0.0124
629.7134	-0.0005
629.9015	0.0087
630.0895	-0.0035
630.2776	0.0115
630.4657	0.0117
630.6537	0.0063
630.8417	-0.0045
631.0297	0.0108
631.2177	0.0075
631.4057	0.0007
631.5936	-0.0038
631.7815	0.0094
631.9695	0.0264
632.1574	0.0261
632.3452	0.0205
632.5331	-0.0002
632.7209	0.0169
632.9088	0.0074
633.0966	0.0359
633.2844	0.0079
633.4722	0.0094
633.6599	0.0184
633.8477	0.0189
634.0354	0.0193
634.2231	0.0019
634.4108	0.0024
634.5985	0.0121
634.7861	0.0009
634.9738	0.0065
635.1614	0.0147
635.349	0.0105
635.5366	0.0003
635.7242	0.0129
635.9117	0.0121
636.0993	0.002
636.2868	-0.0013
636.4743	0.0076
636.6618	-0.0019
636.8492	0.0045
637.0367	-0.0017
637.2241	0.0033
637.4115	0.0372
637.5989	0.0063
637.7863	0.0239
637.9737	0.0024
638.161	0.0123
638.3484	-0.0078
638.5357	-0.009
638.723	0.0146
638.9103	-0.0158
639.0975	-0.0048
639.2848	0.0175
639.472	0.0134
639.6592	-0.0116
639.8464	0.0174
640.0336	0.0057
640.2208	0.0169
640.4079	-0.0016
640.595	-0.0135
640.7821	0.0202
640.9692	-0.0159
641.1563	0.0274
641.3434	0.0111
641.5304	0.0229
641.7174	0.018
641.9044	0.0011
642.0914	0.0251
642.2784	-0.0087
642.4653	-0.0039
642.6523	0.0201
642.8392	-0.0118
643.0261	0.0131
643.213	0.0205
643.3999	0.005
643.5867	0.019
643.7735	0.0012
643.9604	0.0007
644.1472	0.0034
644.3339	-0.0107
644.5207	-0.0035
644.7075	0.0005
644.8942	0.0141
645.0809	0.0012
645.2676	-0.001
645.4543	-0.0067
645.6409	0.0296
645.8276	0.0125
646.0142	0.0142
646.2008	0.003
646.3874	0.0141
646.574	0.0026
646.7605	0.014
646.9471	0.0106
647.1336	-0.0278
647.3201	0.015
647.5066	0.0018
647.6931	0.0086
647.8795	0.0138
648.0659	0.0035
648.2524	0.0126
648.4388	0.0088
648.6252	0.0034
648.8115	0.0057
648.9979	0.0008
649.1842	0.0247
649.3705	0.0124
649.5568	-0.0124
649.7431	0.0011
649.9294	0.0005
650.1156	-0.007
650.3018	0.0309
650.488	0.008
650.6742	0.0144
650.8604	0.0052
651.0466	-0.0065
651.2327	0.004
651.4188	0.0114
651.6049	0.0105
651.791	0.0159
651.9771	0.0071
652.1632	0.0137
652.3492	0.0053
652.5352	0.0102
652.7212	0.0049
652.9072	-0.0018
653.0932	0.0145
653.2791	0.0108
653.465	0.0179
653.651	0.0096
653.8369	0.0027
654.0227	-0.0017
654.2086	0.0085
654.3944	0.0123
654.5803	0.0067
654.7661	0.006
654.9519	0.0029
655.1377	0
655.3234	0
655.5092	0
655.6949	0
655.8806	0
656.0663	0
656.2519	0
656.4376	0
656.6232	0
656.8088	0
656.9945	0
657.18	0
657.3656	0
657.5511	0
657.7367	0
657.9222	0
658.1077	0
658.2932	0
658.4786	0
658.6641	0
658.8495	0
659.0349	0
659.2203	0
659.4057	0.0164
659.591	0.275
659.7764	0.032
659.9617	0.0183
660.147	0.0018
660.3323	-0.0008
660.5176	-0.0118
660.7028	0.0041
660.888	0.0103
661.0733	0.0172
661.2585	0.004
661.4436	0.0069
661.6288	0.0221
661.8139	-0.0045
661.9991	-0.0084
662.1842	-0.016
662.3693	-0.006
662.5544	0.0124
662.7394	0.0254
662.9245	0.003
663.1095	-0.0159
663.2945	-0.0147
663.4795	-0.0089
663.6644	-0.014
663.8494	0.0134
664.0343	0.0244
664.2193	0.0174
664.4042	0.0219
664.589	0.0112
664.7739	0.0188
664.9587	-0.016
665.1436	-0.0039
665.3284	0.0192
665.5132	0.0127
665.698	0.0175
665.8827	0.0157
666.0675	-0.0031
666.2522	-0.004
666.4369	0.0136
666.6216	0.019
666.8063	0.0312
666.9909	-0.0013
667.1756	-0.0095
667.3602	-0.0097
667.5448	0.0062
667.7294	-0.0006
667.9139	-0.0233
668.0985	0.0058
668.283	0.0055
668.4675	0.0383
668.652	0.0276
668.8365	0.003
669.0209	0.0065
669.2054	0.0077
669.3898	0.0009
669.5742	0.0406
669.7586	0.0097
669.943	0.0312
670.1273	-0.0059
670.3117	0.0313
670.496	-0.0061
670.6803	-0.0047
670.8646	-0.0117
671.0488	0.0355
671.2331	-0.0131
671.4173	0.0072
671.6015	0.0104
671.7857	-0.001
671.9699	0.0224
672.1541	0.0112
672.3382	0.0158
672.5223	0.0106
672.7064	-0.0085
672.8905	0.0015
673.0746	0.0046
673.2587	0.0184
673.4427	0.0013
673.6267	0.0109
673.8107	0.0361
673.9947	0.0137
674.1787	0.0052
674.3626	0.0089
674.5465	0.0305
674.7304	-0.0103
674.9143	-0.0098
675.0982	0.017
675.2821	0.0064
675.4659	-0.0031
675.6497	0.0182
675.8335	-0.0036
676.0173	-0.0142
676.2011	0.0176
676.3849	-0.0038
676.5686	0.0078
676.7523	-0.0003
676.936	0.0132
677.1197	-0.0055
677.3034	0.0344
677.487	0.0195
677.6706	0.0078
677.8542	0.0059
678.0378	0.0031
678.2214	-0.0046
678.405	0.015
678.5885	0.0074
678.772	0.0167
678.9555	-0
679.139	0.0218
679.3225	0.007
679.5059	0.0144
679.6894	-0.0023
679.8728	0.0068
680.0562	0.003
680.2395	-0.0102
680.4229	0.0042
680.6062	-0
680.7896	-0.0163
680.9729	0.0173
681.1562	0.004
681.3394	0.0175
681.5227	0.0208
681.7059	-0.0025
681.8891	0.0249
682.0723	-0.0093
682.2555	0.0107
682.4387	0.0108
682.6218	0.0297
682.805	0.0256
682.9881	0.0285
683.1712	0.0285
683.3542	0.0133
683.5373	-0.0103
683.7203	0.0188
683.9034	0.0078
684.0864	-0.0051
684.2694	0.0066
684.4523	0.009
684.6353	0.0163
684.8182	-0.0084
685.0011	0.0128
685.184	-0.0026
685.3669	0.0169
685.5498	-0.003
685.7326	0.008
685.9154	0.0016
686.0982	0.0241
686.281	-0.0015
686.4638	0.0104
686.6465	0.0092
686.8293	0.0004
687.012	0.0262
687.1947	0.0198
687.3774	0.0074
687.56	0.0017
687.7427	0.0123
687.9253	-0.0364
688.1079	0.0239
688.2905	-0.0009
688.4731	0.022
688.6556	0.0054
688.8382	-0.0344
689.0207	0.0043
689.2032	0.0227
689.3857	-0.0039
689.5681	-0.0063
689.7506	0.021
689.933	0.0075
690.1154	0.0233
690.2978	-0.0028
690.4802	0.021
690.6626	0.008
690.8449	0.0106
691.0272	0.004
691.2095	-0.0207
691.3918	0.0198
691.5741	0.0148
691.7563	0.0099
691.9386	0.0173
692.1208	0.0147
692.303	-0.0099
692.4852	-0.0085
692.6673	0.0092
692.8495	-0.0046
693.0316	0.0119
693.2137	0.0216
693.3958	0.0089
693.5778	0.0021
693.7599	-0.0039
693.9419	0.0056
694.1239	-0.0075
694.3059	-0.0089
694.4879	0.0003
694.6699	0.0028
694.8518	0.003
695.0337	0.0217
695.2157	0.0054
695.3975	-0.0095
695.5794	0.0034
695.7613	0.0157
695.9431	0.002
696.1249	0.0382
696.3067	0.0037
696.4885	0.0217
696.6703	0.0071
696.852	0.012
697.0337	0.0264
697.2154	0.0175
697.3971	0.0111
697.5788	0.0157
697.7605	0.0046
697.9421	0.0337
698.1237	0.0228
698.3053	0.0132
698.4869	0.0168
698.6685	-0.0173
698.85	0.0286
699.0315	-0.0111
699.213	0.0252
699.3945	0.0131
699.576	0.0103
699.7575	0.0282
699.9389	-0.0175
700.1203	0.0109
700.3017	0.0225
700.4831	0.0091
700.6645	0.0331
700.8458	-0.0197
701.0271	0.0192
701.2084	-0.0031
701.3897	0.0106
701.571	-0.0221
701.7523	0.0056
701.9335	0.0056
702.1147	0.0198
702.2959	-0.0293
702.4771	0.0081
702.6583	0.0174
702.8394	0.0137
703.0205	0.0199
703.2016	-0.0071
703.3827	-0.0057
703.5638	0.015
703.7449	0.0531
703.9259	0.0303
704.1069	-0.0231
704.2879	0.0111
704.4689	0.0184
704.6499	0.0268
704.8308	0.047
705.0117	0.0209
705.1927	0.002
705.3735	0.0298
705.5544	0.0221
705.7353	-0.0038
705.9161	-0.0215
706.0969	0.0067
706.2777	0.0085
706.4585	0.0106
706.6393	0.0092
706.82	0.011
707.0007	-0.0002
707.1815	0.0055
707.3621	0.0212
707.5428	0.0135
707.7235	0.0022
707.9041	0.0187
708.0847	0.0094
708.2653	0.0493
708.4459	0.013
708.6265	-0.006
708.807	0.0187
708.9875	-0.0179
709.168	0.0057
709.3485	0.0374
709.529	0.0046
709.7095	-0.0188
709.8899	0.0046
710.0703	0.0145
710.2507	-0.0074
710.4311	-0.0238
710.6115	0.0084
710.7918	0.0184
710.9721	0.017
711.1524	-0.0055
711.3327	0.0124
711.513	-0.0083
711.6932	-0.0234
711.8735	0.0212
712.0537	0.02
712.2339	-0.0178
712.4141	0.0258
712.5942	-0.0083
712.7744	0.0241
712.9545	0.0013
713.1346	0.0139
713.3147	0.0111
713.4947	-0.0103
713.6748	-0.0029
713.8548	0.0145
714.0348	0.0135
714.2148	-0.0003
714.3948	0.0125
714.5748	0.0082
714.7547	0.03
714.9346	0.0257
715.1145	0.0017
715.2944	-0.0106
715.4743	0.0046
715.6541	-0.0098
715.834	0.0259
716.0138	0.0275
716.1936	-0.0048
716.3733	-0
716.5531	0.0255
716.7328	0.025
716.9126	0.0102
717.0923	-0.007
717.2719	0.0087
717.4516	0.0132
717.6312	-0.0113
717.8109	0.0334
717.9905	-0.0017
718.1701	0.0245
718.3496	0.0008
718.5292	-0.01
718.7087	0.006
718.8882	0.0268
719.0677	-0.0015
719.2472	0.011
719.4267	0.0082
719.6061	-0.0156
719.7856	0.0432
719.965	0.0047
720.1443	-0.0089
720.3237	-0.0338
720.5031	0.0128
720.6824	0.0104
720.8617	0.0064
721.041	0.0313
721.2203	-0.0052
721.3995	-0.0068
721.5788	-0.0066
721.758	-0.025
721.9372	0.0135
722.1164	-0.0013
722.2956	-0.0125
722.4747	0.0408
722.6538	-0.0035
722.8329	0.0229
723.012	0.0043
723.1911	-0.0004
723.3702	0.0016
723.5492	0.0175
723.7282	-0.0089
723.9072	0.0043
724.0862	0.0058
724.2652	0.0311
724.4441	-0.0028
724.623	0.0004
724.8019	-0.0067
724.9808	0.0224
725.1597	0.0079
725.3385	-0.014
725.5174	0.0014
725.6962	0.0007
725.875	0.0148
726.0538	0.0116
726.2325	0.0074
726.4112	-0.0264
726.59	-0.0038
726.7687	-0.0114
726.9474	0.0371
727.126	0.0274
727.3047	0.01
727.4833	0.011
727.6619	-0.0213
727.8405	0.0272
728.0191	0.0536
728.1976	0.0071
728.3762	0.0116
728.5547	-0.0118
728.7332	0.0154
728.9116	0.0075
729.0901	0.0041
729.2686	-0
729.447	-0.006
729.6254	0.0038
729.8038	0.0282
729.9821	-0.0245
730.1605	0.004
730.3388	0.0106
730.5171	0.0085
730.6954	0.0032
730.8737	0.0126
731.0519	0.0074
731.2302	0.0052
731.4084	0.0028
731.5866	-0.0029
731.7648	0.0243
731.9429	0.03
732.1211	0.0012
732.2992	0.0183
732.4773	0.008
732.6554	-0.0065
732.8335	0.0197
733.0115	0.0056
733.1896	0.0024
733.3676	0.0158
733.5456	0.0005
733.7235	0.0004
733.9015	0.0088
734.0794	-0.0018
734.2574	-0.021
734.4353	0.017
734.6131	0.0279
734.791	-0.0064
734.9689	-0.0006
735.1467	-0.0125
735.3245	0.0144
735.5023	-0.0005
735.68	-0.006
735.8578	0.0089
736.0355	0.0003
736.2132	0.0129
736.3909	0.0288
736.5686	-0.0022
736.7463	0.0011
736.9239	0.0382
737.1015	-0.0015
737.2791	0.0155
737.4567	0.0128
737.6343	0.0065
737.8118	0.0325
737.9894	-0.0011
738.1669	0.0003
738.3444	0.0352
738.5218	-0.0143
738.6993	0.0277
738.8767	0.0122
739.0541	0.0091
739.2315	0.0203
739.4089	0.0203
739.5863	-0.0072
739.7636	-0.0192
739.9409	-0.0157
740.1182	0.0066
740.2955	0.0235
740.4728	0.0079
740.65	-0.0106
740.8272	-0.0078
741.0044	0.0217
741.1816	0.0132
741.3588	-0.0247
741.5359	-0.0069
741.7131	0.0208
741.8902	0.0084
742.0673	-0.0041
742.2444	0.0214
742.4214	0.0233
742.5985	0.0213
742.7755	0.0172
742.9525	-0.022
743.1295	-0.0235
743.3064	-0.0077
743.4834	0.002
743.6603	0.0512
743.8372	-0.0163
744.0141	0.0371
744.191	0.0014
744.3678	-0.0242
744.5446	0.0142
744.7215	0.0117
744.8982	0.0231
745.075	0.044
745.2518	0.0138
745.4285	0.0278
745.6052	-0.0294
745.7819	0.0421
745.9586	-0.012
746.1353	-0.0086
746.3119	0.0138
746.4885	0.043
746.6651	0.0149
746.8417	-0.0075
747.0183	0.0193
747.1948	0.0043
747.3714	0.0301
747.5479	0.0325
747.7244	-0.0172
747.9008	-0.0121
748.0773	0.0535
748.2537	0.0011
748.4301	0.0444
748.6065	-0.0107
748.7829	-0.0152
748.9593	0.0151
749.1356	0.0215
749.3119	0.0106
749.4882	0.0113
749.6645	0.0076
749.8408	0.0224
750.017	0.0012
750.1933	-0.0205
750.3695	0.0407
750.5457	0.0041
750.7218	-0.0032
750.898	-0.0136
751.0741	0.0106
751.2502	0.0028
751.4263	0.0025
751.6024	0.0165
751.7784	-0.0107
751.9545	0.0082
752.1305	0.0069
752.3065	0.0248
752.4825	-0.011
752.6584	0.0183
752.8344	0.0085
753.0103	-0.01
753.1862	0.0251
753.3621	0.0133
753.5379	-0.007
753.7138	0.0134
753.8896	0.0096
754.0654	0.0096
754.2412	0.0187
754.417	0.014
754.5927	-0.0037
754.7685	0.0151
754.9442	0.0173
755.1199	0.0053
755.2956	0.0151
755.4712	-0.0041
755.6469	-0.0014
755.8225	0.0162
755.9981	0.0091
756.1736	0.0155
756.3492	0.0212
756.5248	0.0283
756.7003	0.0026
756.8758	0.0115
757.0513	0.0118
757.2267	0.0066
757.4022	-0.0071
757.5776	0.0181
757.753	0.0188
757.9284	0.0103
758.1038	0.0191
758.2791	-0.0096
758.4545	-0.0108
758.6298	0.0056
758.8051	0.002
758.9803	0.0121
759.1556	0.0018
759.3308	0.0016
759.506	-0.0083
759.6812	0.0228
759.8564	0.008
760.0316	0.0004
760.2067	0.0358
760.3819	0.0141
760.557	0.0044
760.732	0.007
760.9071	0.0138
761.0821	0.0029
761.2572	0.0297
761.4322	0.0194
761.6072	0.0107
761.7821	-0.0167
761.9571	0.0246
762.132	0.0031
762.3069	0.0391
762.4818	0.0183
762.6567	-0.0137
762.8316	0.0116
763.0064	0.0247
763.1812	0.0121
763.356	-0.0066
763.5308	0.0499
763.7055	-0.0037
763.8803	0.0025
764.055	0.0103
764.2297	0.01
764.4044	-0.0087
764.579	0.0062
764.7537	0.0042
764.9283	0.0127
765.1029	0.0267
765.2775	0.0321
765.4521	0.01
765.6266	0.0398
765.8011	0.023
765.9756	0.0237
766.1501	0.003
766.3246	0.0162
766.4991	0.0303
766.6735	0.0235
766.8479	-0.0063
767.0223	0.0253
767.1967	-0.0095
767.371	0.0041
767.5454	0.0396
767.7197	0.0165
767.894	0.0249
768.0683	0.0317
768.2425	0.0071
768.4168	0.0101
768.591	0.0286
768.7652	0.0015
768.9394	-0.0223
769.1135	-0.0365
769.2877	0.0038
769.4618	0.0221
769.6359	0.0067
769.81	0.0244
769.984	0.0076
770.1581	0.0015
770.3321	0.0247
770.5061	0.0011
770.6801	0.0211
770.8541	0.001
771.028	0.0446
771.202	0.0205
771.3759	0.0283
771.5498	0.0132
771.7236	0.0031
771.8975	0.0069
772.0713	-0.0091
772.2451	-0.0034
772.4189	-0.0053
772.5927	-0.0206
772.7665	-0.0035
772.9402	0.0281
773.1139	-0.0184
773.2876	-0.0109
773.4613	0.0237
773.635	0.035
773.8086	0.0208
773.9822	0.024
774.1558	0.0366
774.3294	-0.0067
774.503	0.0021
774.6765	0.0252
774.8501	-0.0034
775.0236	0.049
775.1971	0.0408
775.3705	-0.0039
775.544	-0.0177
775.7174	-0.0008
775.8908	0.0364
776.0642	0.0315
776.2376	0.0813
776.4109	0.0247
776.5843	-0.0044
776.7576	-0.0117
776.9309	0.0223
777.1041	-0.0292
777.2774	-0.0066
777.4506	-0.0274
777.6238	-0.0061
777.797	0.015
777.9702	0.0026
778.1434	0.0106
778.3165	-0.0222
778.4896	-0.0143
778.6627	0.0215
778.8358	-0.0069
779.0089	-0.0434
779.1819	0.026
779.3549	0.04
779.5279	-0.0355
779.7009	0.0235
779.8739	0.0626
780.0468	0.0064
780.2197	0.0074
780.3926	-0.0148
780.5655	0.0236
780.7384	0.0109
780.9112	0.0143
781.0841	0.0243
781.2569	0.0073
781.4297	0.0083
781.6024	0.0073
781.7752	0.0531
781.9479	0.0359
782.1206	0.0134
782.2933	0.0132
782.466	0.046
782.6386	0.0034
782.8113	0.01
782.9839	-0.0195
783.1565	0.005
783.329	0.0324
783.5016	0.0368
783.6741	0.0277
783.8466	0.05
784.0191	0.0111
784.1916	-0.0117
784.3641	-0.045
784.5365	0.0227
784.7089	-0.0099
784.8813	0.0431
785.0537	0.0041
785.2261	0.0189
785.3984	0.007
785.5707	-0.0022
785.743	0.0218
785.9153	-0.0131
786.0876	-0.0393
786.2598	-0.0176
786.432	0.0182
786.6042	0.0356
786.7764	0.0105
786.9486	-0.0216
787.1207	-0.0037
787.2928	0.0278
787.4649	-0.0013
787.637	0.0144
787.8091	0.0065
787.9811	0.0539
788.1532	0.0151
788.3252	-0.0126
788.4972	0.0203
788.6691	-0.0018
788.8411	0.0122
789.013	0.0504
789.1849	0.0166
789.3568	0.0361
789.5287	0.0468
789.7005	-0.0139
789.8723	-0.0147
790.0442	-0.003
790.2159	-0.0092
790.3877	0.0275
790.5595	0.0345
790.7312	-0.001
790.9029	-0.0101
791.0746	0.0269
791.2463	-0.0303
791.4179	0.0205
791.5896	0.0295
791.7612	-0.005
791.9328	-0.0012
792.1044	0.038
792.2759	-0.0345
792.4474	0.0142
792.619	0.0569
792.7905	0.0729
792.9619	0.0682
793.1334	0.0491
793.3048	0.0449
793.4762	0.0215
793.6476	-0.0193
793.819	0.0163
793.9904	0.0006
794.1617	-0.0056
794.333	-0.0046
794.5043	0.023
794.6756	0.033
794.8469	0.0801
795.0181	0.0006
795.1893	0.0025
795.3605	0.0497
795.5317	0.0137
795.7029	0.0093
795.874	0.021
796.0452	0.0415
796.2163	-0.0065
796.3873	0.0602
796.5584	0.0987
796.7294	0.0152
796.9005	0.0479
797.0715	-0.014
797.2425	0.112
797.4134	0.0563
797.5844	0.0697
797.7553	-0.0444
797.9262	0.0884
798.0971	0.0832
798.2679	0.0211
798.4388	0.0829
798.6096	0.0124
798.7804	0.0815
798.9512	0.0991
799.122	0.0183
799.2927	0.0809
799.4635	-0.0175
799.6342	-0.0121
799.8049	0.0952
799.9755	-0.0159
800.1462	0.0296
800.3168	0.0428
800.4874	-0.0576
800.658	-0.0072
800.8286	0.0174
800.9991	-0.0531
801.1696	-0.0507
801.3402	-0.0528
801.5106	0.015
801.6811	-0.0018
801.8516	0.0845
802.022	-0.0056
802.1924	0.0798
802.3628	0.0139
802.5332	0.0674
802.7035	0.0574
802.8739	-0.0547
803.0442	-0.0201
803.2145	-0.0081
803.3847	0.0759
803.555	-0.0337
803.7252	0.0275
803.8954	0.0066
804.0656	0.0529
804.2358	-0.0316
804.4059	0.0526
804.5761	0.0134
804.7462	0.014
804.9163	-0.0093
805.0864	-0
805.2564	-0.0075
805.4264	0.0469
805.5965	0.0491
805.7665	-0.0105
805.9364	-0.0372
806.1064	0.024
806.2763	0.0242
806.4462	-0.0055
806.6161	0.0161
806.786	0.005
806.9559	0.0138
807.1257	-0
807.2955	0.008
807.4653	0.0438
807.6351	0.0383
807.8048	0.0385
807.9746	0.005
808.1443	0.0096
808.314	0.0155
808.4837	0.0063
808.6533	0.0998
808.8229	-0.0294
808.9926	0.0596
809.1622	0.0071
809.3317	-0.0068
809.5013	0.0187
809.6708	0.0118
809.8403	0.0267
810.0098	-0.0673
810.1793	0.044
810.3488	0.0424
810.5182	0.1404
810.6876	0.0736
810.857	0.0393
811.0264	-0.0885
811.1958	0.1434
811.3651	-0.0162
811.5344	0.0318
811.7037	0.0545
811.873	0.0171
812.0422	-0.0523
812.2115	0.0047
812.3807	-0.1112
812.5499	0.0436
812.7191	-0.0041
812.8882	-0.0244
813.0574	-0.0179
813.2265	-0.016
813.3956	-0.0398
813.5646	0.0023
813.7337	-0.0106
813.9027	-0.0987
814.0718	0.0202
814.2407	0.0752
814.4097	0.0919
814.5787	0.1181
814.7476	-0.0101
814.9165	0.0653
815.0854	0.0375
815.2543	-0.007
815.4232	0.0652
815.592	0.1016
815.7608	-0.0841
815.9296	-0.05
816.0984	0.0444
816.2671	-0.2229
816.4359	0.3337
816.6046	-0.0623
816.7733	-0.033
816.942	-0.0598
817.1106	0.0831
817.2793	-0.0142
817.4479	-0.007
817.6165	0.0621
817.785	0.1305
817.9536	-0.1486
818.1221	0.0692
818.2906	-0.1219
818.4591	0.0911
818.6276	0.0716
818.7961	0.1642
818.9645	0.1261
819.1329	0.1255
819.3013	0.0541
819.4697	0.1185
819.638	0.0137
819.8064	-0.1461
819.9747	0.1114
820.143	-0.0592
820.3113	-0.0093
820.4795	0.031
820.6477	0.031
820.816	0.063
820.9842	0.0894
821.1523	0.0287
821.3205	0.1232
821.4886	-0.024
821.6567	-0.0413
821.8248	0.1229
821.9929	-0.1571
822.1609	-0.0323
822.329	0.0884
822.497	0.0809
822.665	0.0737
822.833	-0.0881
823.0009	-0.0272
823.1688	0.089
823.3367	-0.0216
823.5046	-0.0212
823.6725	0.0867
823.8404	-0.0279
824.0082	-0.0498
824.176	-0.1439
824.3438	0.1221
824.5116	-0.0484
824.6793	0.0972
824.847	-0.0227
825.0147	0.071
825.1824	0.07
825.3501	-0.0148
825.5177	-0.0736
825.6854	-0.1785
825.853	0.0886
826.0206	-0.1162
826.1881	-0.0609
826.3557	0.0946
826.5232	0.1455
826.6907	-0.0383
826.8582	-0.0447
827.0257	0.333
827.1931	0.1091
827.3605	-0.015
827.528	0.1398
827.6953	-0.2483
827.8627	-0.1338
828.03	0.0675
828.1974	-0.0565
828.3647	-0.0944
828.532	0.1045
828.6992	0.1123
828.8665	-0.1221
829.0337	0.0393
829.2009	-0.1727
829.3681	-0.0914
829.5352	-0.0246
829.7024	-0.0758
829.8695	0.0038
830.0366	0.5715
830.2037	0.1164
830.3707	0.0387
830.5378	0.2462
830.7048	-0.0441
830.8718	-0.0211
831.0388	-0.1037
831.2057	0.3151
831.3727	-0.2739
831.5396	0.0301
831.7065	0.4677
831.8734	0.4519
832.0402	0.4829
832.2071	-0.3923
832.3739	-0.0225
832.5407	-1.9711
832.7075	-0.4074
832.8742	0.3464
833.041	0.5067
833.2077	0.1714
833.3744	0.1436
833.541	0.1164
833.7077	-0.1379
833.8743	-0.0551
834.0409	0.066
834.2075	0.0462
834.3741	-0.2216
834.5407	-0.0127
834.7072	-0.0118
834.8737	0.2702
835.0402	0.2434
835.2067	-0.2347
835.3731	0.0764
835.5395	-0.0489
835.706	-0.3181
835.8723	-0.0174
836.0387	-0.1379
836.2051	0.6652
836.3714	-0
836.5377	-0.0928
836.704	0.4543
836.8703	-0.1566
837.0365	-0
837.2027	0.2809
837.3689	0.1359
837.5351	0.297
837.7013	-0.2776
837.8674	-0.533
838.0335	-0.1768
838.1997	0.1189
838.3657	-0
838.5318	0.2813
838.6978	-0
838.8639	-0.3702
839.0299	0.3954
839.1958	0.159
839.3618	0.2439
839.5277	0.0759
839.6937	-0.2173
839.8596	-0.087
840.0254	0.4674
840.1913	0.366
840.3571	0.076
840.523	-0
840.6888	-0.1581
840.8545	-0.6529
841.0203	0.0882
841.186	0.1489
841.3517	-0.0526
841.5174	0.3085
841.6831	-0.1961
841.8488	0.026
842.0144	0.1637
842.18	0.9027
842.3456	-0.7035
842.5112	-0.9427
842.6767	0.1049
842.8422	-0.1285
843.0077	-0.129
843.1732	-0
843.3387	1.3134
843.5042	0.5138
843.6696	-0.4047
843.835	-0.2138
844.0004	-0.0833
844.1657	-0
844.3311	-0.0524
844.4964	-0.259
844.6617	0.3041
844.827	-0
844.9923	0.0738
845.1575	-0
845.3227	-0.2171
845.4879	-0.0948
845.6531	0.1142
845.8183	0.5444
845.9834	-0
846.1485	0.0923
846.3136	-0.2484
846.4787	-0
846.6438	0.5793
846.8088	1.085
846.9738	-0
847.1388	0.0176
847.3038	0.7648
847.4687	-0
847.6337	0.3634
847.7986	-0.1009
847.9635	-0.2814
848.1284	1.1283
848.2932	0.0496
848.458	-0
848.6228	0.2095
848.7876	-0
848.9524	-0.4182
849.1172	-1.7335
849.2819	-0
849.4466	0.3987
849.6113	0.0702
849.7759	-0.3526
849.9406	-0.056
850.1052	-1.0201
850.2698	-0
850.4344	-0.6196
850.599	-0.1688
850.7635	-0
850.928	0.5198
851.0925	0.4441
851.257	0.0884
851.4215	0.667
851.5859	0.1282
851.7503	-0
851.9147	0.0309
852.0791	0.191
852.2434	0.7236
852.4078	-0
852.5721	0.5777
852.7364	-0.1562
852.9007	-0.0496
853.0649	-0
853.2291	0.3144
853.3934	-0
853.5575	0.2831
853.7217	0.4187
853.8859	-0.7987
854.05	-0.5227
854.2141	0.4616
854.3782	0.275
854.5423	-0
854.7063	0.4486
854.8703	0.0921
855.0343	-0.1968
855.1983	0.0394
855.3623	0.0833
855.5262	0.408
855.6901	0.2465
855.854	0.4761
856.0179	-0
856.1818	0.2954
856.3456	0.1989
856.5094	-0
856.6732	-0
856.837	-1.3481
857.0008	-0.3799
857.1645	-0.4608
857.3282	-0.3356
857.4919	0.126
857.6556	0.2636
857.8192	0.0981
857.9828	0.0114
858.1465	-0.0603
858.31	-0
858.4736	0.3726
858.6372	-0.1035
858.8007	1.1267
858.9642	0.1744
859.1277	-0
859.2911	-0.2319
859.4546	-0
859.618	0.2435
859.7814	-0.3495
859.9448	-0.0722
860.1081	-0.1133
860.2715	-0
860.4348	0.2126
860.5981	0.5825
860.7614	-0
860.9246	-0.1604
861.0879	-0.0529
861.2511	-0.4489
861.4143	-0.7295
861.5774	-0.0948
861.7406	0.7798
861.9037	-0.284
862.0668	-0.8777
862.2299	-0.0149
862.393	-0
862.556	-0
862.7191	-0.5364
862.8821	0.1524
863.0451	-0.0334
863.208	0.1661
863.371	-0
863.5339	0.2072
863.6968	0.3392
863.8597	-0.4049
864.0225	-0
864.1854	-0.4616
864.3482	0.6463
864.511	0.1504
864.6737	-0
864.8365	0.0661
864.9992	0.2889
865.1619	-0.3586
865.3246	-0
865.4873	-0
865.65	0.4337
865.8126	-0
865.9752	-0.0804
866.1378	0.5878
866.3004	-0.2966
866.4629	-1.2587
866.6254	-0
866.7879	0.1805
866.9504	0.4841
867.1129	0.6096
867.2753	-0.3087
867.4377	-0.2213
867.6001	-0.3158
867.7625	0.0714
867.9249	-0.2437
868.0872	-0.1628
868.2495	0.3524
868.4118	-0
868.5741	-0
868.7363	-0.1115
868.8986	-0.786
869.0608	-0
869.223	0.1515
869.3851	-0
869.5473	0.3134
869.7094	-0
869.8715	-1.0321
870.0336	-0.0886
870.1957	-0
870.3577	-0
870.5197	0.0734
870.6817	-1.0049
870.8437	1.1911
871.0057	0.0869
871.1676	0.7547
871.3295	-0
871.4914	-1.5079
871.6533	-0
871.8151	0.4468
871.977	-0.4263
872.1388	0.412
872.3006	-0.1199
872.4623	-0.667
872.6241	0.3524
872.7858	-0.0778
872.9475	-0
873.1092	-0
873.2709	0.5047
873.4325	-2.1715
873.5941	-0
873.7557	0.2784
873.9173	-0
874.0789	0.5227
874.2404	-0
874.4019	0.5888
874.5634	0.2745
874.7249	1.2715
874.8863	-0.0898
875.0478	-0.0383
875.2092	1.3006
875.3706	0.8953
875.5319	-0
875.6933	-0
875.8546	-0.4225
876.0159	1.0058
876.1772	-0
876.3385	-0
876.4997	0.1859
876.6609	-0
876.8221	-0
876.9833	-0
877.1445	0.3945
877.3056	-0.3347
877.4667	-0.92
877.6278	-0
877.7889	-0
877.9499	0.3203
878.111	-0.6724
878.272	-0
878.433	-0
878.5939	0.457
878.7549	-0
878.9158	-0
879.0767	-0.0356
879.2376	0.4386
879.3984	1.2135
879.5593	0.3507
879.7201	-1.0525
879.8809	-0
880.0417	-0.0505
880.2024	0.3639
880.3632	-0.6044
880.5239	0.2303
880.6846	0.1152
880.8452	-0.2983
881.0059	-0.6517
881.1665	-0.0695
881.3271	0.3053
881.4877	1.2832
881.6483	-1.3459
881.8088	-0
881.9693	-0
882.1298	-0
882.2903	-0
