Data from D4ACN5uM420nmA_Absorbance_14-37-08-997.txt Node
Date: Fri Feb 21 14:37:08 GMT 2025
User: LASERRRRR
Spectrometer: FLMT03099
Trigger mode: 0
Integration Time (sec): 1.500000E-2
Scans to average: 1
Electric dark correction enabled: true
Nonlinearity correction enabled: false
Boxcar width: 0
XAxis mode: Wavelengths
Number of Pixels in Spectrum: 3648
>>>>>Begin Spectral Data<<<<<
179.3399	-0.793
179.5586	-0.793
179.7771	-0.793
179.9957	-0.2228
180.2143	-0
180.4329	0.4416
180.6514	-0
180.8699	0.1212
181.0885	-0
181.307	0.2707
181.5255	0.2556
181.744	-0
181.9625	0.0283
182.181	-0.0169
182.3994	0.3185
182.6179	-0
182.8363	1.0154
183.0547	-0.2363
183.2732	-0.0211
183.4916	0.1264
183.71	0.1906
183.9284	0.1019
184.1467	0.1875
184.3651	0.0197
184.5835	0.1408
184.8018	0.0057
185.0201	0.0099
185.2385	0.0534
185.4568	0.1168
185.6751	0.2057
185.8934	0.0475
186.1117	-0.0197
186.3299	0.1375
186.5482	0.2266
186.7664	0.1283
186.9847	0.007
187.2029	0.3768
187.4211	0.1279
187.6393	0.2657
187.8575	0.2465
188.0757	0.2259
188.2939	0.132
188.512	0.3141
188.7302	0.0229
188.9483	0.1125
189.1665	0.4991
189.3846	0.1728
189.6027	0.208
189.8208	0.134
190.0389	0.1691
190.257	-0.0173
190.475	0.0383
190.6931	0.1208
190.9111	-0.0343
191.1292	0.1415
191.3472	0.1198
191.5652	0.4216
191.7832	0.1188
192.0012	0.1919
192.2192	0.1077
192.4371	0.1271
192.6551	0.1875
192.873	0.1228
193.091	0.1097
193.3089	0.1643
193.5268	0.2798
193.7447	0.087
193.9626	0.2086
194.1805	0.2006
194.3984	0.1651
194.6162	0.1953
194.8341	0.13
195.0519	0.1361
195.2697	0.1935
195.4875	0.2528
195.7054	0.2786
195.9231	0.2244
196.1409	0.2748
196.3587	0.288
196.5765	0.2868
196.7942	0.3642
197.012	0.3462
197.2297	0.3107
197.4474	0.3634
197.6651	0.2756
197.8828	0.2631
198.1005	0.3821
198.3182	0.3848
198.5358	0.3979
198.7535	0.3419
198.9711	0.355
199.1888	0.3565
199.4064	0.3837
199.624	0.3826
199.8416	0.3333
200.0592	0.3684
200.2767	0.3906
200.4943	0.449
200.7119	0.341
200.9294	0.3956
201.1469	0.4038
201.3645	0.4878
201.582	0.4252
201.7995	0.3992
202.017	0.3923
202.2344	0.3853
202.4519	0.3781
202.6694	0.4012
202.8868	0.3835
203.1042	0.4413
203.3217	0.3954
203.5391	0.4034
203.7565	0.3512
203.9739	0.3725
204.1913	0.3494
204.4086	0.3233
204.626	0.3585
204.8433	0.3579
205.0607	0.3339
205.278	0.3252
205.4953	0.3445
205.7126	0.349
205.9299	0.3378
206.1472	0.2918
206.3644	0.3409
206.5817	0.3369
206.7989	0.3653
207.0162	0.3088
207.2334	0.3508
207.4506	0.2958
207.6678	0.295
207.885	0.3159
208.1022	0.3067
208.3194	0.2984
208.5365	0.3077
208.7537	0.2943
208.9708	0.2954
209.1879	0.3076
209.405	0.3011
209.6222	0.2554
209.8392	0.2835
210.0563	0.2816
210.2734	0.2575
210.4905	0.273
210.7075	0.2695
210.9245	0.2531
211.1416	0.2639
211.3586	0.2492
211.5756	0.2439
211.7926	0.2361
212.0096	0.2748
212.2265	0.2475
212.4435	0.2613
212.6604	0.264
212.8774	0.2662
213.0943	0.2448
213.3112	0.2561
213.5281	0.257
213.745	0.2331
213.9619	0.2337
214.1788	0.2349
214.3956	0.2393
214.6125	0.2544
214.8293	0.2406
215.0461	0.2526
215.2629	0.2562
215.4798	0.2436
215.6965	0.2454
215.9133	0.2287
216.1301	0.2309
216.3469	0.2351
216.5636	0.2357
216.7803	0.2474
216.9971	0.2331
217.2138	0.2358
217.4305	0.2478
217.6472	0.2423
217.8639	0.2344
218.0805	0.2494
218.2972	0.2467
218.5138	0.2629
218.7305	0.2523
218.9471	0.2491
219.1637	0.2658
219.3803	0.261
219.5969	0.2448
219.8135	0.2613
220.0301	0.2468
220.2466	0.2503
220.4632	0.2493
220.6797	0.2482
220.8962	0.2597
221.1127	0.2531
221.3292	0.2612
221.5457	0.2618
221.7622	0.2614
221.9787	0.2803
222.1951	0.2604
222.4116	0.2553
222.628	0.2792
222.8444	0.2585
223.0608	0.2744
223.2772	0.2786
223.4936	0.2846
223.71	0.2883
223.9264	0.2828
224.1427	0.2871
224.3591	0.2689
224.5754	0.2924
224.7917	0.3023
225.008	0.2889
225.2243	0.3106
225.4406	0.2841
225.6569	0.304
225.8732	0.3057
226.0894	0.3023
226.3057	0.3122
226.5219	0.3135
226.7381	0.3251
226.9543	0.3041
227.1705	0.3217
227.3867	0.3275
227.6029	0.333
227.8191	0.3347
228.0352	0.329
228.2513	0.3475
228.4675	0.3488
228.6836	0.3408
228.8997	0.3399
229.1158	0.3543
229.3319	0.3617
229.548	0.3653
229.764	0.3583
229.9801	0.3692
230.1961	0.3796
230.4121	0.3756
230.6282	0.3861
230.8442	0.3888
231.0602	0.3874
231.2761	0.3833
231.4921	0.4004
231.7081	0.3943
231.924	0.4132
232.14	0.3958
232.3559	0.4153
232.5718	0.4102
232.7877	0.4136
233.0036	0.4145
233.2195	0.4142
233.4353	0.4149
233.6512	0.4106
233.867	0.4252
234.0829	0.4266
234.2987	0.4374
234.5145	0.437
234.7303	0.4346
234.9461	0.4446
235.1619	0.441
235.3776	0.4364
235.5934	0.4369
235.8091	0.4404
236.0249	0.4535
236.2406	0.4451
236.4563	0.4567
236.672	0.4493
236.8877	0.4463
237.1034	0.4417
237.319	0.4562
237.5347	0.45
237.7503	0.4516
237.966	0.463
238.1816	0.4454
238.3972	0.4573
238.6128	0.4628
238.8284	0.4699
239.0439	0.461
239.2595	0.4641
239.475	0.4571
239.6906	0.4609
239.9061	0.4602
240.1216	0.4568
240.3371	0.4684
240.5526	0.458
240.7681	0.4496
240.9836	0.4602
241.199	0.4664
241.4145	0.4525
241.6299	0.4529
241.8453	0.4436
242.0607	0.4486
242.2761	0.4393
242.4915	0.4341
242.7069	0.4272
242.9223	0.4398
243.1376	0.4167
243.353	0.4061
243.5683	0.4095
243.7836	0.4013
243.9989	0.3854
244.2142	0.3832
244.4295	0.3863
244.6448	0.3788
244.86	0.3631
245.0753	0.3577
245.2905	0.3544
245.5057	0.3517
245.721	0.3486
245.9362	0.3355
246.1514	0.3337
246.3665	0.319
246.5817	0.315
246.7969	0.3007
247.012	0.3037
247.2271	0.3088
247.4423	0.2963
247.6574	0.2887
247.8725	0.2851
248.0876	0.2789
248.3026	0.2749
248.5177	0.2634
248.7328	0.2553
248.9478	0.2595
249.1628	0.2552
249.3779	0.2525
249.5929	0.2509
249.8079	0.2365
250.0228	0.2363
250.2378	0.2349
250.4528	0.2341
250.6677	0.224
250.8827	0.2196
251.0976	0.2197
251.3125	0.225
251.5274	0.2138
251.7423	0.2107
251.9572	0.2096
252.172	0.2128
252.3869	0.2086
252.6017	0.2057
252.8166	0.2063
253.0314	0.2035
253.2462	0.2055
253.461	0.2003
253.6758	0.1979
253.8906	0.1926
254.1053	0.1966
254.3201	0.1922
254.5348	0.1906
254.7496	0.1877
254.9643	0.1926
255.179	0.1917
255.3937	0.1944
255.6083	0.1979
255.823	0.1861
256.0377	0.1861
256.2523	0.1822
256.467	0.1928
256.6816	0.1881
256.8962	0.191
257.1108	0.1911
257.3254	0.1844
257.54	0.1869
257.7545	0.1881
257.9691	0.1898
258.1836	0.1836
258.3981	0.1821
258.6127	0.1798
258.8272	0.1874
259.0417	0.1785
259.2561	0.1806
259.4706	0.1802
259.6851	0.182
259.8995	0.1786
260.114	0.18
260.3284	0.1769
260.5428	0.18
260.7572	0.1838
260.9716	0.1842
261.186	0.1799
261.4003	0.1803
261.6147	0.1778
261.829	0.1808
262.0433	0.1791
262.2577	0.185
262.472	0.1811
262.6863	0.188
262.9005	0.1817
263.1148	0.1868
263.3291	0.1892
263.5433	0.1962
263.7576	0.1941
263.9718	0.1873
264.186	0.1898
264.4002	0.1918
264.6144	0.1941
264.8286	0.1971
265.0427	0.198
265.2569	0.1945
265.471	0.1946
265.6851	0.1955
265.8993	0.1877
266.1134	0.197
266.3275	0.189
266.5415	0.1946
266.7556	0.201
266.9697	0.2011
267.1837	0.2015
267.3978	0.1975
267.6118	0.1859
267.8258	0.1978
268.0398	0.1953
268.2538	0.1958
268.4677	0.193
268.6817	0.1923
268.8957	0.1912
269.1096	0.1865
269.3235	0.1919
269.5374	0.1945
269.7514	0.1895
269.9652	0.1934
270.1791	0.187
270.393	0.1921
270.6068	0.1974
270.8207	0.1891
271.0345	0.1895
271.2483	0.1844
271.4622	0.1928
271.676	0.1885
271.8897	0.1859
272.1035	0.1937
272.3173	0.1846
272.531	0.1919
272.7448	0.188
272.9585	0.1876
273.1722	0.185
273.3859	0.1946
273.5996	0.1942
273.8133	0.1919
274.0269	0.1909
274.2406	0.199
274.4542	0.1981
274.6679	0.1978
274.8815	0.2048
275.0951	0.209
275.3087	0.2024
275.5223	0.1955
275.7358	0.1996
275.9494	0.2081
276.1629	0.2048
276.3765	0.2025
276.59	0.196
276.8035	0.2031
277.017	0.2071
277.2305	0.2075
277.444	0.2082
277.6574	0.2098
277.8709	0.212
278.0843	0.2105
278.2978	0.2079
278.5112	0.2101
278.7246	0.2079
278.938	0.2074
279.1513	0.2081
279.3647	0.2021
279.5781	0.2048
279.7914	0.1993
280.0047	0.2035
280.2181	0.1994
280.4314	0.2011
280.6447	0.2048
280.8579	0.1963
281.0712	0.1985
281.2845	0.1982
281.4977	0.1959
281.711	0.1975
281.9242	0.1951
282.1374	0.1999
282.3506	0.1984
282.5638	0.1947
282.7769	0.1928
282.9901	0.1984
283.2033	0.1956
283.4164	0.1919
283.6295	0.1938
283.8426	0.1879
284.0557	0.1929
284.2688	0.193
284.4819	0.1892
284.695	0.1971
284.908	0.1886
285.1211	0.1941
285.3341	0.1835
285.5471	0.1937
285.7601	0.1938
285.9731	0.1927
286.1861	0.1941
286.3991	0.1955
286.612	0.1931
286.825	0.1966
287.0379	0.1886
287.2508	0.1897
287.4637	0.1952
287.6766	0.1901
287.8895	0.189
288.1024	0.197
288.3152	0.1906
288.5281	0.1851
288.7409	0.193
288.9538	0.1938
289.1666	0.1858
289.3794	0.1868
289.5922	0.1882
289.8049	0.19
290.0177	0.1895
290.2304	0.1909
290.4432	0.194
290.6559	0.19
290.8686	0.1876
291.0813	0.1854
291.294	0.1939
291.5067	0.1811
291.7194	0.1863
291.932	0.1849
292.1447	0.1906
292.3573	0.1936
292.5699	0.1955
292.7825	0.1876
292.9951	0.1902
293.2077	0.1804
293.4203	0.1852
293.6328	0.1849
293.8454	0.1922
294.0579	0.1876
294.2704	0.1955
294.4829	0.1828
294.6954	0.1838
294.9079	0.1839
295.1204	0.186
295.3328	0.1895
295.5453	0.1906
295.7577	0.1885
295.9701	0.1902
296.1825	0.1973
296.3949	0.1861
296.6073	0.1823
296.8197	0.1875
297.0321	0.185
297.2444	0.1883
297.4567	0.1904
297.6691	0.184
297.8814	0.1875
298.0937	0.1865
298.306	0.1893
298.5182	0.1914
298.7305	0.1897
298.9428	0.189
299.155	0.1845
299.3672	0.1878
299.5794	0.1892
299.7916	0.1872
300.0038	0.1883
300.216	0.187
300.4282	0.1839
300.6403	0.1915
300.8525	0.1925
301.0646	0.1911
301.2767	0.1856
301.4888	0.1874
301.7009	0.1866
301.913	0.1914
302.125	0.1869
302.3371	0.1915
302.5491	0.1944
302.7612	0.1923
302.9732	0.1892
303.1852	0.1851
303.3972	0.1881
303.6092	0.1925
303.8211	0.1845
304.0331	0.1874
304.245	0.1877
304.457	0.1851
304.6689	0.1898
304.8808	0.1837
305.0927	0.1883
305.3046	0.1873
305.5164	0.1836
305.7283	0.1816
305.9401	0.178
306.152	0.1758
306.3638	0.1775
306.5756	0.1843
306.7874	0.1769
306.9992	0.1744
307.2109	0.1786
307.4227	0.1777
307.6344	0.1805
307.8462	0.1741
308.0579	0.1774
308.2696	0.1727
308.4813	0.1722
308.693	0.165
308.9046	0.1699
309.1163	0.1665
309.328	0.1638
309.5396	0.1589
309.7512	0.1598
309.9628	0.1586
310.1744	0.1544
310.386	0.16
310.5976	0.1558
310.8091	0.1597
311.0207	0.1538
311.2322	0.154
311.4437	0.1501
311.6552	0.1509
311.8667	0.1539
312.0782	0.1527
312.2897	0.1563
312.5012	0.1481
312.7126	0.1476
312.924	0.1509
313.1355	0.1486
313.3469	0.151
313.5583	0.1489
313.7696	0.1463
313.981	0.1535
314.1924	0.144
314.4037	0.1438
314.6151	0.1477
314.8264	0.1494
315.0377	0.1489
315.249	0.1437
315.4603	0.1383
315.6716	0.1504
315.8828	0.1438
316.0941	0.1471
316.3053	0.1433
316.5165	0.1549
316.7277	0.1378
316.9389	0.1425
317.1501	0.139
317.3613	0.1432
317.5724	0.1387
317.7836	0.1383
317.9947	0.1386
318.2058	0.1359
318.417	0.1371
318.6281	0.141
318.8391	0.1448
319.0502	0.1376
319.2613	0.1421
319.4723	0.1391
319.6834	0.1475
319.8944	0.138
320.1054	0.1458
320.3164	0.133
320.5274	0.1336
320.7383	0.1375
320.9493	0.1425
321.1602	0.1443
321.3712	0.1395
321.5821	0.128
321.793	0.1401
322.0039	0.1398
322.2148	0.1438
322.4257	0.1411
322.6365	0.1399
322.8474	0.1416
323.0582	0.1396
323.269	0.1442
323.4798	0.1448
323.6906	0.1388
323.9014	0.1398
324.1122	0.1406
324.3229	0.1426
324.5337	0.1401
324.7444	0.1395
324.9551	0.1417
325.1658	0.1406
325.3765	0.1434
325.5872	0.1409
325.7979	0.1414
326.0085	0.1448
326.2192	0.1433
326.4298	0.1437
326.6404	0.1455
326.851	0.1523
327.0616	0.1468
327.2722	0.1472
327.4828	0.1489
327.6933	0.1589
327.9039	0.1483
328.1144	0.1516
328.3249	0.1525
328.5354	0.1499
328.7459	0.1498
328.9564	0.1517
329.1669	0.1575
329.3773	0.1565
329.5878	0.1494
329.7982	0.1591
330.0086	0.158
330.219	0.1532
330.4294	0.1612
330.6398	0.1561
330.8502	0.158
331.0605	0.1522
331.2708	0.1558
331.4812	0.1587
331.6915	0.1607
331.9018	0.1545
332.1121	0.1599
332.3224	0.1588
332.5326	0.1485
332.7429	0.1536
332.9531	0.1593
333.1633	0.1525
333.3735	0.1552
333.5837	0.1581
333.7939	0.1549
334.0041	0.1562
334.2143	0.1546
334.4244	0.1646
334.6346	0.1534
334.8447	0.1607
335.0548	0.1558
335.2649	0.1624
335.475	0.1571
335.685	0.1526
335.8951	0.1517
336.1051	0.1596
336.3152	0.1542
336.5252	0.1583
336.7352	0.155
336.9452	0.1591
337.1552	0.1545
337.3652	0.1492
337.5751	0.1586
337.7851	0.1566
337.995	0.1529
338.2049	0.1564
338.4148	0.1555
338.6247	0.1561
338.8346	0.1617
339.0445	0.1565
339.2543	0.1567
339.4642	0.1522
339.674	0.1515
339.8838	0.1568
340.0936	0.1539
340.3034	0.1536
340.5132	0.1488
340.7229	0.1564
340.9327	0.1618
341.1424	0.1592
341.3522	0.1539
341.5619	0.1558
341.7716	0.1612
341.9813	0.1623
342.1909	0.1703
342.4006	0.1622
342.6102	0.1662
342.8199	0.1654
343.0295	0.1653
343.2391	0.1634
343.4487	0.1676
343.6583	0.1702
343.8679	0.1596
344.0774	0.1624
344.287	0.1753
344.4965	0.1776
344.706	0.1743
344.9155	0.1673
345.125	0.173
345.3345	0.18
345.544	0.1763
345.7534	0.1767
345.9629	0.1825
346.1723	0.1853
346.3817	0.1724
346.5911	0.1805
346.8005	0.1834
347.0099	0.1789
347.2193	0.1857
347.4286	0.1876
347.638	0.181
347.8473	0.1908
348.0566	0.1869
348.2659	0.1893
348.4752	0.1847
348.6845	0.1904
348.8937	0.1865
349.103	0.1893
349.3122	0.1836
349.5214	0.1891
349.7306	0.1949
349.9398	0.188
350.149	0.1802
350.3582	0.1854
350.5674	0.188
350.7765	0.1915
350.9856	0.1842
351.1948	0.1871
351.4039	0.1949
351.613	0.1897
351.822	0.2002
352.0311	0.1931
352.2402	0.1903
352.4492	0.1813
352.6582	0.1904
352.8672	0.1935
353.0762	0.1892
353.2852	0.1853
353.4942	0.1936
353.7032	0.1946
353.9121	0.189
354.1211	0.1908
354.33	0.1849
354.5389	0.1887
354.7478	0.1821
354.9567	0.1913
355.1655	0.1958
355.3744	0.1875
355.5833	0.1836
355.7921	0.1936
356.0009	0.1878
356.2097	0.1843
356.4185	0.1895
356.6273	0.1878
356.8361	0.1858
357.0448	0.1877
357.2536	0.1939
357.4623	0.1865
357.671	0.1905
357.8797	0.1946
358.0884	0.1924
358.2971	0.1859
358.5057	0.1951
358.7144	0.1881
358.923	0.2042
359.1316	0.1944
359.3402	0.1985
359.5488	0.197
359.7574	0.2034
359.966	0.2019
360.1746	0.1981
360.3831	0.2033
360.5916	0.1967
360.8002	0.201
361.0087	0.1886
361.2172	0.197
361.4256	0.2026
361.6341	0.2069
361.8426	0.198
362.051	0.2023
362.2594	0.2005
362.4678	0.1981
362.6762	0.2087
362.8846	0.2089
363.093	0.2016
363.3014	0.2109
363.5097	0.2082
363.718	0.2145
363.9264	0.2072
364.1347	0.2018
364.343	0.2099
364.5513	0.2042
364.7595	0.2201
364.9678	0.2052
365.176	0.2171
365.3842	0.2174
365.5925	0.2093
365.8007	0.2159
366.0089	0.23
366.217	0.215
366.4252	0.2182
366.6333	0.2134
366.8415	0.2215
367.0496	0.2188
367.2577	0.2209
367.4658	0.2201
367.6739	0.2144
367.882	0.2291
368.09	0.2171
368.2981	0.2263
368.5061	0.226
368.7141	0.2255
368.9221	0.2329
369.1301	0.2202
369.3381	0.2296
369.5461	0.2261
369.754	0.2255
369.962	0.2279
370.1699	0.2403
370.3778	0.2292
370.5857	0.2311
370.7936	0.2304
371.0015	0.2309
371.2093	0.2308
371.4172	0.2319
371.625	0.2329
371.8328	0.2257
372.0406	0.245
372.2484	0.2348
372.4562	0.2345
372.664	0.239
372.8717	0.24
373.0795	0.2416
373.2872	0.2459
373.4949	0.2407
373.7026	0.2385
373.9103	0.2363
374.118	0.2391
374.3256	0.2482
374.5333	0.2408
374.7409	0.2443
374.9485	0.2369
375.1561	0.2474
375.3637	0.2374
375.5713	0.2486
375.7789	0.2416
375.9864	0.2496
376.194	0.2524
376.4015	0.2435
376.609	0.2415
376.8165	0.248
377.024	0.2474
377.2315	0.2516
377.4389	0.2463
377.6464	0.2474
377.8538	0.2467
378.0612	0.2552
378.2686	0.2513
378.476	0.2597
378.6834	0.2547
378.8908	0.2575
379.0981	0.2538
379.3055	0.2542
379.5128	0.2527
379.7201	0.2589
379.9274	0.251
380.1347	0.259
380.342	0.2613
380.5492	0.2516
380.7565	0.2573
380.9637	0.2543
381.1709	0.2548
381.3781	0.2625
381.5853	0.2675
381.7925	0.2569
381.9997	0.2633
382.2068	0.2631
382.4139	0.2642
382.6211	0.2619
382.8282	0.2644
383.0353	0.2659
383.2424	0.2711
383.4494	0.2725
383.6565	0.2625
383.8635	0.2639
384.0706	0.2744
384.2776	0.2643
384.4846	0.2636
384.6916	0.2648
384.8986	0.27
385.1055	0.274
385.3125	0.2701
385.5194	0.2732
385.7263	0.265
385.9333	0.2655
386.1402	0.27
386.347	0.2658
386.5539	0.2698
386.7608	0.2626
386.9676	0.2708
387.1744	0.2661
387.3813	0.2657
387.5881	0.259
387.7948	0.2774
388.0016	0.2736
388.2084	0.2617
388.4151	0.271
388.6219	0.258
388.8286	0.2574
389.0353	0.2731
389.242	0.2673
389.4487	0.2583
389.6553	0.2591
389.862	0.2538
390.0686	0.2652
390.2753	0.2603
390.4819	0.2691
390.6885	0.2609
390.8951	0.2622
391.1016	0.2619
391.3082	0.2619
391.5147	0.2525
391.7213	0.2423
391.9278	0.2549
392.1343	0.26
392.3408	0.2546
392.5473	0.2492
392.7537	0.2517
392.9602	0.2502
393.1666	0.2429
393.373	0.2397
393.5794	0.248
393.7858	0.2503
393.9922	0.2463
394.1986	0.2333
394.4049	0.2414
394.6113	0.2348
394.8176	0.2448
395.0239	0.2362
395.2302	0.2351
395.4365	0.2344
395.6428	0.2409
395.8491	0.2405
396.0553	0.234
396.2615	0.2336
396.4678	0.2368
396.674	0.2314
396.8802	0.2313
397.0863	0.2308
397.2925	0.2271
397.4987	0.2293
397.7048	0.2301
397.9109	0.2323
398.117	0.2282
398.3231	0.2313
398.5292	0.2244
398.7353	0.2386
398.9413	0.2252
399.1474	0.2336
399.3534	0.2302
399.5594	0.228
399.7654	0.2126
399.9714	0.2255
400.1774	0.2267
400.3833	0.2316
400.5893	0.2265
400.7952	0.2327
401.0011	0.224
401.207	0.2311
401.4129	0.2253
401.6188	0.2241
401.8247	0.2324
402.0305	0.2238
402.2364	0.2307
402.4422	0.2238
402.648	0.2273
402.8538	0.2268
403.0596	0.2222
403.2654	0.2236
403.4711	0.2175
403.6768	0.2225
403.8826	0.2284
404.0883	0.2249
404.294	0.2266
404.4997	0.2139
404.7054	0.2264
404.911	0.2192
405.1167	0.2325
405.3223	0.2234
405.5279	0.2193
405.7335	0.2113
405.9391	0.2204
406.1447	0.2275
406.3502	0.2232
406.5558	0.2268
406.7613	0.2186
406.9668	0.2244
407.1724	0.2149
407.3778	0.2291
407.5833	0.2222
407.7888	0.2168
407.9942	0.2252
408.1997	0.2314
408.4051	0.2302
408.6105	0.2249
408.8159	0.2228
409.0213	0.2253
409.2267	0.2334
409.432	0.2175
409.6374	0.2227
409.8427	0.2252
410.048	0.2208
410.2533	0.2189
410.4586	0.2153
410.6639	0.225
410.8691	0.2129
411.0744	0.2177
411.2796	0.2299
411.4848	0.2242
411.69	0.2213
411.8952	0.2268
412.1004	0.2224
412.3056	0.2242
412.5107	0.2296
412.7158	0.2236
412.921	0.2281
413.1261	0.2176
413.3312	0.2264
413.5362	0.2334
413.7413	0.2189
413.9464	0.2154
414.1514	0.2181
414.3564	0.2208
414.5614	0.2217
414.7664	0.2102
414.9714	0.21
415.1764	0.2223
415.3813	0.2159
415.5863	0.2161
415.7912	0.2131
415.9961	0.2144
416.201	0.2248
416.4059	0.2149
416.6108	0.2164
416.8156	0.2036
417.0205	0.2173
417.2253	0.2116
417.4301	0.2234
417.6349	0.2065
417.8397	0.2057
418.0445	0.2034
418.2492	0.2126
418.454	0.2166
418.6587	0.2127
418.8634	0.2221
419.0681	0.2105
419.2728	0.2078
419.4775	0.2215
419.6822	0.2014
419.8868	0.2041
420.0915	0.2153
420.2961	0.2002
420.5007	0.2097
420.7053	0.2059
420.9099	0.2087
421.1144	0.2034
421.319	0.1976
421.5235	0.2043
421.728	0.2119
421.9325	0.2064
422.137	0.2057
422.3415	0.1932
422.546	0.1916
422.7504	0.2015
422.9549	0.2025
423.1593	0.1992
423.3637	0.1947
423.5681	0.2023
423.7725	0.1935
423.9769	0.2043
424.1812	0.1969
424.3856	0.1892
424.5899	0.1874
424.7942	0.1938
424.9985	0.1933
425.2028	0.1891
425.4071	0.2005
425.6113	0.1942
425.8156	0.184
426.0198	0.1879
426.224	0.1822
426.4282	0.1813
426.6324	0.1857
426.8366	0.1761
427.0407	0.175
427.2449	0.1755
427.449	0.1799
427.6531	0.1871
427.8572	0.1787
428.0613	0.1834
428.2654	0.1783
428.4694	0.1691
428.6735	0.1748
428.8775	0.1793
429.0815	0.1788
429.2855	0.1791
429.4895	0.1717
429.6935	0.1665
429.8975	0.1605
430.1014	0.1675
430.3053	0.1663
430.5093	0.163
430.7132	0.1585
430.9171	0.1625
431.1209	0.1613
431.3248	0.1552
431.5286	0.1566
431.7325	0.164
431.9363	0.1589
432.1401	0.1544
432.3439	0.1486
432.5477	0.1447
432.7514	0.1457
432.9552	0.1373
433.1589	0.1495
433.3627	0.1511
433.5664	0.1488
433.7701	0.1418
433.9737	0.1421
434.1774	0.1425
434.3811	0.1297
434.5847	0.1404
434.7883	0.1314
434.9919	0.1313
435.1955	0.129
435.3991	0.1375
435.6027	0.129
435.8062	0.1384
436.0098	0.1193
436.2133	0.1268
436.4168	0.1305
436.6203	0.1185
436.8238	0.1235
437.0272	0.1145
437.2307	0.1211
437.4341	0.1152
437.6375	0.1186
437.841	0.11
438.0443	0.1099
438.2477	0.0997
438.4511	0.1055
438.6545	0.1122
438.8578	0.1054
439.0611	0.1034
439.2644	0.1167
439.4677	0.1053
439.671	0.0968
439.8743	0.11
440.0775	0.0886
440.2808	0.1008
440.484	0.099
440.6872	0.1028
440.8904	0.0925
441.0936	0.0976
441.2967	0.0749
441.4999	0.0834
441.703	0.084
441.9062	0.0852
442.1093	0.095
442.3124	0.0882
442.5155	0.091
442.7185	0.0819
442.9216	0.0804
443.1246	0.0804
443.3276	0.0787
443.5307	0.0742
443.7337	0.0734
443.9366	0.0771
444.1396	0.0748
444.3426	0.0787
444.5455	0.069
444.7484	0.0696
444.9513	0.0684
445.1542	0.0733
445.3571	0.0763
445.56	0.0599
445.7628	0.0661
445.9657	0.0738
446.1685	0.0724
446.3713	0.0589
446.5741	0.0736
446.7769	0.0617
446.9797	0.0607
447.1824	0.0605
447.3852	0.0499
447.5879	0.0605
447.7906	0.0553
447.9933	0.0505
448.196	0.049
448.3986	0.0505
448.6013	0.0461
448.8039	0.0538
449.0066	0.0661
449.2092	0.0541
449.4118	0.0493
449.6143	0.0439
449.8169	0.048
450.0195	0.0457
450.222	0.0516
450.4245	0.048
450.627	0.044
450.8295	0.0405
451.032	0.0418
451.2345	0.039
451.4369	0.039
451.6394	0.0351
451.8418	0.0441
452.0442	0.0455
452.2466	0.029
452.449	0.0515
452.6513	0.0288
452.8537	0.0326
453.056	0.0306
453.2583	0.0321
453.4607	0.0294
453.663	0.0334
453.8652	0.0282
454.0675	0.043
454.2697	0.0356
454.472	0.0259
454.6742	0.0231
454.8764	0.0318
455.0786	0.0353
455.2808	0.0317
455.4829	0.0373
455.6851	0.0332
455.8872	0.018
456.0893	0.0211
456.2915	0.022
456.4935	0.0366
456.6956	0.0221
456.8977	0.0213
457.0997	0.0318
457.3018	0.0216
457.5038	0.0303
457.7058	0.0286
457.9078	0.0295
458.1098	0.0338
458.3117	0.0328
458.5137	0.0062
458.7156	0.0308
458.9175	0.0247
459.1194	0.0253
459.3213	0.0214
459.5232	0.0232
459.725	0.0231
459.9269	0.0258
460.1287	0.0133
460.3305	0.0266
460.5323	0.021
460.7341	0.0219
460.9359	0.0163
461.1376	0.022
461.3394	0.0285
461.5411	0.03
461.7428	0.0188
461.9445	0.0171
462.1462	0.0196
462.3479	0.0222
462.5495	0.0202
462.7512	0.0257
462.9528	0.0246
463.1544	0.0118
463.356	0.0095
463.5576	0.0266
463.7592	0.0222
463.9607	0.0106
464.1623	0.0161
464.3638	0.0125
464.5653	0.0166
464.7668	0.0225
464.9683	0.0189
465.1697	0.0101
465.3712	0.0139
465.5726	0.0141
465.7741	0.0202
465.9755	0.0174
466.1769	0.0102
466.3782	0.0124
466.5796	0.0202
466.7809	0.0161
466.9823	0.0182
467.1836	0.0113
467.3849	0.0193
467.5862	0.0052
467.7875	0.0181
467.9887	0.0181
468.19	0.0126
468.3912	0.0179
468.5924	0.0129
468.7936	0.0138
468.9948	0.0087
469.196	0.0194
469.3972	0.0137
469.5983	0.0119
469.7994	0.0187
470.0006	0.0163
470.2017	0.0066
470.4027	0.03
470.6038	0.0147
470.8049	0.0101
471.0059	0.0151
471.2069	0.0177
471.408	0.015
471.6089	0.0154
471.8099	0.0123
472.0109	0.0075
472.2119	0.0168
472.4128	0.0026
472.6137	0.0143
472.8146	0.0118
473.0155	0.0276
473.2164	0.0145
473.4173	0.0024
473.6181	0.0022
473.819	0.0166
474.0198	0.0083
474.2206	0.0025
474.4214	0.0144
474.6222	0.0026
474.8229	0.0088
475.0237	0.0142
475.2244	0.0169
475.4251	0.013
475.6258	0.0077
475.8265	0.0166
476.0272	0.0063
476.2278	0.0144
476.4285	0.0136
476.6291	0.0124
476.8297	0.0056
477.0303	0.0048
477.2309	0.0099
477.4315	0.0121
477.632	0.0065
477.8326	0.0089
478.0331	0.0159
478.2336	0.0053
478.4341	0.0113
478.6346	0.0099
478.8351	0.007
479.0355	0.0208
479.236	0.0156
479.4364	0.0079
479.6368	0.0083
479.8372	0.0045
480.0376	0.0054
480.2379	0.0094
480.4383	0.0152
480.6386	0.0004
480.8389	0.0084
481.0392	0.0059
481.2395	0.0145
481.4398	0.0112
481.6401	0.0094
481.8403	0.0041
482.0405	0.0083
482.2408	0.0138
482.441	0.0172
482.6411	0.0058
482.8413	0.0107
483.0415	0.0206
483.2416	0.0143
483.4417	0.014
483.6419	0.0037
483.8419	0.0138
484.042	0.0105
484.2421	0.0091
484.4422	0.0089
484.6422	0.008
484.8422	0.0112
485.0422	0.0097
485.2422	0.0051
485.4422	0.0087
485.6422	0.0057
485.8421	0.0094
486.042	0.0174
486.242	0.0027
486.4419	0.0094
486.6417	0.0092
486.8416	0.0132
487.0415	0.0082
487.2413	0.0041
487.4411	0.0095
487.641	0.0072
487.8408	0.0159
488.0405	0.0177
488.2403	0.0115
488.4401	0.0101
488.6398	0.0157
488.8395	0.0063
489.0392	0.0126
489.2389	0.0162
489.4386	0.0011
489.6383	0.0111
489.8379	0.0027
490.0376	0.0037
490.2372	0.0066
490.4368	0.0112
490.6364	0.0097
490.836	0.0107
491.0355	0.0065
491.2351	0.005
491.4346	0.0161
491.6341	0.0108
491.8336	0.01
492.0331	0.0055
492.2326	0.011
492.432	0.0063
492.6315	0.0168
492.8309	0.0128
493.0303	0.0059
493.2297	0.0148
493.4291	0.0054
493.6284	0.016
493.8278	0.0025
494.0271	0.0057
494.2264	0.0026
494.4257	0.0149
494.625	0.0079
494.8243	0.008
495.0236	0.0073
495.2228	0.009
495.422	0.0068
495.6213	0.0162
495.8205	0.0062
496.0196	0.0111
496.2188	0.0082
496.418	0.0093
496.6171	0.006
496.8162	0.0114
497.0153	0.0153
497.2144	0.0003
497.4135	0.0058
497.6126	0.0107
497.8116	0.0072
498.0107	0.0111
498.2097	0.0101
498.4087	0.005
498.6077	-0.0015
498.8067	0.0117
499.0056	0.0104
499.2046	0.0149
499.4035	0.0098
499.6024	-0.0021
499.8013	0.0165
500.0002	0.0096
500.199	0.0237
500.3979	0.0039
500.5967	0.0164
500.7956	0.0089
500.9944	0.0104
501.1932	0.0184
501.3919	0.0147
501.5907	0.0124
501.7895	0.0119
501.9882	0.0194
502.1869	0.0107
502.3856	0.0148
502.5843	0.0074
502.783	0.0046
502.9816	0.0116
503.1803	0.0072
503.3789	0.0154
503.5775	0.0043
503.7761	-0.0004
503.9747	0.0113
504.1732	0.0034
504.3718	0.0125
504.5703	0.0084
504.7689	0.0032
504.9674	0.0058
505.1658	0.0064
505.3643	0.0135
505.5628	0.0091
505.7612	0.0162
505.9597	0.005
506.1581	0.0056
506.3565	0.0087
506.5549	0.0046
506.7532	0.0023
506.9516	0.0119
507.1499	0.0145
507.3482	0.0026
507.5465	0.0148
507.7448	0.0122
507.9431	0.0137
508.1414	0.0068
508.3396	0.0109
508.5379	0.0101
508.7361	0.0062
508.9343	0.0113
509.1325	0.0025
509.3306	0.0073
509.5288	0.0054
509.7269	0.0115
509.9251	0.0101
510.1232	0.0161
510.3213	0.0175
510.5193	0.0103
510.7174	0.0044
510.9154	0.0132
511.1135	0.0021
511.3115	0.0084
511.5095	-0
511.7075	0.0135
511.9055	0.0158
512.1034	0.0109
512.3014	0.0128
512.4993	0.01
512.6972	0.008
512.8951	0.0143
513.093	0.0001
513.2908	0.0158
513.4887	0.0106
513.6865	0.0054
513.8844	0.0198
514.0822	0.0132
514.2799	0.0044
514.4777	0.0005
514.6755	0.0022
514.8732	-0.0039
515.0709	0.0144
515.2687	0.0027
515.4664	0.0111
515.664	0.0018
515.8617	0.0135
516.0594	0.0109
516.257	0.0053
516.4546	0.0166
516.6522	0.015
516.8498	0.0093
517.0474	0.004
517.2449	0.0017
517.4425	0.0037
517.64	0.0093
517.8375	0.0211
518.035	0.009
518.2325	0.0063
518.43	0.0057
518.6274	0.0077
518.8249	0.0124
519.0223	0.0163
519.2197	0.0066
519.4171	0.0043
519.6145	0.02
519.8118	-0.0056
520.0092	-0.0034
520.2065	0.0141
520.4038	0.0148
520.6011	0.0158
520.7984	0.0092
520.9956	0.0168
521.1929	0.0037
521.3901	0.0125
521.5874	0.0104
521.7846	-0.0058
521.9818	0.0058
522.1789	0.0082
522.3761	0.0228
522.5732	0.0125
522.7704	0.0071
522.9675	-0.005
523.1646	0.0019
523.3617	0.007
523.5587	0.0154
523.7558	0.0143
523.9528	0.011
524.1498	0.0012
524.3468	0.0124
524.5438	0.0061
524.7408	0.0034
524.9378	0.0171
525.1347	0.0146
525.3316	0.0139
525.5285	0.0066
525.7254	0.0103
525.9223	0.024
526.1192	0.0166
526.316	0.0107
526.5129	0.0153
526.7097	0.0032
526.9065	0.0134
527.1033	0.0228
527.3	0.0101
527.4968	0.0143
527.6935	-0.0006
527.8903	0.0054
528.087	0.0075
528.2837	0.0162
528.4804	0.0066
528.677	0.0115
528.8737	0.0107
529.0703	0.0093
529.2669	0.0237
529.4635	0.0102
529.6601	0.0069
529.8567	0.0039
530.0532	0.0089
530.2498	0.0138
530.4463	-0.0015
530.6428	0.007
530.8393	0.0128
531.0358	0.0066
531.2322	0.0034
531.4287	0.0138
531.6251	0.002
531.8215	0.0117
532.0179	0.0104
532.2143	0.0108
532.4107	0.0143
532.607	0.0042
532.8034	0.0051
532.9997	0.0049
533.196	0.0038
533.3923	0.0121
533.5886	0.0066
533.7848	0.0064
533.9811	0.0157
534.1773	-0
534.3735	0.0146
534.5697	-0.002
534.7659	0.0062
534.9621	0.0145
535.1582	0.0131
535.3544	0.0057
535.5505	0.0088
535.7466	0.0169
535.9427	0.0049
536.1387	0.0007
536.3348	0.0075
536.5308	0.0085
536.7269	0.0083
536.9229	0.0177
537.1189	0.0186
537.3148	0.0131
537.5108	0.0162
537.7068	0.0153
537.9027	-0.0035
538.0986	0.0107
538.2945	-0.007
538.4904	0.0029
538.6863	0.0071
538.8821	0.0183
539.078	0.0106
539.2738	0.0106
539.4696	0.0029
539.6654	0.0117
539.8611	0.0117
540.0569	0.0024
540.2526	0.0102
540.4484	0.0033
540.6441	0.0126
540.8398	0.0176
541.0355	-0.0007
541.2311	0.0033
541.4268	0.0205
541.6224	0.0186
541.818	0.0098
542.0136	0.0132
542.2092	0.0172
542.4048	0.0106
542.6003	0.0129
542.7959	0.0103
542.9914	0.0074
543.1869	0.0047
543.3824	0.0095
543.5779	0.0187
543.7734	0.0163
543.9688	0.0094
544.1642	0.0106
544.3596	0.0104
544.555	0.0095
544.7504	0.0183
544.9458	0.0153
545.1411	0.0129
545.3365	0.0123
545.5318	0.0113
545.7271	0.0188
545.9224	0.002
546.1177	0.001
546.3129	0.01
546.5081	0.0084
546.7034	0.0114
546.8986	0.0142
547.0938	0.0113
547.289	0.0106
547.4841	0.0101
547.6793	0.0146
547.8744	0.0183
548.0695	0.0042
548.2646	0.0179
548.4597	0.0067
548.6548	0.0208
548.8498	0.0194
549.0448	0.0089
549.2399	0.0214
549.4349	0.0151
549.6298	0.0136
549.8248	0.0027
550.0198	0.0115
550.2147	0.0092
550.4096	0.0047
550.6045	0.0114
550.7994	0.0149
550.9943	0.0209
551.1892	-0.0067
551.384	0.0221
551.5788	0.0039
551.7737	0.0085
551.9685	0.0146
552.1632	0.0137
552.358	0.0088
552.5528	0.0153
552.7475	0.0123
552.9422	0.018
553.1369	0.0186
553.3316	0.0155
553.5263	0.0038
553.7209	0.01
553.9156	0.0164
554.1102	0.015
554.3048	0.0016
554.4994	0.0026
554.694	0.0127
554.8885	0.0143
555.0831	0.021
555.2776	0.0136
555.4721	0.0061
555.6666	0.0137
555.8611	0.0117
556.0555	0.0124
556.25	0.0122
556.4444	0.0129
556.6388	0.0028
556.8332	0.0059
557.0276	0.0125
557.222	0.0072
557.4163	0.0036
557.6107	0.0072
557.805	0.0013
557.9993	0.0126
558.1936	-0.0018
558.3879	0.004
558.5821	0.0041
558.7764	0.0111
558.9706	0.0111
559.1648	0.0146
559.359	0.0068
559.5532	0.0006
559.7473	-0.0003
559.9415	0.0111
560.1356	0.0192
560.3297	0.0056
560.5238	0.0149
560.7179	-0.0002
560.9119	0.0148
561.106	-0.0041
561.3	0.0126
561.494	0.0069
561.688	0.007
561.882	0.0044
562.076	0.009
562.2699	0.0101
562.4639	0.0226
562.6578	0.0057
562.8517	0.0059
563.0456	0.0129
563.2395	0.016
563.4333	0.0081
563.6272	0.0078
563.821	0.0014
564.0148	0.0005
564.2086	0.0064
564.4024	0.0106
564.5961	0.0069
564.7899	0.0092
564.9836	0.0142
565.1773	0.0173
565.371	0.0106
565.5647	0.0033
565.7584	0.0236
565.952	0.0048
566.1456	-0.0004
566.3393	0.0159
566.5329	0.0103
566.7264	0.0081
566.92	0.0076
567.1136	0.008
567.3071	0.0051
567.5006	0.0078
567.6941	0.0082
567.8876	0.0062
568.0811	0.0212
568.2745	0.0056
568.468	0.0089
568.6614	0.0157
568.8548	0.0125
569.0482	0.0095
569.2416	0.0137
569.4349	0.0054
569.6283	0.0065
569.8216	0.0124
570.0149	0.0101
570.2082	0.0164
570.4015	0.0034
570.5947	0.0119
570.788	0.0107
570.9812	0.0064
571.1744	0.0088
571.3676	0.0071
571.5608	0.0084
571.754	0.0152
571.9471	0.0102
572.1402	0.0072
572.3333	0.0109
572.5264	0.0057
572.7195	0.0058
572.9126	0.0081
573.1057	0.0091
573.2987	0.0049
573.4917	0.0085
573.6847	0.0091
573.8777	0.0088
574.0707	0.0121
574.2636	0.0093
574.4566	0.0111
574.6495	0.0052
574.8424	0.0104
575.0353	0.009
575.2281	0.0124
575.421	0.0053
575.6138	0.0047
575.8067	0.009
575.9995	0.005
576.1923	0.0082
576.385	0.0101
576.5778	0.014
576.7706	0.0082
576.9633	0.0112
577.156	0.0022
577.3487	0.0055
577.5414	0.0058
577.734	0.0039
577.9267	0.0098
578.1193	0.0112
578.3119	0.0081
578.5045	0.0066
578.6971	0.0005
578.8897	0.006
579.0822	0.0115
579.2747	0.0058
579.4673	0.0092
579.6598	0.0099
579.8522	0.0121
580.0447	0.0091
580.2372	0.0129
580.4296	0.0111
580.622	0.0056
580.8144	0.009
581.0068	0.0054
581.1992	0.0086
581.3915	0.0014
581.5839	0.0097
581.7762	0.0073
581.9685	0.0063
582.1608	0.0069
582.353	0.0076
582.5453	0.0093
582.7375	0.0134
582.9298	0.0076
583.122	0.0045
583.3142	0.0085
583.5063	0.0073
583.6985	0.0042
583.8906	0.0051
584.0827	0.0081
584.2749	0.0014
584.4669	0.0068
584.659	0.0086
584.8511	0.0091
585.0431	0.0109
585.2352	0.0072
585.4272	0.0101
585.6192	0.0123
585.8111	0.0099
586.0031	0.0064
586.195	0.0075
586.387	0.007
586.5789	0.0053
586.7708	0.0098
586.9627	0.0051
587.1545	0.0087
587.3464	0.0098
587.5382	0.0077
587.73	0.0084
587.9218	0.0048
588.1136	0.0088
588.3053	0.0083
588.4971	0.0069
588.6888	0.0083
588.8805	0.0007
589.0722	0.0088
589.2639	0.0117
589.4556	0.0152
589.6472	0.0062
589.8389	0.0048
590.0305	0.0034
590.2221	0.0103
590.4137	0.0021
590.6052	0.0069
590.7968	0.0096
590.9883	0.0061
591.1798	0.0123
591.3713	0.0045
591.5628	0.0119
591.7543	0.0034
591.9458	0.0054
592.1372	0.0101
592.3286	0.0012
592.52	0.0074
592.7114	0.0063
592.9028	0.0137
593.0941	0.0099
593.2855	0.0074
593.4768	0.0145
593.6681	0.0116
593.8594	0.0123
594.0506	0.0076
594.2419	0.0062
594.4331	0.0058
594.6244	0.0014
594.8156	0.0058
595.0067	0.0036
595.1979	0.0035
595.3891	0.0116
595.5802	0.0172
595.7713	0.0106
595.9624	0.0129
596.1535	0.0063
596.3446	0.0065
596.5357	0.0151
596.7267	0.0072
596.9177	0.0062
597.1087	0.0028
597.2997	0.0086
597.4907	-0.001
597.6817	0.0143
597.8726	0.015
598.0635	0.009
598.2544	0.0088
598.4453	0.012
598.6362	0.0076
598.827	0.0021
599.0179	0.0091
599.2087	0.0128
599.3995	0.0116
599.5903	0.0126
599.7811	0.0123
599.9718	0.0102
600.1626	0.004
600.3533	0.0078
600.544	0.0105
600.7347	0.0099
600.9254	0.0166
601.116	0.0059
601.3067	0.0104
601.4973	0.011
601.6879	0.0062
601.8785	0.0131
602.0691	0.0091
602.2596	0.0063
602.4502	0.0111
602.6407	0.0136
602.8312	0.0051
603.0217	0.0096
603.2122	0.0072
603.4027	0.0058
603.5931	0.0039
603.7835	0.0122
603.9739	0.0031
604.1643	0.0112
604.3547	0.0102
604.5451	0.0074
604.7354	0.004
604.9257	0.0064
605.116	0.0102
605.3063	0.007
605.4966	0.0057
605.6869	0.0124
605.8771	0.0117
606.0673	0.0128
606.2575	0.0035
606.4477	0.0097
606.6379	0.0058
606.8281	0.0083
607.0182	0.0099
607.2083	0.0074
607.3985	0.0069
607.5885	0.007
607.7786	0.0112
607.9687	0.012
608.1587	0.014
608.3488	0.0087
608.5388	0.0044
608.7288	0.0044
608.9187	0.0073
609.1087	0.0105
609.2986	0.0134
609.4886	0.0042
609.6785	0.0103
609.8684	0.0008
610.0582	0.0107
610.2481	0.004
610.4379	0.0091
610.6278	0.0053
610.8176	0.0116
611.0074	0.0089
611.1971	0.0151
611.3869	0.005
611.5766	-0.0005
611.7664	0.0169
611.9561	0.0123
612.1458	0.017
612.3354	0.0114
612.5251	0.008
612.7147	0.0174
612.9044	0.0048
613.094	0.013
613.2836	0.008
613.4731	0.0086
613.6627	0.0123
613.8522	0.0098
614.0417	0.0112
614.2313	0.0095
614.4207	0.0153
614.6102	0.0094
614.7997	0.0098
614.9891	0.0061
615.1785	0.0112
615.3679	0.0102
615.5573	0.0147
615.7467	0.0031
615.9361	0.0108
616.1254	0.0089
616.3147	0.0074
616.504	0.0107
616.6933	0.0109
616.8826	0.0049
617.0718	0.0122
617.2611	0.0045
617.4503	0.0163
617.6395	0.001
617.8287	0.0124
618.0179	0.0071
618.207	0.0144
618.3961	0.0059
618.5853	0.0061
618.7744	0.0128
618.9634	0.0138
619.1525	0.0146
619.3416	0.0027
619.5306	0.0154
619.7196	0.0116
619.9086	0.0031
620.0976	-0.0009
620.2866	0.0066
620.4755	0.0083
620.6645	0.0175
620.8534	0.0156
621.0423	0.0082
621.2312	0.0029
621.42	0.0106
621.6089	0.0105
621.7977	0.0123
621.9865	0.0102
622.1753	-0.0025
622.3641	0.0032
622.5529	-0.0043
622.7416	0.0067
622.9303	0.0114
623.1191	0.0139
623.3078	-0.0032
623.4964	0.0105
623.6851	0.0022
623.8737	0.0068
624.0624	-0.0083
624.251	0.0095
624.4396	0.0137
624.6282	0.0053
624.8167	0.0112
625.0053	0.0026
625.1938	0.0101
625.3823	0.0121
625.5708	0.0069
625.7593	-0.0034
625.9477	0.0031
626.1362	0.0048
626.3246	0.0082
626.513	0.0157
626.7014	0.0003
626.8898	0.0152
627.0781	0.0107
627.2665	0.0181
627.4548	-0.0016
627.6431	0.021
627.8314	0.0206
628.0197	0.0109
628.2079	0.0056
628.3962	0.0065
628.5844	0.0072
628.7726	0.0265
628.9608	0.0045
629.1489	0.0078
629.3371	-0.0025
629.5252	-0.0005
629.7134	-0.0014
629.9015	0.0026
630.0895	-0.0154
630.2776	0.0074
630.4657	0.0135
630.6537	0.0148
630.8417	-0.0015
631.0297	0.008
631.2177	0.0102
631.4057	0.0096
631.5936	0.0014
631.7815	0.0114
631.9695	0.0164
632.1574	0.0101
632.3452	0.0077
632.5331	0.0062
632.7209	0.0163
632.9088	0.0123
633.0966	0.043
633.2844	0.0064
633.4722	0.0096
633.6599	0.0225
633.8477	0.0141
634.0354	0.0157
634.2231	0.0037
634.4108	0.0092
634.5985	0.0069
634.7861	0.0013
634.9738	0.0008
635.1614	0.0025
635.349	0.0114
635.5366	0.014
635.7242	0.003
635.9117	0.0113
636.0993	0.0147
636.2868	-0.0043
636.4743	0.0014
636.6618	-0.0075
636.8492	0.0216
637.0367	0.0101
637.2241	0.0071
637.4115	0.0257
637.5989	-0.0003
637.7863	0.0324
637.9737	0.0085
638.161	0.0117
638.3484	-0.0062
638.5357	0.0104
638.723	0.0203
638.9103	-0.0069
639.0975	0.0055
639.2848	0.0153
639.472	0.0176
639.6592	-0.0132
639.8464	-0.0042
640.0336	0.0109
640.2208	0.0102
640.4079	-0.0048
640.595	-0.0108
640.7821	0.0148
640.9692	0.0007
641.1563	0.0247
641.3434	0.0233
641.5304	0.0217
641.7174	0.0151
641.9044	0.0108
642.0914	0.0296
642.2784	-0.0095
642.4653	0.0026
642.6523	0.015
642.8392	-0.0111
643.0261	0.0001
643.213	0.0195
643.3999	0.0143
643.5867	0.0138
643.7735	-0.0004
643.9604	0.0128
644.1472	0.0015
644.3339	-0.0015
644.5207	0.0124
644.7075	0.0049
644.8942	0.0027
645.0809	0.0063
645.2676	0.0123
645.4543	0.0077
645.6409	0.0339
645.8276	0.0132
646.0142	-0.0036
646.2008	0.0098
646.3874	0.0049
646.574	0.0071
646.7605	0.0133
646.9471	0.0051
647.1336	-0.0191
647.3201	0.0164
647.5066	0.0021
647.6931	0.0009
647.8795	0.005
648.0659	0.0087
648.2524	0.0166
648.4388	0.0173
648.6252	0.0108
648.8115	0.0096
648.9979	0.0038
649.1842	0.0085
649.3705	0.0221
649.5568	-0.0177
649.7431	-0.0027
649.9294	-0.0116
650.1156	0.0053
650.3018	0.0179
650.488	0.0142
650.6742	0.0274
650.8604	0.0028
651.0466	0.0158
651.2327	-0.0062
651.4188	0.0122
651.6049	0.0157
651.791	0.0107
651.9771	0.0086
652.1632	0.0155
652.3492	0.0088
652.5352	0.0146
652.7212	-0.0003
652.9072	0.0218
653.0932	0.0066
653.2791	0.0172
653.465	0.0096
653.651	0.0251
653.8369	0.0121
654.0227	-0.0064
654.2086	0.0217
654.3944	0.0091
654.5803	0.0036
654.7661	0.008
654.9519	0.001
655.1377	-0
655.3234	-0
655.5092	-0
655.6949	-0
655.8806	-0
656.0663	-0
656.2519	-0
656.4376	-0
656.6232	-0
656.8088	-0
656.9945	-0
657.18	-0
657.3656	-0
657.5511	-0
657.7367	-0
657.9222	-0
658.1077	-0
658.2932	-0
658.4786	-0
658.6641	-0
658.8495	-0
659.0349	-0
659.2203	-0
659.4057	0.0177
659.591	0.2767
659.7764	0.0322
659.9617	0.0071
660.147	0.0134
660.3323	0.009
660.5176	-0.0092
660.7028	-0.0114
660.888	0.017
661.0733	0.0214
661.2585	-0.0182
661.4436	0.0043
661.6288	0.0013
661.8139	0.0137
661.9991	-0.0142
662.1842	0.0068
662.3693	0.0181
662.5544	0.0101
662.7394	0.0445
662.9245	0.0054
663.1095	-0.01
663.2945	-0.0021
663.4795	-0.008
663.6644	-0.007
663.8494	0.0253
664.0343	0.0176
664.2193	0.003
664.4042	0.0121
664.589	0.028
664.7739	0.0176
664.9587	-0.0145
665.1436	-0.0081
665.3284	0.0128
665.5132	-0.0148
665.698	0.0191
665.8827	0.0153
666.0675	-0.0147
666.2522	0.0211
666.4369	0.0044
666.6216	0.0292
666.8063	-0.0184
666.9909	0.0012
667.1756	-0.0012
667.3602	-0.008
667.5448	0.0225
667.7294	0.0168
667.9139	-0.0135
668.0985	0.0012
668.283	0.0091
668.4675	0.0267
668.652	0.0216
668.8365	0.0025
669.0209	0.0066
669.2054	0.0021
669.3898	0.0189
669.5742	0.0189
669.7586	0.0198
669.943	-0.0026
670.1273	0.0123
670.3117	0.0266
670.496	0.0159
670.6803	-0.0247
670.8646	-0.0032
671.0488	0.0247
671.2331	-0.0023
671.4173	0.0207
671.6015	0.0053
671.7857	-0.0017
671.9699	0.0196
672.1541	0.0032
672.3382	0.0031
672.5223	0.0032
672.7064	-0.0082
672.8905	-0.0026
673.0746	0.0155
673.2587	0.0237
673.4427	0.019
673.6267	0.0077
673.8107	0.03
673.9947	0.0288
674.1787	0.0106
674.3626	0.0161
674.5465	0.0273
674.7304	-0.0002
674.9143	-0.0056
675.0982	0.0108
675.2821	-0.0027
675.4659	-0.0171
675.6497	0.0144
675.8335	0.0032
676.0173	0.0045
676.2011	0.0068
676.3849	0.0235
676.5686	0.0018
676.7523	0.0021
676.936	-0.0081
677.1197	-0.0239
677.3034	0.0368
677.487	0.0285
677.6706	0.028
677.8542	-0.0024
678.0378	0.0189
678.2214	0.0066
678.405	0.0066
678.5885	0.0174
678.772	0.0117
678.9555	-0.0003
679.139	0.0081
679.3225	0.0014
679.5059	0.0064
679.6894	0.0173
679.8728	0.0096
680.0562	0.0142
680.2395	0.0058
680.4229	0.0102
680.6062	0.016
680.7896	-0.0119
680.9729	0.0209
681.1562	0.0003
681.3394	-0.0113
681.5227	0.0001
681.7059	0.0066
681.8891	0.0186
682.0723	-0.0132
682.2555	-0.0097
682.4387	0.0129
682.6218	0.0052
682.805	0.0039
682.9881	0.0077
683.1712	0.0262
683.3542	0.0236
683.5373	0.0088
683.7203	0.0138
683.9034	-0.0054
684.0864	0.0106
684.2694	0.0069
684.4523	0.0001
684.6353	0.0132
684.8182	0.003
685.0011	0.0034
685.184	0.0112
685.3669	0.021
685.5498	0.003
685.7326	-0.0031
685.9154	0.0007
686.0982	0.0041
686.281	-0.0153
686.4638	0.0079
686.6465	0.0009
686.8293	0.0007
687.012	0.0263
687.1947	0.0012
687.3774	0.0077
687.56	-0.0107
687.7427	-0.0056
687.9253	-0.0167
688.1079	-0.0007
688.2905	-0.0085
688.4731	0.052
688.6556	-0.0004
688.8382	-0.0055
689.0207	0.0047
689.2032	0.0302
689.3857	-0.0012
689.5681	-0.0124
689.7506	0.0394
689.933	0.0191
690.1154	0.0157
690.2978	-0.0089
690.4802	0.0102
690.6626	0.0079
690.8449	0.0161
691.0272	-0.0036
691.2095	-0.0239
691.3918	0.0125
691.5741	0.0227
691.7563	-0.0001
691.9386	0.0148
692.1208	0.0171
692.303	0.0004
692.4852	0.0265
692.6673	0.0018
692.8495	-0.0074
693.0316	0.0194
693.2137	0.0152
693.3958	0.0156
693.5778	0.0115
693.7599	-0.0034
693.9419	-0.0218
694.1239	0.0092
694.3059	0.0239
694.4879	0.0154
694.6699	-0.0027
694.8518	0.0227
695.0337	0.0018
695.2157	0.0262
695.3975	0.0141
695.5794	-0.002
695.7613	0.0314
695.9431	0.0154
696.1249	0.022
696.3067	-0.004
696.4885	0.0213
696.6703	0.015
696.852	0.0093
697.0337	0.0175
697.2154	0.0103
697.3971	0.0097
697.5788	0.0144
697.7605	-0.0011
697.9421	0.0187
698.1237	0.0157
698.3053	-0.0064
698.4869	0.0156
698.6685	-0.0087
698.85	0.0299
699.0315	-0.0085
699.213	0.0173
699.3945	0.0235
699.576	0.0318
699.7575	0.0199
699.9389	-0.0222
700.1203	0.0115
700.3017	0.0026
700.4831	0.0147
700.6645	0.0465
700.8458	-0.0131
701.0271	0.0194
701.2084	0.0129
701.3897	0.0069
701.571	-0.0117
701.7523	0.0022
701.9335	0.014
702.1147	0.0154
702.2959	-0.0155
702.4771	0.0218
702.6583	0.0059
702.8394	-0.0035
703.0205	0.0125
703.2016	-0.0164
703.3827	0.0052
703.5638	0.0078
703.7449	0.0235
703.9259	0.0262
704.1069	-0.0031
704.2879	0.0093
704.4689	-0.0055
704.6499	0.0418
704.8308	0.0144
705.0117	-0.0003
705.1927	0.0027
705.3735	-0.0064
705.5544	-0.0056
705.7353	-0.0031
705.9161	-0.0145
706.0969	0.0133
706.2777	-0.0041
706.4585	-0.0015
706.6393	0.0106
706.82	0.0139
707.0007	0.0134
707.1815	-0.0036
707.3621	0.0494
707.5428	0.0113
707.7235	-0.0089
707.9041	0.0308
708.0847	0.0101
708.2653	0.0102
708.4459	0.0052
708.6265	-0.0101
708.807	0.0153
708.9875	0.0158
709.168	-0.0005
709.3485	0.038
709.529	0.0087
709.7095	0.0012
709.8899	0.0028
710.0703	0.0179
710.2507	0.0096
710.4311	-0.0144
710.6115	0.0376
710.7918	0.0199
710.9721	0.0405
711.1524	-0.0158
711.3327	-0.0149
711.513	0.0095
711.6932	-0.0015
711.8735	0.0177
712.0537	0.0014
712.2339	0.0083
712.4141	0.017
712.5942	-0.0103
712.7744	0.0163
712.9545	-0.0084
713.1346	0.0315
713.3147	0.005
713.4947	-0.0053
713.6748	-0.007
713.8548	0.0141
714.0348	0.0215
714.2148	0.001
714.3948	0.0056
714.5748	0.0197
714.7547	0.0218
714.9346	0.014
715.1145	0.0171
715.2944	-0.0137
715.4743	0.0283
715.6541	-0.0024
715.834	0.0298
716.0138	0.0318
716.1936	-0.0092
716.3733	0.015
716.5531	0.009
716.7328	0.0139
716.9126	0.0374
717.0923	-0.0279
717.2719	0.0127
717.4516	-0.0057
717.6312	-0.0161
717.8109	0.0293
717.9905	0.0202
718.1701	0.0205
718.3496	0.0069
718.5292	-0.024
718.7087	-0.0065
718.8882	0.0039
719.0677	-0.0005
719.2472	-0.0052
719.4267	0.0062
719.6061	0.0063
719.7856	0.0443
719.965	0.0113
720.1443	-0.0052
720.3237	0.0225
720.5031	-0.017
720.6824	-0.0006
720.8617	0.0055
721.041	0.0263
721.2203	0.003
721.3995	0.0071
721.5788	-0.013
721.758	-0.0056
721.9372	0.0212
722.1164	-0.0191
722.2956	0.0312
722.4747	0.0367
722.6538	0.01
722.8329	0.0454
723.012	0.0062
723.1911	0.0006
723.3702	0.0294
723.5492	0.0063
723.7282	-0.0079
723.9072	0.0176
724.0862	0.0194
724.2652	0.0067
724.4441	0.0109
724.623	0.0194
724.8019	0.0048
724.9808	0.0029
725.1597	0.0088
725.3385	0.0049
725.5174	0.0325
725.6962	0.0081
725.875	0.0167
726.0538	0.0193
726.2325	0.0192
726.4112	-0.0054
726.59	0.0103
726.7687	-0.0231
726.9474	0.0338
727.126	0.0378
727.3047	-0.0269
727.4833	0.0147
727.6619	0.0245
727.8405	0.0194
728.0191	0.0569
728.1976	-0.004
728.3762	0.0148
728.5547	0.0053
728.7332	0.0221
728.9116	0.0112
729.0901	0.0244
729.2686	0.0068
729.447	0.0021
729.6254	0.0084
729.8038	0.0264
729.9821	-0.0171
730.1605	0.0253
730.3388	0.0043
730.5171	0.0136
730.6954	-0.0019
730.8737	0.0154
731.0519	-0.0243
731.2302	0.0326
731.4084	-0.0183
731.5866	0.0022
731.7648	0.028
731.9429	0.0173
732.1211	0.0073
732.2992	0.0139
732.4773	0.0018
732.6554	-0.0044
732.8335	0.0146
733.0115	0.0209
733.1896	-0.0065
733.3676	0.0394
733.5456	-0.0033
733.7235	-0.0025
733.9015	0.0133
734.0794	0.0092
734.2574	-0.0085
734.4353	0.0001
734.6131	0.0066
734.791	-0.0013
734.9689	-0.0185
735.1467	-0.0023
735.3245	0.0247
735.5023	0.0128
735.68	0.0065
735.8578	0.0023
736.0355	0.0036
736.2132	0.01
736.3909	0.0093
736.5686	0.0062
736.7463	-0.0198
736.9239	0.0261
737.1015	0.007
737.2791	-0.0011
737.4567	0.0075
737.6343	-0.003
737.8118	0.0392
737.9894	0.0058
738.1669	-0.0074
738.3444	0.0267
738.5218	0.0013
738.6993	0.0237
738.8767	0.0167
739.0541	-0.0019
739.2315	0.0028
739.4089	0.0251
739.5863	0.0117
739.7636	-0.0029
739.9409	0.0116
740.1182	0.0002
740.2955	0.0241
740.4728	-0.0071
740.65	-0.0044
740.8272	0.0007
741.0044	0.0115
741.1816	0.0288
741.3588	-0.0214
741.5359	-0.0007
741.7131	0.0146
741.8902	0.0137
742.0673	-0.0215
742.2444	0.0449
742.4214	0.0275
742.5985	-0.0002
742.7755	-0.027
742.9525	-0.025
743.1295	-0.0261
743.3064	0.0002
743.4834	-0.0086
743.6603	0.0484
743.8372	-0.0432
744.0141	0.0329
744.191	0.0248
744.3678	-0.0327
744.5446	0.0002
744.7215	0.006
744.8982	-0.0142
745.075	0.0499
745.2518	0.0048
745.4285	0.0253
745.6052	-0.0269
745.7819	0.0159
745.9586	0.0291
746.1353	-0.0177
746.3119	0.0234
746.4885	0.0322
746.6651	-0.0062
746.8417	0.0079
747.0183	0.0419
747.1948	-0.018
747.3714	0.0107
747.5479	0.03
747.7244	-0.0334
747.9008	-0.0053
748.0773	0.0242
748.2537	0.0092
748.4301	0.0242
748.6065	0.0066
748.7829	-0.0241
748.9593	0.0013
749.1356	0.0095
749.3119	0.0075
749.4882	0.0169
749.6645	0.0247
749.8408	0.0283
750.017	0.011
750.1933	0.0005
750.3695	0.0185
750.5457	0.0046
750.7218	-0.0087
750.898	-0.0045
751.0741	0.0118
751.2502	0.0095
751.4263	0.0149
751.6024	0.0077
751.7784	0.0023
751.9545	0.0013
752.1305	-0.0013
752.3065	0.0291
752.4825	0.0099
752.6584	0.0153
752.8344	0.0006
753.0103	-0.0122
753.1862	0.0186
753.3621	0.024
753.5379	-0.0098
753.7138	0.0084
753.8896	0.0026
754.0654	-0.0212
754.2412	0.0064
754.417	0.0314
754.5927	0.0165
754.7685	0.0199
754.9442	0.014
755.1199	0.0179
755.2956	0.0019
755.4712	0.0107
755.6469	0.0042
755.8225	0.021
755.9981	0.0108
756.1736	0.0021
756.3492	-0.0059
756.5248	0.0272
756.7003	-0.0066
756.8758	0.002
757.0513	0.0023
757.2267	0.0155
757.4022	-0.0138
757.5776	0.0108
757.753	0.0266
757.9284	0.0169
758.1038	0.0221
758.2791	0.0071
758.4545	-0.0064
758.6298	0.0101
758.8051	0.0069
758.9803	0.0105
759.1556	-0.0114
759.3308	0.0106
759.506	0.0054
759.6812	0.0055
759.8564	0.009
760.0316	-0.008
760.2067	0.0214
760.3819	0.0043
760.557	-0.0093
760.732	0.0024
760.9071	0.0142
761.0821	0.0031
761.2572	0.0012
761.4322	0.0134
761.6072	-0.0092
761.7821	0.0071
761.9571	0.0136
762.132	-0.004
762.3069	0.0293
762.4818	0.0322
762.6567	-0.0005
762.8316	0.0135
763.0064	0.0172
763.1812	0.0048
763.356	-0.0113
763.5308	0.03
763.7055	-0.0054
763.8803	0.0041
764.055	-0.0011
764.2297	-0.0275
764.4044	0.0057
764.579	0.0029
764.7537	0.0058
764.9283	0.0087
765.1029	0.0022
765.2775	0.0163
765.4521	0.0027
765.6266	-0.0039
765.8011	0.0307
765.9756	0.013
766.1501	0.0053
766.3246	0.0131
766.4991	-0.0078
766.6735	0.0614
766.8479	0.0204
767.0223	0.0198
767.1967	0.0194
767.371	0.0128
767.5454	0.0218
767.7197	0.0245
767.894	0.003
768.0683	0.0115
768.2425	-0.0099
768.4168	0.0052
768.591	-0.0009
768.7652	-0.0039
768.9394	-0.0087
769.1135	0.005
769.2877	0.016
769.4618	0.0362
769.6359	0.0155
769.81	0.0221
769.984	0.0105
770.1581	0.0213
770.3321	0.0198
770.5061	-0.0136
770.6801	0.0168
770.8541	0.0085
771.028	0.0458
771.202	0.0005
771.3759	0.0151
771.5498	0.0252
771.7236	0.0125
771.8975	0.0132
772.0713	0.0315
772.2451	0.0111
772.4189	0.0042
772.5927	-0.0315
772.7665	0.0007
772.9402	0.0077
773.1139	0.0229
773.2876	-0.0025
773.4613	0.0146
773.635	0.0213
773.8086	0.0318
773.9822	0.0231
774.1558	0.0502
774.3294	0.0156
774.503	0.0395
774.6765	0.057
774.8501	0.0206
775.0236	0.0526
775.1971	-0.0057
775.3705	0.0082
775.544	-0.0272
775.7174	-0.0156
775.8908	0.0165
776.0642	0.0096
776.2376	0.0021
776.4109	0.0325
776.5843	-0.0227
776.7576	0.0142
776.9309	0.0406
777.1041	-0.0466
777.2774	-0.0004
777.4506	0.0065
777.6238	-0.0159
777.797	0.0118
777.9702	0.028
778.1434	0.0091
778.3165	-0.0101
778.4896	-0.0467
778.6627	0.0234
778.8358	-0.0009
779.0089	0.0027
779.1819	0.0184
779.3549	0.0327
779.5279	-0.0036
779.7009	0.0444
779.8739	0.0403
780.0468	-0.0053
780.2197	0.003
780.3926	-0.0075
780.5655	0.0167
780.7384	0.0345
780.9112	-0.0058
781.0841	0.0344
781.2569	0.0116
781.4297	0.009
781.6024	-0.0198
781.7752	0.048
781.9479	0.0436
782.1206	-0.0024
782.2933	0.0206
782.466	0.0352
782.6386	-0.0427
782.8113	0.0026
782.9839	-0.0147
783.1565	0.0058
783.329	0.0026
783.5016	0.0089
783.6741	-0.01
783.8466	0.0711
784.0191	-0.0131
784.1916	-0.0189
784.3641	-0.0356
784.5365	0.0573
784.7089	-0.0279
784.8813	0.0683
785.0537	0.0107
785.2261	0.0124
785.3984	0.0101
785.5707	0.0026
785.743	0.0306
785.9153	-0.0026
786.0876	-0.0424
786.2598	0.0362
786.432	0.0344
786.6042	0.0402
786.7764	-0.002
786.9486	-0.0336
787.1207	0.035
787.2928	0.0424
787.4649	0.0128
787.637	0.011
787.8091	-0.0141
787.9811	0.0395
788.1532	0.0263
788.3252	-0.0179
788.4972	0.0103
788.6691	0.044
788.8411	0.0144
789.013	0.0215
789.1849	-0.006
789.3568	0.0083
789.5287	0.0326
789.7005	-0.0529
789.8723	-0.0215
790.0442	0.0167
790.2159	0.0372
790.3877	0.0318
790.5595	0.057
790.7312	-0.02
790.9029	-0.0205
791.0746	0.0719
791.2463	-0.0394
791.4179	0.02
791.5896	-0.0225
791.7612	0.0284
791.9328	-0.0511
792.1044	-0.052
792.2759	0.0158
792.4474	0.0257
792.619	0.0423
792.7905	0.0086
792.9619	0.0557
793.1334	0.0964
793.3048	0.0604
793.4762	0.0309
793.6476	-0.0389
793.819	-0.0179
793.9904	-0.0093
794.1617	-0.012
794.333	0.002
794.5043	0.0469
794.6756	0.0271
794.8469	0.0248
795.0181	0.0163
795.1893	0.032
795.3605	0.0494
795.5317	0.0076
795.7029	0.0141
795.874	0.0205
796.0452	0.0098
796.2163	0.0775
796.3873	0.0333
796.5584	0.0222
796.7294	0.0463
796.9005	-0.0385
797.0715	-0.0267
797.2425	0.0473
797.4134	0.0452
797.5844	0.0604
797.7553	-0.0031
797.9262	0.0785
798.0971	0.0185
798.2679	0.0092
798.4388	0.0017
798.6096	0.0117
798.7804	0.0257
798.9512	0.0422
799.122	0.0019
799.2927	0.1102
799.4635	-0.0816
799.6342	-0.0068
799.8049	0.0734
799.9755	-0.0136
800.1462	0.0188
800.3168	0.0568
800.4874	-0.1214
800.658	0.0119
800.8286	0.0023
800.9991	-0.0383
801.1696	0.014
801.3402	0.0112
801.5106	0.0454
801.6811	0.0439
801.8516	0.1262
802.022	-0.0283
802.1924	-0.0093
802.3628	0.0273
802.5332	0.0238
802.7035	0.0638
802.8739	0.0189
803.0442	-0.0102
803.2145	0.0192
803.3847	0.0465
803.555	0.0275
803.7252	-0.0463
803.8954	-0.0459
804.0656	-0.0053
804.2358	0.037
804.4059	0.028
804.5761	0.0344
804.7462	-0.0451
804.9163	0.042
805.0864	-0.0229
805.2564	-0.0066
805.4264	0.0008
805.5965	0.0563
805.7665	0.0291
805.9364	-0.0175
806.1064	-0.0075
806.2763	0.0129
806.4462	0.0061
806.6161	0.0075
806.786	-0.0123
806.9559	0.0266
807.1257	-0.0125
807.2955	-0.0039
807.4653	-0.0327
807.6351	0.0155
807.8048	0.0815
807.9746	0.0465
808.1443	0.0158
808.314	0.021
808.4837	0.1092
808.6533	-0.0495
808.8229	0.0553
808.9926	0.0202
809.1622	0.0235
809.3317	-0.0495
809.5013	0.0009
809.6708	-0.0523
809.8403	0.0524
810.0098	0.0558
810.1793	0.027
810.3488	-0.0413
810.5182	0.1013
810.6876	0.0208
810.857	0.0654
811.0264	-0.0487
811.1958	0.1065
811.3651	0.0083
811.5344	0.0351
811.7037	0.0665
811.873	0.0797
812.0422	-0.051
812.2115	-0.0126
812.3807	-0.115
812.5499	0.0567
812.7191	0.0896
812.8882	0.0111
813.0574	0.0395
813.2265	0.0724
813.3956	0.0566
813.5646	0.0221
813.7337	0.0173
813.9027	-0.0457
814.0718	0.0021
814.2407	0.0917
814.4097	0.0997
814.5787	0.1408
814.7476	-0.0094
814.9165	0.0339
815.0854	0.0283
815.2543	0.0379
815.4232	0.0495
815.592	0.0665
815.7608	-0.0689
815.9296	-0.0847
816.0984	-0.0256
816.2671	-0.2396
816.4359	0.2088
816.6046	0.1994
816.7733	-0.1074
816.942	-0.1922
817.1106	0.0152
817.2793	-0.0072
817.4479	0.0591
817.6165	0.0504
817.785	-0.0336
817.9536	-0.1101
818.1221	-0.0347
818.2906	-0.0521
818.4591	0.0843
818.6276	0.0505
818.7961	-0.0467
818.9645	-0.0235
819.1329	0.1283
819.3013	-0.1003
819.4697	0.0139
819.638	-0.0529
819.8064	-0.0872
819.9747	-0.0421
820.143	-0.1591
820.3113	0.1243
820.4795	0.1023
820.6477	0.168
820.816	-0.0252
820.9842	0.1164
821.1523	0.0826
821.3205	0.0414
821.4886	-0.0656
821.6567	-0.0154
821.8248	0.0649
821.9929	-0.1518
822.1609	-0.043
822.329	-0.041
822.497	0.0345
822.665	-0.0296
822.833	-0.058
823.0009	-0.0697
823.1688	-0.0385
823.3367	-0.2353
823.5046	-0.0403
823.6725	-0.0421
823.8404	0.0758
824.0082	-0.1361
824.176	0.0505
824.3438	0.0549
824.5116	-0.0354
824.6793	0.0921
824.847	0.0148
825.0147	0.1368
825.1824	0.0086
825.3501	-0.0758
825.5177	0.0865
825.6854	-0.0799
825.853	-0.0086
826.0206	-0.0054
826.1881	0.0399
826.3557	0.0089
826.5232	-0.0038
826.6907	-0.0105
826.8582	-0.0834
827.0257	0.0577
827.1931	0.048
827.3605	-0.0057
827.528	0.0643
827.6953	-0.1507
827.8627	-0.1544
828.03	0.0406
828.1974	0.0153
828.3647	0.0151
828.532	-0.1086
828.6992	0.01
828.8665	-0.2562
829.0337	-0.0896
829.2009	0.0565
829.3681	0.0212
829.5352	-0.3007
829.7024	-0.0233
829.8695	-0.0204
830.0366	0.1601
830.2037	0.1043
830.3707	0.0577
830.5378	0.0886
830.7048	-0.1397
830.8718	0.0244
831.0388	0.1401
831.2057	0.08
831.3727	-0.3289
831.5396	0.1192
831.7065	-0.9201
831.8734	0.2082
832.0402	0.0769
832.2071	-0.2601
832.3739	-0.258
832.5407	-1.9751
832.7075	-0.3289
832.8742	0.7335
833.041	0.1544
833.2077	0.0467
833.3744	-0.0764
833.541	0.0118
833.7077	-0.0717
833.8743	0.0655
834.0409	0.0051
834.2075	0.0362
834.3741	-0.1603
834.5407	-0.0682
834.7072	0.0442
834.8737	0.1072
835.0402	0.3275
835.2067	0.0527
835.3731	-0.191
835.5395	-0.0729
835.706	-0.1974
835.8723	0.0809
836.0387	0.31
836.2051	0.4718
836.3714	0.0784
836.5377	0.0288
836.704	0.1473
836.8703	-0.2654
837.0365	-0.9658
837.2027	0.4342
837.3689	-0.0174
837.5351	-0.017
837.7013	-0.1937
837.8674	-0.3833
838.0335	-0.1537
838.1997	0.1265
838.3657	0.9684
838.5318	1.065
838.6978	0.307
838.8639	-0.1945
839.0299	-0.036
839.1958	0.0777
839.3618	-0.1505
839.5277	-0.0155
839.6937	-0.1141
839.8596	-0.1557
840.0254	0.0782
840.1913	0.0878
840.3571	-0.0856
840.523	-0
840.6888	0.0157
840.8545	-0.3812
841.0203	-0.0027
841.186	-0.1465
841.3517	-0.2299
841.5174	0.3596
841.6831	0.8651
841.8488	-0.059
842.0144	-0.0591
842.18	0.0576
842.3456	-0.5445
842.5112	-0
842.6767	-0.1372
842.8422	0.0942
843.0077	-0.1109
843.1732	-0.443
843.3387	0.6054
843.5042	-0.1616
843.6696	-0.3705
843.835	0.0463
844.0004	-0.2286
844.1657	-1.0068
844.3311	0.3424
844.4964	-0.0246
844.6617	1.2861
844.827	1.0719
844.9923	0.0123
845.1575	-0.3001
845.3227	-0.5694
845.4879	0.11
845.6531	-0.1556
845.8183	0.6328
845.9834	-0
846.1485	0.4737
846.3136	0.2511
846.4787	-0
846.6438	-0.0562
846.8088	0.2399
846.9738	-1.0024
847.1388	0.0855
847.3038	-0.0975
847.4687	0.2598
847.6337	-0.2782
847.7986	-0.0953
847.9635	-0.0645
848.1284	-0
848.2932	-0.1363
848.458	-0
848.6228	0.0437
848.7876	-0
848.9524	-0
849.1172	-1.8261
849.2819	-0
849.4466	-0
849.6113	0.5227
849.7759	-0.4512
849.9406	0.2399
850.1052	-0.9789
850.2698	-0
850.4344	-0.7544
850.599	0.0358
850.7635	0.2556
850.928	-0
851.0925	0.2842
851.257	0.0205
851.4215	2.5647
851.5859	0.2392
851.7503	-0
851.9147	-0
852.0791	0.05
852.2434	0.1414
852.4078	-0
852.5721	0.0332
852.7364	0.0993
852.9007	-0.0535
853.0649	-0
853.2291	0.1109
853.3934	-0
853.5575	-0.2706
853.7217	0.1901
853.8859	-0.3194
854.05	-0.4458
854.2141	0.3757
854.3782	-0.2461
854.5423	-0
854.7063	0.2688
854.8703	0.0968
855.0343	-0.2102
855.1983	0.1573
855.3623	-0.1964
855.5262	-0
855.6901	0.4731
855.854	0.2427
856.0179	-0.0656
856.1818	-0
856.3456	0.7929
856.5094	-0.499
856.6732	-0.3625
856.837	-0.7365
857.0008	-0
857.1645	0.6809
857.3282	-0.5444
857.4919	-0.055
857.6556	-0.4546
857.8192	-0.2355
857.9828	0.0801
858.1465	-0.3132
858.31	0.5965
858.4736	-0
858.6372	0.0118
858.8007	-0.1431
858.9642	0.0855
859.1277	0.6111
859.2911	-0.4614
859.4546	-1.5237
859.618	-0.012
859.7814	0.0599
859.9448	-0
860.1081	-0
860.2715	-1.6668
860.4348	0.0336
860.5981	0.2555
860.7614	-0
860.9246	-0.1906
861.0879	-0.0273
861.2511	-0
861.4143	-0
861.5774	-0.0578
861.7406	-0.0822
861.9037	-0
862.0668	-0.2971
862.2299	-0.1246
862.393	-0
862.556	-0.1147
862.7191	-0.4709
862.8821	0.0723
863.0451	0.1423
863.208	-0.4922
863.371	-0.8798
863.5339	0.2539
863.6968	-0
863.8597	-0.088
864.0225	0.0329
864.1854	-0.0123
864.3482	-0.5461
864.511	0.0687
864.6737	-0.1007
864.8365	0.4628
864.9992	-0
865.1619	-0.1514
865.3246	-1.9355
865.4873	-0.4008
865.65	2.6767
865.8126	-0
865.9752	0.0667
866.1378	0.7626
866.3004	0.75
866.4629	-1.8881
866.6254	0.5748
866.7879	-0
866.9504	-0.4281
867.1129	0.0152
867.2753	-0.1955
867.4377	-0.2348
867.6001	-0.4884
867.7625	-0.216
867.9249	-0
868.0872	0.2497
868.2495	-0
868.4118	-0
868.5741	-0
868.7363	-0.9704
868.8986	-0
869.0608	-0
869.223	-0.6385
869.3851	-0
869.5473	-0.183
869.7094	-0
869.8715	-1.1366
870.0336	-0.0952
870.1957	0.0687
870.3577	0.2965
870.5197	0.0539
870.6817	-1.0628
870.8437	0.9016
871.0057	0.8023
871.1676	0.2063
871.3295	-0
871.4914	-0
871.6533	-0
871.8151	0.282
871.977	1.1579
872.1388	-0
872.3006	-0.3927
872.4623	-0.9883
872.6241	-0
872.7858	0.0072
872.9475	-0
873.1092	0.1553
873.2709	0.9877
873.4325	-0
873.5941	-0
873.7557	0.6869
873.9173	0.2647
874.0789	0.3861
874.2404	-0
874.4019	-0.0929
874.5634	-0
874.7249	-0
874.8863	-0
875.0478	-0.28
875.2092	0.5624
875.3706	-0
875.5319	-0.0788
875.6933	0.5272
875.8546	-0
876.0159	0.604
876.1772	-0.3625
876.3385	1.2325
876.4997	0.1966
876.6609	-0.0438
876.8221	-0
876.9833	0.1487
877.1445	0.2438
877.3056	-0
877.4667	-0
877.6278	-0
877.7889	-0
877.9499	-0
878.111	-0.3424
878.272	-0
878.433	0.1941
878.5939	-0.2335
878.7549	-0
878.9158	0.2546
879.0767	0.471
879.2376	-0.6085
879.3984	0.1235
879.5593	0.4545
879.7201	-0.5528
879.8809	1.1849
880.0417	-0.3698
880.2024	0.0234
880.3632	0.4528
880.5239	-0.0925
880.6846	-0.7994
880.8452	0.2956
881.0059	-0
881.1665	-0.1608
881.3271	0.5456
881.4877	0.1757
881.6483	-0
881.8088	-0
881.9693	-0
882.1298	-0
882.2903	-0
