Data from D4ACN5uM420nmA_Absorbance_14-37-09-987.txt Node
Date: Fri Feb 21 14:37:09 GMT 2025
User: LASERRRRR
Spectrometer: FLMT03099
Trigger mode: 0
Integration Time (sec): 1.500000E-2
Scans to average: 1
Electric dark correction enabled: true
Nonlinearity correction enabled: false
Boxcar width: 0
XAxis mode: Wavelengths
Number of Pixels in Spectrum: 3648
>>>>>Begin Spectral Data<<<<<
179.3399	-0
179.5586	-0
179.7771	-0
179.9957	-0.2395
180.2143	-0
180.4329	-0.0794
180.6514	-0.7045
180.8699	0.2371
181.0885	-0
181.307	0.0199
181.5255	0.5553
181.744	1.0555
181.9625	-0
182.181	-0
182.3994	-0.5674
182.6179	-0
182.8363	-0
183.0547	0.0086
183.2732	0.1624
183.4916	0.3789
183.71	0.3081
183.9284	0.1679
184.1467	0.1701
184.3651	-0.0064
184.5835	0.1703
184.8018	0.2173
185.0201	0.3528
185.2385	0.3681
185.4568	0.1522
185.6751	0.1637
185.8934	0.2357
186.1117	0.0518
186.3299	0.3237
186.5482	0.2311
186.7664	0.0606
186.9847	0.2071
187.2029	0.1414
187.4211	-0.0298
187.6393	0.4104
187.8575	0.4031
188.0757	0.3288
188.2939	0.1702
188.512	0.232
188.7302	0.049
188.9483	0.9116
189.1665	0.386
189.3846	0.1633
189.6027	0.1112
189.8208	0.4347
190.0389	0.1413
190.257	0.1587
190.475	0.1268
190.6931	0.0774
190.9111	0.2154
191.1292	0.1449
191.3472	0.2014
191.5652	0.2859
191.7832	0.1061
192.0012	0.1816
192.2192	0.166
192.4371	0.1022
192.6551	0.2326
192.873	0.1396
193.091	0.167
193.3089	0.1129
193.5268	0.2589
193.7447	0.1647
193.9626	0.2181
194.1805	0.1652
194.3984	0.1835
194.6162	0.1822
194.8341	0.2937
195.0519	0.175
195.2697	0.2726
195.4875	0.3161
195.7054	0.264
195.9231	0.2546
196.1409	0.3713
196.3587	0.2727
196.5765	0.3419
196.7942	0.3383
197.012	0.3462
197.2297	0.296
197.4474	0.4396
197.6651	0.2624
197.8828	0.3525
198.1005	0.4479
198.3182	0.363
198.5358	0.4191
198.7535	0.4008
198.9711	0.3896
199.1888	0.3576
199.4064	0.3903
199.624	0.3593
199.8416	0.3258
200.0592	0.3841
200.2767	0.3585
200.4943	0.3938
200.7119	0.3531
200.9294	0.3751
201.1469	0.3698
201.3645	0.4435
201.582	0.3938
201.7995	0.4205
202.017	0.4081
202.2344	0.4117
202.4519	0.4046
202.6694	0.3592
202.8868	0.3744
203.1042	0.4247
203.3217	0.4094
203.5391	0.3891
203.7565	0.3423
203.9739	0.3619
204.1913	0.3444
204.4086	0.3576
204.626	0.3561
204.8433	0.3483
205.0607	0.341
205.278	0.364
205.4953	0.3614
205.7126	0.3587
205.9299	0.3214
206.1472	0.3106
206.3644	0.3332
206.5817	0.339
206.7989	0.3331
207.0162	0.322
207.2334	0.3226
207.4506	0.3103
207.6678	0.3138
207.885	0.2925
208.1022	0.2916
208.3194	0.2921
208.5365	0.2845
208.7537	0.2815
208.9708	0.2954
209.1879	0.2724
209.405	0.2786
209.6222	0.2686
209.8392	0.2828
210.0563	0.2607
210.2734	0.2476
210.4905	0.2575
210.7075	0.284
210.9245	0.2712
211.1416	0.2713
211.3586	0.2726
211.5756	0.2312
211.7926	0.2548
212.0096	0.263
212.2265	0.2466
212.4435	0.2435
212.6604	0.2526
212.8774	0.2501
213.0943	0.2467
213.3112	0.2456
213.5281	0.2379
213.745	0.2354
213.9619	0.2422
214.1788	0.2604
214.3956	0.2289
214.6125	0.2391
214.8293	0.2552
215.0461	0.2225
215.2629	0.2313
215.4798	0.2375
215.6965	0.2358
215.9133	0.2193
216.1301	0.2047
216.3469	0.2361
216.5636	0.2431
216.7803	0.2213
216.9971	0.2621
217.2138	0.2462
217.4305	0.2325
217.6472	0.2337
217.8639	0.241
218.0805	0.241
218.2972	0.2373
218.5138	0.2303
218.7305	0.2408
218.9471	0.2343
219.1637	0.26
219.3803	0.25
219.5969	0.231
219.8135	0.2428
220.0301	0.2378
220.2466	0.2553
220.4632	0.2466
220.6797	0.2414
220.8962	0.2511
221.1127	0.2592
221.3292	0.2664
221.5457	0.2713
221.7622	0.2494
221.9787	0.2835
222.1951	0.2647
222.4116	0.2621
222.628	0.2789
222.8444	0.2639
223.0608	0.2803
223.2772	0.2846
223.4936	0.2684
223.71	0.2864
223.9264	0.2707
224.1427	0.2765
224.3591	0.2819
224.5754	0.282
224.7917	0.2825
225.008	0.2916
225.2243	0.2889
225.4406	0.2784
225.6569	0.3049
225.8732	0.3039
226.0894	0.3127
226.3057	0.2932
226.5219	0.3062
226.7381	0.3172
226.9543	0.3109
227.1705	0.3068
227.3867	0.3137
227.6029	0.3276
227.8191	0.3434
228.0352	0.3373
228.2513	0.3449
228.4675	0.3371
228.6836	0.3343
228.8997	0.3398
229.1158	0.3498
229.3319	0.3555
229.548	0.3539
229.764	0.3536
229.9801	0.3625
230.1961	0.3747
230.4121	0.3694
230.6282	0.3825
230.8442	0.3834
231.0602	0.3868
231.2761	0.392
231.4921	0.3806
231.7081	0.3933
231.924	0.4127
232.14	0.412
232.3559	0.4083
232.5718	0.4123
232.7877	0.4078
233.0036	0.4147
233.2195	0.4122
233.4353	0.418
233.6512	0.4191
233.867	0.4231
234.0829	0.4238
234.2987	0.4375
234.5145	0.4365
234.7303	0.435
234.9461	0.4409
235.1619	0.4437
235.3776	0.4365
235.5934	0.4391
235.8091	0.4434
236.0249	0.4476
236.2406	0.4388
236.4563	0.4446
236.672	0.4409
236.8877	0.4517
237.1034	0.4467
237.319	0.4521
237.5347	0.4528
237.7503	0.4409
237.966	0.4576
238.1816	0.4524
238.3972	0.4464
238.6128	0.4668
238.8284	0.4614
239.0439	0.4581
239.2595	0.4585
239.475	0.4587
239.6906	0.4614
239.9061	0.4602
240.1216	0.4786
240.3371	0.4589
240.5526	0.4657
240.7681	0.4621
240.9836	0.4608
241.199	0.4621
241.4145	0.4534
241.6299	0.4577
241.8453	0.4492
242.0607	0.4452
242.2761	0.4484
242.4915	0.4416
242.7069	0.4261
242.9223	0.4292
243.1376	0.4252
243.353	0.413
243.5683	0.4053
243.7836	0.4022
243.9989	0.3895
244.2142	0.3919
244.4295	0.3827
244.6448	0.3898
244.86	0.3707
245.0753	0.363
245.2905	0.3636
245.5057	0.3499
245.721	0.3543
245.9362	0.3444
246.1514	0.3402
246.3665	0.3297
246.5817	0.308
246.7969	0.3153
247.012	0.3056
247.2271	0.306
247.4423	0.2985
247.6574	0.2911
247.8725	0.2819
248.0876	0.2779
248.3026	0.2794
248.5177	0.2625
248.7328	0.2601
248.9478	0.2653
249.1628	0.2544
249.3779	0.2436
249.5929	0.248
249.8079	0.247
250.0228	0.2387
250.2378	0.2378
250.4528	0.2368
250.6677	0.2302
250.8827	0.2156
251.0976	0.2273
251.3125	0.2239
251.5274	0.2168
251.7423	0.2114
251.9572	0.2108
252.172	0.2164
252.3869	0.2105
252.6017	0.2041
252.8166	0.2076
253.0314	0.1982
253.2462	0.1989
253.461	0.1948
253.6758	0.1983
253.8906	0.1936
254.1053	0.1914
254.3201	0.1914
254.5348	0.186
254.7496	0.1827
254.9643	0.1948
255.179	0.1951
255.3937	0.1909
255.6083	0.1975
255.823	0.1945
256.0377	0.186
256.2523	0.1826
256.467	0.1888
256.6816	0.184
256.8962	0.1822
257.1108	0.188
257.3254	0.1872
257.54	0.1827
257.7545	0.1864
257.9691	0.1851
258.1836	0.1753
258.3981	0.1778
258.6127	0.1818
258.8272	0.1828
259.0417	0.1799
259.2561	0.1805
259.4706	0.1798
259.6851	0.1811
259.8995	0.1871
260.114	0.1828
260.3284	0.179
260.5428	0.182
260.7572	0.1789
260.9716	0.1851
261.186	0.1837
261.4003	0.1825
261.6147	0.1837
261.829	0.1846
262.0433	0.1793
262.2577	0.1839
262.472	0.1858
262.6863	0.193
262.9005	0.1864
263.1148	0.1857
263.3291	0.1883
263.5433	0.1877
263.7576	0.1883
263.9718	0.195
264.186	0.1998
264.4002	0.1916
264.6144	0.2006
264.8286	0.202
265.0427	0.1992
265.2569	0.2003
265.471	0.2003
265.6851	0.2018
265.8993	0.1953
266.1134	0.2031
266.3275	0.1928
266.5415	0.2016
266.7556	0.1992
266.9697	0.2069
267.1837	0.1973
267.3978	0.2044
267.6118	0.1931
267.8258	0.2056
268.0398	0.2022
268.2538	0.2012
268.4677	0.2004
268.6817	0.1988
268.8957	0.2005
269.1096	0.1964
269.3235	0.1935
269.5374	0.1984
269.7514	0.1973
269.9652	0.1963
270.1791	0.1898
270.393	0.1982
270.6068	0.1965
270.8207	0.1943
271.0345	0.1928
271.2483	0.1894
271.4622	0.1927
271.676	0.2006
271.8897	0.1897
272.1035	0.2046
272.3173	0.1928
272.531	0.1947
272.7448	0.198
272.9585	0.1937
273.1722	0.1988
273.3859	0.2023
273.5996	0.1993
273.8133	0.2013
274.0269	0.1995
274.2406	0.2036
274.4542	0.2027
274.6679	0.2096
274.8815	0.2112
275.0951	0.2154
275.3087	0.2165
275.5223	0.2109
275.7358	0.2171
275.9494	0.2159
276.1629	0.2181
276.3765	0.211
276.59	0.2152
276.8035	0.2159
277.017	0.2218
277.2305	0.2195
277.444	0.2162
277.6574	0.2204
277.8709	0.2228
278.0843	0.2233
278.2978	0.2241
278.5112	0.2209
278.7246	0.2189
278.938	0.2166
279.1513	0.2181
279.3647	0.218
279.5781	0.2123
279.7914	0.2084
280.0047	0.2143
280.2181	0.2114
280.4314	0.2108
280.6447	0.2079
280.8579	0.2039
281.0712	0.2038
281.2845	0.207
281.4977	0.2039
281.711	0.1984
281.9242	0.204
282.1374	0.201
282.3506	0.2019
282.5638	0.2005
282.7769	0.1942
282.9901	0.2023
283.2033	0.1922
283.4164	0.1931
283.6295	0.1942
283.8426	0.19
284.0557	0.1906
284.2688	0.1911
284.4819	0.1899
284.695	0.1949
284.908	0.194
285.1211	0.1893
285.3341	0.1896
285.5471	0.1925
285.7601	0.1912
285.9731	0.1902
286.1861	0.1915
286.3991	0.1955
286.612	0.1885
286.825	0.1908
287.0379	0.1854
287.2508	0.1897
287.4637	0.1897
287.6766	0.1846
287.8895	0.1872
288.1024	0.1853
288.3152	0.1854
288.5281	0.1802
288.7409	0.1914
288.9538	0.19
289.1666	0.1854
289.3794	0.1854
289.5922	0.1813
289.8049	0.1895
290.0177	0.1865
290.2304	0.1856
290.4432	0.1897
290.6559	0.1847
290.8686	0.1869
291.0813	0.1861
291.294	0.1852
291.5067	0.1821
291.7194	0.1831
291.932	0.1843
292.1447	0.187
292.3573	0.1863
292.5699	0.1886
292.7825	0.1804
292.9951	0.1787
293.2077	0.1849
293.4203	0.1825
293.6328	0.1799
293.8454	0.1822
294.0579	0.1822
294.2704	0.1869
294.4829	0.1839
294.6954	0.1858
294.9079	0.1834
295.1204	0.1789
295.3328	0.1888
295.5453	0.1861
295.7577	0.1842
295.9701	0.1811
296.1825	0.1815
296.3949	0.1795
296.6073	0.182
296.8197	0.183
297.0321	0.1882
297.2444	0.181
297.4567	0.1825
297.6691	0.1866
297.8814	0.1844
298.0937	0.1808
298.306	0.1787
298.5182	0.1861
298.7305	0.1829
298.9428	0.1795
299.155	0.1801
299.3672	0.1824
299.5794	0.1834
299.7916	0.1828
300.0038	0.1831
300.216	0.18
300.4282	0.1854
300.6403	0.1879
300.8525	0.1841
301.0646	0.1833
301.2767	0.1798
301.4888	0.1845
301.7009	0.1857
301.913	0.183
302.125	0.1809
302.3371	0.1805
302.5491	0.1914
302.7612	0.1853
302.9732	0.1918
303.1852	0.1848
303.3972	0.1831
303.6092	0.186
303.8211	0.1848
304.0331	0.186
304.245	0.1822
304.457	0.1819
304.6689	0.1883
304.8808	0.1776
305.0927	0.185
305.3046	0.1784
305.5164	0.1767
305.7283	0.182
305.9401	0.1703
306.152	0.1782
306.3638	0.1787
306.5756	0.178
306.7874	0.1679
306.9992	0.1728
307.2109	0.174
307.4227	0.1699
307.6344	0.1756
307.8462	0.1719
308.0579	0.172
308.2696	0.1705
308.4813	0.1761
308.693	0.1605
308.9046	0.1664
309.1163	0.1644
309.328	0.1643
309.5396	0.1633
309.7512	0.1629
309.9628	0.1615
310.1744	0.1558
310.386	0.1549
310.5976	0.1576
310.8091	0.1519
311.0207	0.1603
311.2322	0.1577
311.4437	0.1574
311.6552	0.156
311.8667	0.1534
312.0782	0.1553
312.2897	0.1587
312.5012	0.1568
312.7126	0.1494
312.924	0.1536
313.1355	0.1496
313.3469	0.1561
313.5583	0.1509
313.7696	0.1476
313.981	0.153
314.1924	0.1456
314.4037	0.1485
314.6151	0.1507
314.8264	0.151
315.0377	0.1503
315.249	0.1468
315.4603	0.1437
315.6716	0.1485
315.8828	0.1484
316.0941	0.1458
316.3053	0.143
316.5165	0.149
316.7277	0.1475
316.9389	0.1469
317.1501	0.1498
317.3613	0.1444
317.5724	0.1439
317.7836	0.1431
317.9947	0.1462
318.2058	0.1429
318.417	0.141
318.6281	0.1478
318.8391	0.1485
319.0502	0.1408
319.2613	0.1419
319.4723	0.1418
319.6834	0.1459
319.8944	0.1448
320.1054	0.1487
320.3164	0.138
320.5274	0.1443
320.7383	0.1443
320.9493	0.1474
321.1602	0.1436
321.3712	0.1426
321.5821	0.1394
321.793	0.1547
322.0039	0.1467
322.2148	0.1454
322.4257	0.1436
322.6365	0.1362
322.8474	0.1455
323.0582	0.1486
323.269	0.1457
323.4798	0.1488
323.6906	0.1426
323.9014	0.1452
324.1122	0.1466
324.3229	0.1458
324.5337	0.148
324.7444	0.1458
324.9551	0.1511
325.1658	0.1511
325.3765	0.1516
325.5872	0.1497
325.7979	0.1504
326.0085	0.1528
326.2192	0.152
326.4298	0.1553
326.6404	0.1581
326.851	0.1504
327.0616	0.1591
327.2722	0.1506
327.4828	0.15
327.6933	0.1604
327.9039	0.1521
328.1144	0.1577
328.3249	0.156
328.5354	0.1516
328.7459	0.1593
328.9564	0.1547
329.1669	0.1612
329.3773	0.1594
329.5878	0.1622
329.7982	0.1687
330.0086	0.1604
330.219	0.1592
330.4294	0.1615
330.6398	0.1695
330.8502	0.1623
331.0605	0.1646
331.2708	0.1634
331.4812	0.1609
331.6915	0.1654
331.9018	0.1647
332.1121	0.1717
332.3224	0.1681
332.5326	0.1616
332.7429	0.1725
332.9531	0.1658
333.1633	0.1644
333.3735	0.1612
333.5837	0.1681
333.7939	0.1628
334.0041	0.1625
334.2143	0.1604
334.4244	0.1638
334.6346	0.1646
334.8447	0.1607
335.0548	0.1652
335.2649	0.1634
335.475	0.1668
335.685	0.1637
335.8951	0.1538
336.1051	0.1633
336.3152	0.1615
336.5252	0.1579
336.7352	0.1552
336.9452	0.1642
337.1552	0.1648
337.3652	0.1569
337.5751	0.1634
337.7851	0.1611
337.995	0.1652
338.2049	0.1582
338.4148	0.1624
338.6247	0.1595
338.8346	0.1631
339.0445	0.1562
339.2543	0.1597
339.4642	0.1596
339.674	0.1548
339.8838	0.1624
340.0936	0.1602
340.3034	0.1548
340.5132	0.1661
340.7229	0.1644
340.9327	0.1747
341.1424	0.1679
341.3522	0.1535
341.5619	0.1691
341.7716	0.169
341.9813	0.1725
342.1909	0.1699
342.4006	0.1656
342.6102	0.1677
342.8199	0.1692
343.0295	0.1607
343.2391	0.172
343.4487	0.1653
343.6583	0.1826
343.8679	0.1656
344.0774	0.1622
344.287	0.1797
344.4965	0.1695
344.706	0.1793
344.9155	0.1678
345.125	0.1793
345.3345	0.1884
345.544	0.1821
345.7534	0.18
345.9629	0.1844
346.1723	0.1881
346.3817	0.1882
346.5911	0.1897
346.8005	0.1847
347.0099	0.1872
347.2193	0.1906
347.4286	0.1916
347.638	0.1867
347.8473	0.1966
348.0566	0.1936
348.2659	0.1964
348.4752	0.1908
348.6845	0.194
348.8937	0.1915
349.103	0.1948
349.3122	0.1967
349.5214	0.1908
349.7306	0.2047
349.9398	0.2007
350.149	0.1911
350.3582	0.2001
350.5674	0.2034
350.7765	0.2024
350.9856	0.1895
351.1948	0.1924
351.4039	0.1974
351.613	0.1935
351.822	0.204
352.0311	0.1938
352.2402	0.1931
352.4492	0.1912
352.6582	0.1963
352.8672	0.1919
353.0762	0.1918
353.2852	0.1996
353.4942	0.1942
353.7032	0.1875
353.9121	0.1841
354.1211	0.1935
354.33	0.1883
354.5389	0.1921
354.7478	0.1871
354.9567	0.189
355.1655	0.1868
355.3744	0.1938
355.5833	0.1893
355.7921	0.1955
356.0009	0.1945
356.2097	0.184
356.4185	0.1838
356.6273	0.1926
356.8361	0.1882
357.0448	0.1848
357.2536	0.1867
357.4623	0.1942
357.671	0.1855
357.8797	0.1891
358.0884	0.1894
358.2971	0.1817
358.5057	0.1994
358.7144	0.185
358.923	0.1899
359.1316	0.1905
359.3402	0.1885
359.5488	0.1834
359.7574	0.1969
359.966	0.1928
360.1746	0.1785
360.3831	0.1953
360.5916	0.1865
360.8002	0.1945
361.0087	0.1927
361.2172	0.1963
361.4256	0.1873
361.6341	0.2046
361.8426	0.1941
362.051	0.1957
362.2594	0.1964
362.4678	0.1939
362.6762	0.1971
362.8846	0.1988
363.093	0.2001
363.3014	0.1973
363.5097	0.1972
363.718	0.1969
363.9264	0.2026
364.1347	0.2016
364.343	0.1973
364.5513	0.2027
364.7595	0.1982
364.9678	0.1975
365.176	0.2071
365.3842	0.2096
365.5925	0.1973
365.8007	0.2072
366.0089	0.2073
366.217	0.2062
366.4252	0.2054
366.6333	0.2088
366.8415	0.21
367.0496	0.1989
367.2577	0.216
367.4658	0.204
367.6739	0.2038
367.882	0.2112
368.09	0.2071
368.2981	0.2057
368.5061	0.2113
368.7141	0.2111
368.9221	0.2156
369.1301	0.2135
369.3381	0.2183
369.5461	0.2084
369.754	0.2099
369.962	0.2112
370.1699	0.2203
370.3778	0.2261
370.5857	0.2174
370.7936	0.2204
371.0015	0.212
371.2093	0.2178
371.4172	0.2134
371.625	0.2205
371.8328	0.2127
372.0406	0.228
372.2484	0.214
372.4562	0.22
372.664	0.2178
372.8717	0.2226
373.0795	0.2249
373.2872	0.2311
373.4949	0.2288
373.7026	0.2235
373.9103	0.2172
374.118	0.2254
374.3256	0.224
374.5333	0.2265
374.7409	0.2259
374.9485	0.222
375.1561	0.2278
375.3637	0.2249
375.5713	0.229
375.7789	0.2272
375.9864	0.2226
376.194	0.2345
376.4015	0.2327
376.609	0.2221
376.8165	0.235
377.024	0.2339
377.2315	0.2313
377.4389	0.2259
377.6464	0.2414
377.8538	0.2281
378.0612	0.2441
378.2686	0.2385
378.476	0.2423
378.6834	0.2379
378.8908	0.2412
379.0981	0.2416
379.3055	0.2407
379.5128	0.2353
379.7201	0.2398
379.9274	0.236
380.1347	0.2401
380.342	0.2437
380.5492	0.2424
380.7565	0.2378
380.9637	0.2469
381.1709	0.2397
381.3781	0.2444
381.5853	0.2423
381.7925	0.2378
381.9997	0.2451
382.2068	0.2381
382.4139	0.2454
382.6211	0.2389
382.8282	0.2507
383.0353	0.2504
383.2424	0.2479
383.4494	0.2557
383.6565	0.2395
383.8635	0.2427
384.0706	0.2524
384.2776	0.2462
384.4846	0.2455
384.6916	0.2474
384.8986	0.26
385.1055	0.2532
385.3125	0.2477
385.5194	0.2523
385.7263	0.2435
385.9333	0.2581
386.1402	0.2468
386.347	0.2449
386.5539	0.2491
386.7608	0.2466
386.9676	0.2458
387.1744	0.2554
387.3813	0.248
387.5881	0.236
387.7948	0.2562
388.0016	0.2583
388.2084	0.2498
388.4151	0.2433
388.6219	0.2451
388.8286	0.2464
389.0353	0.2385
389.242	0.2432
389.4487	0.2345
389.6553	0.2271
389.862	0.2311
390.0686	0.2454
390.2753	0.2337
390.4819	0.2397
390.6885	0.2482
390.8951	0.2451
391.1016	0.2319
391.3082	0.2394
391.5147	0.2322
391.7213	0.2324
391.9278	0.2236
392.1343	0.2342
392.3408	0.2304
392.5473	0.2337
392.7537	0.228
392.9602	0.2228
393.1666	0.2335
393.373	0.2219
393.5794	0.2193
393.7858	0.231
393.9922	0.2156
394.1986	0.2285
394.4049	0.2195
394.6113	0.2271
394.8176	0.2293
395.0239	0.214
395.2302	0.2189
395.4365	0.2244
395.6428	0.222
395.8491	0.2168
396.0553	0.2056
396.2615	0.2163
396.4678	0.2234
396.674	0.2109
396.8802	0.2174
397.0863	0.2135
397.2925	0.2113
397.4987	0.2114
397.7048	0.2122
397.9109	0.209
398.117	0.2063
398.3231	0.2021
398.5292	0.2023
398.7353	0.2048
398.9413	0.2127
399.1474	0.2086
399.3534	0.2132
399.5594	0.2136
399.7654	0.2006
399.9714	0.2101
400.1774	0.2097
400.3833	0.2139
400.5893	0.206
400.7952	0.2118
401.0011	0.2169
401.207	0.2102
401.4129	0.2088
401.6188	0.2074
401.8247	0.2123
402.0305	0.2031
402.2364	0.2109
402.4422	0.2092
402.648	0.2066
402.8538	0.2086
403.0596	0.2029
403.2654	0.2135
403.4711	0.2008
403.6768	0.2147
403.8826	0.2146
404.0883	0.1997
404.294	0.2087
404.4997	0.2031
404.7054	0.2102
404.911	0.2016
405.1167	0.2075
405.3223	0.2043
405.5279	0.2078
405.7335	0.2114
405.9391	0.1995
406.1447	0.2164
406.3502	0.2039
406.5558	0.2089
406.7613	0.2016
406.9668	0.2037
407.1724	0.2022
407.3778	0.2092
407.5833	0.2006
407.7888	0.1981
407.9942	0.2025
408.1997	0.2068
408.4051	0.2079
408.6105	0.2048
408.8159	0.2099
409.0213	0.2018
409.2267	0.2104
409.432	0.1974
409.6374	0.2033
409.8427	0.2058
410.048	0.2081
410.2533	0.2073
410.4586	0.1953
410.6639	0.206
410.8691	0.2005
411.0744	0.2072
411.2796	0.2106
411.4848	0.1998
411.69	0.1955
411.8952	0.2013
412.1004	0.2058
412.3056	0.1979
412.5107	0.1982
412.7158	0.1974
412.921	0.2041
413.1261	0.1917
413.3312	0.2156
413.5362	0.2097
413.7413	0.2003
413.9464	0.1938
414.1514	0.201
414.3564	0.1972
414.5614	0.1934
414.7664	0.1922
414.9714	0.1938
415.1764	0.1999
415.3813	0.1943
415.5863	0.212
415.7912	0.1992
415.9961	0.2015
416.201	0.2088
416.4059	0.1973
416.6108	0.2047
416.8156	0.1951
417.0205	0.1954
417.2253	0.2003
417.4301	0.2019
417.6349	0.1946
417.8397	0.1968
418.0445	0.1977
418.2492	0.1968
418.454	0.1897
418.6587	0.2028
418.8634	0.1898
419.0681	0.1955
419.2728	0.1938
419.4775	0.207
419.6822	0.1864
419.8868	0.1833
420.0915	0.1899
420.2961	0.1844
420.5007	0.1978
420.7053	0.1886
420.9099	0.188
421.1144	0.1828
421.319	0.1843
421.5235	0.1843
421.728	0.1903
421.9325	0.1798
422.137	0.1828
422.3415	0.1731
422.546	0.189
422.7504	0.1863
422.9549	0.19
423.1593	0.177
423.3637	0.1799
423.5681	0.1867
423.7725	0.1833
423.9769	0.1813
424.1812	0.1731
424.3856	0.1758
424.5899	0.1749
424.7942	0.1785
424.9985	0.1732
425.2028	0.1834
425.4071	0.1843
425.6113	0.1737
425.8156	0.1758
426.0198	0.1709
426.224	0.1755
426.4282	0.1738
426.6324	0.1712
426.8366	0.1688
427.0407	0.1633
427.2449	0.1718
427.449	0.1618
427.6531	0.1676
427.8572	0.1672
428.0613	0.1651
428.2654	0.1705
428.4694	0.1479
428.6735	0.1565
428.8775	0.1668
429.0815	0.1619
429.2855	0.1539
429.4895	0.1581
429.6935	0.1511
429.8975	0.1467
430.1014	0.155
430.3053	0.1606
430.5093	0.1472
430.7132	0.1465
430.9171	0.147
431.1209	0.1507
431.3248	0.134
431.5286	0.1441
431.7325	0.1516
431.9363	0.139
432.1401	0.1422
432.3439	0.1404
432.5477	0.1265
432.7514	0.1309
432.9552	0.1381
433.1589	0.1323
433.3627	0.1327
433.5664	0.1248
433.7701	0.1373
433.9737	0.1334
434.1774	0.1291
434.3811	0.1196
434.5847	0.129
434.7883	0.1337
434.9919	0.1214
435.1955	0.1223
435.3991	0.1172
435.6027	0.1084
435.8062	0.1354
436.0098	0.1109
436.2133	0.1223
436.4168	0.113
436.6203	0.1113
436.8238	0.1016
437.0272	0.1131
437.2307	0.1082
437.4341	0.1061
437.6375	0.112
437.841	0.0995
438.0443	0.117
438.2477	0.0981
438.4511	0.0973
438.6545	0.1051
438.8578	0.1053
439.0611	0.1014
439.2644	0.0988
439.4677	0.1007
439.671	0.0846
439.8743	0.0965
440.0775	0.0915
440.2808	0.0849
440.484	0.0846
440.6872	0.0912
440.8904	0.0835
441.0936	0.0905
441.2967	0.0828
441.4999	0.0847
441.703	0.078
441.9062	0.0788
442.1093	0.0902
442.3124	0.0752
442.5155	0.077
442.7185	0.0741
442.9216	0.0743
443.1246	0.0713
443.3276	0.079
443.5307	0.0654
443.7337	0.0718
443.9366	0.067
444.1396	0.068
444.3426	0.065
444.5455	0.0695
444.7484	0.0632
444.9513	0.0673
445.1542	0.0604
445.3571	0.0685
445.56	0.0517
445.7628	0.057
445.9657	0.066
446.1685	0.0629
446.3713	0.0704
446.5741	0.0597
446.7769	0.0566
446.9797	0.061
447.1824	0.0535
447.3852	0.0481
447.5879	0.0484
447.7906	0.0504
447.9933	0.055
448.196	0.0445
448.3986	0.0373
448.6013	0.0384
448.8039	0.0457
449.0066	0.0546
449.2092	0.0545
449.4118	0.0435
449.6143	0.0482
449.8169	0.0456
450.0195	0.0437
450.222	0.0395
450.4245	0.0465
450.627	0.0411
450.8295	0.0403
451.032	0.0375
451.2345	0.0435
451.4369	0.0403
451.6394	0.0384
451.8418	0.0373
452.0442	0.0405
452.2466	0.0274
452.449	0.0358
452.6513	0.0298
452.8537	0.0278
453.056	0.0333
453.2583	0.0267
453.4607	0.0206
453.663	0.0224
453.8652	0.0283
454.0675	0.0353
454.2697	0.0297
454.472	0.0276
454.6742	0.0316
454.8764	0.0398
455.0786	0.0252
455.2808	0.0183
455.4829	0.0335
455.6851	0.0229
455.8872	0.0228
456.0893	0.016
456.2915	0.0182
456.4935	0.0316
456.6956	0.0262
456.8977	0.0211
457.0997	0.0267
457.3018	0.0174
457.5038	0.0293
457.7058	0.0277
457.9078	0.0238
458.1098	0.0249
458.3117	0.0196
458.5137	0.0118
458.7156	0.0256
458.9175	0.0229
459.1194	0.0131
459.3213	0.0144
459.5232	0.0245
459.725	0.015
459.9269	0.0148
460.1287	0.0123
460.3305	0.0241
460.5323	0.021
460.7341	0.0221
460.9359	0.0193
461.1376	0.0161
461.3394	0.0207
461.5411	0.0191
461.7428	0.0179
461.9445	0.015
462.1462	0.0245
462.3479	0.0139
462.5495	0.0237
462.7512	0.0195
462.9528	0.0174
463.1544	0.0123
463.356	0.0186
463.5576	0.0204
463.7592	0.016
463.9607	0.0152
464.1623	0.0078
464.3638	0.0095
464.5653	0.0142
464.7668	0.0155
464.9683	0.009
465.1697	0.0124
465.3712	0.0073
465.5726	0.0123
465.7741	0.0232
465.9755	0.0034
466.1769	0.0107
466.3782	0.0093
466.5796	0.0178
466.7809	0.0169
466.9823	0.0074
467.1836	-0.0022
467.3849	0.0115
467.5862	0.0054
467.7875	0.0136
467.9887	0.018
468.19	0.0032
468.3912	0.0095
468.5924	0.0032
468.7936	0.0089
468.9948	0.0098
469.196	0.0089
469.3972	0.0022
469.5983	0.0112
469.7994	0.0124
470.0006	0.0081
470.2017	-0.0025
470.4027	0.0295
470.6038	0.0069
470.8049	0.0094
471.0059	0.0224
471.2069	0.0133
471.408	0.0103
471.6089	0.0102
471.8099	0.0111
472.0109	0.0083
472.2119	0.0123
472.4128	0.004
472.6137	0.0126
472.8146	0.0083
473.0155	0.0133
473.2164	0.001
473.4173	0.0045
473.6181	0.0057
473.819	0.0073
474.0198	0.0044
474.2206	-0.0076
474.4214	0.0058
474.6222	-0.0008
474.8229	-0.0017
475.0237	0.0115
475.2244	0.0088
475.4251	0.009
475.6258	0.0051
475.8265	0.0002
476.0272	0.0039
476.2278	0.0093
476.4285	0.006
476.6291	0.0014
476.8297	0.0041
477.0303	-0.0051
477.2309	0.0112
477.4315	0.0023
477.632	0.002
477.8326	0.0087
478.0331	0.0099
478.2336	0.0141
478.4341	0.0119
478.6346	0.0038
478.8351	-0.001
479.0355	0.0121
479.236	0.0078
479.4364	0.0035
479.6368	0.0101
479.8372	0.0025
480.0376	0.0009
480.2379	0.008
480.4383	0.0136
480.6386	-0.0021
480.8389	0.0003
481.0392	0.0039
481.2395	0.0132
481.4398	0.0035
481.6401	0.0089
481.8403	-0.0001
482.0405	0.0054
482.2408	0.0107
482.441	0.0019
482.6411	0.006
482.8413	0.0039
483.0415	0.0053
483.2416	0.005
483.4417	-0.0004
483.6419	0.0004
483.8419	0.0043
484.042	0.0038
484.2421	0.0019
484.4422	0
484.6422	0.0063
484.8422	0.005
485.0422	0.0067
485.2422	0.0078
485.4422	0.0064
485.6422	0.0056
485.8421	0.0063
486.042	0.0153
486.242	0.0042
486.4419	0.009
486.6417	0.0041
486.8416	0.0078
487.0415	0.0038
487.2413	0.002
487.4411	0.0087
487.641	-0.0008
487.8408	0.0036
488.0405	0.0084
488.2403	0.0036
488.4401	0.0013
488.6398	0.0057
488.8395	0.0043
489.0392	0.0016
489.2389	-0.0012
489.4386	-0.0015
489.6383	0.0026
489.8379	-0.0046
490.0376	0.0052
490.2372	0.0054
490.4368	0.001
490.6364	-0.0055
490.836	-0.005
491.0355	-0.0039
491.2351	0.0006
491.4346	0.0066
491.6341	-0.0055
491.8336	-0.003
492.0331	-0.004
492.2326	0.0017
492.432	0.0096
492.6315	0.0051
492.8309	0.0021
493.0303	0.0034
493.2297	0.0043
493.4291	-0.0042
493.6284	0.0137
493.8278	-0.0053
494.0271	0.0039
494.2264	-0.0022
494.4257	0.0052
494.625	-0.0022
494.8243	0.0001
495.0236	0.0082
495.2228	0.0043
495.422	0.001
495.6213	0.0063
495.8205	0.0044
496.0196	-0.0006
496.2188	-0.0018
496.418	0.0008
496.6171	-0.0012
496.8162	0.0005
497.0153	0.0079
497.2144	0.0011
497.4135	-0.0027
497.6126	0.0019
497.8116	-0.0027
498.0107	0.0028
498.2097	0.0017
498.4087	0.0002
498.6077	-0.0093
498.8067	-0
499.0056	0.0015
499.2046	0.0013
499.4035	0.0023
499.6024	-0.0015
499.8013	0.0036
500.0002	-0.0027
500.199	0.0036
500.3979	-0.0071
500.5967	-0.0056
500.7956	0.0017
500.9944	0.0026
501.1932	0.0129
501.3919	0.0088
501.5907	0.0042
501.7895	-0.0028
501.9882	-0.0062
502.1869	0.0056
502.3856	-0.0031
502.5843	0.0018
502.783	-0.008
502.9816	0.0026
503.1803	0.0029
503.3789	0.0049
503.5775	-0.0019
503.7761	-0.0032
503.9747	-0.0017
504.1732	-0.0039
504.3718	0.0109
504.5703	-0.0029
504.7689	-0.0045
504.9674	-0.0034
505.1658	-0.0028
505.3643	0.0102
505.5628	0.0011
505.7612	0.0043
505.9597	-0.0093
506.1581	-0.0013
506.3565	-0.0051
506.5549	-0.0065
506.7532	-0.0109
506.9516	0.0007
507.1499	0.0022
507.3482	-0.002
507.5465	0.0017
507.7448	-0.0047
507.9431	0.0055
508.1414	0.0046
508.3396	-0.0012
508.5379	-0.0027
508.7361	0.0051
508.9343	-0.0026
509.1325	0.0069
509.3306	-0.0027
509.5288	-0.0071
509.7269	0.007
509.9251	-0.0027
510.1232	0.0002
510.3213	-0.0019
510.5193	0.0003
510.7174	-0.0014
510.9154	0.0033
511.1135	-0.0042
511.3115	0.0035
511.5095	-0.0021
511.7075	-0.0048
511.9055	-0.0012
512.1034	-0.0084
512.3014	0.0051
512.4993	-0.0027
512.6972	-0.0026
512.8951	-0.0059
513.093	-0.0054
513.2908	0.0084
513.4887	-0.0022
513.6865	0.0025
513.8844	0.0004
514.0822	-0.0079
514.2799	-0.0075
514.4777	-0.0166
514.6755	0.0007
514.8732	-0.002
515.0709	-0.0055
515.2687	-0.0099
515.4664	0.0107
515.664	0.0011
515.8617	0.0107
516.0594	-0.0028
516.257	-0.0061
516.4546	0.0096
516.6522	0.0073
516.8498	0.002
517.0474	-0.0074
517.2449	-0.0065
517.4425	-0.0084
517.64	-0.0054
517.8375	0.0005
518.035	-0.0036
518.2325	-0.0069
518.43	-0.0108
518.6274	0
518.8249	-0.008
519.0223	0.0055
519.2197	-0.0016
519.4171	-0.01
519.6145	-0.0021
519.8118	-0.0102
520.0092	-0.0103
520.2065	0.0072
520.4038	-0.0017
520.6011	0.0038
520.7984	0.0036
520.9956	0
521.1929	0.0065
521.3901	0.0003
521.5874	0.003
521.7846	-0.015
521.9818	0.0047
522.1789	-0.0064
522.3761	0.0055
522.5732	-0.0066
522.7704	-0.0079
522.9675	-0.0074
523.1646	-0.0108
523.3617	0.005
523.5587	-0.0049
523.7558	0.0055
523.9528	0
524.1498	-0.0014
524.3468	-0.0072
524.5438	0.0046
524.7408	-0.0036
524.9378	0.0005
525.1347	-0.0015
525.3316	-0.0087
525.5285	-0.0063
525.7254	-0.0024
525.9223	0.0115
526.1192	-0.0056
526.316	-0.0008
526.5129	-0.0019
526.7097	-0.005
526.9065	-0.0025
527.1033	-0.0041
527.3	-0.0047
527.4968	0.0118
527.6935	-0.0049
527.8903	0.0021
528.087	-0.0006
528.2837	0.0059
528.4804	-0.0049
528.677	-0.0015
528.8737	0.0021
529.0703	-0.0011
529.2669	0.0079
529.4635	-0.0027
529.6601	-0.0045
529.8567	-0.011
530.0532	-0.0078
530.2498	-0.0161
530.4463	-0.012
530.6428	0.0001
530.8393	0.0141
531.0358	-0.0101
531.2322	-0.0085
531.4287	0.001
531.6251	-0.0047
531.8215	-0.0159
532.0179	0.0003
532.2143	0.0013
532.4107	0.0017
532.607	-0.0066
532.8034	-0.0084
532.9997	-0.0086
533.196	-0.0056
533.3923	-0.0002
533.5886	0.007
533.7848	-0.0048
533.9811	0.0079
534.1773	-0.0046
534.3735	0.0059
534.5697	-0.007
534.7659	0.0127
534.9621	0.009
535.1582	-0.001
535.3544	0.0094
535.5505	-0.0059
535.7466	0.0018
535.9427	-0.0061
536.1387	-0.0103
536.3348	0.0037
536.5308	-0.0042
536.7269	-0.0061
536.9229	-0.0052
537.1189	0.011
537.3148	-0.0031
537.5108	-0.0044
537.7068	0.0032
537.9027	-0.0125
538.0986	0.0003
538.2945	-0.0038
538.4904	-0.0043
538.6863	-0.001
538.8821	-0.0021
539.078	0.0048
539.2738	-0.0039
539.4696	-0.0058
539.6654	0.0038
539.8611	0.0068
540.0569	0.0028
540.2526	0.0061
540.4484	-0.0077
540.6441	-0.0011
540.8398	0.0036
541.0355	-0.0073
541.2311	-0.0038
541.4268	0.0072
541.6224	0.0085
541.818	0.0071
542.0136	0.0061
542.2092	0.0114
542.4048	0.0004
542.6003	-0.0002
542.7959	-0.001
542.9914	0.0051
543.1869	0.0009
543.3824	0.0005
543.5779	0.0056
543.7734	0.0172
543.9688	-0.0005
544.1642	0.0018
544.3596	0.0049
544.555	-0.0086
544.7504	0.0163
544.9458	0.0028
545.1411	-0.0017
545.3365	0.0023
545.5318	0.0034
545.7271	0.0016
545.9224	-0.0071
546.1177	-0.0039
546.3129	-0.0053
546.5081	0.0047
546.7034	0.0147
546.8986	0.0066
547.0938	0.0033
547.289	0.0045
547.4841	0.0092
547.6793	0.0052
547.8744	0.0101
548.0695	-0.0082
548.2646	0.0063
548.4597	0.0005
548.6548	0.0094
548.8498	0.0028
549.0448	-0.0037
549.2399	0.0041
549.4349	-0.0018
549.6298	-0.0006
549.8248	-0.0058
550.0198	-0.0009
550.2147	0.0034
550.4096	-0.0029
550.6045	-0.0035
550.7994	0.0001
550.9943	0.0042
551.1892	-0.0088
551.384	0.0081
551.5788	0.0018
551.7737	0.0005
551.9685	0.0124
552.1632	0.004
552.358	-0.0038
552.5528	0.0034
552.7475	-0.0004
552.9422	0.0003
553.1369	0.0086
553.3316	0.0069
553.5263	0.0109
553.7209	0.0039
553.9156	0.0003
554.1102	-0.0022
554.3048	-0.0104
554.4994	-0.0019
554.694	0.0027
554.8885	-0.0036
555.0831	0.0068
555.2776	0.0014
555.4721	0.0004
555.6666	-0.0033
555.8611	0.0045
556.0555	0.0037
556.25	0.0046
556.4444	-0.0066
556.6388	-0.0036
556.8332	0.0016
557.0276	-0.001
557.222	-0.0038
557.4163	0.0118
557.6107	0.0004
557.805	-0.0099
557.9993	0.001
558.1936	-0.0073
558.3879	0.0064
558.5821	0.0011
558.7764	-0.0098
558.9706	0.003
559.1648	0.0004
559.359	-0.0012
559.5532	0.0031
559.7473	0.0007
559.9415	0.0031
560.1356	0.0105
560.3297	-0.0043
560.5238	0.0051
560.7179	-0.0045
560.9119	0.0141
561.106	-0.0069
561.3	0.0125
561.494	-0.0097
561.688	0.0062
561.882	0.006
562.076	0.0027
562.2699	0.0101
562.4639	0.0132
562.6578	0.0043
562.8517	0.0082
563.0456	0.0104
563.2395	0.0065
563.4333	0.0084
563.6272	0.0119
563.821	0.0004
564.0148	-0.0051
564.2086	0.0019
564.4024	0.0073
564.5961	0.011
564.7899	0.0141
564.9836	0.0011
565.1773	0.0023
565.371	-0.0034
565.5647	0.0085
565.7584	0.0048
565.952	0.0028
566.1456	0.0047
566.3393	0.0054
566.5329	0.0035
566.7264	0.0069
566.92	0.0028
567.1136	0.0022
567.3071	-0.0023
567.5006	0.0064
567.6941	0.0011
567.8876	0.0008
568.0811	0.0243
568.2745	0.002
568.468	0.0058
568.6614	0.0107
568.8548	0.0098
569.0482	0.0075
569.2416	0.0008
569.4349	0.0077
569.6283	0.0003
569.8216	0.0093
570.0149	0.0041
570.2082	0.0118
570.4015	0.0049
570.5947	0.0074
570.788	0.0109
570.9812	0.005
571.1744	0.008
571.3676	0.0054
571.5608	0.0018
571.754	0.0108
571.9471	0.0119
572.1402	0.0059
572.3333	0.005
572.5264	0.0069
572.7195	0.0018
572.9126	0.0089
573.1057	0.0084
573.2987	0.0095
573.4917	0.0094
573.6847	0.0075
573.8777	0.0095
574.0707	0.0108
574.2636	0.0082
574.4566	0.0018
574.6495	0.0022
574.8424	0.0093
575.0353	0.0101
575.2281	0.013
575.421	0.0013
575.6138	0.0041
575.8067	0.0069
575.9995	0.0067
576.1923	0.0078
576.385	0.0104
576.5778	0.0108
576.7706	0.0087
576.9633	0.0107
577.156	0.0029
577.3487	0.0083
577.5414	0.0072
577.734	0.0052
577.9267	0.0068
578.1193	0.0121
578.3119	0.0042
578.5045	0.0079
578.6971	0.0035
578.8897	0.0061
579.0822	0.0119
579.2747	0.0109
579.4673	0.0072
579.6598	0.01
579.8522	0.0046
580.0447	0.0049
580.2372	0.011
580.4296	0.0128
580.622	0.0037
580.8144	0.01
581.0068	0.0065
581.1992	0.0063
581.3915	0.0023
581.5839	0.0068
581.7762	0.0027
581.9685	0.0063
582.1608	0.005
582.353	0.0048
582.5453	0.0102
582.7375	0.0095
582.9298	0.0031
583.122	0.0091
583.3142	0.0112
583.5063	0.0094
583.6985	0.0043
583.8906	0.0094
584.0827	0.0083
584.2749	0.0075
584.4669	0.0096
584.659	0.0112
584.8511	0.0118
585.0431	0.0087
585.2352	0.0068
585.4272	0.0069
585.6192	0.0085
585.8111	0.0063
586.0031	0.0077
586.195	0.0071
586.387	0.005
586.5789	0.011
586.7708	0.009
586.9627	0.006
587.1545	0.0071
587.3464	0.0053
587.5382	0.0056
587.73	0.0111
587.9218	0.0074
588.1136	0.0079
588.3053	0.0055
588.4971	0.0069
588.6888	0.0072
588.8805	0.0062
589.0722	0.0156
589.2639	0.0075
589.4556	0.0101
589.6472	0.0088
589.8389	0.0099
590.0305	0.0067
590.2221	0.0115
590.4137	0.0046
590.6052	0.0067
590.7968	0.0034
590.9883	-0.0002
591.1798	0.009
591.3713	0.0106
591.5628	0.0069
591.7543	0.0054
591.9458	0.0058
592.1372	0.0075
592.3286	0.003
592.52	-0
592.7114	0.0046
592.9028	0.012
593.0941	0.0082
593.2855	0.0021
593.4768	0.0117
593.6681	0.0053
593.8594	0.009
594.0506	-0.0015
594.2419	0.0098
594.4331	0.0061
594.6244	0
594.8156	0.0068
595.0067	0.0066
595.1979	0.0036
595.3891	0.0047
595.5802	0.0083
595.7713	0.0092
595.9624	0.0141
596.1535	0.005
596.3446	0.0049
596.5357	0.0135
596.7267	0.0023
596.9177	0.0102
597.1087	0.0049
597.2997	0.0048
597.4907	0.0039
597.6817	0.0135
597.8726	0.0084
598.0635	0.006
598.2544	0.0131
598.4453	0.0085
598.6362	0.0014
598.827	0.0052
599.0179	0.0115
599.2087	0.0092
599.3995	0.0066
599.5903	0.0128
599.7811	0.0172
599.9718	0.0007
600.1626	0.0045
600.3533	0.0015
600.544	0.0095
600.7347	0.0105
600.9254	0.008
601.116	0.0075
601.3067	0.0049
601.4973	0.0076
601.6879	0.0082
601.8785	0.0121
602.0691	0.0043
602.2596	0.0066
602.4502	0.0032
602.6407	0.0089
602.8312	0.0113
603.0217	0.0102
603.2122	0.0074
603.4027	0.0064
603.5931	0.0063
603.7835	0.0118
603.9739	0.0025
604.1643	0.0127
604.3547	0.0126
604.5451	0.0051
604.7354	-0.0027
604.9257	0.0037
605.116	-0.0015
605.3063	0.0122
605.4966	0.0048
605.6869	0.0158
605.8771	0.0121
606.0673	0.0029
606.2575	0.0063
606.4477	0.012
606.6379	0.0056
606.8281	0.0053
607.0182	0.0032
607.2083	0.0062
607.3985	0.0082
607.5885	0.0086
607.7786	0.009
607.9687	0.012
608.1587	0.0132
608.3488	0.0136
608.5388	-0.0041
608.7288	0.002
608.9187	0.005
609.1087	0.0107
609.2986	0.0058
609.4886	0.0035
609.6785	0.008
609.8684	-0.0017
610.0582	0.0038
610.2481	0.0009
610.4379	0.0111
610.6278	0.0095
610.8176	0.0128
611.0074	0.0068
611.1971	0.0064
611.3869	0.0124
611.5766	-0.0005
611.7664	0.0152
611.9561	0.0136
612.1458	0.0123
612.3354	0.0097
612.5251	0.0066
612.7147	0.0128
612.9044	-0.001
613.094	0.0042
613.2836	0.0082
613.4731	0.0012
613.6627	0.0096
613.8522	0.0091
614.0417	0.0032
614.2313	0.0083
614.4207	0.008
614.6102	0.0066
614.7997	0.0091
614.9891	0.0061
615.1785	-0.0024
615.3679	0.011
615.5573	0.01
615.7467	0.0019
615.9361	0.0118
616.1254	0.0093
616.3147	0.0059
616.504	0.0109
616.6933	0.0111
616.8826	0.0049
617.0718	0.0058
617.2611	0.0025
617.4503	0.0052
617.6395	0.0052
617.8287	0.0121
618.0179	0.0036
618.207	0.0068
618.3961	-0.0015
618.5853	0.0081
618.7744	0.0037
618.9634	0.0092
619.1525	0.0045
619.3416	0.0004
619.5306	0.0161
619.7196	0.0164
619.9086	0.0065
620.0976	-0.004
620.2866	0.0149
620.4755	0.0024
620.6645	0.0225
620.8534	0.0087
621.0423	0.006
621.2312	0.0121
621.42	0.0003
621.6089	0.0049
621.7977	0.0059
621.9865	0.0003
622.1753	0.0014
622.3641	0.0044
622.5529	-0.0037
622.7416	0.003
622.9303	-0.0087
623.1191	0.0061
623.3078	-0.001
623.4964	0.0134
623.6851	0.0161
623.8737	0.0089
624.0624	-0.0069
624.251	0.0051
624.4396	0.0126
624.6282	0.0072
624.8167	0.0047
625.0053	0.0127
625.1938	0.0055
625.3823	0.0037
625.5708	-0.0061
625.7593	0.0049
625.9477	0.0069
626.1362	0.0075
626.3246	0.0052
626.513	0.0097
626.7014	0.0101
626.8898	0.0103
627.0781	0.0017
627.2665	0.0064
627.4548	-0.0015
627.6431	0.0002
627.8314	0.0085
628.0197	0.0093
628.2079	-0.0008
628.3962	0.0061
628.5844	0.0061
628.7726	-0.002
628.9608	0.0092
629.1489	-0.0041
629.3371	0.0076
629.5252	0.0095
629.7134	-0.0115
629.9015	0.0055
630.0895	-0.0045
630.2776	0.0172
630.4657	0.0161
630.6537	0.0082
630.8417	0.0033
631.0297	0.0184
631.2177	-0.0032
631.4057	0.0014
631.5936	0.0013
631.7815	0.0068
631.9695	0.0163
632.1574	0.0095
632.3452	0.0069
632.5331	0.0075
632.7209	0.0206
632.9088	0.002
633.0966	0.0213
633.2844	0.0127
633.4722	-0.0055
633.6599	0.0085
633.8477	0.0078
634.0354	0.0157
634.2231	0.0008
634.4108	0.0126
634.5985	0.0105
634.7861	0.012
634.9738	-0.0029
635.1614	0.0019
635.349	-0.0007
635.5366	0.0081
635.7242	0.0071
635.9117	-0.0012
636.0993	0.0203
636.2868	-0.0051
636.4743	-0.0065
636.6618	0.0015
636.8492	0.0194
637.0367	-0.0032
637.2241	-0.0043
637.4115	0.0373
637.5989	-0.0063
637.7863	0.0261
637.9737	0.0054
638.161	0.0045
638.3484	-0.0031
638.5357	-0.0004
638.723	0.0238
638.9103	-0.0153
639.0975	0.0006
639.2848	0.0311
639.472	0.003
639.6592	-0.0062
639.8464	0.0022
640.0336	0.0068
640.2208	-0.0067
640.4079	-0.0124
640.595	-0.0066
640.7821	0.0166
640.9692	-0.0059
641.1563	0.0119
641.3434	0.0186
641.5304	0.0275
641.7174	0.0032
641.9044	0.0117
642.0914	0.025
642.2784	-0.0166
642.4653	-0.0055
642.6523	0.01
642.8392	-0.0012
643.0261	0.0101
643.213	0.0039
643.3999	0.0213
643.5867	0.0038
643.7735	0.0028
643.9604	0.0051
644.1472	0.0075
644.3339	-0.0024
644.5207	-0.0048
644.7075	-0.0233
644.8942	-0.0108
645.0809	-0.0048
645.2676	0.007
645.4543	0.0131
645.6409	0.0176
645.8276	0.0154
646.0142	0.0119
646.2008	-0.0173
646.3874	-0.0032
646.574	-0.0007
646.7605	0.0072
646.9471	0.0054
647.1336	-0.0185
647.3201	-0.004
647.5066	-0.0051
647.6931	0.0001
647.8795	0.0093
648.0659	-0.0028
648.2524	0.0013
648.4388	-0.0031
648.6252	0.0144
648.8115	0.0018
648.9979	0.006
649.1842	-0.0001
649.3705	0.0116
649.5568	-0.0183
649.7431	-0.017
649.9294	0.0054
650.1156	-0.0006
650.3018	0.0177
650.488	0.0254
650.6742	0.0103
650.8604	0.0043
651.0466	-0.0043
651.2327	0.0055
651.4188	-0.0103
651.6049	0.024
651.791	0.0059
651.9771	0.0145
652.1632	0.0087
652.3492	0.0009
652.5352	0.017
652.7212	0.003
652.9072	-0.0044
653.0932	0.0066
653.2791	0.0029
653.465	0.0222
653.651	-0.0001
653.8369	0.0066
654.0227	-0.0007
654.2086	0.0101
654.3944	0.0142
654.5803	0.0048
654.7661	0.0025
654.9519	-0.0003
655.1377	0.0001
655.3234	0.0001
655.5092	0.0001
655.6949	0.0001
655.8806	0.0001
656.0663	0.0001
656.2519	0.0001
656.4376	0.0001
656.6232	0.0001
656.8088	0.0001
656.9945	0.0001
657.18	0.0001
657.3656	0.0001
657.5511	0.0001
657.7367	0.0001
657.9222	0.0001
658.1077	0.0001
658.2932	0.0001
658.4786	0.0001
658.6641	0.0001
658.8495	0.0001
659.0349	0.0001
659.2203	0.0001
659.4057	0.0024
659.591	0.2624
659.7764	0.0145
659.9617	0.0309
660.147	-0.0052
660.3323	0.0157
660.5176	0.0085
660.7028	-0.0103
660.888	0.0074
661.0733	0.0252
661.2585	-0.0031
661.4436	0.0035
661.6288	0.0177
661.8139	-0.012
661.9991	-0.0052
662.1842	-0.0012
662.3693	0.0059
662.5544	0.016
662.7394	0.0192
662.9245	0.0178
663.1095	-0.0217
663.2945	-0.0057
663.4795	-0.0214
663.6644	0.0095
663.8494	0.0104
664.0343	0.0022
664.2193	-0.0038
664.4042	0.022
664.589	0.0068
664.7739	0.0163
664.9587	-0.0011
665.1436	-0.0199
665.3284	0.0074
665.5132	-0.014
665.698	0.0018
665.8827	0.0032
666.0675	-0.022
666.2522	0.002
666.4369	0.0038
666.6216	0.0174
666.8063	0.0108
666.9909	-0.0108
667.1756	-0.0109
667.3602	-0.0143
667.5448	-0.0028
667.7294	0.0148
667.9139	-0.0257
668.0985	0.0267
668.283	0.0019
668.4675	0.0201
668.652	-0.0005
668.8365	0.0038
669.0209	0.0236
669.2054	0.0085
669.3898	0.0075
669.5742	0.0167
669.7586	0.022
669.943	0.0179
670.1273	-0.0067
670.3117	0.016
670.496	0.0063
670.6803	-0.0071
670.8646	-0.0171
671.0488	0.0273
671.2331	-0.0193
671.4173	0.0137
671.6015	0.0096
671.7857	0.0024
671.9699	0.0158
672.1541	0.0049
672.3382	0.0098
672.5223	0.0084
672.7064	0.0079
672.8905	0.0004
673.0746	0.0195
673.2587	0.0108
673.4427	0.0162
673.6267	-0.0076
673.8107	0.016
673.9947	0.0144
674.1787	-0.0005
674.3626	0.0062
674.5465	0.0239
674.7304	0.0067
674.9143	-0.0087
675.0982	-0.0002
675.2821	-0.0076
675.4659	-0.0017
675.6497	0.019
675.8335	0.0166
676.0173	0.011
676.2011	0.0172
676.3849	-0.003
676.5686	0.0077
676.7523	0.017
676.936	0.0161
677.1197	-0.0088
677.3034	0.0403
677.487	0.0003
677.6706	0.0017
677.8542	-0.0017
678.0378	0.0148
678.2214	0.0137
678.405	-0.0013
678.5885	0.0144
678.772	0.0077
678.9555	0.0022
679.139	0.0105
679.3225	0.0104
679.5059	-0.0016
679.6894	0.0061
679.8728	-0.0023
680.0562	0.0044
680.2395	-0.0083
680.4229	-0.0085
680.6062	0.0169
680.7896	-0.0126
680.9729	0.0228
681.1562	0.0159
681.3394	0.0092
681.5227	-0.002
681.7059	0.0119
681.8891	0.0259
682.0723	0.001
682.2555	0.0128
682.4387	0.0271
682.6218	0.0159
682.805	0.0165
682.9881	0.0129
683.1712	0.0055
683.3542	0.0021
683.5373	-0.0172
683.7203	0.0203
683.9034	0.0075
684.0864	-0.0052
684.2694	0.0085
684.4523	0.0047
684.6353	0.0023
684.8182	0.0048
685.0011	0.013
685.184	0.0053
685.3669	0.0168
685.5498	0.0066
685.7326	-0.0068
685.9154	-0.0009
686.0982	0.0112
686.281	-0.0072
686.4638	0.0111
686.6465	0.0137
686.8293	-0.0084
687.012	0.0028
687.1947	0.0084
687.3774	-0.0048
687.56	-0.0057
687.7427	0.0062
687.9253	-0.0243
688.1079	0.0034
688.2905	-0.0041
688.4731	0.0267
688.6556	0.0112
688.8382	-0.0192
689.0207	-0.0086
689.2032	0.0167
689.3857	-0.0049
689.5681	-0.0051
689.7506	0.0436
689.933	-0.0035
690.1154	0.0205
690.2978	0.0154
690.4802	0.0035
690.6626	-0.0086
690.8449	0.0317
691.0272	0.0081
691.2095	-0.0235
691.3918	0.0065
691.5741	-0.0092
691.7563	0.0157
691.9386	0.0088
692.1208	-0.0062
692.303	-0.0069
692.4852	0.0095
692.6673	0.0074
692.8495	-0.0052
693.0316	0.0011
693.2137	0.0197
693.3958	-0.0017
693.5778	0.007
693.7599	-0.0154
693.9419	-0.0281
694.1239	0.0169
694.3059	0.004
694.4879	-0.0045
694.6699	-0.0038
694.8518	0.0042
695.0337	0.007
695.2157	0.0341
695.3975	-0.013
695.5794	-0.0155
695.7613	0.0135
695.9431	-0.0191
696.1249	0.0236
696.3067	0.0091
696.4885	0.0316
696.6703	-0.0003
696.852	-0.0009
697.0337	0.0097
697.2154	0.005
697.3971	0.0066
697.5788	0.024
697.7605	-0.003
697.9421	0.0091
698.1237	0.0142
698.3053	-0.0101
698.4869	0.006
698.6685	-0.0211
698.85	0.0136
699.0315	-0.0137
699.213	0.0425
699.3945	-0.0005
699.576	0.0278
699.7575	0.0307
699.9389	-0.0222
700.1203	0.0014
700.3017	0.0026
700.4831	0.0285
700.6645	0.0305
700.8458	-0.0092
701.0271	0.0234
701.2084	0.0045
701.3897	0.0231
701.571	-0.0165
701.7523	0.0142
701.9335	0.008
702.1147	0.0197
702.2959	-0.002
702.4771	-0.0072
702.6583	0.0097
702.8394	-0.0247
703.0205	0.0176
703.2016	0.0067
703.3827	0.0115
703.5638	-0.0077
703.7449	0.0374
703.9259	0.0024
704.1069	-0.0147
704.2879	0.0002
704.4689	-0.0055
704.6499	0.0141
704.8308	-0.0012
705.0117	0.0049
705.1927	0.0245
705.3735	0.0204
705.5544	0.0431
705.7353	-0.0122
705.9161	-0.0336
706.0969	0.0004
706.2777	0.0196
706.4585	0.0042
706.6393	0.0152
706.82	0.0215
707.0007	-0.0012
707.1815	0.0016
707.3621	0.0294
707.5428	0.0162
707.7235	0.0064
707.9041	0.0137
708.0847	-0.0022
708.2653	0.0186
708.4459	0.0019
708.6265	-0.0032
708.807	0.0135
708.9875	-0.0096
709.168	-0.0195
709.3485	0.018
709.529	0.0223
709.7095	-0.0104
709.8899	0.0168
710.0703	0.0313
710.2507	-0.0008
710.4311	-0.0122
710.6115	0.025
710.7918	0.0325
710.9721	0.0023
711.1524	-0.0079
711.3327	-0.0049
711.513	-0.0018
711.6932	0.0377
711.8735	0.0185
712.0537	-0.0111
712.2339	0.0055
712.4141	0.0205
712.5942	-0.0027
712.7744	0.0041
712.9545	0.0118
713.1346	0.0088
713.3147	0.0317
713.4947	-0.0078
713.6748	0.0047
713.8548	0.0152
714.0348	0.0297
714.2148	0.0032
714.3948	0.0233
714.5748	0.0365
714.7547	0.0055
714.9346	0.0279
715.1145	-0.0177
715.2944	-0.0061
715.4743	0.0292
715.6541	0.0115
715.834	0.0275
716.0138	0.0099
716.1936	0.0149
716.3733	0.014
716.5531	0.0139
716.7328	0.0139
716.9126	0.0033
717.0923	-0.0213
717.2719	0.0183
717.4516	0.0042
717.6312	0.0114
717.8109	0.0143
717.9905	0.0169
718.1701	0.0065
718.3496	0.0049
718.5292	-0.0182
718.7087	0.0081
718.8882	0.0234
719.0677	0.0258
719.2472	-0.0038
719.4267	0.0069
719.6061	-0.0006
719.7856	0.0184
719.965	-0.0027
720.1443	-0.0121
720.3237	-0.0026
720.5031	0.0205
720.6824	0.0172
720.8617	-0.0021
721.041	0.0192
721.2203	0.0075
721.3995	0.0162
721.5788	0.0002
721.758	-0.0197
721.9372	-0.0006
722.1164	-0.015
722.2956	-0.0237
722.4747	0.0099
722.6538	-0.0037
722.8329	0.0054
723.012	0.0324
723.1911	-0.0069
723.3702	0.0156
723.5492	-0.0028
723.7282	0.0067
723.9072	0.0071
724.0862	-0.0099
724.2652	-0.0036
724.4441	-0.0087
724.623	-0.0009
724.8019	0.0259
724.9808	0.0169
725.1597	0.0012
725.3385	-0.0005
725.5174	0.0084
725.6962	0.0063
725.875	0.0062
726.0538	0.0019
726.2325	0.015
726.4112	-0.0206
726.59	-0.0216
726.7687	-0.0035
726.9474	0.0084
727.126	0.0121
727.3047	-0.0049
727.4833	0.0043
727.6619	-0.0239
727.8405	0.0288
728.0191	0.0167
728.1976	-0.0016
728.3762	0.028
728.5547	-0.0031
728.7332	0.0199
728.9116	0.015
729.0901	0.0005
729.2686	0.0087
729.447	-0.0083
729.6254	0.0103
729.8038	0.0145
729.9821	-0.0086
730.1605	0.01
730.3388	0.0038
730.5171	0.0355
730.6954	-0.0212
730.8737	0.0068
731.0519	-0.0044
731.2302	0.0254
731.4084	-0.0043
731.5866	0.0092
731.7648	0.0101
731.9429	0.0128
732.1211	-0.0001
732.2992	-0.0042
732.4773	0.001
732.6554	-0.0252
732.8335	0.0259
733.0115	0.0176
733.1896	0.0023
733.3676	0.0345
733.5456	-0.0058
733.7235	-0.0093
733.9015	0.0018
734.0794	0.0089
734.2574	-0.0284
734.4353	0.0181
734.6131	0.0086
734.791	0.017
734.9689	-0.0185
735.1467	0.0142
735.3245	-0.0044
735.5023	0.0139
735.68	0.016
735.8578	-0.0041
736.0355	0.0031
736.2132	0.0106
736.3909	0.0095
736.5686	0.0089
736.7463	0.0027
736.9239	0.0291
737.1015	-0.0001
737.2791	0.0134
737.4567	0.013
737.6343	0.0016
737.8118	0.0167
737.9894	0.0026
738.1669	-0.0084
738.3444	0.028
738.5218	-0.0019
738.6993	0.01
738.8767	0.0054
739.0541	0.0024
739.2315	0.0073
739.4089	0.0166
739.5863	-0.0011
739.7636	0.0029
739.9409	-0.0049
740.1182	-0.0055
740.2955	0.0041
740.4728	-0.0168
740.65	-0.003
740.8272	-0.0147
741.0044	-0.006
741.1816	0.0389
741.3588	-0.031
741.5359	-0.0193
741.7131	0.002
741.8902	-0.0056
742.0673	-0.01
742.2444	0.0445
742.4214	0.0352
742.5985	-0.0027
742.7755	0.0107
742.9525	-0.0079
743.1295	-0.0067
743.3064	0.0263
743.4834	0.0103
743.6603	0.053
743.8372	-0.037
744.0141	0.0388
744.191	-0.0077
744.3678	-0.0222
744.5446	0.0182
744.7215	-0.0007
744.8982	0.0205
745.075	0.0378
745.2518	-0.0034
745.4285	0.0253
745.6052	-0.0199
745.7819	0.0277
745.9586	0.0158
746.1353	-0.0138
746.3119	-0.0044
746.4885	0.0304
746.6651	0.0037
746.8417	0.0161
747.0183	0.0173
747.1948	0.0183
747.3714	0.0354
747.5479	0.041
747.7244	-0.0131
747.9008	-0.0262
748.0773	0.0288
748.2537	0.027
748.4301	0.0161
748.6065	-0.0052
748.7829	-0.0285
748.9593	0.0052
749.1356	-0.0029
749.3119	0.0082
749.4882	0.0194
749.6645	0.0093
749.8408	0.008
750.017	0.0054
750.1933	-0.0197
750.3695	-0.0005
750.5457	-0.0115
750.7218	-0.0179
750.898	-0.0157
751.0741	0.004
751.2502	-0.0084
751.4263	-0.0049
751.6024	0.0028
751.7784	-0.0047
751.9545	-0.0042
752.1305	-0.0021
752.3065	0.0283
752.4825	0.0006
752.6584	0.0149
752.8344	-0.0269
753.0103	-0.0257
753.1862	0.0037
753.3621	0.0054
753.5379	0.0015
753.7138	-0.0019
753.8896	0.021
754.0654	-0.0024
754.2412	0.0124
754.417	0.0261
754.5927	0.0067
754.7685	0.0049
754.9442	0.0277
755.1199	0.0092
755.2956	0.0217
755.4712	0.0089
755.6469	0.0253
755.8225	-0.0111
755.9981	0.0356
756.1736	0.0009
756.3492	0.011
756.5248	0.0097
756.7003	0.0047
756.8758	0.0074
757.0513	0.0035
757.2267	0.0145
757.4022	-0.0044
757.5776	0.0139
757.753	0.0191
757.9284	-0.0052
758.1038	0.0248
758.2791	0.0102
758.4545	0.0004
758.6298	0.0129
758.8051	0.0243
758.9803	0.0253
759.1556	0.0035
759.3308	0.001
759.506	0.0039
759.6812	0.0309
759.8564	0.0118
760.0316	-0.0062
760.2067	0.0181
760.3819	0.0001
760.557	-0.0039
760.732	0.022
760.9071	0.0272
761.0821	-0.0095
761.2572	0.0136
761.4322	0.0164
761.6072	0.0019
761.7821	-0.0169
761.9571	0.007
762.132	-0.0021
762.3069	0.0198
762.4818	0.0125
762.6567	-0.0103
762.8316	0.0292
763.0064	-0.0133
763.1812	0.0048
763.356	-0.028
763.5308	0.0284
763.7055	-0.0223
763.8803	-0.0112
764.055	-0.0129
764.2297	-0.0142
764.4044	0.0097
764.579	0.0024
764.7537	-0.0066
764.9283	0.006
765.1029	0.0027
765.2775	0.0104
765.4521	-0.0063
765.6266	0.0131
765.8011	-0.0025
765.9756	0.0425
766.1501	-0.0052
766.3246	0.0085
766.4991	0.0139
766.6735	0.0552
766.8479	-0.0103
767.0223	0.0119
767.1967	0.0277
767.371	0.0362
767.5454	-0.0035
767.7197	0.0442
767.894	0.0108
768.0683	0.0234
768.2425	-0.0112
768.4168	0.0231
768.591	-0.0102
768.7652	-0.0024
768.9394	-0.0202
769.1135	0.0175
769.2877	0.0151
769.4618	0.0402
769.6359	0.0129
769.81	0.0238
769.984	0.0021
770.1581	0.0006
770.3321	0.0188
770.5061	-0.0055
770.6801	0.0079
770.8541	0.0057
771.028	0.0248
771.202	0.0375
771.3759	0.008
771.5498	0.0091
771.7236	0.0093
771.8975	0.0324
772.0713	0.035
772.2451	-0.0335
772.4189	0.0051
772.5927	-0.0461
772.7665	-0.0052
772.9402	0.0174
773.1139	0.0075
773.2876	-0.0074
773.4613	0.0094
773.635	0.0241
773.8086	0.0163
773.9822	0.0224
774.1558	0.0782
774.3294	0.01
774.503	0.0268
774.6765	0.0142
774.8501	-0.0003
775.0236	0.0234
775.1971	-0.0154
775.3705	0.0195
775.544	-0.0264
775.7174	0.0248
775.8908	0.0102
776.0642	0.0129
776.2376	0.0148
776.4109	0.003
776.5843	-0.035
776.7576	0.0691
776.9309	-0.0263
777.1041	-0.0066
777.2774	0.034
777.4506	-0.0261
777.6238	0.0211
777.797	0.0213
777.9702	0.028
778.1434	0.0059
778.3165	-0.0283
778.4896	-0.0406
778.6627	0.033
778.8358	0.012
779.0089	-0.0092
779.1819	0.0303
779.3549	0.0014
779.5279	-0.034
779.7009	0.0587
779.8739	0.066
780.0468	-0.006
780.2197	0.005
780.3926	-0.0189
780.5655	-0.0014
780.7384	0.0274
780.9112	0.0179
781.0841	0.0226
781.2569	0.0272
781.4297	0.0011
781.6024	0.0007
781.7752	0.0544
781.9479	0.0146
782.1206	0.0024
782.2933	0.0278
782.466	0.0415
782.6386	0.0043
782.8113	0.0073
782.9839	0.014
783.1565	-0.0036
783.329	-0.0111
783.5016	0.0089
783.6741	0.0028
783.8466	0.0224
784.0191	-0.0197
784.1916	-0.0028
784.3641	-0.0401
784.5365	-0.0183
784.7089	0.0038
784.8813	0.1261
785.0537	0.0214
785.2261	0.0004
785.3984	-0.0126
785.5707	-0.0191
785.743	0.0207
785.9153	-0.0255
786.0876	-0.0347
786.2598	0.014
786.432	0.0124
786.6042	0.0108
786.7764	-0.0183
786.9486	-0.0285
787.1207	0.0148
787.2928	0.0293
787.4649	-0.0035
787.637	-0.0056
787.8091	-0.0124
787.9811	0.0449
788.1532	0.0043
788.3252	0.0329
788.4972	0.0188
788.6691	-0.0072
788.8411	-0.0243
789.013	0.0403
789.1849	-0.006
789.3568	-0.0271
789.5287	0.0563
789.7005	-0.0199
789.8723	0.0099
790.0442	-0.0293
790.2159	-0.0418
790.3877	0.0122
790.5595	0.0016
790.7312	-0.0055
790.9029	0.0173
791.0746	0.0028
791.2463	-0.0308
791.4179	0.0026
791.5896	0.0206
791.7612	0.0769
791.9328	0.0133
792.1044	0.0133
792.2759	-0.043
792.4474	-0.0188
792.619	-0.0205
792.7905	0.004
792.9619	0.0475
793.1334	0.0989
793.3048	0.0944
793.4762	0.0158
793.6476	-0.0411
793.819	-0.0017
793.9904	0.0164
794.1617	-0.0297
794.333	0.0211
794.5043	0.0475
794.6756	0.0216
794.8469	0.0254
795.0181	0.0461
795.1893	-0.0016
795.3605	0.0556
795.5317	0.036
795.7029	-0.0071
795.874	0.0118
796.0452	-0.0056
796.2163	0.0585
796.3873	0.0394
796.5584	0.0997
796.7294	0.0772
796.9005	0.0295
797.0715	-0.0512
797.2425	0.0615
797.4134	0.0862
797.5844	0.0464
797.7553	-0.0768
797.9262	0.0671
798.0971	0.0408
798.2679	-0.0399
798.4388	0.0273
798.6096	-0.0232
798.7804	0.0006
798.9512	0.0172
799.122	0.0244
799.2927	0.0415
799.4635	-0.0985
799.6342	-0.043
799.8049	0.0944
799.9755	-0.0454
800.1462	0.0062
800.3168	0.0195
800.4874	0.0044
800.658	0.0176
800.8286	0.015
800.9991	0.0103
801.1696	0.042
801.3402	0.0366
801.5106	-0.043
801.6811	0.038
801.8516	0.0089
802.022	-0.037
802.1924	-0.0193
802.3628	0.0129
802.5332	0.0175
802.7035	0.0476
802.8739	0.0354
803.0442	-0.0681
803.2145	-0.0368
803.3847	0.0517
803.555	0.093
803.7252	-0.0711
803.8954	-0.0324
804.0656	-0.0299
804.2358	-0.0152
804.4059	0.1257
804.5761	0.0663
804.7462	-0.0144
804.9163	0.0087
805.0864	-0.0407
805.2564	-0.0337
805.4264	-0.0401
805.5965	0.0531
805.7665	-0.0023
805.9364	-0.0365
806.1064	0.0173
806.2763	0.0005
806.4462	-0.0221
806.6161	0.0313
806.786	-0.0162
806.9559	0.0381
807.1257	0.0015
807.2955	0.0017
807.4653	0.0018
807.6351	0.0567
807.8048	0.0146
807.9746	0.0591
808.1443	-0.0204
808.314	0.0423
808.4837	0.0579
808.6533	-0.0439
808.8229	0.0177
808.9926	0.002
809.1622	0.0476
809.3317	0.0061
809.5013	-0.0027
809.6708	0.0143
809.8403	0.0487
810.0098	0.0247
810.1793	0.0522
810.3488	-0.0517
810.5182	0.0777
810.6876	-0.0198
810.857	0.0429
811.0264	-0.035
811.1958	0.1017
811.3651	-0.0058
811.5344	0.022
811.7037	0.0505
811.873	0.094
812.0422	-0.0242
812.2115	0.0202
812.3807	-0.11
812.5499	-0.0408
812.7191	0.0063
812.8882	0.0176
813.0574	-0.0796
813.2265	0.0296
813.3956	0.0031
813.5646	0.0974
813.7337	0.0625
813.9027	-0.0457
814.0718	0.0299
814.2407	0.0106
814.4097	0.1228
814.5787	0.068
814.7476	0.05
814.9165	0.0472
815.0854	-0.0423
815.2543	0.1379
815.4232	0.0905
815.592	0.0436
815.7608	-0.0791
815.9296	-0.0284
816.0984	0.152
816.2671	-0.2747
816.4359	0.1304
816.6046	-0.1086
816.7733	-0.0854
816.942	0.0647
817.1106	0.1015
817.2793	-0.0605
817.4479	0.0928
817.6165	0.0201
817.785	0.1476
817.9536	-0.0305
818.1221	0.0491
818.2906	-0.0338
818.4591	-0.0099
818.6276	-0.0109
818.7961	-0.0552
818.9645	0.009
819.1329	-0.0062
819.3013	0.1057
819.4697	0.0807
819.638	0.0814
819.8064	0.054
819.9747	0.0288
820.143	-0.0288
820.3113	0.0079
820.4795	0.0069
820.6477	0.1139
820.816	0.123
820.9842	0.1019
821.1523	0.0826
821.3205	-0.0303
821.4886	-0.0863
821.6567	-0.0291
821.8248	0.1063
821.9929	-0.1301
822.1609	-0.0148
822.329	0.0724
822.497	0.0975
822.665	0.0388
822.833	0.0758
823.0009	-0.0018
823.1688	0.1717
823.3367	-0.2088
823.5046	0.0504
823.6725	0.0288
823.8404	0.0171
824.0082	0.0235
824.176	0.0285
824.3438	0.1155
824.5116	0.035
824.6793	0.1163
824.847	0.0659
825.0147	0.0491
825.1824	0.0227
825.3501	0.2739
825.5177	-0.0509
825.6854	-0.1528
825.853	-0.1116
826.0206	-0.0054
826.1881	0.1851
826.3557	0.1103
826.5232	0.0593
826.6907	-0.0196
826.8582	-0.0269
827.0257	0.2894
827.1931	0.1038
827.3605	-0.0622
827.528	-0.0421
827.6953	-0.2109
827.8627	-0.1122
828.03	0.32
828.1974	0.0708
828.3647	0.0816
828.532	0.0315
828.6992	0.1069
828.8665	-0.279
829.0337	-0.0957
829.2009	-0.002
829.3681	-0.011
829.5352	-0.163
829.7024	0.0735
829.8695	0.1953
830.0366	0.0753
830.2037	0.0292
830.3707	0.0173
830.5378	-0.0545
830.7048	-0.1529
830.8718	0.1508
831.0388	-0.1569
831.2057	0.0251
831.3727	0.0717
831.5396	-0.0024
831.7065	0.3908
831.8734	0.35
832.0402	0.0342
832.2071	-0.5902
832.3739	-0.0693
832.5407	-1.4405
832.7075	-0.3868
832.8742	0.1234
833.041	0.2063
833.2077	1.0165
833.3744	-0.0899
833.541	0.2302
833.7077	-0.0445
833.8743	0.0559
834.0409	0.0563
834.2075	0.0835
834.3741	-0.2279
834.5407	0.0511
834.7072	-0.0364
834.8737	-0.064
835.0402	0.7239
835.2067	-0.133
835.3731	0.0928
835.5395	-0.0091
835.706	-0.1495
835.8723	0.06
836.0387	0.086
836.2051	0.3127
836.3714	-0.0484
836.5377	0.3738
836.704	0.4879
836.8703	-0.1695
837.0365	-0.3774
837.2027	0.5307
837.3689	-0.0223
837.5351	-0.0614
837.7013	0.0257
837.8674	-0.4439
838.0335	0.1086
838.1997	-0.3176
838.3657	0.1002
838.5318	-0.5911
838.6978	-0
838.8639	-0.3445
839.0299	-0.1513
839.1958	-0.0245
839.3618	-0.1213
839.5277	0.0096
839.6937	-0.0539
839.8596	0.9973
840.0254	-0.0124
840.1913	-0
840.3571	-0.1172
840.523	-0.9731
840.6888	-0.1011
840.8545	-0.1168
841.0203	0.1401
841.186	0.0511
841.3517	-0.1452
841.5174	0.2172
841.6831	0.3597
841.8488	0.0396
842.0144	0.3252
842.18	0.0316
842.3456	-0.649
842.5112	-0
842.6767	0.3497
842.8422	-0.0242
843.0077	0.7212
843.1732	-0.3774
843.3387	-0.1599
843.5042	-0
843.6696	-0.3079
843.835	-0.325
844.0004	-0.4085
844.1657	-0
844.3311	-0
844.4964	-0
844.6617	1.069
844.827	-0
844.9923	0.3493
845.1575	-0.0942
845.3227	-0.3387
845.4879	0.1843
845.6531	0.0638
845.8183	0.1578
845.9834	-0
846.1485	0.0466
846.3136	-0.0593
846.4787	0.4646
846.6438	0.0966
846.8088	1.3206
846.9738	-0
847.1388	0.3092
847.3038	0.1166
847.4687	1.4532
847.6337	-0.3194
847.7986	-0.2054
847.9635	-0.0552
848.1284	0.2444
848.2932	0.4877
848.458	-0
848.6228	-0
848.7876	0.1118
848.9524	-0
849.1172	-2.1038
849.2819	-0.421
849.4466	0.1381
849.6113	0.1154
849.7759	-0
849.9406	1.0283
850.1052	-0
850.2698	0.0127
850.4344	-0.5195
850.599	-0.272
850.7635	1.6692
850.928	0.7543
851.0925	1.1068
851.257	-0.1213
851.4215	0.5779
851.5859	-0.0236
851.7503	-0
851.9147	-0
852.0791	-0.2102
852.2434	0.2314
852.4078	-0.0139
852.5721	0.1449
852.7364	-0.0808
852.9007	-0.0976
853.0649	-0
853.2291	-0.1177
853.3934	-0
853.5575	-0.0885
853.7217	0.6325
853.8859	-0.6294
854.05	-0.5548
854.2141	-0.0316
854.3782	0.0262
854.5423	-0.4184
854.7063	-0.0138
854.8703	-0.1943
855.0343	0.0697
855.1983	-0.0396
855.3623	0.5638
855.5262	-0.0616
855.6901	0.2307
855.854	0.3342
856.0179	0.9516
856.1818	-0
856.3456	0.7518
856.5094	0.3226
856.6732	-0.1007
856.837	-0.9118
857.0008	-0
857.1645	0.3843
857.3282	-0.4053
857.4919	0.1758
857.6556	-0.0356
857.8192	0.0402
857.9828	-0.3331
858.1465	0.1628
858.31	-0
858.4736	-0.4863
858.6372	-0.3652
858.8007	0.0463
858.9642	0.1787
859.1277	1.3386
859.2911	-0.4614
859.4546	-0
859.618	0.7254
859.7814	-0.1254
859.9448	-0.1043
860.1081	1.1654
860.2715	-1.5369
860.4348	0.3197
860.5981	0.0584
860.7614	0.0602
860.9246	-0.0064
861.0879	-0.3006
861.2511	-0
861.4143	-0
861.5774	0.1843
861.7406	0.0768
861.9037	-0
862.0668	-0
862.2299	0.672
862.393	-0
862.556	-0
862.7191	0.4865
862.8821	0.1691
863.0451	0.3177
863.208	0.0176
863.371	-0
863.5339	0.3491
863.6968	-0
863.8597	-0
864.0225	-0
864.1854	-0
864.3482	-0
864.511	-0.3063
864.6737	-0
864.8365	0.0817
864.9992	-0
865.1619	-0.3993
865.3246	-1.8102
865.4873	0.3908
865.65	1.5628
865.8126	-0.0195
865.9752	-0
866.1378	-0.0506
866.3004	0.4979
866.4629	-2.0055
866.6254	-0
866.7879	1.2788
866.9504	-0
867.1129	-0
867.2753	-0.2419
867.4377	0.1322
867.6001	0.3322
867.7625	-0.2092
867.9249	0.5696
868.0872	-0.2348
868.2495	-0
868.4118	-0
868.5741	-0.1831
868.7363	-0
868.8986	-0.5508
869.0608	2.1038
869.223	-0.5667
869.3851	-0.1679
869.5473	-0.1161
869.7094	1.1555
869.8715	-0.404
870.0336	0.2011
870.1957	-0.5775
870.3577	0.8374
870.5197	-0.0166
870.6817	-0.5055
870.8437	-0.1667
871.0057	1.2676
871.1676	0.2063
871.3295	0.644
871.4914	-0
871.6533	-0.3335
871.8151	0.0783
871.977	0.2344
872.1388	-0
872.3006	-0.0489
872.4623	-0
872.6241	-0
872.7858	1.1667
872.9475	1.0037
873.1092	0.5367
873.2709	0.417
873.4325	-1.9981
873.5941	-0
873.7557	0.0074
873.9173	-0.0981
874.0789	2.847
874.2404	-0
874.4019	-0.0114
874.5634	-0
874.7249	-0
874.8863	-0.2202
875.0478	0.1497
875.2092	1.6431
875.3706	0.0502
875.5319	-0
875.6933	0.2048
875.8546	-0
876.0159	-0
876.1772	-0
876.3385	-0
876.4997	-0
876.6609	-0.0601
876.8221	0.2299
876.9833	0.1769
877.1445	0.2106
877.3056	-0.7045
877.4667	-0.6401
877.6278	-0
877.7889	-0.1297
877.9499	-0.0066
878.111	-0.6291
878.272	0.5816
878.433	0.092
878.5939	-0.3659
878.7549	-0
878.9158	1.0482
879.0767	1.4073
879.2376	-0
879.3984	0.7231
879.5593	0.4199
879.7201	0.8451
879.8809	-0
880.0417	-0.3164
880.2024	-0
880.3632	-0.5997
880.5239	0.1001
880.6846	-0.53
880.8452	-0.1087
881.0059	-0
881.1665	0.0605
881.3271	0.1728
881.4877	0.3513
881.6483	-0
881.8088	-0
881.9693	-0
882.1298	-0
882.2903	-0
