Data from D4ACN5uM420nmA_Absorbance_14-37-07-691.txt Node
Date: Fri Feb 21 14:37:07 GMT 2025
User: LASERRRRR
Spectrometer: FLMT03099
Trigger mode: 0
Integration Time (sec): 1.500000E-2
Scans to average: 1
Electric dark correction enabled: true
Nonlinearity correction enabled: false
Boxcar width: 0
XAxis mode: Wavelengths
Number of Pixels in Spectrum: 3648
>>>>>Begin Spectral Data<<<<<
179.3399	-0.7009
179.5586	-0.7009
179.7771	-0.7009
179.9957	-0.1488
180.2143	-0
180.4329	-0
180.6514	-0
180.8699	0.7428
181.0885	-0
181.307	0.048
181.5255	0.2115
181.744	-0
181.9625	0.111
182.181	-0
182.3994	-0.7242
182.6179	-0.0225
182.8363	-0
183.0547	0.1273
183.2732	0.1981
183.4916	0.176
183.71	0.113
183.9284	0.3321
184.1467	0.7297
184.3651	-0.0309
184.5835	0.1504
184.8018	0.1594
185.0201	0.1242
185.2385	0.321
185.4568	0.4914
185.6751	0.122
185.8934	0.2482
186.1117	0.0206
186.3299	0.3175
186.5482	0.2402
186.7664	0.0804
186.9847	0.1074
187.2029	0.2622
187.4211	0.0055
187.6393	0.2056
187.8575	0.2599
188.0757	0.4857
188.2939	0.2656
188.512	0.2684
188.7302	0.1934
188.9483	0.5454
189.1665	0.3264
189.3846	0.3757
189.6027	0.2395
189.8208	0.2854
190.0389	0.2166
190.257	0.075
190.475	-0.0019
190.6931	0.0857
190.9111	0.0804
191.1292	0.1724
191.3472	0.2447
191.5652	0.2036
191.7832	0.3459
192.0012	0.1275
192.2192	0.1134
192.4371	0.2444
192.6551	0.1956
192.873	0.1913
193.091	0.1313
193.3089	0.1085
193.5268	0.2767
193.7447	0.2483
193.9626	0.2016
194.1805	0.299
194.3984	0.2776
194.6162	0.2522
194.8341	0.2911
195.0519	0.2141
195.2697	0.2874
195.4875	0.3402
195.7054	0.2047
195.9231	0.2579
196.1409	0.3246
196.3587	0.3202
196.5765	0.2923
196.7942	0.3055
197.012	0.3584
197.2297	0.3013
197.4474	0.3868
197.6651	0.3259
197.8828	0.3764
198.1005	0.3862
198.3182	0.3848
198.5358	0.3501
198.7535	0.4343
198.9711	0.3731
199.1888	0.3507
199.4064	0.3719
199.624	0.3625
199.8416	0.3891
200.0592	0.4056
200.2767	0.3826
200.4943	0.3938
200.7119	0.4295
200.9294	0.4659
201.1469	0.4257
201.3645	0.4366
201.582	0.3955
201.7995	0.3832
202.017	0.451
202.2344	0.3838
202.4519	0.3625
202.6694	0.4323
202.8868	0.3976
203.1042	0.4005
203.3217	0.3689
203.5391	0.3965
203.7565	0.3602
203.9739	0.3986
204.1913	0.3608
204.4086	0.3425
204.626	0.3646
204.8433	0.3432
205.0607	0.3297
205.278	0.3401
205.4953	0.3472
205.7126	0.3459
205.9299	0.3106
206.1472	0.3371
206.3644	0.3348
206.5817	0.3283
206.7989	0.3481
207.0162	0.3172
207.2334	0.3188
207.4506	0.3112
207.6678	0.3146
207.885	0.268
208.1022	0.3207
208.3194	0.2852
208.5365	0.2955
208.7537	0.2984
208.9708	0.3106
209.1879	0.3218
209.405	0.2711
209.6222	0.2644
209.8392	0.2927
210.0563	0.2685
210.2734	0.2604
210.4905	0.3045
210.7075	0.2729
210.9245	0.2451
211.1416	0.2864
211.3586	0.2769
211.5756	0.2521
211.7926	0.2767
212.0096	0.2492
212.2265	0.2572
212.4435	0.2585
212.6604	0.2555
212.8774	0.2392
213.0943	0.2651
213.3112	0.2526
213.5281	0.2597
213.745	0.2265
213.9619	0.2633
214.1788	0.2795
214.3956	0.2408
214.6125	0.2438
214.8293	0.2516
215.0461	0.2548
215.2629	0.2699
215.4798	0.2533
215.6965	0.2443
215.9133	0.2544
216.1301	0.2447
216.3469	0.2474
216.5636	0.2524
216.7803	0.2481
216.9971	0.2473
217.2138	0.2533
217.4305	0.2527
217.6472	0.2419
217.8639	0.2455
218.0805	0.2554
218.2972	0.2484
218.5138	0.2569
218.7305	0.2531
218.9471	0.2418
219.1637	0.255
219.3803	0.2601
219.5969	0.2569
219.8135	0.2576
220.0301	0.263
220.2466	0.2582
220.4632	0.249
220.6797	0.2566
220.8962	0.2689
221.1127	0.2798
221.3292	0.2806
221.5457	0.2718
221.7622	0.2682
221.9787	0.2964
222.1951	0.2625
222.4116	0.2644
222.628	0.281
222.8444	0.2683
223.0608	0.2734
223.2772	0.2778
223.4936	0.2792
223.71	0.2858
223.9264	0.2797
224.1427	0.2836
224.3591	0.2874
224.5754	0.2994
224.7917	0.2927
225.008	0.2871
225.2243	0.3107
225.4406	0.2948
225.6569	0.3015
225.8732	0.3009
226.0894	0.3028
226.3057	0.3052
226.5219	0.3116
226.7381	0.315
226.9543	0.3128
227.1705	0.3119
227.3867	0.3182
227.6029	0.3219
227.8191	0.3409
228.0352	0.338
228.2513	0.3513
228.4675	0.3358
228.6836	0.3425
228.8997	0.3451
229.1158	0.3502
229.3319	0.3706
229.548	0.349
229.764	0.3633
229.9801	0.3751
230.1961	0.3681
230.4121	0.3831
230.6282	0.3796
230.8442	0.3872
231.0602	0.3798
231.2761	0.39
231.4921	0.3887
231.7081	0.3965
231.924	0.4026
232.14	0.4102
232.3559	0.4115
232.5718	0.4014
232.7877	0.4167
233.0036	0.3971
233.2195	0.4077
233.4353	0.4234
233.6512	0.4283
233.867	0.4169
234.0829	0.4254
234.2987	0.4295
234.5145	0.4371
234.7303	0.4288
234.9461	0.4377
235.1619	0.4599
235.3776	0.4335
235.5934	0.4355
235.8091	0.4465
236.0249	0.4585
236.2406	0.4334
236.4563	0.4492
236.672	0.449
236.8877	0.4497
237.1034	0.4485
237.319	0.4506
237.5347	0.4535
237.7503	0.4535
237.966	0.4585
238.1816	0.4649
238.3972	0.4523
238.6128	0.4743
238.8284	0.4544
239.0439	0.4672
239.2595	0.467
239.475	0.4649
239.6906	0.4655
239.9061	0.4645
240.1216	0.4631
240.3371	0.4627
240.5526	0.469
240.7681	0.467
240.9836	0.465
241.199	0.4491
241.4145	0.4605
241.6299	0.446
241.8453	0.4375
242.0607	0.4482
242.2761	0.451
242.4915	0.4326
242.7069	0.4214
242.9223	0.4315
243.1376	0.4091
243.353	0.404
243.5683	0.4065
243.7836	0.3988
243.9989	0.3838
244.2142	0.3805
244.4295	0.3793
244.6448	0.3617
244.86	0.3587
245.0753	0.3488
245.2905	0.3481
245.5057	0.3402
245.721	0.3387
245.9362	0.3372
246.1514	0.3198
246.3665	0.3121
246.5817	0.3037
246.7969	0.3069
247.012	0.2934
247.2271	0.2963
247.4423	0.291
247.6574	0.2847
247.8725	0.2804
248.0876	0.2778
248.3026	0.2691
248.5177	0.2592
248.7328	0.2535
248.9478	0.2565
249.1628	0.2554
249.3779	0.2473
249.5929	0.2422
249.8079	0.2449
250.0228	0.2332
250.2378	0.2339
250.4528	0.2338
250.6677	0.2217
250.8827	0.2186
251.0976	0.2171
251.3125	0.2205
251.5274	0.2139
251.7423	0.2057
251.9572	0.2129
252.172	0.2117
252.3869	0.2061
252.6017	0.2024
252.8166	0.206
253.0314	0.2015
253.2462	0.2045
253.461	0.1991
253.6758	0.1966
253.8906	0.1975
254.1053	0.1933
254.3201	0.1975
254.5348	0.1922
254.7496	0.1906
254.9643	0.1941
255.179	0.1859
255.3937	0.1923
255.6083	0.1898
255.823	0.1886
256.0377	0.1836
256.2523	0.1887
256.467	0.1899
256.6816	0.1793
256.8962	0.1892
257.1108	0.1863
257.3254	0.1832
257.54	0.185
257.7545	0.1856
257.9691	0.1835
258.1836	0.1815
258.3981	0.1834
258.6127	0.1753
258.8272	0.1842
259.0417	0.1798
259.2561	0.1849
259.4706	0.1788
259.6851	0.1839
259.8995	0.1751
260.114	0.1835
260.3284	0.1778
260.5428	0.1826
260.7572	0.1793
260.9716	0.1859
261.186	0.1813
261.4003	0.1784
261.6147	0.1821
261.829	0.1786
262.0433	0.1826
262.2577	0.1813
262.472	0.1744
262.6863	0.1918
262.9005	0.1781
263.1148	0.1749
263.3291	0.1856
263.5433	0.1845
263.7576	0.184
263.9718	0.1874
264.186	0.1832
264.4002	0.1836
264.6144	0.1941
264.8286	0.1871
265.0427	0.1929
265.2569	0.1881
265.471	0.1867
265.6851	0.1871
265.8993	0.1817
266.1134	0.1849
266.3275	0.1877
266.5415	0.19
266.7556	0.1896
266.9697	0.1868
267.1837	0.1893
267.3978	0.1876
267.6118	0.1854
267.8258	0.1915
268.0398	0.1879
268.2538	0.1883
268.4677	0.1839
268.6817	0.1811
268.8957	0.1841
269.1096	0.1789
269.3235	0.1792
269.5374	0.1878
269.7514	0.1821
269.9652	0.1821
270.1791	0.1728
270.393	0.1791
270.6068	0.1807
270.8207	0.179
271.0345	0.1802
271.2483	0.1728
271.4622	0.183
271.676	0.1752
271.8897	0.1819
272.1035	0.1823
272.3173	0.1779
272.531	0.1744
272.7448	0.1798
272.9585	0.1739
273.1722	0.1744
273.3859	0.1767
273.5996	0.1832
273.8133	0.1831
274.0269	0.1738
274.2406	0.1836
274.4542	0.1816
274.6679	0.1796
274.8815	0.1844
275.0951	0.1937
275.3087	0.1871
275.5223	0.1799
275.7358	0.1845
275.9494	0.1874
276.1629	0.1943
276.3765	0.1802
276.59	0.1794
276.8035	0.1796
277.017	0.1884
277.2305	0.1898
277.444	0.1876
277.6574	0.1842
277.8709	0.1942
278.0843	0.1929
278.2978	0.1899
278.5112	0.1931
278.7246	0.1866
278.938	0.1877
279.1513	0.1837
279.3647	0.1862
279.5781	0.1849
279.7914	0.1873
280.0047	0.1901
280.2181	0.1867
280.4314	0.1885
280.6447	0.1952
280.8579	0.1906
281.0712	0.1882
281.2845	0.183
281.4977	0.1907
281.711	0.1883
281.9242	0.1879
282.1374	0.1859
282.3506	0.1933
282.5638	0.1887
282.7769	0.1847
282.9901	0.193
283.2033	0.1903
283.4164	0.1877
283.6295	0.1876
283.8426	0.185
284.0557	0.191
284.2688	0.1935
284.4819	0.1878
284.695	0.1931
284.908	0.1915
285.1211	0.1886
285.3341	0.1841
285.5471	0.198
285.7601	0.1906
285.9731	0.1926
286.1861	0.1917
286.3991	0.1936
286.612	0.1913
286.825	0.1939
287.0379	0.189
287.2508	0.192
287.4637	0.1921
287.6766	0.1942
287.8895	0.1901
288.1024	0.1934
288.3152	0.1943
288.5281	0.1886
288.7409	0.198
288.9538	0.1953
289.1666	0.1944
289.3794	0.1919
289.5922	0.1918
289.8049	0.1851
290.0177	0.1894
290.2304	0.1967
290.4432	0.1941
290.6559	0.1968
290.8686	0.1993
291.0813	0.1978
291.294	0.1921
291.5067	0.1935
291.7194	0.1944
291.932	0.1981
292.1447	0.1964
292.3573	0.1951
292.5699	0.1983
292.7825	0.1929
292.9951	0.1919
293.2077	0.191
293.4203	0.2016
293.6328	0.1929
293.8454	0.202
294.0579	0.1918
294.2704	0.203
294.4829	0.1914
294.6954	0.1998
294.9079	0.1925
295.1204	0.1913
295.3328	0.2036
295.5453	0.1931
295.7577	0.1952
295.9701	0.2047
296.1825	0.2029
296.3949	0.1887
296.6073	0.191
296.8197	0.1961
297.0321	0.1961
297.2444	0.1941
297.4567	0.1943
297.6691	0.1921
297.8814	0.1953
298.0937	0.1962
298.306	0.1972
298.5182	0.1964
298.7305	0.1957
298.9428	0.2021
299.155	0.1951
299.3672	0.1958
299.5794	0.2018
299.7916	0.1959
300.0038	0.1979
300.216	0.1925
300.4282	0.1955
300.6403	0.2024
300.8525	0.1949
301.0646	0.1933
301.2767	0.1945
301.4888	0.1936
301.7009	0.1984
301.913	0.2014
302.125	0.1954
302.3371	0.1975
302.5491	0.1972
302.7612	0.2051
302.9732	0.1985
303.1852	0.1942
303.3972	0.1991
303.6092	0.1993
303.8211	0.1925
304.0331	0.1933
304.245	0.196
304.457	0.1911
304.6689	0.1905
304.8808	0.1857
305.0927	0.2012
305.3046	0.1857
305.5164	0.1838
305.7283	0.1858
305.9401	0.1783
306.152	0.179
306.3638	0.1841
306.5756	0.1886
306.7874	0.1764
306.9992	0.1762
307.2109	0.1807
307.4227	0.173
307.6344	0.178
307.8462	0.1749
308.0579	0.1762
308.2696	0.174
308.4813	0.1712
308.693	0.172
308.9046	0.1672
309.1163	0.166
309.328	0.1694
309.5396	0.1579
309.7512	0.159
309.9628	0.1595
310.1744	0.1566
310.386	0.1567
310.5976	0.1557
310.8091	0.1497
311.0207	0.156
311.2322	0.1517
311.4437	0.1543
311.6552	0.1487
311.8667	0.153
312.0782	0.1496
312.2897	0.1476
312.5012	0.145
312.7126	0.1412
312.924	0.1458
313.1355	0.1439
313.3469	0.1406
313.5583	0.1407
313.7696	0.1393
313.981	0.1443
314.1924	0.1343
314.4037	0.1301
314.6151	0.136
314.8264	0.1453
315.0377	0.1394
315.249	0.1444
315.4603	0.1315
315.6716	0.1408
315.8828	0.1438
316.0941	0.1353
316.3053	0.1295
316.5165	0.1384
316.7277	0.1324
316.9389	0.1359
317.1501	0.1367
317.3613	0.1339
317.5724	0.1292
317.7836	0.1307
317.9947	0.1326
318.2058	0.1316
318.417	0.1361
318.6281	0.1337
318.8391	0.1328
319.0502	0.1314
319.2613	0.1298
319.4723	0.1313
319.6834	0.1301
319.8944	0.1283
320.1054	0.1323
320.3164	0.1245
320.5274	0.1294
320.7383	0.1338
320.9493	0.1262
321.1602	0.13
321.3712	0.1284
321.5821	0.1293
321.793	0.134
322.0039	0.135
322.2148	0.1272
322.4257	0.131
322.6365	0.1323
322.8474	0.1373
323.0582	0.131
323.269	0.1325
323.4798	0.1345
323.6906	0.1297
323.9014	0.124
324.1122	0.127
324.3229	0.1394
324.5337	0.1398
324.7444	0.1356
324.9551	0.1319
325.1658	0.1305
325.3765	0.1361
325.5872	0.1382
325.7979	0.1297
326.0085	0.1318
326.2192	0.1348
326.4298	0.1386
326.6404	0.1442
326.851	0.1315
327.0616	0.1407
327.2722	0.1327
327.4828	0.1358
327.6933	0.1472
327.9039	0.1358
328.1144	0.1366
328.3249	0.1365
328.5354	0.1413
328.7459	0.1384
328.9564	0.1422
329.1669	0.1436
329.3773	0.1396
329.5878	0.1436
329.7982	0.1418
330.0086	0.1372
330.219	0.1383
330.4294	0.1408
330.6398	0.1458
330.8502	0.1478
331.0605	0.1365
331.2708	0.1379
331.4812	0.1412
331.6915	0.1415
331.9018	0.1376
332.1121	0.1471
332.3224	0.1483
332.5326	0.1358
332.7429	0.1411
332.9531	0.1488
333.1633	0.1433
333.3735	0.1417
333.5837	0.142
333.7939	0.1413
334.0041	0.1492
334.2143	0.1438
334.4244	0.1492
334.6346	0.1385
334.8447	0.1451
335.0548	0.1549
335.2649	0.1465
335.475	0.1443
335.685	0.1483
335.8951	0.1397
336.1051	0.1527
336.3152	0.1475
336.5252	0.1424
336.7352	0.1429
336.9452	0.1474
337.1552	0.1496
337.3652	0.1466
337.5751	0.1441
337.7851	0.1457
337.995	0.1487
338.2049	0.1507
338.4148	0.1506
338.6247	0.1458
338.8346	0.1501
339.0445	0.1464
339.2543	0.1479
339.4642	0.1492
339.674	0.1437
339.8838	0.1597
340.0936	0.1474
340.3034	0.1479
340.5132	0.1464
340.7229	0.1487
340.9327	0.1592
341.1424	0.1501
341.3522	0.1491
341.5619	0.1539
341.7716	0.1537
341.9813	0.1575
342.1909	0.1556
342.4006	0.1503
342.6102	0.1541
342.8199	0.1584
343.0295	0.1623
343.2391	0.1612
343.4487	0.1625
343.6583	0.1637
343.8679	0.1578
344.0774	0.1615
344.287	0.1603
344.4965	0.1646
344.706	0.1686
344.9155	0.1598
345.125	0.1675
345.3345	0.1731
345.544	0.1651
345.7534	0.1692
345.9629	0.1654
346.1723	0.1687
346.3817	0.1687
346.5911	0.1691
346.8005	0.1731
347.0099	0.1666
347.2193	0.1788
347.4286	0.1738
347.638	0.1751
347.8473	0.1758
348.0566	0.1732
348.2659	0.1743
348.4752	0.1743
348.6845	0.179
348.8937	0.1781
349.103	0.1812
349.3122	0.1731
349.5214	0.1759
349.7306	0.1829
349.9398	0.1735
350.149	0.1779
350.3582	0.1761
350.5674	0.1781
350.7765	0.1831
350.9856	0.1794
351.1948	0.1854
351.4039	0.1859
351.613	0.1838
351.822	0.1885
352.0311	0.1774
352.2402	0.1838
352.4492	0.1885
352.6582	0.1909
352.8672	0.1795
353.0762	0.1871
353.2852	0.1868
353.4942	0.1872
353.7032	0.1838
353.9121	0.1877
354.1211	0.1891
354.33	0.1944
354.5389	0.1859
354.7478	0.1828
354.9567	0.1923
355.1655	0.1882
355.3744	0.191
355.5833	0.1922
355.7921	0.1929
356.0009	0.1875
356.2097	0.1838
356.4185	0.1894
356.6273	0.1919
356.8361	0.1956
357.0448	0.1905
357.2536	0.1952
357.4623	0.1991
357.671	0.1973
357.8797	0.193
358.0884	0.195
358.2971	0.192
358.5057	0.2028
358.7144	0.1983
358.923	0.1991
359.1316	0.2006
359.3402	0.1937
359.5488	0.205
359.7574	0.2113
359.966	0.2006
360.1746	0.2005
360.3831	0.2086
360.5916	0.2042
360.8002	0.2192
361.0087	0.2042
361.2172	0.207
361.4256	0.2138
361.6341	0.2128
361.8426	0.2199
362.051	0.2137
362.2594	0.2105
362.4678	0.2124
362.6762	0.2188
362.8846	0.2123
363.093	0.2252
363.3014	0.2229
363.5097	0.2222
363.718	0.2304
363.9264	0.2212
364.1347	0.2255
364.343	0.2288
364.5513	0.2235
364.7595	0.2362
364.9678	0.2268
365.176	0.2323
365.3842	0.2389
365.5925	0.2255
365.8007	0.2237
366.0089	0.2485
366.217	0.2353
366.4252	0.2317
366.6333	0.2293
366.8415	0.24
367.0496	0.2366
367.2577	0.2481
367.4658	0.2368
367.6739	0.2371
367.882	0.2356
368.09	0.2455
368.2981	0.2378
368.5061	0.2372
368.7141	0.2364
368.9221	0.246
369.1301	0.248
369.3381	0.2543
369.5461	0.2491
369.754	0.2494
369.962	0.2449
370.1699	0.2509
370.3778	0.2535
370.5857	0.2508
370.7936	0.2537
371.0015	0.2475
371.2093	0.2561
371.4172	0.2573
371.625	0.2539
371.8328	0.2442
372.0406	0.2623
372.2484	0.2569
372.4562	0.2631
372.664	0.2596
372.8717	0.2633
373.0795	0.2619
373.2872	0.2645
373.4949	0.2606
373.7026	0.2669
373.9103	0.2627
374.118	0.2702
374.3256	0.2678
374.5333	0.2687
374.7409	0.2676
374.9485	0.2528
375.1561	0.2726
375.3637	0.266
375.5713	0.2697
375.7789	0.2765
375.9864	0.2646
376.194	0.2763
376.4015	0.2776
376.609	0.2718
376.8165	0.2706
377.024	0.2808
377.2315	0.283
377.4389	0.2732
377.6464	0.2817
377.8538	0.2756
378.0612	0.2822
378.2686	0.2822
378.476	0.2851
378.6834	0.2767
378.8908	0.2874
379.0981	0.2855
379.3055	0.2817
379.5128	0.2755
379.7201	0.287
379.9274	0.2853
380.1347	0.2825
380.342	0.2948
380.5492	0.2924
380.7565	0.2847
380.9637	0.2908
381.1709	0.2864
381.3781	0.3009
381.5853	0.2843
381.7925	0.2873
381.9997	0.3026
382.2068	0.2925
382.4139	0.2967
382.6211	0.3027
382.8282	0.2996
383.0353	0.2929
383.2424	0.2934
383.4494	0.3061
383.6565	0.2973
383.8635	0.2968
384.0706	0.3092
384.2776	0.3032
384.4846	0.2996
384.6916	0.2989
384.8986	0.3031
385.1055	0.3062
385.3125	0.3003
385.5194	0.3027
385.7263	0.2993
385.9333	0.3005
386.1402	0.2948
386.347	0.3045
386.5539	0.3046
386.7608	0.2986
386.9676	0.3033
387.1744	0.3104
387.3813	0.3007
387.5881	0.2841
387.7948	0.3058
388.0016	0.3089
388.2084	0.2948
388.4151	0.2968
388.6219	0.2974
388.8286	0.2961
389.0353	0.305
389.242	0.2994
389.4487	0.2963
389.6553	0.2986
389.862	0.2846
390.0686	0.3023
390.2753	0.2927
390.4819	0.294
390.6885	0.2893
390.8951	0.2865
391.1016	0.2849
391.3082	0.2839
391.5147	0.2829
391.7213	0.2804
391.9278	0.2844
392.1343	0.2821
392.3408	0.2821
392.5473	0.2718
392.7537	0.2802
392.9602	0.2805
393.1666	0.2821
393.373	0.2799
393.5794	0.2796
393.7858	0.2742
393.9922	0.2791
394.1986	0.2746
394.4049	0.2742
394.6113	0.2677
394.8176	0.2618
395.0239	0.2628
395.2302	0.2739
395.4365	0.2779
395.6428	0.2651
395.8491	0.2592
396.0553	0.2552
396.2615	0.267
396.4678	0.2736
396.674	0.2569
396.8802	0.2612
397.0863	0.2567
397.2925	0.255
397.4987	0.2601
397.7048	0.2585
397.9109	0.2574
398.117	0.2567
398.3231	0.2589
398.5292	0.2556
398.7353	0.2552
398.9413	0.2515
399.1474	0.2577
399.3534	0.2587
399.5594	0.2657
399.7654	0.2468
399.9714	0.2504
400.1774	0.2518
400.3833	0.2594
400.5893	0.2474
400.7952	0.2655
401.0011	0.2535
401.207	0.258
401.4129	0.2502
401.6188	0.2566
401.8247	0.2523
402.0305	0.2582
402.2364	0.2592
402.4422	0.257
402.648	0.253
402.8538	0.2513
403.0596	0.2488
403.2654	0.2595
403.4711	0.2555
403.6768	0.2548
403.8826	0.2559
404.0883	0.25
404.294	0.2481
404.4997	0.2529
404.7054	0.2576
404.911	0.2496
405.1167	0.2574
405.3223	0.25
405.5279	0.2478
405.7335	0.2515
405.9391	0.2429
406.1447	0.2635
406.3502	0.2535
406.5558	0.2521
406.7613	0.2542
406.9668	0.2518
407.1724	0.2484
407.3778	0.2594
407.5833	0.2467
407.7888	0.2523
407.9942	0.2557
408.1997	0.2499
408.4051	0.2534
408.6105	0.2644
408.8159	0.2465
409.0213	0.2528
409.2267	0.2591
409.432	0.2475
409.6374	0.2584
409.8427	0.2543
410.048	0.252
410.2533	0.2507
410.4586	0.2535
410.6639	0.2574
410.8691	0.2409
411.0744	0.2512
411.2796	0.248
411.4848	0.2546
411.69	0.256
411.8952	0.2513
412.1004	0.2577
412.3056	0.2464
412.5107	0.2506
412.7158	0.2653
412.921	0.2469
413.1261	0.2578
413.3312	0.2509
413.5362	0.2558
413.7413	0.2555
413.9464	0.2432
414.1514	0.2512
414.3564	0.2533
414.5614	0.2519
414.7664	0.2419
414.9714	0.2469
415.1764	0.2552
415.3813	0.2481
415.5863	0.2552
415.7912	0.2359
415.9961	0.2417
416.201	0.2568
416.4059	0.2506
416.6108	0.2422
416.8156	0.2327
417.0205	0.2447
417.2253	0.245
417.4301	0.2506
417.6349	0.2485
417.8397	0.2392
418.0445	0.2388
418.2492	0.2386
418.454	0.2497
418.6587	0.246
418.8634	0.2382
419.0681	0.24
419.2728	0.2405
419.4775	0.2522
419.6822	0.2277
419.8868	0.2448
420.0915	0.2359
420.2961	0.2294
420.5007	0.2327
420.7053	0.2365
420.9099	0.2415
421.1144	0.2343
421.319	0.2347
421.5235	0.223
421.728	0.2359
421.9325	0.2395
422.137	0.226
422.3415	0.2285
422.546	0.2239
422.7504	0.222
422.9549	0.2287
423.1593	0.2267
423.3637	0.2231
423.5681	0.2208
423.7725	0.2261
423.9769	0.2274
424.1812	0.2208
424.3856	0.2189
424.5899	0.214
424.7942	0.2128
424.9985	0.2287
425.2028	0.2224
425.4071	0.2216
425.6113	0.2198
425.8156	0.2112
426.0198	0.2207
426.224	0.2138
426.4282	0.2141
426.6324	0.2075
426.8366	0.2161
427.0407	0.2214
427.2449	0.2036
427.449	0.2051
427.6531	0.2129
427.8572	0.2147
428.0613	0.2052
428.2654	0.1989
428.4694	0.1927
428.6735	0.2023
428.8775	0.2025
429.0815	0.19
429.2855	0.1964
429.4895	0.1992
429.6935	0.1929
429.8975	0.1877
430.1014	0.1957
430.3053	0.1945
430.5093	0.1802
430.7132	0.184
430.9171	0.1867
431.1209	0.1952
431.3248	0.1769
431.5286	0.1763
431.7325	0.184
431.9363	0.1695
432.1401	0.1707
432.3439	0.1729
432.5477	0.1708
432.7514	0.1737
432.9552	0.1596
433.1589	0.1628
433.3627	0.1616
433.5664	0.1573
433.7701	0.1685
433.9737	0.1708
434.1774	0.1663
434.3811	0.1563
434.5847	0.1642
434.7883	0.1591
434.9919	0.1514
435.1955	0.1503
435.3991	0.1544
435.6027	0.146
435.8062	0.1607
436.0098	0.1383
436.2133	0.1357
436.4168	0.1374
436.6203	0.1321
436.8238	0.1368
437.0272	0.1446
437.2307	0.1326
437.4341	0.1408
437.6375	0.1336
437.841	0.1306
438.0443	0.1322
438.2477	0.1195
438.4511	0.1166
438.6545	0.1272
438.8578	0.1258
439.0611	0.1327
439.2644	0.1294
439.4677	0.1201
439.671	0.1135
439.8743	0.1149
440.0775	0.1151
440.2808	0.1109
440.484	0.1113
440.6872	0.1115
440.8904	0.1113
441.0936	0.1117
441.2967	0.1008
441.4999	0.101
441.703	0.0939
441.9062	0.1063
442.1093	0.1104
442.3124	0.0944
442.5155	0.1061
442.7185	0.0894
442.9216	0.0986
443.1246	0.087
443.3276	0.0893
443.5307	0.0803
443.7337	0.0887
443.9366	0.0878
444.1396	0.0845
444.3426	0.0926
444.5455	0.0839
444.7484	0.0873
444.9513	0.0791
445.1542	0.0809
445.3571	0.0788
445.56	0.0717
445.7628	0.0794
445.9657	0.0718
446.1685	0.0777
446.3713	0.0816
446.5741	0.073
446.7769	0.0642
446.9797	0.0733
447.1824	0.0697
447.3852	0.0559
447.5879	0.0627
447.7906	0.0552
447.9933	0.0597
448.196	0.058
448.3986	0.0556
448.6013	0.0481
448.8039	0.0601
449.0066	0.0636
449.2092	0.0636
449.4118	0.0617
449.6143	0.0618
449.8169	0.0535
450.0195	0.0585
450.222	0.0548
450.4245	0.0504
450.627	0.0494
450.8295	0.0454
451.032	0.048
451.2345	0.0434
451.4369	0.0435
451.6394	0.0535
451.8418	0.0494
452.0442	0.0476
452.2466	0.0393
452.449	0.0463
452.6513	0.0405
452.8537	0.0425
453.056	0.0434
453.2583	0.0401
453.4607	0.0318
453.663	0.0463
453.8652	0.0315
454.0675	0.0435
454.2697	0.0382
454.472	0.0327
454.6742	0.0398
454.8764	0.0462
455.0786	0.0417
455.2808	0.0317
455.4829	0.0352
455.6851	0.0388
455.8872	0.0261
456.0893	0.0286
456.2915	0.0276
456.4935	0.0402
456.6956	0.035
456.8977	0.0249
457.0997	0.0366
457.3018	0.0305
457.5038	0.0319
457.7058	0.039
457.9078	0.029
458.1098	0.0295
458.3117	0.0321
458.5137	0.0165
458.7156	0.031
458.9175	0.028
459.1194	0.0265
459.3213	0.0303
459.5232	0.0298
459.725	0.0278
459.9269	0.0222
460.1287	0.0212
460.3305	0.0275
460.5323	0.0238
460.7341	0.0291
460.9359	0.0147
461.1376	0.0165
461.3394	0.0323
461.5411	0.0293
461.7428	0.0218
461.9445	0.0231
462.1462	0.023
462.3479	0.0193
462.5495	0.0218
462.7512	0.0343
462.9528	0.0253
463.1544	0.0187
463.356	0.0166
463.5576	0.0222
463.7592	0.0211
463.9607	0.0228
464.1623	0.0271
464.3638	0.0165
464.5653	0.0156
464.7668	0.0214
464.9683	0.0171
465.1697	0.0118
465.3712	0.0043
465.5726	0.0138
465.7741	0.0252
465.9755	0.017
466.1769	0.014
466.3782	0.0083
466.5796	0.0228
466.7809	0.0271
466.9823	0.0189
467.1836	0.0122
467.3849	0.0146
467.5862	0.014
467.7875	0.015
467.9887	0.0148
468.19	0.0156
468.3912	0.0167
468.5924	0.0124
468.7936	0.0146
468.9948	0.016
469.196	0.0111
469.3972	0.0053
469.5983	0.0124
469.7994	0.0187
470.0006	0.0149
470.2017	0.0092
470.4027	0.0269
470.6038	0.0105
470.8049	0.0104
471.0059	0.0151
471.2069	0.0206
471.408	0.0223
471.6089	0.0232
471.8099	0.0119
472.0109	0.0129
472.2119	0.023
472.4128	0.0132
472.6137	0.0137
472.8146	0.0091
473.0155	0.0246
473.2164	0.0093
473.4173	0
473.6181	0.0044
473.819	0.0117
474.0198	0.0057
474.2206	0.0057
474.4214	0.0155
474.6222	0.0046
474.8229	0.006
475.0237	0.014
475.2244	0.016
475.4251	0.0188
475.6258	0.0123
475.8265	0.0138
476.0272	0.0063
476.2278	0.0057
476.4285	0.012
476.6291	0.0156
476.8297	0.0125
477.0303	0.0117
477.2309	0.0113
477.4315	0.0089
477.632	0.0082
477.8326	0.0157
478.0331	0.016
478.2336	0.0195
478.4341	0.0144
478.6346	0.0101
478.8351	0.0073
479.0355	0.0077
479.236	0.012
479.4364	0.0114
479.6368	0.0166
479.8372	0.0096
480.0376	0.0053
480.2379	0.0116
480.4383	0.0163
480.6386	0.0033
480.8389	0.0089
481.0392	0.0123
481.2395	0.0199
481.4398	0.0103
481.6401	0.016
481.8403	0.0048
482.0405	0.0187
482.2408	0.014
482.441	0.0095
482.6411	0.0131
482.8413	0.0043
483.0415	0.0171
483.2416	0.0103
483.4417	0.0099
483.6419	0.0083
483.8419	0.0164
484.042	0.0096
484.2421	0.0074
484.4422	0.0116
484.6422	0.0149
484.8422	0.0094
485.0422	0.0091
485.2422	0.0075
485.4422	0.0085
485.6422	0.0071
485.8421	0.0068
486.042	0.0171
486.242	0.0087
486.4419	0.013
486.6417	0.0073
486.8416	0.0113
487.0415	0.0078
487.2413	-0.0001
487.4411	0.0121
487.641	0.0092
487.8408	0.0199
488.0405	0.016
488.2403	0.0097
488.4401	0.0071
488.6398	0.0137
488.8395	0.0127
489.0392	0.0118
489.2389	0.0128
489.4386	0.0082
489.6383	0.0146
489.8379	0.0092
490.0376	0.0125
490.2372	0.0104
490.4368	0.0055
490.6364	0.0034
490.836	0.004
491.0355	0.002
491.2351	0.0125
491.4346	0.011
491.6341	-0.0015
491.8336	0.0121
492.0331	0.0088
492.2326	0.0097
492.432	0.0097
492.6315	0.0159
492.8309	0.0117
493.0303	0.0157
493.2297	0.0103
493.4291	0.007
493.6284	0.0152
493.8278	0.0105
494.0271	0.0122
494.2264	0.0052
494.4257	0.0165
494.625	0.0066
494.8243	0.0059
495.0236	0.0198
495.2228	0.0142
495.422	0.0122
495.6213	0.0044
495.8205	0.0114
496.0196	0.0086
496.2188	0.0116
496.418	0.015
496.6171	0.0072
496.8162	0.0145
497.0153	0.0194
497.2144	0.0154
497.4135	0.0117
497.6126	0.0093
497.8116	0.0045
498.0107	0.0176
498.2097	0.018
498.4087	0.0096
498.6077	0.0102
498.8067	0.0162
499.0056	0.0073
499.2046	0.0094
499.4035	0.0092
499.6024	0.0004
499.8013	0.0122
500.0002	0.0126
500.199	0.0186
500.3979	0.0097
500.5967	0.0072
500.7956	0.0112
500.9944	0.0145
501.1932	0.0124
501.3919	0.0195
501.5907	0.0178
501.7895	0.011
501.9882	0.0075
502.1869	0.0167
502.3856	0.0031
502.5843	0.0055
502.783	0.0152
502.9816	0.0169
503.1803	0.0138
503.3789	0.0132
503.5775	0.0062
503.7761	0.0016
503.9747	0.0075
504.1732	0.0014
504.3718	0.0178
504.5703	0.0064
504.7689	0.0065
504.9674	0.0117
505.1658	0.014
505.3643	0.0077
505.5628	0.0157
505.7612	0.0157
505.9597	0.0095
506.1581	0.0061
506.3565	0.0084
506.5549	0.0152
506.7532	0.0011
506.9516	0.0092
507.1499	0.0059
507.3482	0.0059
507.5465	0.012
507.7448	0.0179
507.9431	0.0109
508.1414	0.0127
508.3396	0.0094
508.5379	0.0063
508.7361	0.0146
508.9343	0.0087
509.1325	0.0071
509.3306	0.0127
509.5288	0.0062
509.7269	0.0197
509.9251	0.0122
510.1232	0.0113
510.3213	0.0067
510.5193	0.0171
510.7174	0.0071
510.9154	0.0121
511.1135	0.004
511.3115	0.0062
511.5095	0.0109
511.7075	0.0196
511.9055	0.0134
512.1034	0.0051
512.3014	0.019
512.4993	0.0061
512.6972	0.0117
512.8951	0.0091
513.093	0.0022
513.2908	0.0101
513.4887	0.0091
513.6865	0.0105
513.8844	0.0153
514.0822	0.001
514.2799	0.0116
514.4777	-0.0007
514.6755	0.0125
514.8732	0.007
515.0709	0.0058
515.2687	0.0118
515.4664	0.015
515.664	0.0188
515.8617	0.0136
516.0594	0.012
516.257	0.0137
516.4546	0.0234
516.6522	0.017
516.8498	0.0046
517.0474	0.0129
517.2449	0.0025
517.4425	0.0078
517.64	0.0113
517.8375	0.0136
518.035	0.0081
518.2325	0.0043
518.43	0.0104
518.6274	0.0075
518.8249	0.0152
519.0223	0.0142
519.2197	0.0088
519.4171	0.0015
519.6145	0.0166
519.8118	-0.0027
520.0092	0.0096
520.2065	0.0225
520.4038	0.0007
520.6011	0.021
520.7984	0.016
520.9956	0.0054
521.1929	0.018
521.3901	0.0129
521.5874	0.0256
521.7846	0.0012
521.9818	0.0159
522.1789	0.0098
522.3761	0.0251
522.5732	0.0167
522.7704	-0.0044
522.9675	0.0041
523.1646	0.0048
523.3617	0.0215
523.5587	0.0133
523.7558	0.0128
523.9528	0.0277
524.1498	-0.0036
524.3468	0.0116
524.5438	0.0113
524.7408	0.012
524.9378	0.0184
525.1347	0.013
525.3316	0.0078
525.5285	0.0078
525.7254	0.0157
525.9223	0.016
526.1192	0.0211
526.316	0.0128
526.5129	0.0184
526.7097	0.0065
526.9065	0.01
527.1033	0.0091
527.3	0.0055
527.4968	0.0086
527.6935	-0.0051
527.8903	0.0068
528.087	0.0125
528.2837	0.0156
528.4804	0.0103
528.677	0.0161
528.8737	0.0154
529.0703	0.01
529.2669	0.0144
529.4635	0.012
529.6601	0.0038
529.8567	0.0115
530.0532	0.0034
530.2498	0.0009
530.4463	0.0057
530.6428	0.0141
530.8393	0.0118
531.0358	0.0122
531.2322	0.0063
531.4287	0.0086
531.6251	-0.0023
531.8215	0.0111
532.0179	0.0097
532.2143	0.0096
532.4107	0.0137
532.607	0.0011
532.8034	0.0111
532.9997	0.0113
533.196	0.0106
533.3923	0.011
533.5886	0.0085
533.7848	0.0081
533.9811	0.0138
534.1773	0.0095
534.3735	0.0033
534.5697	0.01
534.7659	0.0068
534.9621	0.0209
535.1582	0.0191
535.3544	0.0123
535.5505	0.0145
535.7466	0.0164
535.9427	0.0097
536.1387	-0.0015
536.3348	0.0169
536.5308	0.0112
536.7269	0.004
536.9229	0.0097
537.1189	0.0171
537.3148	0.0092
537.5108	0.0062
537.7068	0.0112
537.9027	-0.0052
538.0986	0.0133
538.2945	0.0032
538.4904	0.0075
538.6863	0.0154
538.8821	0.0182
539.078	0.0106
539.2738	0.0012
539.4696	0.0085
539.6654	0.0097
539.8611	0.0116
540.0569	0.0058
540.2526	0.0244
540.4484	0.0028
540.6441	0.0135
540.8398	0.0135
541.0355	0.0093
541.2311	0.0061
541.4268	0.0189
541.6224	0.0182
541.818	0.0096
542.0136	0.0112
542.2092	0.0251
542.4048	0.0103
542.6003	0.0104
542.7959	0.0202
542.9914	0.0065
543.1869	0.0102
543.3824	0.0061
543.5779	0.015
543.7734	0.0189
543.9688	0.0126
544.1642	0.0112
544.3596	0.0113
544.555	0.0064
544.7504	0.0232
544.9458	0.0119
545.1411	0.0068
545.3365	0.008
545.5318	0.0121
545.7271	0.0118
545.9224	-0.0016
546.1177	0.0187
546.3129	0.0088
546.5081	0.0006
546.7034	0.0034
546.8986	0.018
547.0938	0.0182
547.289	0.0127
547.4841	0.016
547.6793	0.0036
547.8744	0.008
548.0695	0.01
548.2646	0.0083
548.4597	0.0061
548.6548	0.019
548.8498	0.0132
549.0448	0.0125
549.2399	0.006
549.4349	0.0077
549.6298	0.0156
549.8248	0.0179
550.0198	0.0181
550.2147	0.0119
550.4096	0.0124
550.6045	0.0063
550.7994	0.0094
550.9943	0.0086
551.1892	0.0016
551.384	0.017
551.5788	0.0093
551.7737	0.007
551.9685	0.0224
552.1632	0.0068
552.358	0.0075
552.5528	0.0062
552.7475	0.0138
552.9422	0.0171
553.1369	0.01
553.3316	0.01
553.5263	0.0146
553.7209	0.0162
553.9156	-0.0021
554.1102	0.0218
554.3048	0.0059
554.4994	0.0131
554.694	0.0147
554.8885	0.0036
555.0831	0.0181
555.2776	0.0173
555.4721	0.0076
555.6666	0.0148
555.8611	0.0164
556.0555	0.0166
556.25	0.007
556.4444	0.014
556.6388	0.0036
556.8332	0.0084
557.0276	0.0074
557.222	0.0124
557.4163	0.0044
557.6107	0.0046
557.805	0.0047
557.9993	0.003
558.1936	-0.0001
558.3879	0.0058
558.5821	0.009
558.7764	0.0026
558.9706	0.0114
559.1648	0.0098
559.359	0.0124
559.5532	-0.003
559.7473	0.0078
559.9415	0.0082
560.1356	0.0114
560.3297	0.0053
560.5238	0.0023
560.7179	0.0024
560.9119	0.0114
561.106	0.004
561.3	0.0096
561.494	0.0014
561.688	0.0063
561.882	0.0008
562.076	0.0203
562.2699	0.0142
562.4639	0.017
562.6578	0.0116
562.8517	0.0049
563.0456	0.0114
563.2395	0.0131
563.4333	0.0128
563.6272	0.0132
563.821	0.0067
564.0148	0.0096
564.2086	0.0082
564.4024	0.0245
564.5961	0.0111
564.7899	0.0136
564.9836	0.0118
565.1773	0.0132
565.371	0.0079
565.5647	0.009
565.7584	0.0133
565.952	0.008
566.1456	0.0043
566.3393	0.0164
566.5329	0.0059
566.7264	0.0167
566.92	0.0161
567.1136	0.0084
567.3071	-0.0014
567.5006	0.0077
567.6941	0.0095
567.8876	0.0146
568.0811	0.0221
568.2745	-0.0001
568.468	0.0105
568.6614	0.0111
568.8548	0.014
569.0482	0.0107
569.2416	0.0081
569.4349	0.0094
569.6283	0.0147
569.8216	0.0097
570.0149	0.0028
570.2082	0.0116
570.4015	0.0093
570.5947	0.0062
570.788	0.009
570.9812	0.0033
571.1744	0.0073
571.3676	0.0076
571.5608	0.0046
571.754	0.017
571.9471	0.0096
572.1402	0.0078
572.3333	0.01
572.5264	0.0095
572.7195	0.0049
572.9126	0.0056
573.1057	0.0118
573.2987	0.0065
573.4917	0.0108
573.6847	0.0061
573.8777	0.01
574.0707	0.0082
574.2636	0.008
574.4566	0.0074
574.6495	0.0053
574.8424	0.0119
575.0353	0.0112
575.2281	0.011
575.421	0.0065
575.6138	0.0068
575.8067	0.0102
575.9995	0.0094
576.1923	0.0116
576.385	0.0109
576.5778	0.012
576.7706	0.0072
576.9633	0.0118
577.156	0.0017
577.3487	0.0052
577.5414	0.0065
577.734	0.0058
577.9267	0.011
578.1193	0.0113
578.3119	0.007
578.5045	0.011
578.6971	0.0029
578.8897	0.0108
579.0822	0.0156
579.2747	0.0092
579.4673	0.0054
579.6598	0.0131
579.8522	0.0061
580.0447	0.0129
580.2372	0.0118
580.4296	0.0108
580.622	0.0054
580.8144	0.0069
581.0068	0.007
581.1992	0.0107
581.3915	0.0001
581.5839	0.0086
581.7762	0.0065
581.9685	0.0106
582.1608	0.0054
582.353	0.0079
582.5453	0.0116
582.7375	0.0096
582.9298	0.0014
583.122	0.0054
583.3142	0.0095
583.5063	0.0054
583.6985	0.002
583.8906	0.0086
584.0827	0.011
584.2749	0.0066
584.4669	0.0073
584.659	0.0065
584.8511	0.011
585.0431	0.0108
585.2352	0.0099
585.4272	0.0067
585.6192	0.0074
585.8111	0.0065
586.0031	0.0031
586.195	0.0045
586.387	0.0041
586.5789	0.0102
586.7708	0.0112
586.9627	0.0088
587.1545	0.0059
587.3464	0.0117
587.5382	0.0034
587.73	0.0125
587.9218	0.0037
588.1136	0.0076
588.3053	0.0092
588.4971	0.0106
588.6888	0.0052
588.8805	0.0087
589.0722	0.0142
589.2639	0.0065
589.4556	0.0114
589.6472	0.0105
589.8389	0.0077
590.0305	0.0101
590.2221	0.012
590.4137	0.0101
590.6052	0.0049
590.7968	0.0121
590.9883	0.0079
591.1798	0.0002
591.3713	0.0134
591.5628	0.0072
591.7543	0.0086
591.9458	0.0105
592.1372	0.0083
592.3286	0.0058
592.52	0.0059
592.7114	0.0086
592.9028	0.0148
593.0941	0.0054
593.2855	0.0057
593.4768	0.007
593.6681	0.0089
593.8594	0.0115
594.0506	0.0082
594.2419	0.0068
594.4331	0.0059
594.6244	0.006
594.8156	0.01
595.0067	0.0085
595.1979	0.0066
595.3891	0.0018
595.5802	0.0123
595.7713	0.0037
595.9624	0.0102
596.1535	0.0069
596.3446	0.0094
596.5357	0.0119
596.7267	0.0059
596.9177	0.0045
597.1087	0.0071
597.2997	0.0053
597.4907	0.0044
597.6817	0.0068
597.8726	0.0119
598.0635	0.001
598.2544	0.0134
598.4453	0.0096
598.6362	0.0098
598.827	0.0103
599.0179	0.0142
599.2087	0.0126
599.3995	0.009
599.5903	0.0117
599.7811	0.0119
599.9718	0.0037
600.1626	0.0094
600.3533	0.0076
600.544	0.0031
600.7347	0.0075
600.9254	0.0168
601.116	0.0078
601.3067	0.006
601.4973	0.0148
601.6879	0.0104
601.8785	0.015
602.0691	0.0038
602.2596	0.0164
602.4502	0.009
602.6407	0.0096
602.8312	0.0086
603.0217	0.0094
603.2122	0.0058
603.4027	0.0124
603.5931	0.01
603.7835	0.0119
603.9739	0.0086
604.1643	0.0096
604.3547	0.0129
604.5451	0.004
604.7354	0.0056
604.9257	0.0087
605.116	0.0059
605.3063	0.0111
605.4966	0.0038
605.6869	0.014
605.8771	0.0076
606.0673	0.0101
606.2575	0.0093
606.4477	0.0134
606.6379	0.006
606.8281	0.0088
607.0182	0.0076
607.2083	0.0097
607.3985	0.013
607.5885	0.0051
607.7786	0.0066
607.9687	0.013
608.1587	0.0158
608.3488	0.0085
608.5388	0.0049
608.7288	0.0017
608.9187	0.01
609.1087	0.0082
609.2986	0.0098
609.4886	0.0073
609.6785	0.0092
609.8684	0.0052
610.0582	0.0038
610.2481	0.0008
610.4379	0.0129
610.6278	0.0058
610.8176	0.0106
611.0074	0.0139
611.1971	0.0068
611.3869	0.0068
611.5766	0.0007
611.7664	0.016
611.9561	0.0139
612.1458	0.0072
612.3354	0.0123
612.5251	0.009
612.7147	0.0144
612.9044	0.0065
613.094	0.015
613.2836	0.0062
613.4731	0.0071
613.6627	0.0104
613.8522	0.0172
614.0417	0.0142
614.2313	0.012
614.4207	0.0114
614.6102	0.0088
614.7997	0.0076
614.9891	0.0133
615.1785	0.0061
615.3679	0.0206
615.5573	0.0074
615.7467	0.0095
615.9361	0.0089
616.1254	0.0058
616.3147	0.0062
616.504	0.0141
616.6933	0.0116
616.8826	0.0061
617.0718	0.0138
617.2611	0.0088
617.4503	-0.0033
617.6395	0.0087
617.8287	0.0099
618.0179	0.0071
618.207	0.0146
618.3961	0.0093
618.5853	0.0021
618.7744	-0.0003
618.9634	0.0144
619.1525	0.0142
619.3416	0.0115
619.5306	0.0162
619.7196	0.0115
619.9086	-0.0013
620.0976	-0.001
620.2866	0.0169
620.4755	0.0046
620.6645	0.0127
620.8534	0.0187
621.0423	0.0083
621.2312	0.0018
621.42	0.0076
621.6089	0.0089
621.7977	0.0142
621.9865	0.0078
622.1753	-0.0045
622.3641	-0.0031
622.5529	0.0017
622.7416	0.0064
622.9303	-0.002
623.1191	0.0076
623.3078	0.0101
623.4964	0.0078
623.6851	0.0087
623.8737	0.0065
624.0624	0.002
624.251	-0.0052
624.4396	0.0032
624.6282	0.018
624.8167	0.0148
625.0053	0.0159
625.1938	0.0086
625.3823	0.0157
625.5708	0.0056
625.7593	0.007
625.9477	0.0173
626.1362	0.002
626.3246	0.0085
626.513	0.0153
626.7014	0.0187
626.8898	0.0185
627.0781	0.0179
627.2665	0.0106
627.4548	-0.0004
627.6431	0.0151
627.8314	0.0179
628.0197	0.0047
628.2079	0.0134
628.3962	0.0138
628.5844	0.0063
628.7726	-0.0018
628.9608	0.0147
629.1489	0.0079
629.3371	-0.0027
629.5252	0.0022
629.7134	-0.0007
629.9015	0.0181
630.0895	0.0001
630.2776	0.0148
630.4657	0.0093
630.6537	0.0151
630.8417	0.0092
631.0297	0.0123
631.2177	0.0181
631.4057	0.0159
631.5936	0.0014
631.7815	0.0055
631.9695	0.0256
632.1574	0.0167
632.3452	0.0236
632.5331	0.0133
632.7209	0.019
632.9088	0.0225
633.0966	0.023
633.2844	0.0077
633.4722	0.0157
633.6599	0.0192
633.8477	0.011
634.0354	0.0167
634.2231	-0.003
634.4108	0.0103
634.5985	0.0223
634.7861	0.0101
634.9738	-0.0063
635.1614	-0.0007
635.349	0.0078
635.5366	0.0063
635.7242	0.0027
635.9117	0.0184
636.0993	0.016
636.2868	0.0071
636.4743	0.0054
636.6618	-0.0013
636.8492	0.0276
637.0367	0.0034
637.2241	0.002
637.4115	0.0404
637.5989	0.0122
637.7863	0.0315
637.9737	0.0128
638.161	0.0125
638.3484	-0.0085
638.5357	0.0059
638.723	0.0242
638.9103	-0.0071
639.0975	-0.001
639.2848	0.0109
639.472	0.018
639.6592	-0.0158
639.8464	0.0049
640.0336	0.0217
640.2208	0.012
640.4079	-0.0101
640.595	-0.0015
640.7821	0.0207
640.9692	-0.0046
641.1563	0.0123
641.3434	0.0121
641.5304	0.0091
641.7174	0.014
641.9044	0.0073
642.0914	0.022
642.2784	0.0134
642.4653	-0.0133
642.6523	0.0114
642.8392	0.0064
643.0261	0.0119
643.213	0.0165
643.3999	0.0107
643.5867	0.0301
643.7735	0.0035
643.9604	0.0199
644.1472	0.0266
644.3339	0.0238
644.5207	-0.0004
644.7075	0.0013
644.8942	0.0167
645.0809	0.0034
645.2676	0.013
645.4543	0.0096
645.6409	0.0047
645.8276	-0.0073
646.0142	0.008
646.2008	-0.0048
646.3874	0.0125
646.574	0.0027
646.7605	0.0072
646.9471	-0.004
647.1336	-0.0141
647.3201	-0.0009
647.5066	0.0099
647.6931	0.0063
647.8795	0.0186
648.0659	0.0124
648.2524	0.0134
648.4388	0.0032
648.6252	0.0065
648.8115	0.0106
648.9979	0.0195
649.1842	0.0127
649.3705	0.0099
649.5568	-0.0059
649.7431	-0.0031
649.9294	0.0022
650.1156	-0.0166
650.3018	0.031
650.488	0.0186
650.6742	0.0176
650.8604	0.0175
651.0466	-0.0131
651.2327	0.0053
651.4188	0.0183
651.6049	0.0324
651.791	0.0028
651.9771	0.0024
652.1632	0.0039
652.3492	-0.0003
652.5352	0.0158
652.7212	0.0028
652.9072	0.0005
653.0932	0.0261
653.2791	0.0257
653.465	0.0054
653.651	0.0167
653.8369	0.025
654.0227	0.007
654.2086	0.0148
654.3944	0.0072
654.5803	0.0033
654.7661	0.0064
654.9519	0.0003
655.1377	0.0001
655.3234	0.0001
655.5092	0.0001
655.6949	0.0001
655.8806	0.0001
656.0663	0.0001
656.2519	0.0001
656.4376	0.0001
656.6232	0.0001
656.8088	0.0001
656.9945	0.0001
657.18	0.0001
657.3656	0.0001
657.5511	0.0001
657.7367	0.0001
657.9222	0.0001
658.1077	0.0001
658.2932	0.0001
658.4786	0.0001
658.6641	0.0001
658.8495	0.0001
659.0349	0.0001
659.2203	0.0001
659.4057	0.0157
659.591	0.2769
659.7764	0.041
659.9617	0.0154
660.147	0.0161
660.3323	0.0169
660.5176	0.0206
660.7028	-0.0003
660.888	0.0133
661.0733	0.0238
661.2585	0.0091
661.4436	-0.0175
661.6288	0.0199
661.8139	-0.0044
661.9991	0.0024
662.1842	0.0146
662.3693	0.0085
662.5544	0.0046
662.7394	0.032
662.9245	-0.005
663.1095	-0.0024
663.2945	0.0013
663.4795	0.0067
663.6644	0.006
663.8494	0.0258
664.0343	0.0029
664.2193	-0.0014
664.4042	-0.006
664.589	0.0225
664.7739	0.0191
664.9587	0.0029
665.1436	0.0004
665.3284	0.0139
665.5132	-0.0082
665.698	0.0236
665.8827	0.0086
666.0675	-0.0132
666.2522	0.0273
666.4369	0.0051
666.6216	0.026
666.8063	0.0256
666.9909	0.0237
667.1756	0.0088
667.3602	0.0071
667.5448	0.0124
667.7294	0.0302
667.9139	0.003
668.0985	0.0321
668.283	-0.0052
668.4675	0.0446
668.652	0.0146
668.8365	-0.0071
669.0209	0.0203
669.2054	0.0144
669.3898	0.0162
669.5742	0.034
669.7586	0.0176
669.943	0.0063
670.1273	0.0336
670.3117	0.0374
670.496	0.0063
670.6803	0.0076
670.8646	0.004
671.0488	0.0254
671.2331	0.001
671.4173	0.0005
671.6015	0.003
671.7857	0.0036
671.9699	0.0162
672.1541	0.0011
672.3382	0.001
672.5223	0.0024
672.7064	-0.0075
672.8905	-0.0093
673.0746	-0.0131
673.2587	0.0158
673.4427	0.0143
673.6267	0.0108
673.8107	0.0151
673.9947	0.01
674.1787	0.0014
674.3626	0.0148
674.5465	0.014
674.7304	0.0177
674.9143	0.007
675.0982	0.007
675.2821	0.0139
675.4659	0.0114
675.6497	0.0187
675.8335	-0.0013
676.0173	0.018
676.2011	0.0107
676.3849	0.0021
676.5686	0.0335
676.7523	0.0025
676.936	0.0052
677.1197	0.0071
677.3034	0.0368
677.487	0.0072
677.6706	0.0104
677.8542	0.0053
678.0378	0.0111
678.2214	0.0116
678.405	0.0078
678.5885	0.0017
678.772	0.0148
678.9555	-0.0071
679.139	0.0149
679.3225	0.0112
679.5059	-0.008
679.6894	0.0039
679.8728	-0.0064
680.0562	0.0089
680.2395	0.0032
680.4229	-0.0129
680.6062	-0.0022
680.7896	0.0085
680.9729	0.0169
681.1562	-0.009
681.3394	0.0172
681.5227	0.0113
681.7059	0.0064
681.8891	-0.0062
682.0723	0.0182
682.2555	0.0067
682.4387	0.0099
682.6218	0.0172
682.805	0.0218
682.9881	0.0066
683.1712	0.0222
683.3542	0.0254
683.5373	0.0024
683.7203	0.0075
683.9034	0.015
684.0864	0.0084
684.2694	0.0095
684.4523	0.0186
684.6353	0.0141
684.8182	0.0024
685.0011	0.0147
685.184	0.0132
685.3669	0.028
685.5498	0.003
685.7326	0.0007
685.9154	0.0159
686.0982	0.0063
686.281	0.004
686.4638	0.0229
686.6465	-0.0135
686.8293	-0.0084
687.012	0.0071
687.1947	0.0114
687.3774	0.0201
687.56	-0.0023
687.7427	0.0078
687.9253	-0.0059
688.1079	0.025
688.2905	-0.0053
688.4731	0.0203
688.6556	0.017
688.8382	0.0112
689.0207	0.0168
689.2032	0.019
689.3857	0.0004
689.5681	-0.001
689.7506	0.0178
689.933	-0.0126
690.1154	0.0359
690.2978	0.0021
690.4802	0.0287
690.6626	0.0111
690.8449	0.0169
691.0272	0.0197
691.2095	-0.0034
691.3918	0.0174
691.5741	0.0037
691.7563	0.0202
691.9386	0.0261
692.1208	0.007
692.303	0.0121
692.4852	0.0161
692.6673	-0.0103
692.8495	0.0031
693.0316	0.0242
693.2137	0.0152
693.3958	0.0173
693.5778	0.0124
693.7599	0.0169
693.9419	0.0161
694.1239	-0.0063
694.3059	-0.0011
694.4879	0.0109
694.6699	-0.0058
694.8518	0.0132
695.0337	0.0145
695.2157	0.0418
695.3975	0.0037
695.5794	-0.0173
695.7613	0.0074
695.9431	0.0057
696.1249	0.0207
696.3067	0.0115
696.4885	0.026
696.6703	0.0105
696.852	-0.0001
697.0337	0.0219
697.2154	0.0191
697.3971	0.0202
697.5788	0.0149
697.7605	0.0089
697.9421	0.0071
698.1237	0.0193
698.3053	0.0103
698.4869	0.0139
698.6685	0.0001
698.85	0.0113
699.0315	-0.003
699.213	0.0167
699.3945	0.0206
699.576	0.0154
699.7575	0.0249
699.9389	0.0077
700.1203	0.0115
700.3017	0.034
700.4831	0.0202
700.6645	0.0285
700.8458	0.0221
701.0271	0.0816
701.2084	0.0105
701.3897	-0.0043
701.571	0.0028
701.7523	0.0068
701.9335	0.003
702.1147	0.0246
702.2959	0.0286
702.4771	0.0162
702.6583	0.004
702.8394	-0.0032
703.0205	0.0187
703.2016	-0.0087
703.3827	0.0219
703.5638	0.0292
703.7449	0.028
703.9259	0.0024
704.1069	-0.0111
704.2879	0.0433
704.4689	0.0205
704.6499	0.0489
704.8308	0.0207
705.0117	0.0222
705.1927	0.0335
705.3735	0.0129
705.5544	0.0471
705.7353	0.01
705.9161	-0.0141
706.0969	0.013
706.2777	0.0116
706.4585	-0.0107
706.6393	0.0181
706.82	-0.0007
707.0007	-0.0047
707.1815	-0.0066
707.3621	0.0324
707.5428	0.0317
707.7235	0.0056
707.9041	0.0188
708.0847	0.0176
708.2653	0.0223
708.4459	-0.0136
708.6265	-0.0205
708.807	0.0317
708.9875	0.0147
709.168	-0.0005
709.3485	0.031
709.529	0.0005
709.7095	0.005
709.8899	-0.0111
710.0703	0.0313
710.2507	0.0257
710.4311	-0.0087
710.6115	0.0169
710.7918	0.0172
710.9721	0.0129
711.1524	0.0024
711.3327	-0.0261
711.513	0.0038
711.6932	0.004
711.8735	0.0082
712.0537	-0.0051
712.2339	-0.0022
712.4141	0.0385
712.5942	-0.0194
712.7744	0.0317
712.9545	0.0306
713.1346	0.0256
713.3147	0.0307
713.4947	0.0001
713.6748	0.0065
713.8548	0.0235
714.0348	0.0181
714.2148	0.0097
714.3948	0.0082
714.5748	0.0197
714.7547	0.0126
714.9346	0.0419
715.1145	-0.0259
715.2944	-0.018
715.4743	0.0074
715.6541	-0.0137
715.834	0.0157
716.0138	0.0277
716.1936	-0.0003
716.3733	0.0033
716.5531	-0.0166
716.7328	0.0381
716.9126	0.048
717.0923	-0.0125
717.2719	0.0173
717.4516	0.0114
717.6312	-0.0218
717.8109	0.0309
717.9905	0.0313
718.1701	0.0236
718.3496	0.0026
718.5292	0.0093
718.7087	0.0158
718.8882	0.0277
719.0677	0.0013
719.2472	-0.0102
719.4267	-0.002
719.6061	-0.0375
719.7856	0.0209
719.965	-0.0044
720.1443	0.0018
720.3237	-0.021
720.5031	-0.0133
720.6824	0.0098
720.8617	0.0154
721.041	0.0338
721.2203	-0.0114
721.3995	-0.0051
721.5788	-0.0202
721.758	0.0061
721.9372	0.0141
722.1164	0.0102
722.2956	0.0042
722.4747	0.0415
722.6538	0.015
722.8329	0.0291
723.012	-0.0053
723.1911	0.0193
723.3702	0.016
723.5492	-0.0019
723.7282	0.0045
723.9072	0.0041
724.0862	0.0147
724.2652	0.0177
724.4441	0.0224
724.623	0.0158
724.8019	-0.0058
724.9808	0.0298
725.1597	0.0043
725.3385	0.0274
725.5174	0.0256
725.6962	0.0172
725.875	0.0346
726.0538	0.031
726.2325	0.0416
726.4112	-0.0116
726.59	-0.0059
726.7687	-0.0047
726.9474	0.0138
727.126	0.0248
727.3047	0.0245
727.4833	0.0093
727.6619	-0.0048
727.8405	-0.0005
728.0191	0.021
728.1976	0.0124
728.3762	-0.0105
728.5547	0.0035
728.7332	0.0203
728.9116	0.0206
729.0901	0.0204
729.2686	0.0132
729.447	0.0062
729.6254	0.0311
729.8038	-0.0055
729.9821	0.0133
730.1605	0.0081
730.3388	-0.0183
730.5171	0.042
730.6954	0.0039
730.8737	0.01
731.0519	-0.0195
731.2302	0.0268
731.4084	0.006
731.5866	0.0182
731.7648	0.0344
731.9429	0.0399
732.1211	0.0061
732.2992	0.0118
732.4773	0.0059
732.6554	-0.0069
732.8335	0.0281
733.0115	0.0251
733.1896	-0.013
733.3676	0.0252
733.5456	-0.0012
733.7235	0.0057
733.9015	0.0237
734.0794	0.0106
734.2574	-0.0093
734.4353	0.0212
734.6131	-0.0117
734.791	-0.0035
734.9689	0.0044
735.1467	-0.018
735.3245	0.021
735.5023	0.015
735.68	0.0084
735.8578	0.0061
736.0355	0.0167
736.2132	0.019
736.3909	0.0335
736.5686	0.0109
736.7463	-0.0161
736.9239	0.0288
737.1015	0.0279
737.2791	0.0114
737.4567	-0.0018
737.6343	0.002
737.8118	0.0211
737.9894	0.0005
738.1669	0.0093
738.3444	0.0252
738.5218	-0.013
738.6993	0.0296
738.8767	-0.0019
739.0541	0.0138
739.2315	0.0095
739.4089	0.0263
739.5863	0.018
739.7636	-0.0033
739.9409	0.002
740.1182	0.008
740.2955	0.0439
740.4728	-0.0299
740.65	0.0054
740.8272	0.0147
741.0044	-0.0214
741.1816	0.0372
741.3588	0.0014
741.5359	-0.0145
741.7131	0.015
741.8902	0.0065
742.0673	-0.0128
742.2444	0.0371
742.4214	0.0336
742.5985	-0.0153
742.7755	0.0094
742.9525	-0.0112
743.1295	-0.0204
743.3064	0.0096
743.4834	0.0078
743.6603	0.0444
743.8372	-0.0259
744.0141	0.0295
744.191	0.0278
744.3678	-0.0212
744.5446	-0.002
744.7215	0.0441
744.8982	0.0181
745.075	0.0547
745.2518	-0.0127
745.4285	0.0249
745.6052	-0.0119
745.7819	0.0045
745.9586	0.0196
746.1353	-0.0158
746.3119	0.0195
746.4885	0.0131
746.6651	0.0116
746.8417	0.0196
747.0183	0.0536
747.1948	0.0002
747.3714	0.0309
747.5479	0.0247
747.7244	-0.0255
747.9008	-0.0031
748.0773	0.0592
748.2537	-0.0036
748.4301	0.0221
748.6065	0.0016
748.7829	-0.0109
748.9593	0.011
749.1356	0.0173
749.3119	0.0059
749.4882	0.0281
749.6645	0.0432
749.8408	0.0267
750.017	0.0347
750.1933	-0.02
750.3695	0.0081
750.5457	0.0091
750.7218	0.0075
750.898	-0.0111
751.0741	0.0072
751.2502	0.0255
751.4263	0.0088
751.6024	0.0251
751.7784	-0.0002
751.9545	-0.0031
752.1305	0.0078
752.3065	0.012
752.4825	0.0095
752.6584	0.0284
752.8344	-0.0143
753.0103	-0.0243
753.1862	0.0107
753.3621	0.0015
753.5379	-0.0068
753.7138	0.0111
753.8896	0.017
754.0654	-0.0067
754.2412	0.0445
754.417	0.0183
754.5927	0.0204
754.7685	0.0124
754.9442	0.0356
755.1199	0.0051
755.2956	0.0192
755.4712	0.0034
755.6469	0.0193
755.8225	-0.0032
755.9981	0.0134
756.1736	0.0128
756.3492	-0.0057
756.5248	0.0172
756.7003	0.0023
756.8758	0.0072
757.0513	-0.0013
757.2267	0.0111
757.4022	-0.013
757.5776	0.0137
757.753	0.0173
757.9284	0.0016
758.1038	0.0336
758.2791	0.0188
758.4545	-0.0007
758.6298	0.0055
758.8051	0.0304
758.9803	0.0218
759.1556	0.0128
759.3308	0.0072
759.506	0.0204
759.6812	0.0111
759.8564	0.009
760.0316	-0.0108
760.2067	0.0222
760.3819	0.013
760.557	0.0123
760.732	0.0141
760.9071	0.0137
761.0821	0.0007
761.2572	-0.0026
761.4322	0.0152
761.6072	0.0074
761.7821	-0.02
761.9571	0.0056
762.132	0.0289
762.3069	0.0128
762.4818	0.0196
762.6567	0.0087
762.8316	0.0251
763.0064	0.0099
763.1812	0.0065
763.356	0.0033
763.5308	0.0142
763.7055	0.0074
763.8803	0.0103
764.055	-0.0011
764.2297	-0.0122
764.4044	0.0124
764.579	0.0105
764.7537	0.0159
764.9283	0.0157
765.1029	0.0117
765.2775	0.0115
765.4521	-0.0074
765.6266	0.0074
765.8011	0.0115
765.9756	-0.0005
766.1501	0.0044
766.3246	0.0327
766.4991	0.007
766.6735	0.0384
766.8479	0.0083
767.0223	0.042
767.1967	-0.0037
767.371	0.0112
767.5454	0.016
767.7197	0.0342
767.894	0.0096
768.0683	0.0299
768.2425	0.0433
768.4168	0.0123
768.591	0.0148
768.7652	0.0155
768.9394	-0.0119
769.1135	0.013
769.2877	0.0036
769.4618	0.0288
769.6359	0.0146
769.81	0.0365
769.984	0.0135
770.1581	0.0077
770.3321	0.0198
770.5061	-0.0059
770.6801	-0.0025
770.8541	0.0268
771.028	0.0317
771.202	0.0292
771.3759	0.0265
771.5498	0.0044
771.7236	0.0065
771.8975	0.0329
772.0713	0.0405
772.2451	-0.0127
772.4189	0.0086
772.5927	-0.032
772.7665	0.0155
772.9402	0.0455
773.1139	-0.0063
773.2876	-0.0095
773.4613	0.0181
773.635	0.0475
773.8086	-0.0036
773.9822	0.0137
774.1558	0.0406
774.3294	0.0328
774.503	0.0202
774.6765	0.0688
774.8501	0.0065
775.0236	0.0205
775.1971	-0.0064
775.3705	0.0227
775.544	-0.0052
775.7174	0.0318
775.8908	0.0057
776.0642	0.0409
776.2376	0.0209
776.4109	0.0334
776.5843	0.0102
776.7576	0.0329
776.9309	0.0114
777.1041	-0.0031
777.2774	-0.023
777.4506	-0.0333
777.6238	-0.0039
777.797	0.0125
777.9702	0.0163
778.1434	0.0317
778.3165	0.027
778.4896	-0.039
778.6627	0.0381
778.8358	-0.0043
779.0089	0.0137
779.1819	0.0229
779.3549	0.0132
779.5279	-0.02
779.7009	0.0472
779.8739	0.0629
780.0468	0.0125
780.2197	0.0064
780.3926	-0.01
780.5655	0.0172
780.7384	0.0128
780.9112	0.0248
781.0841	0.0153
781.2569	0.031
781.4297	0.0053
781.6024	0.0304
781.7752	0.0614
781.9479	0.0518
782.1206	0.0292
782.2933	0.0165
782.466	0.0451
782.6386	0.0014
782.8113	0.0015
782.9839	0.0207
783.1565	0.0554
783.329	0.0558
783.5016	0.0219
783.6741	-0.0027
783.8466	0.0286
784.0191	0.0149
784.1916	-0.0004
784.3641	-0.0264
784.5365	0.0199
784.7089	-0.0477
784.8813	0.0683
785.0537	0.0511
785.2261	0.0263
785.3984	-0.0106
785.5707	0.0177
785.743	0.0669
785.9153	0.0271
786.0876	-0.034
786.2598	-0.0285
786.432	0.0056
786.6042	0.0174
786.7764	-0.0106
786.9486	0.0031
787.1207	0.0612
787.2928	0.0497
787.4649	0.0088
787.637	-0.0096
787.8091	0.0015
787.9811	0.0759
788.1532	0.0506
788.3252	0.0015
788.4972	0.0479
788.6691	0.0188
788.8411	-0.0051
789.013	0.0308
789.1849	-0.0251
789.3568	-0.0051
789.5287	0.0286
789.7005	-0.0153
789.8723	-0.0268
790.0442	0.0035
790.2159	0.0327
790.3877	0.027
790.5595	0.0606
790.7312	0.0284
790.9029	-0.0215
791.0746	-0.0028
791.2463	-0.0165
791.4179	-0.0521
791.5896	0.0217
791.7612	-0.0104
791.9328	-0.0019
792.1044	-0.004
792.2759	-0.0638
792.4474	0.0245
792.619	0.0275
792.7905	0.0086
792.9619	0.0774
793.1334	0.053
793.3048	0.0872
793.4762	0.0089
793.6476	-0.0338
793.819	0.018
793.9904	-0.0099
794.1617	-0.015
794.333	0.015
794.5043	0.0456
794.6756	0.0198
794.8469	0.0625
795.0181	-0.0009
795.1893	0.0047
795.3605	0.0178
795.5317	0.0183
795.7029	-0.0071
795.874	0.0488
796.0452	0.0443
796.2163	0.0737
796.3873	0.0673
796.5584	0.0189
796.7294	0.0447
796.9005	0.0455
797.0715	-0.0282
797.2425	0.0997
797.4134	0.1148
797.5844	0.0533
797.7553	-0.0484
797.9262	0.0473
798.0971	0.034
798.2679	0.0129
798.4388	0.0333
798.6096	0.0117
798.7804	0.027
798.9512	0.1028
799.122	-0.0108
799.2927	0.0965
799.4635	-0.0167
799.6342	0.0023
799.8049	0.0171
799.9755	-0.0321
800.1462	0.0062
800.3168	0.0334
800.4874	-0.0735
800.658	0.0349
800.8286	-0.0263
800.9991	-0.0147
801.1696	-0.0079
801.3402	0.028
801.5106	-0.0175
801.6811	0.0172
801.8516	0.0464
802.022	0.0552
802.1924	-0.0272
802.3628	0.0712
802.5332	-0.0129
802.7035	0.0656
802.8739	0.0439
803.0442	-0.0298
803.2145	0.1252
803.3847	0.0363
803.555	0.0429
803.7252	-0.0079
803.8954	-0.0561
804.0656	-0.0008
804.2358	0.037
804.4059	0.0713
804.5761	0.0283
804.7462	0.0149
804.9163	0.0403
805.0864	0.0278
805.2564	-0.0009
805.4264	-0.0106
805.5965	0.0359
805.7665	-0.0454
805.9364	-0.0365
806.1064	0.0607
806.2763	0.095
806.4462	0.0599
806.6161	0.0239
806.786	0.0025
806.9559	0.0456
807.1257	-0.0005
807.2955	0.0166
807.4653	0.0366
807.6351	0.0271
807.8048	0.0174
807.9746	0.0451
808.1443	-0.006
808.314	0.0137
808.4837	0.0522
808.6533	0.0576
808.8229	0.046
808.9926	0.0216
809.1622	0.0186
809.3317	0.0462
809.5013	-0.0684
809.6708	0.0143
809.8403	0.0865
810.0098	0.0117
810.1793	0.1526
810.3488	0.0048
810.5182	0.1619
810.6876	-0.029
810.857	0.1827
811.0264	0.0436
811.1958	0.0473
811.3651	-0.0035
811.5344	0.0769
811.7037	-0.0325
811.873	0.0214
812.0422	-0.1047
812.2115	-0.0103
812.3807	-0.0893
812.5499	-0.014
812.7191	-0.2213
812.8882	0.0047
813.0574	-0.0039
813.2265	-0.0302
813.3956	0.0031
813.5646	0.0946
813.7337	0.0173
813.9027	-0.0621
814.0718	0.0035
814.2407	0.0172
814.4097	0.1084
814.5787	0.0551
814.7476	0.0007
814.9165	0.0372
815.0854	-0.0925
815.2543	0.078
815.4232	0.1043
815.592	0.0724
815.7608	-0.1269
815.9296	-0.0204
816.0984	-0.0018
816.2671	-0.2323
816.4359	0.2518
816.6046	0.0203
816.7733	-0.074
816.942	0.0406
817.1106	0.1472
817.2793	-0.0655
817.4479	0.0229
817.6165	0.0654
817.785	0.008
817.9536	-0.058
818.1221	0.0266
818.2906	0.0404
818.4591	-0.0206
818.6276	0.0588
818.7961	-0.0467
818.9645	0.2316
819.1329	0.3517
819.3013	0.0595
819.4697	0.1678
819.638	0.1919
819.8064	-0.0016
819.9747	0.0577
820.143	-0.0811
820.3113	0.0659
820.4795	0.0504
820.6477	-0.0102
820.816	0.0913
820.9842	0.0613
821.1523	0.0324
821.3205	-0.011
821.4886	-0.0071
821.6567	-0.1127
821.8248	0.24
821.9929	-0.1096
822.1609	0.0708
822.329	0.1323
822.497	0.1361
822.665	0.0148
822.833	-0.0308
823.0009	0.0663
823.1688	0.1717
823.3367	-0.1093
823.5046	0.0238
823.6725	-0.0899
823.8404	0.0481
824.0082	0.0622
824.176	0.124
824.3438	0.1912
824.5116	0.0527
824.6793	0.142
824.847	0.1396
825.0147	0.2468
825.1824	0.0191
825.3501	0.1964
825.5177	-0.0319
825.6854	-0.0963
825.853	0.0498
826.0206	0.1078
826.1881	0.153
826.3557	-0.0908
826.5232	0.1734
826.6907	0.0305
826.8582	0.0821
827.0257	0.2894
827.1931	0.1109
827.3605	-0.0057
827.528	-0.0468
827.6953	-0.0174
827.8627	-0.0205
828.03	0.1121
828.1974	-0.0752
828.3647	0.0151
828.532	-0.0294
828.6992	0.186
828.8665	0.0107
829.0337	0.1486
829.2009	-0.1089
829.3681	-0.0202
829.5352	-0.3252
829.7024	-0.0315
829.8695	-0.0019
830.0366	0.2002
830.2037	0.1827
830.3707	0.0869
830.5378	-0.1542
830.7048	-0.0292
830.8718	0.083
831.0388	0.3086
831.2057	0.865
831.3727	-0.1319
831.5396	0.0884
831.7065	-0.3265
831.8734	0.0095
832.0402	0.2119
832.2071	0.1562
832.3739	-0.3649
832.5407	-1.1417
832.7075	0.0893
832.8742	0.6203
833.041	-0.0442
833.2077	0.7181
833.3744	-0.1125
833.541	-0.0973
833.7077	0.1175
833.8743	0.1952
834.0409	0.1186
834.2075	0.2094
834.3741	-0.2065
834.5407	0.1389
834.7072	0.1719
834.8737	0.2273
835.0402	0.2091
835.2067	0.068
835.3731	0.1652
835.5395	0.2065
835.706	-0.2797
835.8723	-0.083
836.0387	-0.0272
836.2051	0.1261
836.3714	0.0951
836.5377	-0.004
836.704	0.1166
836.8703	0.0038
837.0365	-0.0277
837.2027	0.4342
837.3689	0.2688
837.5351	-0.0035
837.7013	-0.0147
837.8674	-0.162
838.0335	-0.0026
838.1997	-0.2888
838.3657	-0
838.5318	-0.5731
838.6978	0.1038
838.8639	-0.2372
839.0299	0.0951
839.1958	0.0409
839.3618	0.4308
839.5277	0.0952
839.6937	-0.0446
839.8596	-0.1704
840.0254	0.3492
840.1913	-0.1419
840.3571	0.2953
840.523	-0
840.6888	0.0699
840.8545	-0.0934
841.0203	0.1049
841.186	0.1648
841.3517	-0.2667
841.5174	0.4244
841.6831	0.2204
841.8488	-0.1269
842.0144	0.1296
842.18	0.2498
842.3456	-0.5243
842.5112	-0
842.6767	0.383
842.8422	-0.2001
843.0077	0.8451
843.1732	-0.0859
843.3387	-0
843.5042	-0
843.6696	0.4979
843.835	0.4942
844.0004	-0.2346
844.1657	-0.9171
844.3311	-0
844.4964	-0.1831
844.6617	-0
844.827	-0
844.9923	0.6283
845.1575	-0.4306
845.3227	-0.1855
845.4879	-0.3734
845.6531	0.3142
845.8183	-0
845.9834	-0
846.1485	0.9639
846.3136	0.1265
846.4787	-0
846.6438	0.2804
846.8088	0.1757
846.9738	-0
847.1388	0.2648
847.3038	0.4655
847.4687	1.7735
847.6337	-0
847.7986	0.3688
847.9635	0.209
848.1284	0.6727
848.2932	0.8374
848.458	-0
848.6228	0.2393
848.7876	-0
848.9524	-0
849.1172	-1.8582
849.2819	-0
849.4466	1.1487
849.6113	-0.1227
849.7759	-0.2991
849.9406	0.2576
850.1052	-0
850.2698	0.4011
850.4344	-0.3774
850.599	-0.1641
850.7635	0.4714
850.928	0.0988
851.0925	0.2842
851.257	0.8068
851.4215	0.2529
851.5859	0.3638
851.7503	-0.3035
851.9147	-0.3424
852.0791	-0.037
852.2434	0.3597
852.4078	-0.316
852.5721	-0
852.7364	0.0864
852.9007	-0.0834
853.0649	-0
853.2291	-0.0958
853.3934	-0
853.5575	-0.028
853.7217	0.3972
853.8859	-0.3387
854.05	-0.5684
854.2141	0.1722
854.3782	-0.378
854.5423	-0.4369
854.7063	0.2865
854.8703	0.1063
855.0343	-0.183
855.1983	0.0038
855.3623	0.3131
855.5262	-0
855.6901	-0
855.854	0.6342
856.0179	-0.3453
856.1818	-0
856.3456	0.7143
856.5094	-0
856.6732	-0.6105
856.837	-0
857.0008	-0.499
857.1645	0.6809
857.3282	-0.694
857.4919	0.2387
857.6556	-0.488
857.8192	-0.1022
857.9828	-0.1546
858.1465	0.0478
858.31	-0
858.4736	0.5528
858.6372	0.1204
858.8007	0.0326
858.9642	0.1535
859.1277	0.3092
859.2911	-0.5323
859.4546	-1.4183
859.618	-0.0777
859.7814	-0.072
859.9448	0.2161
860.1081	0.436
860.2715	-0
860.4348	0.1444
860.5981	0.2059
860.7614	-0
860.9246	0.3197
861.0879	0.0539
861.2511	-0.5286
861.4143	-0
861.5774	0.1334
861.7406	-0
861.9037	-0.5195
862.0668	-0.1891
862.2299	-0.3004
862.393	0.6224
862.556	-0
862.7191	0.3424
862.8821	0.0023
863.0451	-0.15
863.208	-0.4694
863.371	-0.1831
863.5339	0.1815
863.6968	-0.0359
863.8597	-0
864.0225	-0.0498
864.1854	0.0127
864.3482	-0.372
864.511	-0.2644
864.6737	0.0515
864.8365	0.2469
864.9992	-0
865.1619	0.0759
865.3246	-0
865.4873	-0
865.65	-0
865.8126	0.1136
865.9752	-0
866.1378	0.4402
866.3004	0.2776
866.4629	-0
866.6254	-0
866.7879	-0.2316
866.9504	-0
867.1129	-0.2525
867.2753	0.1192
867.4377	-0
867.6001	-0.676
867.7625	-0.295
867.9249	0.3502
868.0872	0.0928
868.2495	-0
868.4118	-0
868.5741	-0.4827
868.7363	-0
868.8986	-0.6053
869.0608	0.9899
869.223	-0.6001
869.3851	-0
869.5473	0.9199
869.7094	0.2362
869.8715	-0
870.0336	0.0491
870.1957	-0.4166
870.3577	-0
870.5197	-0.0771
870.6817	-0.0891
870.8437	-0.1667
871.0057	0.0539
871.1676	0.313
871.3295	-0.3595
871.4914	-0
871.6533	-0.5706
871.8151	0.7156
871.977	-0.3646
872.1388	-0.0109
872.3006	0.6108
872.4623	-0.0891
872.6241	-0
872.7858	-0
872.9475	-0
873.1092	-0.0631
873.2709	0.3033
873.4325	-1.5147
873.5941	-0.607
873.7557	-0
873.9173	-0.0215
874.0789	0.0347
874.2404	-0
874.4019	0.0891
874.5634	1.1196
874.7249	-0
874.8863	0.1648
875.0478	-0.0066
875.2092	-0
875.3706	-0.0677
875.5319	-0
875.6933	-0
875.8546	-0
876.0159	0.0987
876.1772	-0
876.3385	0.593
876.4997	-0
876.6609	0.0487
876.8221	-0
876.9833	-0
877.1445	0.3354
877.3056	-0.5914
877.4667	-1.0565
877.6278	0.82
877.7889	-0
877.9499	-0
878.111	-0.6818
878.272	-0.0399
878.433	0.1941
878.5939	-0
878.7549	-0
878.9158	-0
879.0767	0.1959
879.2376	-0.3785
879.3984	1.733
879.5593	1.1301
879.7201	-1.6668
879.8809	0.5135
880.0417	-0.2672
880.2024	0.1324
880.3632	-0.3356
880.5239	0.0831
880.6846	-0
880.8452	0.2707
881.0059	-0
881.1665	-0.0531
881.3271	0.298
881.4877	0.0924
881.6483	-1.4711
881.8088	-0
881.9693	-0.1313
882.1298	-0.1313
882.2903	-0.1313
