Data from D4ACN5uM420nmA_Absorbance_14-37-07-301.txt Node
Date: Fri Feb 21 14:37:07 GMT 2025
User: LASERRRRR
Spectrometer: FLMT03099
Trigger mode: 0
Integration Time (sec): 1.500000E-2
Scans to average: 1
Electric dark correction enabled: true
Nonlinearity correction enabled: false
Boxcar width: 0
XAxis mode: Wavelengths
Number of Pixels in Spectrum: 3648
>>>>>Begin Spectral Data<<<<<
179.3399	-0.4973
179.5586	-0.4973
179.7771	-0.4973
179.9957	0.1269
180.2143	-0
180.4329	0.2294
180.6514	-0
180.8699	0.035
181.0885	-0
181.307	-0
181.5255	-0
181.744	-0.3471
181.9625	0.1853
182.181	0.8366
182.3994	-0.3145
182.6179	0.2607
182.8363	-0.1406
183.0547	-0.2238
183.2732	0.1203
183.4916	0.3885
183.71	0.1102
183.9284	0.3007
184.1467	0.2172
184.3651	0.0783
184.5835	0.241
184.8018	0.0342
185.0201	0.1754
185.2385	0.2006
185.4568	0.5838
185.6751	0.1646
185.8934	0.4395
186.1117	-0.0238
186.3299	0.1304
186.5482	0.3887
186.7664	0.6381
186.9847	0.0856
187.2029	0.2882
187.4211	-0.0045
187.6393	0.0088
187.8575	0.3276
188.0757	0.7191
188.2939	0.2464
188.512	0.4574
188.7302	0.086
188.9483	0.4395
189.1665	0.4409
189.3846	0.3626
189.6027	0.2902
189.8208	0.3585
190.0389	0.3207
190.257	0.0836
190.475	0.2137
190.6931	0.0351
190.9111	0.1186
191.1292	0.2066
191.3472	0.1562
191.5652	0.491
191.7832	0.1893
192.0012	0.1498
192.2192	0.1701
192.4371	0.0072
192.6551	0.2102
192.873	0.0939
193.091	0.2097
193.3089	0.3112
193.5268	0.2048
193.7447	0.1743
193.9626	0.1559
194.1805	0.2795
194.3984	0.2444
194.6162	0.2727
194.8341	0.284
195.0519	0.2615
195.2697	0.2451
195.4875	0.3362
195.7054	0.2676
195.9231	0.2684
196.1409	0.2954
196.3587	0.3324
196.5765	0.3316
196.7942	0.2647
197.012	0.3778
197.2297	0.3124
197.4474	0.3761
197.6651	0.3677
197.8828	0.3243
198.1005	0.3731
198.3182	0.3734
198.5358	0.3718
198.7535	0.3818
198.9711	0.3541
199.1888	0.3697
199.4064	0.4041
199.624	0.3738
199.8416	0.3927
200.0592	0.3824
200.2767	0.3789
200.4943	0.4686
200.7119	0.3586
200.9294	0.4411
201.1469	0.4299
201.3645	0.4468
201.582	0.3882
201.7995	0.4179
202.017	0.4075
202.2344	0.3871
202.4519	0.3882
202.6694	0.385
202.8868	0.3978
203.1042	0.3898
203.3217	0.3978
203.5391	0.4029
203.7565	0.4035
203.9739	0.4154
204.1913	0.3807
204.4086	0.3501
204.626	0.3635
204.8433	0.3799
205.0607	0.3314
205.278	0.3379
205.4953	0.3377
205.7126	0.3397
205.9299	0.3416
206.1472	0.3142
206.3644	0.3605
206.5817	0.3571
206.7989	0.3275
207.0162	0.3042
207.2334	0.3348
207.4506	0.3207
207.6678	0.3303
207.885	0.2846
208.1022	0.328
208.3194	0.2961
208.5365	0.296
208.7537	0.2908
208.9708	0.2939
209.1879	0.275
209.405	0.274
209.6222	0.2751
209.8392	0.2906
210.0563	0.2885
210.2734	0.2677
210.4905	0.2751
210.7075	0.2736
210.9245	0.247
211.1416	0.2689
211.3586	0.2492
211.5756	0.2488
211.7926	0.2531
212.0096	0.2697
212.2265	0.2644
212.4435	0.2678
212.6604	0.2561
212.8774	0.2527
213.0943	0.2585
213.3112	0.2511
213.5281	0.2531
213.745	0.2329
213.9619	0.2528
214.1788	0.2727
214.3956	0.2642
214.6125	0.262
214.8293	0.257
215.0461	0.2424
215.2629	0.2546
215.4798	0.2627
215.6965	0.2523
215.9133	0.2492
216.1301	0.247
216.3469	0.2519
216.5636	0.2427
216.7803	0.2488
216.9971	0.2586
217.2138	0.2587
217.4305	0.2314
217.6472	0.2617
217.8639	0.2632
218.0805	0.2691
218.2972	0.2408
218.5138	0.2678
218.7305	0.2628
218.9471	0.2523
219.1637	0.2775
219.3803	0.2754
219.5969	0.2509
219.8135	0.2568
220.0301	0.2576
220.2466	0.2574
220.4632	0.2485
220.6797	0.2778
220.8962	0.2681
221.1127	0.2778
221.3292	0.2671
221.5457	0.2785
221.7622	0.2715
221.9787	0.285
222.1951	0.2812
222.4116	0.2873
222.628	0.2754
222.8444	0.2834
223.0608	0.2843
223.2772	0.2869
223.4936	0.2887
223.71	0.2784
223.9264	0.2866
224.1427	0.2831
224.3591	0.2928
224.5754	0.2941
224.7917	0.2966
225.008	0.2923
225.2243	0.3109
225.4406	0.2912
225.6569	0.3051
225.8732	0.3191
226.0894	0.3104
226.3057	0.3035
226.5219	0.3169
226.7381	0.325
226.9543	0.313
227.1705	0.3244
227.3867	0.3269
227.6029	0.3395
227.8191	0.3352
228.0352	0.3402
228.2513	0.359
228.4675	0.3384
228.6836	0.3525
228.8997	0.3358
229.1158	0.353
229.3319	0.366
229.548	0.3588
229.764	0.361
229.9801	0.3753
230.1961	0.3691
230.4121	0.3692
230.6282	0.3873
230.8442	0.3849
231.0602	0.3893
231.2761	0.38
231.4921	0.3889
231.7081	0.396
231.924	0.3959
232.14	0.4094
232.3559	0.4107
232.5718	0.4138
232.7877	0.4103
233.0036	0.4088
233.2195	0.4157
233.4353	0.4189
233.6512	0.4188
233.867	0.431
234.0829	0.4254
234.2987	0.4306
234.5145	0.4333
234.7303	0.4439
234.9461	0.445
235.1619	0.4446
235.3776	0.4333
235.5934	0.4321
235.8091	0.447
236.0249	0.4526
236.2406	0.4467
236.4563	0.4506
236.672	0.4513
236.8877	0.4483
237.1034	0.4523
237.319	0.4494
237.5347	0.4617
237.7503	0.4607
237.966	0.4643
238.1816	0.4526
238.3972	0.4685
238.6128	0.4708
238.8284	0.4736
239.0439	0.4611
239.2595	0.4689
239.475	0.4608
239.6906	0.4518
239.9061	0.4689
240.1216	0.4578
240.3371	0.4609
240.5526	0.4631
240.7681	0.4578
240.9836	0.4656
241.199	0.4604
241.4145	0.4506
241.6299	0.4607
241.8453	0.454
242.0607	0.4429
242.2761	0.435
242.4915	0.4329
242.7069	0.4275
242.9223	0.4238
243.1376	0.4134
243.353	0.4122
243.5683	0.4008
243.7836	0.396
243.9989	0.3868
244.2142	0.3771
244.4295	0.3777
244.6448	0.3664
244.86	0.3478
245.0753	0.346
245.2905	0.3502
245.5057	0.3414
245.721	0.3313
245.9362	0.3219
246.1514	0.3183
246.3665	0.32
246.5817	0.2987
246.7969	0.2992
247.012	0.296
247.2271	0.2965
247.4423	0.2792
247.6574	0.2809
247.8725	0.2687
248.0876	0.2693
248.3026	0.2711
248.5177	0.2584
248.7328	0.2569
248.9478	0.2526
249.1628	0.2505
249.3779	0.2424
249.5929	0.2394
249.8079	0.2383
250.0228	0.2294
250.2378	0.2316
250.4528	0.2392
250.6677	0.232
250.8827	0.2256
251.0976	0.2223
251.3125	0.2177
251.5274	0.2114
251.7423	0.2128
251.9572	0.216
252.172	0.2149
252.3869	0.2123
252.6017	0.204
252.8166	0.2062
253.0314	0.1988
253.2462	0.2
253.461	0.1984
253.6758	0.1973
253.8906	0.1952
254.1053	0.1997
254.3201	0.1976
254.5348	0.1892
254.7496	0.1933
254.9643	0.1981
255.179	0.195
255.3937	0.1918
255.6083	0.1925
255.823	0.1909
256.0377	0.1895
256.2523	0.1843
256.467	0.1864
256.6816	0.1879
256.8962	0.188
257.1108	0.1901
257.3254	0.1853
257.54	0.1761
257.7545	0.1863
257.9691	0.188
258.1836	0.1777
258.3981	0.1858
258.6127	0.1813
258.8272	0.1858
259.0417	0.1805
259.2561	0.1792
259.4706	0.1801
259.6851	0.1836
259.8995	0.1835
260.114	0.1823
260.3284	0.1741
260.5428	0.183
260.7572	0.1755
260.9716	0.1895
261.186	0.1802
261.4003	0.1784
261.6147	0.1871
261.829	0.1844
262.0433	0.1854
262.2577	0.1842
262.472	0.1833
262.6863	0.1873
262.9005	0.176
263.1148	0.1804
263.3291	0.1809
263.5433	0.187
263.7576	0.1852
263.9718	0.1859
264.186	0.1846
264.4002	0.1848
264.6144	0.1913
264.8286	0.1847
265.0427	0.1923
265.2569	0.1835
265.471	0.1886
265.6851	0.1844
265.8993	0.181
266.1134	0.184
266.3275	0.1819
266.5415	0.1836
266.7556	0.1847
266.9697	0.1925
267.1837	0.1808
267.3978	0.1859
267.6118	0.1803
267.8258	0.1867
268.0398	0.1835
268.2538	0.1861
268.4677	0.1788
268.6817	0.1808
268.8957	0.1775
269.1096	0.1775
269.3235	0.1771
269.5374	0.1814
269.7514	0.1777
269.9652	0.1833
270.1791	0.174
270.393	0.1837
270.6068	0.181
270.8207	0.1807
271.0345	0.1725
271.2483	0.176
271.4622	0.1729
271.676	0.1788
271.8897	0.1762
272.1035	0.1801
272.3173	0.1767
272.531	0.1756
272.7448	0.1744
272.9585	0.1725
273.1722	0.1756
273.3859	0.1726
273.5996	0.1744
273.8133	0.1733
274.0269	0.1647
274.2406	0.1767
274.4542	0.1742
274.6679	0.1771
274.8815	0.1804
275.0951	0.181
275.3087	0.1784
275.5223	0.1725
275.7358	0.181
275.9494	0.1821
276.1629	0.1805
276.3765	0.1756
276.59	0.1751
276.8035	0.1764
277.017	0.1777
277.2305	0.1786
277.444	0.1789
277.6574	0.1833
277.8709	0.184
278.0843	0.1823
278.2978	0.1826
278.5112	0.184
278.7246	0.1769
278.938	0.1806
279.1513	0.1854
279.3647	0.1833
279.5781	0.1824
279.7914	0.1817
280.0047	0.183
280.2181	0.1821
280.4314	0.1852
280.6447	0.1855
280.8579	0.1812
281.0712	0.183
281.2845	0.1803
281.4977	0.1843
281.711	0.1762
281.9242	0.1834
282.1374	0.1865
282.3506	0.1904
282.5638	0.1788
282.7769	0.1826
282.9901	0.1841
283.2033	0.1848
283.4164	0.1834
283.6295	0.1861
283.8426	0.1867
284.0557	0.1886
284.2688	0.1891
284.4819	0.1851
284.695	0.1876
284.908	0.186
285.1211	0.194
285.3341	0.1888
285.5471	0.1947
285.7601	0.1922
285.9731	0.1898
286.1861	0.1937
286.3991	0.1929
286.612	0.1891
286.825	0.1944
287.0379	0.195
287.2508	0.192
287.4637	0.1912
287.6766	0.1919
287.8895	0.1961
288.1024	0.1986
288.3152	0.1958
288.5281	0.1928
288.7409	0.2048
288.9538	0.1962
289.1666	0.1915
289.3794	0.1958
289.5922	0.1986
289.8049	0.1899
290.0177	0.1965
290.2304	0.1966
290.4432	0.1947
290.6559	0.2023
290.8686	0.1909
291.0813	0.2009
291.294	0.2005
291.5067	0.1992
291.7194	0.198
291.932	0.1949
292.1447	0.1992
292.3573	0.1971
292.5699	0.2027
292.7825	0.1966
292.9951	0.1985
293.2077	0.2013
293.4203	0.1968
293.6328	0.1986
293.8454	0.1971
294.0579	0.1963
294.2704	0.2019
294.4829	0.202
294.6954	0.2005
294.9079	0.1903
295.1204	0.193
295.3328	0.2074
295.5453	0.1957
295.7577	0.1984
295.9701	0.1998
296.1825	0.1972
296.3949	0.192
296.6073	0.1965
296.8197	0.1985
297.0321	0.1999
297.2444	0.1997
297.4567	0.1995
297.6691	0.1974
297.8814	0.1998
298.0937	0.2002
298.306	0.1933
298.5182	0.2017
298.7305	0.1993
298.9428	0.2033
299.155	0.1931
299.3672	0.1981
299.5794	0.1977
299.7916	0.2008
300.0038	0.1986
300.216	0.2003
300.4282	0.1995
300.6403	0.2038
300.8525	0.1994
301.0646	0.2007
301.2767	0.1974
301.4888	0.1999
301.7009	0.2029
301.913	0.2058
302.125	0.1986
302.3371	0.1964
302.5491	0.1986
302.7612	0.2027
302.9732	0.1996
303.1852	0.1983
303.3972	0.1989
303.6092	0.2031
303.8211	0.1999
304.0331	0.1984
304.245	0.1933
304.457	0.193
304.6689	0.1995
304.8808	0.188
305.0927	0.1953
305.3046	0.1955
305.5164	0.1902
305.7283	0.1923
305.9401	0.1811
306.152	0.1858
306.3638	0.1901
306.5756	0.187
306.7874	0.184
306.9992	0.179
307.2109	0.1744
307.4227	0.1743
307.6344	0.1803
307.8462	0.1758
308.0579	0.1782
308.2696	0.1753
308.4813	0.1644
308.693	0.1654
308.9046	0.1704
309.1163	0.1723
309.328	0.1618
309.5396	0.1601
309.7512	0.1631
309.9628	0.1601
310.1744	0.1531
310.386	0.1493
310.5976	0.1511
310.8091	0.1557
311.0207	0.154
311.2322	0.1444
311.4437	0.1438
311.6552	0.1511
311.8667	0.1547
312.0782	0.1452
312.2897	0.1491
312.5012	0.1468
312.7126	0.1422
312.924	0.1425
313.1355	0.143
313.3469	0.1394
313.5583	0.1324
313.7696	0.1412
313.981	0.1408
314.1924	0.1381
314.4037	0.1385
314.6151	0.1335
314.8264	0.1411
315.0377	0.1347
315.249	0.1387
315.4603	0.1345
315.6716	0.1339
315.8828	0.1303
316.0941	0.128
316.3053	0.1292
316.5165	0.1345
316.7277	0.1291
316.9389	0.1369
317.1501	0.128
317.3613	0.133
317.5724	0.1326
317.7836	0.1232
317.9947	0.1287
318.2058	0.1272
318.417	0.126
318.6281	0.1257
318.8391	0.1312
319.0502	0.1319
319.2613	0.1276
319.4723	0.1215
319.6834	0.1263
319.8944	0.1242
320.1054	0.125
320.3164	0.1241
320.5274	0.1235
320.7383	0.1312
320.9493	0.128
321.1602	0.1284
321.3712	0.1283
321.5821	0.1235
321.793	0.1327
322.0039	0.1222
322.2148	0.1292
322.4257	0.1283
322.6365	0.1216
322.8474	0.1321
323.0582	0.1315
323.269	0.1303
323.4798	0.1317
323.6906	0.1167
323.9014	0.1256
324.1122	0.1228
324.3229	0.1347
324.5337	0.1284
324.7444	0.1293
324.9551	0.1311
325.1658	0.1268
325.3765	0.1345
325.5872	0.1346
325.7979	0.131
326.0085	0.1251
326.2192	0.1282
326.4298	0.1343
326.6404	0.1329
326.851	0.1219
327.0616	0.1372
327.2722	0.1317
327.4828	0.1298
327.6933	0.1372
327.9039	0.1263
328.1144	0.1311
328.3249	0.1345
328.5354	0.1321
328.7459	0.1383
328.9564	0.1349
329.1669	0.1411
329.3773	0.1358
329.5878	0.1309
329.7982	0.1395
330.0086	0.1364
330.219	0.1346
330.4294	0.1361
330.6398	0.1383
330.8502	0.1416
331.0605	0.1354
331.2708	0.1379
331.4812	0.1406
331.6915	0.1391
331.9018	0.1309
332.1121	0.147
332.3224	0.133
332.5326	0.1358
332.7429	0.1405
332.9531	0.1442
333.1633	0.1324
333.3735	0.1332
333.5837	0.1405
333.7939	0.143
334.0041	0.1452
334.2143	0.1383
334.4244	0.148
334.6346	0.1394
334.8447	0.1406
335.0548	0.1433
335.2649	0.1481
335.475	0.1463
335.685	0.1437
335.8951	0.1406
336.1051	0.1411
336.3152	0.146
336.5252	0.1348
336.7352	0.139
336.9452	0.1432
337.1552	0.1471
337.3652	0.1354
337.5751	0.1484
337.7851	0.1478
337.995	0.1454
338.2049	0.1461
338.4148	0.1452
338.6247	0.1486
338.8346	0.1401
339.0445	0.1483
339.2543	0.1438
339.4642	0.1435
339.674	0.1406
339.8838	0.1475
340.0936	0.1478
340.3034	0.1387
340.5132	0.1411
340.7229	0.1484
340.9327	0.1535
341.1424	0.1487
341.3522	0.1491
341.5619	0.1501
341.7716	0.154
341.9813	0.1534
342.1909	0.1575
342.4006	0.151
342.6102	0.1549
342.8199	0.1565
343.0295	0.1557
343.2391	0.1549
343.4487	0.1598
343.6583	0.1605
343.8679	0.1513
344.0774	0.1528
344.287	0.1605
344.4965	0.1633
344.706	0.1535
344.9155	0.1629
345.125	0.1576
345.3345	0.1692
345.544	0.1609
345.7534	0.1654
345.9629	0.1684
346.1723	0.1609
346.3817	0.1643
346.5911	0.171
346.8005	0.1701
347.0099	0.1689
347.2193	0.1754
347.4286	0.169
347.638	0.1733
347.8473	0.1737
348.0566	0.1749
348.2659	0.1724
348.4752	0.1709
348.6845	0.1678
348.8937	0.1661
349.103	0.1708
349.3122	0.1718
349.5214	0.1751
349.7306	0.1727
349.9398	0.1743
350.149	0.174
350.3582	0.181
350.5674	0.1838
350.7765	0.1778
350.9856	0.1713
351.1948	0.1792
351.4039	0.1799
351.613	0.1822
351.822	0.185
352.0311	0.1711
352.2402	0.1832
352.4492	0.1846
352.6582	0.1823
352.8672	0.1839
353.0762	0.1856
353.2852	0.1918
353.4942	0.192
353.7032	0.1911
353.9121	0.1884
354.1211	0.1873
354.33	0.1914
354.5389	0.1853
354.7478	0.184
354.9567	0.1913
355.1655	0.1906
355.3744	0.1997
355.5833	0.1882
355.7921	0.1917
356.0009	0.1896
356.2097	0.192
356.4185	0.1951
356.6273	0.191
356.8361	0.1986
357.0448	0.2002
357.2536	0.1928
357.4623	0.1965
357.671	0.1981
357.8797	0.203
358.0884	0.1999
358.2971	0.1996
358.5057	0.1995
358.7144	0.202
358.923	0.2043
359.1316	0.2063
359.3402	0.2104
359.5488	0.2007
359.7574	0.2122
359.966	0.2026
360.1746	0.2127
360.3831	0.2114
360.5916	0.2111
360.8002	0.2118
361.0087	0.2127
361.2172	0.2116
361.4256	0.2184
361.6341	0.2111
361.8426	0.2116
362.051	0.2199
362.2594	0.2139
362.4678	0.222
362.6762	0.2182
362.8846	0.2233
363.093	0.2266
363.3014	0.2218
363.5097	0.2201
363.718	0.2281
363.9264	0.2333
364.1347	0.2294
364.343	0.2306
364.5513	0.2257
364.7595	0.2378
364.9678	0.2373
365.176	0.2407
365.3842	0.2359
365.5925	0.233
365.8007	0.2332
366.0089	0.2431
366.217	0.241
366.4252	0.2362
366.6333	0.2434
366.8415	0.2446
367.0496	0.2424
367.2577	0.2395
367.4658	0.2506
367.6739	0.2409
367.882	0.2435
368.09	0.2388
368.2981	0.2519
368.5061	0.2504
368.7141	0.2424
368.9221	0.2634
369.1301	0.2526
369.3381	0.2602
369.5461	0.2545
369.754	0.2551
369.962	0.2522
370.1699	0.2624
370.3778	0.2772
370.5857	0.2581
370.7936	0.2658
371.0015	0.2664
371.2093	0.2596
371.4172	0.2552
371.625	0.2658
371.8328	0.2658
372.0406	0.2658
372.2484	0.2735
372.4562	0.2678
372.664	0.2736
372.8717	0.2732
373.0795	0.2718
373.2872	0.2786
373.4949	0.2881
373.7026	0.272
373.9103	0.266
374.118	0.271
374.3256	0.286
374.5333	0.2762
374.7409	0.2738
374.9485	0.2762
375.1561	0.2815
375.3637	0.2769
375.5713	0.2872
375.7789	0.2755
375.9864	0.2753
376.194	0.2873
376.4015	0.2824
376.609	0.2866
376.8165	0.2982
377.024	0.2845
377.2315	0.2947
377.4389	0.2812
377.6464	0.2876
377.8538	0.3023
378.0612	0.2943
378.2686	0.2924
378.476	0.3027
378.6834	0.2869
378.8908	0.2957
379.0981	0.2965
379.3055	0.3021
379.5128	0.2916
379.7201	0.3036
379.9274	0.2961
380.1347	0.2947
380.342	0.2988
380.5492	0.2977
380.7565	0.3065
380.9637	0.3009
381.1709	0.3018
381.3781	0.3061
381.5853	0.2994
381.7925	0.3011
381.9997	0.3221
382.2068	0.3071
382.4139	0.3032
382.6211	0.3134
382.8282	0.3149
383.0353	0.3085
383.2424	0.2957
383.4494	0.3197
383.6565	0.3094
383.8635	0.312
384.0706	0.3297
384.2776	0.3078
384.4846	0.321
384.6916	0.3179
384.8986	0.3184
385.1055	0.331
385.3125	0.3167
385.5194	0.3166
385.7263	0.3056
385.9333	0.3171
386.1402	0.312
386.347	0.3158
386.5539	0.3121
386.7608	0.3151
386.9676	0.3199
387.1744	0.3127
387.3813	0.3056
387.5881	0.3057
387.7948	0.3221
388.0016	0.319
388.2084	0.3219
388.4151	0.3188
388.6219	0.3049
388.8286	0.3127
389.0353	0.3117
389.242	0.3188
389.4487	0.314
389.6553	0.3066
389.862	0.3013
390.0686	0.3233
390.2753	0.3079
390.4819	0.309
390.6885	0.3051
390.8951	0.3072
391.1016	0.2977
391.3082	0.3105
391.5147	0.2974
391.7213	0.2941
391.9278	0.2981
392.1343	0.2962
392.3408	0.2958
392.5473	0.299
392.7537	0.2939
392.9602	0.285
393.1666	0.2895
393.373	0.2857
393.5794	0.2907
393.7858	0.2925
393.9922	0.2808
394.1986	0.284
394.4049	0.2928
394.6113	0.2895
394.8176	0.2892
395.0239	0.2852
395.2302	0.288
395.4365	0.2831
395.6428	0.2751
395.8491	0.2834
396.0553	0.2799
396.2615	0.2735
396.4678	0.288
396.674	0.279
396.8802	0.2707
397.0863	0.2708
397.2925	0.2772
397.4987	0.2694
397.7048	0.2815
397.9109	0.2629
398.117	0.2658
398.3231	0.272
398.5292	0.2603
398.7353	0.2648
398.9413	0.2694
399.1474	0.2693
399.3534	0.2722
399.5594	0.2666
399.7654	0.2657
399.9714	0.2629
400.1774	0.2645
400.3833	0.2694
400.5893	0.2671
400.7952	0.2649
401.0011	0.2703
401.207	0.2696
401.4129	0.2685
401.6188	0.27
401.8247	0.2755
402.0305	0.2687
402.2364	0.2732
402.4422	0.2658
402.648	0.2616
402.8538	0.2661
403.0596	0.2675
403.2654	0.2658
403.4711	0.2599
403.6768	0.2642
403.8826	0.277
404.0883	0.2673
404.294	0.2684
404.4997	0.2599
404.7054	0.2705
404.911	0.2729
405.1167	0.2714
405.3223	0.2633
405.5279	0.265
405.7335	0.2669
405.9391	0.2679
406.1447	0.2679
406.3502	0.2693
406.5558	0.2692
406.7613	0.2691
406.9668	0.2724
407.1724	0.2555
407.3778	0.271
407.5833	0.2565
407.7888	0.2631
407.9942	0.2617
408.1997	0.2674
408.4051	0.2752
408.6105	0.267
408.8159	0.2628
409.0213	0.2751
409.2267	0.2692
409.432	0.2683
409.6374	0.2685
409.8427	0.2766
410.048	0.2638
410.2533	0.2638
410.4586	0.2774
410.6639	0.2629
410.8691	0.2546
411.0744	0.2678
411.2796	0.2671
411.4848	0.2675
411.69	0.2558
411.8952	0.2657
412.1004	0.26
412.3056	0.2636
412.5107	0.2667
412.7158	0.27
412.921	0.2656
413.1261	0.2581
413.3312	0.2618
413.5362	0.2738
413.7413	0.2682
413.9464	0.2522
414.1514	0.2623
414.3564	0.261
414.5614	0.2646
414.7664	0.2591
414.9714	0.2569
415.1764	0.2713
415.3813	0.2558
415.5863	0.26
415.7912	0.2648
415.9961	0.2624
416.201	0.2695
416.4059	0.2557
416.6108	0.264
416.8156	0.2608
417.0205	0.2575
417.2253	0.2561
417.4301	0.26
417.6349	0.2558
417.8397	0.2497
418.0445	0.2556
418.2492	0.2638
418.454	0.247
418.6587	0.2604
418.8634	0.2554
419.0681	0.2595
419.2728	0.2586
419.4775	0.2544
419.6822	0.2514
419.8868	0.2461
420.0915	0.2558
420.2961	0.2387
420.5007	0.2609
420.7053	0.2568
420.9099	0.257
421.1144	0.2526
421.319	0.2363
421.5235	0.2341
421.728	0.2603
421.9325	0.248
422.137	0.2392
422.3415	0.2336
422.546	0.2367
422.7504	0.2464
422.9549	0.2559
423.1593	0.2292
423.3637	0.2346
423.5681	0.2367
423.7725	0.2345
423.9769	0.2456
424.1812	0.2271
424.3856	0.2398
424.5899	0.232
424.7942	0.2294
424.9985	0.2245
425.2028	0.2285
425.4071	0.2323
425.6113	0.2309
425.8156	0.2256
426.0198	0.2264
426.224	0.2336
426.4282	0.2191
426.6324	0.2267
426.8366	0.2171
427.0407	0.2181
427.2449	0.2175
427.449	0.2185
427.6531	0.2347
427.8572	0.219
428.0613	0.2248
428.2654	0.2171
428.4694	0.2038
428.6735	0.2054
428.8775	0.2113
429.0815	0.2122
429.2855	0.2058
429.4895	0.2038
429.6935	0.2005
429.8975	0.1962
430.1014	0.2021
430.3053	0.2067
430.5093	0.193
430.7132	0.1954
430.9171	0.1994
431.1209	0.1972
431.3248	0.1863
431.5286	0.1854
431.7325	0.1966
431.9363	0.1803
432.1401	0.1864
432.3439	0.1929
432.5477	0.1822
432.7514	0.1867
432.9552	0.1755
433.1589	0.1695
433.3627	0.1743
433.5664	0.1691
433.7701	0.174
433.9737	0.1754
434.1774	0.1661
434.3811	0.1617
434.5847	0.1715
434.7883	0.16
434.9919	0.1456
435.1955	0.1579
435.3991	0.1591
435.6027	0.1488
435.8062	0.1732
436.0098	0.1521
436.2133	0.1535
436.4168	0.1533
436.6203	0.1417
436.8238	0.1391
437.0272	0.1397
437.2307	0.1391
437.4341	0.1493
437.6375	0.1482
437.841	0.1331
438.0443	0.1406
438.2477	0.1199
438.4511	0.1317
438.6545	0.1355
438.8578	0.1315
439.0611	0.1306
439.2644	0.1262
439.4677	0.1267
439.671	0.1101
439.8743	0.1264
440.0775	0.1197
440.2808	0.1234
440.484	0.1107
440.6872	0.1148
440.8904	0.1074
441.0936	0.1151
441.2967	0.101
441.4999	0.1081
441.703	0.1042
441.9062	0.101
442.1093	0.1099
442.3124	0.0965
442.5155	0.1029
442.7185	0.0932
442.9216	0.1004
443.1246	0.0919
443.3276	0.094
443.5307	0.0841
443.7337	0.0969
443.9366	0.0985
444.1396	0.086
444.3426	0.0845
444.5455	0.0838
444.7484	0.0878
444.9513	0.0846
445.1542	0.0828
445.3571	0.083
445.56	0.0712
445.7628	0.0791
445.9657	0.0815
446.1685	0.0806
446.3713	0.0756
446.5741	0.0816
446.7769	0.0783
446.9797	0.0712
447.1824	0.0632
447.3852	0.0608
447.5879	0.0709
447.7906	0.05
447.9933	0.0668
448.196	0.0605
448.3986	0.0694
448.6013	0.0587
448.8039	0.0622
449.0066	0.0679
449.2092	0.0646
449.4118	0.0595
449.6143	0.0535
449.8169	0.0618
450.0195	0.0496
450.222	0.0564
450.4245	0.0509
450.627	0.058
450.8295	0.0535
451.032	0.049
451.2345	0.0442
451.4369	0.0597
451.6394	0.0475
451.8418	0.0524
452.0442	0.0513
452.2466	0.0384
452.449	0.0519
452.6513	0.0462
452.8537	0.0396
453.056	0.0521
453.2583	0.046
453.4607	0.0369
453.663	0.0451
453.8652	0.0367
454.0675	0.0497
454.2697	0.0404
454.472	0.0328
454.6742	0.0448
454.8764	0.043
455.0786	0.0372
455.2808	0.0265
455.4829	0.0335
455.6851	0.0351
455.8872	0.0265
456.0893	0.0344
456.2915	0.0286
456.4935	0.0317
456.6956	0.0302
456.8977	0.029
457.0997	0.0349
457.3018	0.026
457.5038	0.0283
457.7058	0.031
457.9078	0.0334
458.1098	0.0246
458.3117	0.033
458.5137	0.0155
458.7156	0.0366
458.9175	0.0295
459.1194	0.0278
459.3213	0.0223
459.5232	0.0267
459.725	0.0196
459.9269	0.0294
460.1287	0.0206
460.3305	0.0326
460.5323	0.0247
460.7341	0.0248
460.9359	0.0206
461.1376	0.0245
461.3394	0.0217
461.5411	0.0249
461.7428	0.0187
461.9445	0.0172
462.1462	0.0184
462.3479	0.0223
462.5495	0.0231
462.7512	0.0263
462.9528	0.0261
463.1544	0.0202
463.356	0.0102
463.5576	0.0326
463.7592	0.0206
463.9607	0.0171
464.1623	0.021
464.3638	0.0158
464.5653	0.0143
464.7668	0.0241
464.9683	0.0226
465.1697	0.0139
465.3712	0.013
465.5726	0.016
465.7741	0.0208
465.9755	0.0185
466.1769	0.0141
466.3782	0.0151
466.5796	0.0146
466.7809	0.0246
466.9823	0.0168
467.1836	0.0213
467.3849	0.0133
467.5862	0.0096
467.7875	0.0135
467.9887	0.0126
468.19	0.0078
468.3912	0.0307
468.5924	0.0186
468.7936	0.0149
468.9948	0.0131
469.196	0.0093
469.3972	0.0117
469.5983	0.0147
469.7994	0.0129
470.0006	0.0161
470.2017	0.0135
470.4027	0.0234
470.6038	0.0142
470.8049	0.0148
471.0059	0.0154
471.2069	0.0217
471.408	0.0146
471.6089	0.0215
471.8099	0.0197
472.0109	0.014
472.2119	0.027
472.4128	0.0132
472.6137	0.019
472.8146	0.0185
473.0155	0.0196
473.2164	0.015
473.4173	0.0077
473.6181	0.012
473.819	0.01
474.0198	0.0097
474.2206	0.0025
474.4214	0.0116
474.6222	-0.0014
474.8229	0.0107
475.0237	0.0129
475.2244	0.0143
475.4251	0.0069
475.6258	0.0073
475.8265	0.0167
476.0272	0.01
476.2278	0.017
476.4285	0.0165
476.6291	0.0146
476.8297	0.0123
477.0303	0.0057
477.2309	0.0141
477.4315	0.0173
477.632	-0.0044
477.8326	0.0108
478.0331	0.015
478.2336	0.01
478.4341	0.0096
478.6346	0.0031
478.8351	0.0091
479.0355	0.0167
479.236	0.0135
479.4364	0.0174
479.6368	0.006
479.8372	0.0124
480.0376	0.0138
480.2379	0.0106
480.4383	0.0184
480.6386	0.0098
480.8389	0.0135
481.0392	0.0075
481.2395	0.0197
481.4398	0.0165
481.6401	0.0191
481.8403	0.0107
482.0405	0.0099
482.2408	0.0144
482.441	0.0129
482.6411	0.0098
482.8413	0.0048
483.0415	0.0202
483.2416	0.0065
483.4417	0.004
483.6419	0.0025
483.8419	0.0099
484.042	0.0107
484.2421	0.0103
484.4422	0.0064
484.6422	0.0092
484.8422	0.0125
485.0422	0.0108
485.2422	0.0068
485.4422	0.0072
485.6422	0.0087
485.8421	0.0067
486.042	0.0175
486.242	0.0026
486.4419	0.0145
486.6417	0.0053
486.8416	0.0069
487.0415	0.0059
487.2413	0.0039
487.4411	0.0108
487.641	0.011
487.8408	0.0063
488.0405	0.0106
488.2403	0.0022
488.4401	0.0115
488.6398	0.0182
488.8395	0.0099
489.0392	0.0125
489.2389	0.0159
489.4386	0.0021
489.6383	0.0171
489.8379	0.014
490.0376	0.0116
490.2372	0.0041
490.4368	0.0119
490.6364	-0.0032
490.836	0.0131
491.0355	0.0027
491.2351	0.0136
491.4346	0.0176
491.6341	0.0052
491.8336	0.0165
492.0331	0.0047
492.2326	0.0194
492.432	0.0119
492.6315	0.0136
492.8309	0.0174
493.0303	0.0113
493.2297	0.0134
493.4291	0.0038
493.6284	0.0141
493.8278	0.0086
494.0271	0.0101
494.2264	0.0046
494.4257	0.0125
494.625	0.0062
494.8243	0.0081
495.0236	0.0211
495.2228	0.0133
495.422	0.0149
495.6213	0.0141
495.8205	0.0108
496.0196	0.0159
496.2188	0.0138
496.418	0.0135
496.6171	0.0071
496.8162	0.0209
497.0153	0.0115
497.2144	0.0078
497.4135	0.0042
497.6126	0.0064
497.8116	0.0061
498.0107	0.0039
498.2097	0.0214
498.4087	0.0055
498.6077	0.0046
498.8067	0.0122
499.0056	0.0085
499.2046	0.0171
499.4035	0.0204
499.6024	0.0017
499.8013	0.0141
500.0002	0.0097
500.199	0.0123
500.3979	0.0091
500.5967	0.004
500.7956	0.0056
500.9944	0.0114
501.1932	0.0141
501.3919	0.0134
501.5907	0.0125
501.7895	0.0079
501.9882	0.0131
502.1869	0.014
502.3856	0.0105
502.5843	0.0112
502.783	0.0112
502.9816	0.0189
503.1803	0.0035
503.3789	0.0156
503.5775	0.0057
503.7761	0.0042
503.9747	0.0126
504.1732	0.005
504.3718	0.0228
504.5703	0.01
504.7689	-0.0036
504.9674	0.0062
505.1658	0.0073
505.3643	0.0116
505.5628	0.0134
505.7612	0.0101
505.9597	0.0028
506.1581	0.0047
506.3565	0.0048
506.5549	0.0044
506.7532	0.0059
506.9516	0.014
507.1499	0.006
507.3482	0.0101
507.5465	0.01
507.7448	0.0121
507.9431	0.0144
508.1414	0.0071
508.3396	0.007
508.5379	0.007
508.7361	0.0107
508.9343	0.0161
509.1325	0.0179
509.3306	0.0121
509.5288	0.0063
509.7269	0.0123
509.9251	0.0119
510.1232	0.0135
510.3213	0.0106
510.5193	0.0076
510.7174	0.0057
510.9154	0.0148
511.1135	0.0031
511.3115	0.0025
511.5095	0.0049
511.7075	0.0153
511.9055	0.0101
512.1034	0.0117
512.3014	0.0071
512.4993	0.0213
512.6972	0.0112
512.8951	0.0053
513.093	0.0119
513.2908	0.0219
513.4887	0.0098
513.6865	0.0123
513.8844	0.0143
514.0822	0.0163
514.2799	0.0024
514.4777	0.0045
514.6755	0.0063
514.8732	0.0089
515.0709	0.0124
515.2687	0.0043
515.4664	0.0179
515.664	0.0184
515.8617	0.0133
516.0594	0.0049
516.257	0.0143
516.4546	0.0194
516.6522	0.0043
516.8498	0.0156
517.0474	0.0172
517.2449	0.0069
517.4425	0.0136
517.64	0.0124
517.8375	0.0127
518.035	0.0058
518.2325	-0.001
518.43	0.0127
518.6274	0.0047
518.8249	0.0015
519.0223	0.0152
519.2197	0.0108
519.4171	-0.0007
519.6145	0.0144
519.8118	0.0017
520.0092	0.0033
520.2065	0.013
520.4038	0.0149
520.6011	0.01
520.7984	0.0124
520.9956	0.0092
521.1929	0.015
521.3901	0.0126
521.5874	0.0183
521.7846	0.0096
521.9818	0.0104
522.1789	0.0049
522.3761	0.0128
522.5732	0.0095
522.7704	-0.0019
522.9675	0.0007
523.1646	0.0078
523.3617	0.014
523.5587	0.0082
523.7558	0.0132
523.9528	0.0279
524.1498	0.0023
524.3468	0.0065
524.5438	0.0127
524.7408	0.0037
524.9378	0.0122
525.1347	0.0186
525.3316	0.007
525.5285	0.0094
525.7254	0.0213
525.9223	0.0186
526.1192	0.0107
526.316	0.0153
526.5129	0.0187
526.7097	0.0021
526.9065	0.0243
527.1033	0.0148
527.3	0.0134
527.4968	0.0177
527.6935	0.0017
527.8903	0.0037
528.087	0.0074
528.2837	0.0111
528.4804	0.0051
528.677	0.0149
528.8737	0.0084
529.0703	0.012
529.2669	0.0226
529.4635	0.0194
529.6601	0.0053
529.8567	0.0115
530.0532	0.0056
530.2498	0.0146
530.4463	-0.0062
530.6428	0.0116
530.8393	0.0181
531.0358	0.0139
531.2322	0.0066
531.4287	0.0068
531.6251	-0.0006
531.8215	0.0103
532.0179	0.0067
532.2143	0.0088
532.4107	0.0126
532.607	0.0055
532.8034	0.0074
532.9997	0.0075
533.196	0.0046
533.3923	0.0113
533.5886	0.0168
533.7848	0.0099
533.9811	0.0182
534.1773	-0.0009
534.3735	0.0192
534.5697	0.006
534.7659	0.0117
534.9621	0.0053
535.1582	0.0074
535.3544	0.0112
535.5505	0.0135
535.7466	0.0085
535.9427	0.0119
536.1387	-0.0022
536.3348	0.0176
536.5308	0.0053
536.7269	0.0106
536.9229	0.0155
537.1189	0.0181
537.3148	0.0107
537.5108	0.0155
537.7068	0.0101
537.9027	0.0026
538.0986	0.0278
538.2945	0.0041
538.4904	0.0012
538.6863	0.0147
538.8821	0.0153
539.078	0.005
539.2738	0.0104
539.4696	0.0023
539.6654	0.012
539.8611	0.0162
540.0569	0.0116
540.2526	0.0193
540.4484	0.0075
540.6441	0.004
540.8398	0.0168
541.0355	-0.0018
541.2311	0.0069
541.4268	0.013
541.6224	0.0247
541.818	0.0155
542.0136	0.0161
542.2092	0.01
542.4048	0.0139
542.6003	0.0068
542.7959	0.006
542.9914	0.0085
543.1869	0.015
543.3824	0.0054
543.5779	0.0201
543.7734	0.0192
543.9688	0.0226
544.1642	0.0056
544.3596	0.019
544.555	0.0065
544.7504	0.0137
544.9458	0.0058
545.1411	0.0117
545.3365	0.0096
545.5318	0.0113
545.7271	0.0144
545.9224	-0.0015
546.1177	0.0143
546.3129	0.0121
546.5081	0.0034
546.7034	0.0144
546.8986	0.0094
547.0938	0.0169
547.289	0.0107
547.4841	0.0114
547.6793	0.0052
547.8744	0.0117
548.0695	0.001
548.2646	0.0092
548.4597	0.0072
548.6548	0.0165
548.8498	0.0146
549.0448	0.0091
549.2399	0.0241
549.4349	0.0134
549.6298	0.0128
549.8248	0.0106
550.0198	0.0109
550.2147	0.0101
550.4096	0.0036
550.6045	0.0053
550.7994	0.0145
550.9943	0.0143
551.1892	-0.0029
551.384	0.0137
551.5788	0.0132
551.7737	0.0074
551.9685	0.0093
552.1632	-0.0023
552.358	0.0028
552.5528	0.0158
552.7475	0.0174
552.9422	0.0219
553.1369	0.0184
553.3316	0.0123
553.5263	0.0148
553.7209	0.0062
553.9156	0.0167
554.1102	0.0104
554.3048	0.0154
554.4994	0.0051
554.694	0.0043
554.8885	0.0193
555.0831	0.0128
555.2776	0.0011
555.4721	0.0187
555.6666	0.0154
555.8611	0.0096
556.0555	0.011
556.25	0.0141
556.4444	0.0088
556.6388	0.0089
556.8332	0.0051
557.0276	0.011
557.222	0.0078
557.4163	0.0155
557.6107	0.0115
557.805	-0
557.9993	0.0164
558.1936	-0.0029
558.3879	0.0217
558.5821	0.0093
558.7764	0.0087
558.9706	-0.0016
559.1648	0.013
559.359	-0.0012
559.5532	0.0045
559.7473	0.0037
559.9415	0.0119
560.1356	0.0128
560.3297	0.0006
560.5238	0.0179
560.7179	0.0067
560.9119	0.0078
561.106	0.005
561.3	0.0022
561.494	-0.0048
561.688	0.0051
561.882	0.007
562.076	0.0049
562.2699	0.0153
562.4639	0.0197
562.6578	0.0106
562.8517	0.0116
563.0456	0.0105
563.2395	0.0099
563.4333	0.0114
563.6272	0.0123
563.821	0.015
564.0148	0.0073
564.2086	0.0092
564.4024	0.0177
564.5961	0.0101
564.7899	0.0172
564.9836	0.0094
565.1773	0.0119
565.371	0.009
565.5647	0.0166
565.7584	0.0184
565.952	0.0052
566.1456	0.0085
566.3393	0.0117
566.5329	0.0143
566.7264	0.0194
566.92	0.0134
567.1136	0.0074
567.3071	0.004
567.5006	0.0118
567.6941	0.0084
567.8876	0.0085
568.0811	0.0229
568.2745	0.0036
568.468	0.003
568.6614	0.0101
568.8548	0.0076
569.0482	0.0107
569.2416	0.0157
569.4349	0.0093
569.6283	0.0072
569.8216	0.0086
570.0149	0.0052
570.2082	0.0133
570.4015	0.0044
570.5947	0.0091
570.788	0.0147
570.9812	0.005
571.1744	0.0126
571.3676	0.0083
571.5608	0.0112
571.754	0.0162
571.9471	0.0125
572.1402	0.0114
572.3333	0.0124
572.5264	0.0122
572.7195	0.006
572.9126	0.0114
573.1057	0.011
573.2987	0.0097
573.4917	0.0122
573.6847	0.0058
573.8777	0.0125
574.0707	0.0079
574.2636	0.0077
574.4566	0.0058
574.6495	0.0028
574.8424	0.0135
575.0353	0.0124
575.2281	0.0119
575.421	0.0032
575.6138	0.0088
575.8067	0.0119
575.9995	0.0082
576.1923	0.0085
576.385	0.0107
576.5778	0.0104
576.7706	0.0083
576.9633	0.0094
577.156	0.0022
577.3487	0.0062
577.5414	0.0059
577.734	0.0071
577.9267	0.012
578.1193	0.0107
578.3119	0.0024
578.5045	0.0092
578.6971	0.0066
578.8897	0.0089
579.0822	0.0104
579.2747	0.006
579.4673	0.0071
579.6598	0.0119
579.8522	0.0099
580.0447	0.0148
580.2372	0.0111
580.4296	0.0115
580.622	0.0061
580.8144	0.0097
581.0068	0.0117
581.1992	0.0113
581.3915	0.0006
581.5839	0.0095
581.7762	0.0046
581.9685	0.0052
582.1608	0.0073
582.353	0.0031
582.5453	0.012
582.7375	0.0095
582.9298	0.0022
583.122	0.0107
583.3142	0.008
583.5063	0.0072
583.6985	0.008
583.8906	0.0075
584.0827	0.0134
584.2749	0.0053
584.4669	0.0069
584.659	0.0114
584.8511	0.0105
585.0431	0.011
585.2352	0.0066
585.4272	0.0087
585.6192	0.0099
585.8111	0.0044
586.0031	0.0029
586.195	0.0049
586.387	0.0085
586.5789	0.012
586.7708	0.0135
586.9627	0.0092
587.1545	0.0074
587.3464	0.0091
587.5382	0.0097
587.73	0.0149
587.9218	0.0099
588.1136	0.0044
588.3053	0.0081
588.4971	0.0026
588.6888	0.0081
588.8805	0.0107
589.0722	0.0138
589.2639	0.0081
589.4556	0.0081
589.6472	0.012
589.8389	0.009
590.0305	0.0008
590.2221	0.0104
590.4137	0.01
590.6052	0.0079
590.7968	0.0076
590.9883	0.0087
591.1798	0.008
591.3713	0.0074
591.5628	0.0039
591.7543	0.0079
591.9458	0.0077
592.1372	0.0076
592.3286	0.0024
592.52	0.0068
592.7114	0.0116
592.9028	0.0172
593.0941	0.0062
593.2855	0.0069
593.4768	0.0118
593.6681	0.012
593.8594	0.0095
594.0506	0.0116
594.2419	0.0117
594.4331	0.0088
594.6244	0.0058
594.8156	0.0013
595.0067	0.0037
595.1979	0.0043
595.3891	0.0131
595.5802	0.0111
595.7713	0.0105
595.9624	0.0162
596.1535	0.0099
596.3446	0.008
596.5357	0.0146
596.7267	0.0115
596.9177	0.0046
597.1087	0.0012
597.2997	0.0115
597.4907	0.007
597.6817	0.0104
597.8726	0.0091
598.0635	0.0085
598.2544	0.0132
598.4453	0.0059
598.6362	0.0058
598.827	0.0083
599.0179	0.0129
599.2087	0.011
599.3995	0.0089
599.5903	0.0166
599.7811	0.0176
599.9718	0.0056
600.1626	0.0043
600.3533	0.0039
600.544	0.0093
600.7347	0.0113
600.9254	0.0194
601.116	0.0099
601.3067	0.0054
601.4973	0.0085
601.6879	0.0049
601.8785	0.0117
602.0691	0.0063
602.2596	0.0084
602.4502	0.0089
602.6407	0.0106
602.8312	0.0103
603.0217	0.0098
603.2122	0.0058
603.4027	0.0059
603.5931	0.0025
603.7835	0.01
603.9739	0.0063
604.1643	0.0106
604.3547	0.0089
604.5451	0.01
604.7354	0.0042
604.9257	0.0047
605.116	-0.001
605.3063	0.0065
605.4966	0.0066
605.6869	0.015
605.8771	0.0074
606.0673	0.0075
606.2575	0.0076
606.4477	0.011
606.6379	0.0079
606.8281	0.0058
607.0182	0.0081
607.2083	0.01
607.3985	0.0042
607.5885	0.0111
607.7786	0.0081
607.9687	0.011
608.1587	0.0092
608.3488	0.0119
608.5388	0.004
608.7288	0.0007
608.9187	0.0129
609.1087	0.0128
609.2986	0.0129
609.4886	0.0114
609.6785	0.0129
609.8684	0.005
610.0582	0.0079
610.2481	0.0035
610.4379	0.018
610.6278	0.0095
610.8176	0.0135
611.0074	0.0099
611.1971	0.0059
611.3869	0.0178
611.5766	-0.0013
611.7664	0.0065
611.9561	0.0083
612.1458	0.013
612.3354	0.0051
612.5251	0.0114
612.7147	0.0131
612.9044	0.0064
613.094	0.0036
613.2836	0.0085
613.4731	0.0091
613.6627	0.0176
613.8522	0.0104
614.0417	0.0154
614.2313	0.0083
614.4207	0.0139
614.6102	0.0153
614.7997	0.0211
614.9891	0.0119
615.1785	-0.0002
615.3679	0.0096
615.5573	0.017
615.7467	0.0011
615.9361	0.0017
616.1254	0.0158
616.3147	0.0018
616.504	0.0057
616.6933	0.0102
616.8826	0.0016
617.0718	0.0114
617.2611	0.0034
617.4503	0.0037
617.6395	0.0162
617.8287	0.0127
618.0179	0.01
618.207	0.0107
618.3961	0.0079
618.5853	0.0038
618.7744	0.0098
618.9634	0.0141
619.1525	0.0118
619.3416	0.0037
619.5306	0.0104
619.7196	0.0174
619.9086	0.0084
620.0976	0.0034
620.2866	0.0185
620.4755	0.0033
620.6645	0.019
620.8534	0.0075
621.0423	0.0091
621.2312	0.0082
621.42	0.0045
621.6089	0.0052
621.7977	0.0174
621.9865	0.009
622.1753	0.0003
622.3641	-0.0013
622.5529	-0.0018
622.7416	0.0057
622.9303	0.0061
623.1191	0.0045
623.3078	0.0112
623.4964	0.0159
623.6851	0.0113
623.8737	0.0026
624.0624	-0.0014
624.251	0.009
624.4396	0.0168
624.6282	0.0194
624.8167	0.0108
625.0053	0.0097
625.1938	0.0134
625.3823	0.0103
625.5708	0.0013
625.7593	-0.0042
625.9477	0.0162
626.1362	0.002
626.3246	-0.0005
626.513	0.004
626.7014	0.011
626.8898	0.0171
627.0781	0.018
627.2665	0.0152
627.4548	0.002
627.6431	0.016
627.8314	0.0135
628.0197	0.01
628.2079	0.0094
628.3962	0.0164
628.5844	0.0116
628.7726	0.0045
628.9608	0.0044
629.1489	0.012
629.3371	0.0003
629.5252	0.0199
629.7134	0.0045
629.9015	0.0145
630.0895	-0.0116
630.2776	0.0165
630.4657	0.0078
630.6537	0.009
630.8417	-0.0036
631.0297	0.0103
631.2177	0.0068
631.4057	0.0144
631.5936	0.0152
631.7815	0.0126
631.9695	0.0348
632.1574	0.012
632.3452	0.0207
632.5331	0.011
632.7209	0.0157
632.9088	0.0042
633.0966	0.0234
633.2844	0.016
633.4722	0.018
633.6599	0.0179
633.8477	0.0174
634.0354	0.0144
634.2231	-0.0047
634.4108	0.0109
634.5985	0.0102
634.7861	0.0138
634.9738	0.0032
635.1614	0.0088
635.349	-0.0002
635.5366	0.0089
635.7242	0.0057
635.9117	0.008
636.0993	0.0135
636.2868	-0.001
636.4743	0.0106
636.6618	-0.0091
636.8492	0.0106
637.0367	0.0051
637.2241	0.0005
637.4115	0.0356
637.5989	0.0112
637.7863	0.0294
637.9737	0.0101
638.161	0.0084
638.3484	-0.0005
638.5357	0.0031
638.723	0.0151
638.9103	-0.0053
639.0975	0.0145
639.2848	0.0088
639.472	0.0057
639.6592	0.0091
639.8464	0.0207
640.0336	0.0119
640.2208	0.0241
640.4079	0.0047
640.595	0.0032
640.7821	0.0106
640.9692	-0.0027
641.1563	0.0278
641.3434	0.0157
641.5304	0.0123
641.7174	0.0307
641.9044	0.0136
642.0914	0.0313
642.2784	0.0052
642.4653	0.0009
642.6523	0.0141
642.8392	0.0055
643.0261	0.0139
643.213	0.0159
643.3999	0.0209
643.5867	0.0088
643.7735	0.0055
643.9604	0.0064
644.1472	0.0115
644.3339	0.018
644.5207	0.0087
644.7075	0.012
644.8942	0.008
645.0809	0.0068
645.2676	0.0093
645.4543	0.0172
645.6409	0.0129
645.8276	0.0292
646.0142	0.0249
646.2008	0.009
646.3874	-0.0091
646.574	0.0063
646.7605	0.0252
646.9471	0.012
647.1336	-0.0138
647.3201	0.0157
647.5066	0.0163
647.6931	0.0109
647.8795	0.0097
648.0659	0.0018
648.2524	0.0211
648.4388	0.0166
648.6252	0.0185
648.8115	0.0156
648.9979	0.0138
649.1842	0.0076
649.3705	0.0264
649.5568	0.0008
649.7431	-0.0077
649.9294	-0.0048
650.1156	-0.0135
650.3018	0.0033
650.488	0.0265
650.6742	0.0367
650.8604	0.0171
651.0466	0.0225
651.2327	0.0164
651.4188	0.0198
651.6049	0.0225
651.791	0.0222
651.9771	0.0106
652.1632	0.0201
652.3492	0.0073
652.5352	0.0186
652.7212	0.0088
652.9072	-0.0001
653.0932	0.0339
653.2791	0.0112
653.465	0.0144
653.651	0.0026
653.8369	0.0091
654.0227	0.0079
654.2086	0.0281
654.3944	0.0146
654.5803	0.0039
654.7661	0.0005
654.9519	0.0027
655.1377	0.0002
655.3234	0.0002
655.5092	0.0002
655.6949	0.0002
655.8806	0.0002
656.0663	0.0002
656.2519	0.0002
656.4376	0.0002
656.6232	0.0002
656.8088	0.0002
656.9945	0.0002
657.18	0.0002
657.3656	0.0002
657.5511	0.0002
657.7367	0.0002
657.9222	0.0002
658.1077	0.0002
658.2932	0.0002
658.4786	0.0002
658.6641	0.0002
658.8495	0.0002
659.0349	0.0002
659.2203	0.0002
659.4057	0.0122
659.591	0.3084
659.7764	0.0244
659.9617	0.0154
660.147	0.0157
660.3323	0.0165
660.5176	0.0123
660.7028	0.0123
660.888	0.0164
661.0733	0.0172
661.2585	0.0104
661.4436	-0.0015
661.6288	0.0148
661.8139	-0.0023
661.9991	-0.0149
662.1842	0.0039
662.3693	0.0109
662.5544	0.0123
662.7394	0.0306
662.9245	0.0063
663.1095	-0.0085
663.2945	0.0169
663.4795	0.0062
663.6644	0.0085
663.8494	0.007
664.0343	0.0126
664.2193	0.0098
664.4042	0.0059
664.589	0.0185
664.7739	0.0106
664.9587	-0.0015
665.1436	0.0063
665.3284	0.0247
665.5132	-0.0068
665.698	0.0249
665.8827	0.0371
666.0675	0.0015
666.2522	-0.0019
666.4369	-0.0027
666.6216	0.0081
666.8063	0.0026
666.9909	0.0026
667.1756	0.0069
667.3602	0.0112
667.5448	0.0091
667.7294	0.031
667.9139	0.0041
668.0985	0.0088
668.283	0.0291
668.4675	0.0195
668.652	0.0146
668.8365	0.01
669.0209	0.0207
669.2054	0.0288
669.3898	0.0223
669.5742	0.0177
669.7586	0.0063
669.943	-0.0094
670.1273	-0.0076
670.3117	0.0247
670.496	0.0074
670.6803	0.0115
670.8646	-0.02
671.0488	0.0417
671.2331	0.0076
671.4173	0.0172
671.6015	0.0083
671.7857	0.0261
671.9699	0.0183
672.1541	-0.0051
672.3382	0.0176
672.5223	0.0127
672.7064	0.0149
672.8905	-0.0175
673.0746	0.0225
673.2587	0.0322
673.4427	0.0083
673.6267	0.0265
673.8107	0.0324
673.9947	0.0109
674.1787	0.0163
674.3626	0.0192
674.5465	0.0207
674.7304	0.0068
674.9143	0.0139
675.0982	0.0058
675.2821	-0.0012
675.4659	-0.0074
675.6497	0.0166
675.8335	0.0114
676.0173	-0.011
676.2011	0.0151
676.3849	0.0154
676.5686	0.028
676.7523	0.0016
676.936	-0.0036
677.1197	-0.0101
677.3034	0.0404
677.487	0.0146
677.6706	0.0123
677.8542	0.0054
678.0378	0.0121
678.2214	0.0048
678.405	0.0166
678.5885	0.0289
678.772	0.0216
678.9555	0.0018
679.139	-0.0014
679.3225	0.0179
679.5059	-0.0056
679.6894	0.013
679.8728	0.0265
680.0562	0.0129
680.2395	-0.0033
680.4229	-0.0104
680.6062	-0.0019
680.7896	-0.0119
680.9729	0.0308
681.1562	0.0011
681.3394	0.0043
681.5227	0.0255
681.7059	-0.0045
681.8891	0.0246
682.0723	0.027
682.2555	0.0043
682.4387	0.0316
682.6218	0.025
682.805	0.0473
682.9881	0.0225
683.1712	0.0174
683.3542	0.0252
683.5373	-0.0028
683.7203	0.008
683.9034	0.0141
684.0864	0.0222
684.2694	0.0033
684.4523	0.0162
684.6353	0.0066
684.8182	-0.0084
685.0011	0.0169
685.184	-0.0012
685.3669	0.0224
685.5498	0.0135
685.7326	0.0062
685.9154	0.0009
686.0982	0.0197
686.281	0.0096
686.4638	0.0181
686.6465	0.0041
686.8293	-0.011
687.012	0.0125
687.1947	0.0246
687.3774	0.0126
687.56	0.0014
687.7427	0.0076
687.9253	-0.0217
688.1079	0.0091
688.2905	0.0033
688.4731	0.046
688.6556	0.0251
688.8382	-0.0024
689.0207	0.0045
689.2032	0.0107
689.3857	0.012
689.5681	0.0249
689.7506	0.0407
689.933	0.0015
690.1154	0.0356
690.2978	0.0224
690.4802	0.027
690.6626	0.0112
690.8449	0.0286
691.0272	0.0075
691.2095	-0.0048
691.3918	0.0103
691.5741	-0.0007
691.7563	0.0052
691.9386	0.0293
692.1208	0.0106
692.303	0.005
692.4852	0.0016
692.6673	0.0056
692.8495	0.0017
693.0316	0.0143
693.2137	0.014
693.3958	0.0045
693.5778	0.0272
693.7599	-0.0172
693.9419	0.0041
694.1239	0.0329
694.3059	0.0206
694.4879	0.0104
694.6699	0.0005
694.8518	0.0091
695.0337	0.0092
695.2157	0.0158
695.3975	0.0083
695.5794	-0.0086
695.7613	0.0367
695.9431	0.0083
696.1249	0.0165
696.3067	0.0205
696.4885	0.0209
696.6703	-0.0027
696.852	0.0102
697.0337	0.0322
697.2154	-0.0013
697.3971	0.0078
697.5788	0.0147
697.7605	0.0173
697.9421	0.0265
698.1237	0.024
698.3053	-0.0059
698.4869	0.0056
698.6685	-0.0045
698.85	0.0217
699.0315	-0.0072
699.213	0.0209
699.3945	0.0095
699.576	0.0211
699.7575	0.0403
699.9389	0.0074
700.1203	-0.0099
700.3017	0.0102
700.4831	0.0351
700.6645	0.0282
700.8458	-0.0072
701.0271	0.0337
701.2084	0.0269
701.3897	0.0193
701.571	-0.0116
701.7523	0.0251
701.9335	0.0212
702.1147	0.0392
702.2959	0.0058
702.4771	0.0225
702.6583	0.018
702.8394	-0.0104
703.0205	0.0278
703.2016	0.0086
703.3827	-0.0104
703.5638	0.0177
703.7449	0.0366
703.9259	0.0068
704.1069	0.0073
704.2879	0.011
704.4689	0.0399
704.6499	0.011
704.8308	-0.0001
705.0117	0.0256
705.1927	0.0169
705.3735	-0.0044
705.5544	0.0483
705.7353	-0.0165
705.9161	-0.0148
706.0969	0.0125
706.2777	0.0095
706.4585	0.0113
706.6393	0.0173
706.82	0.0209
707.0007	0.0017
707.1815	0.0326
707.3621	0.0284
707.5428	0.0308
707.7235	0.0077
707.9041	-0.0011
708.0847	-0.0001
708.2653	0.0286
708.4459	-0.0077
708.6265	-0.0074
708.807	0.0285
708.9875	0.0006
709.168	0.0078
709.3485	0.0249
709.529	0.0074
709.7095	-0.0274
709.8899	0.0035
710.0703	0.0251
710.2507	0.0202
710.4311	-0.0057
710.6115	0.0264
710.7918	0.0319
710.9721	0.0094
711.1524	0.0029
711.3327	-0.0032
711.513	0.0079
711.6932	0.0273
711.8735	0.0186
712.0537	0.0081
712.2339	-0.0001
712.4141	0.0382
712.5942	0.02
712.7744	0.0137
712.9545	0.033
713.1346	0.0315
713.3147	0.0002
713.4947	0.0097
713.6748	-0.0011
713.8548	0.0172
714.0348	0.0107
714.2148	0.0199
714.3948	0.0295
714.5748	0.0232
714.7547	0.0346
714.9346	0.042
715.1145	0.0269
715.2944	-0.0196
715.4743	0.056
715.6541	0.0169
715.834	0.0351
716.0138	0.0314
716.1936	-0.0049
716.3733	0.0059
716.5531	-0.0012
716.7328	0.0282
716.9126	0.0257
717.0923	0.0009
717.2719	0.0165
717.4516	0.0435
717.6312	0.0063
717.8109	0.0207
717.9905	0.0159
718.1701	0.0248
718.3496	0.011
718.5292	0.0271
718.7087	0.0044
718.8882	0.038
719.0677	0.0114
719.2472	0.0161
719.4267	-0.0093
719.6061	0.0085
719.7856	0.0646
719.965	0.0054
720.1443	-0.0094
720.3237	0.0039
720.5031	-0.0054
720.6824	0.0107
720.8617	-0.0082
721.041	0.0396
721.2203	-0.0156
721.3995	0.0127
721.5788	-0.0102
721.758	-0.0096
721.9372	-0.0017
722.1164	-0.0027
722.2956	0.0039
722.4747	0.0283
722.6538	0.0115
722.8329	0.0508
723.012	0.0072
723.1911	0.0033
723.3702	0.0157
723.5492	0.0314
723.7282	-0.0052
723.9072	-0.0018
724.0862	-0.0089
724.2652	0.0112
724.4441	-0.0196
724.623	-0.009
724.8019	0.0013
724.9808	0.0159
725.1597	0.0162
725.3385	0.0168
725.5174	0.0116
725.6962	0.0152
725.875	0.0304
726.0538	0.0183
726.2325	-0.0001
726.4112	-0.0034
726.59	0.0108
726.7687	-0.0079
726.9474	-0.0136
727.126	0.0209
727.3047	-0.0067
727.4833	0.0067
727.6619	0.0086
727.8405	0.0016
728.0191	0.0093
728.1976	0.0106
728.3762	0.0269
728.5547	-0.013
728.7332	0.0189
728.9116	0.0275
729.0901	0.0156
729.2686	0.0117
729.447	0.0012
729.6254	0.0136
729.8038	0.0107
729.9821	-0.0167
730.1605	0.0106
730.3388	0.0214
730.5171	0.0099
730.6954	-0.0047
730.8737	0.0137
731.0519	0.0056
731.2302	0.0189
731.4084	0.0321
731.5866	-0.0109
731.7648	0.0121
731.9429	0.0265
732.1211	0.0077
732.2992	0.0158
732.4773	0.0247
732.6554	-0.0057
732.8335	0.0277
733.0115	0.0291
733.1896	0.0121
733.3676	0.0313
733.5456	0.0027
733.7235	0.0028
733.9015	0.0118
734.0794	0.0016
734.2574	-0.0065
734.4353	0.0303
734.6131	0.029
734.791	0.0099
734.9689	-0.0063
735.1467	0.003
735.3245	0.0301
735.5023	0.0302
735.68	0.0144
735.8578	0.0234
736.0355	0.0162
736.2132	0.009
736.3909	0.0234
736.5686	0.0239
736.7463	-0.0122
736.9239	0.0129
737.1015	0.0128
737.2791	0.0099
737.4567	0.0124
737.6343	-0.0015
737.8118	0.0502
737.9894	0.0189
738.1669	-0.0044
738.3444	0.0497
738.5218	-0.0271
738.6993	0.0031
738.8767	0.0029
739.0541	-0.003
739.2315	0.015
739.4089	0.0489
739.5863	0.0009
739.7636	0.0097
739.9409	0.0363
740.1182	0.0212
740.2955	0.0243
740.4728	-0.0179
740.65	0.018
740.8272	0.0476
741.0044	-0.0049
741.1816	0.0396
741.3588	0.0037
741.5359	0.0074
741.7131	0.0272
741.8902	0.022
742.0673	-0.0119
742.2444	0.0458
742.4214	0.001
742.5985	-0.0009
742.7755	0.0321
742.9525	-0.0077
743.1295	-0.026
743.3064	0.0087
743.4834	0.0312
743.6603	0.0496
743.8372	-0.0388
744.0141	0.0282
744.191	0.0176
744.3678	-0.0257
744.5446	0.0035
744.7215	0.012
744.8982	0.0259
745.075	0.0486
745.2518	0.0304
745.4285	0.0365
745.6052	-0.0035
745.7819	0.0224
745.9586	0.0211
746.1353	-0.0234
746.3119	-0.0025
746.4885	0.0561
746.6651	0.0152
746.8417	0.0132
747.0183	0.05
747.1948	-0.0027
747.3714	0.0176
747.5479	0.019
747.7244	-0.0024
747.9008	0.0055
748.0773	0.0323
748.2537	0.0133
748.4301	0.0233
748.6065	0.0146
748.7829	-0.0014
748.9593	-0.0125
749.1356	-0.0069
749.3119	0.0138
749.4882	0.021
749.6645	-0.0096
749.8408	0.0096
750.017	0.0328
750.1933	-0.0244
750.3695	0.0272
750.5457	0.0095
750.7218	0.0063
750.898	-0.0034
751.0741	0.0205
751.2502	0.0036
751.4263	0.0173
751.6024	0.0232
751.7784	0.0145
751.9545	0.018
752.1305	0.0184
752.3065	0.0301
752.4825	0.0166
752.6584	0.0154
752.8344	-0.0067
753.0103	-0.0212
753.1862	0.03
753.3621	-0.0133
753.5379	0.008
753.7138	0.0407
753.8896	0.012
754.0654	0.0051
754.2412	0.0439
754.417	0.0233
754.5927	0.0331
754.7685	0.0092
754.9442	0.033
755.1199	0.0069
755.2956	0.0205
755.4712	0.016
755.6469	0.0066
755.8225	0.0106
755.9981	0.028
756.1736	-0.0015
756.3492	0.0115
756.5248	0.0098
756.7003	0.0024
756.8758	0.0088
757.0513	0.0018
757.2267	0.0115
757.4022	-0.0008
757.5776	0.0156
757.753	0.0244
757.9284	0.0335
758.1038	0.023
758.2791	0.0374
758.4545	-0.0001
758.6298	-0.0069
758.8051	0.0067
758.9803	0.0382
759.1556	0.0038
759.3308	0.0095
759.506	0.0055
759.6812	-0.0039
759.8564	0.0031
760.0316	0.0002
760.2067	0.0255
760.3819	0.0099
760.557	0.0052
760.732	0.009
760.9071	0.023
761.0821	-0.0079
761.2572	0.0103
761.4322	0.023
761.6072	0.0179
761.7821	-0.0178
761.9571	0.0261
762.132	0.0003
762.3069	0.0363
762.4818	0.0405
762.6567	0.0047
762.8316	0.0459
763.0064	0.0587
763.1812	0.001
763.356	-0.0142
763.5308	0.032
763.7055	0.0109
763.8803	0.0084
764.055	-0.0113
764.2297	0.0128
764.4044	0.0098
764.579	-0.0003
764.7537	0.0016
764.9283	0.0155
765.1029	0.0079
765.2775	0.0334
765.4521	0.0062
765.6266	0.0266
765.8011	0.0204
765.9756	0.0179
766.1501	0.0101
766.3246	-0.0104
766.4991	0.0464
766.6735	0.026
766.8479	0.0189
767.0223	0.0315
767.1967	0.0345
767.371	0.0275
767.5454	0.0329
767.7197	0.0375
767.894	-0.0089
768.0683	0.0209
768.2425	0.0134
768.4168	0.0239
768.591	0.0017
768.7652	0.0033
768.9394	-0.0058
769.1135	0.0021
769.2877	0.0333
769.4618	0.0381
769.6359	0.0087
769.81	0.0398
769.984	0.025
770.1581	-0.0082
770.3321	0.0128
770.5061	-0.0015
770.6801	0.0066
770.8541	0.0464
771.028	0.0249
771.202	0.0415
771.3759	-0.0016
771.5498	0.0258
771.7236	0.0304
771.8975	0.0247
772.0713	0.0219
772.2451	-0.0117
772.4189	0.0198
772.5927	-0.0483
772.7665	0.01
772.9402	0.0291
773.1139	-0.0121
773.2876	-0.0001
773.4613	0.0195
773.635	0.017
773.8086	0.0531
773.9822	0.0239
774.1558	0.0628
774.3294	0.0186
774.503	0.004
774.6765	0.0046
774.8501	0.0144
775.0236	0.0689
775.1971	0.0348
775.3705	0.0414
775.544	-0.0161
775.7174	0.0224
775.8908	0.0467
776.0642	0.0014
776.2376	0.0176
776.4109	0.0355
776.5843	0.0288
776.7576	0.0118
776.9309	0.0464
777.1041	-0.0659
777.2774	0.0307
777.4506	0.0155
777.6238	0.0007
777.797	0.0048
777.9702	0.031
778.1434	0.0509
778.3165	-0.0247
778.4896	-0.0265
778.6627	0.003
778.8358	-0.0383
779.0089	0.0164
779.1819	0.0427
779.3549	0.0128
779.5279	-0.006
779.7009	0.064
779.8739	0.0253
780.0468	0.0113
780.2197	0.0483
780.3926	-0.0041
780.5655	0.0216
780.7384	0.0183
780.9112	0.0289
781.0841	0.0335
781.2569	0.0263
781.4297	-0.0069
781.6024	0.0237
781.7752	0.0736
781.9479	0.0254
782.1206	0.0041
782.2933	0.0061
782.466	0.0194
782.6386	-0.0136
782.8113	0.0528
782.9839	0.0228
783.1565	0.0384
783.329	-0.0013
783.5016	0.0245
783.6741	0.0256
783.8466	0.0269
784.0191	0.0033
784.1916	0.0022
784.3641	-0.0052
784.5365	0.0497
784.7089	-0.0214
784.8813	0.0786
785.0537	0.0355
785.2261	0.0095
785.3984	0.016
785.5707	0.0249
785.743	0.0401
785.9153	0.011
786.0876	0.0145
786.2598	0.0462
786.432	0.0435
786.6042	0.0482
786.7764	-0.0174
786.9486	0.0075
787.1207	0.0201
787.2928	0.0662
787.4649	-0.0116
787.637	0.0148
787.8091	0.0358
787.9811	0.0225
788.1532	0.015
788.3252	0.0183
788.4972	-0.0018
788.6691	0.0178
788.8411	0.0071
789.013	0.0145
789.1849	0.0041
789.3568	0.0525
789.5287	0.0557
789.7005	0.0171
789.8723	-0.0481
790.0442	0.0048
790.2159	-0.033
790.3877	0.0628
790.5595	0.0854
790.7312	0.0319
790.9029	0.0554
791.0746	0.0066
791.2463	-0.0306
791.4179	0.0694
791.5896	0.0335
791.7612	0.0483
791.9328	0.024
792.1044	0.0377
792.2759	-0.0161
792.4474	0.0285
792.619	-0.0104
792.7905	0.0713
792.9619	0.0619
793.1334	0.0444
793.3048	0.0724
793.4762	0.0032
793.6476	-0.03
793.819	0.0175
793.9904	-0.0032
794.1617	-0.0075
794.333	0.014
794.5043	0.0496
794.6756	0.0016
794.8469	0.0468
795.0181	0.0087
795.1893	0.0321
795.3605	0.0428
795.5317	0.0201
795.7029	0.0591
795.874	0.0357
796.0452	0.0069
796.2163	0.0254
796.3873	0.0169
796.5584	0.021
796.7294	-0.0347
796.9005	0.0459
797.0715	0.0028
797.2425	0.0846
797.4134	0.0691
797.5844	0.044
797.7553	-0.0378
797.9262	0.0881
798.0971	0.0792
798.2679	0.0337
798.4388	0.0008
798.6096	0.0441
798.7804	0.0299
798.9512	0.0451
799.122	0.0513
799.2927	0.1072
799.4635	0.0304
799.6342	-0.0912
799.8049	0.1777
799.9755	0.0078
800.1462	0.0642
800.3168	0.1199
800.4874	-0.0359
800.658	-0.0165
800.8286	0.0504
800.9991	-0.0066
801.1696	0.0424
801.3402	-0.0084
801.5106	-0.0109
801.6811	0.0308
801.8516	0.0763
802.022	-0.0116
802.1924	0.0296
802.3628	0.0134
802.5332	0.1788
802.7035	0.1025
802.8739	0.0874
803.0442	-0.0803
803.2145	0.0881
803.3847	-0.0245
803.555	0.0999
803.7252	0.0158
803.8954	0.0593
804.0656	0.0611
804.2358	0.0258
804.4059	0.1139
804.5761	0.0248
804.7462	-0.0384
804.9163	-0.0112
805.0864	0.0415
805.2564	0.0169
805.4264	-0.015
805.5965	0.0865
805.7665	-0.0049
805.9364	-0.026
806.1064	0.0946
806.2763	0.0769
806.4462	0.0466
806.6161	0.0518
806.786	0.0202
806.9559	0.0331
807.1257	-0.0268
807.2955	0.0158
807.4653	0.0267
807.6351	0.0888
807.8048	0.0235
807.9746	0.0859
808.1443	0.029
808.314	0.0299
808.4837	0.0512
808.6533	-0.0421
808.8229	0.0283
808.9926	0.0735
809.1622	0.0238
809.3317	-0.0802
809.5013	-0.0113
809.6708	0.06
809.8403	0.0245
810.0098	-0.011
810.1793	-0.0067
810.3488	-0.0248
810.5182	0.1311
810.6876	0.1423
810.857	0.0845
811.0264	0.0822
811.1958	0.0415
811.3651	-0.0431
811.5344	0.1819
811.7037	0.1379
811.873	0.0586
812.0422	-0.0007
812.2115	0.0233
812.3807	-0.1017
812.5499	-0.0872
812.7191	0.066
812.8882	-0.0482
813.0574	0.076
813.2265	0.0216
813.3956	0.0386
813.5646	0.0897
813.7337	-0.0075
813.9027	-0.0808
814.0718	0.1149
814.2407	0.1449
814.4097	0.0618
814.5787	0.0582
814.7476	0.1025
814.9165	0.0684
815.0854	0.0603
815.2543	0.0958
815.4232	0.1517
815.592	0.1477
815.7608	0.0368
815.9296	0.0077
816.0984	0.0512
816.2671	-0.1717
816.4359	0.1112
816.6046	0.0474
816.7733	-0.0338
816.942	0.0781
817.1106	0.0964
817.2793	0.1065
817.4479	-0.0452
817.6165	0.0447
817.785	0.1119
817.9536	-0.0323
818.1221	0.0405
818.2906	-0.0392
818.4591	0.11
818.6276	0.0624
818.7961	0.0322
818.9645	0.031
819.1329	0.2383
819.3013	-0.0255
819.4697	0.3229
819.638	0.2703
819.8064	0.1189
819.9747	0.0938
820.143	-0.0803
820.3113	0.0489
820.4795	0.0543
820.6477	0.133
820.816	0.109
820.9842	0.0805
821.1523	0.0406
821.3205	0.1279
821.4886	0.098
821.6567	-0.0693
821.8248	0.1156
821.9929	-0.1994
822.1609	0.0162
822.329	0.0732
822.497	0.046
822.665	0.1341
822.833	-0.1515
823.0009	-0.0214
823.1688	0.1487
823.3367	-0.1609
823.5046	-0.0219
823.6725	-0.0617
823.8404	-0.0837
824.0082	0.0715
824.176	0.0038
824.3438	0.1389
824.5116	0.0836
824.6793	0.1467
824.847	-0.0185
825.0147	0.0958
825.1824	-0.0208
825.3501	-0.0013
825.5177	0.0708
825.6854	-0.1483
825.853	-0.0772
826.0206	0.025
826.1881	0.0698
826.3557	0.0172
826.5232	0.141
826.6907	0.082
826.8582	-0.057
827.0257	0.1788
827.1931	0.1982
827.3605	0.199
827.528	-0.1025
827.6953	-0.0353
827.8627	0.0266
828.03	0.0908
828.1974	-0.0543
828.3647	0.0663
828.532	-0.0795
828.6992	0.1006
828.8665	-0.1442
829.0337	0.0508
829.2009	-0.0201
829.3681	-0.0517
829.5352	-0.0344
829.7024	0.0853
829.8695	0.0868
830.0366	0.1403
830.2037	0.1226
830.3707	0.1033
830.5378	0.2535
830.7048	-0.1867
830.8718	0.0443
831.0388	0.3823
831.2057	0.2046
831.3727	-0.1182
831.5396	-0.0427
831.7065	-0.7907
831.8734	0.0803
832.0402	0.1557
832.2071	-0.4655
832.3739	-0.3217
832.5407	-1
832.7075	-0.3202
832.8742	1.1535
833.041	0.5352
833.2077	0.2558
833.3744	0.0114
833.541	0.2401
833.7077	0.1909
833.8743	-0.0705
834.0409	0.0095
834.2075	0.1236
834.3741	-0.1921
834.5407	-0.0265
834.7072	0.1794
834.8737	0.3045
835.0402	0.9787
835.2067	-0.1868
835.3731	-0.012
835.5395	-0.0397
835.706	0.029
835.8723	0.029
836.0387	0.3262
836.2051	0.3705
836.3714	0.1422
836.5377	0.0665
836.704	0.008
836.8703	0.0057
837.0365	-0.8177
837.2027	0.9711
837.3689	-0
837.5351	0.2936
837.7013	0.3644
837.8674	0.4538
838.0335	-0.0013
838.1997	0.6289
838.3657	-0
838.5318	0.0267
838.6978	-0
838.8639	-0.4014
839.0299	0.3434
839.1958	0.164
839.3618	0.024
839.5277	-0.0436
839.6937	-0.0957
839.8596	0.092
840.0254	-0
840.1913	-0.2512
840.3571	-0.0123
840.523	-0
840.6888	0.2825
840.8545	-0
841.0203	0.0493
841.186	-0.1556
841.3517	-0.0864
841.5174	-0.0646
841.6831	0.0612
841.8488	-0.0021
842.0144	0.2906
842.18	0.9738
842.3456	-0.1264
842.5112	-0
842.6767	0.3873
842.8422	0.123
843.0077	0.1818
843.1732	-0.5606
843.3387	0.0531
843.5042	-0
843.6696	0.7719
843.835	-0.1587
844.0004	-0.1477
844.1657	-0
844.3311	0.7404
844.4964	-0
844.6617	0.8812
844.827	0.0719
844.9923	-0
845.1575	-0
845.3227	0.261
845.4879	-0.4075
845.6531	-0.0771
845.8183	0.6848
845.9834	-0.2394
846.1485	0.6034
846.3136	-0.3536
846.4787	0.7217
846.6438	-0.1288
846.8088	0.8734
846.9738	-0
847.1388	0.5012
847.3038	0.4123
847.4687	0.3349
847.6337	0.7614
847.7986	0.8012
847.9635	-0.1463
848.1284	0.8433
848.2932	-0.0735
848.458	-0
848.6228	-0.2279
848.7876	-0
848.9524	-0.6216
849.1172	-1.3072
849.2819	-0.2328
849.4466	0.3005
849.6113	-0
849.7759	-0
849.9406	0.4132
850.1052	-0.2527
850.2698	-0.1599
850.4344	-0.1549
850.599	-0
850.7635	0.3649
850.928	-0
851.0925	0.5284
851.257	-0
851.4215	-0
851.5859	-0.0086
851.7503	-0.4554
851.9147	0.7116
852.0791	0.2441
852.2434	0.0392
852.4078	0.4748
852.5721	0.4513
852.7364	0.1744
852.9007	0.0636
853.0649	-0
853.2291	-0.0628
853.3934	-0
853.5575	0.2164
853.7217	0.6148
853.8859	-0
854.05	-0.4524
854.2141	0.2861
854.3782	-0
854.5423	0.2103
854.7063	-0.0379
854.8703	0.0134
855.0343	0.2753
855.1983	-0.1473
855.3623	0.2235
855.5262	-0
855.6901	0.2656
855.854	0.6155
856.0179	0.0285
856.1818	1.0656
856.3456	0.2545
856.5094	-0
856.6732	0.3979
856.837	-0.7874
857.0008	-0.3851
857.1645	-0.286
857.3282	-0
857.4919	0.5188
857.6556	-0.0737
857.8192	-0
857.9828	-0.232
858.1465	-0.1968
858.31	-0.2192
858.4736	-0.7079
858.6372	-0.4455
858.8007	0.0095
858.9642	0.7072
859.1277	0.6059
859.2911	-0.5695
859.4546	-1.5611
859.618	-0
859.7814	-0.5993
859.9448	0.2735
860.1081	-0
860.2715	-0
860.4348	-0
860.5981	1.8543
860.7614	-0
860.9246	-0.0401
861.0879	0.3352
861.2511	-0
861.4143	-0
861.5774	-0.1756
861.7406	-0
861.9037	-0.4749
862.0668	-0
862.2299	0.1374
862.393	1.9934
862.556	-0
862.7191	-0.6055
862.8821	0.3146
863.0451	0.681
863.208	-0
863.371	-0.7179
863.5339	0.8228
863.6968	-0
863.8597	1.2718
864.0225	-0
864.1854	0.193
864.3482	-0
864.511	-0.1396
864.6737	-0
864.8365	-0
864.9992	-0
865.1619	-0.6191
865.3246	-1.8142
865.4873	-0
865.65	-0
865.8126	-0.098
865.9752	-0.1387
866.1378	0.4459
866.3004	0.2049
866.4629	-1.3072
866.6254	-0.0771
866.7879	-0.384
866.9504	-0
867.1129	-0.3904
867.2753	-0.1415
867.4377	0.117
867.6001	-0.5823
867.7625	-0.1571
867.9249	0.4077
868.0872	1.1929
868.2495	0.3001
868.4118	-0
868.5741	-0.4055
868.7363	-0
868.8986	1.7033
869.0608	0.0785
869.223	-0
869.3851	-0.215
869.5473	0.1148
869.7094	-0.1971
869.8715	-0
870.0336	0.0958
870.1957	-0
870.3577	0.604
870.5197	-0.0454
870.6817	-0.7818
870.8437	-0
871.0057	0.4781
871.1676	0.0791
871.3295	-0
871.4914	-1.6628
871.6533	-0.5551
871.8151	0.3004
871.977	-0.0069
872.1388	-0
872.3006	0.8366
872.4623	-0.7478
872.6241	-0
872.7858	-0
872.9475	0.3173
873.1092	0.116
873.2709	0.5181
873.4325	-1.7761
873.5941	0.0205
873.7557	0.4783
873.9173	-0.1806
874.0789	0.136
874.2404	-0
874.4019	-0.0315
874.5634	0.2013
874.7249	0.8875
874.8863	0.193
875.0478	0.0684
875.2092	-0
875.3706	0.2377
875.5319	-0
875.6933	0.9019
875.8546	-0
876.0159	0.324
876.1772	-0
876.3385	-0
876.4997	0.6648
876.6609	0.6884
876.8221	-0
876.9833	0.1697
877.1445	0.2891
877.3056	-0
877.4667	-0
877.6278	0.187
877.7889	-0.4883
877.9499	0.2618
878.111	-0.1549
878.272	-0
878.433	0.6067
878.5939	1.1274
878.7549	-0
878.9158	-0.0525
879.0767	-0.245
879.2376	-0
879.3984	-0
879.5593	0.585
879.7201	-0.1549
879.8809	-0.0316
880.0417	-0.3151
880.2024	-0
880.3632	-0.3807
880.5239	0.2021
880.6846	0.6704
880.8452	-0.1677
881.0059	-1.1298
881.1665	0.5927
881.3271	0.0483
881.4877	0.0951
881.6483	-0.3493
881.8088	-0
881.9693	-0.6388
882.1298	-0.6388
882.2903	-0.6388
