Data from D4ACN5uM420nmA_Absorbance_14-37-09-822.txt Node
Date: Fri Feb 21 14:37:09 GMT 2025
User: LASERRRRR
Spectrometer: FLMT03099
Trigger mode: 0
Integration Time (sec): 1.500000E-2
Scans to average: 1
Electric dark correction enabled: true
Nonlinearity correction enabled: false
Boxcar width: 0
XAxis mode: Wavelengths
Number of Pixels in Spectrum: 3648
>>>>>Begin Spectral Data<<<<<
179.3399	-0
179.5586	-0
179.7771	-0
179.9957	-0.3813
180.2143	-1.7196
180.4329	-0
180.6514	0.6463
180.8699	0.29
181.0885	-0
181.307	0.1932
181.5255	1.9381
181.744	-0
181.9625	0.7259
182.181	0.036
182.3994	-0.5266
182.6179	0.2402
182.8363	-0.0385
183.0547	-0.0167
183.2732	0.0039
183.4916	0.5165
183.71	0.1974
183.9284	0.0994
184.1467	0.2492
184.3651	0.2104
184.5835	0.284
184.8018	0.1107
185.0201	0.2613
185.2385	0.1143
185.4568	0.1592
185.6751	0.1371
185.8934	0.154
186.1117	-0.0224
186.3299	0.3023
186.5482	0.1623
186.7664	0.1312
186.9847	0.0338
187.2029	0.3718
187.4211	-0.0178
187.6393	0.0162
187.8575	0.2179
188.0757	0.3099
188.2939	0.0803
188.512	0.0907
188.7302	0.1406
188.9483	0.3073
189.1665	0.5228
189.3846	0.4282
189.6027	0.106
189.8208	0.341
190.0389	0.2377
190.257	0.1473
190.475	0.1191
190.6931	0.0475
190.9111	0.2782
191.1292	0.0671
191.3472	0.0578
191.5652	0.4833
191.7832	0.0464
192.0012	0.1537
192.2192	0.1298
192.4371	0.2327
192.6551	0.2194
192.873	0.1557
193.091	0.1204
193.3089	0.1938
193.5268	0.1708
193.7447	0.2107
193.9626	0.1564
194.1805	0.2656
194.3984	0.2301
194.6162	0.1831
194.8341	0.3333
195.0519	0.1709
195.2697	0.3037
195.4875	0.3172
195.7054	0.2386
195.9231	0.2521
196.1409	0.2894
196.3587	0.321
196.5765	0.3084
196.7942	0.3268
197.012	0.3264
197.2297	0.3033
197.4474	0.3957
197.6651	0.3293
197.8828	0.3276
198.1005	0.3924
198.3182	0.3611
198.5358	0.3733
198.7535	0.3624
198.9711	0.3702
199.1888	0.3247
199.4064	0.4159
199.624	0.3502
199.8416	0.3281
200.0592	0.4009
200.2767	0.3407
200.4943	0.431
200.7119	0.4197
200.9294	0.4156
201.1469	0.4052
201.3645	0.4084
201.582	0.4123
201.7995	0.4115
202.017	0.4166
202.2344	0.4263
202.4519	0.405
202.6694	0.3929
202.8868	0.3733
203.1042	0.4189
203.3217	0.3987
203.5391	0.4038
203.7565	0.3236
203.9739	0.3919
204.1913	0.3453
204.4086	0.3441
204.626	0.3387
204.8433	0.3646
205.0607	0.3654
205.278	0.3357
205.4953	0.3112
205.7126	0.3504
205.9299	0.3026
206.1472	0.3378
206.3644	0.3526
206.5817	0.3346
206.7989	0.3178
207.0162	0.3053
207.2334	0.3456
207.4506	0.2956
207.6678	0.2965
207.885	0.2935
208.1022	0.3106
208.3194	0.2782
208.5365	0.2941
208.7537	0.2797
208.9708	0.3059
209.1879	0.286
209.405	0.266
209.6222	0.2573
209.8392	0.2953
210.0563	0.2731
210.2734	0.2497
210.4905	0.2822
210.7075	0.2605
210.9245	0.2723
211.1416	0.2583
211.3586	0.258
211.5756	0.2697
211.7926	0.2506
212.0096	0.2628
212.2265	0.2588
212.4435	0.2368
212.6604	0.2504
212.8774	0.246
213.0943	0.2588
213.3112	0.245
213.5281	0.2426
213.745	0.2231
213.9619	0.2254
214.1788	0.2543
214.3956	0.225
214.6125	0.2382
214.8293	0.2377
215.0461	0.2374
215.2629	0.2471
215.4798	0.2215
215.6965	0.2278
215.9133	0.2246
216.1301	0.2358
216.3469	0.2382
216.5636	0.2343
216.7803	0.2367
216.9971	0.2528
217.2138	0.2388
217.4305	0.232
217.6472	0.2331
217.8639	0.2303
218.0805	0.2355
218.2972	0.2435
218.5138	0.2438
218.7305	0.2579
218.9471	0.2327
219.1637	0.2578
219.3803	0.242
219.5969	0.2404
219.8135	0.2589
220.0301	0.2469
220.2466	0.2425
220.4632	0.2491
220.6797	0.2462
220.8962	0.2528
221.1127	0.2657
221.3292	0.2578
221.5457	0.2579
221.7622	0.2473
221.9787	0.2772
222.1951	0.2855
222.4116	0.2746
222.628	0.2688
222.8444	0.2599
223.0608	0.2781
223.2772	0.2671
223.4936	0.2734
223.71	0.2867
223.9264	0.2861
224.1427	0.2882
224.3591	0.267
224.5754	0.275
224.7917	0.2971
225.008	0.2824
225.2243	0.2971
225.4406	0.3
225.6569	0.3024
225.8732	0.3063
226.0894	0.2991
226.3057	0.2923
226.5219	0.306
226.7381	0.3206
226.9543	0.2967
227.1705	0.3265
227.3867	0.3092
227.6029	0.3217
227.8191	0.3323
228.0352	0.322
228.2513	0.343
228.4675	0.337
228.6836	0.3402
228.8997	0.3365
229.1158	0.3528
229.3319	0.3665
229.548	0.3509
229.764	0.3553
229.9801	0.3714
230.1961	0.3551
230.4121	0.3557
230.6282	0.3795
230.8442	0.3907
231.0602	0.4028
231.2761	0.3759
231.4921	0.4059
231.7081	0.3895
231.924	0.4077
232.14	0.4129
232.3559	0.4035
232.5718	0.4178
232.7877	0.4061
233.0036	0.408
233.2195	0.4141
233.4353	0.4301
233.6512	0.4303
233.867	0.4288
234.0829	0.4316
234.2987	0.4369
234.5145	0.4359
234.7303	0.4449
234.9461	0.4396
235.1619	0.4428
235.3776	0.4413
235.5934	0.4435
235.8091	0.4451
236.0249	0.4385
236.2406	0.4338
236.4563	0.4425
236.672	0.4446
236.8877	0.4537
237.1034	0.4499
237.319	0.4456
237.5347	0.4554
237.7503	0.4498
237.966	0.4714
238.1816	0.4581
238.3972	0.4569
238.6128	0.4684
238.8284	0.4568
239.0439	0.4577
239.2595	0.4629
239.475	0.4598
239.6906	0.457
239.9061	0.4528
240.1216	0.4553
240.3371	0.4613
240.5526	0.4608
240.7681	0.4596
240.9836	0.4544
241.199	0.4525
241.4145	0.4527
241.6299	0.4661
241.8453	0.4422
242.0607	0.4422
242.2761	0.4479
242.4915	0.4453
242.7069	0.4303
242.9223	0.4333
243.1376	0.4276
243.353	0.4179
243.5683	0.4101
243.7836	0.4119
243.9989	0.3898
244.2142	0.3846
244.4295	0.394
244.6448	0.3777
244.86	0.3645
245.0753	0.3526
245.2905	0.3528
245.5057	0.3496
245.721	0.3495
245.9362	0.344
246.1514	0.3313
246.3665	0.3373
246.5817	0.3129
246.7969	0.3068
247.012	0.3099
247.2271	0.3055
247.4423	0.2968
247.6574	0.2881
247.8725	0.2793
248.0876	0.2808
248.3026	0.2801
248.5177	0.2703
248.7328	0.2655
248.9478	0.2595
249.1628	0.2577
249.3779	0.2491
249.5929	0.2446
249.8079	0.2552
250.0228	0.2403
250.2378	0.2414
250.4528	0.2324
250.6677	0.2278
250.8827	0.2237
251.0976	0.2273
251.3125	0.2273
251.5274	0.2219
251.7423	0.2109
251.9572	0.2172
252.172	0.2103
252.3869	0.209
252.6017	0.2123
252.8166	0.2107
253.0314	0.2028
253.2462	0.1991
253.461	0.1976
253.6758	0.1942
253.8906	0.2013
254.1053	0.1959
254.3201	0.198
254.5348	0.1926
254.7496	0.1843
254.9643	0.1955
255.179	0.1918
255.3937	0.1936
255.6083	0.1938
255.823	0.1944
256.0377	0.187
256.2523	0.1891
256.467	0.1933
256.6816	0.1878
256.8962	0.1878
257.1108	0.1881
257.3254	0.1855
257.54	0.1775
257.7545	0.1855
257.9691	0.1834
258.1836	0.1823
258.3981	0.1876
258.6127	0.1797
258.8272	0.1886
259.0417	0.1836
259.2561	0.1799
259.4706	0.1794
259.6851	0.185
259.8995	0.1836
260.114	0.1782
260.3284	0.1761
260.5428	0.1878
260.7572	0.1781
260.9716	0.1839
261.186	0.1868
261.4003	0.1795
261.6147	0.187
261.829	0.1878
262.0433	0.1829
262.2577	0.1855
262.472	0.1879
262.6863	0.1951
262.9005	0.1872
263.1148	0.1892
263.3291	0.188
263.5433	0.1906
263.7576	0.1903
263.9718	0.1937
264.186	0.1949
264.4002	0.1955
264.6144	0.2
264.8286	0.198
265.0427	0.2032
265.2569	0.1985
265.471	0.1966
265.6851	0.1981
265.8993	0.1959
266.1134	0.2002
266.3275	0.1992
266.5415	0.2012
266.7556	0.2002
266.9697	0.2039
267.1837	0.2041
267.3978	0.1979
267.6118	0.1933
267.8258	0.2025
268.0398	0.2012
268.2538	0.2031
268.4677	0.1943
268.6817	0.1991
268.8957	0.193
269.1096	0.1879
269.3235	0.1916
269.5374	0.1978
269.7514	0.1996
269.9652	0.1953
270.1791	0.1982
270.393	0.1961
270.6068	0.1929
270.8207	0.1916
271.0345	0.1907
271.2483	0.1903
271.4622	0.1938
271.676	0.2009
271.8897	0.195
272.1035	0.199
272.3173	0.1966
272.531	0.1988
272.7448	0.1962
272.9585	0.1939
273.1722	0.1963
273.3859	0.1965
273.5996	0.1995
273.8133	0.1992
274.0269	0.1983
274.2406	0.1984
274.4542	0.2013
274.6679	0.2067
274.8815	0.2093
275.0951	0.2074
275.3087	0.207
275.5223	0.2099
275.7358	0.2129
275.9494	0.2134
276.1629	0.212
276.3765	0.215
276.59	0.2176
276.8035	0.2132
277.017	0.2159
277.2305	0.217
277.444	0.2233
277.6574	0.2218
277.8709	0.2209
278.0843	0.2173
278.2978	0.2172
278.5112	0.2147
278.7246	0.2128
278.938	0.2133
279.1513	0.2142
279.3647	0.2163
279.5781	0.2114
279.7914	0.2111
280.0047	0.2111
280.2181	0.2108
280.4314	0.2108
280.6447	0.2148
280.8579	0.2023
281.0712	0.2075
281.2845	0.2083
281.4977	0.2041
281.711	0.1977
281.9242	0.2046
282.1374	0.2003
282.3506	0.2014
282.5638	0.1973
282.7769	0.1966
282.9901	0.1973
283.2033	0.1982
283.4164	0.1957
283.6295	0.1909
283.8426	0.1867
284.0557	0.1961
284.2688	0.1959
284.4819	0.1846
284.695	0.1942
284.908	0.1951
285.1211	0.1968
285.3341	0.1876
285.5471	0.1917
285.7601	0.1925
285.9731	0.192
286.1861	0.1922
286.3991	0.1951
286.612	0.1903
286.825	0.1936
287.0379	0.1897
287.2508	0.1907
287.4637	0.1873
287.6766	0.1846
287.8895	0.1924
288.1024	0.1916
288.3152	0.1895
288.5281	0.1871
288.7409	0.1927
288.9538	0.1897
289.1666	0.187
289.3794	0.1874
289.5922	0.1782
289.8049	0.184
290.0177	0.1893
290.2304	0.1893
290.4432	0.1895
290.6559	0.1844
290.8686	0.1833
291.0813	0.1882
291.294	0.1881
291.5067	0.1824
291.7194	0.1839
291.932	0.1816
292.1447	0.181
292.3573	0.1873
292.5699	0.1877
292.7825	0.1787
292.9951	0.1783
293.2077	0.1839
293.4203	0.1801
293.6328	0.1814
293.8454	0.1825
294.0579	0.182
294.2704	0.1878
294.4829	0.1906
294.6954	0.1805
294.9079	0.1791
295.1204	0.1791
295.3328	0.1868
295.5453	0.1909
295.7577	0.1841
295.9701	0.1808
296.1825	0.1823
296.3949	0.1767
296.6073	0.1782
296.8197	0.182
297.0321	0.1899
297.2444	0.1808
297.4567	0.1825
297.6691	0.1846
297.8814	0.1872
298.0937	0.1873
298.306	0.1859
298.5182	0.1836
298.7305	0.1824
298.9428	0.1849
299.155	0.1774
299.3672	0.1794
299.5794	0.1815
299.7916	0.1861
300.0038	0.1847
300.216	0.1836
300.4282	0.1815
300.6403	0.1912
300.8525	0.1883
301.0646	0.1832
301.2767	0.1861
301.4888	0.1878
301.7009	0.1845
301.913	0.1832
302.125	0.1837
302.3371	0.1845
302.5491	0.1889
302.7612	0.1921
302.9732	0.1915
303.1852	0.1885
303.3972	0.1898
303.6092	0.1862
303.8211	0.1884
304.0331	0.1899
304.245	0.1825
304.457	0.1836
304.6689	0.1859
304.8808	0.1817
305.0927	0.184
305.3046	0.1813
305.5164	0.1807
305.7283	0.1763
305.9401	0.1733
306.152	0.1788
306.3638	0.1784
306.5756	0.1816
306.7874	0.17
306.9992	0.1728
307.2109	0.1763
307.4227	0.173
307.6344	0.1742
307.8462	0.17
308.0579	0.1736
308.2696	0.1696
308.4813	0.1703
308.693	0.1647
308.9046	0.1708
309.1163	0.1669
309.328	0.1677
309.5396	0.1612
309.7512	0.1606
309.9628	0.158
310.1744	0.1531
310.386	0.1571
310.5976	0.1568
310.8091	0.1614
311.0207	0.1579
311.2322	0.1541
311.4437	0.1542
311.6552	0.1629
311.8667	0.1593
312.0782	0.1525
312.2897	0.156
312.5012	0.153
312.7126	0.1522
312.924	0.1539
313.1355	0.1501
313.3469	0.1543
313.5583	0.148
313.7696	0.1447
313.981	0.1503
314.1924	0.1415
314.4037	0.147
314.6151	0.1457
314.8264	0.1492
315.0377	0.1539
315.249	0.1524
315.4603	0.1436
315.6716	0.1472
315.8828	0.147
316.0941	0.1482
316.3053	0.1399
316.5165	0.1522
316.7277	0.1449
316.9389	0.1465
317.1501	0.1492
317.3613	0.1431
317.5724	0.1456
317.7836	0.1391
317.9947	0.1415
318.2058	0.1466
318.417	0.146
318.6281	0.14
318.8391	0.1492
319.0502	0.1458
319.2613	0.1399
319.4723	0.1455
319.6834	0.1455
319.8944	0.1432
320.1054	0.1414
320.3164	0.14
320.5274	0.1425
320.7383	0.1464
320.9493	0.1418
321.1602	0.1404
321.3712	0.1401
321.5821	0.1393
321.793	0.1528
322.0039	0.1442
322.2148	0.1442
322.4257	0.1404
322.6365	0.139
322.8474	0.1518
323.0582	0.1439
323.269	0.1503
323.4798	0.1454
323.6906	0.1418
323.9014	0.1445
324.1122	0.1457
324.3229	0.1461
324.5337	0.1442
324.7444	0.146
324.9551	0.1457
325.1658	0.1458
325.3765	0.1464
325.5872	0.1427
325.7979	0.1447
326.0085	0.1493
326.2192	0.1455
326.4298	0.1543
326.6404	0.1512
326.851	0.1481
327.0616	0.1517
327.2722	0.1487
327.4828	0.1533
327.6933	0.1571
327.9039	0.1548
328.1144	0.1597
328.3249	0.1652
328.5354	0.153
328.7459	0.1597
328.9564	0.157
329.1669	0.1605
329.3773	0.1684
329.5878	0.159
329.7982	0.161
330.0086	0.1617
330.219	0.1592
330.4294	0.1628
330.6398	0.1637
330.8502	0.164
331.0605	0.1631
331.2708	0.1619
331.4812	0.1661
331.6915	0.1653
331.9018	0.1678
332.1121	0.1706
332.3224	0.1612
332.5326	0.161
332.7429	0.1652
332.9531	0.1679
333.1633	0.1564
333.3735	0.1541
333.5837	0.1637
333.7939	0.1623
334.0041	0.161
334.2143	0.1626
334.4244	0.1696
334.6346	0.1602
334.8447	0.1562
335.0548	0.1641
335.2649	0.1585
335.475	0.1671
335.685	0.1602
335.8951	0.1582
336.1051	0.161
336.3152	0.1639
336.5252	0.1587
336.7352	0.1603
336.9452	0.1573
337.1552	0.1571
337.3652	0.1568
337.5751	0.1583
337.7851	0.161
337.995	0.1614
338.2049	0.1582
338.4148	0.1655
338.6247	0.1591
338.8346	0.1599
339.0445	0.1648
339.2543	0.1573
339.4642	0.154
339.674	0.1533
339.8838	0.1632
340.0936	0.1596
340.3034	0.1598
340.5132	0.1546
340.7229	0.1661
340.9327	0.1705
341.1424	0.157
341.3522	0.1584
341.5619	0.1653
341.7716	0.1661
341.9813	0.1705
342.1909	0.1655
342.4006	0.1705
342.6102	0.1674
342.8199	0.1712
343.0295	0.167
343.2391	0.1713
343.4487	0.1706
343.6583	0.1846
343.8679	0.1682
344.0774	0.167
344.287	0.1732
344.4965	0.1785
344.706	0.1733
344.9155	0.1737
345.125	0.1787
345.3345	0.1885
345.544	0.1863
345.7534	0.1812
345.9629	0.1826
346.1723	0.1835
346.3817	0.1877
346.5911	0.1866
346.8005	0.1844
347.0099	0.1809
347.2193	0.1899
347.4286	0.1956
347.638	0.1907
347.8473	0.1934
348.0566	0.191
348.2659	0.1935
348.4752	0.1949
348.6845	0.192
348.8937	0.1856
349.103	0.1953
349.3122	0.1931
349.5214	0.1845
349.7306	0.1974
349.9398	0.193
350.149	0.1932
350.3582	0.2001
350.5674	0.2002
350.7765	0.2041
350.9856	0.1938
351.1948	0.1989
351.4039	0.1969
351.613	0.1946
351.822	0.2033
352.0311	0.1973
352.2402	0.1978
352.4492	0.1943
352.6582	0.1919
352.8672	0.1982
353.0762	0.1928
353.2852	0.1868
353.4942	0.1942
353.7032	0.1842
353.9121	0.1947
354.1211	0.1939
354.33	0.1971
354.5389	0.1901
354.7478	0.1861
354.9567	0.1887
355.1655	0.1876
355.3744	0.1809
355.5833	0.1892
355.7921	0.1948
356.0009	0.1881
356.2097	0.1819
356.4185	0.1808
356.6273	0.1826
356.8361	0.1858
357.0448	0.1858
357.2536	0.1845
357.4623	0.1845
357.671	0.1883
357.8797	0.1881
358.0884	0.1825
358.2971	0.1853
358.5057	0.1928
358.7144	0.1931
358.923	0.1852
359.1316	0.1883
359.3402	0.1874
359.5488	0.1871
359.7574	0.1908
359.966	0.1993
360.1746	0.1926
360.3831	0.1969
360.5916	0.1892
360.8002	0.1967
361.0087	0.1888
361.2172	0.2017
361.4256	0.1975
361.6341	0.1967
361.8426	0.1963
362.051	0.1971
362.2594	0.1945
362.4678	0.2017
362.6762	0.1934
362.8846	0.1943
363.093	0.1984
363.3014	0.2045
363.5097	0.1993
363.718	0.2098
363.9264	0.2024
364.1347	0.1987
364.343	0.2055
364.5513	0.2056
364.7595	0.2089
364.9678	0.1997
365.176	0.2039
365.3842	0.2086
365.5925	0.2041
365.8007	0.2037
366.0089	0.2135
366.217	0.2081
366.4252	0.2051
366.6333	0.2097
366.8415	0.2071
367.0496	0.2073
367.2577	0.206
367.4658	0.2055
367.6739	0.1962
367.882	0.2085
368.09	0.2107
368.2981	0.2203
368.5061	0.2155
368.7141	0.2166
368.9221	0.2226
369.1301	0.2241
369.3381	0.2183
369.5461	0.2188
369.754	0.2139
369.962	0.2151
370.1699	0.2272
370.3778	0.2319
370.5857	0.2164
370.7936	0.2195
371.0015	0.22
371.2093	0.2113
371.4172	0.2138
371.625	0.2116
371.8328	0.2167
372.0406	0.2251
372.2484	0.2268
372.4562	0.2305
372.664	0.2294
372.8717	0.2277
373.0795	0.2347
373.2872	0.2309
373.4949	0.2344
373.7026	0.221
373.9103	0.216
374.118	0.2271
374.3256	0.2389
374.5333	0.2329
374.7409	0.2302
374.9485	0.2239
375.1561	0.24
375.3637	0.2231
375.5713	0.2347
375.7789	0.2335
375.9864	0.2327
376.194	0.2441
376.4015	0.2295
376.609	0.2288
376.8165	0.2343
377.024	0.2375
377.2315	0.2368
377.4389	0.2238
377.6464	0.2296
377.8538	0.2343
378.0612	0.2444
378.2686	0.2359
378.476	0.2455
378.6834	0.2411
378.8908	0.2383
379.0981	0.2438
379.3055	0.248
379.5128	0.2392
379.7201	0.246
379.9274	0.2443
380.1347	0.2379
380.342	0.2479
380.5492	0.2452
380.7565	0.2408
380.9637	0.2439
381.1709	0.2468
381.3781	0.2437
381.5853	0.244
381.7925	0.2334
381.9997	0.2486
382.2068	0.2473
382.4139	0.2439
382.6211	0.2475
382.8282	0.245
383.0353	0.2471
383.2424	0.2415
383.4494	0.2439
383.6565	0.2525
383.8635	0.2386
384.0706	0.25
384.2776	0.248
384.4846	0.2543
384.6916	0.246
384.8986	0.2468
385.1055	0.2574
385.3125	0.2544
385.5194	0.2521
385.7263	0.2412
385.9333	0.2619
386.1402	0.2487
386.347	0.2462
386.5539	0.2554
386.7608	0.2455
386.9676	0.2491
387.1744	0.2437
387.3813	0.2491
387.5881	0.2429
387.7948	0.2512
388.0016	0.2655
388.2084	0.258
388.4151	0.2499
388.6219	0.2462
388.8286	0.2479
389.0353	0.2517
389.242	0.2505
389.4487	0.2402
389.6553	0.2411
389.862	0.2476
390.0686	0.2588
390.2753	0.24
390.4819	0.2492
390.6885	0.2376
390.8951	0.2445
391.1016	0.2415
391.3082	0.2452
391.5147	0.2379
391.7213	0.2374
391.9278	0.2359
392.1343	0.2426
392.3408	0.2394
392.5473	0.2348
392.7537	0.2281
392.9602	0.2366
393.1666	0.2341
393.373	0.2324
393.5794	0.2305
393.7858	0.2305
393.9922	0.2292
394.1986	0.2272
394.4049	0.2241
394.6113	0.2324
394.8176	0.2192
395.0239	0.22
395.2302	0.2258
395.4365	0.2216
395.6428	0.2213
395.8491	0.226
396.0553	0.2219
396.2615	0.2259
396.4678	0.2233
396.674	0.211
396.8802	0.2139
397.0863	0.2199
397.2925	0.2219
397.4987	0.2166
397.7048	0.2161
397.9109	0.2135
398.117	0.2092
398.3231	0.2048
398.5292	0.2116
398.7353	0.2105
398.9413	0.2077
399.1474	0.2124
399.3534	0.2098
399.5594	0.2179
399.7654	0.2114
399.9714	0.2104
400.1774	0.2094
400.3833	0.2107
400.5893	0.2113
400.7952	0.2164
401.0011	0.203
401.207	0.2027
401.4129	0.2089
401.6188	0.2098
401.8247	0.2117
402.0305	0.2131
402.2364	0.2109
402.4422	0.2158
402.648	0.2041
402.8538	0.2112
403.0596	0.2028
403.2654	0.2128
403.4711	0.216
403.6768	0.2064
403.8826	0.2097
404.0883	0.2112
404.294	0.2096
404.4997	0.2113
404.7054	0.2179
404.911	0.2044
405.1167	0.2184
405.3223	0.2067
405.5279	0.2102
405.7335	0.2078
405.9391	0.2078
406.1447	0.2092
406.3502	0.2111
406.5558	0.2032
406.7613	0.2118
406.9668	0.2017
407.1724	0.2015
407.3778	0.2069
407.5833	0.1962
407.7888	0.2044
407.9942	0.2037
408.1997	0.211
408.4051	0.2119
408.6105	0.211
408.8159	0.2058
409.0213	0.2054
409.2267	0.2141
409.432	0.2072
409.6374	0.2119
409.8427	0.207
410.048	0.2135
410.2533	0.218
410.4586	0.1971
410.6639	0.2164
410.8691	0.2042
411.0744	0.2084
411.2796	0.1982
411.4848	0.1908
411.69	0.1896
411.8952	0.2067
412.1004	0.2008
412.3056	0.2016
412.5107	0.2064
412.7158	0.2066
412.921	0.2075
413.1261	0.2026
413.3312	0.2099
413.5362	0.2131
413.7413	0.2114
413.9464	0.1967
414.1514	0.2068
414.3564	0.2085
414.5614	0.2123
414.7664	0.2037
414.9714	0.2005
415.1764	0.2101
415.3813	0.2015
415.5863	0.2017
415.7912	0.2011
415.9961	0.1918
416.201	0.2122
416.4059	0.2037
416.6108	0.206
416.8156	0.1927
417.0205	0.1907
417.2253	0.2029
417.4301	0.2129
417.6349	0.1988
417.8397	0.1938
418.0445	0.1929
418.2492	0.1964
418.454	0.194
418.6587	0.1958
418.8634	0.1941
419.0681	0.2056
419.2728	0.1879
419.4775	0.2089
419.6822	0.1938
419.8868	0.1846
420.0915	0.2013
420.2961	0.1952
420.5007	0.1879
420.7053	0.1963
420.9099	0.1859
421.1144	0.1855
421.319	0.1927
421.5235	0.1865
421.728	0.1992
421.9325	0.1874
422.137	0.1954
422.3415	0.1909
422.546	0.1799
422.7504	0.1874
422.9549	0.1879
423.1593	0.1777
423.3637	0.1809
423.5681	0.1861
423.7725	0.1844
423.9769	0.1909
424.1812	0.1718
424.3856	0.1783
424.5899	0.1782
424.7942	0.1768
424.9985	0.1714
425.2028	0.186
425.4071	0.1799
425.6113	0.1756
425.8156	0.1779
426.0198	0.1786
426.224	0.1853
426.4282	0.1606
426.6324	0.1788
426.8366	0.1684
427.0407	0.1681
427.2449	0.1679
427.449	0.1673
427.6531	0.1739
427.8572	0.1666
428.0613	0.1754
428.2654	0.165
428.4694	0.1566
428.6735	0.1638
428.8775	0.1523
429.0815	0.1687
429.2855	0.1602
429.4895	0.1553
429.6935	0.1592
429.8975	0.1554
430.1014	0.1607
430.3053	0.1534
430.5093	0.1565
430.7132	0.1461
430.9171	0.1561
431.1209	0.1529
431.3248	0.1421
431.5286	0.1404
431.7325	0.1493
431.9363	0.1356
432.1401	0.1368
432.3439	0.1467
432.5477	0.129
432.7514	0.1395
432.9552	0.1352
433.1589	0.1277
433.3627	0.1355
433.5664	0.1328
433.7701	0.1342
433.9737	0.1288
434.1774	0.1301
434.3811	0.1196
434.5847	0.1257
434.7883	0.1335
434.9919	0.1215
435.1955	0.1282
435.3991	0.1267
435.6027	0.1154
435.8062	0.1312
436.0098	0.1168
436.2133	0.108
436.4168	0.1188
436.6203	0.1202
436.8238	0.1086
437.0272	0.1049
437.2307	0.1077
437.4341	0.1104
437.6375	0.1142
437.841	0.1054
438.0443	0.1106
438.2477	0.0989
438.4511	0.0985
438.6545	0.0981
438.8578	0.102
439.0611	0.0989
439.2644	0.0975
439.4677	0.0997
439.671	0.0896
439.8743	0.091
440.0775	0.0935
440.2808	0.0893
440.484	0.0885
440.6872	0.0929
440.8904	0.0863
441.0936	0.0895
441.2967	0.0868
441.4999	0.0778
441.703	0.0793
441.9062	0.0914
442.1093	0.0946
442.3124	0.0755
442.5155	0.0808
442.7185	0.0654
442.9216	0.0762
443.1246	0.0787
443.3276	0.077
443.5307	0.0677
443.7337	0.0716
443.9366	0.0679
444.1396	0.069
444.3426	0.0699
444.5455	0.0709
444.7484	0.0741
444.9513	0.0591
445.1542	0.0686
445.3571	0.0692
445.56	0.0537
445.7628	0.0676
445.9657	0.054
446.1685	0.0655
446.3713	0.064
446.5741	0.0708
446.7769	0.0597
446.9797	0.0589
447.1824	0.0542
447.3852	0.0447
447.5879	0.062
447.7906	0.0479
447.9933	0.051
448.196	0.0458
448.3986	0.0466
448.6013	0.0451
448.8039	0.0607
449.0066	0.0519
449.2092	0.046
449.4118	0.0427
449.6143	0.0511
449.8169	0.0447
450.0195	0.0468
450.222	0.0461
450.4245	0.0448
450.627	0.0384
450.8295	0.043
451.032	0.0354
451.2345	0.0331
451.4369	0.0436
451.6394	0.0393
451.8418	0.0362
452.0442	0.0401
452.2466	0.0291
452.449	0.0412
452.6513	0.0342
452.8537	0.0251
453.056	0.0329
453.2583	0.0361
453.4607	0.0208
453.663	0.0353
453.8652	0.0379
454.0675	0.0363
454.2697	0.0251
454.472	0.0267
454.6742	0.0342
454.8764	0.0357
455.0786	0.0337
455.2808	0.0218
455.4829	0.0294
455.6851	0.0327
455.8872	0.0145
456.0893	0.0243
456.2915	0.0224
456.4935	0.0292
456.6956	0.0187
456.8977	0.0282
457.0997	0.0261
457.3018	0.0207
457.5038	0.0272
457.7058	0.0235
457.9078	0.021
458.1098	0.0247
458.3117	0.0318
458.5137	0.0096
458.7156	0.0217
458.9175	0.0215
459.1194	0.0198
459.3213	0.0159
459.5232	0.0288
459.725	0.0171
459.9269	0.0146
460.1287	0.0131
460.3305	0.0205
460.5323	0.0157
460.7341	0.0234
460.9359	0.0097
461.1376	0.0209
461.3394	0.0266
461.5411	0.0247
461.7428	0.0172
461.9445	0.0077
462.1462	0.0197
462.3479	0.0096
462.5495	0.0228
462.7512	0.0262
462.9528	0.0164
463.1544	0.0173
463.356	0.0185
463.5576	0.0203
463.7592	0.0167
463.9607	0.013
464.1623	0.0117
464.3638	0.0114
464.5653	0.0222
464.7668	0.023
464.9683	0.0245
465.1697	0.0086
465.3712	0.0098
465.5726	0.0165
465.7741	0.0157
465.9755	0.0141
466.1769	0.0161
466.3782	0.0065
466.5796	0.0201
466.7809	0.0223
466.9823	0.0187
467.1836	0.0106
467.3849	0.0141
467.5862	-0.0009
467.7875	0.0164
467.9887	0.0142
468.19	0.0101
468.3912	0.0177
468.5924	0.0123
468.7936	0.0052
468.9948	0.0042
469.196	0.0086
469.3972	0.0005
469.5983	0.0138
469.7994	0.0232
470.0006	0.017
470.2017	0.0086
470.4027	0.0238
470.6038	0.0074
470.8049	0.0155
471.0059	0.0133
471.2069	0.0112
471.408	0.0129
471.6089	0.0169
471.8099	0.0091
472.0109	0.0063
472.2119	0.0228
472.4128	0.0089
472.6137	0.0171
472.8146	0.0181
473.0155	0.0205
473.2164	0.013
473.4173	0.0128
473.6181	0.0078
473.819	0.0165
474.0198	0.0071
474.2206	0.0055
474.4214	0.0138
474.6222	0.0088
474.8229	0.0071
475.0237	0.0199
475.2244	0.0172
475.4251	0.0105
475.6258	0.0035
475.8265	0.0157
476.0272	-0.0005
476.2278	0.0147
476.4285	0.0135
476.6291	0.0037
476.8297	0.0128
477.0303	0.0081
477.2309	0.0077
477.4315	0.0195
477.632	0.0061
477.8326	0.0092
478.0331	0.0186
478.2336	0.013
478.4341	0.0129
478.6346	0.0075
478.8351	0.0118
479.0355	0.0085
479.236	0.0221
479.4364	0.0102
479.6368	0.0122
479.8372	0.0141
480.0376	0.0087
480.2379	0.014
480.4383	0.0151
480.6386	-0.0008
480.8389	0.012
481.0392	0.0053
481.2395	0.0131
481.4398	0.0096
481.6401	0.0102
481.8403	0.0153
482.0405	0.0101
482.2408	0.0094
482.441	0.0075
482.6411	0.0098
482.8413	0.0115
483.0415	0.018
483.2416	0.0157
483.4417	0.0029
483.6419	0.0031
483.8419	0.0124
484.042	0.0037
484.2421	0.0118
484.4422	0.0038
484.6422	0.0156
484.8422	0.0032
485.0422	0.0077
485.2422	0.0047
485.4422	0.0075
485.6422	0.0089
485.8421	0.0081
486.042	0.013
486.242	0.0042
486.4419	0.0049
486.6417	0.0077
486.8416	0.0094
487.0415	0.0007
487.2413	0.0068
487.4411	0.0095
487.641	0.0085
487.8408	0.0125
488.0405	0.0109
488.2403	0.0067
488.4401	0.011
488.6398	0.0118
488.8395	0.0079
489.0392	0.0061
489.2389	0.0169
489.4386	0.0036
489.6383	0.0206
489.8379	0.003
490.0376	0.0082
490.2372	0.0058
490.4368	0.0073
490.6364	0.0049
490.836	0.0045
491.0355	0.0055
491.2351	0.0049
491.4346	0.009
491.6341	0.0027
491.8336	0.0196
492.0331	0.0072
492.2326	0.0176
492.432	0.0068
492.6315	0.0149
492.8309	0.0067
493.0303	0.0096
493.2297	0.0123
493.4291	0.0058
493.6284	0.0174
493.8278	0.0072
494.0271	0.0126
494.2264	-0.0018
494.4257	0.0137
494.625	0.0091
494.8243	0.0083
495.0236	0.0123
495.2228	0.0135
495.422	0.0104
495.6213	0.0053
495.8205	0.0091
496.0196	0.0101
496.2188	0.0061
496.418	0.01
496.6171	0.005
496.8162	0.0158
497.0153	0.0083
497.2144	0.0168
497.4135	0.0088
497.6126	0.0145
497.8116	0.0053
498.0107	0.0161
498.2097	0.0107
498.4087	0.0123
498.6077	0.0007
498.8067	0.0143
499.0056	0.0034
499.2046	0.0108
499.4035	0.0121
499.6024	0.0073
499.8013	0.0109
500.0002	0.0099
500.199	0.0127
500.3979	0.0076
500.5967	0.0012
500.7956	0.0128
500.9944	0.0112
501.1932	0.0183
501.3919	0.0082
501.5907	0.0118
501.7895	0.0152
501.9882	0.0135
502.1869	0.0234
502.3856	0.0063
502.5843	0.0035
502.783	0.0087
502.9816	0.0118
503.1803	0.0099
503.3789	0.0067
503.5775	0.0073
503.7761	0.0107
503.9747	0.0129
504.1732	0.0053
504.3718	0.0146
504.5703	0.0108
504.7689	-0.0009
504.9674	0.0195
505.1658	0.0065
505.3643	0.0088
505.5628	0.0097
505.7612	0.0101
505.9597	0.004
506.1581	0.0135
506.3565	0.0146
506.5549	0.0059
506.7532	0.0035
506.9516	0.003
507.1499	0.0093
507.3482	0.013
507.5465	0.0133
507.7448	0.0103
507.9431	0.0152
508.1414	-0
508.3396	0.012
508.5379	0.0133
508.7361	0.0101
508.9343	0.0114
509.1325	0.0094
509.3306	0.0086
509.5288	-0.0015
509.7269	0.0192
509.9251	0.0174
510.1232	0.0066
510.3213	0.0117
510.5193	0.013
510.7174	0.0049
510.9154	0.0181
511.1135	-0.0012
511.3115	0.0081
511.5095	0.0081
511.7075	0.0094
511.9055	0.0083
512.1034	0.0098
512.3014	0.0126
512.4993	0.016
512.6972	0.0068
512.8951	0.0105
513.093	0.0094
513.2908	0.0112
513.4887	0.0054
513.6865	0.0083
513.8844	0.0203
514.0822	0.0133
514.2799	-0.0047
514.4777	0.0012
514.6755	0.0141
514.8732	0.0052
515.0709	0.0115
515.2687	0.0067
515.4664	0.018
515.664	0.0192
515.8617	0.0029
516.0594	0.0099
516.257	0.0177
516.4546	0.0182
516.6522	0.0122
516.8498	0.0151
517.0474	0.0099
517.2449	0.0129
517.4425	0.0049
517.64	0.0062
517.8375	0.0152
518.035	0.0066
518.2325	0.0007
518.43	0.0127
518.6274	0.0084
518.8249	0.0059
519.0223	0.009
519.2197	-0.0002
519.4171	0.0034
519.6145	0.0061
519.8118	-0.0027
520.0092	0.0066
520.2065	0.016
520.4038	0.0029
520.6011	0.0125
520.7984	0.0161
520.9956	0.0166
521.1929	0.0126
521.3901	0.0132
521.5874	0.0197
521.7846	0.0067
521.9818	0.0072
522.1789	0.0003
522.3761	0.0135
522.5732	0.0146
522.7704	-0.0017
522.9675	0.0042
523.1646	0.0038
523.3617	0.0171
523.5587	0.0053
523.7558	0.0028
523.9528	0.0162
524.1498	0.013
524.3468	0.0149
524.5438	0.0082
524.7408	0.0086
524.9378	0.0205
525.1347	0.0146
525.3316	-0.0007
525.5285	0.0059
525.7254	0.0135
525.9223	0.0138
526.1192	0.006
526.316	0.0152
526.5129	0.0175
526.7097	0.012
526.9065	0.0221
527.1033	0.0101
527.3	0.0158
527.4968	0.0117
527.6935	-0.0005
527.8903	0.0057
528.087	0.003
528.2837	0.0167
528.4804	0.0033
528.677	0.0148
528.8737	0.0012
529.0703	0.0061
529.2669	0.0133
529.4635	0.0068
529.6601	0.0014
529.8567	0.0012
530.0532	0.008
530.2498	0.0028
530.4463	-0.0039
530.6428	0.0121
530.8393	0.0159
531.0358	0.0079
531.2322	0.0023
531.4287	0.0065
531.6251	-0.0051
531.8215	0.0051
532.0179	0.0118
532.2143	0.0034
532.4107	0.0128
532.607	0.0042
532.8034	-0.002
532.9997	0.0027
533.196	0.0048
533.3923	0.0198
533.5886	0.0048
533.7848	0.0092
533.9811	0.0036
534.1773	0.0086
534.3735	0.0098
534.5697	0.0026
534.7659	0.0185
534.9621	0.0147
535.1582	0.0078
535.3544	0.0131
535.5505	0.0104
535.7466	0.0134
535.9427	0.006
536.1387	0.0076
536.3348	0.012
536.5308	0.0095
536.7269	-0.0024
536.9229	0.008
537.1189	0.0074
537.3148	0.0033
537.5108	0.007
537.7068	0.0149
537.9027	0.0045
538.0986	0.0107
538.2945	-0.0067
538.4904	0.0069
538.6863	0.0114
538.8821	0.0209
539.078	0.0089
539.2738	0.0061
539.4696	-0.0012
539.6654	0.0133
539.8611	0.0074
540.0569	0.0062
540.2526	0.0186
540.4484	-0.0056
540.6441	0.0091
540.8398	0.0056
541.0355	0.0043
541.2311	0.0093
541.4268	0.0176
541.6224	0.0207
541.818	0.0041
542.0136	0.0046
542.2092	0.018
542.4048	0.0042
542.6003	0.0023
542.7959	0.0091
542.9914	0.0076
543.1869	0.0102
543.3824	0.0067
543.5779	0.0115
543.7734	0.023
543.9688	0.0065
544.1642	0.0023
544.3596	0.019
544.555	0.0037
544.7504	0.0132
544.9458	0.007
545.1411	0.0122
545.3365	0.0056
545.5318	0.0141
545.7271	0.01
545.9224	0.0053
546.1177	0.0134
546.3129	0.0128
546.5081	0.0087
546.7034	0.0036
546.8986	0.0026
547.0938	0.0207
547.289	0.0164
547.4841	0.013
547.6793	0.0069
547.8744	0.0196
548.0695	0.0078
548.2646	0.0123
548.4597	0.01
548.6548	0.0169
548.8498	0.0056
549.0448	0.0118
549.2399	0.0155
549.4349	0.003
549.6298	0.0147
549.8248	0.0102
550.0198	0.013
550.2147	0.009
550.4096	-0.0021
550.6045	0.005
550.7994	0.0151
550.9943	0.0143
551.1892	-0.0012
551.384	0.0072
551.5788	0.0075
551.7737	0.0145
551.9685	0.0108
552.1632	0.0063
552.358	0.0097
552.5528	0.0192
552.7475	0.0082
552.9422	0.008
553.1369	0.0218
553.3316	0.0103
553.5263	0.0121
553.7209	0.0068
553.9156	-0.0018
554.1102	0.0135
554.3048	0.0062
554.4994	0.0134
554.694	0.0232
554.8885	0.0139
555.0831	0.0152
555.2776	0.0128
555.4721	0.0125
555.6666	0.0021
555.8611	0.0024
556.0555	0.0086
556.25	0.009
556.4444	0.0053
556.6388	0.0052
556.8332	0.0078
557.0276	0.0089
557.222	0.0044
557.4163	0.0111
557.6107	0.0149
557.805	-0.0062
557.9993	0.0021
558.1936	-0.0011
558.3879	0.01
558.5821	0.0065
558.7764	-0.0026
558.9706	0.0105
559.1648	0.0124
559.359	0.0017
559.5532	0.0125
559.7473	-0.0093
559.9415	0.0018
560.1356	0.019
560.3297	-0.0013
560.5238	0.0049
560.7179	0.0072
560.9119	0.002
561.106	0.0086
561.3	-0.0002
561.494	-0.0012
561.688	0.0077
561.882	0.0027
562.076	0.0062
562.2699	0.0089
562.4639	0.0118
562.6578	0.0117
562.8517	0.0113
563.0456	0.0165
563.2395	0.018
563.4333	0.0052
563.6272	0.0062
563.821	0.013
564.0148	0.0045
564.2086	0.008
564.4024	0.01
564.5961	0.0041
564.7899	0.0202
564.9836	0.0071
565.1773	0.0156
565.371	0.0033
565.5647	0.0057
565.7584	0.0142
565.952	0.0097
566.1456	0.0057
566.3393	0.0087
566.5329	0.0104
566.7264	0.0147
566.92	0.0017
567.1136	0.0015
567.3071	0.012
567.5006	0.0115
567.6941	0.0127
567.8876	0.0134
568.0811	0.0237
568.2745	0.0021
568.468	0.0107
568.6614	0.0123
568.8548	0.0099
569.0482	0.0103
569.2416	0.0095
569.4349	0.0093
569.6283	0.0047
569.8216	0.0124
570.0149	0.0082
570.2082	0.0077
570.4015	0.0066
570.5947	0.0072
570.788	0.0067
570.9812	0.0091
571.1744	0.0134
571.3676	0.0062
571.5608	0.0081
571.754	0.0158
571.9471	0.0112
572.1402	0.0079
572.3333	0.0056
572.5264	0.0097
572.7195	0.0042
572.9126	0.0115
573.1057	0.0079
573.2987	0.0051
573.4917	0.0068
573.6847	0.0081
573.8777	0.0074
574.0707	0.0098
574.2636	0.0123
574.4566	0.0059
574.6495	0.0074
574.8424	0.012
575.0353	0.0113
575.2281	0.0114
575.421	0.0043
575.6138	0.0074
575.8067	0.0041
575.9995	0.0062
576.1923	0.0126
576.385	0.005
576.5778	0.0097
576.7706	0.0098
576.9633	0.0111
577.156	0.0031
577.3487	0.0067
577.5414	0.005
577.734	0.0054
577.9267	0.0099
578.1193	0.0117
578.3119	0.0085
578.5045	0.01
578.6971	0.0054
578.8897	0.0089
579.0822	0.0066
579.2747	0.0055
579.4673	0.007
579.6598	0.0065
579.8522	0.0052
580.0447	0.0102
580.2372	0.0133
580.4296	0.0116
580.622	0.0045
580.8144	0.0103
581.0068	0.0091
581.1992	0.0082
581.3915	0.0019
581.5839	0.0085
581.7762	0.0059
581.9685	0.0109
582.1608	0.0049
582.353	0.0092
582.5453	0.0095
582.7375	0.0103
582.9298	0.0053
583.122	0.0047
583.3142	0.0096
583.5063	0.0051
583.6985	-0.0001
583.8906	0.0027
584.0827	0.0067
584.2749	0.0038
584.4669	0.0082
584.659	0.0108
584.8511	0.0142
585.0431	0.0102
585.2352	0.006
585.4272	0.0067
585.6192	0.004
585.8111	0.006
586.0031	0.0021
586.195	0.0075
586.387	0.0079
586.5789	0.0129
586.7708	0.0111
586.9627	0.0102
587.1545	0.0085
587.3464	0.0091
587.5382	0.0057
587.73	0.0104
587.9218	0.0027
588.1136	0.0026
588.3053	0.0063
588.4971	0.005
588.6888	0.009
588.8805	0.0096
589.0722	0.0108
589.2639	0.0105
589.4556	0.0123
589.6472	0.0163
589.8389	0.0124
590.0305	0.0024
590.2221	0.0146
590.4137	0.005
590.6052	0.0003
590.7968	0.0064
590.9883	0.0102
591.1798	0.0081
591.3713	0.0058
591.5628	0.0118
591.7543	0.0081
591.9458	0.0073
592.1372	0.008
592.3286	0.0054
592.52	0.0055
592.7114	0.0092
592.9028	0.0112
593.0941	0.0062
593.2855	0.009
593.4768	0.0169
593.6681	0.0121
593.8594	0.0103
594.0506	0.0117
594.2419	0.0099
594.4331	0.0098
594.6244	0.0031
594.8156	0.0053
595.0067	0.0071
595.1979	0.0044
595.3891	0.0098
595.5802	0.0158
595.7713	0.0093
595.9624	0.0098
596.1535	0.0052
596.3446	0.0039
596.5357	0.0083
596.7267	0.0143
596.9177	0.009
597.1087	0.0048
597.2997	0.0051
597.4907	0.0086
597.6817	0.0096
597.8726	0.0043
598.0635	0.0032
598.2544	0.0074
598.4453	0.0051
598.6362	0.0064
598.827	0.011
599.0179	0.0076
599.2087	0.0115
599.3995	0.0097
599.5903	0.0135
599.7811	0.0121
599.9718	0.0024
600.1626	0.0048
600.3533	0.0037
600.544	0.007
600.7347	0.0112
600.9254	0.0119
601.116	0.0097
601.3067	0.0124
601.4973	0.0131
601.6879	0.0081
601.8785	0.0108
602.0691	0.014
602.2596	0.0097
602.4502	0.0059
602.6407	0.013
602.8312	0.0118
603.0217	0.0109
603.2122	0.0077
603.4027	0.0118
603.5931	0.0079
603.7835	0.0144
603.9739	0.0025
604.1643	0.0089
604.3547	0.0122
604.5451	0.0086
604.7354	0.0028
604.9257	0.007
605.116	0.0017
605.3063	0.0089
605.4966	0.0011
605.6869	0.0133
605.8771	0.0081
606.0673	0.0039
606.2575	0.0014
606.4477	0.0051
606.6379	0.0052
606.8281	0.0083
607.0182	0.0054
607.2083	0.0063
607.3985	0.0075
607.5885	0.0085
607.7786	0.0067
607.9687	0.0079
608.1587	0.0117
608.3488	0.0071
608.5388	0.0028
608.7288	0.0003
608.9187	0.0054
609.1087	0.0142
609.2986	0.0166
609.4886	0.0095
609.6785	0.0088
609.8684	0.01
610.0582	0.0036
610.2481	0.0084
610.4379	0.0114
610.6278	0.0094
610.8176	0.0087
611.0074	0.0088
611.1971	0.0042
611.3869	0.0115
611.5766	0.0002
611.7664	0.0095
611.9561	0.0061
612.1458	0.007
612.3354	0.01
612.5251	0.0097
612.7147	0.0108
612.9044	0.0049
613.094	0.0097
613.2836	0.0086
613.4731	0.0054
613.6627	0.009
613.8522	0.0135
614.0417	0.0064
614.2313	0.0055
614.4207	0.0084
614.6102	0.0161
614.7997	0.0116
614.9891	0.0147
615.1785	-0.0007
615.3679	0.0143
615.5573	0.0041
615.7467	0.0025
615.9361	0.0102
616.1254	0.0118
616.3147	0.0069
616.504	0.0098
616.6933	0.0132
616.8826	0.0091
617.0718	0.0084
617.2611	0.0064
617.4503	0.0098
617.6395	0.0011
617.8287	0.0081
618.0179	0.0138
618.207	0.0142
618.3961	0.0039
618.5853	0.0081
618.7744	0.0086
618.9634	0.02
619.1525	0.0092
619.3416	0.0019
619.5306	0.0103
619.7196	0.0027
619.9086	0.0088
620.0976	0.0052
620.2866	0.0068
620.4755	-0.0048
620.6645	0.017
620.8534	0.012
621.0423	0.0107
621.2312	0.008
621.42	0.0091
621.6089	0.0059
621.7977	0.009
621.9865	0.0027
622.1753	0.0028
622.3641	-0.0028
622.5529	0.0052
622.7416	0.0043
622.9303	0.0042
623.1191	0.0186
623.3078	-0.0049
623.4964	0.0017
623.6851	0.008
623.8737	-0.0029
624.0624	-0.0149
624.251	0.0007
624.4396	0.0108
624.6282	0.0182
624.8167	0.0073
625.0053	0.0137
625.1938	0.0143
625.3823	0.0098
625.5708	0.0075
625.7593	0.0062
625.9477	0.0156
626.1362	-0.0063
626.3246	0.0017
626.513	0.0076
626.7014	0.0141
626.8898	0.0087
627.0781	-0.0001
627.2665	0.006
627.4548	0.0019
627.6431	0.0153
627.8314	0.0119
628.0197	0.0056
628.2079	-0.0035
628.3962	0.012
628.5844	0.0075
628.7726	0.0057
628.9608	0.001
629.1489	0.0083
629.3371	0.0018
629.5252	0.0108
629.7134	-0.0055
629.9015	0.0134
630.0895	0.0021
630.2776	0.0102
630.4657	0.0086
630.6537	0.008
630.8417	-0.0073
631.0297	0.0082
631.2177	0.004
631.4057	0.0011
631.5936	0.008
631.7815	0.0067
631.9695	0.0271
632.1574	0.0194
632.3452	0.0116
632.5331	0.0035
632.7209	0.0149
632.9088	0.0003
633.0966	0.0284
633.2844	0.002
633.4722	0.0174
633.6599	0.0224
633.8477	0.0102
634.0354	0.0098
634.2231	-0.013
634.4108	-0.0023
634.5985	0.0112
634.7861	0.0026
634.9738	0.003
635.1614	-0.0003
635.349	-0.0029
635.5366	0.002
635.7242	0.0123
635.9117	0.0132
636.0993	0.0154
636.2868	0.0074
636.4743	-0.0021
636.6618	-0.0059
636.8492	-0.0002
637.0367	-0.0018
637.2241	0.0044
637.4115	0.0392
637.5989	-0
637.7863	0.035
637.9737	0.0029
638.161	0.0095
638.3484	-0.0053
638.5357	0.0012
638.723	0.0008
638.9103	-0.019
639.0975	0.0065
639.2848	0.0229
639.472	-0.0009
639.6592	-0.0061
639.8464	0.0096
640.0336	0.0094
640.2208	0.0022
640.4079	-0.0016
640.595	-0.0075
640.7821	0.0143
640.9692	-0.0149
641.1563	0.0195
641.3434	0.0018
641.5304	0.0176
641.7174	0.0173
641.9044	0.0206
642.0914	0.0323
642.2784	0.0057
642.4653	-0.013
642.6523	0.0097
642.8392	0.0156
643.0261	0.0151
643.213	0.0155
643.3999	0.0088
643.5867	0.0082
643.7735	0.0044
643.9604	0.025
644.1472	0.0111
644.3339	-0.0102
644.5207	0.0038
644.7075	0.0062
644.8942	0.0117
645.0809	0.0035
645.2676	0.0084
645.4543	-0.0079
645.6409	0.0177
645.8276	0.0108
646.0142	-0
646.2008	0.0105
646.3874	0.0081
646.574	-0.0043
646.7605	0.0014
646.9471	-0.0036
647.1336	-0.0178
647.3201	-0.009
647.5066	0.0029
647.6931	0.0189
647.8795	0.0096
648.0659	0.0123
648.2524	0.0177
648.4388	0.0084
648.6252	0.0175
648.8115	0.0095
648.9979	-0.007
649.1842	0.0043
649.3705	0.0222
649.5568	-0.012
649.7431	0.0028
649.9294	0
650.1156	-0.008
650.3018	0.0188
650.488	0.0103
650.6742	0.0234
650.8604	0.0047
651.0466	0.0185
651.2327	0.0145
651.4188	-0.0049
651.6049	0.017
651.791	0.0039
651.9771	-0.0025
652.1632	0.0056
652.3492	-0.0058
652.5352	0.0175
652.7212	0.0163
652.9072	0.0068
653.0932	0.0101
653.2791	-0.0088
653.465	0.0127
653.651	-0.0016
653.8369	0.0079
654.0227	-0.0076
654.2086	0.0157
654.3944	-0.0061
654.5803	0.0072
654.7661	0.0029
654.9519	0.0016
655.1377	0.0001
655.3234	0.0001
655.5092	0.0001
655.6949	0.0001
655.8806	0.0001
656.0663	0.0001
656.2519	0.0001
656.4376	0.0001
656.6232	0.0001
656.8088	0.0001
656.9945	0.0001
657.18	0.0001
657.3656	0.0001
657.5511	0.0001
657.7367	0.0001
657.9222	0.0001
658.1077	0.0001
658.2932	0.0001
658.4786	0.0001
658.6641	0.0001
658.8495	0.0001
659.0349	0.0001
659.2203	0.0001
659.4057	0.0045
659.591	0.2787
659.7764	0.0207
659.9617	0.0055
660.147	0.005
660.3323	0.0143
660.5176	0.0157
660.7028	0.005
660.888	-0.005
661.0733	0.0172
661.2585	0.0007
661.4436	-0.0044
661.6288	0.0246
661.8139	-0.0168
661.9991	-0.0176
662.1842	-0.0086
662.3693	0.0195
662.5544	0.0108
662.7394	0.0061
662.9245	0.0237
663.1095	-0.0037
663.2945	-0.0008
663.4795	-0.003
663.6644	-0.0104
663.8494	0.0129
664.0343	0.0119
664.2193	0.0045
664.4042	0.0155
664.589	0.0152
664.7739	0.0067
664.9587	-0.0117
665.1436	-0.0036
665.3284	-0.0003
665.5132	-0.0016
665.698	0.0351
665.8827	0.0105
666.0675	-0.0056
666.2522	0.0148
666.4369	0.0007
666.6216	-0.0071
666.8063	-0.0027
666.9909	0.0158
667.1756	-0.0143
667.3602	-0.0065
667.5448	0.0089
667.7294	0.0233
667.9139	0.0049
668.0985	0.0226
668.283	-0.001
668.4675	0.0265
668.652	0.0255
668.8365	-0.0013
669.0209	-0.0042
669.2054	0.0032
669.3898	0.0025
669.5742	0.0169
669.7586	0.0218
669.943	0.0061
670.1273	-0.0019
670.3117	0.0052
670.496	0.0029
670.6803	0.0116
670.8646	-0.0111
671.0488	0.0185
671.2331	-0.0177
671.4173	-0.0026
671.6015	0.0074
671.7857	0.0157
671.9699	0.0106
672.1541	-0.0014
672.3382	-0.0035
672.5223	0.0207
672.7064	0.0044
672.8905	0.0068
673.0746	0.0064
673.2587	0.0213
673.4427	0.0092
673.6267	0.0292
673.8107	0.0178
673.9947	0.0063
674.1787	0.0073
674.3626	0.0108
674.5465	0.0022
674.7304	-0.0036
674.9143	-0.007
675.0982	-0.0009
675.2821	0.0081
675.4659	-0.007
675.6497	-0.0073
675.8335	0.0128
676.0173	0.0049
676.2011	-0.0068
676.3849	0.0217
676.5686	0.0172
676.7523	-0.0046
676.936	0.0209
677.1197	0.0008
677.3034	0.0351
677.487	0.004
677.6706	0.0153
677.8542	0.0128
678.0378	0.0208
678.2214	-0.0007
678.405	0.0039
678.5885	0.0147
678.772	0.0028
678.9555	0.0123
679.139	0.0023
679.3225	-0.0039
679.5059	0.0067
679.6894	0.0144
679.8728	0.0201
680.0562	0.0002
680.2395	-0.0047
680.4229	-0.0042
680.6062	0.0108
680.7896	0.0066
680.9729	0.0251
681.1562	-0.0076
681.3394	-0.0056
681.5227	-0.0028
681.7059	-0.0002
681.8891	0.0008
682.0723	0.0039
682.2555	-0.0107
682.4387	0.0276
682.6218	0.0003
682.805	0.0006
682.9881	0.01
683.1712	0.009
683.3542	0.0093
683.5373	0.0026
683.7203	0.0062
683.9034	0.0011
684.0864	0.0017
684.2694	0.0008
684.4523	-0.0013
684.6353	0.0031
684.8182	-0.0041
685.0011	0.0134
685.184	0.0012
685.3669	0.0221
685.5498	0.0142
685.7326	-0.0041
685.9154	-0.0008
686.0982	0.0197
686.281	0.0173
686.4638	0.0115
686.6465	0.013
686.8293	-0.013
687.012	0.0132
687.1947	-0.005
687.3774	0.003
687.56	-0.0091
687.7427	-0.0086
687.9253	-0.0197
688.1079	0.0074
688.2905	0.0018
688.4731	0.0199
688.6556	-0.0124
688.8382	-0.0209
689.0207	0.0148
689.2032	0.0285
689.3857	0.0045
689.5681	0.0086
689.7506	0.0386
689.933	0.0087
690.1154	0.0182
690.2978	0.0107
690.4802	0.0255
690.6626	-0.0016
690.8449	0.0177
691.0272	-0.0123
691.2095	-0.0138
691.3918	0.0221
691.5741	0.0146
691.7563	0.0142
691.9386	0.0177
692.1208	0.0147
692.303	-0.0033
692.4852	-0.0031
692.6673	-0.0009
692.8495	-0.0104
693.0316	0.0067
693.2137	0.0002
693.3958	0.0097
693.5778	0.0068
693.7599	-0.0139
693.9419	-0.0079
694.1239	0.0048
694.3059	0.016
694.4879	-0.0154
694.6699	0.0191
694.8518	0.0133
695.0337	0.0115
695.2157	0.029
695.3975	0.0123
695.5794	0.0067
695.7613	0.0174
695.9431	-0.0312
696.1249	0.015
696.3067	0.0074
696.4885	0.008
696.6703	0.001
696.852	-0.0079
697.0337	0.0124
697.2154	0.0089
697.3971	0.0169
697.5788	0.0162
697.7605	-0.0257
697.9421	0.0122
698.1237	0.0047
698.3053	0.0064
698.4869	0.0188
698.6685	0.0103
698.85	0.0327
699.0315	-0.0056
699.213	0.0152
699.3945	0.0226
699.576	0.0103
699.7575	0.0096
699.9389	-0.019
700.1203	0.015
700.3017	0.0004
700.4831	-0.0015
700.6645	0.0176
700.8458	-0.0063
701.0271	0.0421
701.2084	0.0071
701.3897	0.0179
701.571	-0.0156
701.7523	0.001
701.9335	0.0119
702.1147	0.0131
702.2959	-0.0037
702.4771	0.0108
702.6583	-0.0097
702.8394	-0.0159
703.0205	0.0076
703.2016	-0.0145
703.3827	0.0241
703.5638	-0.0097
703.7449	0.0501
703.9259	0.0011
704.1069	-0.0281
704.2879	0.0279
704.4689	-0.0104
704.6499	0.022
704.8308	0.0061
705.0117	0.0067
705.1927	0.013
705.3735	-0.0081
705.5544	-0.0084
705.7353	0.0038
705.9161	-0.0165
706.0969	0.0188
706.2777	-0.0158
706.4585	-0.001
706.6393	0.0149
706.82	0.0029
707.0007	-0.0148
707.1815	0.0026
707.3621	0.03
707.5428	0.0243
707.7235	0.0025
707.9041	-0.0137
708.0847	0.0199
708.2653	0.021
708.4459	0.0099
708.6265	0.0061
708.807	0
708.9875	0.013
709.168	0.0068
709.3485	0.026
709.529	0.0158
709.7095	0.0031
709.8899	-0.0013
710.0703	0.004
710.2507	0.0088
710.4311	-0.0108
710.6115	0.0219
710.7918	0.0036
710.9721	-0.0153
711.1524	-0.0033
711.3327	-0.0166
711.513	-0.0172
711.6932	0.0519
711.8735	0.0076
712.0537	0.0124
712.2339	0.0098
712.4141	0.0338
712.5942	0.0033
712.7744	0.0379
712.9545	0.0071
713.1346	0.0052
713.3147	0.0114
713.4947	0.0053
713.6748	-0.0047
713.8548	0.014
714.0348	0.0078
714.2148	0.0238
714.3948	0.0113
714.5748	0.0118
714.7547	0.0028
714.9346	0.0233
715.1145	-0.0007
715.2944	-0.0139
715.4743	0.0111
715.6541	0.003
715.834	0.015
716.0138	0.0315
716.1936	-0.0278
716.3733	0.0091
716.5531	0.0038
716.7328	0.0126
716.9126	-0.0094
717.0923	-0.0362
717.2719	-0.0143
717.4516	0.0052
717.6312	-0.0113
717.8109	0.0242
717.9905	0.0156
718.1701	0.0184
718.3496	0.0004
718.5292	-0.0217
718.7087	0.023
718.8882	0.0078
719.0677	-0.0116
719.2472	0.0011
719.4267	0.0139
719.6061	-0.003
719.7856	0.0286
719.965	0.0089
720.1443	-0.018
720.3237	-0.0055
720.5031	0.0073
720.6824	0
720.8617	-0.0026
721.041	0.0227
721.2203	-0.0072
721.3995	0.0124
721.5788	-0.0082
721.758	-0.005
721.9372	0.011
722.1164	-0.0068
722.2956	-0.0334
722.4747	0.0031
722.6538	-0.0074
722.8329	0.0471
723.012	-0.0021
723.1911	0.009
723.3702	0.0187
723.5492	-0.0021
723.7282	0.0065
723.9072	0.0227
724.0862	0.0192
724.2652	0.0113
724.4441	0
724.623	0.0172
724.8019	-0.0004
724.9808	0.0111
725.1597	0
725.3385	0.0225
725.5174	0.0034
725.6962	0.0209
725.875	0.009
726.0538	0.0245
726.2325	0.0214
726.4112	-0.0096
726.59	-0.0148
726.7687	-0.0166
726.9474	0.0327
727.126	0.0234
727.3047	-0.0078
727.4833	0.0023
727.6619	0.0014
727.8405	0.0027
728.0191	0.0252
728.1976	-0.0025
728.3762	0.0124
728.5547	-0.0025
728.7332	0.0318
728.9116	0.0034
729.0901	0.0236
729.2686	0
729.447	-0.0013
729.6254	0.0225
729.8038	-0.0044
729.9821	-0.0072
730.1605	0.012
730.3388	0.0179
730.5171	0.0135
730.6954	-0.0054
730.8737	0.0111
731.0519	-0.0073
731.2302	0.0209
731.4084	-0.006
731.5866	0.0064
731.7648	0.0152
731.9429	0.0126
732.1211	0.0057
732.2992	0.0093
732.4773	0.004
732.6554	-0.009
732.8335	0.0155
733.0115	0.0064
733.1896	-0.0211
733.3676	0.0162
733.5456	0.0034
733.7235	0.009
733.9015	0.0125
734.0794	-0.0102
734.2574	-0.025
734.4353	0.0248
734.6131	-0.0019
734.791	0.0134
734.9689	-0.0048
735.1467	-0.0101
735.3245	0.0328
735.5023	0.0074
735.68	0.0003
735.8578	0.0128
736.0355	0.0294
736.2132	-0.0094
736.3909	0.0121
736.5686	-0.0046
736.7463	-0.0143
736.9239	0.0067
737.1015	0.0129
737.2791	0.0155
737.4567	0.0342
737.6343	0.0156
737.8118	0.0198
737.9894	-0.0049
738.1669	-0.0076
738.3444	0.0309
738.5218	-0.012
738.6993	0.0124
738.8767	0.0163
739.0541	0.0096
739.2315	0.0126
739.4089	0.0367
739.5863	0.0148
739.7636	-0.0045
739.9409	0.0239
740.1182	-0.0155
740.2955	0.0281
740.4728	-0.0137
740.65	-0.0138
740.8272	0.0342
741.0044	-0.0206
741.1816	0.0246
741.3588	0.0005
741.5359	-0.0128
741.7131	0.013
741.8902	-0.0053
742.0673	-0.028
742.2444	0.0257
742.4214	0.0178
742.5985	0.0114
742.7755	0.0009
742.9525	-0.0234
743.1295	-0.0268
743.3064	0.0219
743.4834	0.005
743.6603	0.0241
743.8372	-0.0434
744.0141	0.0283
744.191	-0.007
744.3678	-0.0329
744.5446	0.0096
744.7215	-0.0013
744.8982	0.014
745.075	0.0362
745.2518	-0.0045
745.4285	0.032
745.6052	-0.0253
745.7819	0.0152
745.9586	-0.0116
746.1353	-0.0305
746.3119	-0.0051
746.4885	0.0601
746.6651	0.0074
746.8417	0.0094
747.0183	0.0312
747.1948	-0.0017
747.3714	0.0182
747.5479	0.0025
747.7244	0.0173
747.9008	-0.0275
748.0773	0.0178
748.2537	0.0022
748.4301	0.0332
748.6065	-0.016
748.7829	0.0025
748.9593	-0.0087
749.1356	-0.0072
749.3119	0.0208
749.4882	0.0239
749.6645	0.0012
749.8408	0.0072
750.017	0.028
750.1933	-0.0228
750.3695	-0.0016
750.5457	0.012
750.7218	-0.0141
750.898	-0.0174
751.0741	0.0186
751.2502	0.0247
751.4263	-0.0078
751.6024	-0.009
751.7784	-0.001
751.9545	-0.0131
752.1305	-0.0105
752.3065	0.0244
752.4825	0.0068
752.6584	0.0016
752.8344	-0.0141
753.0103	-0.0131
753.1862	0.0247
753.3621	0.0053
753.5379	-0.003
753.7138	0.0201
753.8896	0.0179
754.0654	0.0145
754.2412	0.0275
754.417	0.0313
754.5927	-0.0041
754.7685	-0.0063
754.9442	0.0224
755.1199	-0.0043
755.2956	-0.0041
755.4712	0.0105
755.6469	0.0055
755.8225	0.0042
755.9981	0.0015
756.1736	0.0165
756.3492	-0.0007
756.5248	0.0247
756.7003	-0.0143
756.8758	0.0117
757.0513	-0.0068
757.2267	-0.001
757.4022	-0.0106
757.5776	-0.0008
757.753	0.0219
757.9284	0.0142
758.1038	0.0293
758.2791	0.0233
758.4545	0.0162
758.6298	0.0013
758.8051	0.0101
758.9803	0.0237
759.1556	-0.0072
759.3308	0.0057
759.506	0.0022
759.6812	0.0049
759.8564	0.0023
760.0316	-0.0035
760.2067	0.0229
760.3819	-0.0004
760.557	0.0038
760.732	0.0043
760.9071	0.0148
761.0821	-0.0003
761.2572	0.0072
761.4322	0.0181
761.6072	0.0135
761.7821	-0.0135
761.9571	0.012
762.132	-0.0015
762.3069	0.023
762.4818	-0.0015
762.6567	-0.0087
762.8316	0.0134
763.0064	0.0044
763.1812	-0.0024
763.356	-0.0249
763.5308	0.0244
763.7055	-0.0074
763.8803	0.0025
764.055	-0.0098
764.2297	-0.0063
764.4044	0.0187
764.579	-0.0061
764.7537	-0.0051
764.9283	0.0083
765.1029	-0.0008
765.2775	0.0202
765.4521	0.0149
765.6266	0.0057
765.8011	0.012
765.9756	0.0098
766.1501	-0.0153
766.3246	-0.0182
766.4991	-0.001
766.6735	0.0204
766.8479	0.019
767.0223	0.0094
767.1967	0.0074
767.371	0.0136
767.5454	0.0014
767.7197	0.0256
767.894	0.0057
768.0683	0.0083
768.2425	0.015
768.4168	0.0218
768.591	-0.001
768.7652	-0.0177
768.9394	-0.0436
769.1135	-0.017
769.2877	0.0343
769.4618	0.0334
769.6359	0.0046
769.81	0.0337
769.984	0.008
770.1581	0.0083
770.3321	0.0369
770.5061	0.0079
770.6801	0.0094
770.8541	-0.0024
771.028	0.0246
771.202	0.0354
771.3759	0.023
771.5498	0.0115
771.7236	0.0009
771.8975	0.0253
772.0713	0.0566
772.2451	0
772.4189	0.0199
772.5927	-0.043
772.7665	0.0111
772.9402	0.0155
773.1139	-0.0071
773.2876	0.0083
773.4613	-0.0139
773.635	0.0032
773.8086	0.0339
773.9822	0.0501
774.1558	0.014
774.3294	-0.0034
774.503	0.0056
774.6765	0.031
774.8501	0.0069
775.0236	0.015
775.1971	0.0054
775.3705	0.0348
775.544	-0.0426
775.7174	0.0049
775.8908	-0.0146
776.0642	0.0168
776.2376	-0.0195
776.4109	0.0451
776.5843	-0.0402
776.7576	-0.0042
776.9309	-0.0251
777.1041	-0.0382
777.2774	0
777.4506	-0.011
777.6238	-0.0329
777.797	0.0475
777.9702	0.016
778.1434	0.0031
778.3165	0.0119
778.4896	-0.0247
778.6627	0.0199
778.8358	-0.0307
779.0089	-0.0136
779.1819	0.0248
779.3549	0.0262
779.5279	-0.0485
779.7009	0.0483
779.8739	0.0157
780.0468	0.0028
780.2197	0.0115
780.3926	-0.0506
780.5655	0.0122
780.7384	-0.0066
780.9112	0.0005
781.0841	-0.0051
781.2569	0.0184
781.4297	0.0064
781.6024	0.047
781.7752	0.0247
781.9479	0.0364
782.1206	-0.0026
782.2933	0.0069
782.466	0.0366
782.6386	-0.0113
782.8113	-0.0319
782.9839	0.0119
783.1565	-0.0103
783.329	-0.0023
783.5016	0.0098
783.6741	-0.0079
783.8466	0.0422
784.0191	-0.0128
784.1916	-0.0428
784.3641	-0.0069
784.5365	0.0483
784.7089	-0.0188
784.8813	0.061
785.0537	0.0007
785.2261	0.0428
785.3984	-0.0116
785.5707	-0.0195
785.743	0.0331
785.9153	-0.0442
786.0876	0.01
786.2598	-0.0204
786.432	-0.011
786.6042	0.0615
786.7764	-0.0367
786.9486	-0.0062
787.1207	0.0019
787.2928	0.0301
787.4649	-0.0276
787.637	0.003
787.8091	0.0417
787.9811	0.044
788.1532	0.0104
788.3252	0.0233
788.4972	0.0403
788.6691	0.0077
788.8411	-0.003
789.013	0.0192
789.1849	-0.0638
789.3568	-0.0047
789.5287	0.0784
789.7005	-0.031
789.8723	-0.0272
790.0442	0.0101
790.2159	0.0126
790.3877	0.0371
790.5595	0.0191
790.7312	0.0289
790.9029	-0.022
791.0746	-0.0421
791.2463	-0.0215
791.4179	0.0021
791.5896	0.001
791.7612	0.0441
791.9328	0.0012
792.1044	-0.0565
792.2759	-0.0098
792.4474	-0.0171
792.619	-0.009
792.7905	0.0162
792.9619	0.039
793.1334	0.0192
793.3048	0.1001
793.4762	0.0008
793.6476	-0.0261
793.819	-0.0138
793.9904	-0.0166
794.1617	-0.0147
794.333	0.0106
794.5043	0.0223
794.6756	-0.0069
794.8469	0.0031
795.0181	-0.0006
795.1893	0.0243
795.3605	0.0477
795.5317	-0.0008
795.7029	0.0233
795.874	0.039
796.0452	0.0208
796.2163	0.0604
796.3873	0.0034
796.5584	0.0927
796.7294	0.0167
796.9005	0.0225
797.0715	-0.0711
797.2425	0.0518
797.4134	0.0906
797.5844	0.0785
797.7553	-0.096
797.9262	0.071
798.0971	0.0094
798.2679	0.0198
798.4388	0.0352
798.6096	0.0385
798.7804	0.0212
798.9512	0.0191
799.122	-0.0427
799.2927	-0.0106
799.4635	-0.0773
799.6342	-0
799.8049	0.0457
799.9755	-0.0562
800.1462	0.079
800.3168	-0.0078
800.4874	-0.0156
800.658	-0.0107
800.8286	0.0271
800.9991	0.0127
801.1696	-0.0058
801.3402	-0.002
801.5106	-0.0439
801.6811	-0.0358
801.8516	0.1105
802.022	0.0373
802.1924	-0.0473
802.3628	0.0079
802.5332	0.0445
802.7035	-0
802.8739	0.045
803.0442	0.0494
803.2145	-0.0176
803.3847	-0.0137
803.555	0.0538
803.7252	0.0528
803.8954	-0.0392
804.0656	0.0668
804.2358	-0.0383
804.4059	0.0405
804.5761	-0.0019
804.7462	0.0416
804.9163	0.0063
805.0864	-0.0524
805.2564	0.0396
805.4264	-0.0082
805.5965	0.0261
805.7665	-0.0251
805.9364	0.0207
806.1064	-0.0412
806.2763	0.0606
806.4462	-0.0473
806.6161	0.0442
806.786	0.002
806.9559	0.0209
807.1257	-0.0265
807.2955	-0.0111
807.4653	0.0207
807.6351	-0.0238
807.8048	-0.0264
807.9746	-0.0194
808.1443	0.0054
808.314	0.034
808.4837	0.0243
808.6533	-0.0625
808.8229	0.0242
808.9926	0.0209
809.1622	0.0229
809.3317	-0.0068
809.5013	0.0362
809.6708	0.0529
809.8403	0.1036
810.0098	-0.0123
810.1793	0.0605
810.3488	-0.079
810.5182	0.1167
810.6876	-0.0019
810.857	0.0591
811.0264	-0.0696
811.1958	0.0442
811.3651	0.0217
811.5344	-0.016
811.7037	0.0415
811.873	0.0312
812.0422	-0.0989
812.2115	-0.0379
812.3807	-0.1163
812.5499	-0.0866
812.7191	-0.0472
812.8882	-0.0418
813.0574	0.1513
813.2265	0.1041
813.3956	0.0279
813.5646	0.0821
813.7337	0.0036
813.9027	-0.0735
814.0718	0.0172
814.2407	-0.0142
814.4097	0.0752
814.5787	0.1264
814.7476	-0.0282
814.9165	0.0046
815.0854	0.0522
815.2543	-0
815.4232	0.0404
815.592	-0.0315
815.7608	-0.1602
815.9296	0.0056
816.0984	0.0328
816.2671	-0.3148
816.4359	0.0865
816.6046	0.0837
816.7733	0.0357
816.942	0.0219
817.1106	0.1361
817.2793	-0.0333
817.4479	-0.0047
817.6165	0.1099
817.785	0.0352
817.9536	-0.027
818.1221	0.0643
818.2906	-0.1012
818.4591	0.0251
818.6276	-0.0307
818.7961	0.0399
818.9645	0.1094
819.1329	0.1605
819.3013	0.0505
819.4697	0.7678
819.638	-0.0219
819.8064	0.0867
819.9747	-0.0161
820.143	0.0924
820.3113	0.0063
820.4795	0.0138
820.6477	0.1369
820.816	0.1126
820.9842	0.0894
821.1523	-0.0604
821.3205	0.1074
821.4886	-0.0629
821.6567	-0.0302
821.8248	0.0759
821.9929	-0.2301
822.1609	-0
822.329	-0.0174
822.497	0.0201
822.665	-0.022
822.833	0.0192
823.0009	0.0483
823.1688	0.0838
823.3367	-0.2172
823.5046	-0.0081
823.6725	0.0907
823.8404	0.0196
824.0082	0.0143
824.176	-0.151
824.3438	0.3194
824.5116	0.0264
824.6793	0.1075
824.847	0.0301
825.0147	0.3144
825.1824	0.0947
825.3501	-0.0519
825.5177	0.076
825.6854	-0.0903
825.853	-0.149
826.0206	0.0415
826.1881	-0.0108
826.3557	0.0255
826.5232	0.1279
826.6907	-0.0383
826.8582	0.0403
827.0257	0.156
827.1931	0.0917
827.3605	-0.1048
827.528	-0.1871
827.6953	-0.0787
827.8627	-0.1449
828.03	0.1475
828.1974	-0.0197
828.3647	0.0486
828.532	-0.0513
828.6992	0.1123
828.8665	-0.3231
829.0337	0.0825
829.2009	-0.1134
829.3681	-0.0217
829.5352	-0.2397
829.7024	0.1255
829.8695	0.0194
830.0366	0.2072
830.2037	0.1307
830.3707	0.2417
830.5378	0.0466
830.7048	-0.1028
830.8718	0.0503
831.0388	0.4406
831.2057	-0.1111
831.3727	-0.3254
831.5396	0.2934
831.7065	-0.3398
831.8734	0.4179
832.0402	0.0604
832.2071	-0.8203
832.3739	-0.2215
832.5407	-1.8929
832.7075	-0.1582
832.8742	0.0879
833.041	-0.0049
833.2077	0.7338
833.3744	-0.0948
833.541	0.1044
833.7077	0.0257
833.8743	0.0779
834.0409	0.07
834.2075	0.0266
834.3741	-0.2542
834.5407	0.1616
834.7072	0.2987
834.8737	0.1497
835.0402	1.2115
835.2067	-0.084
835.3731	-0.1132
835.5395	0.0227
835.706	-0.2877
835.8723	0.0634
836.0387	-0.0243
836.2051	0.4155
836.3714	0.3627
836.5377	0.1395
836.704	0.6078
836.8703	-0.0362
837.0365	-0.6463
837.2027	0.2964
837.3689	0.3811
837.5351	0.4239
837.7013	-0.2215
837.8674	-0.533
838.0335	0.2268
838.1997	-0.1025
838.3657	0.0782
838.5318	-0.6605
838.6978	0.1514
838.8639	0.3355
839.0299	0
839.1958	-0.0267
839.3618	-0.0503
839.5277	-0.1111
839.6937	0.3738
839.8596	-0.2701
840.0254	-0.2096
840.1913	-0.2682
840.3571	-0.2981
840.523	-0
840.6888	-0.0629
840.8545	-0.4337
841.0203	0.1589
841.186	0.1489
841.3517	-0.2271
841.5174	1.0984
841.6831	-0.0191
841.8488	-0.1828
842.0144	-0
842.18	0.1914
842.3456	-0.6605
842.5112	-0
842.6767	0.1235
842.8422	-0.1285
843.0077	0.4307
843.1732	-0.3547
843.3387	0.1224
843.5042	-0
843.6696	-0.0828
843.835	-0.2363
844.0004	-0.0199
844.1657	-0
844.3311	-0
844.4964	-0.3355
844.6617	0.4832
844.827	0.6116
844.9923	0.1035
845.1575	-0.3059
845.3227	-0.3433
845.4879	-0.4878
845.6531	0.0186
845.8183	0.0585
845.9834	-0
846.1485	0.1772
846.3136	0.2409
846.4787	-0
846.6438	0.1995
846.8088	0.3258
846.9738	0.1069
847.1388	0.0551
847.3038	0.3488
847.4687	0.6081
847.6337	-0.0392
847.7986	-0.112
847.9635	0.4157
848.1284	-0
848.2932	0.7203
848.458	-0
848.6228	-0
848.7876	-0
848.9524	-0
849.1172	-1.9381
849.2819	-0
849.4466	0.6097
849.6113	-0
849.7759	-0
849.9406	0.0881
850.1052	-0
850.2698	0.053
850.4344	-0.8879
850.599	-0.0135
850.7635	0.129
850.928	0.6127
851.0925	0.1208
851.257	1.7471
851.4215	0.9312
851.5859	-0.1308
851.7503	1.2504
851.9147	0.1392
852.0791	0.1065
852.2434	0.3239
852.4078	-0
852.5721	-0
852.7364	-0.0851
852.9007	-0.1215
853.0649	-0
853.2291	0.5352
853.3934	-0
853.5575	0.3299
853.7217	0.4652
853.8859	-0.7432
854.05	-0.3841
854.2141	-0
854.3782	-0.0775
854.5423	0.4982
854.7063	0.0932
854.8703	0.0563
855.0343	0.0175
855.1983	-0.0945
855.3623	0.1995
855.5262	-0
855.6901	0.501
855.854	-0.0553
856.0179	0.6938
856.1818	0.1497
856.3456	-0
856.5094	-0.5518
856.6732	-0.6374
856.837	-1.0124
857.0008	-0
857.1645	0.7376
857.3282	0.1392
857.4919	0.0585
857.6556	-0.0684
857.8192	-0.0214
857.9828	-0.0529
858.1465	-0.0822
858.31	-0
858.4736	-0.8299
858.6372	0.1053
858.8007	0.0127
858.9642	0.3034
859.1277	1.1242
859.2911	-0.1611
859.4546	-1.6212
859.618	-0.0237
859.7814	-0.209
859.9448	0.195
860.1081	-0
860.2715	-0
860.4348	-0.2029
860.5981	0.2896
860.7614	-0.5112
860.9246	-0
861.0879	-0
861.2511	-0.4124
861.4143	-0.4386
861.5774	-0
861.7406	-0.1065
861.9037	-0
862.0668	-0.8099
862.2299	0.122
862.393	-0
862.556	-0.3088
862.7191	-0
862.8821	0.2718
863.0451	0.0117
863.208	-0
863.371	0.3794
863.5339	0.0936
863.6968	-0.031
863.8597	-0
864.0225	0.6523
864.1854	-0.1096
864.3482	-0.1421
864.511	0.0489
864.6737	-0
864.8365	-0.2805
864.9992	-0
865.1619	-0
865.3246	-1.9759
865.4873	-0
865.65	-0.1552
865.8126	-0
865.9752	-0.05
866.1378	0.5878
866.3004	0.4315
866.4629	-1.5682
866.6254	-0.4217
866.7879	-0
866.9504	-0.4794
867.1129	0.2302
867.2753	0.4337
867.4377	-0.0828
867.6001	0.3915
867.7625	-0
867.9249	-0.1317
868.0872	-0.0294
868.2495	-0
868.4118	-0
868.5741	-0
868.7363	0.9138
868.8986	-0
869.0608	-0.6046
869.223	-0.1805
869.3851	0.1365
869.5473	0.9571
869.7094	-0
869.8715	-0
870.0336	-0.0316
870.1957	-0
870.3577	-0
870.5197	0.0475
870.6817	-1.0824
870.8437	-0.0655
871.0057	0.1458
871.1676	0.2348
871.3295	1.3671
871.4914	-1.7679
871.6533	0.1099
871.8151	-0
871.977	-0.1415
872.1388	-0
872.3006	0.9002
872.4623	-0
872.6241	-0
872.7858	0
872.9475	0.5984
873.1092	0.1943
873.2709	0.135
873.4325	-1.7602
873.5941	-0.5763
873.7557	-0
873.9173	0.9168
874.0789	0.3432
874.2404	-0
874.4019	0.0752
874.5634	-0
874.7249	0.9168
874.8863	-0.3203
875.0478	0.9587
875.2092	0.8288
875.3706	0.234
875.5319	0.1121
875.6933	0.4217
875.8546	-0.1703
876.0159	0.0662
876.1772	-0.5935
876.3385	-0
876.4997	-0
876.6609	-0
876.8221	-0
876.9833	0.6168
877.1445	0.3066
877.3056	-0.4677
877.4667	-0
877.6278	0.257
877.7889	-0
877.9499	-0
878.111	-0.4551
878.272	-0.2635
878.433	-0.1269
878.5939	-0.1482
878.7549	-0
878.9158	0.597
879.0767	-0
879.2376	-0.3082
879.3984	0.7432
879.5593	0.168
879.7201	-1.9294
879.8809	-0
880.0417	0.0219
880.2024	0.0482
880.3632	-0.8146
880.5239	0.1088
880.6846	-0.1302
880.8452	0.2358
881.0059	-0
881.1665	0.0394
881.3271	-0
881.4877	0.0764
881.6483	-0.7189
881.8088	-0
881.9693	-0.4938
882.1298	-0.4938
882.2903	-0.4938
