Data from D4ACN5uM420nmA_Absorbance_14-37-07-511.txt Node
Date: Fri Feb 21 14:37:07 GMT 2025
User: LASERRRRR
Spectrometer: FLMT03099
Trigger mode: 0
Integration Time (sec): 1.500000E-2
Scans to average: 1
Electric dark correction enabled: true
Nonlinearity correction enabled: false
Boxcar width: 0
XAxis mode: Wavelengths
Number of Pixels in Spectrum: 3648
>>>>>Begin Spectral Data<<<<<
179.3399	-0.9119
179.5586	-0.9119
179.7771	-0.9119
179.9957	-0.1765
180.2143	-0
180.4329	2.5172
180.6514	-0
180.8699	-0
181.0885	-0
181.307	0.4793
181.5255	0.7538
181.744	-0
181.9625	2.8228
182.181	0.1034
182.3994	-0.7229
182.6179	-0
182.8363	-0
183.0547	-0.0961
183.2732	0.3284
183.4916	0.4549
183.71	0.1136
183.9284	0.2765
184.1467	0.3882
184.3651	0.2081
184.5835	0.1641
184.8018	0.0504
185.0201	0.1991
185.2385	0.4472
185.4568	0.1768
185.6751	0.1984
185.8934	0.6848
186.1117	0.0594
186.3299	0.3929
186.5482	0.2229
186.7664	0.5394
186.9847	0.1656
187.2029	0.3684
187.4211	0.1805
187.6393	0.2667
187.8575	0.2543
188.0757	0.6812
188.2939	0.4962
188.512	0.2329
188.7302	0.139
188.9483	0.3133
189.1665	0.8312
189.3846	0.7914
189.6027	0.1959
189.8208	0.1839
190.0389	0.3628
190.257	0.1832
190.475	0.2007
190.6931	0.1909
190.9111	0.2677
191.1292	0.0832
191.3472	0.3028
191.5652	0.4231
191.7832	0.1425
192.0012	0.159
192.2192	0.333
192.4371	0.1174
192.6551	0.3331
192.873	0.1424
193.091	0.1894
193.3089	0.1598
193.5268	0.2177
193.7447	0.2407
193.9626	0.1516
194.1805	0.1829
194.3984	0.1933
194.6162	0.2091
194.8341	0.3411
195.0519	0.2344
195.2697	0.3304
195.4875	0.2837
195.7054	0.306
195.9231	0.2201
196.1409	0.33
196.3587	0.3008
196.5765	0.3742
196.7942	0.3315
197.012	0.3696
197.2297	0.3491
197.4474	0.4363
197.6651	0.233
197.8828	0.3213
198.1005	0.4466
198.3182	0.4322
198.5358	0.3828
198.7535	0.3643
198.9711	0.4133
199.1888	0.3233
199.4064	0.3961
199.624	0.3584
199.8416	0.3776
200.0592	0.3734
200.2767	0.3682
200.4943	0.4328
200.7119	0.4183
200.9294	0.3977
201.1469	0.3929
201.3645	0.4695
201.582	0.3775
201.7995	0.4625
202.017	0.4355
202.2344	0.4126
202.4519	0.4096
202.6694	0.4032
202.8868	0.393
203.1042	0.3891
203.3217	0.408
203.5391	0.3818
203.7565	0.3893
203.9739	0.4191
204.1913	0.359
204.4086	0.3806
204.626	0.3746
204.8433	0.4106
205.0607	0.3693
205.278	0.3562
205.4953	0.3371
205.7126	0.3433
205.9299	0.32
206.1472	0.3537
206.3644	0.3258
206.5817	0.3194
206.7989	0.3384
207.0162	0.2969
207.2334	0.3514
207.4506	0.3286
207.6678	0.3235
207.885	0.302
208.1022	0.3322
208.3194	0.3016
208.5365	0.3103
208.7537	0.2773
208.9708	0.3006
209.1879	0.3077
209.405	0.2848
209.6222	0.313
209.8392	0.3184
210.0563	0.2757
210.2734	0.2786
210.4905	0.2797
210.7075	0.2927
210.9245	0.2519
211.1416	0.2729
211.3586	0.2661
211.5756	0.2611
211.7926	0.2719
212.0096	0.286
212.2265	0.2484
212.4435	0.2625
212.6604	0.2706
212.8774	0.2501
213.0943	0.2765
213.3112	0.2608
213.5281	0.2636
213.745	0.2401
213.9619	0.2464
214.1788	0.2673
214.3956	0.2567
214.6125	0.2583
214.8293	0.2642
215.0461	0.2618
215.2629	0.2506
215.4798	0.248
215.6965	0.241
215.9133	0.24
216.1301	0.2577
216.3469	0.2598
216.5636	0.2457
216.7803	0.2405
216.9971	0.2521
217.2138	0.2619
217.4305	0.2384
217.6472	0.2406
217.8639	0.2622
218.0805	0.2645
218.2972	0.2437
218.5138	0.2548
218.7305	0.2533
218.9471	0.2505
219.1637	0.2755
219.3803	0.2748
219.5969	0.2474
219.8135	0.2707
220.0301	0.2613
220.2466	0.253
220.4632	0.2581
220.6797	0.2653
220.8962	0.2662
221.1127	0.2671
221.3292	0.281
221.5457	0.2828
221.7622	0.2585
221.9787	0.2805
222.1951	0.2759
222.4116	0.278
222.628	0.2826
222.8444	0.2887
223.0608	0.2919
223.2772	0.2879
223.4936	0.2828
223.71	0.2811
223.9264	0.2857
224.1427	0.291
224.3591	0.2992
224.5754	0.2933
224.7917	0.2855
225.008	0.3044
225.2243	0.2974
225.4406	0.3075
225.6569	0.309
225.8732	0.3064
226.0894	0.303
226.3057	0.3073
226.5219	0.3219
226.7381	0.3278
226.9543	0.3169
227.1705	0.3053
227.3867	0.3129
227.6029	0.3309
227.8191	0.3441
228.0352	0.3391
228.2513	0.3612
228.4675	0.3462
228.6836	0.3449
228.8997	0.3526
229.1158	0.3578
229.3319	0.3668
229.548	0.3584
229.764	0.3599
229.9801	0.3707
230.1961	0.3752
230.4121	0.3644
230.6282	0.388
230.8442	0.3829
231.0602	0.3884
231.2761	0.394
231.4921	0.3995
231.7081	0.3935
231.924	0.3933
232.14	0.4022
232.3559	0.4035
232.5718	0.4259
232.7877	0.3999
233.0036	0.4082
233.2195	0.4091
233.4353	0.4151
233.6512	0.4146
233.867	0.4367
234.0829	0.4289
234.2987	0.429
234.5145	0.4343
234.7303	0.4344
234.9461	0.4393
235.1619	0.4488
235.3776	0.4432
235.5934	0.4412
235.8091	0.4441
236.0249	0.4493
236.2406	0.443
236.4563	0.4465
236.672	0.4462
236.8877	0.4545
237.1034	0.4525
237.319	0.4496
237.5347	0.4551
237.7503	0.4513
237.966	0.4711
238.1816	0.4527
238.3972	0.4591
238.6128	0.4671
238.8284	0.4634
239.0439	0.4624
239.2595	0.4581
239.475	0.4751
239.6906	0.4617
239.9061	0.4706
240.1216	0.4657
240.3371	0.4685
240.5526	0.4622
240.7681	0.4671
240.9836	0.4575
241.199	0.4529
241.4145	0.4677
241.6299	0.4527
241.8453	0.436
242.0607	0.4372
242.2761	0.441
242.4915	0.4349
242.7069	0.4179
242.9223	0.4174
243.1376	0.4069
243.353	0.4077
243.5683	0.3957
243.7836	0.3947
243.9989	0.38
244.2142	0.3782
244.4295	0.3748
244.6448	0.3598
244.86	0.3549
245.0753	0.3471
245.2905	0.3488
245.5057	0.335
245.721	0.3357
245.9362	0.3335
246.1514	0.3226
246.3665	0.32
246.5817	0.3087
246.7969	0.3022
247.012	0.2943
247.2271	0.2989
247.4423	0.2889
247.6574	0.2812
247.8725	0.2736
248.0876	0.2767
248.3026	0.2683
248.5177	0.2615
248.7328	0.2554
248.9478	0.2568
249.1628	0.2518
249.3779	0.2439
249.5929	0.239
249.8079	0.2415
250.0228	0.2416
250.2378	0.2328
250.4528	0.2321
250.6677	0.224
250.8827	0.2214
251.0976	0.2183
251.3125	0.2193
251.5274	0.214
251.7423	0.2157
251.9572	0.2146
252.172	0.2081
252.3869	0.2109
252.6017	0.209
252.8166	0.2067
253.0314	0.203
253.2462	0.1997
253.461	0.2046
253.6758	0.1985
253.8906	0.1993
254.1053	0.2027
254.3201	0.2
254.5348	0.189
254.7496	0.1817
254.9643	0.1936
255.179	0.1896
255.3937	0.1962
255.6083	0.1994
255.823	0.1927
256.0377	0.1863
256.2523	0.18
256.467	0.1978
256.6816	0.184
256.8962	0.1894
257.1108	0.1906
257.3254	0.1838
257.54	0.1856
257.7545	0.1911
257.9691	0.1845
258.1836	0.1788
258.3981	0.1837
258.6127	0.1781
258.8272	0.1881
259.0417	0.1769
259.2561	0.18
259.4706	0.178
259.6851	0.1828
259.8995	0.1801
260.114	0.1821
260.3284	0.1765
260.5428	0.1857
260.7572	0.1814
260.9716	0.1867
261.186	0.1798
261.4003	0.1783
261.6147	0.1783
261.829	0.1796
262.0433	0.1855
262.2577	0.1816
262.472	0.1809
262.6863	0.1896
262.9005	0.1813
263.1148	0.1821
263.3291	0.1815
263.5433	0.1857
263.7576	0.1876
263.9718	0.1834
264.186	0.1843
264.4002	0.185
264.6144	0.1908
264.8286	0.1828
265.0427	0.1886
265.2569	0.183
265.471	0.1868
265.6851	0.1834
265.8993	0.1817
266.1134	0.1827
266.3275	0.1867
266.5415	0.184
266.7556	0.1854
266.9697	0.1862
267.1837	0.1817
267.3978	0.1876
267.6118	0.1786
267.8258	0.1903
268.0398	0.1927
268.2538	0.1902
268.4677	0.1807
268.6817	0.1853
268.8957	0.1744
269.1096	0.1777
269.3235	0.1772
269.5374	0.1844
269.7514	0.1811
269.9652	0.1756
270.1791	0.1784
270.393	0.1778
270.6068	0.1797
270.8207	0.1768
271.0345	0.1809
271.2483	0.1744
271.4622	0.1804
271.676	0.1772
271.8897	0.1793
272.1035	0.1788
272.3173	0.1756
272.531	0.1805
272.7448	0.1719
272.9585	0.1697
273.1722	0.1714
273.3859	0.1705
273.5996	0.1781
273.8133	0.1838
274.0269	0.177
274.2406	0.1821
274.4542	0.1803
274.6679	0.1798
274.8815	0.1841
275.0951	0.1836
275.3087	0.1848
275.5223	0.1793
275.7358	0.1856
275.9494	0.1865
276.1629	0.185
276.3765	0.1795
276.59	0.1777
276.8035	0.1778
277.017	0.1859
277.2305	0.1821
277.444	0.1868
277.6574	0.1857
277.8709	0.1873
278.0843	0.1902
278.2978	0.1859
278.5112	0.1881
278.7246	0.1843
278.938	0.1868
279.1513	0.1912
279.3647	0.1827
279.5781	0.1849
279.7914	0.1859
280.0047	0.1904
280.2181	0.183
280.4314	0.1868
280.6447	0.1906
280.8579	0.1809
281.0712	0.1835
281.2845	0.189
281.4977	0.1856
281.711	0.1871
281.9242	0.1855
282.1374	0.1912
282.3506	0.1887
282.5638	0.1843
282.7769	0.1827
282.9901	0.186
283.2033	0.1863
283.4164	0.1871
283.6295	0.1835
283.8426	0.1862
284.0557	0.1917
284.2688	0.1923
284.4819	0.1877
284.695	0.1994
284.908	0.1873
285.1211	0.1891
285.3341	0.1888
285.5471	0.1879
285.7601	0.1899
285.9731	0.1896
286.1861	0.1931
286.3991	0.1965
286.612	0.1979
286.825	0.1957
287.0379	0.1955
287.2508	0.1918
287.4637	0.195
287.6766	0.1915
287.8895	0.193
288.1024	0.1939
288.3152	0.1936
288.5281	0.19
288.7409	0.1955
288.9538	0.1978
289.1666	0.1895
289.3794	0.1946
289.5922	0.1854
289.8049	0.2013
290.0177	0.1997
290.2304	0.1924
290.4432	0.195
290.6559	0.2008
290.8686	0.199
291.0813	0.1923
291.294	0.1976
291.5067	0.194
291.7194	0.1984
291.932	0.1905
292.1447	0.1944
292.3573	0.199
292.5699	0.1991
292.7825	0.1921
292.9951	0.1939
293.2077	0.1995
293.4203	0.2029
293.6328	0.1969
293.8454	0.1962
294.0579	0.1981
294.2704	0.2002
294.4829	0.1965
294.6954	0.1968
294.9079	0.1944
295.1204	0.1976
295.3328	0.2019
295.5453	0.2008
295.7577	0.2027
295.9701	0.2003
296.1825	0.2002
296.3949	0.197
296.6073	0.1967
296.8197	0.1965
297.0321	0.2005
297.2444	0.1942
297.4567	0.2026
297.6691	0.1976
297.8814	0.2021
298.0937	0.1961
298.306	0.1938
298.5182	0.2047
298.7305	0.1979
298.9428	0.1988
299.155	0.1956
299.3672	0.1916
299.5794	0.2008
299.7916	0.1962
300.0038	0.198
300.216	0.1941
300.4282	0.1926
300.6403	0.1963
300.8525	0.1975
301.0646	0.2043
301.2767	0.1912
301.4888	0.2046
301.7009	0.2005
301.913	0.1984
302.125	0.1972
302.3371	0.2002
302.5491	0.2009
302.7612	0.2022
302.9732	0.2009
303.1852	0.201
303.3972	0.1942
303.6092	0.1952
303.8211	0.1937
304.0331	0.1912
304.245	0.1929
304.457	0.1911
304.6689	0.1932
304.8808	0.194
305.0927	0.1918
305.3046	0.1909
305.5164	0.1888
305.7283	0.1905
305.9401	0.1824
306.152	0.1819
306.3638	0.1889
306.5756	0.1887
306.7874	0.1806
306.9992	0.1813
307.2109	0.1816
307.4227	0.179
307.6344	0.1788
307.8462	0.1716
308.0579	0.1751
308.2696	0.1715
308.4813	0.1727
308.693	0.1743
308.9046	0.1717
309.1163	0.1688
309.328	0.1652
309.5396	0.1591
309.7512	0.1596
309.9628	0.1613
310.1744	0.1605
310.386	0.1524
310.5976	0.1547
310.8091	0.1589
311.0207	0.1511
311.2322	0.1547
311.4437	0.1507
311.6552	0.1487
311.8667	0.1501
312.0782	0.1467
312.2897	0.1474
312.5012	0.1458
312.7126	0.1456
312.924	0.1438
313.1355	0.1404
313.3469	0.1403
313.5583	0.1389
313.7696	0.1355
313.981	0.1419
314.1924	0.1402
314.4037	0.1407
314.6151	0.1389
314.8264	0.1425
315.0377	0.1308
315.249	0.1431
315.4603	0.131
315.6716	0.138
315.8828	0.129
316.0941	0.1349
316.3053	0.1315
316.5165	0.1386
316.7277	0.1233
316.9389	0.129
317.1501	0.1366
317.3613	0.1305
317.5724	0.1323
317.7836	0.1251
317.9947	0.1302
318.2058	0.133
318.417	0.1321
318.6281	0.1287
318.8391	0.1324
319.0502	0.1287
319.2613	0.1246
319.4723	0.1293
319.6834	0.1332
319.8944	0.1273
320.1054	0.1311
320.3164	0.1268
320.5274	0.1278
320.7383	0.1247
320.9493	0.1292
321.1602	0.1267
321.3712	0.1286
321.5821	0.1243
321.793	0.1317
322.0039	0.1341
322.2148	0.1292
322.4257	0.1287
322.6365	0.1323
322.8474	0.1288
323.0582	0.1301
323.269	0.1322
323.4798	0.13
323.6906	0.1275
323.9014	0.1292
324.1122	0.1281
324.3229	0.1345
324.5337	0.1315
324.7444	0.1318
324.9551	0.1325
325.1658	0.1295
325.3765	0.1389
325.5872	0.1285
325.7979	0.1331
326.0085	0.1329
326.2192	0.1308
326.4298	0.1363
326.6404	0.1392
326.851	0.1311
327.0616	0.1387
327.2722	0.1366
327.4828	0.1331
327.6933	0.1375
327.9039	0.1299
328.1144	0.1391
328.3249	0.1368
328.5354	0.1395
328.7459	0.1389
328.9564	0.1394
329.1669	0.1399
329.3773	0.1433
329.5878	0.1321
329.7982	0.1402
330.0086	0.1446
330.219	0.1411
330.4294	0.1412
330.6398	0.1412
330.8502	0.1456
331.0605	0.1388
331.2708	0.1398
331.4812	0.1391
331.6915	0.1417
331.9018	0.1327
332.1121	0.1417
332.3224	0.1375
332.5326	0.1378
332.7429	0.139
332.9531	0.1466
333.1633	0.1418
333.3735	0.1375
333.5837	0.1424
333.7939	0.1477
334.0041	0.1464
334.2143	0.1443
334.4244	0.1542
334.6346	0.1405
334.8447	0.1398
335.0548	0.151
335.2649	0.1414
335.475	0.1422
335.685	0.1439
335.8951	0.1426
336.1051	0.1432
336.3152	0.1486
336.5252	0.1465
336.7352	0.1453
336.9452	0.15
337.1552	0.1456
337.3652	0.1428
337.5751	0.1485
337.7851	0.1503
337.995	0.1467
338.2049	0.1459
338.4148	0.1505
338.6247	0.1505
338.8346	0.1473
339.0445	0.1468
339.2543	0.1489
339.4642	0.1458
339.674	0.1498
339.8838	0.151
340.0936	0.1515
340.3034	0.149
340.5132	0.1452
340.7229	0.1468
340.9327	0.161
341.1424	0.1505
341.3522	0.1438
341.5619	0.1514
341.7716	0.1598
341.9813	0.1553
342.1909	0.1536
342.4006	0.1601
342.6102	0.1578
342.8199	0.1565
343.0295	0.1473
343.2391	0.1585
343.4487	0.1643
343.6583	0.1621
343.8679	0.1585
344.0774	0.158
344.287	0.1613
344.4965	0.1605
344.706	0.169
344.9155	0.1545
345.125	0.1706
345.3345	0.1692
345.544	0.1643
345.7534	0.1709
345.9629	0.1674
346.1723	0.166
346.3817	0.1676
346.5911	0.1729
346.8005	0.1748
347.0099	0.1714
347.2193	0.1749
347.4286	0.1695
347.638	0.1707
347.8473	0.1738
348.0566	0.1707
348.2659	0.1735
348.4752	0.1728
348.6845	0.1686
348.8937	0.1728
349.103	0.1733
349.3122	0.1696
349.5214	0.1759
349.7306	0.1842
349.9398	0.1778
350.149	0.1757
350.3582	0.1854
350.5674	0.18
350.7765	0.187
350.9856	0.1756
351.1948	0.1833
351.4039	0.1874
351.613	0.179
351.822	0.1927
352.0311	0.1843
352.2402	0.1872
352.4492	0.1917
352.6582	0.1908
352.8672	0.1859
353.0762	0.1845
353.2852	0.1894
353.4942	0.1978
353.7032	0.1848
353.9121	0.1878
354.1211	0.1907
354.33	0.1951
354.5389	0.1904
354.7478	0.1886
354.9567	0.1923
355.1655	0.1912
355.3744	0.1957
355.5833	0.1917
355.7921	0.1995
356.0009	0.19
356.2097	0.191
356.4185	0.1911
356.6273	0.195
356.8361	0.1977
357.0448	0.1985
357.2536	0.2013
357.4623	0.2038
357.671	0.1965
357.8797	0.2024
358.0884	0.2011
358.2971	0.1973
358.5057	0.2061
358.7144	0.1991
358.923	0.2025
359.1316	0.2079
359.3402	0.2031
359.5488	0.1979
359.7574	0.2115
359.966	0.2074
360.1746	0.205
360.3831	0.2086
360.5916	0.2182
360.8002	0.2227
361.0087	0.204
361.2172	0.2063
361.4256	0.2159
361.6341	0.2158
361.8426	0.2155
362.051	0.211
362.2594	0.2195
362.4678	0.2245
362.6762	0.2181
362.8846	0.2277
363.093	0.2242
363.3014	0.2266
363.5097	0.2246
363.718	0.2266
363.9264	0.2239
364.1347	0.2237
364.343	0.225
364.5513	0.2287
364.7595	0.2334
364.9678	0.2269
365.176	0.2268
365.3842	0.2417
365.5925	0.2319
365.8007	0.2385
366.0089	0.239
366.217	0.2387
366.4252	0.2304
366.6333	0.245
366.8415	0.241
367.0496	0.249
367.2577	0.2438
367.4658	0.2394
367.6739	0.2356
367.882	0.2403
368.09	0.2412
368.2981	0.2438
368.5061	0.2473
368.7141	0.2461
368.9221	0.2551
369.1301	0.2495
369.3381	0.258
369.5461	0.2554
369.754	0.251
369.962	0.2537
370.1699	0.2629
370.3778	0.258
370.5857	0.256
370.7936	0.2545
371.0015	0.2634
371.2093	0.2698
371.4172	0.2524
371.625	0.2591
371.8328	0.25
372.0406	0.2709
372.2484	0.2645
372.4562	0.2692
372.664	0.2714
372.8717	0.2638
373.0795	0.2686
373.2872	0.2709
373.4949	0.2679
373.7026	0.2704
373.9103	0.2626
374.118	0.2643
374.3256	0.2741
374.5333	0.2743
374.7409	0.2751
374.9485	0.2718
375.1561	0.2757
375.3637	0.2674
375.5713	0.2796
375.7789	0.2681
375.9864	0.2802
376.194	0.2847
376.4015	0.2731
376.609	0.2839
376.8165	0.2866
377.024	0.2778
377.2315	0.2896
377.4389	0.2753
377.6464	0.2889
377.8538	0.2796
378.0612	0.2928
378.2686	0.2885
378.476	0.2956
378.6834	0.2912
378.8908	0.292
379.0981	0.2912
379.3055	0.2913
379.5128	0.2867
379.7201	0.2962
379.9274	0.2851
380.1347	0.2976
380.342	0.3019
380.5492	0.2932
380.7565	0.2883
380.9637	0.3008
381.1709	0.3054
381.3781	0.3047
381.5853	0.2993
381.7925	0.299
381.9997	0.3017
382.2068	0.3042
382.4139	0.3073
382.6211	0.2985
382.8282	0.3127
383.0353	0.3124
383.2424	0.3094
383.4494	0.2965
383.6565	0.2996
383.8635	0.3007
384.0706	0.3107
384.2776	0.3117
384.4846	0.3074
384.6916	0.3031
384.8986	0.3066
385.1055	0.3181
385.3125	0.3074
385.5194	0.3067
385.7263	0.3037
385.9333	0.3127
386.1402	0.3134
386.347	0.3134
386.5539	0.3049
386.7608	0.3093
386.9676	0.308
387.1744	0.3005
387.3813	0.3077
387.5881	0.3057
387.7948	0.3053
388.0016	0.3201
388.2084	0.3143
388.4151	0.3035
388.6219	0.298
388.8286	0.3006
389.0353	0.3118
389.242	0.3137
389.4487	0.3037
389.6553	0.293
389.862	0.303
390.0686	0.3105
390.2753	0.2917
390.4819	0.2928
390.6885	0.3022
390.8951	0.3013
391.1016	0.295
391.3082	0.2996
391.5147	0.2921
391.7213	0.2918
391.9278	0.2928
392.1343	0.2882
392.3408	0.2889
392.5473	0.2892
392.7537	0.2832
392.9602	0.2876
393.1666	0.2871
393.373	0.2941
393.5794	0.2846
393.7858	0.2782
393.9922	0.2868
394.1986	0.2749
394.4049	0.2876
394.6113	0.2735
394.8176	0.2908
395.0239	0.2739
395.2302	0.2669
395.4365	0.2791
395.6428	0.2773
395.8491	0.2735
396.0553	0.2714
396.2615	0.2728
396.4678	0.2725
396.674	0.2727
396.8802	0.2651
397.0863	0.2686
397.2925	0.2726
397.4987	0.2695
397.7048	0.2733
397.9109	0.2613
398.117	0.2636
398.3231	0.2638
398.5292	0.2529
398.7353	0.2648
398.9413	0.2688
399.1474	0.2645
399.3534	0.2583
399.5594	0.2713
399.7654	0.257
399.9714	0.2603
400.1774	0.2614
400.3833	0.2693
400.5893	0.27
400.7952	0.2558
401.0011	0.2608
401.207	0.2624
401.4129	0.2604
401.6188	0.2599
401.8247	0.2634
402.0305	0.2562
402.2364	0.2664
402.4422	0.2604
402.648	0.2573
402.8538	0.2618
403.0596	0.2628
403.2654	0.2661
403.4711	0.2628
403.6768	0.2572
403.8826	0.2658
404.0883	0.2685
404.294	0.2641
404.4997	0.2658
404.7054	0.262
404.911	0.2659
405.1167	0.2615
405.3223	0.257
405.5279	0.2568
405.7335	0.2508
405.9391	0.2602
406.1447	0.2569
406.3502	0.2698
406.5558	0.2613
406.7613	0.2596
406.9668	0.2526
407.1724	0.2647
407.3778	0.2554
407.5833	0.2488
407.7888	0.2585
407.9942	0.2604
408.1997	0.2688
408.4051	0.2578
408.6105	0.2629
408.8159	0.2535
409.0213	0.266
409.2267	0.2665
409.432	0.2571
409.6374	0.2627
409.8427	0.269
410.048	0.2636
410.2533	0.2657
410.4586	0.2541
410.6639	0.2653
410.8691	0.2568
411.0744	0.2539
411.2796	0.2735
411.4848	0.2664
411.69	0.253
411.8952	0.2663
412.1004	0.2555
412.3056	0.2507
412.5107	0.2628
412.7158	0.2779
412.921	0.257
413.1261	0.262
413.3312	0.2636
413.5362	0.2721
413.7413	0.2599
413.9464	0.2496
414.1514	0.2551
414.3564	0.2647
414.5614	0.2487
414.7664	0.2475
414.9714	0.2472
415.1764	0.2576
415.3813	0.2505
415.5863	0.2633
415.7912	0.257
415.9961	0.2555
416.201	0.2598
416.4059	0.2606
416.6108	0.2499
416.8156	0.2513
417.0205	0.2513
417.2253	0.2549
417.4301	0.2523
417.6349	0.2451
417.8397	0.2507
418.0445	0.2585
418.2492	0.2402
418.454	0.2479
418.6587	0.2557
418.8634	0.258
419.0681	0.2526
419.2728	0.2464
419.4775	0.2604
419.6822	0.2499
419.8868	0.2515
420.0915	0.2421
420.2961	0.2341
420.5007	0.241
420.7053	0.2428
420.9099	0.2365
421.1144	0.2425
421.319	0.2301
421.5235	0.2279
421.728	0.242
421.9325	0.2341
422.137	0.2431
422.3415	0.2389
422.546	0.231
422.7504	0.2295
422.9549	0.2395
423.1593	0.2255
423.3637	0.2341
423.5681	0.2304
423.7725	0.2317
423.9769	0.2297
424.1812	0.2256
424.3856	0.2255
424.5899	0.2203
424.7942	0.2292
424.9985	0.2223
425.2028	0.2342
425.4071	0.2223
425.6113	0.2246
425.8156	0.2235
426.0198	0.2184
426.224	0.2215
426.4282	0.2162
426.6324	0.2139
426.8366	0.2103
427.0407	0.2161
427.2449	0.2117
427.449	0.218
427.6531	0.2313
427.8572	0.2198
428.0613	0.2152
428.2654	0.2169
428.4694	0.199
428.6735	0.1941
428.8775	0.1988
429.0815	0.2117
429.2855	0.2049
429.4895	0.1977
429.6935	0.1964
429.8975	0.1992
430.1014	0.1977
430.3053	0.1959
430.5093	0.1879
430.7132	0.1859
430.9171	0.1906
431.1209	0.1935
431.3248	0.1816
431.5286	0.1768
431.7325	0.1965
431.9363	0.1801
432.1401	0.1811
432.3439	0.1868
432.5477	0.1716
432.7514	0.1735
432.9552	0.1688
433.1589	0.1648
433.3627	0.178
433.5664	0.1691
433.7701	0.175
433.9737	0.171
434.1774	0.1669
434.3811	0.1589
434.5847	0.1658
434.7883	0.1612
434.9919	0.1675
435.1955	0.1552
435.3991	0.1491
435.6027	0.1493
435.8062	0.1733
436.0098	0.1477
436.2133	0.1438
436.4168	0.1456
436.6203	0.1494
436.8238	0.1479
437.0272	0.144
437.2307	0.1363
437.4341	0.146
437.6375	0.1383
437.841	0.1197
438.0443	0.1456
438.2477	0.1242
438.4511	0.1232
438.6545	0.1285
438.8578	0.131
439.0611	0.1295
439.2644	0.1238
439.4677	0.1249
439.671	0.1156
439.8743	0.1212
440.0775	0.1184
440.2808	0.1103
440.484	0.1106
440.6872	0.1026
440.8904	0.1018
441.0936	0.1168
441.2967	0.1019
441.4999	0.1117
441.703	0.103
441.9062	0.1112
442.1093	0.1123
442.3124	0.0998
442.5155	0.0962
442.7185	0.0884
442.9216	0.0977
443.1246	0.093
443.3276	0.0927
443.5307	0.0957
443.7337	0.091
443.9366	0.0857
444.1396	0.0825
444.3426	0.0933
444.5455	0.0837
444.7484	0.0751
444.9513	0.0893
445.1542	0.0812
445.3571	0.0781
445.56	0.0676
445.7628	0.0798
445.9657	0.0811
446.1685	0.0748
446.3713	0.081
446.5741	0.0815
446.7769	0.0738
446.9797	0.0692
447.1824	0.0731
447.3852	0.0545
447.5879	0.0667
447.7906	0.0543
447.9933	0.0657
448.196	0.0657
448.3986	0.0523
448.6013	0.0561
448.8039	0.0678
449.0066	0.0591
449.2092	0.0625
449.4118	0.0595
449.6143	0.0593
449.8169	0.0564
450.0195	0.0545
450.222	0.0572
450.4245	0.0638
450.627	0.056
450.8295	0.0483
451.032	0.0454
451.2345	0.0417
451.4369	0.0547
451.6394	0.0446
451.8418	0.0482
452.0442	0.0511
452.2466	0.0403
452.449	0.045
452.6513	0.0446
452.8537	0.0363
453.056	0.0437
453.2583	0.0354
453.4607	0.0281
453.663	0.0403
453.8652	0.0229
454.0675	0.04
454.2697	0.0344
454.472	0.0256
454.6742	0.0435
454.8764	0.0472
455.0786	0.0325
455.2808	0.0346
455.4829	0.0314
455.6851	0.0318
455.8872	0.0243
456.0893	0.0373
456.2915	0.0296
456.4935	0.0392
456.6956	0.0356
456.8977	0.0357
457.0997	0.0337
457.3018	0.0246
457.5038	0.0421
457.7058	0.0334
457.9078	0.028
458.1098	0.0317
458.3117	0.035
458.5137	0.0201
458.7156	0.0303
458.9175	0.0281
459.1194	0.0234
459.3213	0.026
459.5232	0.0273
459.725	0.0218
459.9269	0.0296
460.1287	0.0225
460.3305	0.0258
460.5323	0.0205
460.7341	0.0202
460.9359	0.0132
461.1376	0.0225
461.3394	0.0269
461.5411	0.0272
461.7428	0.0311
461.9445	0.0256
462.1462	0.0197
462.3479	0.023
462.5495	0.0284
462.7512	0.0322
462.9528	0.0198
463.1544	0.0233
463.356	0.0183
463.5576	0.029
463.7592	0.0143
463.9607	0.0222
464.1623	0.0189
464.3638	0.0172
464.5653	0.0243
464.7668	0.0297
464.9683	0.0198
465.1697	0.0196
465.3712	0.0094
465.5726	0.0133
465.7741	0.0292
465.9755	0.024
466.1769	0.0175
466.3782	0.0159
466.5796	0.0195
466.7809	0.0213
466.9823	0.0138
467.1836	0.0166
467.3849	0.022
467.5862	0.0147
467.7875	0.0157
467.9887	0.0201
468.19	0.0181
468.3912	0.0291
468.5924	0.0162
468.7936	0.0167
468.9948	0.0089
469.196	0.0072
469.3972	0.0045
469.5983	0.0161
469.7994	0.0203
470.0006	0.0115
470.2017	0.0151
470.4027	0.0274
470.6038	0.0162
470.8049	0.0147
471.0059	0.0201
471.2069	0.0182
471.408	0.01
471.6089	0.0113
471.8099	0.0168
472.0109	0.0188
472.2119	0.0221
472.4128	0.0069
472.6137	0.0143
472.8146	0.0155
473.0155	0.0209
473.2164	0.015
473.4173	0.013
473.6181	0.0127
473.819	0.0122
474.0198	0.0142
474.2206	0.0066
474.4214	0.0156
474.6222	-0.0033
474.8229	0.0083
475.0237	0.0193
475.2244	0.0179
475.4251	0.0122
475.6258	0.0109
475.8265	0.0199
476.0272	0.0107
476.2278	0.0171
476.4285	0.0143
476.6291	0.0105
476.8297	0.0155
477.0303	0.0092
477.2309	0.0176
477.4315	0.0177
477.632	0.0103
477.8326	0.0136
478.0331	0.0235
478.2336	0.0055
478.4341	0.0132
478.6346	0.0096
478.8351	0.0092
479.0355	0.022
479.236	0.0138
479.4364	0.0114
479.6368	0.0193
479.8372	0.0028
480.0376	0.0076
480.2379	0.0093
480.4383	0.0146
480.6386	0.0116
480.8389	0.0142
481.0392	0.0091
481.2395	0.0204
481.4398	0.0103
481.6401	0.0094
481.8403	0.0051
482.0405	0.0115
482.2408	0.016
482.441	0.0157
482.6411	0.0136
482.8413	0.0129
483.0415	0.0267
483.2416	0.0112
483.4417	0.0206
483.6419	0.0061
483.8419	0.0114
484.042	0.0137
484.2421	0.0034
484.4422	0.0064
484.6422	0.0084
484.8422	0.0097
485.0422	0.009
485.2422	0.0082
485.4422	0.0087
485.6422	0.0094
485.8421	0.0085
486.042	0.017
486.242	0.0043
486.4419	0.0093
486.6417	0.0036
486.8416	0.0118
487.0415	0.0052
487.2413	0.0077
487.4411	0.0092
487.641	0.0114
487.8408	0.0107
488.0405	0.0069
488.2403	0.001
488.4401	0.0068
488.6398	0.0211
488.8395	0.0149
489.0392	0.0146
489.2389	0.0116
489.4386	0.0013
489.6383	0.0153
489.8379	0.0089
490.0376	0.0178
490.2372	0.0142
490.4368	0.0077
490.6364	0.0085
490.836	0.0035
491.0355	0.0066
491.2351	-0.0016
491.4346	0.0208
491.6341	0.0046
491.8336	0.012
492.0331	0.0093
492.2326	0.0081
492.432	0.0104
492.6315	0.0187
492.8309	0.0066
493.0303	0.0064
493.2297	0.0139
493.4291	0.0085
493.6284	0.01
493.8278	0.0038
494.0271	0.0092
494.2264	0.0082
494.4257	0.0228
494.625	0.0118
494.8243	0.0124
495.0236	0.0113
495.2228	0.0212
495.422	0.0135
495.6213	0.0056
495.8205	0.0115
496.0196	0.0105
496.2188	0.0073
496.418	0.0029
496.6171	0.0067
496.8162	0.0074
497.0153	0.0126
497.2144	0.0056
497.4135	0.0085
497.6126	0.0159
497.8116	0.0079
498.0107	0.0137
498.2097	0.0152
498.4087	0.0098
498.6077	0.0059
498.8067	0.0149
499.0056	0.0063
499.2046	0.0163
499.4035	0.0059
499.6024	0.0031
499.8013	0.0169
500.0002	0.0073
500.199	0.0177
500.3979	0.004
500.5967	0.0074
500.7956	0.0138
500.9944	0.0094
501.1932	0.0191
501.3919	0.0211
501.5907	0.0133
501.7895	0.002
501.9882	0.0101
502.1869	0.0214
502.3856	0.0118
502.5843	0.0086
502.783	0.0111
502.9816	0.0155
503.1803	0.0129
503.3789	0.0095
503.5775	0.0132
503.7761	0.0086
503.9747	0.0043
504.1732	0.008
504.3718	0.0226
504.5703	0.002
504.7689	0.0002
504.9674	0.009
505.1658	0.0029
505.3643	0.0117
505.5628	0.0186
505.7612	0.0102
505.9597	0.0051
506.1581	0.0106
506.3565	0.0126
506.5549	0.0147
506.7532	0.0051
506.9516	0.0072
507.1499	0.0078
507.3482	0.0099
507.5465	0.0208
507.7448	0.0091
507.9431	0.0151
508.1414	0.0085
508.3396	0.0128
508.5379	0.0054
508.7361	0.0083
508.9343	0.0133
509.1325	0.02
509.3306	0.0097
509.5288	0.0038
509.7269	0.0112
509.9251	0.0206
510.1232	0.0058
510.3213	0.0174
510.5193	0.0078
510.7174	0.0155
510.9154	0.0175
511.1135	0.0007
511.3115	0.0122
511.5095	0.0052
511.7075	0.0106
511.9055	0.0137
512.1034	0.0104
512.3014	0.0081
512.4993	0.0159
512.6972	0.0086
512.8951	0.0154
513.093	0.0028
513.2908	0.0218
513.4887	0.0182
513.6865	0.009
513.8844	0.0087
514.0822	0.0075
514.2799	-0.0018
514.4777	-0.0069
514.6755	0.0137
514.8732	0.0132
515.0709	0.014
515.2687	0.0101
515.4664	0.0122
515.664	0.0088
515.8617	0.0105
516.0594	0.014
516.257	0.0148
516.4546	0.0281
516.6522	0.0122
516.8498	0.012
517.0474	0.0103
517.2449	0.0129
517.4425	0.0144
517.64	0.0163
517.8375	0.0123
518.035	0.0142
518.2325	0.0042
518.43	0.0077
518.6274	0.0135
518.8249	0.003
519.0223	0.0217
519.2197	0.0071
519.4171	0.0065
519.6145	0.0165
519.8118	-0.0018
520.0092	0.0188
520.2065	0.0191
520.4038	0.0064
520.6011	0.0185
520.7984	0.0233
520.9956	0.0202
521.1929	0.0142
521.3901	0.0152
521.5874	0.0151
521.7846	0.0101
521.9818	0.0087
522.1789	0.0035
522.3761	0.0211
522.5732	0.016
522.7704	0.0154
522.9675	0.0048
523.1646	0.0031
523.3617	0.0187
523.5587	0.0064
523.7558	0.0081
523.9528	0.0141
524.1498	0.011
524.3468	0.0097
524.5438	0.0101
524.7408	0.0076
524.9378	0.0139
525.1347	0.0197
525.3316	0.0051
525.5285	0.0078
525.7254	0.0243
525.9223	0.0197
526.1192	0.0121
526.316	0.0165
526.5129	0.0108
526.7097	0.0105
526.9065	0.0108
527.1033	0.0074
527.3	0.0088
527.4968	0.0137
527.6935	0.0139
527.8903	0.0078
528.087	0.009
528.2837	0.0207
528.4804	0.0014
528.677	0.0113
528.8737	0.0088
529.0703	0.0086
529.2669	0.0107
529.4635	0.0077
529.6601	0.0031
529.8567	0.0026
530.0532	0.0138
530.2498	-0.0011
530.4463	0.0083
530.6428	0.0098
530.8393	0.0194
531.0358	0.007
531.2322	0.0054
531.4287	0.0031
531.6251	0.0097
531.8215	0.0077
532.0179	0.0197
532.2143	0.0067
532.4107	0.0167
532.607	0.0098
532.8034	0.0032
532.9997	0.0046
533.196	0.0087
533.3923	0.013
533.5886	0.0146
533.7848	0.0081
533.9811	0.0085
534.1773	0.0032
534.3735	0.0107
534.5697	0.0066
534.7659	0.0171
534.9621	0.0192
535.1582	0.0137
535.3544	0.0161
535.5505	0.0146
535.7466	0.0127
535.9427	0.012
536.1387	0.0096
536.3348	0.0163
536.5308	0.011
536.7269	0.0002
536.9229	0.0019
537.1189	0.0222
537.3148	0.0187
537.5108	0.015
537.7068	0.0168
537.9027	0.0015
538.0986	0.0214
538.2945	0.0082
538.4904	0.0001
538.6863	0.013
538.8821	0.0131
539.078	0.0123
539.2738	0.0128
539.4696	0.0092
539.6654	0.0047
539.8611	0.0107
540.0569	0.0044
540.2526	0.0189
540.4484	0.0024
540.6441	0.0138
540.8398	0.0268
541.0355	0.0048
541.2311	0.0093
541.4268	0.0157
541.6224	0.0226
541.818	0.0136
542.0136	0.0094
542.2092	0.0183
542.4048	0.0134
542.6003	0.0065
542.7959	0.0132
542.9914	0.0122
543.1869	0.0125
543.3824	0.0094
543.5779	0.0106
543.7734	0.0227
543.9688	0.0131
544.1642	0.0106
544.3596	0.0214
544.555	0.0061
544.7504	0.02
544.9458	0.0031
545.1411	0.0074
545.3365	0.0144
545.5318	0.0139
545.7271	0.0072
545.9224	0.0183
546.1177	0.0209
546.3129	0.0129
546.5081	0.0136
546.7034	0.0159
546.8986	0.0105
547.0938	0.012
547.289	0.0264
547.4841	0.0165
547.6793	0.0108
547.8744	0.0183
548.0695	0.0022
548.2646	0.0105
548.4597	0.0085
548.6548	0.0219
548.8498	0.0116
549.0448	0.0088
549.2399	0.0102
549.4349	0.0092
549.6298	0.0202
549.8248	0.0097
550.0198	0.0172
550.2147	0.013
550.4096	-0.0071
550.6045	0.0037
550.7994	0.0203
550.9943	0.0116
551.1892	-0.0033
551.384	0.0193
551.5788	0.0228
551.7737	0.0152
551.9685	0.0127
552.1632	0.0059
552.358	0.0087
552.5528	0.0124
552.7475	0.0087
552.9422	0.0201
553.1369	0.0128
553.3316	0.0173
553.5263	0.0181
553.7209	0.0097
553.9156	0.0045
554.1102	0.0054
554.3048	0.0018
554.4994	0.0157
554.694	0.0174
554.8885	0.009
555.0831	0.0129
555.2776	0.0199
555.4721	0.0056
555.6666	0.0039
555.8611	0.0147
556.0555	0.0063
556.25	0.0129
556.4444	0.0071
556.6388	0.007
556.8332	0.0098
557.0276	0.0112
557.222	0.0088
557.4163	0.0108
557.6107	0.0081
557.805	0.0026
557.9993	0.0053
558.1936	0.0054
558.3879	0.0161
558.5821	0.0015
558.7764	0.0117
558.9706	0.004
559.1648	0.0058
559.359	-0.0051
559.5532	0.0004
559.7473	0.0035
559.9415	0.0084
560.1356	0.0218
560.3297	0.0115
560.5238	0.0113
560.7179	0.0114
560.9119	0.0108
561.106	0.0031
561.3	0.0173
561.494	0.0031
561.688	0.004
561.882	0.0107
562.076	0.0089
562.2699	0.0235
562.4639	0.0233
562.6578	0.0177
562.8517	0.0123
563.0456	0.0145
563.2395	0.0136
563.4333	0.0083
563.6272	0.0143
563.821	0.0097
564.0148	0.007
564.2086	0.0113
564.4024	0.0154
564.5961	0.0154
564.7899	0.0213
564.9836	0.011
565.1773	0.0087
565.371	0.0102
565.5647	0.0147
565.7584	0.0186
565.952	0.0043
566.1456	0.0009
566.3393	0.0182
566.5329	0.0073
566.7264	0.0137
566.92	0.0157
567.1136	0.0073
567.3071	0.0016
567.5006	0.0086
567.6941	0.0119
567.8876	0.016
568.0811	0.0216
568.2745	0.0033
568.468	0.0058
568.6614	0.0133
568.8548	0.0094
569.0482	0.0184
569.2416	0.0079
569.4349	0.0106
569.6283	0.0094
569.8216	0.0149
570.0149	0.006
570.2082	0.018
570.4015	0.0076
570.5947	0.0074
570.788	0.0125
570.9812	0.0076
571.1744	0.0074
571.3676	0.0102
571.5608	0.0095
571.754	0.0162
571.9471	0.0157
572.1402	0.0112
572.3333	0.0154
572.5264	0.0074
572.7195	0.0057
572.9126	0.0081
573.1057	0.0118
573.2987	0.0068
573.4917	0.0037
573.6847	0.0096
573.8777	0.0091
574.0707	0.0124
574.2636	0.0094
574.4566	0.0075
574.6495	0.0054
574.8424	0.0094
575.0353	0.0106
575.2281	0.0155
575.421	0.0062
575.6138	0.0045
575.8067	0.0102
575.9995	0.0103
576.1923	0.0093
576.385	0.0076
576.5778	0.0107
576.7706	0.0088
576.9633	0.0111
577.156	0.0026
577.3487	0.0051
577.5414	0.0056
577.734	0.0074
577.9267	0.0118
578.1193	0.0114
578.3119	0.0079
578.5045	0.0119
578.6971	0.0059
578.8897	0.0085
579.0822	0.0123
579.2747	0.01
579.4673	0.0068
579.6598	0.0079
579.8522	0.0081
580.0447	0.0055
580.2372	0.0138
580.4296	0.0118
580.622	0.0065
580.8144	0.0087
581.0068	0.0111
581.1992	0.0092
581.3915	0.0008
581.5839	0.0111
581.7762	0.0076
581.9685	0.0088
582.1608	0.0091
582.353	0.0123
582.5453	0.0098
582.7375	0.0148
582.9298	0.0039
583.122	0.0092
583.3142	0.0134
583.5063	0.0101
583.6985	0.0051
583.8906	0.0024
584.0827	0.0117
584.2749	0.0014
584.4669	0.0056
584.659	0.0138
584.8511	0.0092
585.0431	0.0099
585.2352	0.0125
585.4272	0.012
585.6192	0.0131
585.8111	0.0081
586.0031	0.0049
586.195	0.0076
586.387	0.0072
586.5789	0.008
586.7708	0.0139
586.9627	0.0098
587.1545	0.0095
587.3464	0.0117
587.5382	0.0071
587.73	0.0127
587.9218	0.0076
588.1136	0.0074
588.3053	0.0113
588.4971	0.0095
588.6888	0.0088
588.8805	0.0064
589.0722	0.0155
589.2639	0.0132
589.4556	0.0087
589.6472	0.0118
589.8389	0.0144
590.0305	0.0058
590.2221	0.0111
590.4137	0.0111
590.6052	0.004
590.7968	0.0107
590.9883	0.0086
591.1798	0.0128
591.3713	0.0087
591.5628	0.0087
591.7543	0.0072
591.9458	0.0028
592.1372	0.0108
592.3286	0.006
592.52	0.0072
592.7114	0.0083
592.9028	0.0123
593.0941	0.0071
593.2855	0.0062
593.4768	0.0113
593.6681	0.0116
593.8594	0.0159
594.0506	0.0049
594.2419	0.0083
594.4331	0.0076
594.6244	0.0076
594.8156	0.0065
595.0067	0.0024
595.1979	0.0056
595.3891	0.0075
595.5802	0.0141
595.7713	0.0069
595.9624	0.014
596.1535	0.0062
596.3446	0.0066
596.5357	0.0065
596.7267	0.0114
596.9177	0.0008
597.1087	0.0052
597.2997	0.0068
597.4907	0.0032
597.6817	0.0085
597.8726	0.0083
598.0635	0.0035
598.2544	0.013
598.4453	0.0053
598.6362	0.0083
598.827	0.0103
599.0179	0.0079
599.2087	0.0154
599.3995	0.0122
599.5903	0.0165
599.7811	0.015
599.9718	0.0087
600.1626	0.0091
600.3533	0.0055
600.544	0.0094
600.7347	0.0146
600.9254	0.0115
601.116	0.007
601.3067	0.0056
601.4973	0.0119
601.6879	0.0075
601.8785	0.0135
602.0691	0.0067
602.2596	0.0098
602.4502	0.0097
602.6407	0.0117
602.8312	0.0061
603.0217	0.0086
603.2122	0.0063
603.4027	0.0104
603.5931	0.0046
603.7835	0.0149
603.9739	0.0028
604.1643	0.0129
604.3547	0.0134
604.5451	0.0195
604.7354	0.0026
604.9257	0.0086
605.116	0.0081
605.3063	0.0126
605.4966	0.0092
605.6869	0.0134
605.8771	0.0121
606.0673	0.0098
606.2575	0.0104
606.4477	0.0159
606.6379	0.006
606.8281	0.0085
607.0182	0.0078
607.2083	0.004
607.3985	0.0075
607.5885	0.0072
607.7786	0.0081
607.9687	0.0137
608.1587	0.015
608.3488	0.013
608.5388	-0.0022
608.7288	-0.0018
608.9187	0.008
609.1087	0.0156
609.2986	0.0158
609.4886	0.0049
609.6785	0.0065
609.8684	0.0038
610.0582	0.0102
610.2481	0.0016
610.4379	0.0042
610.6278	0.0101
610.8176	0.0179
611.0074	0.0094
611.1971	0.0055
611.3869	0.0067
611.5766	-0.001
611.7664	0.016
611.9561	0.0136
612.1458	0.0113
612.3354	0.0077
612.5251	0.0078
612.7147	0.0143
612.9044	0.0031
613.094	0.0082
613.2836	0.0055
613.4731	0.0128
613.6627	0.0146
613.8522	0.0068
614.0417	0.0052
614.2313	0.0118
614.4207	0.0125
614.6102	0.0155
614.7997	0.0148
614.9891	0.0101
615.1785	0.0088
615.3679	0.0123
615.5573	0.0096
615.7467	-0.0047
615.9361	0.0032
616.1254	0.0188
616.3147	0.0088
616.504	0.0137
616.6933	0.0084
616.8826	0.0022
617.0718	0.011
617.2611	0.0079
617.4503	0.0031
617.6395	0.0117
617.8287	0.0174
618.0179	0.0105
618.207	0.0135
618.3961	0.0026
618.5853	0.0099
618.7744	0.0146
618.9634	0.0229
619.1525	0.0167
619.3416	0.0103
619.5306	0.0179
619.7196	0.0086
619.9086	0.0084
620.0976	0.0022
620.2866	0.0111
620.4755	0.0081
620.6645	0.0032
620.8534	0.0083
621.0423	0.0055
621.2312	0.0044
621.42	0.0088
621.6089	0.0129
621.7977	0.0112
621.9865	0.0043
622.1753	-0.0011
622.3641	0.0068
622.5529	-0.0019
622.7416	0.0131
622.9303	0.0111
623.1191	0.0108
623.3078	0.0064
623.4964	0.0085
623.6851	0.0235
623.8737	0.008
624.0624	-0.001
624.251	0.0074
624.4396	0.0078
624.6282	0.0161
624.8167	0.006
625.0053	0.0162
625.1938	0.0044
625.3823	0.0108
625.5708	0.004
625.7593	0.0045
625.9477	0.0264
626.1362	0.0102
626.3246	0.01
626.513	0.0064
626.7014	0.0171
626.8898	0.0158
627.0781	0.0124
627.2665	0.0179
627.4548	-0.0005
627.6431	0.0084
627.8314	0.0086
628.0197	0.0203
628.2079	0.0079
628.3962	0.0069
628.5844	0.0235
628.7726	0.0008
628.9608	0.0123
629.1489	0.0065
629.3371	-0.0026
629.5252	0.0106
629.7134	-0.0077
629.9015	0.0183
630.0895	0.0014
630.2776	0.0133
630.4657	0.0161
630.6537	0.0154
630.8417	-0.0016
631.0297	0.0031
631.2177	0.0136
631.4057	0.0028
631.5936	0.0026
631.7815	0.0197
631.9695	0.0203
632.1574	0.0163
632.3452	0.0136
632.5331	0.0056
632.7209	0.0207
632.9088	0.0087
633.0966	0.0262
633.2844	0.0172
633.4722	0.0028
633.6599	0.0137
633.8477	0.0169
634.0354	0.0255
634.2231	-0.0069
634.4108	0.011
634.5985	0.0184
634.7861	-0.0054
634.9738	0.0156
635.1614	0.0144
635.349	0.0057
635.5366	0.0088
635.7242	0.0083
635.9117	0.0059
636.0993	0.0097
636.2868	-0.0022
636.4743	0.0002
636.6618	-0.0076
636.8492	0.0224
637.0367	0.0107
637.2241	0.0127
637.4115	0.0219
637.5989	0.0095
637.7863	0.0243
637.9737	0.0231
638.161	0.0276
638.3484	-0.0011
638.5357	0.0205
638.723	0.0322
638.9103	-0.0039
639.0975	0.0149
639.2848	0.0183
639.472	0.0124
639.6592	0.0005
639.8464	0.0026
640.0336	0.0072
640.2208	0.0074
640.4079	-0.0147
640.595	0.0059
640.7821	0.0153
640.9692	0.002
641.1563	0.0254
641.3434	0.026
641.5304	0.0349
641.7174	0.0204
641.9044	0.0183
642.0914	0.0322
642.2784	0.0085
642.4653	0.0112
642.6523	0.0293
642.8392	0.0001
643.0261	0.0309
643.213	0.0255
643.3999	0.0096
643.5867	0.0208
643.7735	0.0207
643.9604	0.0166
644.1472	0.01
644.3339	0.014
644.5207	0.0058
644.7075	0.0199
644.8942	0.0114
645.0809	0.0136
645.2676	-0.0124
645.4543	0.0172
645.6409	0.0244
645.8276	0.0068
646.0142	0.0243
646.2008	0.0183
646.3874	-0.0042
646.574	0.0118
646.7605	0.0177
646.9471	0.0123
647.1336	0.0147
647.3201	0.0225
647.5066	0.0017
647.6931	0.0157
647.8795	0.0324
648.0659	-0.0038
648.2524	0.0166
648.4388	0.0112
648.6252	0.0217
648.8115	-0.0062
648.9979	0.018
649.1842	0.0039
649.3705	0.0342
649.5568	0.0042
649.7431	0.0097
649.9294	0.0087
650.1156	0.0041
650.3018	0.0213
650.488	0.0197
650.6742	0.0393
650.8604	0.0246
651.0466	0.0073
651.2327	0.0183
651.4188	0.0102
651.6049	0.0376
651.791	0.0028
651.9771	0.0022
652.1632	0.0178
652.3492	0.0094
652.5352	0.025
652.7212	-0.0005
652.9072	0.0071
653.0932	0.0296
653.2791	0.0168
653.465	0.0139
653.651	0.0182
653.8369	0.0231
654.0227	0.014
654.2086	0.0169
654.3944	0.012
654.5803	0.0063
654.7661	0.0123
654.9519	-0.0011
655.1377	0.0003
655.3234	0.0003
655.5092	0.0003
655.6949	0.0003
655.8806	0.0003
656.0663	0.0003
656.2519	0.0003
656.4376	0.0003
656.6232	0.0003
656.8088	0.0003
656.9945	0.0003
657.18	0.0003
657.3656	0.0003
657.5511	0.0003
657.7367	0.0003
657.9222	0.0003
658.1077	0.0003
658.2932	0.0003
658.4786	0.0003
658.6641	0.0003
658.8495	0.0003
659.0349	0.0003
659.2203	0.0003
659.4057	0.0085
659.591	0.2901
659.7764	0.032
659.9617	0.0166
660.147	0.0075
660.3323	0.0247
660.5176	0.0069
660.7028	0.0063
660.888	0.0344
661.0733	0.0234
661.2585	-0.0091
661.4436	0.0046
661.6288	0.0123
661.8139	0.0024
661.9991	-0.0021
662.1842	0.0055
662.3693	0.0027
662.5544	0.0215
662.7394	0.0209
662.9245	0.0161
663.1095	-0.008
663.2945	0.0093
663.4795	0.0015
663.6644	0.0095
663.8494	0.012
664.0343	0.0179
664.2193	-0.0074
664.4042	0.0178
664.589	0.0149
664.7739	0.0184
664.9587	-0.0011
665.1436	-0.0018
665.3284	0.0199
665.5132	-0.0097
665.698	0.0194
665.8827	0.0136
666.0675	-0.002
666.2522	0.0231
666.4369	-0.0008
666.6216	0.0033
666.8063	0.0228
666.9909	0.0185
667.1756	-0.0008
667.3602	-0.0092
667.5448	0.0319
667.7294	0.0198
667.9139	0.0197
668.0985	0.0264
668.283	-0.0065
668.4675	0.0212
668.652	0.0299
668.8365	-0.009
669.0209	0.0206
669.2054	0.0261
669.3898	0.0344
669.5742	0.0328
669.7586	0.0115
669.943	0.0039
670.1273	0.015
670.3117	0.0237
670.496	0.0233
670.6803	-0.0045
670.8646	-0.0099
671.0488	0.028
671.2331	-0.0042
671.4173	0.0112
671.6015	0.0107
671.7857	0.0228
671.9699	0.0198
672.1541	0.0124
672.3382	0.0096
672.5223	0.0254
672.7064	-0.0003
672.8905	0.0171
673.0746	-0.0034
673.2587	0.0383
673.4427	0.0353
673.6267	0.005
673.8107	0.0235
673.9947	0.0505
674.1787	0.0297
674.3626	0.0175
674.5465	0.017
674.7304	0.0284
674.9143	0.0226
675.0982	0.0108
675.2821	0.0089
675.4659	0.0182
675.6497	0.0172
675.8335	0.0328
676.0173	-0.0101
676.2011	0.0323
676.3849	0.0121
676.5686	0.0273
676.7523	0.0099
676.936	0.0056
677.1197	-0.0045
677.3034	0.0396
677.487	0.0187
677.6706	0.0206
677.8542	-0.0065
678.0378	-0.0087
678.2214	0.0128
678.405	0.0128
678.5885	0.0155
678.772	0.0027
678.9555	0.0043
679.139	0.0306
679.3225	0.0139
679.5059	0.0143
679.6894	0.0155
679.8728	0.017
680.0562	0.012
680.2395	0.0066
680.4229	0.0153
680.6062	0.0189
680.7896	0.0038
680.9729	0.025
681.1562	0.0119
681.3394	-0.0005
681.5227	0.012
681.7059	0.0054
681.8891	0.0192
682.0723	0.0128
682.2555	0.0084
682.4387	0.0126
682.6218	0.0117
682.805	0.0335
682.9881	0.0155
683.1712	0.0217
683.3542	0.0216
683.5373	0.0046
683.7203	0.0111
683.9034	0.0053
684.0864	-0.0032
684.2694	0.0105
684.4523	0.0182
684.6353	0.0106
684.8182	0.0023
685.0011	0.0146
685.184	-0.0063
685.3669	0.0267
685.5498	0.0025
685.7326	0.0075
685.9154	0.0027
686.0982	0.0226
686.281	0.0109
686.4638	0.0159
686.6465	0.0127
686.8293	0.0018
687.012	0.0167
687.1947	0.0156
687.3774	0.0088
687.56	-0.0025
687.7427	0.0154
687.9253	-0.0007
688.1079	0.0161
688.2905	0.0228
688.4731	0.0403
688.6556	0.025
688.8382	-0.0094
689.0207	0.025
689.2032	0.03
689.3857	0.0028
689.5681	0.0046
689.7506	0.0409
689.933	0.0049
690.1154	0.0114
690.2978	0.0097
690.4802	0.0249
690.6626	0.034
690.8449	0.0101
691.0272	0.0085
691.2095	-0.0029
691.3918	0.0032
691.5741	0.021
691.7563	0.0139
691.9386	0.0491
692.1208	0.0096
692.303	0.0022
692.4852	0.0203
692.6673	0.0151
692.8495	-0.014
693.0316	0.0248
693.2137	0.0378
693.3958	0.005
693.5778	0.0163
693.7599	0.0105
693.9419	0.0034
694.1239	0.0145
694.3059	0.0342
694.4879	0.0027
694.6699	0.0079
694.8518	0.0146
695.0337	0.0325
695.2157	0.0223
695.3975	-0.0194
695.5794	-0.0038
695.7613	0.0243
695.9431	-0.0095
696.1249	0.0075
696.3067	0.0213
696.4885	0.0256
696.6703	0.0213
696.852	-0.0027
697.0337	0.0287
697.2154	0.0051
697.3971	0.0248
697.5788	0.0194
697.7605	0.0123
697.9421	0.0169
698.1237	0.0186
698.3053	0.0228
698.4869	0.0107
698.6685	0.0056
698.85	0.0232
699.0315	0.0081
699.213	0.0303
699.3945	0.0133
699.576	0.0254
699.7575	0.0223
699.9389	0.0121
700.1203	0.0198
700.3017	0.0295
700.4831	0.0286
700.6645	0.0529
700.8458	0.0091
701.0271	0.0407
701.2084	0.0125
701.3897	0.017
701.571	-0.0031
701.7523	0.0258
701.9335	0.0277
702.1147	0.0247
702.2959	0.0036
702.4771	0.0172
702.6583	0.0232
702.8394	-0.0124
703.0205	0.041
703.2016	0.0138
703.3827	-0.0115
703.5638	0.0044
703.7449	0.0212
703.9259	0.0097
704.1069	-0.0054
704.2879	0.0126
704.4689	0.0105
704.6499	0.0394
704.8308	0.0232
705.0117	-0.0087
705.1927	0.0325
705.3735	0.0261
705.5544	0.0121
705.7353	-0.0018
705.9161	-0.0202
706.0969	0.0172
706.2777	0.0283
706.4585	-0.0102
706.6393	0.014
706.82	0.0113
707.0007	0.0072
707.1815	0.0019
707.3621	0.053
707.5428	0.0188
707.7235	0.0044
707.9041	0.0309
708.0847	0.0104
708.2653	0.0347
708.4459	0.0212
708.6265	0.0063
708.807	-0.0022
708.9875	0.0162
709.168	0.0063
709.3485	0.0321
709.529	0.0198
709.7095	-0.0032
709.8899	0.0279
710.0703	0.0238
710.2507	0.0173
710.4311	-0.0057
710.6115	0.0296
710.7918	0.0203
710.9721	0.0223
711.1524	-0.0078
711.3327	0.0287
711.513	0.0211
711.6932	0.0136
711.8735	0.0447
712.0537	-0.007
712.2339	0.0218
712.4141	0.0361
712.5942	0.0006
712.7744	0.0219
712.9545	0.0165
713.1346	0.0328
713.3147	0.0242
713.4947	0.0049
713.6748	0.0188
713.8548	0.0093
714.0348	0.026
714.2148	0.0479
714.3948	0.0341
714.5748	0.0192
714.7547	0.0248
714.9346	0.0262
715.1145	0.0096
715.2944	0.0062
715.4743	0.0321
715.6541	-0.0069
715.834	0.0607
716.0138	0.0243
716.1936	0.003
716.3733	0.0084
716.5531	0.038
716.7328	0.0427
716.9126	0.0316
717.0923	-0.0018
717.2719	0.0289
717.4516	0.0078
717.6312	0.0107
717.8109	0.0433
717.9905	0.0169
718.1701	0.0326
718.3496	0.001
718.5292	-0.0175
718.7087	0.0124
718.8882	0.039
719.0677	0.0174
719.2472	0.001
719.4267	0.0066
719.6061	-0.0086
719.7856	0.0631
719.965	0.0131
720.1443	-0.0166
720.3237	0.0066
720.5031	-0.0043
720.6824	0.0114
720.8617	-0.0005
721.041	0.0358
721.2203	-0.0183
721.3995	0.0123
721.5788	-0.0091
721.758	0.0019
721.9372	0.0159
722.1164	-0.0153
722.2956	-0.0036
722.4747	0.0114
722.6538	0.0124
722.8329	0.0187
723.012	0.0431
723.1911	0.0003
723.3702	0.0235
723.5492	-0.0001
723.7282	0.0072
723.9072	0.0199
724.0862	0.0227
724.2652	0.0169
724.4441	0.0003
724.623	0.0374
724.8019	0.0045
724.9808	0.018
725.1597	0.0183
725.3385	0.0157
725.5174	0.0285
725.6962	0.0324
725.875	0.012
726.0538	0.0374
726.2325	0.0072
726.4112	-0.0038
726.59	0.0049
726.7687	0.0015
726.9474	0.0197
727.126	0.0216
727.3047	-0.004
727.4833	0.0082
727.6619	-0.0132
727.8405	0.005
728.0191	0.0438
728.1976	0.019
728.3762	-0.0001
728.5547	-0.0005
728.7332	0.0185
728.9116	0.0359
729.0901	0.0272
729.2686	0.0245
729.447	0.0164
729.6254	0.0298
729.8038	0.0228
729.9821	-0.0201
730.1605	0.0163
730.3388	-0.0076
730.5171	0.0222
730.6954	0.0002
730.8737	0.0287
731.0519	0.0102
731.2302	0.0396
731.4084	0.0171
731.5866	0.0164
731.7648	0.0005
731.9429	0.0164
732.1211	-0.0022
732.2992	0.0164
732.4773	0.0259
732.6554	-0.0104
732.8335	0.0319
733.0115	0.0243
733.1896	0.0053
733.3676	0.0123
733.5456	0.0197
733.7235	-0.0067
733.9015	0.0147
734.0794	0.005
734.2574	0.0047
734.4353	0.026
734.6131	0.0041
734.791	0.015
734.9689	0.0117
735.1467	0.0046
735.3245	0.0227
735.5023	0.0145
735.68	0.011
735.8578	0.0351
736.0355	0.0178
736.2132	0.0274
736.3909	0.0307
736.5686	0.009
736.7463	-0.0192
736.9239	0.0186
737.1015	0.0113
737.2791	0.0147
737.4567	0.0252
737.6343	0.0045
737.8118	0.029
737.9894	0.0048
738.1669	0.0114
738.3444	0.0363
738.5218	-0.0041
738.6993	0.0305
738.8767	0.0085
739.0541	-0.0116
739.2315	0.0219
739.4089	0.0237
739.5863	0.0141
739.7636	0.0006
739.9409	0.0246
740.1182	0.0179
740.2955	0.0153
740.4728	0.0095
740.65	-0.0148
740.8272	0.0073
741.0044	-0.0116
741.1816	0.0152
741.3588	-0.005
741.5359	-0.01
741.7131	0.0333
741.8902	0.0044
742.0673	-0.0099
742.2444	0.0335
742.4214	0.0079
742.5985	0.0074
742.7755	0.0289
742.9525	0.0027
743.1295	0.0074
743.3064	-0.0107
743.4834	0.0119
743.6603	0.0692
743.8372	-0.0312
744.0141	0.0448
744.191	0.0515
744.3678	-0.0026
744.5446	0.003
744.7215	0.0048
744.8982	0.0105
745.075	0.0734
745.2518	0.0274
745.4285	0.0407
745.6052	-0.0084
745.7819	0.0223
745.9586	0.0131
746.1353	0.0086
746.3119	0.0235
746.4885	0.0667
746.6651	0.0233
746.8417	0.011
747.0183	0.0393
747.1948	0.0148
747.3714	0.0098
747.5479	0.0686
747.7244	0.026
747.9008	-0.0101
748.0773	0.0243
748.2537	0.0426
748.4301	0.0315
748.6065	0.009
748.7829	-0.0217
748.9593	0.0068
749.1356	0.0235
749.3119	0.0151
749.4882	0.0464
749.6645	0.0193
749.8408	0.0211
750.017	0.0202
750.1933	0.0084
750.3695	0.0356
750.5457	-0.0018
750.7218	0.0096
750.898	0.0067
751.0741	0.0275
751.2502	0.0252
751.4263	0.0104
751.6024	0.0084
751.7784	-0.0057
751.9545	0.0014
752.1305	0.0304
752.3065	0.0133
752.4825	0.0203
752.6584	0.0314
752.8344	-0.0081
753.0103	0.0006
753.1862	0.0176
753.3621	0.0088
753.5379	0.009
753.7138	0.0057
753.8896	0.0171
754.0654	-0.0041
754.2412	0.0296
754.417	0.0279
754.5927	0.0229
754.7685	0.0253
754.9442	0.0294
755.1199	0.0296
755.2956	0.0193
755.4712	0.0191
755.6469	0.0124
755.8225	0.0112
755.9981	0.0239
756.1736	0.0061
756.3492	-0.0114
756.5248	0.0168
756.7003	0.0015
756.8758	0.0202
757.0513	0.0213
757.2267	0.0161
757.4022	0.0051
757.5776	0.0066
757.753	0.0201
757.9284	0.0209
758.1038	0.0147
758.2791	0.01
758.4545	-0.0047
758.6298	0.0004
758.8051	0.0326
758.9803	0.0095
759.1556	0.0108
759.3308	0.0091
759.506	0.0269
759.6812	0.011
759.8564	0.0006
760.0316	0.0076
760.2067	0.0297
760.3819	-0.0031
760.557	-0.0115
760.732	0.0079
760.9071	0.02
761.0821	0.0004
761.2572	0.0302
761.4322	0.0162
761.6072	0.0197
761.7821	-0.0144
761.9571	0.0306
762.132	-0.0013
762.3069	0.0331
762.4818	0.0006
762.6567	0.0159
762.8316	0.0072
763.0064	0.0107
763.1812	0.0204
763.356	0.0091
763.5308	0.0192
763.7055	-0.002
763.8803	0.0092
764.055	-0.0036
764.2297	0.0078
764.4044	0.0041
764.579	0.0139
764.7537	0.0132
764.9283	0.0162
765.1029	0.0112
765.2775	0.0411
765.4521	0.0033
765.6266	-0.0175
765.8011	0.0012
765.9756	0.0156
766.1501	0.0045
766.3246	0.0222
766.4991	0.0301
766.6735	0.0417
766.8479	0.0572
767.0223	0.0251
767.1967	0.0388
767.371	0.0177
767.5454	0.0369
767.7197	0.0498
767.894	0.008
768.0683	0.0086
768.2425	0.0233
768.4168	0.0172
768.591	0.0177
768.7652	0.0059
768.9394	-0.0062
769.1135	0.0095
769.2877	0.0342
769.4618	0.047
769.6359	0.0143
769.81	0.0384
769.984	0.0242
770.1581	-0.002
770.3321	0.0271
770.5061	0.0204
770.6801	0.0324
770.8541	0.0399
771.028	0.0546
771.202	0.038
771.3759	0.0156
771.5498	0.0113
771.7236	0.0223
771.8975	0.0434
772.0713	0.0331
772.2451	-0.0088
772.4189	0.0202
772.5927	-0.0063
772.7665	0.0003
772.9402	0.0263
773.1139	0.011
773.2876	0.0189
773.4613	0.0141
773.635	0.0247
773.8086	0.064
773.9822	0.0157
774.1558	0.0295
774.3294	0.008
774.503	0.021
774.6765	0.0344
774.8501	0.0136
775.0236	0.0356
775.1971	0.0364
775.3705	0.0212
775.544	-0.0455
775.7174	0.0337
775.8908	-0.002
776.0642	0.003
776.2376	-0.0126
776.4109	0.0458
776.5843	0.0032
776.7576	0.0527
776.9309	0.0141
777.1041	0.0105
777.2774	0.0478
777.4506	0.0572
777.6238	0.0648
777.797	0.0364
777.9702	0.0247
778.1434	0.0079
778.3165	-0.0189
778.4896	-0.0283
778.6627	0.0099
778.8358	0.0187
779.0089	0.0071
779.1819	0.0332
779.3549	0.0187
779.5279	-0.0211
779.7009	0.0581
779.8739	0.091
780.0468	0.0244
780.2197	0.0106
780.3926	0.0044
780.5655	0.0097
780.7384	0.0108
780.9112	0.0617
781.0841	0.04
781.2569	0.0459
781.4297	0.0261
781.6024	0.0388
781.7752	0.0316
781.9479	0.0551
782.1206	0.0248
782.2933	0.009
782.466	0.0244
782.6386	0.0355
782.8113	0.0074
782.9839	0.0289
783.1565	0.0288
783.329	-0.0216
783.5016	0.0096
783.6741	-0.0014
783.8466	0.0518
784.0191	-0.0196
784.1916	-0.0073
784.3641	-0.0215
784.5365	0.0264
784.7089	0.0299
784.8813	0.0914
785.0537	0.0102
785.2261	0.0532
785.3984	0.0195
785.5707	0.002
785.743	0.0702
785.9153	0.0343
786.0876	0.0013
786.2598	0.0251
786.432	0.025
786.6042	0.046
786.7764	0.0311
786.9486	-0.003
787.1207	0.048
787.2928	0.0353
787.4649	0.0476
787.637	0.0039
787.8091	0.0294
787.9811	0.0178
788.1532	0.005
788.3252	0.0237
788.4972	0.0265
788.6691	0.0238
788.8411	0.0059
789.013	0.0446
789.1849	0.0245
789.3568	0.0668
789.5287	0.0523
789.7005	-0.0078
789.8723	-0.0515
790.0442	0.0436
790.2159	0.0284
790.3877	0.0637
790.5595	0.0841
790.7312	0.0482
790.9029	0.0695
791.0746	0.0615
791.2463	-0.0219
791.4179	0.0487
791.5896	0.0302
791.7612	0.0405
791.9328	0.0161
792.1044	0.0376
792.2759	-0.0711
792.4474	-0.0382
792.619	0.0265
792.7905	0.0658
792.9619	0.1084
793.1334	0.1091
793.3048	0.0823
793.4762	0.0195
793.6476	-0.0322
793.819	-0.0081
793.9904	0.0184
794.1617	0.0124
794.333	0.0242
794.5043	0.0021
794.6756	0.0205
794.8469	0.0314
795.0181	0.0125
795.1893	0.0375
795.3605	0.0314
795.5317	0.0134
795.7029	0.0065
795.874	0.0276
796.0452	-0.0084
796.2163	0.0726
796.3873	0.0495
796.5584	0.0822
796.7294	0.0055
796.9005	0.0903
797.0715	-0.0205
797.2425	0.1205
797.4134	0.0155
797.5844	0.048
797.7553	0.0047
797.9262	0.039
798.0971	0.0717
798.2679	0.0181
798.4388	0.0573
798.6096	-0.0191
798.7804	0.0637
798.9512	0.0568
799.122	0.0356
799.2927	0.1447
799.4635	-0.0165
799.6342	-0.0301
799.8049	0.087
799.9755	0.0456
800.1462	0.0455
800.3168	0.0801
800.4874	0.0577
800.658	0.0986
800.8286	0.0865
800.9991	0.0746
801.1696	-0.0286
801.3402	0.1105
801.5106	0.0624
801.6811	0.0048
801.8516	0.1037
802.022	0.0429
802.1924	0.0865
802.3628	0.0513
802.5332	0.1435
802.7035	0.0886
802.8739	0.0443
803.0442	0.0636
803.2145	0.0859
803.3847	0.059
803.555	0.0998
803.7252	0.0084
803.8954	0.0077
804.0656	0.0456
804.2358	0.113
804.4059	0.0846
804.5761	0.0472
804.7462	-0.004
804.9163	0.086
805.0864	0.0153
805.2564	-0.0063
805.4264	-0.0414
805.5965	0.0663
805.7665	0.001
805.9364	0.0593
806.1064	0.0596
806.2763	-0.0078
806.4462	0.0343
806.6161	0.0557
806.786	-0.0179
806.9559	0.0299
807.1257	-0.0094
807.2955	0.018
807.4653	0.101
807.6351	0.1361
807.8048	0.0092
807.9746	0.0537
808.1443	0.0729
808.314	0.0989
808.4837	0.1095
808.6533	0.0042
808.8229	-0.0299
808.9926	0.0423
809.1622	0.0666
809.3317	0.0169
809.5013	0.0517
809.6708	0.1103
809.8403	0.0313
810.0098	0.1076
810.1793	-0.011
810.3488	0.0375
810.5182	0.1911
810.6876	0.0335
810.857	0.0924
811.0264	-0.0132
811.1958	0.0855
811.3651	0.0437
811.5344	0.1209
811.7037	0.1158
811.873	0.078
812.0422	0.0355
812.2115	0.0536
812.3807	-0.0201
812.5499	-0.0427
812.7191	0.0376
812.8882	0.028
813.0574	0.0884
813.2265	0.0961
813.3956	0.0098
813.5646	0.0521
813.7337	0.0367
813.9027	-0.0108
814.0718	0.0455
814.2407	-0.0255
814.4097	0.073
814.5787	0.1225
814.7476	0.0914
814.9165	0.0293
815.0854	0.0368
815.2543	0.0332
815.4232	0.0258
815.592	-0.03
815.7608	0.0193
815.9296	0.1392
816.0984	0.0431
816.2671	-0.0145
816.4359	0.0472
816.6046	0.2251
816.7733	-0.0435
816.942	0.0099
817.1106	0.135
817.2793	0.1099
817.4479	0.0411
817.6165	0.0088
817.785	0.1295
817.9536	0.012
818.1221	0.1141
818.2906	-0.0207
818.4591	0.1097
818.6276	0.0649
818.7961	-0.0766
818.9645	0.228
819.1329	-0.0258
819.3013	-0.0819
819.4697	-0.09
819.638	0.2002
819.8064	0.2537
819.9747	0.11
820.143	-0.0739
820.3113	0.0416
820.4795	0.1863
820.6477	0.0352
820.816	0.0176
820.9842	0.0884
821.1523	-0.0008
821.3205	0.0814
821.4886	0.0401
821.6567	0.0264
821.8248	0.2009
821.9929	-0.0545
822.1609	0.041
822.329	-0.0268
822.497	-0.0033
822.665	0.104
822.833	0.2309
823.0009	0.163
823.1688	0.1791
823.3367	-0.1688
823.5046	0.1541
823.6725	0.1058
823.8404	0.1002
824.0082	0.0795
824.176	0.1456
824.3438	0.7194
824.5116	0.0756
824.6793	0.0794
824.847	-0.0134
825.0147	-0.0333
825.1824	0.0269
825.3501	0.1387
825.5177	-0.0378
825.6854	0.0687
825.853	-0.0281
826.0206	0.0563
826.1881	0.0652
826.3557	-0.0219
826.5232	0.1818
826.6907	0.1394
826.8582	-0.0459
827.0257	0.1834
827.1931	0.1644
827.3605	0.1693
827.528	0.2327
827.6953	-0.1465
827.8627	-0.0343
828.03	0.1606
828.1974	0.0715
828.3647	0.0128
828.532	0.1931
828.6992	0.1739
828.8665	-0.1022
829.0337	0.1339
829.2009	0.0484
829.3681	0.0983
829.5352	0.0231
829.7024	0.0591
829.8695	0.0595
830.0366	0.3435
830.2037	0.2175
830.3707	0.0838
830.5378	-0.1497
830.7048	-0.0578
830.8718	0.4353
831.0388	0.2403
831.2057	0.082
831.3727	-0.3413
831.5396	0.0662
831.7065	-0.322
831.8734	0.6688
832.0402	0.3789
832.2071	-0.3497
832.3739	0.0446
832.5407	-1.074
832.7075	-0.3673
832.8742	0.4602
833.041	0.6481
833.2077	1.0269
833.3744	0.2575
833.541	0.1025
833.7077	0.1901
833.8743	0.2377
834.0409	0.0767
834.2075	0.1664
834.3741	0.2106
834.5407	0.2994
834.7072	0.0967
834.8737	0.0985
835.0402	-0
835.2067	0.0321
835.3731	0.0036
835.5395	0.1414
835.706	0.0281
835.8723	0.0285
836.0387	-0
836.2051	0.3503
836.3714	0.6015
836.5377	0.0566
836.704	0.2176
836.8703	-0.1477
837.0365	-0
837.2027	0.194
837.3689	0.4712
837.5351	0.2924
837.7013	0.3861
837.8674	-0
838.0335	0.0966
838.1997	-0
838.3657	0.8552
838.5318	-0
838.6978	-0
838.8639	-0.1274
839.0299	0.9048
839.1958	0.1911
839.3618	-0
839.5277	0.3603
839.6937	-0
839.8596	-0.1469
840.0254	0.0505
840.1913	-0.0996
840.3571	-0.1454
840.523	-1.2878
840.6888	0.2263
840.8545	-0.3914
841.0203	0.1719
841.186	-0
841.3517	0.369
841.5174	0.0914
841.6831	0.0606
841.8488	0.4357
842.0144	0.082
842.18	0.5878
842.3456	-0.3302
842.5112	-0
842.6767	0.1299
842.8422	-0
843.0077	-0
843.1732	0.1398
843.3387	1.2304
843.5042	-0
843.6696	0.0596
843.835	-0.0835
844.0004	-0.141
844.1657	-0
844.3311	-0.2209
844.4964	0.6511
844.6617	1.1822
844.827	-0
844.9923	0.4092
845.1575	-0
845.3227	-0
845.4879	-0.4897
845.6531	1.7152
845.8183	0.0656
845.9834	0.0068
846.1485	0.332
846.3136	-0
846.4787	-0
846.6438	0.5166
846.8088	0.411
846.9738	-0
847.1388	0.2883
847.3038	0.5611
847.4687	0.5572
847.6337	-0
847.7986	-0.0319
847.9635	0.0411
848.1284	-0
848.2932	0.3314
848.458	-0
848.6228	-0
848.7876	-0.1937
848.9524	-0.2271
849.1172	-0
849.2819	-0
849.4466	0.5343
849.6113	0.1066
849.7759	-0
849.9406	0.5632
850.1052	-0
850.2698	0.0923
850.4344	0.1078
850.599	0.0536
850.7635	-0
850.928	-0
851.0925	0.7287
851.257	0.7409
851.4215	-0
851.5859	0.1251
851.7503	0.02
851.9147	-0
852.0791	0.0816
852.2434	-0
852.4078	0.4818
852.5721	-0
852.7364	-0
852.9007	-0
853.0649	-0
853.2291	0.1252
853.3934	-0.175
853.5575	-0.1567
853.7217	0.0269
853.8859	-0
854.05	-0.2451
854.2141	-0
854.3782	0.5681
854.5423	-0
854.7063	0.3275
854.8703	0.1079
855.0343	0.0327
855.1983	0.0708
855.3623	0.1114
855.5262	2.2945
855.6901	-0
855.854	0.0544
856.0179	-0.0353
856.1818	-0
856.3456	-0
856.5094	-0.3656
856.6732	-0
856.837	-0
857.0008	-0
857.1645	0.2157
857.3282	-0
857.4919	-0.0326
857.6556	-0.3561
857.8192	-0.0144
857.9828	0.2077
858.1465	-0
858.31	-0
858.4736	-0.6551
858.6372	-0
858.8007	0.946
858.9642	-0
859.1277	0.399
859.2911	-0.4085
859.4546	-0
859.618	-0
859.7814	-0.2926
859.9448	-0
860.1081	-0
860.2715	-0
860.4348	-0
860.5981	-0
860.7614	-0
860.9246	-0
861.0879	0.2659
861.2511	-0.7876
861.4143	-0
861.5774	-0
861.7406	-0
861.9037	-0.3485
862.0668	-0
862.2299	-0
862.393	-0.2772
862.556	0.4709
862.7191	-0.0357
862.8821	0.177
863.0451	0.4013
863.208	-0.2789
863.371	-0.6094
863.5339	0.1502
863.6968	-0
863.8597	0.019
864.0225	-0
864.1854	-0.3727
864.3482	-0
864.511	0.2982
864.6737	-0.4175
864.8365	0.2988
864.9992	-0
865.1619	-0.3248
865.3246	-2.0342
865.4873	-0
865.65	-0
865.8126	0.2847
865.9752	1.1081
866.1378	0.2908
866.3004	-0.2333
866.4629	-0.1963
866.6254	-0
866.7879	-0.1905
866.9504	-0
867.1129	-0
867.2753	-0.083
867.4377	-0
867.6001	-0.2812
867.7625	0.0074
867.9249	-0
868.0872	-0.134
868.2495	1.6353
868.4118	-0.3148
868.5741	-0
868.7363	-1.1204
868.8986	-0.7477
869.0608	-0
869.223	-0
869.3851	-0.5625
869.5473	0.7538
869.7094	-0.1649
869.8715	-0.8059
870.0336	0.2203
870.1957	-0.5486
870.3577	-0
870.5197	-0.0255
870.6817	-0.7488
870.8437	-0
871.0057	-0
871.1676	1.4825
871.3295	-0
871.4914	-0
871.6533	-0.5166
871.8151	0.0367
871.977	0.501
872.1388	-0.415
872.3006	1.1376
872.4623	-0.4348
872.6241	-0
872.7858	-0
872.9475	-0
873.1092	-0.1867
873.2709	-0
873.4325	-1.7515
873.5941	-0
873.7557	0.6312
873.9173	-0
874.0789	0.4686
874.2404	-0
874.4019	0.5508
874.5634	-0
874.7249	-0
874.8863	0.63
875.0478	-0.3673
875.2092	-0
875.3706	-0.1553
875.5319	-0
875.6933	0.1447
875.8546	0.699
876.0159	0.1101
876.1772	-0
876.3385	-0
876.4997	-0
876.6609	-0
876.8221	0.4795
876.9833	-0.3904
877.1445	0.5007
877.3056	-0
877.4667	-0.8481
877.6278	-0
877.7889	2.4669
877.9499	-0
878.111	-0.5989
878.272	-0
878.433	-0
878.5939	0.6186
878.7549	-0
878.9158	1.296
879.0767	-0
879.2376	-0
879.3984	-0
879.5593	-0
879.7201	-0
879.8809	-0.159
880.0417	-0.1764
880.2024	0.2015
880.3632	0.2239
880.5239	0.6009
880.6846	-0.5275
880.8452	0.0755
881.0059	-0
881.1665	0.262
881.3271	-0
881.4877	0.0729
881.6483	-1.3813
881.8088	-0
881.9693	-0.3378
882.1298	-0.3378
882.2903	-0.3378
