Data from D4ACN5uM420nmA_Absorbance_14-37-09-447.txt Node
Date: Fri Feb 21 14:37:09 GMT 2025
User: LASERRRRR
Spectrometer: FLMT03099
Trigger mode: 0
Integration Time (sec): 1.500000E-2
Scans to average: 1
Electric dark correction enabled: true
Nonlinearity correction enabled: false
Boxcar width: 0
XAxis mode: Wavelengths
Number of Pixels in Spectrum: 3648
>>>>>Begin Spectral Data<<<<<
179.3399	-0.6794
179.5586	-0.6794
179.7771	-0.6794
179.9957	-0.1084
180.2143	-0
180.4329	0.0107
180.6514	-0.3837
180.8699	0.3431
181.0885	0.1415
181.307	-0
181.5255	0.3567
181.744	-0.0137
181.9625	0.9143
182.181	-0
182.3994	-0.2122
182.6179	-0.2991
182.8363	0.614
183.0547	-0.1392
183.2732	0.1502
183.4916	0.3208
183.71	0.2788
183.9284	0.0621
184.1467	0.1207
184.3651	-0.137
184.5835	0.0812
184.8018	0.4475
185.0201	0.1502
185.2385	0.367
185.4568	0.129
185.6751	0.1052
185.8934	0.4162
186.1117	0.038
186.3299	0.1797
186.5482	0.1636
186.7664	0.1812
186.9847	0.0508
187.2029	0.0855
187.4211	0.0596
187.6393	0.1996
187.8575	0.3165
188.0757	0.4221
188.2939	0.0013
188.512	0.4539
188.7302	0.1145
188.9483	0.0104
189.1665	0.392
189.3846	0.4141
189.6027	0.1072
189.8208	0.2427
190.0389	0.1767
190.257	0.2066
190.475	0.0251
190.6931	0.085
190.9111	0.1331
191.1292	0.1122
191.3472	0.165
191.5652	0.3548
191.7832	0.2892
192.0012	0.1065
192.2192	0.1788
192.4371	0.2114
192.6551	0.2147
192.873	0.1319
193.091	0.1587
193.3089	0.0568
193.5268	0.1439
193.7447	0.1873
193.9626	0.172
194.1805	0.2884
194.3984	0.2004
194.6162	0.2369
194.8341	0.2212
195.0519	0.1635
195.2697	0.2913
195.4875	0.3265
195.7054	0.2114
195.9231	0.2017
196.1409	0.3381
196.3587	0.271
196.5765	0.2893
196.7942	0.3239
197.012	0.3582
197.2297	0.2881
197.4474	0.3662
197.6651	0.3612
197.8828	0.3664
198.1005	0.4337
198.3182	0.3859
198.5358	0.364
198.7535	0.3754
198.9711	0.3615
199.1888	0.3449
199.4064	0.3835
199.624	0.3474
199.8416	0.3487
200.0592	0.3971
200.2767	0.3864
200.4943	0.4681
200.7119	0.404
200.9294	0.412
201.1469	0.3646
201.3645	0.4087
201.582	0.4179
201.7995	0.4213
202.017	0.4047
202.2344	0.3938
202.4519	0.3803
202.6694	0.3488
202.8868	0.4161
203.1042	0.381
203.3217	0.338
203.5391	0.4082
203.7565	0.3498
203.9739	0.3684
204.1913	0.3474
204.4086	0.3443
204.626	0.3494
204.8433	0.359
205.0607	0.3497
205.278	0.3354
205.4953	0.3396
205.7126	0.3532
205.9299	0.3124
206.1472	0.321
206.3644	0.3554
206.5817	0.3085
206.7989	0.3359
207.0162	0.3124
207.2334	0.3294
207.4506	0.299
207.6678	0.2839
207.885	0.2657
208.1022	0.3136
208.3194	0.2893
208.5365	0.2897
208.7537	0.2862
208.9708	0.2957
209.1879	0.2734
209.405	0.2847
209.6222	0.2793
209.8392	0.3052
210.0563	0.2663
210.2734	0.2542
210.4905	0.2703
210.7075	0.2613
210.9245	0.2682
211.1416	0.2486
211.3586	0.2485
211.5756	0.2349
211.7926	0.2697
212.0096	0.2615
212.2265	0.2586
212.4435	0.2596
212.6604	0.2462
212.8774	0.2339
213.0943	0.2587
213.3112	0.2251
213.5281	0.248
213.745	0.2217
213.9619	0.2302
214.1788	0.2506
214.3956	0.2432
214.6125	0.249
214.8293	0.2352
215.0461	0.2344
215.2629	0.2369
215.4798	0.2518
215.6965	0.2345
215.9133	0.2304
216.1301	0.2287
216.3469	0.2276
216.5636	0.2371
216.7803	0.2364
216.9971	0.2317
217.2138	0.2478
217.4305	0.2315
217.6472	0.2436
217.8639	0.2374
218.0805	0.2327
218.2972	0.2404
218.5138	0.2438
218.7305	0.2457
218.9471	0.2426
219.1637	0.2502
219.3803	0.2471
219.5969	0.2504
219.8135	0.2665
220.0301	0.2493
220.2466	0.2414
220.4632	0.2543
220.6797	0.2531
220.8962	0.2488
221.1127	0.2416
221.3292	0.25
221.5457	0.2555
221.7622	0.2484
221.9787	0.2669
222.1951	0.2661
222.4116	0.2578
222.628	0.2672
222.8444	0.2698
223.0608	0.2631
223.2772	0.2731
223.4936	0.2801
223.71	0.2751
223.9264	0.2768
224.1427	0.2901
224.3591	0.2818
224.5754	0.2869
224.7917	0.284
225.008	0.2831
225.2243	0.2874
225.4406	0.2824
225.6569	0.2968
225.8732	0.3087
226.0894	0.3005
226.3057	0.2949
226.5219	0.3181
226.7381	0.3119
226.9543	0.3097
227.1705	0.3074
227.3867	0.32
227.6029	0.324
227.8191	0.3178
228.0352	0.3496
228.2513	0.3461
228.4675	0.3414
228.6836	0.3374
228.8997	0.3454
229.1158	0.3523
229.3319	0.3555
229.548	0.3427
229.764	0.3556
229.9801	0.3687
230.1961	0.3589
230.4121	0.3592
230.6282	0.3782
230.8442	0.3861
231.0602	0.3774
231.2761	0.3815
231.4921	0.4046
231.7081	0.4021
231.924	0.4116
232.14	0.4113
232.3559	0.4072
232.5718	0.4105
232.7877	0.415
233.0036	0.4151
233.2195	0.4148
233.4353	0.4175
233.6512	0.4136
233.867	0.4259
234.0829	0.4279
234.2987	0.4268
234.5145	0.4366
234.7303	0.4294
234.9461	0.4379
235.1619	0.4469
235.3776	0.4369
235.5934	0.4328
235.8091	0.4424
236.0249	0.4432
236.2406	0.4376
236.4563	0.4424
236.672	0.4436
236.8877	0.4531
237.1034	0.4517
237.319	0.4487
237.5347	0.4498
237.7503	0.4489
237.966	0.4515
238.1816	0.4493
238.3972	0.459
238.6128	0.4701
238.8284	0.4722
239.0439	0.4649
239.2595	0.4649
239.475	0.467
239.6906	0.4537
239.9061	0.4611
240.1216	0.4641
240.3371	0.4612
240.5526	0.4625
240.7681	0.4626
240.9836	0.4611
241.199	0.4609
241.4145	0.4523
241.6299	0.4681
241.8453	0.4475
242.0607	0.4441
242.2761	0.4389
242.4915	0.443
242.7069	0.4283
242.9223	0.4381
243.1376	0.4286
243.353	0.4073
243.5683	0.4067
243.7836	0.4047
243.9989	0.3989
244.2142	0.3785
244.4295	0.3932
244.6448	0.3795
244.86	0.3643
245.0753	0.356
245.2905	0.3531
245.5057	0.3469
245.721	0.3509
245.9362	0.3383
246.1514	0.3375
246.3665	0.3226
246.5817	0.3219
246.7969	0.306
247.012	0.3031
247.2271	0.3041
247.4423	0.2934
247.6574	0.2946
247.8725	0.2872
248.0876	0.2716
248.3026	0.2794
248.5177	0.2671
248.7328	0.2616
248.9478	0.2594
249.1628	0.2551
249.3779	0.2451
249.5929	0.2431
249.8079	0.2438
250.0228	0.2384
250.2378	0.2369
250.4528	0.2358
250.6677	0.2249
250.8827	0.2213
251.0976	0.2171
251.3125	0.2233
251.5274	0.219
251.7423	0.2119
251.9572	0.2147
252.172	0.2041
252.3869	0.2116
252.6017	0.2031
252.8166	0.2074
253.0314	0.199
253.2462	0.1993
253.461	0.2018
253.6758	0.1994
253.8906	0.2004
254.1053	0.1986
254.3201	0.1951
254.5348	0.1927
254.7496	0.1811
254.9643	0.198
255.179	0.1871
255.3937	0.1973
255.6083	0.1924
255.823	0.1872
256.0377	0.1844
256.2523	0.1912
256.467	0.1847
256.6816	0.1832
256.8962	0.1819
257.1108	0.185
257.3254	0.1818
257.54	0.1794
257.7545	0.1875
257.9691	0.1836
258.1836	0.1778
258.3981	0.1867
258.6127	0.1789
258.8272	0.1785
259.0417	0.1779
259.2561	0.1796
259.4706	0.1824
259.6851	0.1808
259.8995	0.1836
260.114	0.1835
260.3284	0.1764
260.5428	0.1794
260.7572	0.1833
260.9716	0.1883
261.186	0.1851
261.4003	0.1803
261.6147	0.1803
261.829	0.187
262.0433	0.1844
262.2577	0.1822
262.472	0.1824
262.6863	0.1872
262.9005	0.188
263.1148	0.1833
263.3291	0.184
263.5433	0.1888
263.7576	0.1882
263.9718	0.1881
264.186	0.1886
264.4002	0.1891
264.6144	0.1967
264.8286	0.1972
265.0427	0.1977
265.2569	0.196
265.471	0.1978
265.6851	0.1949
265.8993	0.1888
266.1134	0.1976
266.3275	0.1945
266.5415	0.1982
266.7556	0.1983
266.9697	0.1977
267.1837	0.2007
267.3978	0.1959
267.6118	0.1931
267.8258	0.2008
268.0398	0.1995
268.2538	0.2011
268.4677	0.1934
268.6817	0.1967
268.8957	0.1926
269.1096	0.1872
269.3235	0.19
269.5374	0.1986
269.7514	0.1953
269.9652	0.1944
270.1791	0.1919
270.393	0.1915
270.6068	0.1931
270.8207	0.1929
271.0345	0.1934
271.2483	0.1927
271.4622	0.1952
271.676	0.1865
271.8897	0.1922
272.1035	0.2005
272.3173	0.1885
272.531	0.1927
272.7448	0.1934
272.9585	0.1917
273.1722	0.1957
273.3859	0.197
273.5996	0.2008
273.8133	0.2004
274.0269	0.1898
274.2406	0.1967
274.4542	0.2003
274.6679	0.2007
274.8815	0.2016
275.0951	0.2056
275.3087	0.2127
275.5223	0.2034
275.7358	0.2066
275.9494	0.2064
276.1629	0.2137
276.3765	0.2053
276.59	0.2044
276.8035	0.2083
277.017	0.2165
277.2305	0.2128
277.444	0.2098
277.6574	0.2077
277.8709	0.2166
278.0843	0.2155
278.2978	0.2176
278.5112	0.2163
278.7246	0.2097
278.938	0.2144
279.1513	0.2133
279.3647	0.2084
279.5781	0.2145
279.7914	0.2041
280.0047	0.2094
280.2181	0.204
280.4314	0.2019
280.6447	0.2083
280.8579	0.2007
281.0712	0.2045
281.2845	0.2045
281.4977	0.202
281.711	0.1979
281.9242	0.1967
282.1374	0.1983
282.3506	0.2006
282.5638	0.1973
282.7769	0.1962
282.9901	0.1988
283.2033	0.2008
283.4164	0.1913
283.6295	0.1955
283.8426	0.1904
284.0557	0.1962
284.2688	0.1904
284.4819	0.1899
284.695	0.1944
284.908	0.1901
285.1211	0.1937
285.3341	0.1928
285.5471	0.1911
285.7601	0.1908
285.9731	0.1869
286.1861	0.193
286.3991	0.1893
286.612	0.1926
286.825	0.1971
287.0379	0.1934
287.2508	0.1939
287.4637	0.1882
287.6766	0.1905
287.8895	0.1873
288.1024	0.193
288.3152	0.1915
288.5281	0.1833
288.7409	0.1972
288.9538	0.1863
289.1666	0.1839
289.3794	0.1905
289.5922	0.187
289.8049	0.1888
290.0177	0.1899
290.2304	0.1877
290.4432	0.1913
290.6559	0.1889
290.8686	0.1901
291.0813	0.1858
291.294	0.1863
291.5067	0.1845
291.7194	0.1881
291.932	0.1812
292.1447	0.1905
292.3573	0.1879
292.5699	0.1893
292.7825	0.1832
292.9951	0.1822
293.2077	0.1851
293.4203	0.1814
293.6328	0.1813
293.8454	0.1835
294.0579	0.1846
294.2704	0.1824
294.4829	0.1874
294.6954	0.1857
294.9079	0.1831
295.1204	0.1826
295.3328	0.1909
295.5453	0.1831
295.7577	0.185
295.9701	0.1845
296.1825	0.1871
296.3949	0.1816
296.6073	0.1788
296.8197	0.1893
297.0321	0.1866
297.2444	0.183
297.4567	0.1884
297.6691	0.1797
297.8814	0.1856
298.0937	0.1867
298.306	0.1827
298.5182	0.1865
298.7305	0.1865
298.9428	0.1879
299.155	0.1812
299.3672	0.1818
299.5794	0.1825
299.7916	0.1797
300.0038	0.1806
300.216	0.1805
300.4282	0.1846
300.6403	0.1929
300.8525	0.1866
301.0646	0.1905
301.2767	0.1839
301.4888	0.1833
301.7009	0.184
301.913	0.1897
302.125	0.18
302.3371	0.1854
302.5491	0.1851
302.7612	0.1891
302.9732	0.1919
303.1852	0.1848
303.3972	0.1853
303.6092	0.1884
303.8211	0.1923
304.0331	0.1842
304.245	0.1867
304.457	0.1827
304.6689	0.187
304.8808	0.1793
305.0927	0.1872
305.3046	0.1868
305.5164	0.1792
305.7283	0.1786
305.9401	0.1676
306.152	0.1762
306.3638	0.1756
306.5756	0.1776
306.7874	0.1699
306.9992	0.1741
307.2109	0.1757
307.4227	0.1678
307.6344	0.174
307.8462	0.1673
308.0579	0.1732
308.2696	0.1674
308.4813	0.1678
308.693	0.166
308.9046	0.1674
309.1163	0.163
309.328	0.1649
309.5396	0.1591
309.7512	0.1599
309.9628	0.1596
310.1744	0.1564
310.386	0.1573
310.5976	0.159
310.8091	0.1622
311.0207	0.1514
311.2322	0.1513
311.4437	0.1532
311.6552	0.1573
311.8667	0.1581
312.0782	0.1522
312.2897	0.151
312.5012	0.1492
312.7126	0.1495
312.924	0.1553
313.1355	0.1489
313.3469	0.1468
313.5583	0.1468
313.7696	0.149
313.981	0.1514
314.1924	0.1401
314.4037	0.1498
314.6151	0.1443
314.8264	0.1505
315.0377	0.1484
315.249	0.1466
315.4603	0.1391
315.6716	0.1481
315.8828	0.151
316.0941	0.1453
316.3053	0.1445
316.5165	0.1473
316.7277	0.1457
316.9389	0.1458
317.1501	0.1472
317.3613	0.1392
317.5724	0.1438
317.7836	0.1403
317.9947	0.1396
318.2058	0.1418
318.417	0.1413
318.6281	0.1371
318.8391	0.1436
319.0502	0.1447
319.2613	0.1385
319.4723	0.1337
319.6834	0.147
319.8944	0.1394
320.1054	0.1434
320.3164	0.1357
320.5274	0.1364
320.7383	0.1451
320.9493	0.1426
321.1602	0.1465
321.3712	0.1382
321.5821	0.1397
321.793	0.1466
322.0039	0.1461
322.2148	0.1434
322.4257	0.1408
322.6365	0.1437
322.8474	0.1503
323.0582	0.1489
323.269	0.1446
323.4798	0.1438
323.6906	0.1386
323.9014	0.1386
324.1122	0.1384
324.3229	0.1507
324.5337	0.15
324.7444	0.1439
324.9551	0.1466
325.1658	0.1466
325.3765	0.145
325.5872	0.1502
325.7979	0.1488
326.0085	0.1486
326.2192	0.1466
326.4298	0.1525
326.6404	0.1505
326.851	0.1454
327.0616	0.1514
327.2722	0.1521
327.4828	0.1492
327.6933	0.1623
327.9039	0.1478
328.1144	0.1537
328.3249	0.1557
328.5354	0.1508
328.7459	0.1572
328.9564	0.1542
329.1669	0.155
329.3773	0.1542
329.5878	0.1545
329.7982	0.1638
330.0086	0.1544
330.219	0.1526
330.4294	0.162
330.6398	0.1603
330.8502	0.1668
331.0605	0.1651
331.2708	0.1545
331.4812	0.1585
331.6915	0.1605
331.9018	0.1577
332.1121	0.1654
332.3224	0.1615
332.5326	0.1608
332.7429	0.1567
332.9531	0.1597
333.1633	0.1523
333.3735	0.1557
333.5837	0.1555
333.7939	0.1607
334.0041	0.163
334.2143	0.1555
334.4244	0.1617
334.6346	0.1579
334.8447	0.1609
335.0548	0.1601
335.2649	0.161
335.475	0.1579
335.685	0.1626
335.8951	0.1549
336.1051	0.1546
336.3152	0.1615
336.5252	0.1567
336.7352	0.159
336.9452	0.1568
337.1552	0.1532
337.3652	0.156
337.5751	0.1546
337.7851	0.1575
337.995	0.1617
338.2049	0.1532
338.4148	0.1607
338.6247	0.1627
338.8346	0.1561
339.0445	0.1582
339.2543	0.1528
339.4642	0.1585
339.674	0.1563
339.8838	0.16
340.0936	0.1594
340.3034	0.1595
340.5132	0.1525
340.7229	0.1574
340.9327	0.1671
341.1424	0.1577
341.3522	0.1556
341.5619	0.1574
341.7716	0.1651
341.9813	0.1601
342.1909	0.1629
342.4006	0.167
342.6102	0.1605
342.8199	0.164
343.0295	0.1626
343.2391	0.1627
343.4487	0.1695
343.6583	0.1813
343.8679	0.1681
344.0774	0.1702
344.287	0.172
344.4965	0.1756
344.706	0.1867
344.9155	0.1658
345.125	0.1728
345.3345	0.1795
345.544	0.176
345.7534	0.1807
345.9629	0.1821
346.1723	0.1732
346.3817	0.1793
346.5911	0.1872
346.8005	0.1882
347.0099	0.1844
347.2193	0.1889
347.4286	0.1946
347.638	0.1889
347.8473	0.1896
348.0566	0.1843
348.2659	0.1888
348.4752	0.189
348.6845	0.1885
348.8937	0.1866
349.103	0.1909
349.3122	0.1928
349.5214	0.1955
349.7306	0.1974
349.9398	0.1975
350.149	0.1872
350.3582	0.1918
350.5674	0.2048
350.7765	0.1958
350.9856	0.1898
351.1948	0.1907
351.4039	0.1965
351.613	0.1988
351.822	0.196
352.0311	0.1974
352.2402	0.1918
352.4492	0.1926
352.6582	0.1962
352.8672	0.1947
353.0762	0.1965
353.2852	0.1912
353.4942	0.1891
353.7032	0.1951
353.9121	0.19
354.1211	0.1959
354.33	0.1966
354.5389	0.191
354.7478	0.1875
354.9567	0.1876
355.1655	0.192
355.3744	0.1882
355.5833	0.188
355.7921	0.1907
356.0009	0.1856
356.2097	0.1886
356.4185	0.1937
356.6273	0.1928
356.8361	0.1869
357.0448	0.1898
357.2536	0.1896
357.4623	0.1896
357.671	0.1846
357.8797	0.1919
358.0884	0.1792
358.2971	0.1932
358.5057	0.1919
358.7144	0.1899
358.923	0.19
359.1316	0.198
359.3402	0.1896
359.5488	0.1896
359.7574	0.1884
359.966	0.1996
360.1746	0.192
360.3831	0.1938
360.5916	0.1958
360.8002	0.2066
361.0087	0.1944
361.2172	0.1973
361.4256	0.1912
361.6341	0.1997
361.8426	0.1937
362.051	0.206
362.2594	0.199
362.4678	0.204
362.6762	0.203
362.8846	0.2014
363.093	0.1959
363.3014	0.2056
363.5097	0.205
363.718	0.2105
363.9264	0.1984
364.1347	0.2102
364.343	0.2134
364.5513	0.2042
364.7595	0.2144
364.9678	0.2057
365.176	0.2094
365.3842	0.2085
365.5925	0.2055
365.8007	0.2106
366.0089	0.2168
366.217	0.2104
366.4252	0.2116
366.6333	0.2112
366.8415	0.2181
367.0496	0.2092
367.2577	0.2138
367.4658	0.2178
367.6739	0.2091
367.882	0.2201
368.09	0.2001
368.2981	0.2176
368.5061	0.2154
368.7141	0.2111
368.9221	0.2259
369.1301	0.2175
369.3381	0.2253
369.5461	0.2197
369.754	0.2334
369.962	0.2148
370.1699	0.2313
370.3778	0.2256
370.5857	0.2194
370.7936	0.2226
371.0015	0.2269
371.2093	0.2234
371.4172	0.2232
371.625	0.2229
371.8328	0.2293
372.0406	0.2297
372.2484	0.2319
372.4562	0.2325
372.664	0.2288
372.8717	0.2283
373.0795	0.2326
373.2872	0.2291
373.4949	0.2294
373.7026	0.2282
373.9103	0.2312
374.118	0.2369
374.3256	0.2398
374.5333	0.241
374.7409	0.2359
374.9485	0.2356
375.1561	0.2411
375.3637	0.229
375.5713	0.2366
375.7789	0.234
375.9864	0.2401
376.194	0.2445
376.4015	0.2401
376.609	0.242
376.8165	0.2415
377.024	0.2393
377.2315	0.243
377.4389	0.2446
377.6464	0.2453
377.8538	0.2452
378.0612	0.2429
378.2686	0.2505
378.476	0.2424
378.6834	0.243
378.8908	0.2459
379.0981	0.2477
379.3055	0.2469
379.5128	0.2373
379.7201	0.2491
379.9274	0.2398
380.1347	0.2381
380.342	0.2476
380.5492	0.2459
380.7565	0.2536
380.9637	0.2603
381.1709	0.2457
381.3781	0.2494
381.5853	0.2499
381.7925	0.2473
381.9997	0.2615
382.2068	0.2579
382.4139	0.2555
382.6211	0.2528
382.8282	0.2541
383.0353	0.2547
383.2424	0.258
383.4494	0.2599
383.6565	0.2614
383.8635	0.2515
384.0706	0.2634
384.2776	0.249
384.4846	0.2609
384.6916	0.2499
384.8986	0.2615
385.1055	0.2683
385.3125	0.2533
385.5194	0.2606
385.7263	0.2503
385.9333	0.256
386.1402	0.2615
386.347	0.252
386.5539	0.2594
386.7608	0.2579
386.9676	0.2553
387.1744	0.2537
387.3813	0.2594
387.5881	0.243
387.7948	0.2536
388.0016	0.2646
388.2084	0.2541
388.4151	0.2611
388.6219	0.2562
388.8286	0.2504
389.0353	0.2545
389.242	0.2592
389.4487	0.2459
389.6553	0.2469
389.862	0.2463
390.0686	0.2537
390.2753	0.2559
390.4819	0.2614
390.6885	0.2472
390.8951	0.2513
391.1016	0.2528
391.3082	0.2536
391.5147	0.247
391.7213	0.2394
391.9278	0.2432
392.1343	0.2433
392.3408	0.2448
392.5473	0.2462
392.7537	0.2421
392.9602	0.2332
393.1666	0.2363
393.373	0.2455
393.5794	0.2235
393.7858	0.2375
393.9922	0.228
394.1986	0.2388
394.4049	0.2467
394.6113	0.24
394.8176	0.2305
395.0239	0.234
395.2302	0.2324
395.4365	0.2351
395.6428	0.2316
395.8491	0.2259
396.0553	0.2256
396.2615	0.2333
396.4678	0.228
396.674	0.2287
396.8802	0.2237
397.0863	0.2213
397.2925	0.2225
397.4987	0.2172
397.7048	0.2243
397.9109	0.2093
398.117	0.2085
398.3231	0.2213
398.5292	0.2153
398.7353	0.218
398.9413	0.2239
399.1474	0.2193
399.3534	0.2132
399.5594	0.2183
399.7654	0.2193
399.9714	0.2118
400.1774	0.2142
400.3833	0.2162
400.5893	0.2173
400.7952	0.219
401.0011	0.2121
401.207	0.2212
401.4129	0.2177
401.6188	0.2116
401.8247	0.2168
402.0305	0.2082
402.2364	0.2185
402.4422	0.2214
402.648	0.2149
402.8538	0.214
403.0596	0.2145
403.2654	0.2044
403.4711	0.2129
403.6768	0.2188
403.8826	0.2195
404.0883	0.2184
404.294	0.2063
404.4997	0.2154
404.7054	0.2139
404.911	0.211
405.1167	0.2097
405.3223	0.208
405.5279	0.2185
405.7335	0.2131
405.9391	0.2094
406.1447	0.2201
406.3502	0.2097
406.5558	0.221
406.7613	0.2063
406.9668	0.2149
407.1724	0.2141
407.3778	0.2125
407.5833	0.2101
407.7888	0.2149
407.9942	0.2039
408.1997	0.2187
408.4051	0.2119
408.6105	0.2205
408.8159	0.2137
409.0213	0.2146
409.2267	0.2215
409.432	0.2241
409.6374	0.2165
409.8427	0.2153
410.048	0.2126
410.2533	0.2189
410.4586	0.2035
410.6639	0.2184
410.8691	0.2035
411.0744	0.211
411.2796	0.2092
411.4848	0.2162
411.69	0.2128
411.8952	0.211
412.1004	0.214
412.3056	0.2047
412.5107	0.2211
412.7158	0.2172
412.921	0.2107
413.1261	0.2065
413.3312	0.2092
413.5362	0.2231
413.7413	0.2058
413.9464	0.205
414.1514	0.2078
414.3564	0.2075
414.5614	0.2072
414.7664	0.2113
414.9714	0.2019
415.1764	0.2173
415.3813	0.2034
415.5863	0.2165
415.7912	0.2063
415.9961	0.2005
416.201	0.2136
416.4059	0.2076
416.6108	0.2008
416.8156	0.2019
417.0205	0.2045
417.2253	0.2061
417.4301	0.2056
417.6349	0.1927
417.8397	0.1967
418.0445	0.2082
418.2492	0.2103
418.454	0.1988
418.6587	0.2036
418.8634	0.2056
419.0681	0.2027
419.2728	0.205
419.4775	0.1998
419.6822	0.1972
419.8868	0.2002
420.0915	0.2016
420.2961	0.1877
420.5007	0.2042
420.7053	0.2002
420.9099	0.2008
421.1144	0.1996
421.319	0.186
421.5235	0.1917
421.728	0.1969
421.9325	0.1927
422.137	0.1947
422.3415	0.1904
422.546	0.1869
422.7504	0.1912
422.9549	0.2013
423.1593	0.1887
423.3637	0.1968
423.5681	0.1948
423.7725	0.1877
423.9769	0.1833
424.1812	0.1856
424.3856	0.1801
424.5899	0.1893
424.7942	0.1876
424.9985	0.1779
425.2028	0.1866
425.4071	0.1834
425.6113	0.1916
425.8156	0.1828
426.0198	0.1801
426.224	0.184
426.4282	0.1744
426.6324	0.1785
426.8366	0.1721
427.0407	0.1755
427.2449	0.169
427.449	0.172
427.6531	0.1836
427.8572	0.1621
428.0613	0.1785
428.2654	0.1766
428.4694	0.1561
428.6735	0.1637
428.8775	0.1732
429.0815	0.1683
429.2855	0.1645
429.4895	0.1641
429.6935	0.1613
429.8975	0.1544
430.1014	0.1607
430.3053	0.1612
430.5093	0.1552
430.7132	0.1513
430.9171	0.1554
431.1209	0.1577
431.3248	0.1545
431.5286	0.1445
431.7325	0.1495
431.9363	0.138
432.1401	0.1592
432.3439	0.1458
432.5477	0.1446
432.7514	0.1452
432.9552	0.1442
433.1589	0.1356
433.3627	0.1472
433.5664	0.1259
433.7701	0.1405
433.9737	0.1399
434.1774	0.1325
434.3811	0.1315
434.5847	0.1339
434.7883	0.1304
434.9919	0.1236
435.1955	0.1301
435.3991	0.1345
435.6027	0.1241
435.8062	0.1316
436.0098	0.1245
436.2133	0.1166
436.4168	0.1226
436.6203	0.11
436.8238	0.123
437.0272	0.1188
437.2307	0.1126
437.4341	0.1136
437.6375	0.1066
437.841	0.0982
438.0443	0.11
438.2477	0.1052
438.4511	0.106
438.6545	0.1009
438.8578	0.1045
439.0611	0.1077
439.2644	0.1016
439.4677	0.1048
439.671	0.0883
439.8743	0.0995
440.0775	0.0986
440.2808	0.0978
440.484	0.0893
440.6872	0.0884
440.8904	0.0775
441.0936	0.0915
441.2967	0.0783
441.4999	0.0841
441.703	0.0832
441.9062	0.0893
442.1093	0.087
442.3124	0.0818
442.5155	0.0839
442.7185	0.0821
442.9216	0.0789
443.1246	0.0791
443.3276	0.0839
443.5307	0.0702
443.7337	0.0758
443.9366	0.0659
444.1396	0.0685
444.3426	0.0671
444.5455	0.0641
444.7484	0.067
444.9513	0.0688
445.1542	0.0638
445.3571	0.0605
445.56	0.0615
445.7628	0.0589
445.9657	0.0605
446.1685	0.066
446.3713	0.0656
446.5741	0.0718
446.7769	0.0652
446.9797	0.0598
447.1824	0.0615
447.3852	0.0371
447.5879	0.0498
447.7906	0.0515
447.9933	0.0514
448.196	0.0485
448.3986	0.0519
448.6013	0.0367
448.8039	0.0547
449.0066	0.0479
449.2092	0.0543
449.4118	0.0431
449.6143	0.0571
449.8169	0.0468
450.0195	0.044
450.222	0.053
450.4245	0.0418
450.627	0.0494
450.8295	0.0414
451.032	0.0397
451.2345	0.0337
451.4369	0.0371
451.6394	0.0441
451.8418	0.0473
452.0442	0.0359
452.2466	0.0312
452.449	0.031
452.6513	0.0348
452.8537	0.028
453.056	0.0374
453.2583	0.0303
453.4607	0.0249
453.663	0.0398
453.8652	0.0269
454.0675	0.0387
454.2697	0.0348
454.472	0.0246
454.6742	0.0381
454.8764	0.0436
455.0786	0.022
455.2808	0.0265
455.4829	0.0378
455.6851	0.0293
455.8872	0.0196
456.0893	0.0391
456.2915	0.0206
456.4935	0.0332
456.6956	0.0298
456.8977	0.0211
457.0997	0.0291
457.3018	0.0177
457.5038	0.0291
457.7058	0.0217
457.9078	0.0275
458.1098	0.0232
458.3117	0.0206
458.5137	0.0045
458.7156	0.018
458.9175	0.0247
459.1194	0.0334
459.3213	0.018
459.5232	0.0256
459.725	0.0258
459.9269	0.0223
460.1287	0.0116
460.3305	0.0255
460.5323	0.0182
460.7341	0.0249
460.9359	0.0182
461.1376	0.0136
461.3394	0.0252
461.5411	0.025
461.7428	0.0177
461.9445	0.0178
462.1462	0.0133
462.3479	0.0115
462.5495	0.0209
462.7512	0.0296
462.9528	0.0142
463.1544	0.0091
463.356	0.022
463.5576	0.0184
463.7592	0.0122
463.9607	0.0128
464.1623	0.0085
464.3638	0.0047
464.5653	0.0162
464.7668	0.0184
464.9683	0.0158
465.1697	0.0161
465.3712	0.0068
465.5726	0.0153
465.7741	0.012
465.9755	0.014
466.1769	0.0165
466.3782	0.0116
466.5796	0.0229
466.7809	0.0144
466.9823	0.0143
467.1836	0.015
467.3849	0.0205
467.5862	0.0037
467.7875	0.006
467.9887	0.0201
468.19	0.0181
468.3912	0.0191
468.5924	0.0033
468.7936	0.0142
468.9948	0.0092
469.196	0.0064
469.3972	0.001
469.5983	0.0092
469.7994	0.0177
470.0006	0.012
470.2017	0.0134
470.4027	0.0262
470.6038	0.0031
470.8049	0.0117
471.0059	0.0156
471.2069	0.0105
471.408	0.0179
471.6089	0.012
471.8099	0.0078
472.0109	0.0069
472.2119	0.0264
472.4128	0.0135
472.6137	0.011
472.8146	0.0164
473.0155	0.0106
473.2164	0.0045
473.4173	0.0007
473.6181	0.0143
473.819	0.0088
474.0198	0.0072
474.2206	-0.0055
474.4214	0.0134
474.6222	-0.0065
474.8229	0.0072
475.0237	0.0115
475.2244	0.0139
475.4251	0.0058
475.6258	0.0127
475.8265	0.0094
476.0272	0.003
476.2278	0.0115
476.4285	0.0097
476.6291	0.0082
476.8297	0.0105
477.0303	0.0033
477.2309	0.0135
477.4315	0.016
477.632	0.005
477.8326	0.0078
478.0331	0.0103
478.2336	0.0095
478.4341	0.0161
478.6346	0.0053
478.8351	0.0127
479.0355	0.0159
479.236	0.0179
479.4364	0.0195
479.6368	0.0109
479.8372	0.0071
480.0376	0.0048
480.2379	0.0101
480.4383	0.0159
480.6386	0.0032
480.8389	0.0087
481.0392	0.0055
481.2395	0.0101
481.4398	0.0075
481.6401	0.0118
481.8403	0.0045
482.0405	0.0104
482.2408	0.0132
482.441	0.0154
482.6411	0.0114
482.8413	0.007
483.0415	0.0174
483.2416	0.0044
483.4417	0.0063
483.6419	0.0084
483.8419	0.0135
484.042	0.0082
484.2421	0.0061
484.4422	0.0113
484.6422	0.0101
484.8422	0.0059
485.0422	0.008
485.2422	0.0024
485.4422	0.0042
485.6422	0.0084
485.8421	0.0045
486.042	0.0175
486.242	0.0057
486.4419	0.0143
486.6417	0.0102
486.8416	0.0099
487.0415	0.003
487.2413	-0.0011
487.4411	0.0112
487.641	0.0044
487.8408	0.013
488.0405	0.0196
488.2403	0.0098
488.4401	0.0088
488.6398	0.0199
488.8395	0.0091
489.0392	0.0182
489.2389	0.0134
489.4386	0.001
489.6383	0.0134
489.8379	0.0146
490.0376	0.0099
490.2372	0.0084
490.4368	0.0073
490.6364	0.0044
490.836	0.0014
491.0355	-0.0009
491.2351	0.004
491.4346	0.008
491.6341	0.0111
491.8336	0.0106
492.0331	0.0089
492.2326	0.0135
492.432	0.0053
492.6315	0.0136
492.8309	0.0128
493.0303	0.009
493.2297	0.0078
493.4291	0.0071
493.6284	0.0164
493.8278	0.0092
494.0271	0.0103
494.2264	0.0112
494.4257	0.0104
494.625	0.0058
494.8243	0.0072
495.0236	0.0109
495.2228	0.0083
495.422	0.0154
495.6213	0.0068
495.8205	0.0134
496.0196	0.0141
496.2188	0.0074
496.418	0.0094
496.6171	0.003
496.8162	0.0078
497.0153	0.0144
497.2144	0.0088
497.4135	0.0043
497.6126	0.0075
497.8116	0.0041
498.0107	0.012
498.2097	0.0122
498.4087	0.0029
498.6077	0.004
498.8067	0.0083
499.0056	0.0052
499.2046	0.0195
499.4035	0.0117
499.6024	-0.0035
499.8013	0.0126
500.0002	0.0151
500.199	0.0138
500.3979	-0.0027
500.5967	0.01
500.7956	0.0089
500.9944	0.0111
501.1932	0.0069
501.3919	0.014
501.5907	0.0179
501.7895	0.0102
501.9882	0.0111
502.1869	0.0129
502.3856	0.0094
502.5843	0.0065
502.783	0.0051
502.9816	0.0064
503.1803	0.0066
503.3789	0.0151
503.5775	0.0093
503.7761	0.0027
503.9747	0.0099
504.1732	0.002
504.3718	0.0154
504.5703	0.0083
504.7689	0.0026
504.9674	0.0045
505.1658	0.0081
505.3643	0.0175
505.5628	0.0134
505.7612	0.0132
505.9597	0.0031
506.1581	0.0069
506.3565	0.0074
506.5549	0.0101
506.7532	0.0002
506.9516	0.0086
507.1499	0.0036
507.3482	0.0139
507.5465	0.0124
507.7448	0.0086
507.9431	0.0134
508.1414	0.0038
508.3396	0.0126
508.5379	0.0084
508.7361	0.014
508.9343	0.0166
509.1325	0.0123
509.3306	0.0046
509.5288	-0.0055
509.7269	0.0169
509.9251	0.015
510.1232	0.0164
510.3213	0.0108
510.5193	0.0026
510.7174	0.0116
510.9154	0.0031
511.1135	0.0087
511.3115	0.0073
511.5095	0.0075
511.7075	0.0087
511.9055	0.0107
512.1034	0.0152
512.3014	0.0071
512.4993	0.013
512.6972	0.0034
512.8951	0.0102
513.093	0.004
513.2908	0.0128
513.4887	0.0119
513.6865	0.0046
513.8844	0.0173
514.0822	0.0077
514.2799	-0.0018
514.4777	-0.0007
514.6755	0.0106
514.8732	0.0032
515.0709	0.0097
515.2687	0.0015
515.4664	0.0194
515.664	0.0148
515.8617	0.0179
516.0594	0.0105
516.257	0.0046
516.4546	0.0241
516.6522	0.0055
516.8498	0.0072
517.0474	0.0094
517.2449	0.0104
517.4425	0.0164
517.64	0.0074
517.8375	0.0123
518.035	0.0061
518.2325	0.0002
518.43	0.0013
518.6274	0.0103
518.8249	0.0015
519.0223	0.0166
519.2197	0.0054
519.4171	0.0021
519.6145	0.0194
519.8118	0.003
520.0092	0.0019
520.2065	0.0213
520.4038	0.0091
520.6011	0.0163
520.7984	0.0107
520.9956	0.0213
521.1929	0.0035
521.3901	0.0147
521.5874	0.0078
521.7846	0.0033
521.9818	0.0141
522.1789	0.0058
522.3761	0.0191
522.5732	0.0147
522.7704	0.0006
522.9675	0.0018
523.1646	0.0079
523.3617	0.0188
523.5587	0.0104
523.7558	0.0107
523.9528	0.0206
524.1498	0.0132
524.3468	0.0125
524.5438	0.0108
524.7408	-0.002
524.9378	0.0116
525.1347	0.0144
525.3316	0.0095
525.5285	0.0075
525.7254	0.0068
525.9223	0.0155
526.1192	0.0059
526.316	0.0096
526.5129	0.0125
526.7097	0.0037
526.9065	0.0122
527.1033	0.0173
527.3	0.0029
527.4968	0.009
527.6935	0.0047
527.8903	0.0018
528.087	0.006
528.2837	0.0164
528.4804	0.0001
528.677	0.0049
528.8737	0.0158
529.0703	-0.0021
529.2669	0.011
529.4635	0.001
529.6601	0.0039
529.8567	0.0038
530.0532	0.0078
530.2498	0.0026
530.4463	0.0053
530.6428	0.0142
530.8393	0.0138
531.0358	0.0094
531.2322	0.003
531.4287	0.0051
531.6251	0.0086
531.8215	0.0016
532.0179	0.0123
532.2143	0.0107
532.4107	0.0177
532.607	0.0062
532.8034	0.0016
532.9997	0.0039
533.196	0.0129
533.3923	0.0072
533.5886	0.0115
533.7848	0.0029
533.9811	0.0044
534.1773	0.0091
534.3735	0.0139
534.5697	0.0045
534.7659	0.0089
534.9621	0.0119
535.1582	0.0143
535.3544	0.0163
535.5505	0.0133
535.7466	0.0099
535.9427	0.0028
536.1387	-0.0034
536.3348	0.0076
536.5308	-0.001
536.7269	0.0049
536.9229	0.0148
537.1189	0.0116
537.3148	0.0161
537.5108	0.0125
537.7068	0.0137
537.9027	0.0031
538.0986	0.0085
538.2945	-0.0011
538.4904	0.006
538.6863	0.0032
538.8821	0.017
539.078	0.0054
539.2738	-0.0006
539.4696	-0.0031
539.6654	0.0079
539.8611	0.0062
540.0569	0.0117
540.2526	0.0238
540.4484	0.0057
540.6441	0.0052
540.8398	0.0165
541.0355	-0.0009
541.2311	-0.0036
541.4268	0.0107
541.6224	0.0187
541.818	0.0067
542.0136	0.0102
542.2092	0.0127
542.4048	0.0141
542.6003	0.0048
542.7959	0.0087
542.9914	0.0072
543.1869	0.0101
543.3824	0.0063
543.5779	0.01
543.7734	0.0246
543.9688	0.0122
544.1642	0.0007
544.3596	0.0083
544.555	0.0088
544.7504	0.0174
544.9458	0.0148
545.1411	0.0062
545.3365	0.0094
545.5318	0.0097
545.7271	0.0141
545.9224	0.0054
546.1177	0.0142
546.3129	0.0073
546.5081	0.0049
546.7034	0.0123
546.8986	0.0096
547.0938	0.0162
547.289	0.0094
547.4841	0.0138
547.6793	0.0101
547.8744	0.0107
548.0695	0.0123
548.2646	0.0031
548.4597	0.0059
548.6548	0.0167
548.8498	0.0199
549.0448	-0.0053
549.2399	0.0121
549.4349	0.0117
549.6298	0.0022
549.8248	0.0074
550.0198	0.0121
550.2147	0.0185
550.4096	-0.0029
550.6045	0.0068
550.7994	0.0065
550.9943	0.0109
551.1892	-0.0098
551.384	0.0168
551.5788	0.005
551.7737	0.0136
551.9685	0.013
552.1632	0.001
552.358	0.0032
552.5528	0.009
552.7475	0.0129
552.9422	0.0188
553.1369	0.0111
553.3316	0.0085
553.5263	0.0126
553.7209	0.0089
553.9156	0.0094
554.1102	0.0226
554.3048	-0.0047
554.4994	0.0044
554.694	0.009
554.8885	0.0155
555.0831	0.0107
555.2776	0.0103
555.4721	0.0071
555.6666	0.0088
555.8611	0.0068
556.0555	0.0122
556.25	0.0133
556.4444	0.0035
556.6388	0.003
556.8332	0.0086
557.0276	0.0136
557.222	0.0046
557.4163	0.0097
557.6107	0.0078
557.805	-0.0003
557.9993	0.0054
558.1936	0.0056
558.3879	0.0113
558.5821	0.005
558.7764	-0.0009
558.9706	-0.003
559.1648	0.0138
559.359	0.0065
559.5532	0.0086
559.7473	-0.0024
559.9415	0.011
560.1356	0.0194
560.3297	-0.0057
560.5238	0.0095
560.7179	0.0062
560.9119	0.0029
561.106	0.0054
561.3	0.001
561.494	-0.0016
561.688	0.0083
561.882	0.0025
562.076	0.0068
562.2699	0.0102
562.4639	0.0213
562.6578	0.0057
562.8517	0.0052
563.0456	0.0059
563.2395	0.0113
563.4333	0.0087
563.6272	0.0159
563.821	0.0024
564.0148	0.0102
564.2086	0.0141
564.4024	0.0168
564.5961	0.0055
564.7899	0.022
564.9836	0.0046
565.1773	0.0108
565.371	0.0044
565.5647	0.0145
565.7584	0.0153
565.952	0.0047
566.1456	0.0049
566.3393	0.0107
566.5329	0.0028
566.7264	0.0056
566.92	0.0043
567.1136	0.0141
567.3071	0.0052
567.5006	0.0179
567.6941	0.008
567.8876	0.0068
568.0811	0.0289
568.2745	0.0046
568.468	0.0107
568.6614	0.008
568.8548	0.011
569.0482	0.0096
569.2416	0.0098
569.4349	0.0036
569.6283	0.0103
569.8216	0.0135
570.0149	0.0047
570.2082	0.0105
570.4015	0.0092
570.5947	0.0133
570.788	0.0107
570.9812	0.0042
571.1744	0.0092
571.3676	0.0048
571.5608	0.0027
571.754	0.018
571.9471	0.0126
572.1402	0.0075
572.3333	0.0088
572.5264	0.0086
572.7195	0.0047
572.9126	0.0092
573.1057	0.0082
573.2987	0.0077
573.4917	0.0074
573.6847	0.007
573.8777	0.0102
574.0707	0.0081
574.2636	0.0084
574.4566	0.0043
574.6495	0.0072
574.8424	0.0083
575.0353	0.0125
575.2281	0.0094
575.421	0.0034
575.6138	0.0067
575.8067	0.0097
575.9995	0.0075
576.1923	0.012
576.385	0.0122
576.5778	0.0122
576.7706	0.0089
576.9633	0.0129
577.156	0.0022
577.3487	0.0091
577.5414	0.0065
577.734	0.0036
577.9267	0.0061
578.1193	0.0111
578.3119	0.0094
578.5045	0.0076
578.6971	0.0056
578.8897	0.0085
579.0822	0.009
579.2747	0.0061
579.4673	0.0096
579.6598	0.0101
579.8522	0.0084
580.0447	0.0121
580.2372	0.007
580.4296	0.0117
580.622	0.0039
580.8144	0.0073
581.0068	0.009
581.1992	0.0096
581.3915	0.0038
581.5839	0.0087
581.7762	0.0084
581.9685	0.0087
582.1608	0.0037
582.353	0.0065
582.5453	0.0091
582.7375	0.0086
582.9298	0.0056
583.122	0.0047
583.3142	0.008
583.5063	0.0066
583.6985	0.0052
583.8906	0.0029
584.0827	0.0101
584.2749	0.0037
584.4669	0.0079
584.659	0.0115
584.8511	0.0116
585.0431	0.0114
585.2352	0.0058
585.4272	0.0073
585.6192	0.0109
585.8111	0.0072
586.0031	0.0057
586.195	0.0039
586.387	0.0046
586.5789	0.0129
586.7708	0.0123
586.9627	0.0096
587.1545	0.0101
587.3464	0.0071
587.5382	0.0095
587.73	0.0145
587.9218	0.0086
588.1136	0.0073
588.3053	0.0062
588.4971	0.0051
588.6888	0.003
588.8805	0.008
589.0722	0.0171
589.2639	0.0067
589.4556	0.0123
589.6472	0.0135
589.8389	0.0059
590.0305	0.0081
590.2221	0.0146
590.4137	0.0077
590.6052	0.0135
590.7968	0.0067
590.9883	0.009
591.1798	0.0123
591.3713	0.0077
591.5628	0.0069
591.7543	0.0068
591.9458	0.0013
592.1372	0.009
592.3286	0.0053
592.52	0.0082
592.7114	0.0073
592.9028	0.0161
593.0941	0.0068
593.2855	0.0084
593.4768	0.0143
593.6681	0.0054
593.8594	0.0123
594.0506	0.0101
594.2419	0.0045
594.4331	0.0102
594.6244	0.0033
594.8156	0.0049
595.0067	0.0048
595.1979	0.0102
595.3891	0.0082
595.5802	0.0117
595.7713	0.009
595.9624	0.0149
596.1535	0.0054
596.3446	0.0023
596.5357	0.0103
596.7267	0.011
596.9177	0.0013
597.1087	0.0027
597.2997	0.0117
597.4907	0.0023
597.6817	0.0191
597.8726	0.0102
598.0635	0.0086
598.2544	0.0129
598.4453	0.0075
598.6362	0.0089
598.827	0.0051
599.0179	0.0074
599.2087	0.0152
599.3995	0.0118
599.5903	0.0162
599.7811	0.0166
599.9718	0.0049
600.1626	0.0075
600.3533	0.0023
600.544	0.0032
600.7347	0.0089
600.9254	0.0162
601.116	0.0093
601.3067	0.0028
601.4973	0.0114
601.6879	0.0091
601.8785	0.0087
602.0691	0.0101
602.2596	0.0107
602.4502	0.01
602.6407	0.0158
602.8312	0.0081
603.0217	-0.0012
603.2122	0.0054
603.4027	0.0073
603.5931	0.0018
603.7835	0.0058
603.9739	0.0007
604.1643	0.013
604.3547	0.0123
604.5451	0.0166
604.7354	0.0059
604.9257	0.0057
605.116	0.006
605.3063	0.0113
605.4966	0.006
605.6869	0.0125
605.8771	0.0102
606.0673	0.0127
606.2575	0.0087
606.4477	0.012
606.6379	0.0036
606.8281	0.0057
607.0182	0.003
607.2083	0.0086
607.3985	0.0038
607.5885	0.0055
607.7786	0.011
607.9687	0.0032
608.1587	0.0086
608.3488	0.0091
608.5388	0.0065
608.7288	0.003
608.9187	0.0037
609.1087	0.0147
609.2986	0.0045
609.4886	0.0065
609.6785	0.0117
609.8684	0.0034
610.0582	0.0057
610.2481	0.0013
610.4379	0.012
610.6278	0.0041
610.8176	0.0146
611.0074	0.0086
611.1971	0.003
611.3869	0.0134
611.5766	-0.0011
611.7664	0.0162
611.9561	0.0097
612.1458	0.0078
612.3354	0.0102
612.5251	0.0062
612.7147	0.0081
612.9044	0.0026
613.094	0.0094
613.2836	0.0005
613.4731	0.0073
613.6627	0.0108
613.8522	0.0076
614.0417	0.0178
614.2313	0.0095
614.4207	0.0111
614.6102	0.0169
614.7997	0.0164
614.9891	0.0087
615.1785	0.0044
615.3679	0.0163
615.5573	0.0075
615.7467	0.0041
615.9361	0.0081
616.1254	0.0122
616.3147	0.006
616.504	0.0065
616.6933	0.0062
616.8826	0.0037
617.0718	0.0058
617.2611	0.005
617.4503	0.0127
617.6395	0.0042
617.8287	0.0089
618.0179	0.0135
618.207	0.01
618.3961	0.0089
618.5853	0.0024
618.7744	0.0083
618.9634	0.0117
619.1525	0.0069
619.3416	0.0002
619.5306	0.0079
619.7196	0.0076
619.9086	0.014
620.0976	-0.0039
620.2866	0.0054
620.4755	0.0103
620.6645	0.0233
620.8534	0.0098
621.0423	0.0063
621.2312	0.005
621.42	0.0005
621.6089	0.0148
621.7977	0.0062
621.9865	0.0059
622.1753	0.0015
622.3641	0.0047
622.5529	0.0017
622.7416	0.0009
622.9303	-0.0032
623.1191	0.0052
623.3078	0.0051
623.4964	0.0011
623.6851	0.0045
623.8737	0.0079
624.0624	-0.0059
624.251	0.0078
624.4396	0.0055
624.6282	0.0139
624.8167	-0.0035
625.0053	0.0116
625.1938	0.0098
625.3823	0.014
625.5708	-0.001
625.7593	0.0078
625.9477	0.0098
626.1362	0.0048
626.3246	0.0087
626.513	0.0091
626.7014	0.0065
626.8898	0.0117
627.0781	0.0147
627.2665	0.0286
627.4548	-0.0015
627.6431	0.0146
627.8314	0.0173
628.0197	0.0003
628.2079	-0.0003
628.3962	0.0062
628.5844	0.0092
628.7726	0.0003
628.9608	0.0013
629.1489	0.0088
629.3371	-0.0128
629.5252	0.0124
629.7134	0.0014
629.9015	0.0111
630.0895	-0.0057
630.2776	0.0071
630.4657	0.0126
630.6537	0.0052
630.8417	0.0002
631.0297	-0.0011
631.2177	0.008
631.4057	0.014
631.5936	0.004
631.7815	-0.0015
631.9695	0.0141
632.1574	0.0104
632.3452	0.0128
632.5331	0.0057
632.7209	0.0139
632.9088	-0.0042
633.0966	0.0347
633.2844	0.0069
633.4722	0.0074
633.6599	0.0285
633.8477	0.0123
634.0354	0.0205
634.2231	-0.0047
634.4108	-0.0003
634.5985	0.0175
634.7861	0.003
634.9738	0.0044
635.1614	-0.0006
635.349	-0.005
635.5366	0.0098
635.7242	0.0052
635.9117	0.0088
636.0993	0.0115
636.2868	-0.004
636.4743	0.0099
636.6618	-0.004
636.8492	0.018
637.0367	-0.0041
637.2241	0.0085
637.4115	0.0271
637.5989	0.0056
637.7863	0.022
637.9737	-0.0003
638.161	0.0107
638.3484	-0.0102
638.5357	0.008
638.723	0.0178
638.9103	-0.0125
639.0975	0.002
639.2848	0.0087
639.472	0.0074
639.6592	0.008
639.8464	0.0035
640.0336	0.0027
640.2208	-0.0042
640.4079	0.0074
640.595	0.0065
640.7821	0.014
640.9692	-0.0071
641.1563	0.0057
641.3434	-0.0062
641.5304	0.0141
641.7174	0.0247
641.9044	0.0229
642.0914	0.0172
642.2784	0.0046
642.4653	0.0067
642.6523	0.0177
642.8392	-0.0233
643.0261	0.0145
643.213	0.0103
643.3999	-0.001
643.5867	0.0066
643.7735	0.0018
643.9604	0.0095
644.1472	0.0125
644.3339	0.0066
644.5207	-0.0027
644.7075	-0.0051
644.8942	-0.0095
645.0809	-0.0034
645.2676	-0.0143
645.4543	0.004
645.6409	0.0326
645.8276	0.0099
646.0142	0.0118
646.2008	0.0023
646.3874	-0.0079
646.574	0.0079
646.7605	-0.0047
646.9471	-0.0092
647.1336	-0.0175
647.3201	0.0171
647.5066	-0.0008
647.6931	-0.0012
647.8795	0.0057
648.0659	-0.0094
648.2524	0.0061
648.4388	0.0182
648.6252	0.009
648.8115	0.0019
648.9979	0.011
649.1842	0.0077
649.3705	0.0061
649.5568	-0.0015
649.7431	-0.0004
649.9294	-0.0038
650.1156	-0.0048
650.3018	0.0121
650.488	0.0147
650.6742	0.0266
650.8604	0.0271
651.0466	0.004
651.2327	0.0046
651.4188	-0.0022
651.6049	0.0194
651.791	0.01
651.9771	0.0128
652.1632	0.0142
652.3492	0.0209
652.5352	0.0111
652.7212	0.0193
652.9072	0.0093
653.0932	0.0105
653.2791	0.0093
653.465	0.0057
653.651	0.0048
653.8369	0.0159
654.0227	-0.0052
654.2086	0.0125
654.3944	0.0078
654.5803	0.0058
654.7661	0.0091
654.9519	0.0012
655.1377	0.0001
655.3234	0.0001
655.5092	0.0001
655.6949	0.0001
655.8806	0.0001
656.0663	0.0001
656.2519	0.0001
656.4376	0.0001
656.6232	0.0001
656.8088	0.0001
656.9945	0.0001
657.18	0.0001
657.3656	0.0001
657.5511	0.0001
657.7367	0.0001
657.9222	0.0001
658.1077	0.0001
658.2932	0.0001
658.4786	0.0001
658.6641	0.0001
658.8495	0.0001
659.0349	0.0001
659.2203	0.0001
659.4057	0.0162
659.591	0.2896
659.7764	0.0233
659.9617	0.0196
660.147	0.0015
660.3323	0.0058
660.5176	0.016
660.7028	-0.0088
660.888	0.0014
661.0733	0.0173
661.2585	-0.0199
661.4436	0.003
661.6288	0.0282
661.8139	0.0029
661.9991	-0.0204
662.1842	-0.0126
662.3693	-0.0037
662.5544	0.0264
662.7394	0.0086
662.9245	0.0118
663.1095	-0.0321
663.2945	-0.0216
663.4795	-0.0204
663.6644	0.0119
663.8494	0.0361
664.0343	0.005
664.2193	0.011
664.4042	-0.0106
664.589	0.0153
664.7739	0.0033
664.9587	0.0061
665.1436	-0.0045
665.3284	0.0056
665.5132	-0.0093
665.698	0.017
665.8827	0.0146
666.0675	-0.0114
666.2522	0.0057
666.4369	-0.0267
666.6216	0.0135
666.8063	0.0056
666.9909	0.0201
667.1756	-0.0151
667.3602	-0.0191
667.5448	-0.0012
667.7294	-0.0047
667.9139	-0.0145
668.0985	0.017
668.283	0.0015
668.4675	0.0115
668.652	0.0182
668.8365	0.0085
669.0209	-0.0002
669.2054	0.0094
669.3898	0.0136
669.5742	0.0327
669.7586	0.0064
669.943	0.0156
670.1273	0.0049
670.3117	0.0207
670.496	-0.0034
670.6803	0.0063
670.8646	0.0026
671.0488	0.0284
671.2331	-0.0027
671.4173	0.0183
671.6015	0.004
671.7857	0.0165
671.9699	0.0194
672.1541	0.0001
672.3382	0.0089
672.5223	0.012
672.7064	0.0105
672.8905	-0.0089
673.0746	0.0272
673.2587	0.0285
673.4427	-0.0004
673.6267	0.0001
673.8107	0.0037
673.9947	0.0197
674.1787	-0.0065
674.3626	0.0167
674.5465	0.0169
674.7304	0.0157
674.9143	-0.0037
675.0982	-0.0005
675.2821	0.0033
675.4659	-0.0002
675.6497	0.0138
675.8335	-0.0038
676.0173	-0.0072
676.2011	0.0153
676.3849	-0.0024
676.5686	0.0244
676.7523	0.0135
676.936	0.0161
677.1197	-0.0089
677.3034	0.0342
677.487	-0.0039
677.6706	0.0088
677.8542	0.0126
678.0378	-0.0004
678.2214	0.0173
678.405	0.0071
678.5885	0.0118
678.772	-0.0034
678.9555	0.0036
679.139	0.0077
679.3225	0.001
679.5059	0.002
679.6894	0.0147
679.8728	0.0085
680.0562	0.0048
680.2395	-0.0006
680.4229	-0.0112
680.6062	-0.0132
680.7896	-0.0197
680.9729	0.0218
681.1562	0.0008
681.3394	-0.0008
681.5227	0.0064
681.7059	0.0003
681.8891	0.0205
682.0723	-0.0173
682.2555	0.0035
682.4387	-0.0012
682.6218	0.0192
682.805	0.0194
682.9881	0.0295
683.1712	0.0037
683.3542	0.0189
683.5373	-0.0013
683.7203	0.0102
683.9034	-0.0015
684.0864	0.0011
684.2694	0.0111
684.4523	0.0128
684.6353	0.0051
684.8182	-0.0104
685.0011	0.0132
685.184	0.0031
685.3669	0.0283
685.5498	-0.0067
685.7326	-0.0039
685.9154	-0.0035
686.0982	0.0263
686.281	-0.0019
686.4638	0.0159
686.6465	-0.0101
686.8293	-0.0082
687.012	0.0139
687.1947	0.0026
687.3774	0.0037
687.56	-0.0031
687.7427	-0.001
687.9253	-0.0137
688.1079	-0.0098
688.2905	-0.0121
688.4731	0.0146
688.6556	-0.0058
688.8382	-0.0395
689.0207	0.0067
689.2032	0.0218
689.3857	-0.0031
689.5681	-0.0092
689.7506	0.0067
689.933	-0.0135
690.1154	0.0009
690.2978	0.0082
690.4802	0.0066
690.6626	0.0003
690.8449	0.0085
691.0272	0.0009
691.2095	-0.0147
691.3918	-0.0012
691.5741	0.0112
691.7563	0.0147
691.9386	0.0162
692.1208	0.0125
692.303	-0.0004
692.4852	0.0065
692.6673	0.0062
692.8495	-0.0132
693.0316	0.0076
693.2137	0.0152
693.3958	0.0137
693.5778	0.0039
693.7599	-0.0009
693.9419	0.0001
694.1239	0.0255
694.3059	0.0085
694.4879	-0.007
694.6699	-0.0024
694.8518	0.017
695.0337	0.0077
695.2157	0.0219
695.3975	-0.0028
695.5794	-0.0279
695.7613	0.0369
695.9431	0.0029
696.1249	0.0339
696.3067	0.0134
696.4885	0.0099
696.6703	0.0092
696.852	-0.0056
697.0337	0.0114
697.2154	0.004
697.3971	0.0048
697.5788	0.0098
697.7605	0.0078
697.9421	0.0153
698.1237	0.0193
698.3053	-0.0114
698.4869	0.0065
698.6685	-0.0163
698.85	0.0254
699.0315	-0.011
699.213	-0.0105
699.3945	0.0195
699.576	0.0235
699.7575	0.0176
699.9389	0.0229
700.1203	0.0294
700.3017	-0.0046
700.4831	0.0233
700.6645	0.0154
700.8458	0.0192
701.0271	0.0461
701.2084	0.006
701.3897	0.0282
701.571	-0.0166
701.7523	0.0071
701.9335	-0.0024
702.1147	0.033
702.2959	-0.0111
702.4771	0.0091
702.6583	0.0023
702.8394	-0.0222
703.0205	0.0186
703.2016	0.0045
703.3827	0.0032
703.5638	-0.0036
703.7449	0.046
703.9259	0.0067
704.1069	0.0038
704.2879	-0.0053
704.4689	-0.0077
704.6499	0.0432
704.8308	0.0172
705.0117	0.0447
705.1927	0.0308
705.3735	-0.0041
705.5544	0.0019
705.7353	-0.0147
705.9161	-0.0203
706.0969	0.0183
706.2777	0.0022
706.4585	-0.011
706.6393	0.0236
706.82	0.0232
707.0007	0.012
707.1815	-0.0017
707.3621	0.0314
707.5428	0.019
707.7235	0.0036
707.9041	0.0204
708.0847	0.0285
708.2653	0.0384
708.4459	-0.0061
708.6265	-0.0111
708.807	0.0174
708.9875	-0.01
709.168	-0.0009
709.3485	0.0372
709.529	0.0008
709.7095	0.0159
709.8899	-0.0115
710.0703	0.0048
710.2507	0.0017
710.4311	-0.0148
710.6115	0.0325
710.7918	0.0165
710.9721	0.0085
711.1524	0.0186
711.3327	-0.0061
711.513	-0.0026
711.6932	-0.0061
711.8735	0.026
712.0537	0.008
712.2339	0.0229
712.4141	0.0088
712.5942	-0.001
712.7744	0.0101
712.9545	0.0184
713.1346	0.0317
713.3147	0.0075
713.4947	0.0037
713.6748	0.0122
713.8548	0.0004
714.0348	0.0276
714.2148	0.0233
714.3948	0.0294
714.5748	0.0056
714.7547	0.0042
714.9346	0.0491
715.1145	0.0018
715.2944	-0.0327
715.4743	0.014
715.6541	-0.0357
715.834	0.0768
716.0138	0.0191
716.1936	-0.0191
716.3733	0.0088
716.5531	0.015
716.7328	-0.0161
716.9126	0.0176
717.0923	-0.0429
717.2719	0.0024
717.4516	-0.0054
717.6312	-0.0327
717.8109	0.0319
717.9905	0.0064
718.1701	0.02
718.3496	-0.0142
718.5292	-0.0073
718.7087	-0.0098
718.8882	0.0184
719.0677	0.0071
719.2472	0.0001
719.4267	-0.0094
719.6061	-0.0146
719.7856	0.0061
719.965	0.0138
720.1443	-0.0126
720.3237	-0.0222
720.5031	0.0176
720.6824	0.0125
720.8617	-0.0124
721.041	0.0383
721.2203	-0.0063
721.3995	0.0201
721.5788	-0.001
721.758	-0.0056
721.9372	-0.0011
722.1164	0.0053
722.2956	-0.0034
722.4747	0.0194
722.6538	-0.0201
722.8329	0.0119
723.012	0.0113
723.1911	0.0053
723.3702	0.0155
723.5492	-0.0037
723.7282	-0.0041
723.9072	0.0092
724.0862	0.0015
724.2652	0.0036
724.4441	-0.0047
724.623	0.0009
724.8019	0.0091
724.9808	-0.0053
725.1597	0.0122
725.3385	-0.0033
725.5174	-0.0006
725.6962	0.0053
725.875	0.0064
726.0538	0.0092
726.2325	0.0146
726.4112	-0.0178
726.59	-0.0231
726.7687	0.0026
726.9474	-0.0095
727.126	-0.0006
727.3047	0.0065
727.4833	-0.0014
727.6619	-0.0306
727.8405	-0.0094
728.0191	0.0395
728.1976	-0.0016
728.3762	0.0275
728.5547	0.003
728.7332	0.0242
728.9116	0.0052
729.0901	0.0071
729.2686	0.0253
729.447	-0.0096
729.6254	0.0067
729.8038	-0.003
729.9821	-0.0077
730.1605	0.0153
730.3388	-0.0231
730.5171	0.032
730.6954	-0.0019
730.8737	0.0211
731.0519	0.0111
731.2302	0.0055
731.4084	-0.0007
731.5866	-0.0057
731.7648	0.001
731.9429	0.0215
732.1211	0.0028
732.2992	-0.0008
732.4773	0.0047
732.6554	-0.0094
732.8335	0.0301
733.0115	0.0186
733.1896	-0.0007
733.3676	0.018
733.5456	0.0074
733.7235	0.0043
733.9015	0.0051
734.0794	0.0021
734.2574	-0.0214
734.4353	0.0202
734.6131	0.008
734.791	0.0023
734.9689	-0.007
735.1467	-0.0092
735.3245	0.0082
735.5023	0.0066
735.68	0.002
735.8578	0.0033
736.0355	0.0219
736.2132	-0.0023
736.3909	0.0238
736.5686	-0.0175
736.7463	-0.0228
736.9239	0.0234
737.1015	0.0048
737.2791	0.0143
737.4567	0.0226
737.6343	0.0202
737.8118	0.0281
737.9894	-0.0075
738.1669	0.0028
738.3444	0.0325
738.5218	-0.0209
738.6993	0.0067
738.8767	0.0125
739.0541	0.0104
739.2315	0.0035
739.4089	0.0126
739.5863	-0.0062
739.7636	0.0053
739.9409	-0.0103
740.1182	0.0005
740.2955	0.008
740.4728	-0.0012
740.65	0.0105
740.8272	0.0403
741.0044	-0.0139
741.1816	0.048
741.3588	-0.0286
741.5359	-0.0203
741.7131	-0.0051
741.8902	-0.006
742.0673	-0.0137
742.2444	0.0188
742.4214	0.0013
742.5985	0.0086
742.7755	0.0146
742.9525	-0.0205
743.1295	-0.0003
743.3064	0.01
743.4834	0.0052
743.6603	0.0617
743.8372	-0.0489
744.0141	0.0129
744.191	0.0203
744.3678	-0.0232
744.5446	0.0065
744.7215	0.0253
744.8982	0.0291
745.075	0.0475
745.2518	-0.0008
745.4285	0.0158
745.6052	-0.032
745.7819	0.0197
745.9586	0.02
746.1353	-0.0069
746.3119	0.0111
746.4885	0.0339
746.6651	0.0093
746.8417	-0.0115
747.0183	-0.0024
747.1948	-0.016
747.3714	0.0073
747.5479	-0.0053
747.7244	-0.0224
747.9008	-0.021
748.0773	0.0677
748.2537	0.0529
748.4301	0.0115
748.6065	-0.0158
748.7829	-0.0246
748.9593	0.02
749.1356	0.0043
749.3119	0.0223
749.4882	0.0321
749.6645	-0.0053
749.8408	0.011
750.017	0.0059
750.1933	-0.0175
750.3695	0.0225
750.5457	-0.0178
750.7218	-0.0062
750.898	-0.0105
751.0741	-0.0094
751.2502	0.0069
751.4263	-0.0049
751.6024	-0.0031
751.7784	0.0012
751.9545	-0.0144
752.1305	0.0039
752.3065	0.0092
752.4825	0.0202
752.6584	0.0112
752.8344	-0.014
753.0103	0.0048
753.1862	0.0282
753.3621	-0.0105
753.5379	-0.0095
753.7138	0.0011
753.8896	0.0083
754.0654	0.0053
754.2412	0.0206
754.417	0.0321
754.5927	0.0084
754.7685	0.0162
754.9442	0.0385
755.1199	0.0074
755.2956	0.0161
755.4712	-0.0084
755.6469	0.0007
755.8225	0.0174
755.9981	0.0118
756.1736	0.0043
756.3492	-0.0004
756.5248	0.0104
756.7003	0.0069
756.8758	0.0142
757.0513	0.008
757.2267	0.014
757.4022	0.0007
757.5776	-0.0059
757.753	0.0124
757.9284	-0.0114
758.1038	-0.0025
758.2791	0.0102
758.4545	-0.0132
758.6298	0.0095
758.8051	0.0001
758.9803	0.02
759.1556	-0.0004
759.3308	-0.0055
759.506	-0.006
759.6812	-0.0014
759.8564	0.0161
760.0316	-0.0028
760.2067	0.0177
760.3819	0.0092
760.557	-0.0043
760.732	-0.0017
760.9071	0.0299
761.0821	-0.0183
761.2572	0.0076
761.4322	0.0073
761.6072	0.0337
761.7821	-0.0299
761.9571	0.0114
762.132	0.004
762.3069	0.0198
762.4818	0.0148
762.6567	0.0056
762.8316	0.0071
763.0064	-0.0124
763.1812	-0.0082
763.356	-0.012
763.5308	0.0255
763.7055	0.0004
763.8803	0.0094
764.055	-0.0134
764.2297	-0.0113
764.4044	0.001
764.579	-0.0061
764.7537	0.0103
764.9283	0.0132
765.1029	-0.005
765.2775	0.028
765.4521	0.0112
765.6266	0.0238
765.8011	0.0252
765.9756	0.0208
766.1501	-0.002
766.3246	-0.0026
766.4991	0.005
766.6735	0.0237
766.8479	-0.0056
767.0223	-0.002
767.1967	0.0151
767.371	0.0207
767.5454	0.0193
767.7197	0.0106
767.894	0.0079
768.0683	0.0204
768.2425	0.0093
768.4168	0.0333
768.591	0.0033
768.7652	0.0047
768.9394	-0.0368
769.1135	-0.0042
769.2877	0.0282
769.4618	0.0154
769.6359	-0.011
769.81	0.0169
769.984	0.0146
770.1581	-0.0047
770.3321	0.0074
770.5061	0.0062
770.6801	0.0089
770.8541	-0.0211
771.028	0.0337
771.202	0.0169
771.3759	0.0091
771.5498	0.0198
771.7236	0.017
771.8975	0.0084
772.0713	-0.0044
772.2451	0.008
772.4189	0.0075
772.5927	-0.0358
772.7665	0.0057
772.9402	0.0162
773.1139	-0.0517
773.2876	-0.0234
773.4613	0.0198
773.635	0.0262
773.8086	0.0605
773.9822	0.0242
774.1558	0.0178
774.3294	0.0113
774.503	0.003
774.6765	0.0262
774.8501	0.027
775.0236	0.0278
775.1971	0.0279
775.3705	0.0284
775.544	-0.0406
775.7174	0.0186
775.8908	-0.0109
776.0642	0.0205
776.2376	0.0534
776.4109	-0.0132
776.5843	-0.0118
776.7576	0.0037
776.9309	0.0261
777.1041	-0.0289
777.2774	0.0078
777.4506	-0.0173
777.6238	-0.0075
777.797	0.0031
777.9702	-0.012
778.1434	0.0083
778.3165	-0.025
778.4896	-0.0105
778.6627	0.0081
778.8358	-0.0284
779.0089	-0.0146
779.1819	0.011
779.3549	-0.0056
779.5279	-0.0347
779.7009	0.0464
779.8739	0.0605
780.0468	0.0009
780.2197	0.0193
780.3926	-0.0234
780.5655	0.0379
780.7384	-0.0044
780.9112	0.0198
781.0841	0.0191
781.2569	0.0047
781.4297	0.0332
781.6024	0.0245
781.7752	0.0309
781.9479	0.0382
782.1206	0.0191
782.2933	0.0259
782.466	0.0305
782.6386	0.0094
782.8113	0.0002
782.9839	-0.0216
783.1565	0.0615
783.329	-0.0124
783.5016	0.0224
783.6741	-0.0004
783.8466	0.0724
784.0191	0.0212
784.1916	-0.0404
784.3641	-0.0162
784.5365	0.0237
784.7089	-0.0296
784.8813	0.0628
785.0537	0.0227
785.2261	0.0138
785.3984	0.0236
785.5707	-0.0283
785.743	0.0178
785.9153	0.0199
786.0876	0.0018
786.2598	-0.002
786.432	-0.0158
786.6042	0.01
786.7764	0.0067
786.9486	0.0009
787.1207	0.0492
787.2928	0.004
787.4649	-0.0188
787.637	-0.0004
787.8091	0.0091
787.9811	0.0394
788.1532	0.0262
788.3252	0.009
788.4972	0.0136
788.6691	0.0014
788.8411	-0.0238
789.013	0.0129
789.1849	-0.0082
789.3568	-0.0294
789.5287	0.0596
789.7005	-0.0127
789.8723	-0.0117
790.0442	0.0166
790.2159	0.0381
790.3877	0.0888
790.5595	0.07
790.7312	0.0023
790.9029	-0.0491
791.0746	0.0285
791.2463	-0.0859
791.4179	0.0321
791.5896	0.0257
791.7612	0.0054
791.9328	0.0105
792.1044	-0.0501
792.2759	0.0168
792.4474	-0.0145
792.619	-0.05
792.7905	0.025
792.9619	0.0119
793.1334	0.0722
793.3048	0.0208
793.4762	-0.0056
793.6476	-0.0191
793.819	-0.0077
793.9904	-0.0106
794.1617	0.0128
794.333	0.0246
794.5043	0.05
794.6756	-0.0179
794.8469	0.0378
795.0181	0.0136
795.1893	0.0292
795.3605	0.0412
795.5317	0.0099
795.7029	0.0054
795.874	0.0363
796.0452	0.0579
796.2163	0.0485
796.3873	0.0491
796.5584	0.0498
796.7294	-0.0156
796.9005	-0.0506
797.0715	-0.0529
797.2425	0.0178
797.4134	0.0014
797.5844	-0.0178
797.7553	-0.0475
797.9262	0.0344
798.0971	0.0024
798.2679	-0.0595
798.4388	0.0673
798.6096	0.0763
798.7804	0.0333
798.9512	-0.0223
799.122	-0.0269
799.2927	0.0578
799.4635	-0.063
799.6342	-0.0056
799.8049	-0.0118
799.9755	-0.0726
800.1462	-0.009
800.3168	0.0404
800.4874	-0.1135
800.658	0.1047
800.8286	0.0462
800.9991	0.0969
801.1696	-0.0236
801.3402	0.0518
801.5106	0.0641
801.6811	-0.056
801.8516	0.1756
802.022	0.0569
802.1924	0.0134
802.3628	0.029
802.5332	0.0566
802.7035	0.0403
802.8739	0.0206
803.0442	-0.0159
803.2145	0.0472
803.3847	0.0585
803.555	0.0286
803.7252	-0.0168
803.8954	-0.0219
804.0656	-0.0454
804.2358	0.0043
804.4059	0.0052
804.5761	-0.0528
804.7462	-0.0097
804.9163	0.0558
805.0864	-0.0441
805.2564	-0.0426
805.4264	-0.0027
805.5965	-0.036
805.7665	-0.0159
805.9364	-0.0072
806.1064	0.0592
806.2763	0.0429
806.4462	0.005
806.6161	0.0359
806.786	-0.0076
806.9559	0.0223
807.1257	0.0211
807.2955	-0.0862
807.4653	0.03
807.6351	-0.0093
807.8048	-0.013
807.9746	-0.0155
808.1443	-0.0283
808.314	0.0183
808.4837	0.0663
808.6533	-0.0648
808.8229	-0.0078
808.9926	0.0129
809.1622	0.0295
809.3317	-0.0619
809.5013	-0.0412
809.6708	-0.0158
809.8403	0.0187
810.0098	0.0847
810.1793	-0.0097
810.3488	0.0104
810.5182	0.0514
810.6876	-0.0365
810.857	0.0188
811.0264	-0.098
811.1958	0.1633
811.3651	0.0225
811.5344	0.0482
811.7037	-0.076
811.873	0.1084
812.0422	-0.1119
812.2115	0.058
812.3807	-0.0708
812.5499	0.1061
812.7191	-0.0422
812.8882	0.0915
813.0574	-0.0843
813.2265	0.0064
813.3956	0.0515
813.5646	0.1232
813.7337	-0.0501
813.9027	-0.1142
814.0718	0.0403
814.2407	0.027
814.4097	0.0203
814.5787	0.0591
814.7476	0.0138
814.9165	0.0159
815.0854	0.0321
815.2543	-0.0198
815.4232	0.0431
815.592	0.0689
815.7608	-0.083
815.9296	0.0009
816.0984	0.0083
816.2671	-0.3377
816.4359	0.0519
816.6046	0.0294
816.7733	-0.0887
816.942	-0.0301
817.1106	0.1039
817.2793	-0.0733
817.4479	-0.0199
817.6165	0.0357
817.785	0.0718
817.9536	-0.0799
818.1221	0.0111
818.2906	-0.1108
818.4591	0.0236
818.6276	0.1025
818.7961	-0.0443
818.9645	0.0086
819.1329	0.0598
819.3013	-0.1347
819.4697	-0.0641
819.638	-0.0118
819.8064	-0.0823
819.9747	0.0841
820.143	0.0259
820.3113	0.0545
820.4795	0.0623
820.6477	0.0987
820.816	0.0853
820.9842	0.0482
821.1523	-0.0262
821.3205	0.041
821.4886	-0.0497
821.6567	-0.1185
821.8248	0.1639
821.9929	-0.086
822.1609	-0.1261
822.329	0.1782
822.497	0.0058
822.665	-0.0648
822.833	-0.1783
823.0009	-0.0058
823.1688	0.224
823.3367	-0.1431
823.5046	0.0379
823.6725	-0.0572
823.8404	0.0636
824.0082	-0.0093
824.176	-0.0228
824.3438	0.3896
824.5116	-0.0147
824.6793	0.1891
824.847	-0.0372
825.0147	-0.0196
825.1824	0.0257
825.3501	0.033
825.5177	-0.0576
825.6854	0.0067
825.853	-0.0576
826.0206	0.1258
826.1881	-0.0371
826.3557	-0.0796
826.5232	0.1222
826.6907	-0.0108
826.8582	-0.0395
827.0257	0.1436
827.1931	0.1921
827.3605	-0.1272
827.528	-0.2154
827.6953	-0.2145
827.8627	-0.1549
828.03	0.0895
828.1974	-0.0022
828.3647	0.0289
828.532	0.0174
828.6992	0.1099
828.8665	-0.2244
829.0337	-0.15
829.2009	-0.1244
829.3681	-0.0827
829.5352	-0.1341
829.7024	0.0525
829.8695	0.1712
830.0366	0.1902
830.2037	0.0709
830.3707	0.0502
830.5378	-0.0404
830.7048	-0.1089
830.8718	0.077
831.0388	-0.0938
831.2057	-0.1849
831.3727	-0.4697
831.5396	0.0371
831.7065	-0.7853
831.8734	0.1414
832.0402	0.0474
832.2071	-0.2635
832.3739	-0.1828
832.5407	-1.7289
832.7075	-0.4493
832.8742	-0
833.041	0.3215
833.2077	0.109
833.3744	0.1873
833.541	0.15
833.7077	-0.1629
833.8743	0.1388
834.0409	0.0556
834.2075	0.083
834.3741	-0.2159
834.5407	0.1742
834.7072	-0.0183
834.8737	0.1017
835.0402	0.2788
835.2067	0.0745
835.3731	0.0851
835.5395	0.0087
835.706	0.0034
835.8723	-0.2169
836.0387	0.1162
836.2051	-0.0437
836.3714	-0.1222
836.5377	0.4097
836.704	0.1156
836.8703	-0.1219
837.0365	-0
837.2027	-0.1674
837.3689	-0.0773
837.5351	0.113
837.7013	-0.126
837.8674	0.1315
838.0335	0.204
838.1997	-0.1828
838.3657	-0
838.5318	0.5879
838.6978	-0
838.8639	-0.1156
839.0299	-0.1521
839.1958	0.3932
839.3618	0.0469
839.5277	0.7851
839.6937	-0.346
839.8596	0.0372
840.0254	-0.1152
840.1913	0.0842
840.3571	0.0567
840.523	-0
840.6888	0.0146
840.8545	-0.5785
841.0203	0.065
841.186	0.2729
841.3517	-0.0662
841.5174	0.1825
841.6831	0.2641
841.8488	-0.0138
842.0144	-0.1308
842.18	0.3109
842.3456	-0
842.5112	-1.292
842.6767	0.108
842.8422	0.0346
843.0077	0.2562
843.1732	-0.5393
843.3387	-0.1881
843.5042	-0
843.6696	-0.1697
843.835	-0
844.0004	-0.1131
844.1657	-0
844.3311	-0
844.4964	-0.1886
844.6617	0.5139
844.827	-0
844.9923	0.2259
845.1575	-0.1156
845.3227	0.8222
845.4879	-0.1042
845.6531	-0.0237
845.8183	0.1063
845.9834	-0
846.1485	0.7113
846.3136	-0.1903
846.4787	-0
846.6438	-0.3147
846.8088	1.2871
846.9738	-0
847.1388	0.2846
847.3038	-0.0116
847.4687	-0
847.6337	-0.6851
847.7986	0.1191
847.9635	-0.2505
848.1284	-0
848.2932	-0.0955
848.458	-0
848.6228	0.2569
848.7876	-0.3889
848.9524	-0.1734
849.1172	-1.8599
849.2819	-0
849.4466	0.3202
849.6113	0.0027
849.7759	-0
849.9406	-0.2135
850.1052	-0.3123
850.2698	-0
850.4344	-0.331
850.599	0.3772
850.7635	0.3193
850.928	0.2771
851.0925	0.3977
851.257	-0.1521
851.4215	0.3973
851.5859	0.0023
851.7503	-0.4868
851.9147	-0
852.0791	-0.1839
852.2434	0.6125
852.4078	-0
852.5721	0.393
852.7364	-0.1155
852.9007	0.0494
853.0649	-0
853.2291	-0.1328
853.3934	0.1682
853.5575	-0.0806
853.7217	0.3071
853.8859	0.9277
854.05	0.1229
854.2141	0.7644
854.3782	-0.0274
854.5423	-0.1572
854.7063	0.3409
854.8703	-0.1332
855.0343	-0.0971
855.1983	0.1777
855.3623	-0.0453
855.5262	-0
855.6901	0.36
855.854	-0.0097
856.0179	-0
856.1818	1.0208
856.3456	1.4443
856.5094	-0.4328
856.6732	-0.2553
856.837	-0.71
857.0008	-0.1545
857.1645	0.4315
857.3282	-0.4073
857.4919	-0.2773
857.6556	-0.2356
857.8192	-0.0073
857.9828	-0.2602
858.1465	-0.2083
858.31	-0
858.4736	-0.0878
858.6372	-0.1819
858.8007	0.1035
858.9642	0.263
859.1277	-0
859.2911	-0.463
859.4546	-0
859.618	0.6779
859.7814	-0
859.9448	-0
860.1081	-0
860.2715	-1.0944
860.4348	0.2893
860.5981	0.2803
860.7614	-0
860.9246	0.0751
861.0879	0.0153
861.2511	-0.6719
861.4143	-0.5756
861.5774	-0.1565
861.7406	0.4177
861.9037	-0.4903
862.0668	-0
862.2299	-0.1697
862.393	-0
862.556	-0.2426
862.7191	0.6808
862.8821	0.1546
863.0451	0.1396
863.208	-0.2066
863.371	-0.4137
863.5339	0.2594
863.6968	0.4861
863.8597	1.7947
864.0225	-0.0338
864.1854	0.0722
864.3482	-0
864.511	-0.1513
864.6737	-0
864.8365	-0.0624
864.9992	-0.1526
865.1619	-0.1547
865.3246	-1.3222
865.4873	-0
865.65	-0
865.8126	-0
865.9752	-0
866.1378	0.8605
866.3004	0.2193
866.4629	-1.7148
866.6254	-0.173
866.7879	-0.0138
866.9504	-0.6962
867.1129	-0.3169
867.2753	-0.1752
867.4377	-0.459
867.6001	-0.685
867.7625	-0.0484
867.9249	-0
868.0872	-0
868.2495	-0
868.4118	-0
868.5741	0.1378
868.7363	-0.8772
868.8986	-0.4123
869.0608	-0.5225
869.223	0.7808
869.3851	-0
869.5473	0.0116
869.7094	-0
869.8715	-0
870.0336	-0.1829
870.1957	-0.9097
870.3577	0.1623
870.5197	0.2391
870.6817	-0.548
870.8437	-0
871.0057	-0
871.1676	0.1328
871.3295	-0.3024
871.4914	-1.4116
871.6533	-0.4717
871.8151	-0
871.977	-0.0918
872.1388	-0.203
872.3006	-0
872.4623	-1.2079
872.6241	-0
872.7858	0.2746
872.9475	-0
873.1092	-0.0462
873.2709	-0
873.4325	-1.6532
873.5941	-0
873.7557	-0
873.9173	-0
874.0789	0.3655
874.2404	-0
874.4019	-0.0126
874.5634	-0
874.7249	0.8427
874.8863	-0.3
875.0478	-0.4567
875.2092	0.8396
875.3706	0.1493
875.5319	-0
875.6933	0.9736
875.8546	-0.5373
876.0159	0.5159
876.1772	0.6293
876.3385	-0
876.4997	-0
876.6609	-0
876.8221	-0
876.9833	-0.4184
877.1445	0.2784
877.3056	-0
877.4667	-0
877.6278	0.06
877.7889	-0
877.9499	-0
878.111	-0.4918
878.272	-0.4433
878.433	0.5123
878.5939	-0
878.7549	0.4315
878.9158	-0
879.0767	1.4945
879.2376	1.7019
879.3984	0.4204
879.5593	-0
879.7201	-1.6005
879.8809	-0
880.0417	-0.1569
880.2024	-0.0489
880.3632	-0.3553
880.5239	-0.0599
880.6846	0.0733
880.8452	-0.1268
881.0059	-1.0069
881.1665	-0
881.3271	0.4783
881.4877	0.1868
881.6483	-1.3505
881.8088	-0
881.9693	-0
882.1298	-0
882.2903	-0
