Data from D4ACN5uM420nmA_Absorbance_14-37-07-871.txt Node
Date: Fri Feb 21 14:37:07 GMT 2025
User: LASERRRRR
Spectrometer: FLMT03099
Trigger mode: 0
Integration Time (sec): 1.500000E-2
Scans to average: 1
Electric dark correction enabled: true
Nonlinearity correction enabled: false
Boxcar width: 0
XAxis mode: Wavelengths
Number of Pixels in Spectrum: 3648
>>>>>Begin Spectral Data<<<<<
179.3399	0.415
179.5586	0.415
179.7771	0.415
179.9957	-0.2298
180.2143	-1.7381
180.4329	-0
180.6514	-0.4864
180.8699	0.3574
181.0885	-0
181.307	-0.2091
181.5255	0.2281
181.744	-0
181.9625	-0
182.181	-0
182.3994	-0.149
182.6179	0.2677
182.8363	0.8692
183.0547	-0.2039
183.2732	-0.0494
183.4916	0.1445
183.71	0.1611
183.9284	0.0779
184.1467	0.4025
184.3651	0.0628
184.5835	0.1413
184.8018	0.0995
185.0201	0.0066
185.2385	0.1013
185.4568	0.3782
185.6751	0.0999
185.8934	0.3496
186.1117	-0.0557
186.3299	0.1142
186.5482	0.0934
186.7664	0.0379
186.9847	-0.2189
187.2029	0.0821
187.4211	0.186
187.6393	0.1023
187.8575	0.0847
188.0757	0.1487
188.2939	-0.031
188.512	0.3464
188.7302	-0.0245
188.9483	0.2785
189.1665	0.4915
189.3846	0.3475
189.6027	0.1673
189.8208	0.1545
190.0389	0.1159
190.257	0.0833
190.475	-0.0588
190.6931	0.0237
190.9111	0.0812
191.1292	0.095
191.3472	0.0789
191.5652	0.4412
191.7832	0.1459
192.0012	0.1104
192.2192	0.1633
192.4371	0.1823
192.6551	0.1074
192.873	0.1782
193.091	0.0808
193.3089	0.2009
193.5268	0.1515
193.7447	0.1245
193.9626	0.1413
194.1805	0.2744
194.3984	0.2508
194.6162	0.2293
194.8341	0.2967
195.0519	0.1969
195.2697	0.3165
195.4875	0.27
195.7054	0.3025
195.9231	0.1865
196.1409	0.3249
196.3587	0.2539
196.5765	0.2981
196.7942	0.2645
197.012	0.3077
197.2297	0.3403
197.4474	0.3729
197.6651	0.3022
197.8828	0.3002
198.1005	0.4562
198.3182	0.3619
198.5358	0.429
198.7535	0.3998
198.9711	0.322
199.1888	0.3743
199.4064	0.4433
199.624	0.3682
199.8416	0.3651
200.0592	0.3667
200.2767	0.4103
200.4943	0.457
200.7119	0.4023
200.9294	0.3854
201.1469	0.4096
201.3645	0.4289
201.582	0.3562
201.7995	0.4057
202.017	0.3893
202.2344	0.4159
202.4519	0.3372
202.6694	0.3909
202.8868	0.3891
203.1042	0.4058
203.3217	0.3452
203.5391	0.3878
203.7565	0.3682
203.9739	0.3588
204.1913	0.3482
204.4086	0.3383
204.626	0.3684
204.8433	0.3592
205.0607	0.34
205.278	0.3484
205.4953	0.3654
205.7126	0.3309
205.9299	0.3225
206.1472	0.3167
206.3644	0.3323
206.5817	0.3464
206.7989	0.3664
207.0162	0.3202
207.2334	0.3055
207.4506	0.3037
207.6678	0.2893
207.885	0.3049
208.1022	0.3237
208.3194	0.2926
208.5365	0.2972
208.7537	0.2928
208.9708	0.2899
209.1879	0.2978
209.405	0.2826
209.6222	0.2791
209.8392	0.2981
210.0563	0.2771
210.2734	0.2559
210.4905	0.2668
210.7075	0.2569
210.9245	0.2409
211.1416	0.2907
211.3586	0.2561
211.5756	0.2524
211.7926	0.2847
212.0096	0.2312
212.2265	0.2469
212.4435	0.2698
212.6604	0.2472
212.8774	0.2262
213.0943	0.2652
213.3112	0.2438
213.5281	0.2387
213.745	0.2296
213.9619	0.2464
214.1788	0.2777
214.3956	0.2124
214.6125	0.2525
214.8293	0.2383
215.0461	0.2484
215.2629	0.2447
215.4798	0.2711
215.6965	0.2392
215.9133	0.2347
216.1301	0.2426
216.3469	0.2488
216.5636	0.2328
216.7803	0.2358
216.9971	0.2558
217.2138	0.2525
217.4305	0.2452
217.6472	0.255
217.8639	0.2546
218.0805	0.2414
218.2972	0.2474
218.5138	0.2489
218.7305	0.267
218.9471	0.2324
219.1637	0.2512
219.3803	0.2525
219.5969	0.2529
219.8135	0.2659
220.0301	0.2547
220.2466	0.2523
220.4632	0.2433
220.6797	0.2532
220.8962	0.2492
221.1127	0.2624
221.3292	0.2629
221.5457	0.2814
221.7622	0.2644
221.9787	0.2671
222.1951	0.2716
222.4116	0.2621
222.628	0.2797
222.8444	0.2761
223.0608	0.2809
223.2772	0.2758
223.4936	0.2765
223.71	0.2814
223.9264	0.285
224.1427	0.2945
224.3591	0.2872
224.5754	0.2888
224.7917	0.3023
225.008	0.2875
225.2243	0.301
225.4406	0.2926
225.6569	0.3072
225.8732	0.3134
226.0894	0.3002
226.3057	0.3059
226.5219	0.3143
226.7381	0.315
226.9543	0.3112
227.1705	0.3248
227.3867	0.3315
227.6029	0.3283
227.8191	0.3325
228.0352	0.3501
228.2513	0.353
228.4675	0.3376
228.6836	0.3339
228.8997	0.3439
229.1158	0.3565
229.3319	0.3591
229.548	0.3637
229.764	0.3635
229.9801	0.3836
230.1961	0.3731
230.4121	0.3775
230.6282	0.3853
230.8442	0.3855
231.0602	0.3834
231.2761	0.3878
231.4921	0.3826
231.7081	0.3968
231.924	0.4007
232.14	0.4077
232.3559	0.4098
232.5718	0.4123
232.7877	0.4112
233.0036	0.4197
233.2195	0.4175
233.4353	0.4117
233.6512	0.419
233.867	0.4267
234.0829	0.4233
234.2987	0.425
234.5145	0.427
234.7303	0.4461
234.9461	0.441
235.1619	0.438
235.3776	0.4332
235.5934	0.4297
235.8091	0.4362
236.0249	0.4483
236.2406	0.4417
236.4563	0.451
236.672	0.4423
236.8877	0.4449
237.1034	0.4382
237.319	0.4457
237.5347	0.4509
237.7503	0.4465
237.966	0.4651
238.1816	0.4397
238.3972	0.4646
238.6128	0.4642
238.8284	0.4609
239.0439	0.4532
239.2595	0.4713
239.475	0.4606
239.6906	0.457
239.9061	0.4641
240.1216	0.461
240.3371	0.4528
240.5526	0.4533
240.7681	0.4677
240.9836	0.466
241.199	0.4505
241.4145	0.4563
241.6299	0.4604
241.8453	0.4419
242.0607	0.45
242.2761	0.4408
242.4915	0.4244
242.7069	0.4194
242.9223	0.424
243.1376	0.4112
243.353	0.4169
243.5683	0.408
243.7836	0.3977
243.9989	0.3838
244.2142	0.3818
244.4295	0.3772
244.6448	0.374
244.86	0.365
245.0753	0.3545
245.2905	0.3523
245.5057	0.3411
245.721	0.3393
245.9362	0.3323
246.1514	0.3264
246.3665	0.3196
246.5817	0.307
246.7969	0.3104
247.012	0.3024
247.2271	0.2988
247.4423	0.2916
247.6574	0.2924
247.8725	0.2712
248.0876	0.2786
248.3026	0.2757
248.5177	0.2636
248.7328	0.2576
248.9478	0.2461
249.1628	0.2553
249.3779	0.2432
249.5929	0.2468
249.8079	0.24
250.0228	0.2328
250.2378	0.2328
250.4528	0.2361
250.6677	0.2282
250.8827	0.2166
251.0976	0.2201
251.3125	0.2181
251.5274	0.2169
251.7423	0.2156
251.9572	0.2174
252.172	0.2174
252.3869	0.2081
252.6017	0.2086
252.8166	0.202
253.0314	0.2033
253.2462	0.2034
253.461	0.1973
253.6758	0.1992
253.8906	0.2034
254.1053	0.1979
254.3201	0.1998
254.5348	0.1872
254.7496	0.1811
254.9643	0.1992
255.179	0.1923
255.3937	0.1925
255.6083	0.1921
255.823	0.1942
256.0377	0.1857
256.2523	0.1845
256.467	0.1907
256.6816	0.1856
256.8962	0.1911
257.1108	0.1839
257.3254	0.1895
257.54	0.1852
257.7545	0.1879
257.9691	0.1827
258.1836	0.1842
258.3981	0.1836
258.6127	0.1751
258.8272	0.187
259.0417	0.1761
259.2561	0.184
259.4706	0.1845
259.6851	0.1787
259.8995	0.177
260.114	0.1826
260.3284	0.179
260.5428	0.1798
260.7572	0.175
260.9716	0.1868
261.186	0.1829
261.4003	0.1795
261.6147	0.1786
261.829	0.181
262.0433	0.1799
262.2577	0.1824
262.472	0.185
262.6863	0.1864
262.9005	0.183
263.1148	0.1858
263.3291	0.1832
263.5433	0.19
263.7576	0.1873
263.9718	0.1738
264.186	0.1954
264.4002	0.1857
264.6144	0.1926
264.8286	0.1839
265.0427	0.1897
265.2569	0.1948
265.471	0.1896
265.6851	0.1885
265.8993	0.1883
266.1134	0.1858
266.3275	0.1919
266.5415	0.1925
266.7556	0.1894
266.9697	0.1905
267.1837	0.1895
267.3978	0.1867
267.6118	0.1812
267.8258	0.1906
268.0398	0.1902
268.2538	0.1837
268.4677	0.1868
268.6817	0.1838
268.8957	0.18
269.1096	0.1814
269.3235	0.1812
269.5374	0.1895
269.7514	0.1857
269.9652	0.1839
270.1791	0.1759
270.393	0.1817
270.6068	0.1843
270.8207	0.1806
271.0345	0.1805
271.2483	0.1704
271.4622	0.1805
271.676	0.1803
271.8897	0.179
272.1035	0.1883
272.3173	0.1802
272.531	0.1871
272.7448	0.1756
272.9585	0.1804
273.1722	0.1811
273.3859	0.1862
273.5996	0.1843
273.8133	0.1906
274.0269	0.182
274.2406	0.1874
274.4542	0.186
274.6679	0.1834
274.8815	0.191
275.0951	0.1916
275.3087	0.1902
275.5223	0.1847
275.7358	0.1884
275.9494	0.1922
276.1629	0.1905
276.3765	0.1866
276.59	0.1845
276.8035	0.1883
277.017	0.1969
277.2305	0.1923
277.444	0.1925
277.6574	0.1885
277.8709	0.1972
278.0843	0.1974
278.2978	0.1944
278.5112	0.1918
278.7246	0.1896
278.938	0.1925
279.1513	0.19
279.3647	0.1932
279.5781	0.1888
279.7914	0.1927
280.0047	0.1947
280.2181	0.1882
280.4314	0.1891
280.6447	0.1935
280.8579	0.1941
281.0712	0.1898
281.2845	0.194
281.4977	0.1903
281.711	0.1868
281.9242	0.1802
282.1374	0.1859
282.3506	0.1936
282.5638	0.187
282.7769	0.1841
282.9901	0.1883
283.2033	0.1901
283.4164	0.1883
283.6295	0.1857
283.8426	0.1835
284.0557	0.1925
284.2688	0.1937
284.4819	0.191
284.695	0.192
284.908	0.1886
285.1211	0.1888
285.3341	0.1851
285.5471	0.191
285.7601	0.1911
285.9731	0.1946
286.1861	0.1942
286.3991	0.1921
286.612	0.1967
286.825	0.1906
287.0379	0.1953
287.2508	0.1912
287.4637	0.1924
287.6766	0.1953
287.8895	0.185
288.1024	0.195
288.3152	0.2001
288.5281	0.1896
288.7409	0.2014
288.9538	0.1964
289.1666	0.1957
289.3794	0.1963
289.5922	0.1897
289.8049	0.1889
290.0177	0.1946
290.2304	0.1933
290.4432	0.1957
290.6559	0.1916
290.8686	0.1965
291.0813	0.199
291.294	0.1959
291.5067	0.1929
291.7194	0.1916
291.932	0.1861
292.1447	0.1939
292.3573	0.1974
292.5699	0.1947
292.7825	0.1908
292.9951	0.1911
293.2077	0.1914
293.4203	0.195
293.6328	0.187
293.8454	0.1952
294.0579	0.1926
294.2704	0.2041
294.4829	0.1908
294.6954	0.1924
294.9079	0.1925
295.1204	0.1923
295.3328	0.1966
295.5453	0.1946
295.7577	0.1921
295.9701	0.1974
296.1825	0.1933
296.3949	0.1911
296.6073	0.1872
296.8197	0.189
297.0321	0.1971
297.2444	0.1895
297.4567	0.1931
297.6691	0.1927
297.8814	0.197
298.0937	0.1935
298.306	0.1904
298.5182	0.1969
298.7305	0.1927
298.9428	0.1915
299.155	0.1899
299.3672	0.1951
299.5794	0.1913
299.7916	0.1982
300.0038	0.1918
300.216	0.1897
300.4282	0.1937
300.6403	0.1911
300.8525	0.1957
301.0646	0.1955
301.2767	0.1926
301.4888	0.197
301.7009	0.1913
301.913	0.2037
302.125	0.1921
302.3371	0.1929
302.5491	0.1922
302.7612	0.201
302.9732	0.2003
303.1852	0.1964
303.3972	0.1946
303.6092	0.1942
303.8211	0.1918
304.0331	0.192
304.245	0.1884
304.457	0.1961
304.6689	0.1902
304.8808	0.1873
305.0927	0.1915
305.3046	0.1878
305.5164	0.1852
305.7283	0.1859
305.9401	0.1761
306.152	0.1845
306.3638	0.1847
306.5756	0.1824
306.7874	0.1741
306.9992	0.1757
307.2109	0.1763
307.4227	0.1791
307.6344	0.1739
307.8462	0.1718
308.0579	0.1787
308.2696	0.1682
308.4813	0.1766
308.693	0.164
308.9046	0.1729
309.1163	0.1641
309.328	0.1669
309.5396	0.1552
309.7512	0.1624
309.9628	0.1652
310.1744	0.1527
310.386	0.1585
310.5976	0.1531
310.8091	0.1591
311.0207	0.1487
311.2322	0.1529
311.4437	0.1527
311.6552	0.1527
311.8667	0.1525
312.0782	0.1478
312.2897	0.147
312.5012	0.1485
312.7126	0.1467
312.924	0.1493
313.1355	0.1471
313.3469	0.1369
313.5583	0.1424
313.7696	0.1415
313.981	0.1472
314.1924	0.1385
314.4037	0.1452
314.6151	0.1365
314.8264	0.1439
315.0377	0.1397
315.249	0.1388
315.4603	0.1323
315.6716	0.142
315.8828	0.1326
316.0941	0.1393
316.3053	0.1319
316.5165	0.1358
316.7277	0.132
316.9389	0.1306
317.1501	0.1347
317.3613	0.1341
317.5724	0.1348
317.7836	0.1271
317.9947	0.1315
318.2058	0.1348
318.417	0.1315
318.6281	0.1319
318.8391	0.1327
319.0502	0.13
319.2613	0.1305
319.4723	0.1322
319.6834	0.1346
319.8944	0.1287
320.1054	0.1376
320.3164	0.1306
320.5274	0.1262
320.7383	0.1312
320.9493	0.1304
321.1602	0.1311
321.3712	0.1326
321.5821	0.1258
321.793	0.1381
322.0039	0.1362
322.2148	0.1315
322.4257	0.1311
322.6365	0.1264
322.8474	0.1354
323.0582	0.1382
323.269	0.1365
323.4798	0.1323
323.6906	0.1321
323.9014	0.1295
324.1122	0.131
324.3229	0.1381
324.5337	0.1323
324.7444	0.141
324.9551	0.1433
325.1658	0.135
325.3765	0.1392
325.5872	0.1372
325.7979	0.1378
326.0085	0.1354
326.2192	0.1363
326.4298	0.139
326.6404	0.1411
326.851	0.1402
327.0616	0.1409
327.2722	0.1424
327.4828	0.1402
327.6933	0.1491
327.9039	0.1417
328.1144	0.1466
328.3249	0.1441
328.5354	0.1392
328.7459	0.1441
328.9564	0.1398
329.1669	0.1462
329.3773	0.1427
329.5878	0.1423
329.7982	0.1437
330.0086	0.1425
330.219	0.1489
330.4294	0.1457
330.6398	0.1433
330.8502	0.1459
331.0605	0.1361
331.2708	0.143
331.4812	0.1464
331.6915	0.1488
331.9018	0.142
332.1121	0.1536
332.3224	0.1457
332.5326	0.1428
332.7429	0.1451
332.9531	0.1525
333.1633	0.1457
333.3735	0.1411
333.5837	0.1489
333.7939	0.1468
334.0041	0.15
334.2143	0.144
334.4244	0.1502
334.6346	0.1473
334.8447	0.1416
335.0548	0.1528
335.2649	0.1556
335.475	0.1505
335.685	0.1502
335.8951	0.1462
336.1051	0.1577
336.3152	0.1484
336.5252	0.148
336.7352	0.1451
336.9452	0.1502
337.1552	0.1454
337.3652	0.1472
337.5751	0.1419
337.7851	0.1492
337.995	0.1483
338.2049	0.1478
338.4148	0.1504
338.6247	0.1511
338.8346	0.1521
339.0445	0.1538
339.2543	0.1492
339.4642	0.1509
339.674	0.1463
339.8838	0.1482
340.0936	0.1509
340.3034	0.1475
340.5132	0.1425
340.7229	0.1511
340.9327	0.1561
341.1424	0.1522
341.3522	0.1436
341.5619	0.1561
341.7716	0.155
341.9813	0.1557
342.1909	0.1562
342.4006	0.1618
342.6102	0.159
342.8199	0.1596
343.0295	0.1533
343.2391	0.1578
343.4487	0.1671
343.6583	0.1673
343.8679	0.1588
344.0774	0.1564
344.287	0.1617
344.4965	0.164
344.706	0.1663
344.9155	0.165
345.125	0.1671
345.3345	0.1778
345.544	0.167
345.7534	0.163
345.9629	0.1699
346.1723	0.175
346.3817	0.1645
346.5911	0.1724
346.8005	0.1688
347.0099	0.1681
347.2193	0.1759
347.4286	0.1813
347.638	0.1713
347.8473	0.1774
348.0566	0.174
348.2659	0.1826
348.4752	0.1796
348.6845	0.175
348.8937	0.1884
349.103	0.1797
349.3122	0.1747
349.5214	0.1829
349.7306	0.1847
349.9398	0.1833
350.149	0.1818
350.3582	0.1802
350.5674	0.1866
350.7765	0.1812
350.9856	0.1827
351.1948	0.187
351.4039	0.1832
351.613	0.1812
351.822	0.1895
352.0311	0.1852
352.2402	0.1822
352.4492	0.1857
352.6582	0.1842
352.8672	0.1926
353.0762	0.1818
353.2852	0.1924
353.4942	0.1907
353.7032	0.1874
353.9121	0.1846
354.1211	0.1959
354.33	0.1895
354.5389	0.1872
354.7478	0.188
354.9567	0.1946
355.1655	0.1915
355.3744	0.1884
355.5833	0.1891
355.7921	0.1996
356.0009	0.1934
356.2097	0.1819
356.4185	0.1915
356.6273	0.193
356.8361	0.1966
357.0448	0.1934
357.2536	0.1898
357.4623	0.195
357.671	0.196
357.8797	0.2002
358.0884	0.1924
358.2971	0.1954
358.5057	0.2002
358.7144	0.2012
358.923	0.197
359.1316	0.2044
359.3402	0.2091
359.5488	0.1997
359.7574	0.2047
359.966	0.2039
360.1746	0.1982
360.3831	0.2055
360.5916	0.2064
360.8002	0.217
361.0087	0.208
361.2172	0.2055
361.4256	0.2067
361.6341	0.2085
361.8426	0.2088
362.051	0.217
362.2594	0.2105
362.4678	0.2187
362.6762	0.2162
362.8846	0.2125
363.093	0.2092
363.3014	0.2182
363.5097	0.2201
363.718	0.2225
363.9264	0.223
364.1347	0.2291
364.343	0.2212
364.5513	0.2207
364.7595	0.2314
364.9678	0.2211
365.176	0.233
365.3842	0.2341
365.5925	0.2288
365.8007	0.2226
366.0089	0.2311
366.217	0.2319
366.4252	0.2309
366.6333	0.2372
366.8415	0.2248
367.0496	0.2314
367.2577	0.2275
367.4658	0.2239
367.6739	0.235
367.882	0.241
368.09	0.2309
368.2981	0.2414
368.5061	0.2399
368.7141	0.2368
368.9221	0.2413
369.1301	0.2422
369.3381	0.2481
369.5461	0.2437
369.754	0.2414
369.962	0.2485
370.1699	0.2429
370.3778	0.2551
370.5857	0.247
370.7936	0.2485
371.0015	0.247
371.2093	0.2434
371.4172	0.2467
371.625	0.242
371.8328	0.2479
372.0406	0.262
372.2484	0.2485
372.4562	0.252
372.664	0.2552
372.8717	0.2594
373.0795	0.2624
373.2872	0.2587
373.4949	0.2652
373.7026	0.2579
373.9103	0.2504
374.118	0.2575
374.3256	0.2714
374.5333	0.2578
374.7409	0.2591
374.9485	0.2652
375.1561	0.2682
375.3637	0.2652
375.5713	0.263
375.7789	0.264
375.9864	0.2614
376.194	0.2718
376.4015	0.269
376.609	0.2708
376.8165	0.273
377.024	0.2734
377.2315	0.2722
377.4389	0.2611
377.6464	0.2723
377.8538	0.2658
378.0612	0.2729
378.2686	0.2735
378.476	0.278
378.6834	0.2703
378.8908	0.2807
379.0981	0.2754
379.3055	0.2812
379.5128	0.2714
379.7201	0.2767
379.9274	0.2902
380.1347	0.2872
380.342	0.2848
380.5492	0.2777
380.7565	0.2772
380.9637	0.2914
381.1709	0.2815
381.3781	0.2921
381.5853	0.2863
381.7925	0.2861
381.9997	0.2906
382.2068	0.2911
382.4139	0.2887
382.6211	0.2937
382.8282	0.2939
383.0353	0.2843
383.2424	0.2909
383.4494	0.2877
383.6565	0.2869
383.8635	0.29
384.0706	0.2985
384.2776	0.2981
384.4846	0.2927
384.6916	0.2954
384.8986	0.2948
385.1055	0.299
385.3125	0.2929
385.5194	0.2926
385.7263	0.2891
385.9333	0.3024
386.1402	0.2931
386.347	0.3024
386.5539	0.2985
386.7608	0.2913
386.9676	0.2915
387.1744	0.2953
387.3813	0.2963
387.5881	0.2762
387.7948	0.3013
388.0016	0.2964
388.2084	0.2887
388.4151	0.2953
388.6219	0.2884
388.8286	0.2805
389.0353	0.2898
389.242	0.2883
389.4487	0.2926
389.6553	0.284
389.862	0.2798
390.0686	0.2889
390.2753	0.2832
390.4819	0.2884
390.6885	0.2876
390.8951	0.297
391.1016	0.2889
391.3082	0.2858
391.5147	0.2763
391.7213	0.2874
391.9278	0.272
392.1343	0.2861
392.3408	0.2818
392.5473	0.2759
392.7537	0.274
392.9602	0.2665
393.1666	0.2745
393.373	0.2764
393.5794	0.2714
393.7858	0.2761
393.9922	0.2634
394.1986	0.2689
394.4049	0.2754
394.6113	0.2692
394.8176	0.2669
395.0239	0.2564
395.2302	0.2603
395.4365	0.2636
395.6428	0.2639
395.8491	0.2606
396.0553	0.2569
396.2615	0.2659
396.4678	0.2651
396.674	0.2479
396.8802	0.2584
397.0863	0.2509
397.2925	0.2541
397.4987	0.2483
397.7048	0.2619
397.9109	0.2515
398.117	0.252
398.3231	0.2549
398.5292	0.2455
398.7353	0.2444
398.9413	0.2427
399.1474	0.255
399.3534	0.2533
399.5594	0.2463
399.7654	0.2501
399.9714	0.2459
400.1774	0.2451
400.3833	0.2483
400.5893	0.2481
400.7952	0.2489
401.0011	0.2501
401.207	0.2525
401.4129	0.2461
401.6188	0.251
401.8247	0.258
402.0305	0.2508
402.2364	0.2467
402.4422	0.2432
402.648	0.2529
402.8538	0.2426
403.0596	0.2438
403.2654	0.2507
403.4711	0.2393
403.6768	0.2457
403.8826	0.2538
404.0883	0.252
404.294	0.2487
404.4997	0.242
404.7054	0.2522
404.911	0.2475
405.1167	0.2516
405.3223	0.25
405.5279	0.2405
405.7335	0.2508
405.9391	0.2554
406.1447	0.2425
406.3502	0.2493
406.5558	0.2466
406.7613	0.2398
406.9668	0.249
407.1724	0.2466
407.3778	0.2486
407.5833	0.2447
407.7888	0.2507
407.9942	0.2509
408.1997	0.2592
408.4051	0.2536
408.6105	0.2506
408.8159	0.2314
409.0213	0.2468
409.2267	0.2578
409.432	0.2508
409.6374	0.2515
409.8427	0.2569
410.048	0.2511
410.2533	0.2409
410.4586	0.2468
410.6639	0.2538
410.8691	0.2403
411.0744	0.2403
411.2796	0.2502
411.4848	0.2441
411.69	0.2332
411.8952	0.2507
412.1004	0.242
412.3056	0.2466
412.5107	0.2497
412.7158	0.2456
412.921	0.2438
413.1261	0.2465
413.3312	0.2435
413.5362	0.2554
413.7413	0.2492
413.9464	0.2446
414.1514	0.2494
414.3564	0.2398
414.5614	0.2375
414.7664	0.2413
414.9714	0.2315
415.1764	0.2402
415.3813	0.2377
415.5863	0.2468
415.7912	0.2375
415.9961	0.2465
416.201	0.2448
416.4059	0.2484
416.6108	0.2423
416.8156	0.2401
417.0205	0.2421
417.2253	0.2439
417.4301	0.2375
417.6349	0.2357
417.8397	0.2443
418.0445	0.2431
418.2492	0.2301
418.454	0.2276
418.6587	0.2345
418.8634	0.2381
419.0681	0.2359
419.2728	0.2368
419.4775	0.2443
419.6822	0.233
419.8868	0.2321
420.0915	0.2265
420.2961	0.2126
420.5007	0.232
420.7053	0.2332
420.9099	0.2336
421.1144	0.2245
421.319	0.2286
421.5235	0.2194
421.728	0.2276
421.9325	0.2291
422.137	0.2264
422.3415	0.2213
422.546	0.2226
422.7504	0.2232
422.9549	0.231
423.1593	0.2132
423.3637	0.223
423.5681	0.2258
423.7725	0.2204
423.9769	0.2268
424.1812	0.2054
424.3856	0.2064
424.5899	0.2237
424.7942	0.2131
424.9985	0.2071
425.2028	0.2174
425.4071	0.2113
425.6113	0.2063
425.8156	0.2016
426.0198	0.2108
426.224	0.2251
426.4282	0.2032
426.6324	0.2071
426.8366	0.2042
427.0407	0.2089
427.2449	0.1985
427.449	0.194
427.6531	0.2176
427.8572	0.2066
428.0613	0.2066
428.2654	0.203
428.4694	0.1824
428.6735	0.1919
428.8775	0.1875
429.0815	0.1868
429.2855	0.1969
429.4895	0.1935
429.6935	0.1904
429.8975	0.1843
430.1014	0.1865
430.3053	0.1925
430.5093	0.193
430.7132	0.179
430.9171	0.1757
431.1209	0.1896
431.3248	0.1772
431.5286	0.1789
431.7325	0.1791
431.9363	0.1734
432.1401	0.1792
432.3439	0.1686
432.5477	0.1655
432.7514	0.1665
432.9552	0.1624
433.1589	0.1614
433.3627	0.1642
433.5664	0.1599
433.7701	0.167
433.9737	0.1539
434.1774	0.163
434.3811	0.1552
434.5847	0.1507
434.7883	0.1526
434.9919	0.1424
435.1955	0.1547
435.3991	0.1528
435.6027	0.1453
435.8062	0.158
436.0098	0.1406
436.2133	0.144
436.4168	0.1371
436.6203	0.1338
436.8238	0.1386
437.0272	0.1311
437.2307	0.1297
437.4341	0.1329
437.6375	0.1394
437.841	0.1246
438.0443	0.126
438.2477	0.1222
438.4511	0.1217
438.6545	0.1213
438.8578	0.1254
439.0611	0.1246
439.2644	0.1222
439.4677	0.1179
439.671	0.111
439.8743	0.1208
440.0775	0.1104
440.2808	0.1076
440.484	0.1011
440.6872	0.1051
440.8904	0.1005
441.0936	0.1098
441.2967	0.0873
441.4999	0.0959
441.703	0.0967
441.9062	0.0978
442.1093	0.0989
442.3124	0.0874
442.5155	0.0889
442.7185	0.0868
442.9216	0.0969
443.1246	0.0865
443.3276	0.0878
443.5307	0.0855
443.7337	0.0902
443.9366	0.0782
444.1396	0.0792
444.3426	0.0929
444.5455	0.0827
444.7484	0.0704
444.9513	0.0787
445.1542	0.0809
445.3571	0.0765
445.56	0.0656
445.7628	0.0769
445.9657	0.0808
446.1685	0.0804
446.3713	0.0731
446.5741	0.0724
446.7769	0.0739
446.9797	0.0672
447.1824	0.0607
447.3852	0.0543
447.5879	0.0639
447.7906	0.057
447.9933	0.0585
448.196	0.0619
448.3986	0.0615
448.6013	0.0539
448.8039	0.0643
449.0066	0.0601
449.2092	0.0608
449.4118	0.056
449.6143	0.0587
449.8169	0.0508
450.0195	0.0477
450.222	0.0583
450.4245	0.056
450.627	0.0394
450.8295	0.0495
451.032	0.0453
451.2345	0.0452
451.4369	0.0484
451.6394	0.0399
451.8418	0.0453
452.0442	0.0492
452.2466	0.0373
452.449	0.0398
452.6513	0.0456
452.8537	0.0384
453.056	0.0374
453.2583	0.0395
453.4607	0.0273
453.663	0.0347
453.8652	0.0324
454.0675	0.04
454.2697	0.026
454.472	0.0296
454.6742	0.0297
454.8764	0.034
455.0786	0.0395
455.2808	0.0263
455.4829	0.0324
455.6851	0.0372
455.8872	0.0279
456.0893	0.0331
456.2915	0.0331
456.4935	0.0342
456.6956	0.033
456.8977	0.0249
457.0997	0.0412
457.3018	0.0172
457.5038	0.0275
457.7058	0.0331
457.9078	0.0276
458.1098	0.0316
458.3117	0.0246
458.5137	0.0176
458.7156	0.0194
458.9175	0.0277
459.1194	0.027
459.3213	0.0197
459.5232	0.0197
459.725	0.0178
459.9269	0.0216
460.1287	0.0209
460.3305	0.026
460.5323	0.0204
460.7341	0.0236
460.9359	0.0156
461.1376	0.0285
461.3394	0.0158
461.5411	0.035
461.7428	0.025
461.9445	0.0175
462.1462	0.0172
462.3479	0.0213
462.5495	0.0233
462.7512	0.0334
462.9528	0.0178
463.1544	0.0073
463.356	0.0147
463.5576	0.0175
463.7592	0.0159
463.9607	0.0165
464.1623	0.0187
464.3638	0.0124
464.5653	0.0155
464.7668	0.0203
464.9683	0.0262
465.1697	0.0175
465.3712	0.0054
465.5726	0.0145
465.7741	0.024
465.9755	0.0116
466.1769	0.0082
466.3782	0.0063
466.5796	0.0179
466.7809	0.0172
466.9823	0.0095
467.1836	0.0079
467.3849	0.0035
467.5862	0.0006
467.7875	0.0053
467.9887	0.0118
468.19	0.0154
468.3912	0.0173
468.5924	0.0185
468.7936	0.019
468.9948	-0.0018
469.196	0.0069
469.3972	-0.0017
469.5983	0.0099
469.7994	0.0086
470.0006	0.0159
470.2017	0.0081
470.4027	0.0229
470.6038	0.0085
470.8049	0.0047
471.0059	0.0181
471.2069	0.0067
471.408	0.0195
471.6089	0.0138
471.8099	0.0014
472.0109	0.0027
472.2119	0.0159
472.4128	0.0074
472.6137	0.0082
472.8146	0.0119
473.0155	0.0082
473.2164	0.0154
473.4173	0.0046
473.6181	-0.002
473.819	0.0044
474.0198	0.0047
474.2206	0.0014
474.4214	0.0077
474.6222	-0.0074
474.8229	0.0125
475.0237	0.0079
475.2244	0.0099
475.4251	0.0122
475.6258	0.0015
475.8265	0.0063
476.0272	-0.0031
476.2278	0.012
476.4285	0.0009
476.6291	0.0149
476.8297	0.0157
477.0303	-0.0015
477.2309	0.0067
477.4315	0.0166
477.632	-0.0087
477.8326	0.0099
478.0331	0.0178
478.2336	0.0078
478.4341	0.0043
478.6346	0.0037
478.8351	0.0023
479.0355	0.0139
479.236	0.0166
479.4364	0.0052
479.6368	0.0063
479.8372	0.0124
480.0376	0.0024
480.2379	0.0056
480.4383	0.0068
480.6386	0.0028
480.8389	0.0042
481.0392	0.0018
481.2395	0.005
481.4398	0.007
481.6401	0.0054
481.8403	0.0031
482.0405	0.002
482.2408	0.0091
482.441	0.009
482.6411	0.0045
482.8413	0.0024
483.0415	0.0099
483.2416	-0.0042
483.4417	0.0046
483.6419	0.0014
483.8419	0.0067
484.042	0.0098
484.2421	-0.0011
484.4422	-0.0057
484.6422	0.0039
484.8422	0.0031
485.0422	0.0069
485.2422	0.004
485.4422	0.0066
485.6422	0.0049
485.8421	0.0036
486.042	0.0145
486.242	0.0033
486.4419	0.0132
486.6417	0.009
486.8416	0.0071
487.0415	0.0005
487.2413	0.0002
487.4411	0.0014
487.641	0.0047
487.8408	0.001
488.0405	0.0067
488.2403	-0.0055
488.4401	0.0059
488.6398	0.0118
488.8395	0.0071
489.0392	0.004
489.2389	0.0117
489.4386	-0.0014
489.6383	0.0118
489.8379	-0.0054
490.0376	0.0015
490.2372	0.0027
490.4368	-0.0019
490.6364	-0.0042
490.836	-0.0013
491.0355	-0.0032
491.2351	0.0021
491.4346	-0.0013
491.6341	-0.0021
491.8336	0.0032
492.0331	-0.0043
492.2326	0.0079
492.432	0.0091
492.6315	0.0106
492.8309	0.0112
493.0303	-0.001
493.2297	0.0034
493.4291	0.0007
493.6284	0.004
493.8278	0.0004
494.0271	0.003
494.2264	0.0049
494.4257	0.0017
494.625	-0.0015
494.8243	-0.003
495.0236	-0.0006
495.2228	0.0086
495.422	0.0074
495.6213	0.0073
495.8205	0.0118
496.0196	0.0009
496.2188	0.0007
496.418	-0.0017
496.6171	-0.0071
496.8162	-0.0028
497.0153	-0.0017
497.2144	-0.0005
497.4135	-0.007
497.6126	0.0009
497.8116	-0.0039
498.0107	0.0006
498.2097	0.0028
498.4087	-0.002
498.6077	-0.0037
498.8067	-0.0017
499.0056	-0.003
499.2046	-0.0006
499.4035	0.0044
499.6024	-0.0035
499.8013	0.0036
500.0002	0.0026
500.199	0.0094
500.3979	-0.0047
500.5967	0.0051
500.7956	0
500.9944	0.0062
501.1932	0.0021
501.3919	0.003
501.5907	-0.0048
501.7895	0.0005
501.9882	0.0024
502.1869	0.0055
502.3856	-0.007
502.5843	0.0019
502.783	-0.0093
502.9816	0.0111
503.1803	0.0105
503.3789	0.0018
503.5775	-0.0047
503.7761	-0
503.9747	0
504.1732	-0.003
504.3718	0.0037
504.5703	-0.0002
504.7689	-0.014
504.9674	-0.0012
505.1658	0.0055
505.3643	0.0106
505.5628	0.0099
505.7612	0.0024
505.9597	-0.005
506.1581	-0.0046
506.3565	-0.0041
506.5549	-0.0035
506.7532	-0.0065
506.9516	0.0018
507.1499	-0.0042
507.3482	0.0003
507.5465	0.0034
507.7448	-0.0014
507.9431	0.0078
508.1414	-0.0099
508.3396	-0.01
508.5379	-0.0006
508.7361	0.0029
508.9343	-0.0021
509.1325	0.0012
509.3306	-0.004
509.5288	-0.0098
509.7269	0.0001
509.9251	0.0054
510.1232	-0.002
510.3213	-0.0003
510.5193	-0.0032
510.7174	-0.0043
510.9154	0.0062
511.1135	-0.0072
511.3115	-0.005
511.5095	-0.0059
511.7075	0.0039
511.9055	-0.0044
512.1034	-0.0079
512.3014	0.0029
512.4993	0.0008
512.6972	-0.0074
512.8951	0.001
513.093	-0.0076
513.2908	0.0044
513.4887	0.0009
513.6865	-0.0037
513.8844	0.0115
514.0822	0.0016
514.2799	-0.0044
514.4777	-0.0048
514.6755	-0.0028
514.8732	-0.002
515.0709	-0.0022
515.2687	-0.003
515.4664	-0.0028
515.664	0.0016
515.8617	-0.0009
516.0594	0.0002
516.257	-0.0058
516.4546	0.0061
516.6522	0.0031
516.8498	-0.004
517.0474	0.0008
517.2449	-0.0133
517.4425	-0.0009
517.64	0.0006
517.8375	0.0007
518.035	-0.0047
518.2325	-0.0105
518.43	-0.0124
518.6274	-0.0025
518.8249	-0.0126
519.0223	0.0006
519.2197	-0.0033
519.4171	-0.0057
519.6145	0.0023
519.8118	-0.0015
520.0092	-0.0179
520.2065	0.0004
520.4038	0.0013
520.6011	-0.001
520.7984	0.0028
520.9956	0.0048
521.1929	0.0052
521.3901	-0.0023
521.5874	0.0116
521.7846	-0.0084
521.9818	0.0006
522.1789	-0.0085
522.3761	0.0024
522.5732	0.0029
522.7704	-0.0122
522.9675	-0.0116
523.1646	-0.0044
523.3617	0.0028
523.5587	-0.0045
523.7558	0.0053
523.9528	0.0134
524.1498	-0.0154
524.3468	-0.0003
524.5438	-0.0071
524.7408	-0.0131
524.9378	-0.0018
525.1347	-0.003
525.3316	0.0048
525.5285	-0.0057
525.7254	-0.0061
525.9223	0.0051
526.1192	-0.0025
526.316	0.0086
526.5129	-0.0006
526.7097	-0.0136
526.9065	-0.0035
527.1033	-0.0001
527.3	-0.0078
527.4968	0.0009
527.6935	-0.009
527.8903	-0.0058
528.087	-0.0059
528.2837	0.0068
528.4804	-0.009
528.677	0.0015
528.8737	-0.0029
529.0703	-0.0047
529.2669	0.0065
529.4635	-0.0078
529.6601	-0.0073
529.8567	-0.0136
530.0532	-0.0137
530.2498	-0.0043
530.4463	-0.0082
530.6428	0.0029
530.8393	-0.0063
531.0358	0.0034
531.2322	-0.0046
531.4287	-0.0037
531.6251	-0.0165
531.8215	-0.0083
532.0179	-0.0056
532.2143	0.0111
532.4107	0.0084
532.607	-0.0069
532.8034	-0.0069
532.9997	-0.0061
533.196	-0.0068
533.3923	0.0073
533.5886	0.0038
533.7848	-0.0079
533.9811	0.0026
534.1773	0.0052
534.3735	0.0048
534.5697	-0.0012
534.7659	-0.0018
534.9621	0.0018
535.1582	-0.0009
535.3544	0.0016
535.5505	0.0003
535.7466	-0.0027
535.9427	0.0004
536.1387	-0.0087
536.3348	-0.0003
536.5308	-0.009
536.7269	-0.0088
536.9229	0.0067
537.1189	-0.0031
537.3148	0.0001
537.5108	-0.0025
537.7068	0.0041
537.9027	-0.0127
538.0986	0.0044
538.2945	-0.0079
538.4904	-0.005
538.6863	0.0035
538.8821	0.011
539.078	0.0029
539.2738	-0.0039
539.4696	-0.0027
539.6654	-0.0063
539.8611	0.0038
540.0569	-0.0008
540.2526	0.0129
540.4484	-0.0111
540.6441	-0.0017
540.8398	0.0042
541.0355	-0.0078
541.2311	0.0104
541.4268	0.0058
541.6224	0.0101
541.818	0.0027
542.0136	-0.0035
542.2092	0.0033
542.4048	-0.0053
542.6003	-0.004
542.7959	0.0014
542.9914	0.0044
543.1869	0.007
543.3824	-0.0026
543.5779	0.0121
543.7734	0.0125
543.9688	0.0048
544.1642	-0.0029
544.3596	0.0104
544.555	-0.0008
544.7504	0.0099
544.9458	0.0045
545.1411	0.0043
545.3365	0.0038
545.5318	0.0017
545.7271	0.0155
545.9224	-0.0069
546.1177	0.0034
546.3129	0.012
546.5081	-0.0035
546.7034	0.0037
546.8986	-0.0016
547.0938	0.0061
547.289	0.0063
547.4841	0.0045
547.6793	0.0032
547.8744	0.0038
548.0695	-0.0062
548.2646	0.008
548.4597	0.0051
548.6548	0.0119
548.8498	0.0076
549.0448	0.0008
549.2399	0.0041
549.4349	0.0065
549.6298	0.0062
549.8248	-0.0014
550.0198	0.0034
550.2147	0.0047
550.4096	-0.009
550.6045	-0
550.7994	0.0022
550.9943	0.0013
551.1892	-0.0148
551.384	0.0048
551.5788	-0.0025
551.7737	0.0032
551.9685	0.002
552.1632	-0.001
552.358	0.0038
552.5528	-0.0002
552.7475	0.0117
552.9422	0.0083
553.1369	0.0114
553.3316	0.0066
553.5263	0.0073
553.7209	-0.0029
553.9156	-0.002
554.1102	0.0043
554.3048	-0.0009
554.4994	0.0019
554.694	-0.001
554.8885	0.0089
555.0831	0.0065
555.2776	0.0049
555.4721	0.0087
555.6666	0.0044
555.8611	0.0054
556.0555	0.0029
556.25	0.0115
556.4444	0.0055
556.6388	0.0005
556.8332	0.0027
557.0276	0.006
557.222	-0.0044
557.4163	0.0076
557.6107	-0.0024
557.805	-0.0057
557.9993	-0.0026
558.1936	0.006
558.3879	0.0139
558.5821	-0.0048
558.7764	-0.002
558.9706	-0.0036
559.1648	0.0013
559.359	0.0016
559.5532	0.0032
559.7473	-0.0006
559.9415	-0.0035
560.1356	0.0143
560.3297	-0.0053
560.5238	0.0081
560.7179	0.0012
560.9119	0.0004
561.106	-0.0063
561.3	0.0035
561.494	-0.0056
561.688	-0.0033
561.882	-0.0032
562.076	0.0077
562.2699	0.006
562.4639	0.0108
562.6578	0.0133
562.8517	0.0027
563.0456	0.0047
563.2395	0.0054
563.4333	0.0044
563.6272	0.0028
563.821	0.0089
564.0148	0.0028
564.2086	0.0023
564.4024	0.0006
564.5961	0.0064
564.7899	0.0165
564.9836	0.0006
565.1773	0.0094
565.371	-0.0026
565.5647	0.0054
565.7584	0.0111
565.952	-0.0049
566.1456	0.0049
566.3393	0.0129
566.5329	0.004
566.7264	0.0095
566.92	0.0086
567.1136	-0.0016
567.3071	-0.0082
567.5006	0.0071
567.6941	0.0023
567.8876	0.0071
568.0811	0.0109
568.2745	0.0063
568.468	0.0078
568.6614	0.0161
568.8548	0.0065
569.0482	0.0106
569.2416	0.0048
569.4349	0.0049
569.6283	0.0022
569.8216	0.0075
570.0149	0.0023
570.2082	0.0105
570.4015	0.006
570.5947	0.0045
570.788	0.0095
570.9812	0.004
571.1744	0.0096
571.3676	0.0037
571.5608	0.0049
571.754	0.0111
571.9471	0.0089
572.1402	0.008
572.3333	0.0096
572.5264	0.0101
572.7195	0.0046
572.9126	0.0006
573.1057	0.0072
573.2987	0.0059
573.4917	0.0054
573.6847	0.0097
573.8777	0.0105
574.0707	0.0087
574.2636	0.0075
574.4566	0.0069
574.6495	0.0058
574.8424	0.0085
575.0353	0.0103
575.2281	0.0101
575.421	0.0058
575.6138	0.0021
575.8067	0.0095
575.9995	0.0078
576.1923	0.0066
576.385	0.0074
576.5778	0.0122
576.7706	0.0078
576.9633	0.0084
577.156	0.0039
577.3487	0.0052
577.5414	0.0055
577.734	0.0043
577.9267	0.0098
578.1193	0.0096
578.3119	0.0054
578.5045	0.0062
578.6971	0.0032
578.8897	0.0079
579.0822	0.0087
579.2747	0.0038
579.4673	0.0089
579.6598	0.0089
579.8522	0.0065
580.0447	0.0099
580.2372	0.0092
580.4296	0.0121
580.622	0.006
580.8144	0.0093
581.0068	0.0062
581.1992	0.0081
581.3915	0.0006
581.5839	0.0071
581.7762	0.0056
581.9685	0.007
582.1608	0.009
582.353	0.0052
582.5453	0.0057
582.7375	0.0083
582.9298	0.0013
583.122	0.0023
583.3142	0.0116
583.5063	0.0066
583.6985	0.0051
583.8906	0.0018
584.0827	0.0031
584.2749	0.006
584.4669	0.0069
584.659	0.0119
584.8511	0.0119
585.0431	0.011
585.2352	0.006
585.4272	0.0086
585.6192	0.0078
585.8111	0.0091
586.0031	0.0064
586.195	0.0032
586.387	0.0065
586.5789	0.0091
586.7708	0.0117
586.9627	0.0098
587.1545	0.0091
587.3464	0.0082
587.5382	0.0072
587.73	0.0088
587.9218	0.0061
588.1136	0.0035
588.3053	0.0089
588.4971	0.0072
588.6888	0.0057
588.8805	0.0022
589.0722	0.0087
589.2639	0.0085
589.4556	0.0064
589.6472	0.0149
589.8389	0.0051
590.0305	0.0008
590.2221	0.0103
590.4137	0.0058
590.6052	0.0015
590.7968	0.0069
590.9883	0.0091
591.1798	0.0064
591.3713	0.0029
591.5628	0.0019
591.7543	0.0047
591.9458	0.0005
592.1372	0.0074
592.3286	0.0059
592.52	0.0044
592.7114	0.0085
592.9028	0.016
593.0941	0.0036
593.2855	0.0041
593.4768	0.0132
593.6681	0.006
593.8594	0.0113
594.0506	0.0068
594.2419	0.007
594.4331	0.0062
594.6244	0.0033
594.8156	0.0042
595.0067	0.0027
595.1979	0.0012
595.3891	0.01
595.5802	0.0115
595.7713	0.0045
595.9624	0.005
596.1535	0
596.3446	0.0061
596.5357	0.0057
596.7267	0.006
596.9177	0.0062
597.1087	0.0003
597.2997	0.008
597.4907	0.0071
597.6817	0.0146
597.8726	0.0102
598.0635	0.0046
598.2544	0.0123
598.4453	0.0057
598.6362	0.0064
598.827	0.0079
599.0179	0.0083
599.2087	0.0121
599.3995	0.0117
599.5903	0.0119
599.7811	0.0098
599.9718	0.0059
600.1626	0.0042
600.3533	0.0071
600.544	0.0056
600.7347	0.0047
600.9254	0.0108
601.116	0.0066
601.3067	0.0098
601.4973	0.0056
601.6879	0.004
601.8785	0.0125
602.0691	0.0007
602.2596	0.0105
602.4502	0.0079
602.6407	0.0069
602.8312	0.0091
603.0217	0.0065
603.2122	0.0098
603.4027	0.0036
603.5931	0.0047
603.7835	0.0066
603.9739	0.0008
604.1643	0.013
604.3547	0.0095
604.5451	0.0077
604.7354	0.0045
604.9257	0.0039
605.116	0.0035
605.3063	0.0101
605.4966	0.0065
605.6869	0.0095
605.8771	0.0067
606.0673	0.0041
606.2575	0.0091
606.4477	0.0093
606.6379	0.0038
606.8281	0.0081
607.0182	0.0072
607.2083	0.0087
607.3985	0.0103
607.5885	0.0043
607.7786	0.0106
607.9687	0.0111
608.1587	0.012
608.3488	0.0045
608.5388	-0.0029
608.7288	0.0043
608.9187	0.007
609.1087	0.0132
609.2986	0.0069
609.4886	0.0007
609.6785	0.0074
609.8684	0.002
610.0582	0.0027
610.2481	0.0028
610.4379	0.0059
610.6278	0.0079
610.8176	0.0163
611.0074	0.0016
611.1971	0.0036
611.3869	0.0093
611.5766	0.0014
611.7664	0.0171
611.9561	0.0071
612.1458	0.0038
612.3354	0.0038
612.5251	0.0036
612.7147	0.0112
612.9044	0.008
613.094	0.0122
613.2836	0.0085
613.4731	0.006
613.6627	0.0147
613.8522	0.0098
614.0417	0.0014
614.2313	0.0056
614.4207	0.0072
614.6102	0.0051
614.7997	0.0127
614.9891	0.0077
615.1785	0.0022
615.3679	0.0102
615.5573	0.0064
615.7467	0.0016
615.9361	0.0061
616.1254	0.011
616.3147	0.0109
616.504	0.0071
616.6933	0.0058
616.8826	0.0073
617.0718	0.0116
617.2611	0.0099
617.4503	0.007
617.6395	0.0133
617.8287	0.0112
618.0179	0.0017
618.207	0.0108
618.3961	0.005
618.5853	0.0059
618.7744	0.0073
618.9634	0.0191
619.1525	-0.0021
619.3416	-0.0042
619.5306	0.0104
619.7196	0.0117
619.9086	0.0042
620.0976	-0.0061
620.2866	0.0071
620.4755	0.0069
620.6645	0.0189
620.8534	0.0044
621.0423	0.0062
621.2312	0.0053
621.42	0.0009
621.6089	-0.0031
621.7977	0.0051
621.9865	0.0114
622.1753	0.0005
622.3641	0.0021
622.5529	0.0072
622.7416	0.0071
622.9303	0.0082
623.1191	0.0049
623.3078	0.0124
623.4964	0.0077
623.6851	0.0064
623.8737	0.001
624.0624	-0.006
624.251	0.0001
624.4396	0.0085
624.6282	0.0149
624.8167	0.0013
625.0053	0.0069
625.1938	0.0067
625.3823	0.0111
625.5708	0.0049
625.7593	-0.0084
625.9477	0.0196
626.1362	-0
626.3246	0.0061
626.513	0.0064
626.7014	0.0054
626.8898	0.0153
627.0781	0.0177
627.2665	0.0067
627.4548	0.0012
627.6431	0.0185
627.8314	0.0117
628.0197	0.0062
628.2079	0.0101
628.3962	0.006
628.5844	0.0032
628.7726	-0.004
628.9608	0.0079
629.1489	0.0039
629.3371	0.0018
629.5252	0.0094
629.7134	-0.0031
629.9015	0.0124
630.0895	-0.0029
630.2776	0.0092
630.4657	0.0099
630.6537	0.0049
630.8417	-0.0018
631.0297	0.0088
631.2177	0.0026
631.4057	0.0158
631.5936	-0.0009
631.7815	0.0125
631.9695	0.0143
632.1574	0.0072
632.3452	0.009
632.5331	-0.0055
632.7209	0.0161
632.9088	0.0014
633.0966	0.029
633.2844	0.0126
633.4722	0.0148
633.6599	0.0277
633.8477	0.0014
634.0354	0.0045
634.2231	-0.005
634.4108	0.0132
634.5985	0.0196
634.7861	0.0027
634.9738	0.0005
635.1614	0.0003
635.349	0.0032
635.5366	0.0124
635.7242	-0.0008
635.9117	0.0104
636.0993	0.0145
636.2868	-0.0052
636.4743	0.0133
636.6618	-0.0044
636.8492	0.0178
637.0367	0.0124
637.2241	-0.0054
637.4115	0.037
637.5989	0.0012
637.7863	0.0247
637.9737	0.004
638.161	0.0107
638.3484	-0.0044
638.5357	-0.0004
638.723	0.016
638.9103	-0.0069
639.0975	0.0164
639.2848	0.0079
639.472	0.02
639.6592	-0.0115
639.8464	0.0235
640.0336	0.0076
640.2208	-0.0034
640.4079	-0.0032
640.595	-0.008
640.7821	0.0142
640.9692	-0.0069
641.1563	0.0083
641.3434	0.0214
641.5304	0.0186
641.7174	0.0122
641.9044	0.0058
642.0914	0.0159
642.2784	-0.0003
642.4653	-0.0113
642.6523	0.0087
642.8392	-0.0032
643.0261	0.0277
643.213	0.003
643.3999	0.0114
643.5867	0.0191
643.7735	0.0136
643.9604	0.0107
644.1472	0.0091
644.3339	-0.0112
644.5207	0.0049
644.7075	0.0113
644.8942	0.0039
645.0809	0.016
645.2676	0.0033
645.4543	0.0021
645.6409	0.0178
645.8276	0.0102
646.0142	0.0086
646.2008	0.0054
646.3874	-0.0083
646.574	0.0124
646.7605	-0.0018
646.9471	0.0069
647.1336	-0.0094
647.3201	0.0068
647.5066	-0.0018
647.6931	0.0119
647.8795	0.0151
648.0659	0.0085
648.2524	0.0152
648.4388	0.0101
648.6252	0.0156
648.8115	0.0048
648.9979	-0.0017
649.1842	0.0027
649.3705	0.02
649.5568	-0.014
649.7431	-0.0052
649.9294	0.0031
650.1156	0.0051
650.3018	0.02
650.488	0.0084
650.6742	-0.0013
650.8604	-0.003
651.0466	-0.0066
651.2327	0.0037
651.4188	0.0164
651.6049	0.0113
651.791	0.0051
651.9771	0.0146
652.1632	0.0196
652.3492	-0.0045
652.5352	0.0009
652.7212	0.0025
652.9072	-0.0037
653.0932	0.0017
653.2791	0.0081
653.465	0.0109
653.651	0.0078
653.8369	-0.0005
654.0227	-0.0007
654.2086	0.0001
654.3944	0.0097
654.5803	0.0101
654.7661	0.0075
654.9519	0.0006
655.1377	0
655.3234	0
655.5092	0
655.6949	0
655.8806	0
656.0663	0
656.2519	0
656.4376	0
656.6232	0
656.8088	0
656.9945	0
657.18	0
657.3656	0
657.5511	0
657.7367	0
657.9222	0
658.1077	0
658.2932	0
658.4786	0
658.6641	0
658.8495	0
659.0349	0
659.2203	0
659.4057	0.0212
659.591	0.2792
659.7764	0.0234
659.9617	0.0121
660.147	0.0021
660.3323	0.0308
660.5176	0.0098
660.7028	-0.0052
660.888	0.0017
661.0733	0.0108
661.2585	-0.0023
661.4436	0.0011
661.6288	0.0345
661.8139	0.0007
661.9991	-0.0019
662.1842	0.0018
662.3693	-0.0046
662.5544	0.0155
662.7394	0.0203
662.9245	0.0207
663.1095	-0.0054
663.2945	-0.009
663.4795	-0.0066
663.6644	0.0202
663.8494	0.0126
664.0343	0.0048
664.2193	-0.0128
664.4042	0.018
664.589	0.0166
664.7739	0.0036
664.9587	-0.0161
665.1436	-0.0025
665.3284	-0.0065
665.5132	-0.0111
665.698	0.0104
665.8827	0.0265
666.0675	-0.0045
666.2522	0.0144
666.4369	0.0022
666.6216	0.0157
666.8063	0.0029
666.9909	0.0033
667.1756	0.0079
667.3602	-0.0098
667.5448	-0.0014
667.7294	0.0201
667.9139	-0.0049
668.0985	0.0168
668.283	0.0208
668.4675	0.0226
668.652	0.0012
668.8365	-0.0034
669.0209	0.0022
669.2054	0.0157
669.3898	0.0053
669.5742	0.0221
669.7586	0.0102
669.943	-0.0025
670.1273	0.0059
670.3117	0.0322
670.496	0.006
670.6803	0.0136
670.8646	0.0013
671.0488	0.0206
671.2331	-0.0087
671.4173	-0.0059
671.6015	0.0013
671.7857	0.01
671.9699	0.0203
672.1541	0.0011
672.3382	0.0013
672.5223	0.0137
672.7064	0.0081
672.8905	0.0039
673.0746	0.006
673.2587	0.0106
673.4427	0.0132
673.6267	0.0208
673.8107	0.0271
673.9947	0.0341
674.1787	-0.0007
674.3626	0.0043
674.5465	0.0197
674.7304	-0.0151
674.9143	-0.0023
675.0982	0.0111
675.2821	0.0128
675.4659	0.0018
675.6497	-0.0068
675.8335	0.0102
676.0173	-0.0095
676.2011	0.0234
676.3849	0.0121
676.5686	0.0388
676.7523	0.0306
676.936	0.0224
677.1197	0.0074
677.3034	0.0263
677.487	-0.0008
677.6706	-0.004
677.8542	0.0026
678.0378	0.0104
678.2214	0.0083
678.405	0.0152
678.5885	-0.0001
678.772	0.0282
678.9555	0.0185
679.139	0.0191
679.3225	0.0081
679.5059	-0.0006
679.6894	0.0157
679.8728	0.009
680.0562	0.0166
680.2395	0.0051
680.4229	0.0004
680.6062	0.0093
680.7896	-0.025
680.9729	0.0086
681.1562	0.0018
681.3394	-0.0005
681.5227	0.0034
681.7059	0.0002
681.8891	0.0195
682.0723	-0.0039
682.2555	0.0074
682.4387	0.0261
682.6218	0.0095
682.805	0.0054
682.9881	-0.0086
683.1712	0.0058
683.3542	0.0087
683.5373	-0.0033
683.7203	0.0134
683.9034	0.0109
684.0864	-0.0013
684.2694	0.0089
684.4523	0.0038
684.6353	0.0005
684.8182	0.0114
685.0011	0.019
685.184	0.009
685.3669	0.0287
685.5498	0.0063
685.7326	0.0069
685.9154	-0.0048
686.0982	0.0161
686.281	-0.0089
686.4638	0.0243
686.6465	0.0064
686.8293	-0.0015
687.012	0.0193
687.1947	0.0134
687.3774	0.0014
687.56	0.0078
687.7427	0.0007
687.9253	-0.0147
688.1079	0.0198
688.2905	-0.0141
688.4731	0.0177
688.6556	0.0053
688.8382	-0.0024
689.0207	0.029
689.2032	0.0361
689.3857	-0.0069
689.5681	-0.0042
689.7506	0.035
689.933	0.0039
690.1154	-0.0049
690.2978	-0.0148
690.4802	0.0207
690.6626	-0.0039
690.8449	0.0062
691.0272	0.0029
691.2095	-0.0057
691.3918	0.0172
691.5741	0.0147
691.7563	0.0064
691.9386	0.0008
692.1208	0.0088
692.303	0.0168
692.4852	-0.0071
692.6673	0.0192
692.8495	0.0026
693.0316	0.0016
693.2137	0.013
693.3958	0.0129
693.5778	-0.0074
693.7599	-0.0124
693.9419	0.0065
694.1239	-0.0042
694.3059	0.0119
694.4879	-0.0057
694.6699	0.0149
694.8518	0.0069
695.0337	0.0247
695.2157	0.0425
695.3975	0.0031
695.5794	-0.0057
695.7613	0.0111
695.9431	0.003
696.1249	0.0293
696.3067	-0.0195
696.4885	0.0188
696.6703	-0.0098
696.852	0.004
697.0337	0.023
697.2154	0.008
697.3971	0.0075
697.5788	0.0126
697.7605	-0.0203
697.9421	0.0016
698.1237	0.0163
698.3053	0.0061
698.4869	0.0148
698.6685	0.0041
698.85	0.0287
699.0315	0.0052
699.213	-0.0028
699.3945	0.0116
699.576	0.0286
699.7575	0.0143
699.9389	0.0093
700.1203	-0.0127
700.3017	-0.004
700.4831	0.035
700.6645	0.0491
700.8458	-0.0115
701.0271	0.0174
701.2084	0.003
701.3897	0.0228
701.571	-0.0325
701.7523	0.028
701.9335	0.0182
702.1147	0.0182
702.2959	0.0107
702.4771	0.0307
702.6583	0.0034
702.8394	-0.0088
703.0205	0.0139
703.2016	0.0017
703.3827	-0.0193
703.5638	0.0172
703.7449	0.0224
703.9259	0.0252
704.1069	-0.013
704.2879	-0.0075
704.4689	0.0105
704.6499	0.0194
704.8308	0.0059
705.0117	0.0034
705.1927	0.0231
705.3735	-0.0111
705.5544	0.0154
705.7353	-0.0022
705.9161	-0.0105
706.0969	-0.0007
706.2777	-0.0017
706.4585	0.0047
706.6393	0.0353
706.82	0.0103
707.0007	-0.0222
707.1815	-0.0044
707.3621	0.0152
707.5428	0.0125
707.7235	0.0132
707.9041	0.0149
708.0847	0.008
708.2653	0.0257
708.4459	0.0138
708.6265	-0.0107
708.807	0.0097
708.9875	0.0336
709.168	-0.0022
709.3485	0.011
709.529	0.0117
709.7095	-0.0258
709.8899	-0.0069
710.0703	0.0144
710.2507	-0.0004
710.4311	-0.0214
710.6115	0.0163
710.7918	0.0245
710.9721	0.0104
711.1524	-0.0009
711.3327	-0.0133
711.513	-0.0045
711.6932	0.0149
711.8735	0.0295
712.0537	-0.0034
712.2339	0.0007
712.4141	0.0163
712.5942	-0.0218
712.7744	0.0219
712.9545	0.0086
713.1346	0.0421
713.3147	0.0248
713.4947	-0.0023
713.6748	0.012
713.8548	0.0147
714.0348	0.0132
714.2148	0.0353
714.3948	-0.001
714.5748	0.0069
714.7547	-0.0039
714.9346	0.0356
715.1145	-0.0001
715.2944	-0.015
715.4743	0.0508
715.6541	-0.0057
715.834	0.0436
716.0138	0.0099
716.1936	0.0079
716.3733	-0.0017
716.5531	0.0058
716.7328	0.0108
716.9126	0.0204
717.0923	-0.0186
717.2719	0.0151
717.4516	0.0156
717.6312	-0.0068
717.8109	0.029
717.9905	0.0115
718.1701	0.0047
718.3496	0.0175
718.5292	0.0018
718.7087	0.0213
718.8882	0.0181
719.0677	-0.0023
719.2472	0.0046
719.4267	0.001
719.6061	-0.0319
719.7856	0.0289
719.965	-0.0101
720.1443	0.0215
720.3237	-0.0122
720.5031	0.0029
720.6824	0.0068
720.8617	-0.0101
721.041	0.0342
721.2203	-0.0152
721.3995	0.0026
721.5788	0.0038
721.758	0.0134
721.9372	0.0047
722.1164	-0.0186
722.2956	-0.0152
722.4747	0.026
722.6538	-0.0006
722.8329	0.0315
723.012	0.0159
723.1911	0.0167
723.3702	0.0406
723.5492	0.0151
723.7282	0.0077
723.9072	0.0159
724.0862	0.0195
724.2652	-0.0095
724.4441	-0.0009
724.623	0.0206
724.8019	0.002
724.9808	-0.0001
725.1597	0.0088
725.3385	0.0053
725.5174	0.0171
725.6962	0.0295
725.875	0.015
726.0538	0.0027
726.2325	0.034
726.4112	-0.0177
726.59	-0.0149
726.7687	0.0065
726.9474	0.0201
727.126	0.0145
727.3047	-0.0212
727.4833	-0.0016
727.6619	-0.0207
727.8405	-0.0139
728.0191	0.0218
728.1976	0.015
728.3762	0.0193
728.5547	-0.0041
728.7332	0.0006
728.9116	0.0366
729.0901	0.0159
729.2686	0.0339
729.447	-0.0199
729.6254	0.0218
729.8038	0.0175
729.9821	-0.0026
730.1605	0.0284
730.3388	0.0039
730.5171	0.034
730.6954	-0.0038
730.8737	-0.0051
731.0519	-0.0059
731.2302	0.0069
731.4084	0.0063
731.5866	-0.0021
731.7648	0.0176
731.9429	0.0213
732.1211	-0.0115
732.2992	0.0206
732.4773	0.014
732.6554	-0.0052
732.8335	0.0163
733.0115	0.0076
733.1896	-0.0012
733.3676	0.0157
733.5456	0.0223
733.7235	0.0055
733.9015	0.0244
734.0794	0.016
734.2574	-0.0075
734.4353	0.0082
734.6131	0.0084
734.791	-0.0001
734.9689	0.0033
735.1467	-0.0137
735.3245	0.027
735.5023	0.001
735.68	0.0013
735.8578	0.0166
736.0355	0.0112
736.2132	-0.0079
736.3909	0.0093
736.5686	-0.0205
736.7463	-0.0157
736.9239	0.0117
737.1015	0.0192
737.2791	0.0131
737.4567	0.0002
737.6343	0.0017
737.8118	0.0178
737.9894	0.0002
738.1669	-0.0103
738.3444	0.0189
738.5218	0.0049
738.6993	0.0188
738.8767	0.0012
739.0541	0.0105
739.2315	-0.0085
739.4089	0.0294
739.5863	0.0072
739.7636	0.0157
739.9409	0.0315
740.1182	-0.0178
740.2955	0.0363
740.4728	-0.004
740.65	0.0012
740.8272	-0.0065
741.0044	-0.0101
741.1816	0.0447
741.3588	-0.0228
741.5359	-0.0315
741.7131	0.0165
741.8902	0.0159
742.0673	0.0015
742.2444	0.0541
742.4214	0.0153
742.5985	0.0003
742.7755	0.0229
742.9525	-0.012
743.1295	-0.0032
743.3064	0.0162
743.4834	-0.0056
743.6603	0.0562
743.8372	-0.0084
744.0141	0.0524
744.191	0.005
744.3678	-0.0197
744.5446	0.0345
744.7215	0.0093
744.8982	0.0342
745.075	0.0505
745.2518	0.0231
745.4285	0.0421
745.6052	-0.0254
745.7819	0.0273
745.9586	0.0273
746.1353	-0.0239
746.3119	0.0151
746.4885	0.0157
746.6651	0.0197
746.8417	-0.0039
747.0183	0.0499
747.1948	0.0215
747.3714	0.0249
747.5479	0.0253
747.7244	-0.013
747.9008	-0.0203
748.0773	0.0351
748.2537	0.0195
748.4301	0.0458
748.6065	-0.0046
748.7829	-0.0129
748.9593	0.0056
749.1356	0.0192
749.3119	0.0102
749.4882	0.0234
749.6645	0.0282
749.8408	0.0261
750.017	0.0057
750.1933	-0.0349
750.3695	0.0091
750.5457	0.0182
750.7218	-0.0055
750.898	-0.0015
751.0741	0.0262
751.2502	0.0152
751.4263	0.0101
751.6024	0.0177
751.7784	-0.019
751.9545	0.013
752.1305	0.0264
752.3065	0.0137
752.4825	0.0047
752.6584	-0.0252
752.8344	0.0129
753.0103	-0.0097
753.1862	0.0183
753.3621	0.0042
753.5379	-0.0113
753.7138	0.014
753.8896	0.0102
754.0654	-0.0117
754.2412	0.015
754.417	0.0184
754.5927	0.0158
754.7685	0.024
754.9442	0.0125
755.1199	-0.0076
755.2956	0.0101
755.4712	-0.006
755.6469	0.0074
755.8225	0.0132
755.9981	0.0082
756.1736	-0.0011
756.3492	0.0006
756.5248	0.0232
756.7003	-0.0066
756.8758	0.007
757.0513	0.0194
757.2267	0.0027
757.4022	0.0017
757.5776	0.0076
757.753	0.0034
757.9284	0.0087
758.1038	0.0203
758.2791	0.0223
758.4545	-0.0171
758.6298	0.0132
758.8051	0.0037
758.9803	0.0091
759.1556	0.0004
759.3308	-0.0043
759.506	0.003
759.6812	0.0171
759.8564	0.0114
760.0316	0.0008
760.2067	0.0208
760.3819	-0.0029
760.557	0.005
760.732	0.0013
760.9071	0.0208
761.0821	-0.0079
761.2572	0.0088
761.4322	0.0277
761.6072	-0.02
761.7821	-0.0189
761.9571	0.002
762.132	0.015
762.3069	0.027
762.4818	0.0294
762.6567	0.0224
762.8316	0.03
763.0064	0.0242
763.1812	0.0259
763.356	-0.0091
763.5308	0.0136
763.7055	0.0096
763.8803	-0.0034
764.055	-0.0034
764.2297	0.0109
764.4044	0.0013
764.579	-0.0005
764.7537	-0.0008
764.9283	0.0009
765.1029	0.0102
765.2775	0.0245
765.4521	0.0067
765.6266	0.0109
765.8011	0.0002
765.9756	0.0179
766.1501	0.0088
766.3246	0.0207
766.4991	0.027
766.6735	0.0471
766.8479	0.0273
767.0223	-0.0077
767.1967	0.0577
767.371	0.0113
767.5454	0.0214
767.7197	0.0361
767.894	0.0088
768.0683	0.037
768.2425	0.0084
768.4168	0.0151
768.591	0.0102
768.7652	-0.0031
768.9394	-0.0178
769.1135	0.0198
769.2877	0.023
769.4618	0.0341
769.6359	0.007
769.81	0.0397
769.984	-0.0105
770.1581	-0.0038
770.3321	0.0562
770.5061	-0.0019
770.6801	0.0221
770.8541	0.0287
771.028	0.0137
771.202	0.0163
771.3759	0.012
771.5498	0.0161
771.7236	-0.0046
771.8975	0.0109
772.0713	0.0026
772.2451	-0.0103
772.4189	0.0057
772.5927	-0.0232
772.7665	0.0187
772.9402	-0.0002
773.1139	0.0065
773.2876	-0.004
773.4613	-0.0047
773.635	0.0662
773.8086	0.0129
773.9822	0.0052
774.1558	0.0634
774.3294	0.0199
774.503	0.0351
774.6765	0.0129
774.8501	-0.0169
775.0236	0.0559
775.1971	-0.0269
775.3705	-0.0049
775.544	0.0172
775.7174	0.0038
775.8908	0.0696
776.0642	-0.0044
776.2376	0.029
776.4109	0.0486
776.5843	-0.0373
776.7576	0.0367
776.9309	0.0167
777.1041	-0.0228
777.2774	0.0253
777.4506	0.0438
777.6238	-0.0225
777.797	0.0177
777.9702	-0.0093
778.1434	0.0123
778.3165	0.0023
778.4896	-0.035
778.6627	0.0191
778.8358	0.008
779.0089	0.0101
779.1819	0.0036
779.3549	-0.011
779.5279	-0.0136
779.7009	0.014
779.8739	0.0427
780.0468	0.0451
780.2197	0.0038
780.3926	-0.0099
780.5655	0.0197
780.7384	0.0102
780.9112	0.0074
781.0841	0.012
781.2569	0.0225
781.4297	0.029
781.6024	0.0423
781.7752	0.0387
781.9479	0.0279
782.1206	0.0025
782.2933	0.016
782.466	-0.0076
782.6386	-0.0115
782.8113	0.0122
782.9839	-0.0269
783.1565	0.0059
783.329	-0.0127
783.5016	0.0027
783.6741	0.0059
783.8466	0.0164
784.0191	-0.007
784.1916	-0.0248
784.3641	-0.0091
784.5365	0.009
784.7089	-0.027
784.8813	0.089
785.0537	0.013
785.2261	0.0148
785.3984	0.0188
785.5707	-0.009
785.743	0.0533
785.9153	0.0179
786.0876	-0.0203
786.2598	0.0119
786.432	0.011
786.6042	0.0569
786.7764	-0.0535
786.9486	-0.0132
787.1207	0.0298
787.2928	0.0341
787.4649	-0.0085
787.637	-0.0072
787.8091	0.0063
787.9811	0.0155
788.1532	0.0144
788.3252	0.0092
788.4972	0.0059
788.6691	0.0063
788.8411	-0.0138
789.013	0.0276
789.1849	-0.0414
789.3568	0.0436
789.5287	0.0754
789.7005	-0.0124
789.8723	-0.0439
790.0442	0.0392
790.2159	-0.0095
790.3877	0.0586
790.5595	0.0308
790.7312	-0.0199
790.9029	0.0079
791.0746	-0.017
791.2463	-0.0487
791.4179	0.0428
791.5896	0.0026
791.7612	0.0867
791.9328	0.0109
792.1044	-0.0193
792.2759	-0.0162
792.4474	0.0436
792.619	-0.0171
792.7905	0.0554
792.9619	0.0144
793.1334	0.0521
793.3048	0.0616
793.4762	0.0347
793.6476	-0.0308
793.819	-0.0146
793.9904	0.0084
794.1617	0.0029
794.333	-0.0077
794.5043	0.0541
794.6756	0.0139
794.8469	0.0288
795.0181	0.0297
795.1893	0.0436
795.3605	0.0223
795.5317	0.0069
795.7029	0.061
795.874	-0.0095
796.0452	-0.0003
796.2163	0.0299
796.3873	0.0597
796.5584	-0.0021
796.7294	-0.0237
796.9005	-0.0329
797.0715	-0.0175
797.2425	0.0526
797.4134	0.008
797.5844	0.0707
797.7553	-0.0659
797.9262	0.0144
798.0971	0.0704
798.2679	0.0468
798.4388	-0.0191
798.6096	0.0262
798.7804	0.0637
798.9512	0.045
799.122	0.0152
799.2927	0.0968
799.4635	-0.0442
799.6342	-0.0631
799.8049	0.0707
799.9755	-0.0117
800.1462	0.0934
800.3168	0.0785
800.4874	-0.0457
800.658	0.0512
800.8286	0.0383
800.9991	0.0155
801.1696	0.0039
801.3402	-0.0047
801.5106	0.0035
801.6811	0.1334
801.8516	0.0157
802.022	-0.035
802.1924	-0.0366
802.3628	-0.0122
802.5332	-0.0047
802.7035	0.0289
802.8739	0.0508
803.0442	-0.033
803.2145	0.0441
803.3847	-0.0036
803.555	0.0667
803.7252	-0.0281
803.8954	-0.0559
804.0656	-0.0381
804.2358	0.0256
804.4059	0.0332
804.5761	0.0756
804.7462	0.0117
804.9163	0.0458
805.0864	-0.0884
805.2564	-0.0403
805.4264	0.0061
805.5965	0.008
805.7665	-0.0397
805.9364	-0.0405
806.1064	0.0464
806.2763	0.0443
806.4462	-0.0022
806.6161	-0.0029
806.786	-0.044
806.9559	0.0257
807.1257	0.0257
807.2955	-0.035
807.4653	0.1258
807.6351	0.1428
807.8048	0.0277
807.9746	-0.0054
808.1443	-0.0404
808.314	0.0126
808.4837	0.0084
808.6533	-0.0408
808.8229	0.09
808.9926	0.0233
809.1622	0.0735
809.3317	0.0064
809.5013	0.0049
809.6708	-0.0462
809.8403	-0.0164
810.0098	0.1262
810.1793	-0.011
810.3488	-0.0795
810.5182	0.0484
810.6876	-0.0482
810.857	0.0608
811.0264	-0.0912
811.1958	0.1021
811.3651	0.0111
811.5344	0.0653
811.7037	0.033
811.873	0.0584
812.0422	-0.0531
812.2115	0.067
812.3807	-0.0993
812.5499	0.091
812.7191	0.007
812.8882	0.0348
813.0574	0.319
813.2265	0.1099
813.3956	0.0014
813.5646	0.0273
813.7337	0.0587
813.9027	-0.1153
814.0718	-0.0343
814.2407	0.094
814.4097	0.0763
814.5787	0.04
814.7476	0.0914
814.9165	0.0244
815.0854	0.041
815.2543	-0.01
815.4232	0.0377
815.592	0.0197
815.7608	-0.1047
815.9296	-0.0558
816.0984	0.047
816.2671	-0.1969
816.4359	0.1044
816.6046	-0.0275
816.7733	-0.0676
816.942	0.044
817.1106	0.0962
817.2793	-0.1053
817.4479	-0.0517
817.6165	0.0835
817.785	0.0973
817.9536	0.0472
818.1221	0.0881
818.2906	-0.1328
818.4591	0.0363
818.6276	-0.036
818.7961	-0.0819
818.9645	-0.0134
819.1329	0.0425
819.3013	-0.1292
819.4697	-0.1442
819.638	0.0823
819.8064	0.0294
819.9747	0.04
820.143	-0.1419
820.3113	0.0116
820.4795	0.0214
820.6477	0.0504
820.816	0.0015
820.9842	0.1536
821.1523	0.0507
821.3205	0.0765
821.4886	0.0562
821.6567	0.0065
821.8248	0.1244
821.9929	-0.0998
822.1609	-0.0516
822.329	0.0425
822.497	-0.0473
822.665	0.1123
822.833	0.0179
823.0009	-0.1253
823.1688	0.0524
823.3367	0.0507
823.5046	0.1699
823.6725	0.0659
823.8404	-0.0248
824.0082	-0.0047
824.176	0.248
824.3438	0.134
824.5116	-0.0744
824.6793	0.2589
824.847	0.2013
825.0147	0.3968
825.1824	0.0647
825.3501	0.0403
825.5177	-0.0861
825.6854	-0.1557
825.853	-0.0378
826.0206	-0.0677
826.1881	-0.0651
826.3557	-0.0636
826.5232	0.1702
826.6907	-0.06
826.8582	0.144
827.0257	0.1735
827.1931	0.1685
827.3605	0.0514
827.528	-0.0317
827.6953	-0.2463
827.8627	-0.0051
828.03	0.0356
828.1974	0.0795
828.3647	0.0328
828.532	-0.1056
828.6992	0.0134
828.8665	-0.2966
829.0337	-0.0767
829.2009	-0.1022
829.3681	-0.0519
829.5352	-0.2915
829.7024	0.0795
829.8695	-0.0836
830.0366	0.2774
830.2037	0.0914
830.3707	0.0179
830.5378	0.2059
830.7048	-0.1716
830.8718	0.0634
831.0388	-0.0793
831.2057	0.9575
831.3727	-0.3208
831.5396	-0.0205
831.7065	-0.7425
831.8734	0.017
832.0402	0.1509
832.2071	-0.7209
832.3739	0.4638
832.5407	-1.9054
832.7075	-0.415
832.8742	0.5634
833.041	0.1998
833.2077	0.0544
833.3744	-0.1088
833.541	0.1329
833.7077	0.1028
833.8743	0.0614
834.0409	-0.0011
834.2075	0.0148
834.3741	-0.1132
834.5407	0.0108
834.7072	0.0318
834.8737	0.0177
835.0402	0.3824
835.2067	-0.1466
835.3731	0.0434
835.5395	-0.0466
835.706	-0.1483
835.8723	0.004
836.0387	0.095
836.2051	0.6179
836.3714	0.0716
836.5377	-0.0105
836.704	-0.0321
836.8703	-0.1084
837.0365	-0.7628
837.2027	0.2759
837.3689	-0.0117
837.5351	0.4
837.7013	-0.3097
837.8674	-0.1211
838.0335	-0.1345
838.1997	0.0446
838.3657	-0
838.5318	-0.5428
838.6978	-0
838.8639	-0.091
839.0299	0.0331
839.1958	0.7226
839.3618	0.2138
839.5277	0.2809
839.6937	0.1578
839.8596	-0.2997
840.0254	-0.0998
840.1913	-0.0552
840.3571	-0.2523
840.523	-0
840.6888	-0.0954
840.8545	-0.628
841.0203	-0.0966
841.186	-0.031
841.3517	-0.1637
841.5174	1.6343
841.6831	0.0998
841.8488	0.6014
842.0144	-0.1954
842.18	0.2348
842.3456	-0.4903
842.5112	-0
842.6767	-0.1257
842.8422	-0.032
843.0077	0.0481
843.1732	0.2754
843.3387	-0.0542
843.5042	0.2006
843.6696	0.7644
843.835	-0.2995
844.0004	-0.1963
844.1657	-0
844.3311	-0
844.4964	-0.6675
844.6617	0.3615
844.827	-0
844.9923	0.1604
845.1575	0.0673
845.3227	-0.4577
845.4879	-0.5583
845.6531	-0.003
845.8183	0.2474
845.9834	-0
846.1485	0.0966
846.3136	-0.0576
846.4787	-0
846.6438	-0.1296
846.8088	-0.1927
846.9738	-0.2374
847.1388	0.256
847.3038	0.4487
847.4687	0.4785
847.6337	-0.1189
847.7986	-0.1571
847.9635	0.0909
848.1284	-0
848.2932	0.0052
848.458	-0
848.6228	-0.2813
848.7876	-0
848.9524	-0
849.1172	-1.7243
849.2819	-0
849.4466	0.1312
849.6113	-0.0412
849.7759	-0.2953
849.9406	0.2606
850.1052	-1.4016
850.2698	-0
850.4344	-0
850.599	0.1208
850.7635	-0.0588
850.928	0.9404
851.0925	0.4266
851.257	-0.3673
851.4215	-0
851.5859	0.2292
851.7503	-0
851.9147	-0
852.0791	-0.128
852.2434	0.011
852.4078	-0
852.5721	-0
852.7364	0.2984
852.9007	-0.0965
853.0649	-0
853.2291	-0.1764
853.3934	1.0228
853.5575	-0.2633
853.7217	0.3724
853.8859	-0.3541
854.05	0.0168
854.2141	0.174
854.3782	-0.0532
854.5423	-0
854.7063	-0.0946
854.8703	0.2844
855.0343	-0.1016
855.1983	-0.1369
855.3623	-0.0722
855.5262	-0
855.6901	0.3118
855.854	0.1192
856.0179	-0.3783
856.1818	0.5056
856.3456	-0
856.5094	0.4688
856.6732	-0.4944
856.837	-1.049
857.0008	-0
857.1645	-0.1046
857.3282	-0.4886
857.4919	0.7069
857.6556	-0.3337
857.8192	0.201
857.9828	-0.1983
858.1465	0.5298
858.31	-0
858.4736	-0.6166
858.6372	-0.4022
858.8007	0.1088
858.9642	0.361
859.1277	0.1456
859.2911	-0.1481
859.4546	-1.3385
859.618	0.0577
859.7814	0.3299
859.9448	-0
860.1081	-0
860.2715	-0.827
860.4348	0.5759
860.5981	-0
860.7614	-0.2963
860.9246	-0.075
861.0879	0.1105
861.2511	-0
861.4143	-0.4824
861.5774	-0
861.7406	0.4356
861.9037	-0
862.0668	-0.6796
862.2299	-0.2507
862.393	-0
862.556	-0
862.7191	0.1963
862.8821	0.2361
863.0451	-0.087
863.208	0.8172
863.371	-0.5565
863.5339	0.2893
863.6968	0.612
863.8597	0.2425
864.0225	0.4736
864.1854	0.5348
864.3482	-1.2402
864.511	-0.2374
864.6737	-0.1296
864.8365	0.14
864.9992	-0
865.1619	-0.2532
865.3246	-1.5587
865.4873	-0.3485
865.65	0.1516
865.8126	0.4749
865.9752	0.4921
866.1378	0.0055
866.3004	0.096
866.4629	-1.6128
866.6254	-0.138
866.7879	-0
866.9504	-0
867.1129	-0
867.2753	-0.1178
867.4377	0.3126
867.6001	-0.3321
867.7625	-0.1577
867.9249	0.2776
868.0872	0.1153
868.2495	-0.1093
868.4118	-0
868.5741	-0.5838
868.7363	-0.2505
868.8986	-0.4742
869.0608	-0.4365
869.223	-0.371
869.3851	-0
869.5473	-0.1215
869.7094	0.1352
869.8715	-0
870.0336	0.0952
870.1957	-0
870.3577	0.3848
870.5197	-0.0756
870.6817	-0.578
870.8437	0.1888
871.0057	0.3845
871.1676	0.3801
871.3295	-0
871.4914	-0
871.6533	-0.3208
871.8151	0.0798
871.977	0.1546
872.1388	-0.2511
872.3006	-0.177
872.4623	-0.6274
872.6241	0.2983
872.7858	0.0719
872.9475	0.1053
873.1092	-0.3538
873.2709	0.3913
873.4325	-1.8129
873.5941	-0
873.7557	-0
873.9173	-0
874.0789	0.0695
874.2404	-0
874.4019	0.2353
874.5634	-0
874.7249	0.1303
874.8863	-0.1223
875.0478	0.5166
875.2092	1.0116
875.3706	0.0683
875.5319	-0.0754
875.6933	0.1253
875.8546	0.2137
876.0159	0.2625
876.1772	-0.2953
876.3385	0.4401
876.4997	-0.018
876.6609	-0
876.8221	-0
876.9833	1.3158
877.1445	0.085
877.3056	-1.2304
877.4667	-0.8297
877.6278	0.3525
877.7889	-0
877.9499	0.3695
878.111	-0.038
878.272	0.1546
878.433	0.0734
878.5939	-0.0552
878.7549	-0
878.9158	2.4099
879.0767	0.3249
879.2376	0.0236
879.3984	0.9957
879.5593	-0
879.7201	-0
879.8809	-0
880.0417	0.2296
880.2024	0.4491
880.3632	-0.213
880.5239	-0
880.6846	-0.4628
880.8452	-0.3458
881.0059	-1.0918
881.1665	-0.2387
881.3271	0.3745
881.4877	0.2051
881.6483	-0.5549
881.8088	-0
881.9693	-0
882.1298	-0
882.2903	-0
