Data from D4ACN5uM420nmA_Absorbance_14-37-07-811.txt Node
Date: Fri Feb 21 14:37:07 GMT 2025
User: LASERRRRR
Spectrometer: FLMT03099
Trigger mode: 0
Integration Time (sec): 1.500000E-2
Scans to average: 1
Electric dark correction enabled: true
Nonlinearity correction enabled: false
Boxcar width: 0
XAxis mode: Wavelengths
Number of Pixels in Spectrum: 3648
>>>>>Begin Spectral Data<<<<<
179.3399	-0.3794
179.5586	-0.3794
179.7771	-0.3794
179.9957	-0.2939
180.2143	-1.3536
180.4329	-0.1163
180.6514	-0.595
180.8699	0.0945
181.0885	-0
181.307	0.1289
181.5255	0.0895
181.744	-0.457
181.9625	-0
182.181	0.3097
182.3994	-0.301
182.6179	-0
182.8363	-0
183.0547	0.1733
183.2732	0.2942
183.4916	0.1615
183.71	0.2738
183.9284	-0.0516
184.1467	0.759
184.3651	0.3332
184.5835	0.2127
184.8018	0.1986
185.0201	0.2572
185.2385	0.1895
185.4568	0.125
185.6751	0.1561
185.8934	0.1215
186.1117	-0.1266
186.3299	0.2129
186.5482	0.2002
186.7664	0.0278
186.9847	0.0727
187.2029	0.3563
187.4211	0.1737
187.6393	0.1013
187.8575	0.1415
188.0757	0.3603
188.2939	0.1263
188.512	0.1845
188.7302	0.5322
188.9483	0.1295
189.1665	0.5368
189.3846	0.2923
189.6027	0.2631
189.8208	0.1828
190.0389	0.1527
190.257	0.0862
190.475	-0.0495
190.6931	-0.0319
190.9111	0.0018
191.1292	0.1002
191.3472	0.2011
191.5652	0.2086
191.7832	0.0966
192.0012	0.1011
192.2192	0.2107
192.4371	0.083
192.6551	0.1488
192.873	0.0932
193.091	0.2391
193.3089	0.1896
193.5268	0.2144
193.7447	0.1713
193.9626	0.123
194.1805	0.248
194.3984	0.1796
194.6162	0.1569
194.8341	0.3067
195.0519	0.2229
195.2697	0.2851
195.4875	0.3445
195.7054	0.2377
195.9231	0.2479
196.1409	0.4149
196.3587	0.3423
196.5765	0.2489
196.7942	0.2567
197.012	0.3805
197.2297	0.3385
197.4474	0.3867
197.6651	0.3271
197.8828	0.3762
198.1005	0.3958
198.3182	0.3679
198.5358	0.385
198.7535	0.3583
198.9711	0.3895
199.1888	0.3273
199.4064	0.375
199.624	0.3433
199.8416	0.3794
200.0592	0.3495
200.2767	0.3875
200.4943	0.4489
200.7119	0.4191
200.9294	0.4428
201.1469	0.3646
201.3645	0.4672
201.582	0.3773
201.7995	0.3991
202.017	0.3876
202.2344	0.4207
202.4519	0.3743
202.6694	0.3755
202.8868	0.3881
203.1042	0.4478
203.3217	0.3675
203.5391	0.3559
203.7565	0.3898
203.9739	0.3612
204.1913	0.3358
204.4086	0.3764
204.626	0.3814
204.8433	0.3539
205.0607	0.3803
205.278	0.3291
205.4953	0.3302
205.7126	0.3442
205.9299	0.2985
206.1472	0.3221
206.3644	0.3512
206.5817	0.3415
206.7989	0.3531
207.0162	0.3422
207.2334	0.3445
207.4506	0.3197
207.6678	0.2963
207.885	0.2933
208.1022	0.2889
208.3194	0.3131
208.5365	0.2988
208.7537	0.3009
208.9708	0.2989
209.1879	0.3107
209.405	0.2757
209.6222	0.2844
209.8392	0.3005
210.0563	0.2884
210.2734	0.2514
210.4905	0.2664
210.7075	0.2692
210.9245	0.2807
211.1416	0.2756
211.3586	0.2651
211.5756	0.2514
211.7926	0.2635
212.0096	0.279
212.2265	0.2616
212.4435	0.268
212.6604	0.2739
212.8774	0.2375
213.0943	0.271
213.3112	0.2583
213.5281	0.2325
213.745	0.2354
213.9619	0.2332
214.1788	0.2494
214.3956	0.2491
214.6125	0.259
214.8293	0.2582
215.0461	0.263
215.2629	0.2676
215.4798	0.2259
215.6965	0.2387
215.9133	0.2427
216.1301	0.2281
216.3469	0.2385
216.5636	0.2414
216.7803	0.2487
216.9971	0.2615
217.2138	0.2495
217.4305	0.2359
217.6472	0.2434
217.8639	0.2539
218.0805	0.2362
218.2972	0.2421
218.5138	0.2716
218.7305	0.2487
218.9471	0.2432
219.1637	0.2795
219.3803	0.2541
219.5969	0.2525
219.8135	0.2636
220.0301	0.26
220.2466	0.247
220.4632	0.2492
220.6797	0.2541
220.8962	0.2589
221.1127	0.2666
221.3292	0.2654
221.5457	0.267
221.7622	0.2703
221.9787	0.2828
222.1951	0.2739
222.4116	0.2657
222.628	0.2866
222.8444	0.2821
223.0608	0.2743
223.2772	0.2843
223.4936	0.2891
223.71	0.2874
223.9264	0.2939
224.1427	0.2826
224.3591	0.2837
224.5754	0.2932
224.7917	0.2785
225.008	0.2964
225.2243	0.3045
225.4406	0.2911
225.6569	0.2887
225.8732	0.3056
226.0894	0.313
226.3057	0.3036
226.5219	0.3171
226.7381	0.3256
226.9543	0.311
227.1705	0.3196
227.3867	0.3188
227.6029	0.3234
227.8191	0.3286
228.0352	0.3392
228.2513	0.3394
228.4675	0.3483
228.6836	0.341
228.8997	0.346
229.1158	0.3518
229.3319	0.3573
229.548	0.3654
229.764	0.3699
229.9801	0.3678
230.1961	0.3772
230.4121	0.3713
230.6282	0.3843
230.8442	0.3899
231.0602	0.3757
231.2761	0.3827
231.4921	0.3811
231.7081	0.3965
231.924	0.4112
232.14	0.4079
232.3559	0.404
232.5718	0.4015
232.7877	0.4188
233.0036	0.4086
233.2195	0.4211
233.4353	0.4097
233.6512	0.418
233.867	0.4263
234.0829	0.4223
234.2987	0.4148
234.5145	0.4304
234.7303	0.444
234.9461	0.4355
235.1619	0.4375
235.3776	0.4313
235.5934	0.4382
235.8091	0.4418
236.0249	0.4435
236.2406	0.4495
236.4563	0.4491
236.672	0.4444
236.8877	0.4563
237.1034	0.4483
237.319	0.4481
237.5347	0.4583
237.7503	0.4473
237.966	0.4673
238.1816	0.4587
238.3972	0.4622
238.6128	0.4619
238.8284	0.4695
239.0439	0.4643
239.2595	0.4715
239.475	0.4638
239.6906	0.4649
239.9061	0.4631
240.1216	0.4675
240.3371	0.4654
240.5526	0.4575
240.7681	0.4626
240.9836	0.4614
241.199	0.4583
241.4145	0.4585
241.6299	0.4543
241.8453	0.4452
242.0607	0.4406
242.2761	0.432
242.4915	0.4354
242.7069	0.4308
242.9223	0.4261
243.1376	0.415
243.353	0.4078
243.5683	0.3986
243.7836	0.3933
243.9989	0.3764
244.2142	0.3781
244.4295	0.3705
244.6448	0.3684
244.86	0.3586
245.0753	0.354
245.2905	0.3499
245.5057	0.3422
245.721	0.3434
245.9362	0.3315
246.1514	0.3235
246.3665	0.3126
246.5817	0.3051
246.7969	0.3051
247.012	0.2938
247.2271	0.2939
247.4423	0.293
247.6574	0.287
247.8725	0.2764
248.0876	0.2709
248.3026	0.268
248.5177	0.2568
248.7328	0.259
248.9478	0.2537
249.1628	0.2518
249.3779	0.24
249.5929	0.2445
249.8079	0.2397
250.0228	0.2333
250.2378	0.2344
250.4528	0.2366
250.6677	0.2218
250.8827	0.2189
251.0976	0.2232
251.3125	0.2201
251.5274	0.2274
251.7423	0.2112
251.9572	0.2113
252.172	0.2074
252.3869	0.209
252.6017	0.2035
252.8166	0.2013
253.0314	0.2032
253.2462	0.2012
253.461	0.1984
253.6758	0.1996
253.8906	0.2017
254.1053	0.2005
254.3201	0.1958
254.5348	0.1899
254.7496	0.1881
254.9643	0.1906
255.179	0.1886
255.3937	0.1944
255.6083	0.1946
255.823	0.1906
256.0377	0.183
256.2523	0.1883
256.467	0.1858
256.6816	0.1883
256.8962	0.1918
257.1108	0.1862
257.3254	0.183
257.54	0.1811
257.7545	0.1924
257.9691	0.1838
258.1836	0.1841
258.3981	0.1825
258.6127	0.1816
258.8272	0.1898
259.0417	0.1806
259.2561	0.1819
259.4706	0.1837
259.6851	0.1801
259.8995	0.1759
260.114	0.1812
260.3284	0.1786
260.5428	0.1762
260.7572	0.178
260.9716	0.1872
261.186	0.1767
261.4003	0.1791
261.6147	0.1757
261.829	0.1794
262.0433	0.18
262.2577	0.1797
262.472	0.18
262.6863	0.1885
262.9005	0.1808
263.1148	0.1857
263.3291	0.1834
263.5433	0.1877
263.7576	0.1857
263.9718	0.1871
264.186	0.1879
264.4002	0.1862
264.6144	0.1897
264.8286	0.185
265.0427	0.1866
265.2569	0.1926
265.471	0.1884
265.6851	0.1875
265.8993	0.1865
266.1134	0.1884
266.3275	0.1863
266.5415	0.1901
266.7556	0.1869
266.9697	0.1912
267.1837	0.1946
267.3978	0.19
267.6118	0.1815
267.8258	0.1936
268.0398	0.1923
268.2538	0.1917
268.4677	0.1852
268.6817	0.1861
268.8957	0.1811
269.1096	0.1824
269.3235	0.1842
269.5374	0.1872
269.7514	0.1854
269.9652	0.1844
270.1791	0.1786
270.393	0.1761
270.6068	0.1803
270.8207	0.1776
271.0345	0.1855
271.2483	0.1739
271.4622	0.1779
271.676	0.1813
271.8897	0.1792
272.1035	0.1834
272.3173	0.1793
272.531	0.1828
272.7448	0.1747
272.9585	0.176
273.1722	0.1759
273.3859	0.1884
273.5996	0.1844
273.8133	0.185
274.0269	0.1832
274.2406	0.1845
274.4542	0.1796
274.6679	0.1825
274.8815	0.1848
275.0951	0.1876
275.3087	0.1845
275.5223	0.1848
275.7358	0.1849
275.9494	0.188
276.1629	0.1923
276.3765	0.1877
276.59	0.1824
276.8035	0.1787
277.017	0.1968
277.2305	0.1852
277.444	0.1881
277.6574	0.1902
277.8709	0.198
278.0843	0.191
278.2978	0.1943
278.5112	0.195
278.7246	0.1855
278.938	0.1877
279.1513	0.1902
279.3647	0.1914
279.5781	0.1886
279.7914	0.1889
280.0047	0.1907
280.2181	0.1905
280.4314	0.1876
280.6447	0.1945
280.8579	0.1866
281.0712	0.1883
281.2845	0.1911
281.4977	0.1944
281.711	0.1902
281.9242	0.1867
282.1374	0.1893
282.3506	0.1861
282.5638	0.1858
282.7769	0.1885
282.9901	0.1896
283.2033	0.1924
283.4164	0.1896
283.6295	0.1887
283.8426	0.182
284.0557	0.1948
284.2688	0.1925
284.4819	0.1878
284.695	0.1937
284.908	0.1882
285.1211	0.1905
285.3341	0.1859
285.5471	0.1942
285.7601	0.1877
285.9731	0.1862
286.1861	0.1918
286.3991	0.1919
286.612	0.1918
286.825	0.1922
287.0379	0.193
287.2508	0.1949
287.4637	0.2002
287.6766	0.1925
287.8895	0.1925
288.1024	0.1883
288.3152	0.1999
288.5281	0.185
288.7409	0.2025
288.9538	0.193
289.1666	0.1957
289.3794	0.195
289.5922	0.1881
289.8049	0.195
290.0177	0.2027
290.2304	0.1902
290.4432	0.1984
290.6559	0.1964
290.8686	0.1992
291.0813	0.1993
291.294	0.195
291.5067	0.1899
291.7194	0.1919
291.932	0.1895
292.1447	0.1984
292.3573	0.1961
292.5699	0.1961
292.7825	0.1926
292.9951	0.1944
293.2077	0.196
293.4203	0.1927
293.6328	0.1978
293.8454	0.1996
294.0579	0.1911
294.2704	0.1995
294.4829	0.1939
294.6954	0.1958
294.9079	0.193
295.1204	0.19
295.3328	0.2009
295.5453	0.1978
295.7577	0.1986
295.9701	0.1936
296.1825	0.1933
296.3949	0.1903
296.6073	0.1931
296.8197	0.1934
297.0321	0.2
297.2444	0.1915
297.4567	0.197
297.6691	0.1981
297.8814	0.1992
298.0937	0.1974
298.306	0.1914
298.5182	0.2016
298.7305	0.1952
298.9428	0.1949
299.155	0.1896
299.3672	0.1881
299.5794	0.1975
299.7916	0.1924
300.0038	0.1998
300.216	0.1992
300.4282	0.1964
300.6403	0.1952
300.8525	0.1993
301.0646	0.1937
301.2767	0.1979
301.4888	0.1934
301.7009	0.194
301.913	0.1996
302.125	0.1957
302.3371	0.1941
302.5491	0.2002
302.7612	0.2009
302.9732	0.1898
303.1852	0.1947
303.3972	0.1983
303.6092	0.1944
303.8211	0.1951
304.0331	0.196
304.245	0.1873
304.457	0.1944
304.6689	0.1931
304.8808	0.1891
305.0927	0.1916
305.3046	0.1869
305.5164	0.1859
305.7283	0.1845
305.9401	0.1813
306.152	0.1828
306.3638	0.1793
306.5756	0.1855
306.7874	0.1805
306.9992	0.1759
307.2109	0.1783
307.4227	0.1742
307.6344	0.1796
307.8462	0.1764
308.0579	0.1786
308.2696	0.1752
308.4813	0.1701
308.693	0.1627
308.9046	0.1704
309.1163	0.1677
309.328	0.1621
309.5396	0.1623
309.7512	0.1626
309.9628	0.1583
310.1744	0.1554
310.386	0.1485
310.5976	0.1546
310.8091	0.1609
311.0207	0.1533
311.2322	0.1519
311.4437	0.1526
311.6552	0.151
311.8667	0.1548
312.0782	0.1471
312.2897	0.149
312.5012	0.1441
312.7126	0.1435
312.924	0.1436
313.1355	0.1374
313.3469	0.1452
313.5583	0.1383
313.7696	0.1373
313.981	0.1453
314.1924	0.1437
314.4037	0.1396
314.6151	0.1405
314.8264	0.142
315.0377	0.1357
315.249	0.1411
315.4603	0.1306
315.6716	0.1352
315.8828	0.1363
316.0941	0.1394
316.3053	0.1303
316.5165	0.1395
316.7277	0.1303
316.9389	0.1365
317.1501	0.1307
317.3613	0.1355
317.5724	0.1359
317.7836	0.1263
317.9947	0.1334
318.2058	0.1308
318.417	0.1347
318.6281	0.127
318.8391	0.1346
319.0502	0.1348
319.2613	0.1326
319.4723	0.1284
319.6834	0.1318
319.8944	0.1299
320.1054	0.1346
320.3164	0.1266
320.5274	0.1326
320.7383	0.1368
320.9493	0.1324
321.1602	0.1321
321.3712	0.1322
321.5821	0.1271
321.793	0.1421
322.0039	0.1325
322.2148	0.1362
322.4257	0.1294
322.6365	0.127
322.8474	0.1359
323.0582	0.1378
323.269	0.1342
323.4798	0.135
323.6906	0.1293
323.9014	0.1321
324.1122	0.1272
324.3229	0.1375
324.5337	0.1316
324.7444	0.1321
324.9551	0.1376
325.1658	0.132
325.3765	0.1336
325.5872	0.1375
325.7979	0.1308
326.0085	0.133
326.2192	0.134
326.4298	0.1399
326.6404	0.1376
326.851	0.1332
327.0616	0.1398
327.2722	0.1381
327.4828	0.1358
327.6933	0.1418
327.9039	0.1362
328.1144	0.139
328.3249	0.1485
328.5354	0.1376
328.7459	0.1393
328.9564	0.1418
329.1669	0.1431
329.3773	0.1433
329.5878	0.1486
329.7982	0.1401
330.0086	0.1446
330.219	0.139
330.4294	0.1442
330.6398	0.1414
330.8502	0.1447
331.0605	0.1441
331.2708	0.1423
331.4812	0.1439
331.6915	0.1473
331.9018	0.1452
332.1121	0.1467
332.3224	0.1372
332.5326	0.1424
332.7429	0.146
332.9531	0.1524
333.1633	0.147
333.3735	0.1481
333.5837	0.1426
333.7939	0.1443
334.0041	0.147
334.2143	0.1419
334.4244	0.1523
334.6346	0.1479
334.8447	0.1423
335.0548	0.1496
335.2649	0.1512
335.475	0.1481
335.685	0.1512
335.8951	0.1425
336.1051	0.1476
336.3152	0.1452
336.5252	0.148
336.7352	0.1419
336.9452	0.1501
337.1552	0.1522
337.3652	0.142
337.5751	0.1456
337.7851	0.1463
337.995	0.1537
338.2049	0.1484
338.4148	0.15
338.6247	0.1548
338.8346	0.1504
339.0445	0.1502
339.2543	0.1499
339.4642	0.1427
339.674	0.148
339.8838	0.1553
340.0936	0.145
340.3034	0.1487
340.5132	0.138
340.7229	0.1527
340.9327	0.161
341.1424	0.1567
341.3522	0.1525
341.5619	0.155
341.7716	0.1503
341.9813	0.1541
342.1909	0.1572
342.4006	0.1574
342.6102	0.1643
342.8199	0.1622
343.0295	0.1544
343.2391	0.1654
343.4487	0.1597
343.6583	0.1668
343.8679	0.1596
344.0774	0.1615
344.287	0.1641
344.4965	0.1588
344.706	0.1649
344.9155	0.1607
345.125	0.1611
345.3345	0.1757
345.544	0.1657
345.7534	0.1682
345.9629	0.1719
346.1723	0.1679
346.3817	0.1729
346.5911	0.1729
346.8005	0.1672
347.0099	0.1668
347.2193	0.1821
347.4286	0.1758
347.638	0.1817
347.8473	0.1789
348.0566	0.1753
348.2659	0.1807
348.4752	0.1767
348.6845	0.1747
348.8937	0.1727
349.103	0.1772
349.3122	0.1811
349.5214	0.1785
349.7306	0.1913
349.9398	0.1783
350.149	0.1799
350.3582	0.1843
350.5674	0.1829
350.7765	0.1881
350.9856	0.1697
351.1948	0.1855
351.4039	0.1854
351.613	0.187
351.822	0.1914
352.0311	0.1816
352.2402	0.1888
352.4492	0.1906
352.6582	0.1829
352.8672	0.1907
353.0762	0.1927
353.2852	0.1859
353.4942	0.187
353.7032	0.1909
353.9121	0.189
354.1211	0.1911
354.33	0.1903
354.5389	0.1852
354.7478	0.1922
354.9567	0.1893
355.1655	0.1912
355.3744	0.1827
355.5833	0.1922
355.7921	0.1947
356.0009	0.1893
356.2097	0.1844
356.4185	0.1899
356.6273	0.1968
356.8361	0.1981
357.0448	0.1862
357.2536	0.1945
357.4623	0.2
357.671	0.2
357.8797	0.1967
358.0884	0.1929
358.2971	0.1956
358.5057	0.1971
358.7144	0.1976
358.923	0.2082
359.1316	0.2046
359.3402	0.1979
359.5488	0.1985
359.7574	0.208
359.966	0.2016
360.1746	0.1973
360.3831	0.2169
360.5916	0.212
360.8002	0.2166
361.0087	0.2105
361.2172	0.2102
361.4256	0.2135
361.6341	0.2089
361.8426	0.2133
362.051	0.213
362.2594	0.2112
362.4678	0.2183
362.6762	0.2175
362.8846	0.2161
363.093	0.2154
363.3014	0.2182
363.5097	0.2114
363.718	0.2206
363.9264	0.2249
364.1347	0.2194
364.343	0.2235
364.5513	0.2212
364.7595	0.2331
364.9678	0.2214
365.176	0.222
365.3842	0.238
365.5925	0.2299
365.8007	0.2315
366.0089	0.2346
366.217	0.2289
366.4252	0.2286
366.6333	0.2319
366.8415	0.2357
367.0496	0.2381
367.2577	0.2405
367.4658	0.2313
367.6739	0.2338
367.882	0.243
368.09	0.2362
368.2981	0.2472
368.5061	0.2428
368.7141	0.2325
368.9221	0.2535
369.1301	0.2402
369.3381	0.2513
369.5461	0.2426
369.754	0.2466
369.962	0.245
370.1699	0.248
370.3778	0.2539
370.5857	0.2418
370.7936	0.257
371.0015	0.2529
371.2093	0.2458
371.4172	0.2486
371.625	0.2508
371.8328	0.2459
372.0406	0.2542
372.2484	0.2584
372.4562	0.2583
372.664	0.2583
372.8717	0.2543
373.0795	0.2628
373.2872	0.2604
373.4949	0.2669
373.7026	0.2622
373.9103	0.2482
374.118	0.2551
374.3256	0.2683
374.5333	0.2654
374.7409	0.262
374.9485	0.2642
375.1561	0.2628
375.3637	0.2587
375.5713	0.2672
375.7789	0.2716
375.9864	0.2677
376.194	0.274
376.4015	0.2721
376.609	0.2736
376.8165	0.2739
377.024	0.2736
377.2315	0.2757
377.4389	0.2718
377.6464	0.2726
377.8538	0.2682
378.0612	0.2808
378.2686	0.2762
378.476	0.2837
378.6834	0.2696
378.8908	0.2806
379.0981	0.2892
379.3055	0.2853
379.5128	0.2866
379.7201	0.284
379.9274	0.2889
380.1347	0.2791
380.342	0.288
380.5492	0.2902
380.7565	0.288
380.9637	0.2736
381.1709	0.289
381.3781	0.292
381.5853	0.288
381.7925	0.2893
381.9997	0.2926
382.2068	0.2901
382.4139	0.285
382.6211	0.2902
382.8282	0.3085
383.0353	0.3003
383.2424	0.288
383.4494	0.2923
383.6565	0.2919
383.8635	0.2908
384.0706	0.3115
384.2776	0.2919
384.4846	0.2965
384.6916	0.2961
384.8986	0.2961
385.1055	0.3062
385.3125	0.3042
385.5194	0.2925
385.7263	0.3046
385.9333	0.2939
386.1402	0.2992
386.347	0.2936
386.5539	0.2969
386.7608	0.2911
386.9676	0.2969
387.1744	0.297
387.3813	0.2907
387.5881	0.2914
387.7948	0.3064
388.0016	0.3017
388.2084	0.2937
388.4151	0.294
388.6219	0.2915
388.8286	0.2962
389.0353	0.2997
389.242	0.3049
389.4487	0.2931
389.6553	0.2826
389.862	0.286
390.0686	0.2918
390.2753	0.2899
390.4819	0.2905
390.6885	0.2888
390.8951	0.2935
391.1016	0.2935
391.3082	0.2798
391.5147	0.2733
391.7213	0.2834
391.9278	0.2669
392.1343	0.2815
392.3408	0.2743
392.5473	0.2783
392.7537	0.2769
392.9602	0.2711
393.1666	0.2753
393.373	0.2759
393.5794	0.2723
393.7858	0.2743
393.9922	0.2677
394.1986	0.2684
394.4049	0.2723
394.6113	0.2738
394.8176	0.273
395.0239	0.2655
395.2302	0.2724
395.4365	0.2713
395.6428	0.2555
395.8491	0.2622
396.0553	0.2589
396.2615	0.2684
396.4678	0.2652
396.674	0.2543
396.8802	0.2673
397.0863	0.2581
397.2925	0.2537
397.4987	0.2496
397.7048	0.2578
397.9109	0.2512
398.117	0.2496
398.3231	0.2564
398.5292	0.2488
398.7353	0.252
398.9413	0.2502
399.1474	0.2566
399.3534	0.2531
399.5594	0.2495
399.7654	0.2459
399.9714	0.2536
400.1774	0.2464
400.3833	0.246
400.5893	0.2482
400.7952	0.2526
401.0011	0.2465
401.207	0.2573
401.4129	0.2504
401.6188	0.2512
401.8247	0.2563
402.0305	0.2482
402.2364	0.2554
402.4422	0.2591
402.648	0.2609
402.8538	0.2581
403.0596	0.2448
403.2654	0.2438
403.4711	0.2417
403.6768	0.2581
403.8826	0.2566
404.0883	0.2445
404.294	0.2456
404.4997	0.2496
404.7054	0.2472
404.911	0.2575
405.1167	0.2513
405.3223	0.2459
405.5279	0.2583
405.7335	0.2367
405.9391	0.2482
406.1447	0.2549
406.3502	0.237
406.5558	0.2492
406.7613	0.2563
406.9668	0.2511
407.1724	0.2526
407.3778	0.2507
407.5833	0.2442
407.7888	0.2516
407.9942	0.2455
408.1997	0.2579
408.4051	0.2599
408.6105	0.2501
408.8159	0.2491
409.0213	0.2489
409.2267	0.2549
409.432	0.2576
409.6374	0.2538
409.8427	0.2523
410.048	0.2551
410.2533	0.2484
410.4586	0.2425
410.6639	0.2439
410.8691	0.2491
411.0744	0.2438
411.2796	0.248
411.4848	0.2613
411.69	0.25
411.8952	0.2573
412.1004	0.2509
412.3056	0.2386
412.5107	0.2572
412.7158	0.2644
412.921	0.2511
413.1261	0.2497
413.3312	0.2478
413.5362	0.2615
413.7413	0.2463
413.9464	0.2385
414.1514	0.2385
414.3564	0.238
414.5614	0.2483
414.7664	0.2361
414.9714	0.2459
415.1764	0.2498
415.3813	0.242
415.5863	0.2423
415.7912	0.2361
415.9961	0.2367
416.201	0.2501
416.4059	0.2506
416.6108	0.2517
416.8156	0.2429
417.0205	0.2522
417.2253	0.2355
417.4301	0.2448
417.6349	0.2495
417.8397	0.2474
418.0445	0.2319
418.2492	0.2449
418.454	0.2329
418.6587	0.2396
418.8634	0.2461
419.0681	0.24
419.2728	0.2338
419.4775	0.2397
419.6822	0.2318
419.8868	0.2278
420.0915	0.2324
420.2961	0.2168
420.5007	0.2363
420.7053	0.2411
420.9099	0.2269
421.1144	0.2289
421.319	0.2275
421.5235	0.2275
421.728	0.2279
421.9325	0.2262
422.137	0.2266
422.3415	0.2271
422.546	0.2275
422.7504	0.2242
422.9549	0.2301
423.1593	0.2137
423.3637	0.2211
423.5681	0.2348
423.7725	0.2241
423.9769	0.2312
424.1812	0.213
424.3856	0.2118
424.5899	0.2288
424.7942	0.2196
424.9985	0.2102
425.2028	0.2178
425.4071	0.2146
425.6113	0.2144
425.8156	0.2183
426.0198	0.2101
426.224	0.2166
426.4282	0.2036
426.6324	0.2057
426.8366	0.2056
427.0407	0.2076
427.2449	0.2024
427.449	0.2024
427.6531	0.2108
427.8572	0.2033
428.0613	0.2162
428.2654	0.2083
428.4694	0.1929
428.6735	0.1914
428.8775	0.1998
429.0815	0.1938
429.2855	0.1873
429.4895	0.19
429.6935	0.1952
429.8975	0.177
430.1014	0.1926
430.3053	0.1944
430.5093	0.1803
430.7132	0.1919
430.9171	0.184
431.1209	0.1828
431.3248	0.1694
431.5286	0.1729
431.7325	0.1781
431.9363	0.1642
432.1401	0.1665
432.3439	0.1799
432.5477	0.1653
432.7514	0.1678
432.9552	0.1666
433.1589	0.1623
433.3627	0.1661
433.5664	0.1674
433.7701	0.1596
433.9737	0.1635
434.1774	0.1507
434.3811	0.1551
434.5847	0.1644
434.7883	0.1607
434.9919	0.1501
435.1955	0.1498
435.3991	0.1509
435.6027	0.1503
435.8062	0.1574
436.0098	0.1321
436.2133	0.137
436.4168	0.1419
436.6203	0.1319
436.8238	0.1413
437.0272	0.1342
437.2307	0.1296
437.4341	0.1385
437.6375	0.1336
437.841	0.1218
438.0443	0.1324
438.2477	0.1191
438.4511	0.1072
438.6545	0.1338
438.8578	0.1229
439.0611	0.1238
439.2644	0.1119
439.4677	0.1194
439.671	0.1117
439.8743	0.1065
440.0775	0.1032
440.2808	0.1094
440.484	0.109
440.6872	0.1076
440.8904	0.0921
441.0936	0.1075
441.2967	0.0943
441.4999	0.0977
441.703	0.0986
441.9062	0.0996
442.1093	0.1014
442.3124	0.0943
442.5155	0.0991
442.7185	0.0873
442.9216	0.0944
443.1246	0.0903
443.3276	0.0902
443.5307	0.0843
443.7337	0.0925
443.9366	0.0809
444.1396	0.0776
444.3426	0.0778
444.5455	0.0767
444.7484	0.0798
444.9513	0.0793
445.1542	0.0785
445.3571	0.0817
445.56	0.0795
445.7628	0.0787
445.9657	0.0694
446.1685	0.079
446.3713	0.0741
446.5741	0.0688
446.7769	0.066
446.9797	0.0752
447.1824	0.0688
447.3852	0.0626
447.5879	0.0602
447.7906	0.0609
447.9933	0.0644
448.196	0.064
448.3986	0.062
448.6013	0.0469
448.8039	0.0621
449.0066	0.0603
449.2092	0.06
449.4118	0.0608
449.6143	0.0517
449.8169	0.0558
450.0195	0.0503
450.222	0.0559
450.4245	0.0517
450.627	0.0486
450.8295	0.0484
451.032	0.052
451.2345	0.0451
451.4369	0.0526
451.6394	0.0406
451.8418	0.0505
452.0442	0.0413
452.2466	0.0335
452.449	0.0486
452.6513	0.0376
452.8537	0.0463
453.056	0.0363
453.2583	0.0319
453.4607	0.0218
453.663	0.0467
453.8652	0.033
454.0675	0.0387
454.2697	0.0314
454.472	0.0308
454.6742	0.0309
454.8764	0.0308
455.0786	0.0277
455.2808	0.0324
455.4829	0.0392
455.6851	0.0326
455.8872	0.0244
456.0893	0.0213
456.2915	0.0245
456.4935	0.0422
456.6956	0.0267
456.8977	0.0233
457.0997	0.0354
457.3018	0.0228
457.5038	0.0292
457.7058	0.0311
457.9078	0.0378
458.1098	0.032
458.3117	0.033
458.5137	0.009
458.7156	0.0281
458.9175	0.0298
459.1194	0.0279
459.3213	0.0292
459.5232	0.0304
459.725	0.0263
459.9269	0.0308
460.1287	0.0155
460.3305	0.0266
460.5323	0.0221
460.7341	0.0209
460.9359	0.0095
461.1376	0.0301
461.3394	0.0279
461.5411	0.0188
461.7428	0.0239
461.9445	0.0201
462.1462	0.0133
462.3479	0.0224
462.5495	0.0176
462.7512	0.0317
462.9528	0.0205
463.1544	0.0207
463.356	0.0185
463.5576	0.0263
463.7592	0.0118
463.9607	0.0173
464.1623	0.0233
464.3638	0.0159
464.5653	0.0165
464.7668	0.0146
464.9683	0.0187
465.1697	0.0205
465.3712	0.0112
465.5726	0.0099
465.7741	0.0197
465.9755	0.0156
466.1769	0.0152
466.3782	0.0123
466.5796	0.0204
466.7809	0.0251
466.9823	0.0137
467.1836	0.0246
467.3849	0.0226
467.5862	0.0083
467.7875	0.0105
467.9887	-0
468.19	0.0181
468.3912	0.0175
468.5924	0.0132
468.7936	0.0112
468.9948	0.0114
469.196	0.0154
469.3972	0.0105
469.5983	0.0126
469.7994	0.0165
470.0006	0.0117
470.2017	0.0174
470.4027	0.0311
470.6038	0.0113
470.8049	0.0161
471.0059	0.0109
471.2069	0.0155
471.408	0.0198
471.6089	0.0109
471.8099	0.0196
472.0109	0.0129
472.2119	0.0189
472.4128	0.0076
472.6137	0.0175
472.8146	0.0166
473.0155	0.0239
473.2164	0.0211
473.4173	0.0086
473.6181	0.0066
473.819	0.0207
474.0198	0.0044
474.2206	0.0013
474.4214	0.0148
474.6222	0.0051
474.8229	0.011
475.0237	0.0149
475.2244	0.0179
475.4251	0.0065
475.6258	0.0062
475.8265	0.0107
476.0272	0.0059
476.2278	0.0146
476.4285	0.0126
476.6291	0.0173
476.8297	0.0062
477.0303	0.0064
477.2309	0.0117
477.4315	0.015
477.632	0.0094
477.8326	0.0079
478.0331	0.0182
478.2336	0.0077
478.4341	0.0177
478.6346	0.011
478.8351	0.0089
479.0355	0.0248
479.236	0.0166
479.4364	0.012
479.6368	0.0082
479.8372	0.0084
480.0376	0.0067
480.2379	0.0119
480.4383	0.0138
480.6386	0.0071
480.8389	0.0055
481.0392	0.0091
481.2395	0.0121
481.4398	0.0134
481.6401	0.0076
481.8403	0.0122
482.0405	0.0081
482.2408	0.009
482.441	0.012
482.6411	0.0056
482.8413	0.0071
483.0415	0.0133
483.2416	0.0092
483.4417	0.0074
483.6419	0.0012
483.8419	0.0047
484.042	0.0126
484.2421	0.0057
484.4422	0.0163
484.6422	0.0069
484.8422	0.0101
485.0422	0.0034
485.2422	0.006
485.4422	0.006
485.6422	0.0073
485.8421	0.008
486.042	0.0144
486.242	0.0047
486.4419	0.0096
486.6417	0.0041
486.8416	0.0048
487.0415	0.0061
487.2413	0.0038
487.4411	0.016
487.641	0.0064
487.8408	0.0163
488.0405	0.0173
488.2403	0.0041
488.4401	0.0029
488.6398	0.0087
488.8395	0.0101
489.0392	0.0191
489.2389	0.0119
489.4386	-0.0001
489.6383	0.0158
489.8379	0.0115
490.0376	0.0122
490.2372	0.0065
490.4368	0.0082
490.6364	0.0018
490.836	0.0081
491.0355	0.0038
491.2351	0.0057
491.4346	0.0199
491.6341	0.0036
491.8336	0.0067
492.0331	0.0029
492.2326	0.0136
492.432	0.0099
492.6315	0.0215
492.8309	0.0112
493.0303	0.0196
493.2297	0.0162
493.4291	0.0082
493.6284	0.0206
493.8278	0.011
494.0271	0.0114
494.2264	0.0055
494.4257	0.0147
494.625	0.0076
494.8243	0.0072
495.0236	0.0136
495.2228	0.0131
495.422	0.0064
495.6213	0.0064
495.8205	0.0076
496.0196	0.009
496.2188	0.0112
496.418	0.0117
496.6171	0.004
496.8162	0.0083
497.0153	0.0078
497.2144	0.0116
497.4135	0.0055
497.6126	0.0113
497.8116	0.0102
498.0107	0.0113
498.2097	0.0112
498.4087	0.0059
498.6077	0.0081
498.8067	0.0108
499.0056	0.0041
499.2046	0.0085
499.4035	0.0128
499.6024	0.0087
499.8013	0.0136
500.0002	0.0127
500.199	0.0112
500.3979	0.0171
500.5967	0.0081
500.7956	0.0087
500.9944	0.0087
501.1932	0.0144
501.3919	0.0171
501.5907	0.0152
501.7895	0.0127
501.9882	0.0078
502.1869	0.0207
502.3856	0.0122
502.5843	0.0146
502.783	0.0075
502.9816	0.0104
503.1803	0.0116
503.3789	0.0211
503.5775	0.0054
503.7761	0.0008
503.9747	0.0091
504.1732	0.0008
504.3718	0.0146
504.5703	0.0101
504.7689	-0.0003
504.9674	0.0115
505.1658	0.0057
505.3643	0.0074
505.5628	0.0161
505.7612	0.0125
505.9597	0.0025
506.1581	0.0095
506.3565	0.008
506.5549	0.01
506.7532	-0.0029
506.9516	0.0139
507.1499	0.0086
507.3482	0.0124
507.5465	0.0092
507.7448	0.0158
507.9431	0.0215
508.1414	0.0066
508.3396	0.0132
508.5379	0.0036
508.7361	0.0086
508.9343	0.0135
509.1325	0.0081
509.3306	0.005
509.5288	0.0007
509.7269	0.0123
509.9251	0.0121
510.1232	0.0147
510.3213	0.014
510.5193	0.0108
510.7174	0.0037
510.9154	0.0131
511.1135	0.0023
511.3115	0.0091
511.5095	0.0136
511.7075	0.0084
511.9055	0.0089
512.1034	0.007
512.3014	0.0134
512.4993	0.0142
512.6972	0.0089
512.8951	0.0096
513.093	0.0054
513.2908	0.0172
513.4887	0.0102
513.6865	0.008
513.8844	0.0089
514.0822	0.0143
514.2799	0.0075
514.4777	0.0076
514.6755	0.01
514.8732	0.0059
515.0709	0.0048
515.2687	0.0141
515.4664	0.0216
515.664	0.0052
515.8617	0.0162
516.0594	0.0091
516.257	0.0128
516.4546	0.025
516.6522	0.0058
516.8498	0.0106
517.0474	0.0075
517.2449	0.0055
517.4425	0.0057
517.64	0.009
517.8375	0.0193
518.035	-0.0031
518.2325	0.0026
518.43	0.0038
518.6274	0.0141
518.8249	0.0133
519.0223	0.0172
519.2197	0.0139
519.4171	-0.0019
519.6145	0.0116
519.8118	-0.0018
520.0092	0.0022
520.2065	0.0072
520.4038	0.0121
520.6011	0.0241
520.7984	0.0077
520.9956	0.0182
521.1929	0.0194
521.3901	0.0164
521.5874	0.0139
521.7846	0.0118
521.9818	0.0095
522.1789	0.0092
522.3761	0.0159
522.5732	0.0131
522.7704	-0.0035
522.9675	-0.001
523.1646	0.0107
523.3617	0.0141
523.5587	0.0211
523.7558	0.0105
523.9528	0.0196
524.1498	0.0041
524.3468	0.0074
524.5438	0.0112
524.7408	0.0042
524.9378	0.0146
525.1347	0.0229
525.3316	0.0115
525.5285	0.0106
525.7254	0.013
525.9223	0.0247
526.1192	0.0207
526.316	0.0204
526.5129	0.0087
526.7097	0.0033
526.9065	0.0093
527.1033	0.0105
527.3	0.0114
527.4968	0.0152
527.6935	0.0052
527.8903	0.0045
528.087	0.014
528.2837	0.0059
528.4804	0.0035
528.677	0.0033
528.8737	0.003
529.0703	0.01
529.2669	0.0176
529.4635	0.0122
529.6601	-0.0031
529.8567	0.0048
530.0532	0.0119
530.2498	0.0127
530.4463	0.0018
530.6428	0.0053
530.8393	0.0195
531.0358	0.0057
531.2322	0.0123
531.4287	0.0028
531.6251	-0.0015
531.8215	0.0059
532.0179	0.006
532.2143	0.0149
532.4107	0.0124
532.607	0.0033
532.8034	0.0031
532.9997	0.0026
533.196	0.0042
533.3923	0.0148
533.5886	0.0101
533.7848	0.006
533.9811	0.0093
534.1773	0.0048
534.3735	0.0135
534.5697	0.0143
534.7659	0.0104
534.9621	0.0105
535.1582	0.0045
535.3544	0.0127
535.5505	0.0106
535.7466	0.0141
535.9427	0.0166
536.1387	0.0048
536.3348	0.0201
536.5308	0.0061
536.7269	0.0058
536.9229	0.0016
537.1189	0.01
537.3148	0.0052
537.5108	0.0116
537.7068	0.0108
537.9027	0.0017
538.0986	0.0103
538.2945	0.0079
538.4904	-0.0011
538.6863	0.0098
538.8821	0.005
539.078	0.0074
539.2738	0.0075
539.4696	-0.0017
539.6654	0.0173
539.8611	0.009
540.0569	0.0157
540.2526	0.0165
540.4484	-0.0024
540.6441	0.0096
540.8398	0.0221
541.0355	0.0066
541.2311	0.009
541.4268	0.0058
541.6224	0.0151
541.818	0.0071
542.0136	0.0179
542.2092	0.0187
542.4048	0.0159
542.6003	0.0085
542.7959	0.0185
542.9914	0.0085
543.1869	0.0019
543.3824	0.0097
543.5779	0.0256
543.7734	0.0229
543.9688	0.019
544.1642	-0.0024
544.3596	0.0129
544.555	-0.0043
544.7504	0.0089
544.9458	0.0079
545.1411	0.0144
545.3365	0.0091
545.5318	0.0178
545.7271	0.0172
545.9224	0.0123
546.1177	0.0225
546.3129	0.0093
546.5081	0.0058
546.7034	0.0151
546.8986	0.0047
547.0938	0.0087
547.289	0.0143
547.4841	0.0198
547.6793	0.0134
547.8744	0.0137
548.0695	-0.0003
548.2646	0.0103
548.4597	0.006
548.6548	0.0171
548.8498	0.0127
549.0448	0.0072
549.2399	0.021
549.4349	0.0048
549.6298	0.016
549.8248	0.0076
550.0198	0.0141
550.2147	0.0093
550.4096	0.0027
550.6045	0.0088
550.7994	0.0149
550.9943	0.0129
551.1892	-0.0063
551.384	0.0193
551.5788	0.0091
551.7737	0.0071
551.9685	0.0079
552.1632	-0.0014
552.358	0.0119
552.5528	0.0034
552.7475	0.0165
552.9422	0.0161
553.1369	0.0254
553.3316	0.0061
553.5263	0.0072
553.7209	0.0114
553.9156	0.0118
554.1102	0.013
554.3048	0.0026
554.4994	0.014
554.694	0.0133
554.8885	0.0127
555.0831	0.0134
555.2776	0.01
555.4721	0.0126
555.6666	0.0058
555.8611	0.0101
556.0555	0.0071
556.25	0.0133
556.4444	-0.0015
556.6388	0.0046
556.8332	0.0127
557.0276	0.0156
557.222	0.0027
557.4163	0.0187
557.6107	0.0025
557.805	0.005
557.9993	0.0132
558.1936	0.0004
558.3879	0.0139
558.5821	0.0128
558.7764	-0.0049
558.9706	0.0035
559.1648	0.0096
559.359	0.0081
559.5532	0.0098
559.7473	0.0153
559.9415	0.006
560.1356	0.013
560.3297	0.0016
560.5238	0.0086
560.7179	0.0059
560.9119	0.006
561.106	0.0016
561.3	0.0068
561.494	0.0023
561.688	0.0027
561.882	0.0076
562.076	0.0087
562.2699	0.0126
562.4639	0.0215
562.6578	0.0121
562.8517	0.0071
563.0456	0.0128
563.2395	0.0101
563.4333	0.0045
563.6272	0.0019
563.821	0.0112
564.0148	0.0106
564.2086	0.0123
564.4024	0.009
564.5961	0.0138
564.7899	0.0075
564.9836	0.007
565.1773	0.0132
565.371	0.0066
565.5647	0.0129
565.7584	0.019
565.952	0.0141
566.1456	0.021
566.3393	0.0097
566.5329	0.0032
566.7264	0.0028
566.92	0.0128
567.1136	0.0109
567.3071	0.0049
567.5006	0.0128
567.6941	0.0111
567.8876	0.0052
568.0811	0.0177
568.2745	0.0017
568.468	0.0035
568.6614	0.0035
568.8548	0.0146
569.0482	0.0129
569.2416	0.0063
569.4349	0.0068
569.6283	0.0096
569.8216	0.0092
570.0149	0.0088
570.2082	0.0152
570.4015	0.004
570.5947	0.0077
570.788	0.0123
570.9812	0.0016
571.1744	0.0102
571.3676	0.0086
571.5608	0.0065
571.754	0.0128
571.9471	0.0137
572.1402	0.0066
572.3333	0.0108
572.5264	0.0079
572.7195	0.0048
572.9126	0.0069
573.1057	0.0099
573.2987	0.0033
573.4917	0.0069
573.6847	0.0067
573.8777	0.0091
574.0707	0.0128
574.2636	0.0112
574.4566	0.0052
574.6495	0.0066
574.8424	0.0132
575.0353	0.0112
575.2281	0.0121
575.421	0.0031
575.6138	0.0055
575.8067	0.0083
575.9995	0.0046
576.1923	0.0098
576.385	0.0096
576.5778	0.0148
576.7706	0.0118
576.9633	0.0115
577.156	0.0012
577.3487	0.0085
577.5414	0.0059
577.734	0.0036
577.9267	0.01
578.1193	0.013
578.3119	0.0087
578.5045	0.0069
578.6971	0.0051
578.8897	0.0083
579.0822	0.012
579.2747	0.0022
579.4673	0.0089
579.6598	0.0045
579.8522	0.0055
580.0447	0.0125
580.2372	0.0127
580.4296	0.0146
580.622	0.0077
580.8144	0.0086
581.0068	0.0102
581.1992	0.0088
581.3915	0.0003
581.5839	0.0089
581.7762	0.0068
581.9685	0.0083
582.1608	0.0044
582.353	0.0081
582.5453	0.0111
582.7375	0.0073
582.9298	0.0022
583.122	0.0056
583.3142	0.009
583.5063	0.0048
583.6985	0.0064
583.8906	0.0067
584.0827	0.0056
584.2749	0.0053
584.4669	0.008
584.659	0.0085
584.8511	0.0144
585.0431	0.012
585.2352	0.0063
585.4272	0.0102
585.6192	0.0072
585.8111	0.0082
586.0031	0.008
586.195	0.0081
586.387	0.0094
586.5789	0.0123
586.7708	0.0084
586.9627	0.0054
587.1545	0.0103
587.3464	0.0073
587.5382	0.0057
587.73	0.0113
587.9218	0.008
588.1136	0.0031
588.3053	0.0067
588.4971	0.0076
588.6888	0.0077
588.8805	0.0046
589.0722	0.0173
589.2639	0.0082
589.4556	0.0066
589.6472	0.0137
589.8389	0.0065
590.0305	0.0075
590.2221	0.0142
590.4137	0.0075
590.6052	0.0074
590.7968	0.0132
590.9883	0.0112
591.1798	0.0057
591.3713	0.0094
591.5628	0.0085
591.7543	0.0104
591.9458	0.006
592.1372	0.0114
592.3286	0.0094
592.52	0.0065
592.7114	0.0057
592.9028	0.0154
593.0941	0.0056
593.2855	0.0095
593.4768	0.0095
593.6681	0.0111
593.8594	0.0102
594.0506	0.0049
594.2419	0.0078
594.4331	0.0076
594.6244	0.0034
594.8156	0.0065
595.0067	0.0057
595.1979	0.0069
595.3891	0.0128
595.5802	0.0065
595.7713	0.0145
595.9624	0.0129
596.1535	0.0099
596.3446	0.0037
596.5357	0.0079
596.7267	0.0054
596.9177	0.0051
597.1087	0.0023
597.2997	0.0094
597.4907	0.0034
597.6817	0.009
597.8726	0.0179
598.0635	0.0122
598.2544	0.0106
598.4453	0.0084
598.6362	0.0059
598.827	0.008
599.0179	0.0074
599.2087	0.0106
599.3995	0.0109
599.5903	0.0146
599.7811	0.0118
599.9718	0.002
600.1626	0.0063
600.3533	0.006
600.544	0.0076
600.7347	0.0071
600.9254	0.015
601.116	0.0086
601.3067	0.0053
601.4973	0.013
601.6879	0.0107
601.8785	0.0126
602.0691	0.0109
602.2596	0.0131
602.4502	0.01
602.6407	0.0117
602.8312	0.0116
603.0217	0.0109
603.2122	0.0066
603.4027	0.0128
603.5931	0.0041
603.7835	0.0039
603.9739	0.0048
604.1643	0.0185
604.3547	0.0175
604.5451	0.0151
604.7354	0.0036
604.9257	0.0079
605.116	0.0047
605.3063	0.0117
605.4966	0.0078
605.6869	0.0144
605.8771	0.0107
606.0673	0.0113
606.2575	0.0084
606.4477	0.0138
606.6379	0.0034
606.8281	0.0097
607.0182	0.0054
607.2083	0.0108
607.3985	0.0072
607.5885	0.0061
607.7786	0.0078
607.9687	0.0138
608.1587	0.0157
608.3488	0.0153
608.5388	0.0009
608.7288	0.0019
608.9187	0.0069
609.1087	0.0071
609.2986	0.0076
609.4886	0.002
609.6785	0.0079
609.8684	0.0093
610.0582	0.0045
610.2481	0.0019
610.4379	0.011
610.6278	0.0018
610.8176	0.0151
611.0074	0.0085
611.1971	0.0084
611.3869	0.0099
611.5766	0.0069
611.7664	0.0092
611.9561	0.0124
612.1458	0.0055
612.3354	0.0069
612.5251	0.0051
612.7147	0.0114
612.9044	0.001
613.094	0.0099
613.2836	0.005
613.4731	0.0027
613.6627	0.0119
613.8522	0.0096
614.0417	0.0103
614.2313	0.0032
614.4207	0.0154
614.6102	0.0084
614.7997	0.0192
614.9891	0.0083
615.1785	-0.006
615.3679	0.0094
615.5573	0.0101
615.7467	0.0038
615.9361	0.0096
616.1254	0.0128
616.3147	0.0088
616.504	0.0082
616.6933	0.0114
616.8826	0.0025
617.0718	0.0116
617.2611	0.0083
617.4503	0.0122
617.6395	0.009
617.8287	0.0143
618.0179	0.0055
618.207	0.0148
618.3961	0.0026
618.5853	0.0076
618.7744	0.0165
618.9634	0.0149
619.1525	0.0084
619.3416	0.004
619.5306	0.0205
619.7196	0.0088
619.9086	0.0061
620.0976	0.0023
620.2866	0.0115
620.4755	-0.0001
620.6645	0.0153
620.8534	0.0161
621.0423	0.0117
621.2312	0.0084
621.42	0.0069
621.6089	0.0089
621.7977	0.0102
621.9865	0.0089
622.1753	0.0061
622.3641	-0.0018
622.5529	0.0146
622.7416	0.0009
622.9303	0.0038
623.1191	0.0118
623.3078	0.0042
623.4964	0.0018
623.6851	0.0085
623.8737	0.0069
624.0624	0.003
624.251	0.0097
624.4396	0.0098
624.6282	0.0175
624.8167	0.0091
625.0053	0.0142
625.1938	0.01
625.3823	0.0136
625.5708	-0.004
625.7593	0.0018
625.9477	0.0151
626.1362	0.0003
626.3246	0.0039
626.513	0.0058
626.7014	0.0141
626.8898	0.0086
627.0781	0.0188
627.2665	0.0147
627.4548	0
627.6431	0.0057
627.8314	0.0066
628.0197	0.0042
628.2079	-0.0007
628.3962	0.0105
628.5844	0.0097
628.7726	0.0084
628.9608	0.0108
629.1489	0.0164
629.3371	0.0089
629.5252	0.0089
629.7134	0.0014
629.9015	0.0132
630.0895	-0.0037
630.2776	0.0073
630.4657	0.0026
630.6537	0.018
630.8417	-0.0048
631.0297	0.0059
631.2177	0.0064
631.4057	0.0126
631.5936	-0.0078
631.7815	0.003
631.9695	0.0167
632.1574	0.0134
632.3452	0.0096
632.5331	0.0111
632.7209	0.0221
632.9088	0.0101
633.0966	0.0325
633.2844	0.0108
633.4722	0.0127
633.6599	0.0181
633.8477	0.0249
634.0354	0.0324
634.2231	-0.0138
634.4108	0.0096
634.5985	0.0185
634.7861	-0.0029
634.9738	-0.0052
635.1614	0.0086
635.349	0.0153
635.5366	0.0146
635.7242	0.0122
635.9117	0.0068
636.0993	0.0257
636.2868	-0.0015
636.4743	0.006
636.6618	-0.0002
636.8492	0.0057
637.0367	0.0017
637.2241	0.0001
637.4115	0.0317
637.5989	0.0116
637.7863	0.0146
637.9737	0.011
638.161	0.0014
638.3484	0.0028
638.5357	0.0055
638.723	0.0198
638.9103	-0.0017
639.0975	-0.0058
639.2848	0.0168
639.472	0.008
639.6592	-0.0204
639.8464	-0.0041
640.0336	0.0052
640.2208	0.011
640.4079	-0.0009
640.595	-0.0197
640.7821	0.011
640.9692	-0.0104
641.1563	0.0047
641.3434	0.0148
641.5304	0.0217
641.7174	0.0136
641.9044	0.0084
642.0914	0.0176
642.2784	-0.0039
642.4653	0.0061
642.6523	0.0243
642.8392	0.005
643.0261	0.0034
643.213	0.0183
643.3999	0.0138
643.5867	0.0251
643.7735	-0.0001
643.9604	0.0232
644.1472	0.0206
644.3339	0.0036
644.5207	0.001
644.7075	0.0003
644.8942	0.0201
645.0809	0.0216
645.2676	0.0082
645.4543	0.0037
645.6409	0.0238
645.8276	0.0111
646.0142	0.0066
646.2008	0.018
646.3874	-0.0084
646.574	0.0221
646.7605	0.0081
646.9471	0.0199
647.1336	-0.0188
647.3201	0.007
647.5066	0.0061
647.6931	-0.0046
647.8795	0.0063
648.0659	-0.0006
648.2524	0.0081
648.4388	0.0208
648.6252	0.0323
648.8115	0.0001
648.9979	0.0227
649.1842	0.006
649.3705	0.0201
649.5568	-0.0081
649.7431	0.0048
649.9294	0.0166
650.1156	0.0085
650.3018	0.0192
650.488	0.0202
650.6742	0.0305
650.8604	0.03
651.0466	-0.0028
651.2327	0.0096
651.4188	0.0131
651.6049	0.0154
651.791	0.0075
651.9771	0.003
652.1632	0.0163
652.3492	-0.0003
652.5352	0.0213
652.7212	-0.004
652.9072	0.0114
653.0932	0.024
653.2791	0.0093
653.465	0.0124
653.651	0.0057
653.8369	0.0211
654.0227	0.005
654.2086	0.0194
654.3944	0.022
654.5803	0.0005
654.7661	0.0108
654.9519	0.0021
655.1377	0
655.3234	0
655.5092	0
655.6949	0
655.8806	0
656.0663	0
656.2519	0
656.4376	0
656.6232	0
656.8088	0
656.9945	0
657.18	0
657.3656	0
657.5511	0
657.7367	0
657.9222	0
658.1077	0
658.2932	0
658.4786	0
658.6641	0
658.8495	0
659.0349	0
659.2203	0
659.4057	0.0129
659.591	0.2977
659.7764	0.033
659.9617	0.0094
660.147	0.013
660.3323	0.0138
660.5176	0.0127
660.7028	-0.0037
660.888	0.0056
661.0733	0.0211
661.2585	-0.0111
661.4436	0.0129
661.6288	0.0061
661.8139	0.0024
661.9991	-0.0083
662.1842	0.0105
662.3693	0.0098
662.5544	0.0069
662.7394	0.0211
662.9245	0.0076
663.1095	-0.0114
663.2945	0.0041
663.4795	0.0028
663.6644	0.0038
663.8494	0.013
664.0343	0.0097
664.2193	0.0156
664.4042	0.018
664.589	0.0038
664.7739	0.0145
664.9587	-0.0009
665.1436	-0.0153
665.3284	0.0016
665.5132	-0.027
665.698	0.005
665.8827	-0.0032
666.0675	-0.0018
666.2522	0.0194
666.4369	0.0041
666.6216	0.0029
666.8063	0.0325
666.9909	-0.0138
667.1756	0.0021
667.3602	-0.0041
667.5448	0.0181
667.7294	0.0368
667.9139	0.0142
668.0985	0.0238
668.283	-0.0076
668.4675	0.0115
668.652	0.0005
668.8365	-0.0015
669.0209	0.0169
669.2054	0.0176
669.3898	0.003
669.5742	0.0245
669.7586	0.022
669.943	0.0053
670.1273	0.0071
670.3117	0.0175
670.496	-0.0072
670.6803	0.0046
670.8646	-0.0124
671.0488	0.0277
671.2331	-0.013
671.4173	0.017
671.6015	-0.0076
671.7857	0.0029
671.9699	0.0242
672.1541	0.0064
672.3382	0.0175
672.5223	0.0029
672.7064	-0.0043
672.8905	0.0044
673.0746	-0.0064
673.2587	0.0371
673.4427	0.0223
673.6267	0.011
673.8107	0.0206
673.9947	0.0138
674.1787	0.0134
674.3626	0.024
674.5465	0.0286
674.7304	0.0228
674.9143	0.0089
675.0982	0.02
675.2821	-0.0104
675.4659	0.0017
675.6497	0.0171
675.8335	0.0004
676.0173	-0.0032
676.2011	0.0275
676.3849	0.0309
676.5686	0.0207
676.7523	0.0088
676.936	-0.0098
677.1197	-0.0032
677.3034	0.0363
677.487	-0.0011
677.6706	0.0061
677.8542	0.0076
678.0378	0.0177
678.2214	-0.0031
678.405	0.004
678.5885	0.0089
678.772	0.0031
678.9555	0.0026
679.139	0.0221
679.3225	0.0062
679.5059	0.0057
679.6894	0.0191
679.8728	0.0111
680.0562	-0.0119
680.2395	0.0094
680.4229	0.0031
680.6062	-0.0022
680.7896	-0.0218
680.9729	0.0174
681.1562	-0.0066
681.3394	0.0056
681.5227	0.011
681.7059	-0.0034
681.8891	0.0128
682.0723	0.0064
682.2555	0.0026
682.4387	0.0011
682.6218	0.012
682.805	0.0185
682.9881	0.0148
683.1712	0.0102
683.3542	0.0187
683.5373	0.0152
683.7203	0.0193
683.9034	0.0077
684.0864	0.0086
684.2694	-0.0021
684.4523	0.0191
684.6353	0.012
684.8182	0.0177
685.0011	0.0113
685.184	0.0115
685.3669	0.0264
685.5498	0.0062
685.7326	0.0046
685.9154	-0.0186
686.0982	0.0213
686.281	-0.0087
686.4638	0.0152
686.6465	0.0099
686.8293	-0.009
687.012	0.0087
687.1947	0.0131
687.3774	0.0059
687.56	-0.005
687.7427	0.0132
687.9253	0.0156
688.1079	-0.0005
688.2905	0.0022
688.4731	0.0239
688.6556	0.0098
688.8382	-0.0134
689.0207	0.0064
689.2032	0.019
689.3857	0.0033
689.5681	0.0139
689.7506	0.0442
689.933	0.019
690.1154	0.0073
690.2978	0.0119
690.4802	0.0317
690.6626	0.001
690.8449	0.0115
691.0272	0.0106
691.2095	-0.0014
691.3918	0.0067
691.5741	0.0119
691.7563	0.0147
691.9386	0.0256
692.1208	0.015
692.303	0.0004
692.4852	-0.0027
692.6673	0.0083
692.8495	-0.0124
693.0316	0.0174
693.2137	0.0202
693.3958	0.0079
693.5778	0.0045
693.7599	-0.0035
693.9419	0.0012
694.1239	-0.0056
694.3059	0.0327
694.4879	0.0151
694.6699	0.011
694.8518	-0.0044
695.0337	0.0142
695.2157	0.0277
695.3975	0.0049
695.5794	-0.0248
695.7613	0.0151
695.9431	-0.0119
696.1249	0.0249
696.3067	0.0025
696.4885	0.0165
696.6703	0.0156
696.852	0.0008
697.0337	0.0207
697.2154	0.0138
697.3971	0.0141
697.5788	0.0172
697.7605	0.0025
697.9421	0.0083
698.1237	0.0211
698.3053	0.0158
698.4869	0.0052
698.6685	0.0203
698.85	0.0211
699.0315	-0.0113
699.213	0.025
699.3945	0.0336
699.576	0.041
699.7575	0.0187
699.9389	0.0329
700.1203	0.0119
700.3017	0.0093
700.4831	0.0325
700.6645	0.0139
700.8458	0.0041
701.0271	0.0319
701.2084	0.0124
701.3897	0.0149
701.571	-0.0103
701.7523	0.0159
701.9335	0.0283
702.1147	0.0022
702.2959	0.0091
702.4771	0.0113
702.6583	0.0058
702.8394	-0.0049
703.0205	0.0132
703.2016	0.0141
703.3827	-0.0021
703.5638	0.0105
703.7449	0.039
703.9259	0.0078
704.1069	-0.0011
704.2879	0.0243
704.4689	0.0095
704.6499	0.0393
704.8308	0.0172
705.0117	0.0265
705.1927	0.0214
705.3735	-0.0084
705.5544	0.0481
705.7353	0.004
705.9161	-0.0245
706.0969	0.0269
706.2777	0.0041
706.4585	0.0011
706.6393	0.0201
706.82	0.0186
707.0007	-0.0014
707.1815	-0.0019
707.3621	0.0432
707.5428	0.0249
707.7235	-0.0006
707.9041	0.01
708.0847	0.0206
708.2653	0.0346
708.4459	-0.0014
708.6265	-0.0039
708.807	0.0232
708.9875	0.018
709.168	0.0193
709.3485	0.0165
709.529	-0.0006
709.7095	-0.0012
709.8899	0.0212
710.0703	0.0185
710.2507	0.0054
710.4311	-0.0087
710.6115	0.0253
710.7918	0.0367
710.9721	-0.0005
711.1524	0.0137
711.3327	0.0089
711.513	0.0152
711.6932	-0.0044
711.8735	0.026
712.0537	0.0072
712.2339	0.0272
712.4141	0.0201
712.5942	0.0002
712.7744	0.0306
712.9545	0.0204
713.1346	0.0371
713.3147	0.0188
713.4947	-0.0089
713.6748	0.0054
713.8548	0.0374
714.0348	0.0223
714.2148	0.0189
714.3948	-0.0041
714.5748	0.0228
714.7547	0.0145
714.9346	0.0345
715.1145	0.0075
715.2944	-0.018
715.4743	0.0187
715.6541	0.0002
715.834	0.043
716.0138	0.0192
716.1936	0.0328
716.3733	0.0335
716.5531	0.0291
716.7328	0.0297
716.9126	0.0223
717.0923	-0.0472
717.2719	0.0259
717.4516	0.013
717.6312	-0.0042
717.8109	0.0362
717.9905	0.0234
718.1701	0.0239
718.3496	0.0053
718.5292	-0.0013
718.7087	0.0216
718.8882	0.0237
719.0677	0.0064
719.2472	0.0133
719.4267	-0.0032
719.6061	-0.0308
719.7856	0.036
719.965	-0.0057
720.1443	0.0153
720.3237	-0.0002
720.5031	-0.0021
720.6824	0.0121
720.8617	-0.0021
721.041	0.0383
721.2203	0.0063
721.3995	0.0055
721.5788	0.0006
721.758	0.0158
721.9372	0.0058
722.1164	-0.0096
722.2956	-0.0038
722.4747	0.0282
722.6538	-0.0042
722.8329	0.0407
723.012	0.022
723.1911	-0.0028
723.3702	0.0222
723.5492	0.0015
723.7282	0.0036
723.9072	0.0019
724.0862	0.0147
724.2652	0.0015
724.4441	0.0097
724.623	0.0154
724.8019	0.0059
724.9808	-0.0096
725.1597	0.0039
725.3385	0.0066
725.5174	-0.0012
725.6962	0.0143
725.875	0.0085
726.0538	-0.0125
726.2325	0.0167
726.4112	-0.0178
726.59	-0.015
726.7687	0.006
726.9474	-0.0161
727.126	0.0423
727.3047	-0.0057
727.4833	0.021
727.6619	0.0001
727.8405	-0.0077
728.0191	-0.0012
728.1976	0.0066
728.3762	0.0162
728.5547	-0.0124
728.7332	0.0293
728.9116	0.0012
729.0901	0.0033
729.2686	0.0052
729.447	0.0046
729.6254	0.0197
729.8038	0.0068
729.9821	-0.0153
730.1605	0.0181
730.3388	0.0088
730.5171	0.0218
730.6954	-0.0048
730.8737	0.0164
731.0519	-0.0082
731.2302	0.024
731.4084	0.013
731.5866	-0.0007
731.7648	0.0107
731.9429	0.017
732.1211	0.01
732.2992	0.0136
732.4773	-0.001
732.6554	-0.0086
732.8335	0.0212
733.0115	0.0312
733.1896	-0.0023
733.3676	0.0096
733.5456	0.0201
733.7235	0.0127
733.9015	0.0149
734.0794	-0.0006
734.2574	-0.0001
734.4353	0.0165
734.6131	-0.0065
734.791	0.0015
734.9689	0.0058
735.1467	0.0099
735.3245	0.0329
735.5023	0.0147
735.68	-0.0064
735.8578	0.011
736.0355	-0.0096
736.2132	0.013
736.3909	0.0028
736.5686	-0.0066
736.7463	-0.0161
736.9239	0.022
737.1015	0.0136
737.2791	0.0094
737.4567	0.0272
737.6343	0.011
737.8118	0.0263
737.9894	-0.0047
738.1669	0.0164
738.3444	0.0289
738.5218	0.0036
738.6993	0.0193
738.8767	0.0143
739.0541	0.0056
739.2315	-0.0109
739.4089	0.0195
739.5863	0.0124
739.7636	0.0019
739.9409	0.0049
740.1182	0.0044
740.2955	0.0221
740.4728	-0.0156
740.65	-0.0163
740.8272	0.0286
741.0044	0.0029
741.1816	0.0321
741.3588	-0.0078
741.5359	-0.0136
741.7131	0.0064
741.8902	0.0231
742.0673	-0.0259
742.2444	0.0231
742.4214	0.0231
742.5985	-0.0064
742.7755	0.016
742.9525	-0.0309
743.1295	-0.0146
743.3064	0.0176
743.4834	0.0057
743.6603	0.0581
743.8372	-0.0357
744.0141	0.0348
744.191	-0.0012
744.3678	-0.0314
744.5446	0.0038
744.7215	0.0324
744.8982	0.0214
745.075	0.0571
745.2518	0.0029
745.4285	0.0434
745.6052	-0.0392
745.7819	0.0252
745.9586	0.0369
746.1353	-0.0355
746.3119	0.0395
746.4885	0.0381
746.6651	0.0032
746.8417	0.0108
747.0183	0.0337
747.1948	0.0178
747.3714	0.0238
747.5479	0.0332
747.7244	-0.0218
747.9008	-0.0351
748.0773	0.0197
748.2537	0.0311
748.4301	0.0371
748.6065	-0.0167
748.7829	-0.0118
748.9593	0.0185
749.1356	0.013
749.3119	0.0176
749.4882	0.047
749.6645	0.0234
749.8408	0.0315
750.017	0.0272
750.1933	-0.0129
750.3695	0.0157
750.5457	0.0052
750.7218	0.0066
750.898	-0.0065
751.0741	0.0027
751.2502	0.0011
751.4263	-0.0033
751.6024	0.005
751.7784	0.0101
751.9545	0.0098
752.1305	0.0128
752.3065	-0.0029
752.4825	-0.0002
752.6584	0.0351
752.8344	-0.0053
753.0103	-0.0161
753.1862	0.0149
753.3621	0.0091
753.5379	-0.0088
753.7138	0.0125
753.8896	0.0144
754.0654	-0.0039
754.2412	0.0075
754.417	0.0307
754.5927	0.0239
754.7685	0.0104
754.9442	0.0131
755.1199	-0.0074
755.2956	0.0109
755.4712	-0.0023
755.6469	0.0007
755.8225	0.0143
755.9981	0.015
756.1736	-0.0041
756.3492	0.0129
756.5248	0.0233
756.7003	-0.006
756.8758	0.0009
757.0513	-0.0049
757.2267	0.0153
757.4022	-0.0015
757.5776	0.0182
757.753	0.0265
757.9284	-0.0078
758.1038	0.0131
758.2791	0.0225
758.4545	-0.0174
758.6298	0.0093
758.8051	0.0079
758.9803	0.0168
759.1556	-0.0006
759.3308	0.0053
759.506	0.0003
759.6812	0.002
759.8564	0.0047
760.0316	-0.0052
760.2067	0.0264
760.3819	0.0127
760.557	-0.0008
760.732	0.0103
760.9071	0.0193
761.0821	-0.0175
761.2572	0.0219
761.4322	0.0273
761.6072	0.0001
761.7821	-0.0359
761.9571	0.0267
762.132	0.0318
762.3069	-0.0132
762.4818	0.02
762.6567	0.0086
762.8316	0.0043
763.0064	0.0213
763.1812	0.0199
763.356	-0.0002
763.5308	0.022
763.7055	-0.0073
763.8803	-0.0115
764.055	-0.0042
764.2297	0.0017
764.4044	-0.0006
764.579	0.0082
764.7537	0.007
764.9283	-0.0025
765.1029	0.0133
765.2775	0.0165
765.4521	0.0153
765.6266	0.0052
765.8011	0.0231
765.9756	0.0366
766.1501	0.0117
766.3246	0.0038
766.4991	0.0393
766.6735	0.0459
766.8479	0.0099
767.0223	0.0063
767.1967	0.0175
767.371	0.0044
767.5454	0.0252
767.7197	0.0223
767.894	-0.0018
768.0683	0.0361
768.2425	0.0173
768.4168	0.0092
768.591	0.0061
768.7652	0.012
768.9394	-0.0453
769.1135	0.0161
769.2877	0.0309
769.4618	0.0465
769.6359	0.0185
769.81	0.0131
769.984	-0.008
770.1581	0.0397
770.3321	0.0442
770.5061	0.0077
770.6801	-0.0002
770.8541	0.0156
771.028	0.0255
771.202	0.004
771.3759	0.0265
771.5498	-0.0077
771.7236	0.0213
771.8975	0.0202
772.0713	0.031
772.2451	0.0076
772.4189	0.013
772.5927	-0.0189
772.7665	-0.0198
772.9402	0.0162
773.1139	0.0108
773.2876	0.0058
773.4613	0.0306
773.635	0.0347
773.8086	0.0157
773.9822	0.0205
774.1558	0.0686
774.3294	0.0099
774.503	0.0208
774.6765	0.0262
774.8501	0.0142
775.0236	0.0501
775.1971	0.0167
775.3705	-0.0135
775.544	-0.0327
775.7174	0.002
775.8908	0.0101
776.0642	-0.0046
776.2376	0.0669
776.4109	0.061
776.5843	-0.0109
776.7576	0.0256
776.9309	0.0139
777.1041	-0.0288
777.2774	-0.0246
777.4506	-0.0073
777.6238	-0.0134
777.797	0.037
777.9702	0.0095
778.1434	0.0154
778.3165	0.0021
778.4896	-0.0368
778.6627	0.0312
778.8358	-0.0262
779.0089	-0.0145
779.1819	0.0425
779.3549	0.0314
779.5279	0.0029
779.7009	0.0871
779.8739	0.0216
780.0468	0.0242
780.2197	0.0138
780.3926	-0.0214
780.5655	0.0226
780.7384	0.007
780.9112	0.0488
781.0841	0.0324
781.2569	0.0349
781.4297	0.0202
781.6024	0.0343
781.7752	0.0397
781.9479	0.0267
782.1206	0.0153
782.2933	0.017
782.466	0.0187
782.6386	0.0101
782.8113	0.0073
782.9839	0.0008
783.1565	0.0159
783.329	0.0026
783.5016	0.0037
783.6741	-0.0315
783.8466	0.0496
784.0191	-0.0204
784.1916	-0.0028
784.3641	-0.0246
784.5365	0.027
784.7089	-0.0071
784.8813	0.0945
785.0537	0.0465
785.2261	-0.0026
785.3984	0.0186
785.5707	-0.0192
785.743	0.0228
785.9153	-0.0304
786.0876	-0.0132
786.2598	-0.0215
786.432	0.0264
786.6042	0.048
786.7764	-0.0169
786.9486	0.0045
787.1207	0.0548
787.2928	0.0731
787.4649	0.0061
787.637	0.0008
787.8091	0.028
787.9811	0.0412
788.1532	0.0148
788.3252	0.0304
788.4972	0.0136
788.6691	0.0127
788.8411	-0.0134
789.013	0.0182
789.1849	0.0067
789.3568	0.0083
789.5287	0.039
789.7005	-0.0579
789.8723	-0.0321
790.0442	-0.0266
790.2159	0.0025
790.3877	0.0385
790.5595	0.025
790.7312	0.0326
790.9029	0.0108
791.0746	0.0371
791.2463	-0.0479
791.4179	0.0101
791.5896	-0.0346
791.7612	0.0479
791.9328	-0.0057
792.1044	0.0132
792.2759	-0.0117
792.4474	-0.0406
792.619	0.005
792.7905	0.0373
792.9619	0.0761
793.1334	0.0926
793.3048	0.0361
793.4762	0.014
793.6476	-0.0468
793.819	0.0488
793.9904	0.0119
794.1617	-0.012
794.333	0.0144
794.5043	0.0552
794.6756	0.0179
794.8469	0.0045
795.0181	0.0053
795.1893	0.0194
795.3605	0.0021
795.5317	0.0003
795.7029	-0.0088
795.874	0.007
796.0452	-0.0056
796.2163	0.0597
796.3873	0.0581
796.5584	0.0665
796.7294	0.0562
796.9005	-0.0531
797.0715	-0.0224
797.2425	0.0588
797.4134	0.0651
797.5844	0.0631
797.7553	-0.0288
797.9262	0.0738
798.0971	0.0109
798.2679	-0.0115
798.4388	-0.0139
798.6096	0.023
798.7804	0.0091
798.9512	0.0486
799.122	-0.0007
799.2927	0.024
799.4635	-0.0498
799.6342	-0.0472
799.8049	0.049
799.9755	-0.0292
800.1462	0.0116
800.3168	0.0765
800.4874	-0.0539
800.658	0.0387
800.8286	0.0262
800.9991	0.007
801.1696	-0.0193
801.3402	-0.013
801.5106	-0.0985
801.6811	0.0638
801.8516	0.1218
802.022	0.0027
802.1924	0.0093
802.3628	0.0529
802.5332	0.0708
802.7035	0.09
802.8739	0.0502
803.0442	-0.0855
803.2145	0.0073
803.3847	0.0116
803.555	0.0371
803.7252	-0.0651
803.8954	-0.0605
804.0656	-0.0069
804.2358	0.0408
804.4059	0.0841
804.5761	0.0574
804.7462	0.0112
804.9163	-0.0071
805.0864	-0.0609
805.2564	-0.0141
805.4264	0.004
805.5965	0.0946
805.7665	0.0273
805.9364	0.0535
806.1064	0.0245
806.2763	0.0632
806.4462	0.0291
806.6161	0.0275
806.786	-0.0095
806.9559	-0.0015
807.1257	-0.0271
807.2955	0.0016
807.4653	0.0263
807.6351	0.0054
807.8048	0.0636
807.9746	0.0131
808.1443	0.006
808.314	0.0633
808.4837	0.0535
808.6533	0.0022
808.8229	0.0219
808.9926	0.0272
809.1622	0.0829
809.3317	-0.0706
809.5013	-0.0029
809.6708	0.0264
809.8403	0.0396
810.0098	0.0007
810.1793	0.0381
810.3488	-0.0619
810.5182	0.0991
810.6876	0.0146
810.857	-0.0228
811.0264	-0.0856
811.1958	0.0896
811.3651	0.0277
811.5344	0.0283
811.7037	0.0451
811.873	0.0374
812.0422	-0.069
812.2115	-0.0105
812.3807	-0.1557
812.5499	-0.0092
812.7191	0.0275
812.8882	-0.0172
813.0574	0.0422
813.2265	0.0122
813.3956	0.0051
813.5646	-0.0361
813.7337	0.0521
813.9027	-0.0727
814.0718	0.002
814.2407	0.0482
814.4097	0.0132
814.5787	0.0635
814.7476	-0.008
814.9165	-0.0024
815.0854	0.051
815.2543	0.0351
815.4232	0.0971
815.592	0.0036
815.7608	-0.2067
815.9296	-0.1244
816.0984	-0.0453
816.2671	-0.2019
816.4359	0.1731
816.6046	0.0429
816.7733	-0.0504
816.942	-0.0612
817.1106	0.0033
817.2793	-0.0755
817.4479	-0.0308
817.6165	0.0045
817.785	0.0412
817.9536	-0.1257
818.1221	0.0242
818.2906	-0.092
818.4591	0.0357
818.6276	-0.0274
818.7961	0.0741
818.9645	0.2269
819.1329	0.2288
819.3013	-0.0143
819.4697	-0.0345
819.638	0.0396
819.8064	0.05
819.9747	0.0285
820.143	0.1814
820.3113	0.1076
820.4795	0.0293
820.6477	0.0655
820.816	-0.0275
820.9842	0.1433
821.1523	-0.0082
821.3205	0.0479
821.4886	-0.0133
821.6567	-0.0202
821.8248	0.1261
821.9929	-0.1347
822.1609	-0.0372
822.329	0.101
822.497	-0.0299
822.665	0.0753
822.833	0.1276
823.0009	0.1181
823.1688	0.239
823.3367	-0.0032
823.5046	0.0852
823.6725	-0.0821
823.8404	-0.0689
824.0082	-0.1126
824.176	-0.1459
824.3438	0.1152
824.5116	-0.0297
824.6793	0.1379
824.847	0.2797
825.0147	0.1752
825.1824	0.1654
825.3501	0.1439
825.5177	-0.0354
825.6854	-0.0501
825.853	-0.0981
826.0206	0.0432
826.1881	-0.069
826.3557	-0.0327
826.5232	0.0802
826.6907	0.0754
826.8582	-0.0872
827.0257	0.1821
827.1931	-0.0308
827.3605	-0.0422
827.528	-0.1467
827.6953	-0.2049
827.8627	-0.1005
828.03	0.1054
828.1974	-0.0183
828.3647	0.1295
828.532	0.0709
828.6992	-0.0128
828.8665	-0.1408
829.0337	0.1535
829.2009	-0.1872
829.3681	-0.0692
829.5352	-0.0049
829.7024	0.0243
829.8695	0.021
830.0366	0.143
830.2037	0.104
830.3707	0.1516
830.5378	-0.0786
830.7048	-0.0507
830.8718	0.0985
831.0388	0.1699
831.2057	-0.0846
831.3727	0.1664
831.5396	0.0069
831.7065	-0.1681
831.8734	0.2175
832.0402	0.0842
832.2071	-0
832.3739	-0.1667
832.5407	-1.9345
832.7075	-0.2117
832.8742	0.4778
833.041	-0.0125
833.2077	0.1251
833.3744	0.0017
833.541	-0.105
833.7077	-0.0158
833.8743	0.151
834.0409	-0.0283
834.2075	0.0388
834.3741	0.0101
834.5407	0.2153
834.7072	0.1264
834.8737	0.0531
835.0402	0.1722
835.2067	0.1251
835.3731	0.0663
835.5395	0.0363
835.706	-0.0882
835.8723	0.4836
836.0387	0.1169
836.2051	0.5778
836.3714	0.2104
836.5377	-0.0495
836.704	0.3658
836.8703	-0.1491
837.0365	-0.1273
837.2027	-0.0702
837.3689	-0.0726
837.5351	0.5618
837.7013	-0.3657
837.8674	-0.3842
838.0335	-0.0182
838.1997	-0.301
838.3657	0.2425
838.5318	-0.6867
838.6978	0.4376
838.8639	-0.376
839.0299	0.1784
839.1958	0.2931
839.3618	0.1481
839.5277	-0.0161
839.6937	0.1252
839.8596	-0.2734
840.0254	0.098
840.1913	-0
840.3571	0.0464
840.523	-0.9638
840.6888	-0.1298
840.8545	-0.4507
841.0203	0.1469
841.186	-0.1726
841.3517	-0.1717
841.5174	0.3023
841.6831	0.0739
841.8488	-0.1211
842.0144	1.1486
842.18	0.133
842.3456	-0.6796
842.5112	-0
842.6767	0.2362
842.8422	0.3568
843.0077	-0.0238
843.1732	-0.301
843.3387	0.2304
843.5042	0.0505
843.6696	-0.1256
843.835	0.1048
844.0004	0.0363
844.1657	-0.6557
844.3311	0.6921
844.4964	-0
844.6617	0.3919
844.827	0.3958
844.9923	0.1316
845.1575	0.5559
845.3227	-0.3207
845.4879	-0.351
845.6531	0.3728
845.8183	0.6703
845.9834	-0.0814
846.1485	-0.1039
846.3136	0.1742
846.4787	-0
846.6438	0.0335
846.8088	-0
846.9738	-0
847.1388	0.0578
847.3038	0.0478
847.4687	-0
847.6337	-0.28
847.7986	0.2508
847.9635	0.3037
848.1284	1.0763
848.2932	-0.0691
848.458	-0
848.6228	-0.0818
848.7876	-0
848.9524	0.0135
849.1172	-2.0062
849.2819	0.1606
849.4466	0.8926
849.6113	0.1589
849.7759	-0
849.9406	-0.225
850.1052	-1.0351
850.2698	-0
850.4344	-0.1681
850.599	0.3186
850.7635	0.0036
850.928	0.2476
851.0925	0.4234
851.257	-0
851.4215	0.2769
851.5859	-0.0966
851.7503	-0
851.9147	-0.6155
852.0791	-0.172
852.2434	0.2304
852.4078	-0.0632
852.5721	0.2277
852.7364	0.9057
852.9007	-0.0693
853.0649	0.6619
853.2291	0.2505
853.3934	-0
853.5575	-0.05
853.7217	0.1894
853.8859	1.8028
854.05	-0.3799
854.2141	0.3919
854.3782	-0
854.5423	0.1599
854.7063	-0.1038
854.8703	0.0108
855.0343	-0.342
855.1983	0.2267
855.3623	0.1424
855.5262	-0
855.6901	0.3611
855.854	0.2418
856.0179	-0.2044
856.1818	-0
856.3456	0.0318
856.5094	-0
856.6732	-0
856.837	-0.8704
857.0008	0.2204
857.1645	-0.2417
857.3282	-0.4178
857.4919	0.0713
857.6556	-0.1006
857.8192	-0.1199
857.9828	0.6744
858.1465	0.1429
858.31	-0
858.4736	-0.7292
858.6372	0.3069
858.8007	1.0383
858.9642	0.0644
859.1277	-0
859.2911	-0.6596
859.4546	-0
859.618	0.5204
859.7814	-0.2147
859.9448	-0.0396
860.1081	-0
860.2715	-1.827
860.4348	-0.4041
860.5981	1.2745
860.7614	-0.4945
860.9246	1.4592
861.0879	0.2032
861.2511	0.3819
861.4143	-0
861.5774	-0.301
861.7406	-0.1733
861.9037	-0.2124
862.0668	-0
862.2299	-0.0646
862.393	-0
862.556	-0.2618
862.7191	-0.1906
862.8821	0.0828
863.0451	0.3664
863.208	-0.3651
863.371	0.2204
863.5339	0.4004
863.6968	0.8183
863.8597	-0.133
864.0225	0.0788
864.1854	0.5567
864.3482	-0.301
864.511	-0.2456
864.6737	-0
864.8365	0.0126
864.9992	-0
865.1619	-0.6596
865.3246	-1.9805
865.4873	-0
865.65	-0
865.8126	-0
865.9752	0.4284
866.1378	0.1747
866.3004	-0.3304
866.4629	-2.1158
866.6254	-0.6098
866.7879	0.6003
866.9504	0.5654
867.1129	0.0444
867.2753	-0.017
867.4377	0.3048
867.6001	0.0312
867.7625	-0
867.9249	1.018
868.0872	0.0553
868.2495	-0
868.4118	0.4535
868.5741	-0
868.7363	-0
868.8986	-0.5496
869.0608	-0
869.223	-0.5844
869.3851	-0
869.5473	0.1704
869.7094	0.0608
869.8715	-0
870.0336	-0.0777
870.1957	-0.666
870.3577	0.4403
870.5197	-0.3921
870.6817	-0.5273
870.8437	-0.0591
871.0057	-0.1707
871.1676	0.6648
871.3295	0.343
871.4914	-1.1461
871.6533	-0.1911
871.8151	0.4346
871.977	-0
872.1388	-0.4875
872.3006	-0.7208
872.4623	-0.5824
872.6241	-0
872.7858	-0.0219
872.9475	0.2424
873.1092	0.1394
873.2709	-0
873.4325	-1.8486
873.5941	-0.5412
873.7557	-0
873.9173	0.1664
874.0789	0.4221
874.2404	-0
874.4019	-0.2212
874.5634	1.0009
874.7249	-0
874.8863	-0.1362
875.0478	0.0481
875.2092	-0
875.3706	0.4764
875.5319	0.1256
875.6933	-0
875.8546	1.0969
876.0159	-0.0409
876.1772	-0.0664
876.3385	0.9315
876.4997	-0
876.6609	-0
876.8221	-0
876.9833	-0.1788
877.1445	0.352
877.3056	-0.9335
877.4667	-0
877.6278	-0
877.7889	0.4937
877.9499	0.1298
878.111	-0.7814
878.272	-0
878.433	-0.3101
878.5939	0.1081
878.7549	-0
878.9158	-0
879.0767	-0
879.2376	-0
879.3984	0.35
879.5593	0.3713
879.7201	-1.8158
879.8809	0.7191
880.0417	0.0267
880.2024	-0.1019
880.3632	-0.1954
880.5239	0.1538
880.6846	-0.275
880.8452	-0
881.0059	-0.7073
881.1665	0.0053
881.3271	-0
881.4877	0.3697
881.6483	-1.1675
881.8088	-0.4514
881.9693	-0
882.1298	-0
882.2903	-0
