Data from D4ACN5uM420nmA_Absorbance_14-37-10-123.txt Node
Date: Fri Feb 21 14:37:10 GMT 2025
User: LASERRRRR
Spectrometer: FLMT03099
Trigger mode: 0
Integration Time (sec): 1.500000E-2
Scans to average: 1
Electric dark correction enabled: true
Nonlinearity correction enabled: false
Boxcar width: 0
XAxis mode: Wavelengths
Number of Pixels in Spectrum: 3648
>>>>>Begin Spectral Data<<<<<
179.3399	0.2515
179.5586	0.2515
179.7771	0.2515
179.9957	0.0345
180.2143	-1.3563
180.4329	-0.1503
180.6514	-0
180.8699	0.3876
181.0885	-0
181.307	0.0361
181.5255	0.1329
181.744	-0
181.9625	1.5006
182.181	1.7019
182.3994	-0.6589
182.6179	-0.0961
182.8363	-0
183.0547	0.1467
183.2732	-0.018
183.4916	0.1215
183.71	0.2788
183.9284	0.2518
184.1467	0.3191
184.3651	0.0057
184.5835	0.2013
184.8018	0.1694
185.0201	0.1672
185.2385	0.1938
185.4568	0.2981
185.6751	0.1741
185.8934	0.1557
186.1117	-0.077
186.3299	0.2077
186.5482	0.2441
186.7664	0.1505
186.9847	0.7344
187.2029	0.1899
187.4211	-0.0437
187.6393	0.097
187.8575	0.1622
188.0757	0.5559
188.2939	0.0504
188.512	0.2214
188.7302	0.1616
188.9483	0.3784
189.1665	0.2955
189.3846	0.2794
189.6027	0.0036
189.8208	0.1372
190.0389	0.1524
190.257	0.1626
190.475	0.1525
190.6931	-0.0386
190.9111	0.0647
191.1292	0.1377
191.3472	0.0981
191.5652	0.2135
191.7832	0.4623
192.0012	0.1644
192.2192	0.2406
192.4371	0.1345
192.6551	0.2381
192.873	0.1086
193.091	0.0801
193.3089	0.1305
193.5268	0.2115
193.7447	0.2191
193.9626	0.1229
194.1805	0.1881
194.3984	0.1648
194.6162	0.1152
194.8341	0.3119
195.0519	0.178
195.2697	0.2723
195.4875	0.2434
195.7054	0.2258
195.9231	0.2366
196.1409	0.3092
196.3587	0.3199
196.5765	0.3004
196.7942	0.3274
197.012	0.3183
197.2297	0.2998
197.4474	0.3771
197.6651	0.2865
197.8828	0.3794
198.1005	0.4508
198.3182	0.3755
198.5358	0.3251
198.7535	0.3628
198.9711	0.3741
199.1888	0.3633
199.4064	0.3781
199.624	0.3667
199.8416	0.3772
200.0592	0.3889
200.2767	0.3756
200.4943	0.3735
200.7119	0.402
200.9294	0.3954
201.1469	0.3671
201.3645	0.4424
201.582	0.3962
201.7995	0.4008
202.017	0.3898
202.2344	0.4123
202.4519	0.3848
202.6694	0.3941
202.8868	0.3765
203.1042	0.4078
203.3217	0.3722
203.5391	0.424
203.7565	0.3416
203.9739	0.3427
204.1913	0.3351
204.4086	0.3449
204.626	0.3253
204.8433	0.3596
205.0607	0.3254
205.278	0.3069
205.4953	0.327
205.7126	0.3056
205.9299	0.3194
206.1472	0.3205
206.3644	0.3337
206.5817	0.2827
206.7989	0.3152
207.0162	0.2816
207.2334	0.32
207.4506	0.2965
207.6678	0.2966
207.885	0.2928
208.1022	0.3182
208.3194	0.3074
208.5365	0.2996
208.7537	0.2902
208.9708	0.2622
209.1879	0.2691
209.405	0.2775
209.6222	0.2862
209.8392	0.3052
210.0563	0.2586
210.2734	0.2708
210.4905	0.2552
210.7075	0.2597
210.9245	0.2596
211.1416	0.2563
211.3586	0.2518
211.5756	0.2317
211.7926	0.2591
212.0096	0.2506
212.2265	0.2527
212.4435	0.2513
212.6604	0.2392
212.8774	0.2267
213.0943	0.2459
213.3112	0.2361
213.5281	0.2187
213.745	0.2328
213.9619	0.2387
214.1788	0.2497
214.3956	0.2549
214.6125	0.2495
214.8293	0.2249
215.0461	0.2339
215.2629	0.2241
215.4798	0.235
215.6965	0.2331
215.9133	0.2373
216.1301	0.2357
216.3469	0.218
216.5636	0.2255
216.7803	0.2343
216.9971	0.2505
217.2138	0.2376
217.4305	0.2363
217.6472	0.2329
217.8639	0.2298
218.0805	0.2474
218.2972	0.2304
218.5138	0.2506
218.7305	0.2389
218.9471	0.2255
219.1637	0.2562
219.3803	0.2426
219.5969	0.2226
219.8135	0.2402
220.0301	0.2431
220.2466	0.2566
220.4632	0.2437
220.6797	0.2486
220.8962	0.2495
221.1127	0.2622
221.3292	0.2654
221.5457	0.2734
221.7622	0.2577
221.9787	0.272
222.1951	0.2559
222.4116	0.2787
222.628	0.2838
222.8444	0.2612
223.0608	0.2685
223.2772	0.2664
223.4936	0.2671
223.71	0.2782
223.9264	0.2834
224.1427	0.2804
224.3591	0.2795
224.5754	0.2858
224.7917	0.292
225.008	0.2857
225.2243	0.2975
225.4406	0.287
225.6569	0.2962
225.8732	0.3022
226.0894	0.2908
226.3057	0.3038
226.5219	0.2997
226.7381	0.3129
226.9543	0.3226
227.1705	0.3085
227.3867	0.3212
227.6029	0.3285
227.8191	0.3373
228.0352	0.337
228.2513	0.3455
228.4675	0.3421
228.6836	0.3314
228.8997	0.3359
229.1158	0.3485
229.3319	0.356
229.548	0.3602
229.764	0.3507
229.9801	0.3873
230.1961	0.3667
230.4121	0.3705
230.6282	0.3751
230.8442	0.3913
231.0602	0.3899
231.2761	0.3837
231.4921	0.3886
231.7081	0.4042
231.924	0.4
232.14	0.3942
232.3559	0.3955
232.5718	0.4197
232.7877	0.4168
233.0036	0.4118
233.2195	0.4248
233.4353	0.4247
233.6512	0.4207
233.867	0.4271
234.0829	0.4361
234.2987	0.4365
234.5145	0.4448
234.7303	0.4366
234.9461	0.4445
235.1619	0.4444
235.3776	0.4369
235.5934	0.4306
235.8091	0.4458
236.0249	0.4537
236.2406	0.4432
236.4563	0.4486
236.672	0.4533
236.8877	0.4558
237.1034	0.4414
237.319	0.4489
237.5347	0.4476
237.7503	0.4488
237.966	0.4551
238.1816	0.4544
238.3972	0.4539
238.6128	0.4635
238.8284	0.4648
239.0439	0.459
239.2595	0.4589
239.475	0.4563
239.6906	0.4502
239.9061	0.463
240.1216	0.4596
240.3371	0.4646
240.5526	0.4528
240.7681	0.4607
240.9836	0.4739
241.199	0.4504
241.4145	0.4568
241.6299	0.454
241.8453	0.4455
242.0607	0.4377
242.2761	0.446
242.4915	0.4369
242.7069	0.4266
242.9223	0.4271
243.1376	0.4276
243.353	0.4158
243.5683	0.415
243.7836	0.4043
243.9989	0.3973
244.2142	0.3962
244.4295	0.3886
244.6448	0.3838
244.86	0.3782
245.0753	0.3649
245.2905	0.3515
245.5057	0.3515
245.721	0.3569
245.9362	0.3495
246.1514	0.3379
246.3665	0.3312
246.5817	0.3187
246.7969	0.3139
247.012	0.2997
247.2271	0.306
247.4423	0.3059
247.6574	0.2935
247.8725	0.2904
248.0876	0.2826
248.3026	0.2763
248.5177	0.2657
248.7328	0.2594
248.9478	0.2607
249.1628	0.2586
249.3779	0.2494
249.5929	0.2469
249.8079	0.2389
250.0228	0.239
250.2378	0.2379
250.4528	0.2353
250.6677	0.2333
250.8827	0.2232
251.0976	0.2214
251.3125	0.2189
251.5274	0.2191
251.7423	0.2113
251.9572	0.2065
252.172	0.2067
252.3869	0.2096
252.6017	0.2049
252.8166	0.2029
253.0314	0.1978
253.2462	0.2033
253.461	0.1925
253.6758	0.194
253.8906	0.1998
254.1053	0.1986
254.3201	0.1959
254.5348	0.1901
254.7496	0.1882
254.9643	0.1924
255.179	0.1901
255.3937	0.1894
255.6083	0.1921
255.823	0.1896
256.0377	0.1881
256.2523	0.1895
256.467	0.1867
256.6816	0.1807
256.8962	0.1841
257.1108	0.1887
257.3254	0.1832
257.54	0.1799
257.7545	0.1919
257.9691	0.1859
258.1836	0.1784
258.3981	0.1849
258.6127	0.1742
258.8272	0.1836
259.0417	0.1778
259.2561	0.1832
259.4706	0.1797
259.6851	0.1841
259.8995	0.1842
260.114	0.18
260.3284	0.1858
260.5428	0.1823
260.7572	0.1817
260.9716	0.1843
261.186	0.1839
261.4003	0.1782
261.6147	0.1788
261.829	0.1913
262.0433	0.1851
262.2577	0.1856
262.472	0.1886
262.6863	0.1897
262.9005	0.1873
263.1148	0.1904
263.3291	0.1901
263.5433	0.1915
263.7576	0.1937
263.9718	0.1904
264.186	0.1977
264.4002	0.1978
264.6144	0.2026
264.8286	0.1987
265.0427	0.2003
265.2569	0.1931
265.471	0.1986
265.6851	0.1988
265.8993	0.1956
266.1134	0.2017
266.3275	0.1991
266.5415	0.1997
266.7556	0.2062
266.9697	0.2053
267.1837	0.2043
267.3978	0.2059
267.6118	0.2017
267.8258	0.2027
268.0398	0.2069
268.2538	0.2034
268.4677	0.1975
268.6817	0.1961
268.8957	0.1967
269.1096	0.1945
269.3235	0.1991
269.5374	0.2067
269.7514	0.2021
269.9652	0.2013
270.1791	0.1962
270.393	0.1965
270.6068	0.2008
270.8207	0.192
271.0345	0.1938
271.2483	0.1882
271.4622	0.1987
271.676	0.1954
271.8897	0.1985
272.1035	0.2047
272.3173	0.195
272.531	0.2008
272.7448	0.198
272.9585	0.1963
273.1722	0.1964
273.3859	0.2081
273.5996	0.2
273.8133	0.2065
274.0269	0.201
274.2406	0.2097
274.4542	0.2084
274.6679	0.2082
274.8815	0.2054
275.0951	0.213
275.3087	0.2209
275.5223	0.2135
275.7358	0.2149
275.9494	0.2195
276.1629	0.2157
276.3765	0.223
276.59	0.2133
276.8035	0.2193
277.017	0.2207
277.2305	0.2189
277.444	0.2221
277.6574	0.2212
277.8709	0.2269
278.0843	0.2209
278.2978	0.2275
278.5112	0.2196
278.7246	0.2164
278.938	0.2221
279.1513	0.2136
279.3647	0.2184
279.5781	0.2143
279.7914	0.2141
280.0047	0.2164
280.2181	0.2143
280.4314	0.2116
280.6447	0.2114
280.8579	0.199
281.0712	0.206
281.2845	0.2054
281.4977	0.2061
281.711	0.2003
281.9242	0.2056
282.1374	0.204
282.3506	0.2023
282.5638	0.1986
282.7769	0.1968
282.9901	0.1995
283.2033	0.1993
283.4164	0.1952
283.6295	0.1947
283.8426	0.1927
284.0557	0.2004
284.2688	0.1923
284.4819	0.1875
284.695	0.1944
284.908	0.1871
285.1211	0.1963
285.3341	0.183
285.5471	0.1921
285.7601	0.1952
285.9731	0.1963
286.1861	0.192
286.3991	0.1935
286.612	0.1864
286.825	0.1895
287.0379	0.1839
287.2508	0.1911
287.4637	0.187
287.6766	0.1904
287.8895	0.1889
288.1024	0.1941
288.3152	0.1914
288.5281	0.1841
288.7409	0.1902
288.9538	0.1877
289.1666	0.1894
289.3794	0.185
289.5922	0.1815
289.8049	0.1812
290.0177	0.1896
290.2304	0.1849
290.4432	0.1838
290.6559	0.1851
290.8686	0.1889
291.0813	0.1825
291.294	0.184
291.5067	0.1782
291.7194	0.1825
291.932	0.1861
292.1447	0.1788
292.3573	0.1835
292.5699	0.1853
292.7825	0.1766
292.9951	0.1843
293.2077	0.1798
293.4203	0.1789
293.6328	0.1767
293.8454	0.1789
294.0579	0.185
294.2704	0.1866
294.4829	0.1777
294.6954	0.1858
294.9079	0.1803
295.1204	0.1835
295.3328	0.1852
295.5453	0.1862
295.7577	0.1794
295.9701	0.1849
296.1825	0.1866
296.3949	0.1807
296.6073	0.1768
296.8197	0.1825
297.0321	0.1817
297.2444	0.1776
297.4567	0.1889
297.6691	0.1808
297.8814	0.1855
298.0937	0.1866
298.306	0.1834
298.5182	0.1843
298.7305	0.1805
298.9428	0.1832
299.155	0.1801
299.3672	0.1757
299.5794	0.1804
299.7916	0.1828
300.0038	0.1844
300.216	0.1775
300.4282	0.1803
300.6403	0.1906
300.8525	0.181
301.0646	0.1846
301.2767	0.1873
301.4888	0.1802
301.7009	0.1857
301.913	0.1852
302.125	0.1823
302.3371	0.1839
302.5491	0.1827
302.7612	0.1896
302.9732	0.1885
303.1852	0.187
303.3972	0.1921
303.6092	0.1854
303.8211	0.1849
304.0331	0.1846
304.245	0.1859
304.457	0.1849
304.6689	0.1822
304.8808	0.186
305.0927	0.1872
305.3046	0.1813
305.5164	0.1784
305.7283	0.1802
305.9401	0.1733
306.152	0.1791
306.3638	0.1781
306.5756	0.1823
306.7874	0.1729
306.9992	0.1717
307.2109	0.1757
307.4227	0.1692
307.6344	0.1765
307.8462	0.1699
308.0579	0.1747
308.2696	0.172
308.4813	0.1689
308.693	0.1694
308.9046	0.1701
309.1163	0.1632
309.328	0.1632
309.5396	0.1594
309.7512	0.1619
309.9628	0.1625
310.1744	0.1581
310.386	0.1527
310.5976	0.1553
310.8091	0.1565
311.0207	0.1559
311.2322	0.1566
311.4437	0.1552
311.6552	0.1587
311.8667	0.1563
312.0782	0.1518
312.2897	0.1554
312.5012	0.1487
312.7126	0.1489
312.924	0.1542
313.1355	0.1521
313.3469	0.1488
313.5583	0.1469
313.7696	0.1511
313.981	0.1528
314.1924	0.1423
314.4037	0.1487
314.6151	0.1443
314.8264	0.1568
315.0377	0.1535
315.249	0.1517
315.4603	0.1504
315.6716	0.153
315.8828	0.1497
316.0941	0.149
316.3053	0.1458
316.5165	0.1529
316.7277	0.1425
316.9389	0.1452
317.1501	0.1497
317.3613	0.151
317.5724	0.1441
317.7836	0.1476
317.9947	0.1463
318.2058	0.1402
318.417	0.1479
318.6281	0.1395
318.8391	0.1486
319.0502	0.1451
319.2613	0.1406
319.4723	0.1432
319.6834	0.1455
319.8944	0.143
320.1054	0.1449
320.3164	0.1368
320.5274	0.143
320.7383	0.1438
320.9493	0.1412
321.1602	0.1399
321.3712	0.1429
321.5821	0.1429
321.793	0.1503
322.0039	0.1425
322.2148	0.146
322.4257	0.1411
322.6365	0.1377
322.8474	0.1482
323.0582	0.1459
323.269	0.1495
323.4798	0.1452
323.6906	0.1455
323.9014	0.1395
324.1122	0.149
324.3229	0.1495
324.5337	0.1449
324.7444	0.1491
324.9551	0.1497
325.1658	0.149
325.3765	0.1527
325.5872	0.1528
325.7979	0.1522
326.0085	0.1481
326.2192	0.1498
326.4298	0.1558
326.6404	0.1621
326.851	0.1507
327.0616	0.1483
327.2722	0.1579
327.4828	0.1627
327.6933	0.1624
327.9039	0.1537
328.1144	0.1547
328.3249	0.1608
328.5354	0.1545
328.7459	0.1575
328.9564	0.162
329.1669	0.1649
329.3773	0.1625
329.5878	0.1658
329.7982	0.1638
330.0086	0.1666
330.219	0.161
330.4294	0.1663
330.6398	0.1695
330.8502	0.167
331.0605	0.1629
331.2708	0.1628
331.4812	0.1617
331.6915	0.1691
331.9018	0.1656
332.1121	0.174
332.3224	0.1667
332.5326	0.1663
332.7429	0.1682
332.9531	0.164
333.1633	0.1662
333.3735	0.1649
333.5837	0.1681
333.7939	0.1707
334.0041	0.1719
334.2143	0.1628
334.4244	0.1709
334.6346	0.1653
334.8447	0.1652
335.0548	0.1637
335.2649	0.1672
335.475	0.1675
335.685	0.1542
335.8951	0.1619
336.1051	0.165
336.3152	0.165
336.5252	0.1563
336.7352	0.1559
336.9452	0.159
337.1552	0.1561
337.3652	0.1587
337.5751	0.156
337.7851	0.1592
337.995	0.1631
338.2049	0.1613
338.4148	0.1611
338.6247	0.1624
338.8346	0.1649
339.0445	0.1628
339.2543	0.1668
339.4642	0.1568
339.674	0.1551
339.8838	0.1625
340.0936	0.167
340.3034	0.164
340.5132	0.1561
340.7229	0.1624
340.9327	0.1735
341.1424	0.163
341.3522	0.1583
341.5619	0.1622
341.7716	0.1701
341.9813	0.1661
342.1909	0.1704
342.4006	0.1608
342.6102	0.166
342.8199	0.1685
343.0295	0.1642
343.2391	0.1733
343.4487	0.1753
343.6583	0.1809
343.8679	0.1727
344.0774	0.17
344.287	0.1697
344.4965	0.1805
344.706	0.1844
344.9155	0.1817
345.125	0.1791
345.3345	0.1868
345.544	0.1782
345.7534	0.1894
345.9629	0.1849
346.1723	0.1878
346.3817	0.1925
346.5911	0.1918
346.8005	0.1903
347.0099	0.1832
347.2193	0.1918
347.4286	0.1993
347.638	0.1969
347.8473	0.1946
348.0566	0.1894
348.2659	0.1916
348.4752	0.1993
348.6845	0.191
348.8937	0.1943
349.103	0.1932
349.3122	0.1933
349.5214	0.1949
349.7306	0.1995
349.9398	0.1966
350.149	0.1903
350.3582	0.2038
350.5674	0.1967
350.7765	0.201
350.9856	0.2021
351.1948	0.2026
351.4039	0.2002
351.613	0.2001
351.822	0.2003
352.0311	0.1995
352.2402	0.1899
352.4492	0.1971
352.6582	0.1946
352.8672	0.1992
353.0762	0.1937
353.2852	0.1932
353.4942	0.1919
353.7032	0.1884
353.9121	0.191
354.1211	0.1927
354.33	0.199
354.5389	0.1885
354.7478	0.1893
354.9567	0.1895
355.1655	0.1859
355.3744	0.1868
355.5833	0.1834
355.7921	0.1901
356.0009	0.1902
356.2097	0.1888
356.4185	0.1853
356.6273	0.1882
356.8361	0.1869
357.0448	0.1882
357.2536	0.1875
357.4623	0.1813
357.671	0.1863
357.8797	0.1902
358.0884	0.1857
358.2971	0.1827
358.5057	0.1934
358.7144	0.1906
358.923	0.1929
359.1316	0.1929
359.3402	0.1885
359.5488	0.1857
359.7574	0.1927
359.966	0.185
360.1746	0.1873
360.3831	0.191
360.5916	0.1973
360.8002	0.1939
361.0087	0.1863
361.2172	0.1882
361.4256	0.1901
361.6341	0.1954
361.8426	0.1929
362.051	0.1993
362.2594	0.1893
362.4678	0.1945
362.6762	0.1936
362.8846	0.1917
363.093	0.1928
363.3014	0.2023
363.5097	0.2011
363.718	0.2002
363.9264	0.2019
364.1347	0.1982
364.343	0.1965
364.5513	0.1972
364.7595	0.203
364.9678	0.1962
365.176	0.2043
365.3842	0.203
365.5925	0.2051
365.8007	0.2039
366.0089	0.2108
366.217	0.2045
366.4252	0.2026
366.6333	0.2022
366.8415	0.2034
367.0496	0.2028
367.2577	0.2053
367.4658	0.1953
367.6739	0.204
367.882	0.2157
368.09	0.2025
368.2981	0.2156
368.5061	0.2071
368.7141	0.2035
368.9221	0.2136
369.1301	0.2166
369.3381	0.219
369.5461	0.2168
369.754	0.2159
369.962	0.2157
370.1699	0.2194
370.3778	0.2184
370.5857	0.2166
370.7936	0.2197
371.0015	0.2158
371.2093	0.2136
371.4172	0.217
371.625	0.2179
371.8328	0.2082
372.0406	0.2183
372.2484	0.2177
372.4562	0.2195
372.664	0.2171
372.8717	0.2185
373.0795	0.2313
373.2872	0.231
373.4949	0.2245
373.7026	0.2171
373.9103	0.215
374.118	0.221
374.3256	0.2295
374.5333	0.2275
374.7409	0.2233
374.9485	0.218
375.1561	0.2325
375.3637	0.2228
375.5713	0.2308
375.7789	0.2262
375.9864	0.2325
376.194	0.234
376.4015	0.2288
376.609	0.2288
376.8165	0.2278
377.024	0.2285
377.2315	0.2302
377.4389	0.2368
377.6464	0.2409
377.8538	0.2342
378.0612	0.2313
378.2686	0.2326
378.476	0.2458
378.6834	0.2313
378.8908	0.2376
379.0981	0.2406
379.3055	0.2359
379.5128	0.2342
379.7201	0.2351
379.9274	0.2352
380.1347	0.2359
380.342	0.2458
380.5492	0.2425
380.7565	0.2394
380.9637	0.2407
381.1709	0.2377
381.3781	0.2507
381.5853	0.2298
381.7925	0.235
381.9997	0.2395
382.2068	0.2405
382.4139	0.2347
382.6211	0.2411
382.8282	0.2546
383.0353	0.2565
383.2424	0.2428
383.4494	0.236
383.6565	0.2528
383.8635	0.2458
384.0706	0.2422
384.2776	0.249
384.4846	0.2512
384.6916	0.2415
384.8986	0.2479
385.1055	0.2442
385.3125	0.2544
385.5194	0.2453
385.7263	0.2503
385.9333	0.2523
386.1402	0.2399
386.347	0.2366
386.5539	0.2396
386.7608	0.2372
386.9676	0.2552
387.1744	0.2401
387.3813	0.246
387.5881	0.2337
387.7948	0.2464
388.0016	0.2503
388.2084	0.2452
388.4151	0.2413
388.6219	0.2404
388.8286	0.2449
389.0353	0.2364
389.242	0.2388
389.4487	0.2369
389.6553	0.2261
389.862	0.2392
390.0686	0.2402
390.2753	0.2363
390.4819	0.2381
390.6885	0.237
390.8951	0.2375
391.1016	0.2377
391.3082	0.2433
391.5147	0.2323
391.7213	0.235
391.9278	0.2245
392.1343	0.2324
392.3408	0.228
392.5473	0.2299
392.7537	0.227
392.9602	0.2242
393.1666	0.2319
393.373	0.2241
393.5794	0.2251
393.7858	0.2268
393.9922	0.2215
394.1986	0.2218
394.4049	0.2269
394.6113	0.2219
394.8176	0.2118
395.0239	0.2129
395.2302	0.2211
395.4365	0.2202
395.6428	0.2147
395.8491	0.2184
396.0553	0.21
396.2615	0.2251
396.4678	0.2173
396.674	0.2091
396.8802	0.2168
397.0863	0.2037
397.2925	0.2114
397.4987	0.2119
397.7048	0.2105
397.9109	0.2017
398.117	0.2165
398.3231	0.2084
398.5292	0.2008
398.7353	0.2007
398.9413	0.2082
399.1474	0.212
399.3534	0.2053
399.5594	0.2048
399.7654	0.2062
399.9714	0.2062
400.1774	0.2077
400.3833	0.2048
400.5893	0.2113
400.7952	0.2101
401.0011	0.2047
401.207	0.2035
401.4129	0.203
401.6188	0.1999
401.8247	0.2078
402.0305	0.1986
402.2364	0.2046
402.4422	0.2078
402.648	0.2079
402.8538	0.1942
403.0596	0.1987
403.2654	0.2018
403.4711	0.1968
403.6768	0.2089
403.8826	0.2012
404.0883	0.207
404.294	0.2068
404.4997	0.2088
404.7054	0.2085
404.911	0.1997
405.1167	0.2084
405.3223	0.204
405.5279	0.2092
405.7335	0.2118
405.9391	0.1986
406.1447	0.2085
406.3502	0.2031
406.5558	0.2036
406.7613	0.2041
406.9668	0.2012
407.1724	0.1982
407.3778	0.2143
407.5833	0.1973
407.7888	0.202
407.9942	0.2016
408.1997	0.2015
408.4051	0.204
408.6105	0.2102
408.8159	0.2013
409.0213	0.2001
409.2267	0.2027
409.432	0.193
409.6374	0.2105
409.8427	0.2014
410.048	0.2124
410.2533	0.1946
410.4586	0.1946
410.6639	0.2117
410.8691	0.2034
411.0744	0.1983
411.2796	0.2119
411.4848	0.2053
411.69	0.1942
411.8952	0.2027
412.1004	0.2126
412.3056	0.1943
412.5107	0.1974
412.7158	0.2061
412.921	0.2034
413.1261	0.1979
413.3312	0.2034
413.5362	0.2089
413.7413	0.1984
413.9464	0.1912
414.1514	0.1987
414.3564	0.1883
414.5614	0.1925
414.7664	0.193
414.9714	0.1905
415.1764	0.1992
415.3813	0.1967
415.5863	0.2007
415.7912	0.1983
415.9961	0.1935
416.201	0.1925
416.4059	0.1979
416.6108	0.198
416.8156	0.1939
417.0205	0.2026
417.2253	0.1892
417.4301	0.2024
417.6349	0.1953
417.8397	0.191
418.0445	0.1975
418.2492	0.1863
418.454	0.1864
418.6587	0.1934
418.8634	0.1992
419.0681	0.2003
419.2728	0.1865
419.4775	0.1986
419.6822	0.1901
419.8868	0.1851
420.0915	0.1866
420.2961	0.1876
420.5007	0.1839
420.7053	0.1821
420.9099	0.1882
421.1144	0.1834
421.319	0.189
421.5235	0.175
421.728	0.1916
421.9325	0.1881
422.137	0.1828
422.3415	0.1779
422.546	0.1727
422.7504	0.1794
422.9549	0.1945
423.1593	0.1749
423.3637	0.1822
423.5681	0.1841
423.7725	0.1761
423.9769	0.1777
424.1812	0.1707
424.3856	0.1683
424.5899	0.1756
424.7942	0.1705
424.9985	0.1776
425.2028	0.1721
425.4071	0.1774
425.6113	0.1746
425.8156	0.1677
426.0198	0.1759
426.224	0.1618
426.4282	0.1682
426.6324	0.1666
426.8366	0.1637
427.0407	0.1645
427.2449	0.1594
427.449	0.1648
427.6531	0.1768
427.8572	0.1615
428.0613	0.172
428.2654	0.1739
428.4694	0.1612
428.6735	0.1611
428.8775	0.1577
429.0815	0.162
429.2855	0.1581
429.4895	0.1593
429.6935	0.1548
429.8975	0.1437
430.1014	0.1533
430.3053	0.1517
430.5093	0.1479
430.7132	0.1468
430.9171	0.1451
431.1209	0.1553
431.3248	0.1336
431.5286	0.1406
431.7325	0.1463
431.9363	0.1371
432.1401	0.1338
432.3439	0.1482
432.5477	0.1332
432.7514	0.1281
432.9552	0.1388
433.1589	0.1274
433.3627	0.1336
433.5664	0.1261
433.7701	0.127
433.9737	0.1333
434.1774	0.13
434.3811	0.1262
434.5847	0.1177
434.7883	0.1244
434.9919	0.1174
435.1955	0.1232
435.3991	0.1243
435.6027	0.1217
435.8062	0.1353
436.0098	0.1181
436.2133	0.118
436.4168	0.1095
436.6203	0.1131
436.8238	0.1042
437.0272	0.1122
437.2307	0.1046
437.4341	0.1029
437.6375	0.1052
437.841	0.097
438.0443	0.1056
438.2477	0.1009
438.4511	0.0964
438.6545	0.1053
438.8578	0.1038
439.0611	0.1041
439.2644	0.1012
439.4677	0.0946
439.671	0.0894
439.8743	0.0915
440.0775	0.0855
440.2808	0.0903
440.484	0.0897
440.6872	0.0876
440.8904	0.0791
441.0936	0.0876
441.2967	0.0741
441.4999	0.0824
441.703	0.0789
441.9062	0.0828
442.1093	0.0888
442.3124	0.0754
442.5155	0.0769
442.7185	0.0745
442.9216	0.0694
443.1246	0.0718
443.3276	0.0764
443.5307	0.0734
443.7337	0.0754
443.9366	0.0677
444.1396	0.0631
444.3426	0.0628
444.5455	0.0694
444.7484	0.0657
444.9513	0.0662
445.1542	0.0615
445.3571	0.0668
445.56	0.0506
445.7628	0.0632
445.9657	0.0559
446.1685	0.0599
446.3713	0.0615
446.5741	0.0635
446.7769	0.0631
446.9797	0.0512
447.1824	0.0587
447.3852	0.0444
447.5879	0.0652
447.7906	0.0464
447.9933	0.0524
448.196	0.0477
448.3986	0.0481
448.6013	0.0423
448.8039	0.0467
449.0066	0.0511
449.2092	0.0584
449.4118	0.0395
449.6143	0.0446
449.8169	0.0427
450.0195	0.0411
450.222	0.0461
450.4245	0.0441
450.627	0.0422
450.8295	0.0385
451.032	0.0405
451.2345	0.035
451.4369	0.0353
451.6394	0.0242
451.8418	0.0482
452.0442	0.0391
452.2466	0.0295
452.449	0.0343
452.6513	0.0314
452.8537	0.0381
453.056	0.0252
453.2583	0.0193
453.4607	0.0258
453.663	0.0317
453.8652	0.0294
454.0675	0.0341
454.2697	0.025
454.472	0.0314
454.6742	0.0334
454.8764	0.0266
455.0786	0.0292
455.2808	0.0278
455.4829	0.0296
455.6851	0.0224
455.8872	0.0206
456.0893	0.0278
456.2915	0.0268
456.4935	0.0336
456.6956	0.0246
456.8977	0.0201
457.0997	0.0356
457.3018	0.0163
457.5038	0.0283
457.7058	0.0249
457.9078	0.0245
458.1098	0.03
458.3117	0.0248
458.5137	0.0197
458.7156	0.0127
458.9175	0.0238
459.1194	0.0168
459.3213	0.0187
459.5232	0.0222
459.725	0.0242
459.9269	0.0246
460.1287	0.0175
460.3305	0.0216
460.5323	0.0206
460.7341	0.028
460.9359	0.0059
461.1376	0.0245
461.3394	0.025
461.5411	0.0286
461.7428	0.0134
461.9445	0.0151
462.1462	0.0179
462.3479	0.015
462.5495	0.0194
462.7512	0.0213
462.9528	0.0126
463.1544	0.0117
463.356	0.0036
463.5576	0.0228
463.7592	0.0167
463.9607	0.012
464.1623	0.0077
464.3638	0.0091
464.5653	0.0115
464.7668	0.018
464.9683	0.0169
465.1697	0.0134
465.3712	0.006
465.5726	0.0151
465.7741	0.023
465.9755	0.0211
466.1769	0.0078
466.3782	0.0174
466.5796	0.0162
466.7809	0.0171
466.9823	0.0143
467.1836	0.0117
467.3849	0.0133
467.5862	0.0029
467.7875	0.0044
467.9887	0.0145
468.19	0.0069
468.3912	0.0175
468.5924	-0.0008
468.7936	0.0148
468.9948	0.0091
469.196	0.0052
469.3972	0.0031
469.5983	0.014
469.7994	0.0208
470.0006	0.0141
470.2017	0.0127
470.4027	0.0228
470.6038	0.0126
470.8049	0.0157
471.0059	0.0075
471.2069	0.0163
471.408	0.0202
471.6089	0.0184
471.8099	0.0229
472.0109	0.0147
472.2119	0.0126
472.4128	-0.0013
472.6137	0.0099
472.8146	0.0077
473.0155	0.0191
473.2164	0.0106
473.4173	0.0092
473.6181	0.0016
473.819	0.0088
474.0198	0.0029
474.2206	0.0026
474.4214	0.0125
474.6222	0.0017
474.8229	0.0057
475.0237	0.0151
475.2244	-0.0012
475.4251	0.0064
475.6258	0.0034
475.8265	0.0106
476.0272	0.0113
476.2278	0.017
476.4285	0.0064
476.6291	0.0149
476.8297	0.0132
477.0303	0.0041
477.2309	0.0101
477.4315	0.0113
477.632	0.006
477.8326	0.0074
478.0331	0.0169
478.2336	0.0076
478.4341	0.0156
478.6346	0.0081
478.8351	0.0071
479.0355	0.0138
479.236	0.0159
479.4364	0.014
479.6368	0.0103
479.8372	0.0105
480.0376	0.0096
480.2379	0.0116
480.4383	0.0191
480.6386	0.0066
480.8389	0.0123
481.0392	0.0098
481.2395	0.0196
481.4398	0.0102
481.6401	0.0144
481.8403	0.0017
482.0405	0.0052
482.2408	0.0073
482.441	0.0161
482.6411	0.0147
482.8413	0.0096
483.0415	0.0153
483.2416	0.0072
483.4417	0.003
483.6419	0.0107
483.8419	0.0101
484.042	0.0123
484.2421	0.0069
484.4422	0.0028
484.6422	0.0045
484.8422	0.0086
485.0422	0.0111
485.2422	0.006
485.4422	0.0076
485.6422	0.0073
485.8421	0.0071
486.042	0.0145
486.242	0.0046
486.4419	0.0089
486.6417	0.0073
486.8416	0.0126
487.0415	0.009
487.2413	0.0044
487.4411	0.0138
487.641	0.0101
487.8408	0.014
488.0405	0.0176
488.2403	0.0039
488.4401	0.0078
488.6398	0.0173
488.8395	0.0203
489.0392	0.0128
489.2389	0.0131
489.4386	-0.0009
489.6383	0.0184
489.8379	-0.0006
490.0376	0.0044
490.2372	0.0047
490.4368	0.0059
490.6364	0.006
490.836	0.0125
491.0355	0.005
491.2351	0.0004
491.4346	0.0142
491.6341	0.0074
491.8336	0.0161
492.0331	0.0089
492.2326	0.0105
492.432	0.0098
492.6315	0.0088
492.8309	0.011
493.0303	0.0092
493.2297	0.0135
493.4291	0.0075
493.6284	0.0178
493.8278	0.0079
494.0271	0.018
494.2264	0.0046
494.4257	0.0147
494.625	0.0105
494.8243	0.0073
495.0236	0.015
495.2228	0.0117
495.422	0.0047
495.6213	0.0104
495.8205	0.0061
496.0196	0.0093
496.2188	0.0137
496.418	0.0045
496.6171	0.0048
496.8162	0.0117
497.0153	0.0181
497.2144	0.0215
497.4135	0.0101
497.6126	0.0045
497.8116	0.0051
498.0107	0.0086
498.2097	0.0093
498.4087	0.0073
498.6077	0.0018
498.8067	0.0118
499.0056	0.0042
499.2046	0.0146
499.4035	0.0075
499.6024	0.0032
499.8013	0.0089
500.0002	0.0079
500.199	0.0145
500.3979	0.0051
500.5967	0.0076
500.7956	0.0103
500.9944	0.0054
501.1932	0.0122
501.3919	0.016
501.5907	0.0164
501.7895	0.0055
501.9882	0.0106
502.1869	0.0139
502.3856	0.0039
502.5843	0.0055
502.783	0.0066
502.9816	0.0085
503.1803	0.0099
503.3789	0.0133
503.5775	0.0051
503.7761	0.0083
503.9747	0.0064
504.1732	0.0083
504.3718	0.0169
504.5703	0.0074
504.7689	0.0034
504.9674	0.0107
505.1658	0.008
505.3643	0.0152
505.5628	0.0149
505.7612	0.0098
505.9597	0.0001
506.1581	0.0091
506.3565	0.006
506.5549	0.0142
506.7532	0.0005
506.9516	0.0081
507.1499	0.0081
507.3482	0.0038
507.5465	0.0131
507.7448	0.0143
507.9431	0.0154
508.1414	0.0062
508.3396	0.0067
508.5379	0.0088
508.7361	0.0155
508.9343	0.0095
509.1325	0.0092
509.3306	0.0065
509.5288	-0.0002
509.7269	0.0128
509.9251	0.0153
510.1232	0.013
510.3213	0.0084
510.5193	0.0071
510.7174	-0.0037
510.9154	0.0084
511.1135	0.006
511.3115	0.0008
511.5095	0.0085
511.7075	0.012
511.9055	0.0086
512.1034	0.0103
512.3014	0.0099
512.4993	0.0137
512.6972	0.015
512.8951	0.0064
513.093	0.0078
513.2908	0.0249
513.4887	0.0145
513.6865	0.0075
513.8844	0.0138
514.0822	0.0105
514.2799	0.0006
514.4777	-0.0015
514.6755	0.0064
514.8732	0.0083
515.0709	0.0051
515.2687	0.007
515.4664	0.0143
515.664	0.0149
515.8617	0.0136
516.0594	0.0105
516.257	0.0083
516.4546	0.0173
516.6522	0.0125
516.8498	0.0063
517.0474	0.0154
517.2449	0.0123
517.4425	0.0148
517.64	0.0124
517.8375	0.0161
518.035	0.015
518.2325	0.0054
518.43	0.0114
518.6274	0.0076
518.8249	0.002
519.0223	0.018
519.2197	0.0103
519.4171	0.0015
519.6145	0.0189
519.8118	0.0037
520.0092	-0.0027
520.2065	0.0111
520.4038	0.0057
520.6011	0.0174
520.7984	0.0151
520.9956	0.0182
521.1929	0.0201
521.3901	0.018
521.5874	0.0108
521.7846	0.0058
521.9818	0.0166
522.1789	0.0079
522.3761	0.0154
522.5732	0.0111
522.7704	-0.0089
522.9675	0.0001
523.1646	0.0081
523.3617	0.0135
523.5587	0.003
523.7558	0.0124
523.9528	0.0118
524.1498	0.0053
524.3468	0.0113
524.5438	0.0131
524.7408	0.0175
524.9378	0.0103
525.1347	0.0159
525.3316	0.0058
525.5285	0.0112
525.7254	0.013
525.9223	0.0162
526.1192	0.0132
526.316	0.0175
526.5129	0.0042
526.7097	0.0053
526.9065	0.011
527.1033	0.0115
527.3	0.008
527.4968	0.0117
527.6935	-0.0012
527.8903	0.0094
528.087	0.0028
528.2837	0.0015
528.4804	0.0097
528.677	0.0163
528.8737	0.0095
529.0703	0.0091
529.2669	0.0112
529.4635	0.0115
529.6601	0.0022
529.8567	0.0066
530.0532	0.0061
530.2498	0.0086
530.4463	-0.0017
530.6428	0.01
530.8393	0.0083
531.0358	0.0104
531.2322	-0.0011
531.4287	0.0146
531.6251	-0.0002
531.8215	0.0073
532.0179	0.013
532.2143	0.0021
532.4107	0.0088
532.607	-0.0028
532.8034	0.0053
532.9997	0.0082
533.196	0.0025
533.3923	0.0055
533.5886	0.0157
533.7848	0.0064
533.9811	0.0137
534.1773	0.0119
534.3735	0.0179
534.5697	0.0048
534.7659	0.0092
534.9621	0.0118
535.1582	0.0151
535.3544	0.013
535.5505	0.0082
535.7466	0.0194
535.9427	0.0098
536.1387	0.0021
536.3348	0.0082
536.5308	0.0049
536.7269	-0.0016
536.9229	0.0145
537.1189	0.0214
537.3148	-0.0018
537.5108	0.0137
537.7068	0.0151
537.9027	-0.0065
538.0986	0.0161
538.2945	0.0025
538.4904	0.0065
538.6863	0.0034
538.8821	0.0157
539.078	0.005
539.2738	0.0024
539.4696	0.0146
539.6654	0.0101
539.8611	0.0072
540.0569	0.0143
540.2526	0.0052
540.4484	0.004
540.6441	0.0167
540.8398	0.0119
541.0355	-0.0061
541.2311	0.0043
541.4268	0.0132
541.6224	0.0133
541.818	0.0093
542.0136	0.0146
542.2092	0.0111
542.4048	0.0044
542.6003	0.0093
542.7959	0.008
542.9914	0.013
543.1869	0.0137
543.3824	0.0021
543.5779	0.0108
543.7734	0.0134
543.9688	0.0108
544.1642	0.0101
544.3596	0.0137
544.555	0.0124
544.7504	0.0156
544.9458	0.0122
545.1411	0.0088
545.3365	0.0109
545.5318	0.0055
545.7271	0.0146
545.9224	0.013
546.1177	0.0192
546.3129	0.0128
546.5081	0.0014
546.7034	0.0076
546.8986	0.0122
547.0938	0.01
547.289	0.0049
547.4841	0.0133
547.6793	0.0081
547.8744	0.017
548.0695	0.0041
548.2646	0.0148
548.4597	-0.0038
548.6548	0.0094
548.8498	0.0176
549.0448	0.0047
549.2399	0.0108
549.4349	0.0092
549.6298	0.016
549.8248	0.0036
550.0198	0.0184
550.2147	0.0047
550.4096	0.0089
550.6045	0.0083
550.7994	0.0145
550.9943	0.0205
551.1892	-0.002
551.384	0.0133
551.5788	0.0064
551.7737	0.0139
551.9685	0.0108
552.1632	0.0033
552.358	0.0067
552.5528	0.0066
552.7475	0.0135
552.9422	0.0122
553.1369	0.0209
553.3316	0.0203
553.5263	0.0168
553.7209	-0.0029
553.9156	0.0057
554.1102	0.0061
554.3048	0.0029
554.4994	0.003
554.694	0.0049
554.8885	0.0044
555.0831	0.0064
555.2776	0.0098
555.4721	0.0067
555.6666	0.0048
555.8611	0.0091
556.0555	0.0104
556.25	0.0133
556.4444	-0.0005
556.6388	-0.003
556.8332	0.0147
557.0276	0.0073
557.222	0.0041
557.4163	0.0167
557.6107	0.0061
557.805	-0.0046
557.9993	0.0093
558.1936	0.0004
558.3879	0.0037
558.5821	0
558.7764	0.0072
558.9706	0.0018
559.1648	0.0096
559.359	0.0092
559.5532	0.0036
559.7473	0.0023
559.9415	0.0049
560.1356	0.012
560.3297	0.0058
560.5238	0.0162
560.7179	-0.0014
560.9119	0.0088
561.106	0.0053
561.3	-0.0015
561.494	-0.0072
561.688	0.0052
561.882	0.0086
562.076	0.0072
562.2699	0.0104
562.4639	0.0188
562.6578	0.0085
562.8517	0.0091
563.0456	0.0075
563.2395	0.0121
563.4333	0.0005
563.6272	0.0068
563.821	0.0082
564.0148	0.0077
564.2086	0.0056
564.4024	0.0088
564.5961	0.0088
564.7899	0.0092
564.9836	0.0065
565.1773	0.0169
565.371	0.0047
565.5647	0.0066
565.7584	0.0128
565.952	0.0053
566.1456	0.0049
566.3393	0.0067
566.5329	-0.0019
566.7264	0.0161
566.92	0.0085
567.1136	0.0068
567.3071	0.0021
567.5006	0.009
567.6941	0.0022
567.8876	0.0114
568.0811	0.0251
568.2745	0.0031
568.468	0.0085
568.6614	0.0176
568.8548	0.0085
569.0482	0.0127
569.2416	0.0088
569.4349	0.0079
569.6283	0.0084
569.8216	0.015
570.0149	0.0098
570.2082	0.0123
570.4015	0.0106
570.5947	0.0057
570.788	0.0133
570.9812	0.0035
571.1744	0.0038
571.3676	0.0072
571.5608	0.0054
571.754	0.0127
571.9471	0.0111
572.1402	0.0099
572.3333	0.0091
572.5264	0.0086
572.7195	0.0053
572.9126	0.0087
573.1057	0.0098
573.2987	0.0072
573.4917	0.0092
573.6847	0.0066
573.8777	0.0115
574.0707	0.0096
574.2636	0.0092
574.4566	0.0028
574.6495	0.0073
574.8424	0.0088
575.0353	0.0098
575.2281	0.0138
575.421	0.0017
575.6138	0.0048
575.8067	0.0047
575.9995	0.0116
576.1923	0.0103
576.385	0.0114
576.5778	0.0094
576.7706	0.0081
576.9633	0.0092
577.156	-0.0005
577.3487	0.0069
577.5414	0.0084
577.734	0.0072
577.9267	0.0071
578.1193	0.0109
578.3119	0.0023
578.5045	0.0096
578.6971	0.005
578.8897	0.0083
579.0822	0.0122
579.2747	0.0056
579.4673	0.0086
579.6598	0.0065
579.8522	0.0063
580.0447	0.0116
580.2372	0.0123
580.4296	0.0108
580.622	0.0041
580.8144	0.0049
581.0068	0.0089
581.1992	0.0073
581.3915	0.001
581.5839	0.0089
581.7762	0.0079
581.9685	0.0081
582.1608	0.0064
582.353	0.0072
582.5453	0.0092
582.7375	0.0098
582.9298	0.0037
583.122	0.0042
583.3142	0.0081
583.5063	0.0058
583.6985	0.0051
583.8906	0.0024
584.0827	0.0098
584.2749	0.0054
584.4669	0.0063
584.659	0.0097
584.8511	0.0113
585.0431	0.0082
585.2352	0.0057
585.4272	0.012
585.6192	0.0058
585.8111	0.0071
586.0031	0.0034
586.195	0.0107
586.387	0.005
586.5789	0.0073
586.7708	0.0125
586.9627	0.0069
587.1545	0.0076
587.3464	0.0035
587.5382	0.0076
587.73	0.0097
587.9218	0.004
588.1136	0.0058
588.3053	0.0059
588.4971	0.0069
588.6888	0.0066
588.8805	0.0076
589.0722	0.0175
589.2639	0.005
589.4556	0.01
589.6472	0.0091
589.8389	0.007
590.0305	0.0052
590.2221	0.016
590.4137	0.007
590.6052	0.0033
590.7968	0.0074
590.9883	0.0067
591.1798	0.006
591.3713	0.0058
591.5628	0.0121
591.7543	0.0039
591.9458	0.0066
592.1372	0.0052
592.3286	0.0035
592.52	0.0056
592.7114	0.0049
592.9028	0.0105
593.0941	0.0041
593.2855	0.0063
593.4768	0.0141
593.6681	0.0095
593.8594	0.0101
594.0506	0.0051
594.2419	0.0121
594.4331	0.0047
594.6244	0.01
594.8156	0.0031
595.0067	0.0046
595.1979	0.006
595.3891	0.0087
595.5802	0.0078
595.7713	0.0078
595.9624	0.0133
596.1535	0.0073
596.3446	0.0048
596.5357	0.0148
596.7267	0.009
596.9177	0.0133
597.1087	0.0032
597.2997	0.0136
597.4907	0.006
597.6817	0.0113
597.8726	0.0073
598.0635	0.0025
598.2544	0.0111
598.4453	0.0053
598.6362	0.0078
598.827	0.0038
599.0179	0.0082
599.2087	0.0091
599.3995	0.0128
599.5903	0.0122
599.7811	0.0121
599.9718	0.0037
600.1626	0.0059
600.3533	0.0018
600.544	0.0053
600.7347	0.0068
600.9254	0.0164
601.116	0.0044
601.3067	0.0081
601.4973	0.0131
601.6879	0.013
601.8785	0.0117
602.0691	0.0053
602.2596	0.0063
602.4502	0.011
602.6407	0.0124
602.8312	0.006
603.0217	0.009
603.2122	0.0124
603.4027	0.0085
603.5931	0.009
603.7835	0.01
603.9739	0.0021
604.1643	0.0058
604.3547	0.013
604.5451	0.0094
604.7354	0.0001
604.9257	0.0081
605.116	0.0058
605.3063	0.0074
605.4966	0.0018
605.6869	0.0114
605.8771	0.0074
606.0673	0.0096
606.2575	0.0079
606.4477	0.011
606.6379	0.0051
606.8281	0.008
607.0182	0.0101
607.2083	0.0045
607.3985	0.0079
607.5885	0.0041
607.7786	0.0102
607.9687	0.0157
608.1587	0.0097
608.3488	0.0077
608.5388	-0.0011
608.7288	0.0035
608.9187	0.0064
609.1087	0.0118
609.2986	0.0151
609.4886	0.0088
609.6785	0.0108
609.8684	0.003
610.0582	0.0069
610.2481	0.0096
610.4379	0.0094
610.6278	0.0023
610.8176	0.0187
611.0074	0.0088
611.1971	0.0082
611.3869	0.012
611.5766	0.0008
611.7664	0.0096
611.9561	0.0145
612.1458	0.0086
612.3354	0.0057
612.5251	0.0069
612.7147	0.0118
612.9044	0.0058
613.094	0.0121
613.2836	0.0021
613.4731	0.0066
613.6627	0.0082
613.8522	0.0072
614.0417	0.0093
614.2313	0.0085
614.4207	0.0119
614.6102	0.0094
614.7997	0.0092
614.9891	0.0106
615.1785	-0.0004
615.3679	0.0044
615.5573	0.0067
615.7467	0.0031
615.9361	0.0136
616.1254	0.0147
616.3147	0.0038
616.504	0.0087
616.6933	0.0024
616.8826	0.0008
617.0718	0.0139
617.2611	0.0034
617.4503	0.0075
617.6395	0.0133
617.8287	0.0111
618.0179	0.0076
618.207	0.0147
618.3961	-0.0003
618.5853	0.0046
618.7744	0.0088
618.9634	0.0149
619.1525	0.0076
619.3416	0.0032
619.5306	0.0074
619.7196	0.0067
619.9086	0.0044
620.0976	-0.0016
620.2866	0.0081
620.4755	0.0115
620.6645	0.0156
620.8534	0.0067
621.0423	0.0078
621.2312	0.0056
621.42	0.0062
621.6089	0.0108
621.7977	0.0072
621.9865	0.009
622.1753	-0.0031
622.3641	-0.0003
622.5529	-0.0037
622.7416	-0.0013
622.9303	-0.0019
623.1191	0.0033
623.3078	0.005
623.4964	0.0097
623.6851	0.0043
623.8737	-0.0012
624.0624	-0.002
624.251	0.0045
624.4396	0.0041
624.6282	0.0148
624.8167	-0.0006
625.0053	0.0141
625.1938	0.004
625.3823	0.0099
625.5708	0.0106
625.7593	0.0004
625.9477	0.0163
626.1362	0.007
626.3246	0.0019
626.513	0.0046
626.7014	0.0134
626.8898	0.0125
627.0781	0.0089
627.2665	0.0123
627.4548	0.0014
627.6431	0.0147
627.8314	0.0169
628.0197	0.011
628.2079	0.0102
628.3962	0.0057
628.5844	0.0058
628.7726	0.0036
628.9608	0.0065
629.1489	0.0123
629.3371	-0.0024
629.5252	0.0113
629.7134	-0.0035
629.9015	0.0153
630.0895	-0.0072
630.2776	0.0129
630.4657	0.0083
630.6537	0.0185
630.8417	-0.0156
631.0297	0.0107
631.2177	0.0113
631.4057	-0.0036
631.5936	0.0086
631.7815	-0.0026
631.9695	0.0122
632.1574	0.0031
632.3452	0.0141
632.5331	0.0039
632.7209	0.0124
632.9088	0.0083
633.0966	0.0223
633.2844	0.0169
633.4722	0.0212
633.6599	0.013
633.8477	0.0057
634.0354	0.0036
634.2231	0.0058
634.4108	0.0101
634.5985	0.0157
634.7861	0.0106
634.9738	-0.0102
635.1614	0.0076
635.349	0.0119
635.5366	0.0108
635.7242	0.014
635.9117	0.0006
636.0993	0.0033
636.2868	0.0073
636.4743	0.0078
636.6618	0.0063
636.8492	0.0154
637.0367	0.0185
637.2241	0.009
637.4115	0.0211
637.5989	0.0155
637.7863	0.015
637.9737	0.0001
638.161	0.0035
638.3484	0.0054
638.5357	0.009
638.723	0.0217
638.9103	-0.0066
639.0975	0.0037
639.2848	0.0113
639.472	0.0219
639.6592	0.0061
639.8464	-0.0141
640.0336	0.0037
640.2208	0.0016
640.4079	-0.0136
640.595	-0.003
640.7821	0.025
640.9692	0.0015
641.1563	0.0152
641.3434	0.0062
641.5304	0.0149
641.7174	0.014
641.9044	0.0038
642.0914	0.0204
642.2784	-0.0021
642.4653	-0.0036
642.6523	0.0273
642.8392	0.0081
643.0261	0.0078
643.213	0.0234
643.3999	0.019
643.5867	0.0005
643.7735	-0.0052
643.9604	0.0175
644.1472	0.0156
644.3339	0.0272
644.5207	0.0086
644.7075	-0.0025
644.8942	-0.0044
645.0809	0.0147
645.2676	-0.0033
645.4543	0.0257
645.6409	0.0173
645.8276	-0.0014
646.0142	0.0256
646.2008	0.0112
646.3874	0.0054
646.574	-0.0028
646.7605	-0.0041
646.9471	-0.0032
647.1336	-0.0237
647.3201	0.0063
647.5066	0.0117
647.6931	0.0158
647.8795	-0.0051
648.0659	0.0173
648.2524	0.0025
648.4388	0.0162
648.6252	0.0116
648.8115	0.0049
648.9979	0.0155
649.1842	0.0025
649.3705	0.0176
649.5568	-0.007
649.7431	-0.0034
649.9294	0.0161
650.1156	0.0006
650.3018	-0.005
650.488	0.0106
650.6742	0.0366
650.8604	0.0106
651.0466	-0.0019
651.2327	0.0098
651.4188	0.0099
651.6049	0.006
651.791	0.0003
651.9771	0.0075
652.1632	0.0069
652.3492	0.0078
652.5352	0.007
652.7212	0.0064
652.9072	0.0029
653.0932	0.0172
653.2791	0.0093
653.465	-0.0037
653.651	0.0084
653.8369	0.0129
654.0227	0.0031
654.2086	0.0098
654.3944	0.0111
654.5803	0.009
654.7661	-0.001
654.9519	0.0029
655.1377	0.0001
655.3234	0.0001
655.5092	0.0001
655.6949	0.0001
655.8806	0.0001
656.0663	0.0001
656.2519	0.0001
656.4376	0.0001
656.6232	0.0001
656.8088	0.0001
656.9945	0.0001
657.18	0.0001
657.3656	0.0001
657.5511	0.0001
657.7367	0.0001
657.9222	0.0001
658.1077	0.0001
658.2932	0.0001
658.4786	0.0001
658.6641	0.0001
658.8495	0.0001
659.0349	0.0001
659.2203	0.0001
659.4057	0.0142
659.591	0.3184
659.7764	0.0272
659.9617	0.0194
660.147	0.0002
660.3323	0.0086
660.5176	0.0073
660.7028	-0.0093
660.888	0.013
661.0733	0.013
661.2585	-0.0021
661.4436	0.0094
661.6288	0.0196
661.8139	0.0018
661.9991	-0.0035
662.1842	-0.0059
662.3693	0.0034
662.5544	0.0037
662.7394	0.0246
662.9245	-0.0013
663.1095	0.0018
663.2945	-0.0208
663.4795	-0.0026
663.6644	-0.0117
663.8494	0.0206
664.0343	0.0173
664.2193	-0.0182
664.4042	-0.002
664.589	0.0087
664.7739	0.006
664.9587	-0.0004
665.1436	-0.0043
665.3284	0.0185
665.5132	-0.0213
665.698	0.0221
665.8827	0.01
666.0675	-0.0102
666.2522	0.0178
666.4369	0.007
666.6216	0.0387
666.8063	0.01
666.9909	0.0045
667.1756	-0.0158
667.3602	-0.0064
667.5448	0.0194
667.7294	0.0184
667.9139	0.0008
668.0985	0.0177
668.283	0.0018
668.4675	0.0156
668.652	0.0253
668.8365	-0.0071
669.0209	0.027
669.2054	0.0104
669.3898	0.0081
669.5742	0.032
669.7586	0.0357
669.943	0.0032
670.1273	0.0139
670.3117	0.0112
670.496	-0.0034
670.6803	0.0063
670.8646	-0.0203
671.0488	0.007
671.2331	-0.0023
671.4173	0.0008
671.6015	0.0042
671.7857	0.0101
671.9699	0.0128
672.1541	0.0038
672.3382	0.0092
672.5223	0.0079
672.7064	0.0063
672.8905	-0.0142
673.0746	0.0155
673.2587	0.0313
673.4427	0.0192
673.6267	0.0093
673.8107	0.0076
673.9947	0.023
674.1787	0.0031
674.3626	0.0177
674.5465	0.0097
674.7304	-0.0022
674.9143	0.0017
675.0982	-0.0106
675.2821	0.0198
675.4659	0.0035
675.6497	0.0024
675.8335	0.0001
676.0173	-0.0078
676.2011	0.0088
676.3849	0.0133
676.5686	0.032
676.7523	0.0051
676.936	0.0082
677.1197	-0.0161
677.3034	0.025
677.487	0.0179
677.6706	0.0088
677.8542	0.0012
678.0378	-0.0213
678.2214	0.0022
678.405	0.0129
678.5885	0.0052
678.772	0.0286
678.9555	0.0011
679.139	0.0075
679.3225	-0.0013
679.5059	-0.0081
679.6894	0.0078
679.8728	0.0125
680.0562	0.0091
680.2395	0.0043
680.4229	0.0101
680.6062	-0.0036
680.7896	-0.0093
680.9729	0.0178
681.1562	0.0205
681.3394	0.0042
681.5227	0.0093
681.7059	0.0209
681.8891	-0.0004
682.0723	-0.0153
682.2555	0.0092
682.4387	-0.0021
682.6218	0.0218
682.805	0.0285
682.9881	0.0156
683.1712	0.0259
683.3542	0.0245
683.5373	-0.0002
683.7203	0.0088
683.9034	0.0041
684.0864	0.0063
684.2694	0.0086
684.4523	0.0134
684.6353	0.0081
684.8182	0.007
685.0011	-0.0042
685.184	-0.0021
685.3669	0.0175
685.5498	-0.0041
685.7326	-0.0185
685.9154	-0.0037
686.0982	0.0202
686.281	-0.0025
686.4638	0.035
686.6465	-0.0099
686.8293	-0.0119
687.012	0.0064
687.1947	0.0005
687.3774	0.0112
687.56	-0.0083
687.7427	-0.0051
687.9253	-0.0043
688.1079	0.0036
688.2905	-0.0109
688.4731	0.017
688.6556	-0.011
688.8382	-0.0403
689.0207	0.0046
689.2032	0.0138
689.3857	-0.0028
689.5681	-0.0049
689.7506	0.0316
689.933	0.0069
690.1154	0.013
690.2978	0.0079
690.4802	0.0117
690.6626	-0.0002
690.8449	0.0049
691.0272	-0.0065
691.2095	-0.0012
691.3918	0.0179
691.5741	0.0112
691.7563	0.0054
691.9386	0.0283
692.1208	0.014
692.303	-0.0019
692.4852	0.0082
692.6673	0.0083
692.8495	-0.0067
693.0316	0.008
693.2137	0.003
693.3958	0.022
693.5778	0.0093
693.7599	-0.0028
693.9419	-0.0033
694.1239	0.0042
694.3059	0.0245
694.4879	-0.0033
694.6699	-0.013
694.8518	0.0148
695.0337	0.0158
695.2157	0.0282
695.3975	0.0007
695.5794	-0.0014
695.7613	0.0001
695.9431	-0.0221
696.1249	0.0394
696.3067	0.0038
696.4885	0.0117
696.6703	0.0266
696.852	0.0072
697.0337	0.0161
697.2154	0.021
697.3971	0.0055
697.5788	0.0177
697.7605	-0.0108
697.9421	0.0128
698.1237	0.0152
698.3053	0.0044
698.4869	0.0076
698.6685	-0.0117
698.85	0.019
699.0315	0.0035
699.213	0.0227
699.3945	0.0025
699.576	0.0083
699.7575	0.0071
699.9389	0.0036
700.1203	-0.0205
700.3017	-0.0034
700.4831	0.015
700.6645	0.0268
700.8458	-0.0038
701.0271	-0.0003
701.2084	-0.0148
701.3897	0.0322
701.571	-0.0006
701.7523	-0.0111
701.9335	0.0104
702.1147	0.0305
702.2959	-0.0135
702.4771	0.0202
702.6583	0.0055
702.8394	-0.0158
703.0205	0.0047
703.2016	-0.0151
703.3827	0.0013
703.5638	-0.0036
703.7449	0.0047
703.9259	-0.0024
704.1069	-0.0064
704.2879	0.0222
704.4689	0.0113
704.6499	0.0192
704.8308	0.041
705.0117	0.0227
705.1927	-0.0101
705.3735	0.0089
705.5544	0.0299
705.7353	0.0177
705.9161	-0.0256
706.0969	0.0044
706.2777	-0.0075
706.4585	-0.0112
706.6393	0.0121
706.82	0.0193
707.0007	-0.0036
707.1815	-0.0045
707.3621	0.0465
707.5428	0.0346
707.7235	0.0162
707.9041	-0.0038
708.0847	-0.0033
708.2653	0.0171
708.4459	0.0022
708.6265	0.0042
708.807	0.025
708.9875	-0.0068
709.168	-0.0065
709.3485	0.0122
709.529	0.003
709.7095	-0.0118
709.8899	0.0257
710.0703	0.0198
710.2507	-0.013
710.4311	-0.0097
710.6115	0.0289
710.7918	0.0127
710.9721	0.0057
711.1524	-0.0072
711.3327	-0.0187
711.513	-0.0082
711.6932	-0.0213
711.8735	0.0164
712.0537	-0.0163
712.2339	-0.0043
712.4141	0.0236
712.5942	0.0142
712.7744	0.0187
712.9545	-0.0072
713.1346	0.0062
713.3147	0.0185
713.4947	0.0164
713.6748	0.0226
713.8548	0.036
714.0348	0.0063
714.2148	0.01
714.3948	0.0287
714.5748	0.0122
714.7547	0.0168
714.9346	0.0299
715.1145	-0.0029
715.2944	-0.0101
715.4743	0.0331
715.6541	0.0023
715.834	0.0298
716.0138	0.0093
716.1936	-0.0375
716.3733	0.0032
716.5531	-0.0125
716.7328	0.0176
716.9126	0.0181
717.0923	-0.0265
717.2719	0.0302
717.4516	0.0355
717.6312	-0.0131
717.8109	0.024
717.9905	0.0057
718.1701	0.0057
718.3496	0.0178
718.5292	-0.001
718.7087	0.0001
718.8882	-0.0029
719.0677	0.0049
719.2472	-0.0024
719.4267	0.0084
719.6061	-0.0096
719.7856	0.0021
719.965	0.0061
720.1443	-0.0022
720.3237	0.0053
720.5031	0.0009
720.6824	-0.0089
720.8617	-0.0014
721.041	0.024
721.2203	-0.0087
721.3995	0.0125
721.5788	-0.0214
721.758	0.0026
721.9372	-0.0059
722.1164	0.0036
722.2956	0.0063
722.4747	0.0263
722.6538	-0.0146
722.8329	0.0492
723.012	-0.0037
723.1911	-0.0293
723.3702	0.034
723.5492	-0.0138
723.7282	0.0014
723.9072	0.0473
724.0862	-0.0122
724.2652	0.0299
724.4441	0.0197
724.623	0.0166
724.8019	-0.0027
724.9808	0.0157
725.1597	0.0264
725.3385	0.0038
725.5174	0.0114
725.6962	-0.0002
725.875	0.0267
726.0538	0.0018
726.2325	0.0092
726.4112	-0.0146
726.59	-0.0315
726.7687	-0.0044
726.9474	-0.0023
727.126	0.032
727.3047	-0.0262
727.4833	0.0166
727.6619	-0.0049
727.8405	0.0147
728.0191	0.0287
728.1976	0.0127
728.3762	0.0196
728.5547	-0.0121
728.7332	-0.0006
728.9116	-0.0023
729.0901	0.0217
729.2686	0.0077
729.447	-0.0065
729.6254	0.0099
729.8038	0.0214
729.9821	-0.0027
730.1605	0.0072
730.3388	-0.0206
730.5171	0.0154
730.6954	-0.0075
730.8737	0.0022
731.0519	0.0055
731.2302	0.0204
731.4084	-0.0038
731.5866	-0.0011
731.7648	-0.0129
731.9429	0.0142
732.1211	0.0091
732.2992	-0.0016
732.4773	0.0067
732.6554	-0.0039
732.8335	0.0181
733.0115	0.0006
733.1896	0.0106
733.3676	0.0244
733.5456	0.0194
733.7235	-0.0028
733.9015	-0.001
734.0794	0.0176
734.2574	-0.0088
734.4353	0.0145
734.6131	0.0037
734.791	0.0026
734.9689	0.0268
735.1467	-0.01
735.3245	0.0289
735.5023	0.0012
735.68	-0.0096
735.8578	0.009
736.0355	0.0036
736.2132	0.0035
736.3909	0.0017
736.5686	-0.026
736.7463	-0.0147
736.9239	0.0287
737.1015	0.0037
737.2791	0.0159
737.4567	0.0136
737.6343	0.0143
737.8118	0.0104
737.9894	-0.0154
738.1669	-0.0045
738.3444	0.0264
738.5218	-0.0122
738.6993	-0.0038
738.8767	0.0064
739.0541	-0.0163
739.2315	0.0001
739.4089	0.0201
739.5863	-0.0118
739.7636	-0.0061
739.9409	0.0112
740.1182	-0.0037
740.2955	0.034
740.4728	-0.0206
740.65	0.0192
740.8272	0.0198
741.0044	-0.0144
741.1816	0.0237
741.3588	-0.0152
741.5359	0.0022
741.7131	0.005
741.8902	-0.0271
742.0673	-0.034
742.2444	0.0322
742.4214	0.0287
742.5985	-0.0174
742.7755	-0.0003
742.9525	0.0094
743.1295	-0.0023
743.3064	-0.0056
743.4834	0.0133
743.6603	0.0514
743.8372	-0.0371
744.0141	0.0363
744.191	0.0091
744.3678	-0.0282
744.5446	0.0144
744.7215	-0.006
744.8982	0.0436
745.075	0.0518
745.2518	0.0088
745.4285	0.0235
745.6052	-0.0338
745.7819	0.0077
745.9586	0.0015
746.1353	0.0058
746.3119	-0.0017
746.4885	0.0502
746.6651	0.0049
746.8417	0.0125
747.0183	0.0177
747.1948	0.0098
747.3714	-0.0155
747.5479	0.0246
747.7244	-0.0197
747.9008	-0.0075
748.0773	0.0419
748.2537	0.0275
748.4301	0.035
748.6065	-0.0261
748.7829	-0.0061
748.9593	0.0137
749.1356	-0.0107
749.3119	0.0007
749.4882	0.0318
749.6645	0.008
749.8408	0.0163
750.017	0.0284
750.1933	-0.022
750.3695	0.0034
750.5457	-0.0083
750.7218	-0.01
750.898	-0.0138
751.0741	-0.0081
751.2502	0.0158
751.4263	0.003
751.6024	-0.0047
751.7784	-0.0023
751.9545	-0.0147
752.1305	0.0151
752.3065	0.0192
752.4825	-0.0062
752.6584	0.0041
752.8344	-0.001
753.0103	-0.0074
753.1862	0.0169
753.3621	0.0008
753.5379	0.0018
753.7138	0.0083
753.8896	0.0097
754.0654	-0.0164
754.2412	0.0452
754.417	0.0292
754.5927	0.0154
754.7685	0.0133
754.9442	0.029
755.1199	0.0176
755.2956	-0.0052
755.4712	0.0013
755.6469	0.0007
755.8225	-0.0095
755.9981	0.0171
756.1736	-0.0038
756.3492	0.0074
756.5248	0.0276
756.7003	-0.0017
756.8758	-0.0025
757.0513	0.0067
757.2267	0.0114
757.4022	0.0027
757.5776	0.0096
757.753	0.0175
757.9284	-0.0132
758.1038	0.0107
758.2791	0.0085
758.4545	0.0127
758.6298	0.0022
758.8051	0.0219
758.9803	-0.0163
759.1556	-0.0013
759.3308	-0.0086
759.506	-0.0026
759.6812	0.0026
759.8564	0.0124
760.0316	-0.0005
760.2067	0.0141
760.3819	0.0082
760.557	0.0135
760.732	-0.0019
760.9071	0.0232
761.0821	-0.0168
761.2572	0.013
761.4322	0.0222
761.6072	-0.0129
761.7821	-0.0218
761.9571	0.018
762.132	0.0137
762.3069	0.0228
762.4818	0.0172
762.6567	0.0009
762.8316	0.02
763.0064	0.0045
763.1812	-0.0058
763.356	-0.0127
763.5308	0.0182
763.7055	0.0057
763.8803	-0.0137
764.055	-0.0012
764.2297	0.005
764.4044	-0.0006
764.579	-0.0112
764.7537	-0.0011
764.9283	0.0036
765.1029	0.0125
765.2775	0.0069
765.4521	0.0164
765.6266	0.017
765.8011	-0.0029
765.9756	0.0242
766.1501	-0.0208
766.3246	0.0225
766.4991	0.0079
766.6735	0.0125
766.8479	0.0034
767.0223	0.0101
767.1967	-0.0009
767.371	0.0262
767.5454	0.0106
767.7197	0.017
767.894	0.0145
768.0683	0.0207
768.2425	-0.0096
768.4168	0.0089
768.591	-0.0023
768.7652	0.0174
768.9394	-0.0226
769.1135	-0.0042
769.2877	0.009
769.4618	0.0218
769.6359	-0.0242
769.81	0.0285
769.984	-0.0136
770.1581	-0.0124
770.3321	0.0227
770.5061	-0.0266
770.6801	-0.0016
770.8541	0.0166
771.028	0.0351
771.202	0.0093
771.3759	0.0131
771.5498	0.009
771.7236	0.006
771.8975	0.0488
772.0713	0.0212
772.2451	-0.0114
772.4189	-0.0085
772.5927	-0.0296
772.7665	0.0062
772.9402	0.0194
773.1139	0.0222
773.2876	0.0035
773.4613	0.0064
773.635	0.0157
773.8086	0.0354
773.9822	0.0155
774.1558	0.019
774.3294	-0.0032
774.503	-0.0344
774.6765	0.0071
774.8501	-0.0224
775.0236	0.0637
775.1971	0.001
775.3705	-0.0105
775.544	-0.0363
775.7174	0.0127
775.8908	-0.0075
776.0642	0.0153
776.2376	0.061
776.4109	-0.0327
776.5843	0.0137
776.7576	-0.0268
776.9309	0.0121
777.1041	-0.0586
777.2774	0.0019
777.4506	0.0259
777.6238	-0.0502
777.797	0.0301
777.9702	0.0122
778.1434	-0.0156
778.3165	-0.0319
778.4896	-0.0216
778.6627	0.0002
778.8358	0.0078
779.0089	-0.0116
779.1819	0.0138
779.3549	0.0101
779.5279	-0.0094
779.7009	0.0401
779.8739	0.069
780.0468	-0.004
780.2197	-0.0011
780.3926	-0.0037
780.5655	0.0154
780.7384	-0.0095
780.9112	0.0257
781.0841	-0.0108
781.2569	0.0214
781.4297	0.0043
781.6024	0.0216
781.7752	0.0345
781.9479	0.0517
782.1206	0.0185
782.2933	0.0025
782.466	0.0137
782.6386	-0.0055
782.8113	0.0558
782.9839	-0.0249
783.1565	0.0199
783.329	-0.0044
783.5016	0.0141
783.6741	-0.0321
783.8466	0.0405
784.0191	0.0134
784.1916	-0.0361
784.3641	-0.0237
784.5365	-0.0292
784.7089	0.0036
784.8813	0.0574
785.0537	0.017
785.2261	-0.0207
785.3984	0.0265
785.5707	-0.015
785.743	0.0479
785.9153	0.007
786.0876	-0.0169
786.2598	0.0328
786.432	0.0146
786.6042	0.0048
786.7764	-0.0662
786.9486	0.0303
787.1207	0.0289
787.2928	0.0423
787.4649	0.0194
787.637	0.0115
787.8091	-0.0079
787.9811	0.0125
788.1532	-0.0232
788.3252	0.0278
788.4972	0.0052
788.6691	0.0103
788.8411	-0.0215
789.013	-0.0134
789.1849	0.0258
789.3568	0.0003
789.5287	0.0199
789.7005	-0.0505
789.8723	-0.0348
790.0442	-0.0276
790.2159	-0.0189
790.3877	0.0623
790.5595	0.0568
790.7312	0.0064
790.9029	0.0097
791.0746	-0.0108
791.2463	-0.0267
791.4179	0.0143
791.5896	0.0896
791.7612	0.0379
791.9328	0.0105
792.1044	-0.0053
792.2759	-0.0619
792.4474	-0.0267
792.619	0.0072
792.7905	0.0027
792.9619	0.0936
793.1334	0.0828
793.3048	0.0489
793.4762	0.0062
793.6476	-0.0462
793.819	-0.0256
793.9904	0.031
794.1617	-0.0175
794.333	0.0283
794.5043	0.0226
794.6756	0.0043
794.8469	0.0214
795.0181	0.0162
795.1893	0.0496
795.3605	0.0045
795.5317	0.0307
795.7029	-0.029
795.874	-0.0162
796.0452	-0.0047
796.2163	0.0284
796.3873	0.0554
796.5584	0.0758
796.7294	0.0282
796.9005	0.0231
797.0715	-0.072
797.2425	0.06
797.4134	0.0315
797.5844	0.0531
797.7553	-0.1472
797.9262	0.1245
798.0971	0.0509
798.2679	0.041
798.4388	0.0569
798.6096	0.0171
798.7804	0.0307
798.9512	0.0433
799.122	-0.0269
799.2927	0.0268
799.4635	-0.0112
799.6342	-0.0648
799.8049	0.0489
799.9755	-0.0123
800.1462	0.0129
800.3168	0.0375
800.4874	-0.0366
800.658	0.063
800.8286	0.0567
800.9991	0.0037
801.1696	0.0385
801.3402	-0.0504
801.5106	-0.0564
801.6811	-0.0303
801.8516	0.0755
802.022	0.0401
802.1924	-0.0928
802.3628	0.0026
802.5332	0.0682
802.7035	0.0455
802.8739	-0.0165
803.0442	-0.0105
803.2145	0.0793
803.3847	-0.0251
803.555	0.0177
803.7252	0.0319
803.8954	-0.0092
804.0656	0.0081
804.2358	-0.0589
804.4059	0.0532
804.5761	0.0748
804.7462	0.02
804.9163	-0.0691
805.0864	-0.0264
805.2564	-0.0392
805.4264	0.0174
805.5965	0.0625
805.7665	-0.0174
805.9364	-0.0339
806.1064	0.0016
806.2763	0.0196
806.4462	0.004
806.6161	0.034
806.786	-0.0096
806.9559	0.0142
807.1257	-0.0007
807.2955	-0.0108
807.4653	0.0509
807.6351	0.023
807.8048	-0.0221
807.9746	-0.0008
808.1443	-0.0245
808.314	0.0004
808.4837	0.0382
808.6533	0.0381
808.8229	0.0189
808.9926	0.068
809.1622	0.0087
809.3317	-0.013
809.5013	-0.0294
809.6708	0.0535
809.8403	0.0688
810.0098	0.006
810.1793	-0.0469
810.3488	0.0065
810.5182	0.1195
810.6876	0.0266
810.857	0.0211
811.0264	-0.0446
811.1958	0.0599
811.3651	0.0103
811.5344	0.0765
811.7037	0.124
811.873	0.0578
812.0422	-0.0328
812.2115	-0.0152
812.3807	-0.1758
812.5499	0.0445
812.7191	0.0361
812.8882	-0.038
813.0574	0.0565
813.2265	-0.0407
813.3956	-0.0236
813.5646	0.1027
813.7337	0.1033
813.9027	-0.0174
814.0718	0.0723
814.2407	0.0288
814.4097	0.0145
814.5787	0.0548
814.7476	0.0353
814.9165	-0.0302
815.0854	-0.0031
815.2543	0.0349
815.4232	0.0311
815.592	0.0034
815.7608	0.0137
815.9296	0.0298
816.0984	0.0379
816.2671	-0.1942
816.4359	0.158
816.6046	-0.0534
816.7733	-0.0942
816.942	-0.066
817.1106	0.0148
817.2793	0.0157
817.4479	-0.0039
817.6165	-0.0177
817.785	-0.034
817.9536	-0.0964
818.1221	0.0007
818.2906	-0.1134
818.4591	0.003
818.6276	-0.0136
818.7961	-0.0237
818.9645	0.0789
819.1329	0.0364
819.3013	-0.0639
819.4697	0.0243
819.638	0.097
819.8064	-0.0306
819.9747	0.046
820.143	0.0474
820.3113	-0.0408
820.4795	-0.0125
820.6477	0.1045
820.816	-0.0037
820.9842	0.0986
821.1523	-0.0038
821.3205	0.0236
821.4886	0.0349
821.6567	-0.0823
821.8248	0.1016
821.9929	-0.11
822.1609	0.0397
822.329	0.0614
822.497	0.0587
822.665	0.1193
822.833	-0.1473
823.0009	0.0266
823.1688	0.3014
823.3367	-0.1848
823.5046	0.0623
823.6725	0.0077
823.8404	0.1294
824.0082	-0.0424
824.176	0.0495
824.3438	0.2818
824.5116	0.0379
824.6793	-0.023
824.847	-0.0477
825.0147	-0.0498
825.1824	0.0919
825.3501	-0.139
825.5177	0.0492
825.6854	-0.1807
825.853	-0.0452
826.0206	-0.1722
826.1881	0.0513
826.3557	0.0012
826.5232	0.1652
826.6907	0.0507
826.8582	0.0761
827.0257	0.1768
827.1931	0.1174
827.3605	-0.0493
827.528	-0.0833
827.6953	-0.0133
827.8627	-0.0425
828.03	0.0834
828.1974	-0.0022
828.3647	-0.0072
828.532	-0.0806
828.6992	0.0817
828.8665	-0.1611
829.0337	-0.0714
829.2009	-0.1094
829.3681	-0.0748
829.5352	-0.3989
829.7024	-0.0819
829.8695	-0.01
830.0366	0.2136
830.2037	0.1211
830.3707	0.0536
830.5378	0.0943
830.7048	-0.1535
830.8718	0.0102
831.0388	0.0409
831.2057	-0.2036
831.3727	-0.3501
831.5396	-0.0658
831.7065	-1.0353
831.8734	0.4578
832.0402	0.3076
832.2071	-0.6543
832.3739	1.0631
832.5407	-1.4953
832.7075	-0.2034
832.8742	-0.05
833.041	0.0375
833.2077	0.2112
833.3744	-0.0666
833.541	-0.0979
833.7077	-0.1081
833.8743	-0.0191
834.0409	0.2654
834.2075	0.0471
834.3741	-0.1611
834.5407	0.022
834.7072	-0.0333
834.8737	0.1959
835.0402	0.2468
835.2067	-0.1666
835.3731	0.0183
835.5395	-0.1452
835.706	-0.2642
835.8723	-0.1986
836.0387	0.2065
836.2051	0.0109
836.3714	-0.2105
836.5377	0.2563
836.704	0.1793
836.8703	-0.0338
837.0365	-0.4046
837.2027	-0.1218
837.3689	0.2143
837.5351	-0.0502
837.7013	-0.1108
837.8674	0.2089
838.0335	0.2297
838.1997	-0.2121
838.3657	-0
838.5318	-0.3951
838.6978	-0.2646
838.8639	0.0323
839.0299	-0.0243
839.1958	0.0108
839.3618	0.2066
839.5277	-0.0403
839.6937	-0.0367
839.8596	-0.1995
840.0254	0.5903
840.1913	-0
840.3571	0.0455
840.523	-0
840.6888	-0.1567
840.8545	-0.331
841.0203	0.1037
841.186	0.1122
841.3517	-0.1784
841.5174	0.0581
841.6831	0.1874
841.8488	-0.1021
842.0144	0.3879
842.18	0.2484
842.3456	-0.5362
842.5112	-0
842.6767	0.1172
842.8422	0.1047
843.0077	0.1477
843.1732	0.0071
843.3387	0.1856
843.5042	-0
843.6696	0.6602
843.835	0.0878
844.0004	-0.1718
844.1657	-0
844.3311	-0.0686
844.4964	-0.0771
844.6617	-0
844.827	-0
844.9923	0.5169
845.1575	0.2584
845.3227	-0.3494
845.4879	-0.1312
845.6531	-0
845.8183	0.0218
845.9834	-0
846.1485	0.2861
846.3136	-0.0709
846.4787	-0.2994
846.6438	-0.2949
846.8088	-0
846.9738	-0
847.1388	0.263
847.3038	0.1847
847.4687	-0
847.6337	-0
847.7986	-0.198
847.9635	-0.1716
848.1284	-0
848.2932	0.1511
848.458	-0
848.6228	-0.0306
848.7876	0.5113
848.9524	-0.1734
849.1172	-2.1798
849.2819	-0
849.4466	0.0538
849.6113	0.4446
849.7759	0.8846
849.9406	-0.2372
850.1052	-0
850.2698	0.4117
850.4344	-0.6009
850.599	0.7036
850.7635	0.0296
850.928	0.3652
851.0925	0.3523
851.257	-0
851.4215	0.1382
851.5859	0.1041
851.7503	-0
851.9147	-0
852.0791	-0.1039
852.2434	0.7352
852.4078	-0
852.5721	0.5893
852.7364	-0.0367
852.9007	0.7292
853.0649	-0
853.2291	-0
853.3934	1.1825
853.5575	0.7791
853.7217	0.879
853.8859	-0.6405
854.05	1.1482
854.2141	-0
854.3782	0.7796
854.5423	-0.456
854.7063	0.0635
854.8703	-0.2619
855.0343	0.0389
855.1983	0.577
855.3623	-0.1087
855.5262	-0
855.6901	0.618
855.854	0.0589
856.0179	0.0384
856.1818	-0
856.3456	0.4691
856.5094	0.8367
856.6732	-0.3029
856.837	-1.3059
857.0008	-0
857.1645	-0.3637
857.3282	-0.4516
857.4919	0.1511
857.6556	-0.221
857.8192	-0.2171
857.9828	-0.1637
858.1465	0.56
858.31	-0
858.4736	-0.7045
858.6372	-0.5521
858.8007	-0
858.9642	-0.0623
859.1277	1.2548
859.2911	-0.342
859.4546	-0
859.618	0.3443
859.7814	-0
859.9448	-0
860.1081	-0
860.2715	-0
860.4348	0.0043
860.5981	0.9148
860.7614	-0.4955
860.9246	-0.2002
861.0879	0.6203
861.2511	-0.7306
861.4143	-0.5497
861.5774	0.0633
861.7406	0.1803
861.9037	-0.1556
862.0668	-1.0312
862.2299	0.5958
862.393	0.326
862.556	-0.0243
862.7191	0.0704
862.8821	0.3604
863.0451	1.4781
863.208	-0
863.371	-0.1886
863.5339	0.1975
863.6968	-0
863.8597	0.0388
864.0225	0.0523
864.1854	1.3659
864.3482	-0
864.511	0.1559
864.6737	-0.2831
864.8365	0.2146
864.9992	-0
865.1619	-0.7225
865.3246	-1.9335
865.4873	0.5277
865.65	0.089
865.8126	0.2286
865.9752	-0
866.1378	0.3935
866.3004	-0.3092
866.4629	-2.0068
866.6254	-0.4023
866.7879	0.6851
866.9504	-0
867.1129	-0.2209
867.2753	-0.2302
867.4377	-0.091
867.6001	-0.0169
867.7625	-0
867.9249	-0
868.0872	1.1039
868.2495	-0
868.4118	-0
868.5741	-0
868.7363	-0
868.8986	-0.3704
869.0608	-0.5908
869.223	-0.2517
869.3851	-0
869.5473	-0.0304
869.7094	-0.1503
869.8715	-0.1659
870.0336	-0.1376
870.1957	-0
870.3577	2.347
870.5197	-0.0074
870.6817	-0.9826
870.8437	-0.0116
871.0057	0.151
871.1676	0.5451
871.3295	-0
871.4914	-0
871.6533	-0.3876
871.8151	-0
871.977	-0.2265
872.1388	-0
872.3006	-0.6425
872.4623	0.3066
872.6241	0.2502
872.7858	0.569
872.9475	-0
873.1092	-0.1538
873.2709	0.7731
873.4325	-1.9842
873.5941	-0.2083
873.7557	-0
873.9173	1.3741
874.0789	0.5569
874.2404	-0
874.4019	0.0603
874.5634	-0
874.7249	-0
874.8863	0.4117
875.0478	-0.3518
875.2092	0.5771
875.3706	-0.0738
875.5319	-0
875.6933	-0
875.8546	-0.0729
876.0159	-0.02
876.1772	0.8846
876.3385	-0
876.4997	0.7036
876.6609	0.0882
876.8221	-0
876.9833	-0
877.1445	0.2225
877.3056	-1.0069
877.4667	-0.6904
877.6278	1.4292
877.7889	-0.1656
877.9499	-0.0696
878.111	-0.644
878.272	0.0704
878.433	0.0253
878.5939	0.6705
878.7549	-0.0145
878.9158	0.0137
879.0767	0.6928
879.2376	-0
879.3984	0.3324
879.5593	0.2651
879.7201	-0
879.8809	0.3032
880.0417	-0.0071
880.2024	0.0948
880.3632	0.4354
880.5239	-0.1929
880.6846	0.4218
880.8452	0.4185
881.0059	-0.676
881.1665	0.0171
881.3271	0.4783
881.4877	0.26
881.6483	-0.9542
881.8088	-0
881.9693	-0
882.1298	-0
882.2903	-0
