Data from D4ACN5uM420nmA_Absorbance_14-37-09-507.txt Node
Date: Fri Feb 21 14:37:09 GMT 2025
User: LASERRRRR
Spectrometer: FLMT03099
Trigger mode: 0
Integration Time (sec): 1.500000E-2
Scans to average: 1
Electric dark correction enabled: true
Nonlinearity correction enabled: false
Boxcar width: 0
XAxis mode: Wavelengths
Number of Pixels in Spectrum: 3648
>>>>>Begin Spectral Data<<<<<
179.3399	-0
179.5586	-0
179.7771	-0
179.9957	-0.0197
180.2143	-0
180.4329	-0
180.6514	-0
180.8699	0.7517
181.0885	-0
181.307	0.524
181.5255	0.289
181.744	-0
181.9625	0.3123
182.181	0.1967
182.3994	-0.3178
182.6179	-0
182.8363	-0
183.0547	-0.0692
183.2732	-0.0866
183.4916	0.2433
183.71	0.3145
183.9284	0.3328
184.1467	0.0211
184.3651	0.0825
184.5835	0.1017
184.8018	0.0944
185.0201	0.0614
185.2385	0.0503
185.4568	0.0804
185.6751	0.2061
185.8934	0.0282
186.1117	-0.1344
186.3299	0.2823
186.5482	0.0645
186.7664	0.0859
186.9847	-0.1749
187.2029	0.3298
187.4211	-0.1013
187.6393	0.1311
187.8575	0.1974
188.0757	0.5095
188.2939	0.1021
188.512	0.1426
188.7302	0.065
188.9483	0.3126
189.1665	0.2426
189.3846	0.1069
189.6027	0.0654
189.8208	0.2104
190.0389	0.0978
190.257	0.0908
190.475	0.1594
190.6931	0.0575
190.9111	0.1122
191.1292	0.0947
191.3472	0.0843
191.5652	0.2433
191.7832	0.163
192.0012	0.0988
192.2192	0.0221
192.4371	-0.0268
192.6551	0.1719
192.873	0.0848
193.091	0.2589
193.3089	0.1796
193.5268	0.2988
193.7447	0.1902
193.9626	0.1234
194.1805	0.1749
194.3984	0.1441
194.6162	0.1935
194.8341	0.2284
195.0519	0.1917
195.2697	0.1971
195.4875	0.2855
195.7054	0.2291
195.9231	0.2021
196.1409	0.2841
196.3587	0.2581
196.5765	0.3165
196.7942	0.2705
197.012	0.2967
197.2297	0.2526
197.4474	0.3216
197.6651	0.3232
197.8828	0.2721
198.1005	0.3918
198.3182	0.3329
198.5358	0.3827
198.7535	0.3676
198.9711	0.3995
199.1888	0.3319
199.4064	0.3971
199.624	0.4001
199.8416	0.3411
200.0592	0.4025
200.2767	0.3837
200.4943	0.4108
200.7119	0.348
200.9294	0.3752
201.1469	0.3656
201.3645	0.4117
201.582	0.4076
201.7995	0.3595
202.017	0.4329
202.2344	0.3519
202.4519	0.3881
202.6694	0.3978
202.8868	0.3722
203.1042	0.4318
203.3217	0.3744
203.5391	0.3467
203.7565	0.3755
203.9739	0.3679
204.1913	0.3286
204.4086	0.35
204.626	0.3628
204.8433	0.3528
205.0607	0.3577
205.278	0.3082
205.4953	0.307
205.7126	0.3125
205.9299	0.3255
206.1472	0.3303
206.3644	0.3456
206.5817	0.3258
206.7989	0.3223
207.0162	0.295
207.2334	0.31
207.4506	0.302
207.6678	0.2913
207.885	0.2991
208.1022	0.2874
208.3194	0.2773
208.5365	0.2943
208.7537	0.2895
208.9708	0.2986
209.1879	0.291
209.405	0.2701
209.6222	0.2513
209.8392	0.2835
210.0563	0.2593
210.2734	0.2591
210.4905	0.2474
210.7075	0.2591
210.9245	0.2396
211.1416	0.2537
211.3586	0.2621
211.5756	0.2277
211.7926	0.2648
212.0096	0.269
212.2265	0.2634
212.4435	0.2356
212.6604	0.252
212.8774	0.237
213.0943	0.234
213.3112	0.2489
213.5281	0.2305
213.745	0.2377
213.9619	0.2275
214.1788	0.2574
214.3956	0.2362
214.6125	0.2503
214.8293	0.2572
215.0461	0.2361
215.2629	0.2475
215.4798	0.2227
215.6965	0.2383
215.9133	0.2293
216.1301	0.2383
216.3469	0.2442
216.5636	0.2264
216.7803	0.2464
216.9971	0.2485
217.2138	0.2228
217.4305	0.2552
217.6472	0.228
217.8639	0.2506
218.0805	0.2391
218.2972	0.238
218.5138	0.2522
218.7305	0.2381
218.9471	0.2296
219.1637	0.2632
219.3803	0.2605
219.5969	0.2409
219.8135	0.2502
220.0301	0.2304
220.2466	0.2551
220.4632	0.2286
220.6797	0.2554
220.8962	0.2469
221.1127	0.268
221.3292	0.2621
221.5457	0.2631
221.7622	0.2506
221.9787	0.2698
222.1951	0.2558
222.4116	0.2631
222.628	0.263
222.8444	0.2794
223.0608	0.2698
223.2772	0.2676
223.4936	0.2818
223.71	0.2865
223.9264	0.2812
224.1427	0.278
224.3591	0.286
224.5754	0.3032
224.7917	0.2826
225.008	0.2977
225.2243	0.2961
225.4406	0.2906
225.6569	0.2992
225.8732	0.3139
226.0894	0.2901
226.3057	0.3033
226.5219	0.3136
226.7381	0.3048
226.9543	0.3146
227.1705	0.306
227.3867	0.3222
227.6029	0.3266
227.8191	0.331
228.0352	0.3411
228.2513	0.3438
228.4675	0.3398
228.6836	0.3421
228.8997	0.329
229.1158	0.3461
229.3319	0.3526
229.548	0.3558
229.764	0.3455
229.9801	0.3671
230.1961	0.3731
230.4121	0.3649
230.6282	0.3854
230.8442	0.3871
231.0602	0.3901
231.2761	0.385
231.4921	0.3882
231.7081	0.3962
231.924	0.3993
232.14	0.4093
232.3559	0.4135
232.5718	0.4107
232.7877	0.4189
233.0036	0.4085
233.2195	0.4096
233.4353	0.4194
233.6512	0.4177
233.867	0.4283
234.0829	0.4185
234.2987	0.4332
234.5145	0.4282
234.7303	0.4364
234.9461	0.4437
235.1619	0.4424
235.3776	0.4319
235.5934	0.4396
235.8091	0.4372
236.0249	0.4488
236.2406	0.4419
236.4563	0.4432
236.672	0.4513
236.8877	0.4598
237.1034	0.4413
237.319	0.4551
237.5347	0.4444
237.7503	0.4436
237.966	0.4582
238.1816	0.4505
238.3972	0.4645
238.6128	0.4569
238.8284	0.4643
239.0439	0.4672
239.2595	0.465
239.475	0.4615
239.6906	0.4593
239.9061	0.4585
240.1216	0.4715
240.3371	0.4656
240.5526	0.4674
240.7681	0.4635
240.9836	0.4622
241.199	0.4606
241.4145	0.4516
241.6299	0.4532
241.8453	0.4519
242.0607	0.4467
242.2761	0.4452
242.4915	0.4403
242.7069	0.4353
242.9223	0.4351
243.1376	0.4273
243.353	0.4189
243.5683	0.4101
243.7836	0.3971
243.9989	0.3948
244.2142	0.3997
244.4295	0.3839
244.6448	0.3742
244.86	0.3728
245.0753	0.3602
245.2905	0.3541
245.5057	0.3559
245.721	0.3455
245.9362	0.3413
246.1514	0.3322
246.3665	0.3234
246.5817	0.3081
246.7969	0.3124
247.012	0.2999
247.2271	0.3046
247.4423	0.2889
247.6574	0.2938
247.8725	0.2842
248.0876	0.2761
248.3026	0.2795
248.5177	0.2704
248.7328	0.2554
248.9478	0.2591
249.1628	0.2566
249.3779	0.2513
249.5929	0.2527
249.8079	0.238
250.0228	0.2398
250.2378	0.2343
250.4528	0.2324
250.6677	0.2315
250.8827	0.2271
251.0976	0.2287
251.3125	0.2151
251.5274	0.2141
251.7423	0.2113
251.9572	0.2119
252.172	0.2108
252.3869	0.2106
252.6017	0.2043
252.8166	0.2049
253.0314	0.1996
253.2462	0.1989
253.461	0.1975
253.6758	0.2018
253.8906	0.1985
254.1053	0.199
254.3201	0.199
254.5348	0.1926
254.7496	0.1861
254.9643	0.1931
255.179	0.1892
255.3937	0.1929
255.6083	0.1952
255.823	0.1874
256.0377	0.1878
256.2523	0.1835
256.467	0.1893
256.6816	0.1812
256.8962	0.1878
257.1108	0.1906
257.3254	0.1847
257.54	0.1852
257.7545	0.1889
257.9691	0.182
258.1836	0.1765
258.3981	0.1812
258.6127	0.1801
258.8272	0.1822
259.0417	0.1816
259.2561	0.1813
259.4706	0.178
259.6851	0.1769
259.8995	0.1771
260.114	0.1797
260.3284	0.1734
260.5428	0.1737
260.7572	0.1801
260.9716	0.184
261.186	0.1835
261.4003	0.1807
261.6147	0.1836
261.829	0.185
262.0433	0.188
262.2577	0.1845
262.472	0.1835
262.6863	0.1888
262.9005	0.186
263.1148	0.1809
263.3291	0.1839
263.5433	0.1883
263.7576	0.1955
263.9718	0.192
264.186	0.1925
264.4002	0.1898
264.6144	0.1985
264.8286	0.1938
265.0427	0.198
265.2569	0.2021
265.471	0.1948
265.6851	0.1953
265.8993	0.197
266.1134	0.1975
266.3275	0.1987
266.5415	0.1995
266.7556	0.2024
266.9697	0.194
267.1837	0.1948
267.3978	0.196
267.6118	0.198
267.8258	0.1998
268.0398	0.205
268.2538	0.1985
268.4677	0.1976
268.6817	0.1977
268.8957	0.1915
269.1096	0.1863
269.3235	0.1949
269.5374	0.1933
269.7514	0.1946
269.9652	0.191
270.1791	0.1907
270.393	0.1936
270.6068	0.1924
270.8207	0.1894
271.0345	0.188
271.2483	0.1896
271.4622	0.197
271.676	0.1931
271.8897	0.1924
272.1035	0.2013
272.3173	0.1898
272.531	0.1919
272.7448	0.1919
272.9585	0.1918
273.1722	0.1915
273.3859	0.2006
273.5996	0.1988
273.8133	0.2007
274.0269	0.1982
274.2406	0.1989
274.4542	0.2014
274.6679	0.2061
274.8815	0.205
275.0951	0.212
275.3087	0.2101
275.5223	0.2031
275.7358	0.2066
275.9494	0.2094
276.1629	0.2086
276.3765	0.2083
276.59	0.2063
276.8035	0.2144
277.017	0.2154
277.2305	0.2164
277.444	0.2147
277.6574	0.2133
277.8709	0.2173
278.0843	0.2191
278.2978	0.2132
278.5112	0.2104
278.7246	0.2132
278.938	0.2165
279.1513	0.2127
279.3647	0.2106
279.5781	0.207
279.7914	0.2114
280.0047	0.2111
280.2181	0.2069
280.4314	0.208
280.6447	0.2114
280.8579	0.202
281.0712	0.1934
281.2845	0.2049
281.4977	0.2059
281.711	0.2021
281.9242	0.1958
282.1374	0.1983
282.3506	0.1958
282.5638	0.1937
282.7769	0.1894
282.9901	0.1926
283.2033	0.1959
283.4164	0.1905
283.6295	0.1914
283.8426	0.186
284.0557	0.1903
284.2688	0.1922
284.4819	0.1866
284.695	0.1972
284.908	0.1884
285.1211	0.1927
285.3341	0.1915
285.5471	0.1943
285.7601	0.1927
285.9731	0.1877
286.1861	0.1924
286.3991	0.1943
286.612	0.1958
286.825	0.1912
287.0379	0.1844
287.2508	0.1893
287.4637	0.1955
287.6766	0.1914
287.8895	0.1844
288.1024	0.187
288.3152	0.1882
288.5281	0.1826
288.7409	0.1927
288.9538	0.1843
289.1666	0.1898
289.3794	0.1884
289.5922	0.1814
289.8049	0.1847
290.0177	0.1871
290.2304	0.1872
290.4432	0.1897
290.6559	0.1929
290.8686	0.1866
291.0813	0.1866
291.294	0.1812
291.5067	0.1865
291.7194	0.1889
291.932	0.185
292.1447	0.1845
292.3573	0.1851
292.5699	0.1871
292.7825	0.1803
292.9951	0.184
293.2077	0.1798
293.4203	0.1811
293.6328	0.1836
293.8454	0.188
294.0579	0.181
294.2704	0.1906
294.4829	0.1808
294.6954	0.1838
294.9079	0.1849
295.1204	0.183
295.3328	0.1889
295.5453	0.1821
295.7577	0.1861
295.9701	0.1872
296.1825	0.186
296.3949	0.1814
296.6073	0.1806
296.8197	0.1805
297.0321	0.1858
297.2444	0.1834
297.4567	0.1866
297.6691	0.181
297.8814	0.1885
298.0937	0.183
298.306	0.1849
298.5182	0.1828
298.7305	0.1876
298.9428	0.1846
299.155	0.1792
299.3672	0.1804
299.5794	0.1873
299.7916	0.185
300.0038	0.1864
300.216	0.1842
300.4282	0.1871
300.6403	0.1912
300.8525	0.1862
301.0646	0.192
301.2767	0.1874
301.4888	0.1856
301.7009	0.1877
301.913	0.1793
302.125	0.1837
302.3371	0.185
302.5491	0.1894
302.7612	0.1894
302.9732	0.1877
303.1852	0.1882
303.3972	0.188
303.6092	0.1877
303.8211	0.1873
304.0331	0.1877
304.245	0.1858
304.457	0.1895
304.6689	0.1874
304.8808	0.1801
305.0927	0.1844
305.3046	0.1814
305.5164	0.1772
305.7283	0.1816
305.9401	0.1765
306.152	0.1782
306.3638	0.1846
306.5756	0.184
306.7874	0.1789
306.9992	0.172
307.2109	0.1716
307.4227	0.1718
307.6344	0.1785
307.8462	0.1708
308.0579	0.1739
308.2696	0.1719
308.4813	0.1711
308.693	0.1689
308.9046	0.1682
309.1163	0.1624
309.328	0.1683
309.5396	0.1607
309.7512	0.1595
309.9628	0.1576
310.1744	0.1565
310.386	0.1583
310.5976	0.1545
310.8091	0.165
311.0207	0.1527
311.2322	0.1483
311.4437	0.155
311.6552	0.1504
311.8667	0.1564
312.0782	0.1538
312.2897	0.1574
312.5012	0.1481
312.7126	0.1504
312.924	0.1486
313.1355	0.1474
313.3469	0.1487
313.5583	0.1491
313.7696	0.1456
313.981	0.155
314.1924	0.1473
314.4037	0.1491
314.6151	0.147
314.8264	0.1505
315.0377	0.1471
315.249	0.1498
315.4603	0.1396
315.6716	0.145
315.8828	0.1446
316.0941	0.1464
316.3053	0.1427
316.5165	0.1441
316.7277	0.1444
316.9389	0.1495
317.1501	0.1482
317.3613	0.143
317.5724	0.1447
317.7836	0.1383
317.9947	0.1421
318.2058	0.1428
318.417	0.1405
318.6281	0.143
318.8391	0.1466
319.0502	0.1442
319.2613	0.1395
319.4723	0.1398
319.6834	0.1453
319.8944	0.1412
320.1054	0.1434
320.3164	0.1379
320.5274	0.1416
320.7383	0.1364
320.9493	0.1422
321.1602	0.1425
321.3712	0.1381
321.5821	0.1324
321.793	0.1459
322.0039	0.1382
322.2148	0.1381
322.4257	0.1367
322.6365	0.1402
322.8474	0.1434
323.0582	0.1483
323.269	0.1469
323.4798	0.1377
323.6906	0.1431
323.9014	0.1344
324.1122	0.1393
324.3229	0.1465
324.5337	0.1437
324.7444	0.1456
324.9551	0.1524
325.1658	0.1425
325.3765	0.1494
325.5872	0.1512
325.7979	0.1438
326.0085	0.144
326.2192	0.1427
326.4298	0.1519
326.6404	0.1585
326.851	0.1472
327.0616	0.1487
327.2722	0.1504
327.4828	0.1529
327.6933	0.1607
327.9039	0.1517
328.1144	0.1531
328.3249	0.153
328.5354	0.1549
328.7459	0.1554
328.9564	0.1544
329.1669	0.1603
329.3773	0.1628
329.5878	0.154
329.7982	0.1557
330.0086	0.1601
330.219	0.155
330.4294	0.1562
330.6398	0.1586
330.8502	0.1645
331.0605	0.1626
331.2708	0.1617
331.4812	0.1553
331.6915	0.1592
331.9018	0.1665
332.1121	0.1643
332.3224	0.1637
332.5326	0.1603
332.7429	0.1651
332.9531	0.1679
333.1633	0.158
333.3735	0.1568
333.5837	0.1645
333.7939	0.1604
334.0041	0.1568
334.2143	0.1556
334.4244	0.1646
334.6346	0.1647
334.8447	0.1548
335.0548	0.1679
335.2649	0.1609
335.475	0.1583
335.685	0.1615
335.8951	0.154
336.1051	0.1572
336.3152	0.1621
336.5252	0.1572
336.7352	0.1612
336.9452	0.1581
337.1552	0.1584
337.3652	0.1573
337.5751	0.1544
337.7851	0.1599
337.995	0.1587
338.2049	0.1529
338.4148	0.1615
338.6247	0.161
338.8346	0.1533
339.0445	0.1571
339.2543	0.1577
339.4642	0.1553
339.674	0.1513
339.8838	0.1583
340.0936	0.162
340.3034	0.1526
340.5132	0.1531
340.7229	0.157
340.9327	0.1656
341.1424	0.1617
341.3522	0.1609
341.5619	0.1605
341.7716	0.1692
341.9813	0.167
342.1909	0.1641
342.4006	0.1714
342.6102	0.1672
342.8199	0.1684
343.0295	0.156
343.2391	0.1733
343.4487	0.1738
343.6583	0.1794
343.8679	0.169
344.0774	0.1754
344.287	0.1735
344.4965	0.1711
344.706	0.1749
344.9155	0.1724
345.125	0.1718
345.3345	0.1885
345.544	0.1662
345.7534	0.1814
345.9629	0.1845
346.1723	0.1837
346.3817	0.1831
346.5911	0.1864
346.8005	0.1896
347.0099	0.1785
347.2193	0.2013
347.4286	0.1897
347.638	0.1944
347.8473	0.1894
348.0566	0.1852
348.2659	0.1879
348.4752	0.1894
348.6845	0.1883
348.8937	0.1809
349.103	0.1883
349.3122	0.1961
349.5214	0.1898
349.7306	0.1975
349.9398	0.1924
350.149	0.1939
350.3582	0.1931
350.5674	0.1951
350.7765	0.1936
350.9856	0.1878
351.1948	0.1927
351.4039	0.1996
351.613	0.1959
351.822	0.1976
352.0311	0.1896
352.2402	0.1935
352.4492	0.1882
352.6582	0.1952
352.8672	0.1945
353.0762	0.1912
353.2852	0.1922
353.4942	0.1932
353.7032	0.1936
353.9121	0.1932
354.1211	0.1841
354.33	0.1906
354.5389	0.1875
354.7478	0.1855
354.9567	0.1853
355.1655	0.1878
355.3744	0.1863
355.5833	0.1883
355.7921	0.1888
356.0009	0.1886
356.2097	0.1838
356.4185	0.1929
356.6273	0.1866
356.8361	0.1869
357.0448	0.1855
357.2536	0.1861
357.4623	0.1868
357.671	0.1952
357.8797	0.1898
358.0884	0.1905
358.2971	0.1892
358.5057	0.1934
358.7144	0.189
358.923	0.1927
359.1316	0.2023
359.3402	0.1885
359.5488	0.1902
359.7574	0.1918
359.966	0.1951
360.1746	0.1906
360.3831	0.1934
360.5916	0.2029
360.8002	0.1939
361.0087	0.196
361.2172	0.1956
361.4256	0.1937
361.6341	0.1944
361.8426	0.1976
362.051	0.1952
362.2594	0.1974
362.4678	0.2001
362.6762	0.204
362.8846	0.1927
363.093	0.2005
363.3014	0.2119
363.5097	0.2027
363.718	0.1995
363.9264	0.1974
364.1347	0.2076
364.343	0.2059
364.5513	0.201
364.7595	0.2104
364.9678	0.202
365.176	0.2006
365.3842	0.2098
365.5925	0.2088
365.8007	0.2056
366.0089	0.2168
366.217	0.2093
366.4252	0.2094
366.6333	0.2121
366.8415	0.2095
367.0496	0.2103
367.2577	0.2182
367.4658	0.2115
367.6739	0.2152
367.882	0.2114
368.09	0.2168
368.2981	0.2152
368.5061	0.2205
368.7141	0.2218
368.9221	0.2168
369.1301	0.2218
369.3381	0.2196
369.5461	0.2212
369.754	0.2251
369.962	0.229
370.1699	0.2279
370.3778	0.2321
370.5857	0.2211
370.7936	0.2193
371.0015	0.2209
371.2093	0.2219
371.4172	0.225
371.625	0.2257
371.8328	0.2128
372.0406	0.2315
372.2484	0.2206
372.4562	0.2301
372.664	0.2261
372.8717	0.2274
373.0795	0.2354
373.2872	0.2441
373.4949	0.2438
373.7026	0.2355
373.9103	0.227
374.118	0.2352
374.3256	0.2403
374.5333	0.2324
374.7409	0.2314
374.9485	0.2284
375.1561	0.2368
375.3637	0.2276
375.5713	0.2339
375.7789	0.2353
375.9864	0.2356
376.194	0.2345
376.4015	0.2438
376.609	0.2461
376.8165	0.2413
377.024	0.2394
377.2315	0.2415
377.4389	0.243
377.6464	0.2426
377.8538	0.2418
378.0612	0.2476
378.2686	0.24
378.476	0.2471
378.6834	0.2363
378.8908	0.2485
379.0981	0.2478
379.3055	0.2495
379.5128	0.243
379.7201	0.2487
379.9274	0.2404
380.1347	0.2504
380.342	0.2458
380.5492	0.2522
380.7565	0.2501
380.9637	0.2514
381.1709	0.2487
381.3781	0.2551
381.5853	0.2485
381.7925	0.2478
381.9997	0.252
382.2068	0.2487
382.4139	0.2538
382.6211	0.2603
382.8282	0.2526
383.0353	0.2557
383.2424	0.2455
383.4494	0.2489
383.6565	0.2527
383.8635	0.2508
384.0706	0.2639
384.2776	0.2552
384.4846	0.2612
384.6916	0.2566
384.8986	0.2536
385.1055	0.2612
385.3125	0.2574
385.5194	0.2603
385.7263	0.255
385.9333	0.26
386.1402	0.2632
386.347	0.2496
386.5539	0.2602
386.7608	0.2488
386.9676	0.2567
387.1744	0.2569
387.3813	0.2579
387.5881	0.2495
387.7948	0.2653
388.0016	0.2651
388.2084	0.2598
388.4151	0.2565
388.6219	0.2515
388.8286	0.2547
389.0353	0.2508
389.242	0.2459
389.4487	0.2487
389.6553	0.239
389.862	0.2426
390.0686	0.2547
390.2753	0.2475
390.4819	0.252
390.6885	0.2516
390.8951	0.2465
391.1016	0.2355
391.3082	0.2408
391.5147	0.2325
391.7213	0.2421
391.9278	0.2348
392.1343	0.2402
392.3408	0.2478
392.5473	0.2433
392.7537	0.2393
392.9602	0.2332
393.1666	0.2411
393.373	0.2306
393.5794	0.2276
393.7858	0.2346
393.9922	0.2284
394.1986	0.2273
394.4049	0.2246
394.6113	0.2266
394.8176	0.231
395.0239	0.229
395.2302	0.2273
395.4365	0.2302
395.6428	0.2282
395.8491	0.2324
396.0553	0.2073
396.2615	0.2265
396.4678	0.2253
396.674	0.2207
396.8802	0.2198
397.0863	0.2211
397.2925	0.2242
397.4987	0.2218
397.7048	0.2251
397.9109	0.2186
398.117	0.2153
398.3231	0.2115
398.5292	0.209
398.7353	0.2229
398.9413	0.2173
399.1474	0.2159
399.3534	0.2053
399.5594	0.2234
399.7654	0.2059
399.9714	0.2184
400.1774	0.2146
400.3833	0.2129
400.5893	0.2154
400.7952	0.2196
401.0011	0.2136
401.207	0.2184
401.4129	0.2132
401.6188	0.2128
401.8247	0.2197
402.0305	0.2123
402.2364	0.2195
402.4422	0.2192
402.648	0.2104
402.8538	0.2185
403.0596	0.2189
403.2654	0.2142
403.4711	0.213
403.6768	0.2151
403.8826	0.2158
404.0883	0.2088
404.294	0.2133
404.4997	0.2157
404.7054	0.217
404.911	0.2095
405.1167	0.2138
405.3223	0.2099
405.5279	0.2107
405.7335	0.2052
405.9391	0.2071
406.1447	0.2123
406.3502	0.2125
406.5558	0.2017
406.7613	0.2101
406.9668	0.2035
407.1724	0.216
407.3778	0.2136
407.5833	0.2009
407.7888	0.2117
407.9942	0.2155
408.1997	0.2199
408.4051	0.2203
408.6105	0.208
408.8159	0.2152
409.0213	0.2076
409.2267	0.2145
409.432	0.2199
409.6374	0.2173
409.8427	0.2201
410.048	0.2101
410.2533	0.2123
410.4586	0.2068
410.6639	0.2141
410.8691	0.1981
411.0744	0.2204
411.2796	0.2095
411.4848	0.2063
411.69	0.1991
411.8952	0.21
412.1004	0.2105
412.3056	0.205
412.5107	0.2112
412.7158	0.2163
412.921	0.2092
413.1261	0.2098
413.3312	0.2102
413.5362	0.226
413.7413	0.2087
413.9464	0.2058
414.1514	0.2071
414.3564	0.1991
414.5614	0.2047
414.7664	0.2069
414.9714	0.1997
415.1764	0.2106
415.3813	0.2019
415.5863	0.2173
415.7912	0.2072
415.9961	0.2053
416.201	0.2168
416.4059	0.2052
416.6108	0.2115
416.8156	0.197
417.0205	0.2161
417.2253	0.2062
417.4301	0.2069
417.6349	0.2069
417.8397	0.2048
418.0445	0.1961
418.2492	0.1997
418.454	0.2004
418.6587	0.1953
418.8634	0.198
419.0681	0.2005
419.2728	0.1955
419.4775	0.2118
419.6822	0.2045
419.8868	0.1952
420.0915	0.1926
420.2961	0.1879
420.5007	0.1983
420.7053	0.1978
420.9099	0.1952
421.1144	0.2002
421.319	0.1856
421.5235	0.188
421.728	0.1963
421.9325	0.2014
422.137	0.1816
422.3415	0.1833
422.546	0.1844
422.7504	0.1882
422.9549	0.1917
423.1593	0.1853
423.3637	0.1847
423.5681	0.1896
423.7725	0.192
423.9769	0.1841
424.1812	0.1756
424.3856	0.1774
424.5899	0.1817
424.7942	0.181
424.9985	0.1756
425.2028	0.1818
425.4071	0.1901
425.6113	0.1833
425.8156	0.1819
426.0198	0.1839
426.224	0.1898
426.4282	0.166
426.6324	0.1697
426.8366	0.1631
427.0407	0.1647
427.2449	0.1761
427.449	0.1733
427.6531	0.1817
427.8572	0.1691
428.0613	0.1731
428.2654	0.1665
428.4694	0.163
428.6735	0.1653
428.8775	0.1661
429.0815	0.168
429.2855	0.1616
429.4895	0.1639
429.6935	0.1631
429.8975	0.1509
430.1014	0.1691
430.3053	0.1599
430.5093	0.1566
430.7132	0.1563
430.9171	0.1513
431.1209	0.1526
431.3248	0.1406
431.5286	0.1474
431.7325	0.1554
431.9363	0.1492
432.1401	0.1441
432.3439	0.1327
432.5477	0.1404
432.7514	0.138
432.9552	0.1446
433.1589	0.1316
433.3627	0.1386
433.5664	0.1298
433.7701	0.1388
433.9737	0.1421
434.1774	0.1375
434.3811	0.1246
434.5847	0.1318
434.7883	0.1328
434.9919	0.1204
435.1955	0.135
435.3991	0.1335
435.6027	0.1327
435.8062	0.1365
436.0098	0.124
436.2133	0.1201
436.4168	0.1188
436.6203	0.1178
436.8238	0.1138
437.0272	0.1123
437.2307	0.1039
437.4341	0.1109
437.6375	0.1084
437.841	0.1082
438.0443	0.1145
438.2477	0.1009
438.4511	0.0993
438.6545	0.1121
438.8578	0.1013
439.0611	0.1073
439.2644	0.1022
439.4677	0.0999
439.671	0.0953
439.8743	0.0944
440.0775	0.0928
440.2808	0.0932
440.484	0.0965
440.6872	0.0867
440.8904	0.081
441.0936	0.0878
441.2967	0.0735
441.4999	0.0775
441.703	0.0848
441.9062	0.0885
442.1093	0.0898
442.3124	0.0834
442.5155	0.0813
442.7185	0.0783
442.9216	0.0715
443.1246	0.0762
443.3276	0.0749
443.5307	0.0682
443.7337	0.0791
443.9366	0.0747
444.1396	0.0667
444.3426	0.0673
444.5455	0.0663
444.7484	0.0623
444.9513	0.0619
445.1542	0.0691
445.3571	0.0653
445.56	0.0641
445.7628	0.0617
445.9657	0.0683
446.1685	0.0625
446.3713	0.0579
446.5741	0.0605
446.7769	0.0624
446.9797	0.0629
447.1824	0.0568
447.3852	0.0339
447.5879	0.0662
447.7906	0.0499
447.9933	0.0523
448.196	0.0501
448.3986	0.0442
448.6013	0.0418
448.8039	0.0482
449.0066	0.0566
449.2092	0.0505
449.4118	0.0507
449.6143	0.058
449.8169	0.0453
450.0195	0.0525
450.222	0.0476
450.4245	0.041
450.627	0.0468
450.8295	0.0458
451.032	0.0403
451.2345	0.0322
451.4369	0.0425
451.6394	0.0411
451.8418	0.0442
452.0442	0.0367
452.2466	0.0317
452.449	0.0388
452.6513	0.0283
452.8537	0.0332
453.056	0.0325
453.2583	0.0287
453.4607	0.0225
453.663	0.0261
453.8652	0.0227
454.0675	0.0413
454.2697	0.0309
454.472	0.0202
454.6742	0.0322
454.8764	0.0371
455.0786	0.0302
455.2808	0.0292
455.4829	0.0271
455.6851	0.0277
455.8872	0.0225
456.0893	0.0299
456.2915	0.0271
456.4935	0.0291
456.6956	0.0259
456.8977	0.0218
457.0997	0.0348
457.3018	0.0217
457.5038	0.0318
457.7058	0.0238
457.9078	0.0319
458.1098	0.0217
458.3117	0.0291
458.5137	0.0127
458.7156	0.0215
458.9175	0.0266
459.1194	0.0248
459.3213	0.0185
459.5232	0.028
459.725	0.0317
459.9269	0.0184
460.1287	0.015
460.3305	0.0211
460.5323	0.0145
460.7341	0.0142
460.9359	0.0123
461.1376	0.0198
461.3394	0.0197
461.5411	0.0237
461.7428	0.0195
461.9445	0.015
462.1462	0.012
462.3479	0.0173
462.5495	0.0162
462.7512	0.024
462.9528	0.0055
463.1544	0.0144
463.356	0.0091
463.5576	0.0185
463.7592	0.012
463.9607	0.0188
464.1623	0.0064
464.3638	0.0082
464.5653	0.017
464.7668	0.0162
464.9683	0.0097
465.1697	0.0182
465.3712	0.0167
465.5726	0.0162
465.7741	0.0242
465.9755	0.0153
466.1769	0.0107
466.3782	0.0174
466.5796	0.0122
466.7809	0.0191
466.9823	0.0106
467.1836	0.0165
467.3849	0.0167
467.5862	0.0015
467.7875	0.0098
467.9887	0.0181
468.19	0.0126
468.3912	0.01
468.5924	0.0104
468.7936	0.0098
468.9948	0.004
469.196	0.0076
469.3972	0.0088
469.5983	0.0073
469.7994	0.0202
470.0006	0.0179
470.2017	0.006
470.4027	0.0288
470.6038	0.0136
470.8049	0.0099
471.0059	0.0204
471.2069	0.0152
471.408	0.0179
471.6089	0.0143
471.8099	0.0166
472.0109	0.0122
472.2119	0.0181
472.4128	0.0072
472.6137	0.0186
472.8146	0.0141
473.0155	0.0104
473.2164	0.0089
473.4173	0.0056
473.6181	0.0061
473.819	0.0089
474.0198	0.0073
474.2206	-0.0048
474.4214	0.0124
474.6222	-0.0016
474.8229	0.0057
475.0237	0.0163
475.2244	0.0126
475.4251	0.0097
475.6258	0.0069
475.8265	0.0092
476.0272	0.0022
476.2278	0.0105
476.4285	0.0102
476.6291	0.0054
476.8297	0.0134
477.0303	0.0167
477.2309	0.0112
477.4315	0.0132
477.632	-0.0034
477.8326	0.012
478.0331	0.0128
478.2336	0.011
478.4341	0.006
478.6346	0.0005
478.8351	0.004
479.0355	0.0147
479.236	0.0167
479.4364	0.009
479.6368	0.0069
479.8372	0.0024
480.0376	0.0055
480.2379	0.0084
480.4383	0.0191
480.6386	0.0038
480.8389	0.0089
481.0392	0.0074
481.2395	0.0193
481.4398	0.0081
481.6401	0.0053
481.8403	0.0073
482.0405	0.0036
482.2408	0.0084
482.441	0.011
482.6411	0.0154
482.8413	-0.001
483.0415	0.0114
483.2416	0.0067
483.4417	0.0079
483.6419	0.0052
483.8419	0.004
484.042	0.0116
484.2421	0.0007
484.4422	0.0087
484.6422	0.0037
484.8422	0.004
485.0422	0.0102
485.2422	0.0076
485.4422	0.0107
485.6422	0.0047
485.8421	0.0085
486.042	0.0141
486.242	0.0041
486.4419	0.011
486.6417	0.0051
486.8416	0.0114
487.0415	0.0084
487.2413	0.0067
487.4411	0.0112
487.641	0.0122
487.8408	0.0082
488.0405	0.0148
488.2403	0.0051
488.4401	0.0053
488.6398	0.0077
488.8395	0.0058
489.0392	0.0105
489.2389	0.014
489.4386	0.0073
489.6383	0.0141
489.8379	0.0027
490.0376	0.0097
490.2372	0.0029
490.4368	0.0077
490.6364	0.0028
490.836	0.0033
491.0355	0.0049
491.2351	0.0077
491.4346	0.002
491.6341	0.0086
491.8336	0.0148
492.0331	0.005
492.2326	0.0077
492.432	0.0107
492.6315	0.0119
492.8309	0.0085
493.0303	0.0104
493.2297	0.0156
493.4291	0
493.6284	0.0182
493.8278	0.0068
494.0271	0.0182
494.2264	0.0089
494.4257	0.0176
494.625	0.0044
494.8243	-0.0011
495.0236	0.0139
495.2228	0.0119
495.422	0.0082
495.6213	0.0105
495.8205	0.0107
496.0196	0.0104
496.2188	0.0043
496.418	0.0027
496.6171	-0.0014
496.8162	0.0106
497.0153	0.0126
497.2144	0.0118
497.4135	0.0127
497.6126	0.0092
497.8116	0.0039
498.0107	0.0164
498.2097	0.0146
498.4087	0.0072
498.6077	-0.0055
498.8067	0.0067
499.0056	0.0026
499.2046	0.0106
499.4035	0.0056
499.6024	-0.0056
499.8013	0.0099
500.0002	0.0139
500.199	0.0149
500.3979	-0.0001
500.5967	0.0136
500.7956	0.0067
500.9944	0.0109
501.1932	0.0205
501.3919	0.0147
501.5907	0.0087
501.7895	0.0114
501.9882	0.0126
502.1869	0.0143
502.3856	0.0081
502.5843	0.0075
502.783	-0.0016
502.9816	0.0171
503.1803	0.0184
503.3789	0.0076
503.5775	0.0072
503.7761	0.0068
503.9747	0.0148
504.1732	0.0033
504.3718	0.0154
504.5703	0.0099
504.7689	0.0023
504.9674	0.015
505.1658	0.003
505.3643	0.0128
505.5628	0.0123
505.7612	0.0126
505.9597	0.0021
506.1581	0.0056
506.3565	0.0124
506.5549	0.0059
506.7532	0.0036
506.9516	0.0005
507.1499	0.0141
507.3482	0.0059
507.5465	0.009
507.7448	0.0098
507.9431	0.0141
508.1414	0.0088
508.3396	0.0053
508.5379	0.0087
508.7361	0.012
508.9343	0.0067
509.1325	0.0101
509.3306	0.0051
509.5288	0.0032
509.7269	0.0156
509.9251	0.0087
510.1232	0.006
510.3213	0.009
510.5193	0.0123
510.7174	0.0074
510.9154	0.0178
511.1135	0.0047
511.3115	0.0049
511.5095	0.0075
511.7075	0.0092
511.9055	0.0111
512.1034	0.0036
512.3014	0.0006
512.4993	0.0142
512.6972	0.0072
512.8951	0.0152
513.093	0.0019
513.2908	0.0134
513.4887	0.003
513.6865	0.0075
513.8844	0.0246
514.0822	0.0098
514.2799	-0.0003
514.4777	0.0033
514.6755	0.0029
514.8732	0.0045
515.0709	0.004
515.2687	0.0065
515.4664	0.0099
515.664	0.015
515.8617	0.0126
516.0594	0.0058
516.257	0.0062
516.4546	0.0248
516.6522	0.0152
516.8498	0.006
517.0474	0.0158
517.2449	-0.0019
517.4425	0.0115
517.64	0.0167
517.8375	0.0156
518.035	-0.0027
518.2325	0.0016
518.43	0.0009
518.6274	0.018
518.8249	0.0099
519.0223	0.014
519.2197	0.011
519.4171	0.0049
519.6145	0.0128
519.8118	-0.0064
520.0092	0.0035
520.2065	0.0198
520.4038	0.002
520.6011	0.0159
520.7984	0.0162
520.9956	0.0082
521.1929	0.0147
521.3901	0.0113
521.5874	0.009
521.7846	0.0055
521.9818	0.0086
522.1789	0.0113
522.3761	0.0154
522.5732	0.0077
522.7704	-0.0027
522.9675	0.0039
523.1646	-0.0005
523.3617	0.0115
523.5587	0.0018
523.7558	0.0054
523.9528	0.0084
524.1498	0.0039
524.3468	0.0144
524.5438	0.0144
524.7408	0.0084
524.9378	0.0206
525.1347	0.0067
525.3316	0.0039
525.5285	0.003
525.7254	0.0109
525.9223	0.0161
526.1192	0.0185
526.316	0.0051
526.5129	0.0028
526.7097	0.0005
526.9065	0.0095
527.1033	0.008
527.3	-0.0025
527.4968	0.0146
527.6935	-0.0013
527.8903	0.0081
528.087	0.0086
528.2837	0.0085
528.4804	0.0031
528.677	0.01
528.8737	-0.0012
529.0703	0.0086
529.2669	0.0082
529.4635	0.0107
529.6601	0.0059
529.8567	-0.0045
530.0532	0.0108
530.2498	0.0092
530.4463	-0.0053
530.6428	0.0139
530.8393	0.0209
531.0358	0.01
531.2322	0.0101
531.4287	0.0118
531.6251	-0.0067
531.8215	0.0056
532.0179	0.007
532.2143	0.0103
532.4107	0.0088
532.607	0.0087
532.8034	0.0048
532.9997	-0.0009
533.196	0.0108
533.3923	0.0128
533.5886	0.0062
533.7848	0.0008
533.9811	0.0165
534.1773	0.0011
534.3735	0.009
534.5697	0.0064
534.7659	0.0113
534.9621	0.0158
535.1582	0.004
535.3544	0.0093
535.5505	0.0121
535.7466	0.0105
535.9427	0.0039
536.1387	-0.0018
536.3348	0.0076
536.5308	0.0012
536.7269	0.002
536.9229	0.0075
537.1189	0.0173
537.3148	0.0126
537.5108	0.0105
537.7068	0.0121
537.9027	-0.0118
538.0986	0.0158
538.2945	0.0062
538.4904	0.0089
538.6863	0.0075
538.8821	0.0207
539.078	0.0122
539.2738	0.0043
539.4696	0.0029
539.6654	0.0047
539.8611	0.0131
540.0569	0.0068
540.2526	0.009
540.4484	0.0026
540.6441	0.0062
540.8398	0.0117
541.0355	0.0004
541.2311	0.01
541.4268	0.012
541.6224	0.01
541.818	0.0078
542.0136	0.0089
542.2092	0.0114
542.4048	0.0092
542.6003	-0.0047
542.7959	0.0134
542.9914	0.0135
543.1869	0.0104
543.3824	0.0052
543.5779	0.0126
543.7734	0.016
543.9688	0.0106
544.1642	0.008
544.3596	0.009
544.555	0.005
544.7504	0.0171
544.9458	0.0053
545.1411	0.0084
545.3365	0.0114
545.5318	0.0082
545.7271	0.0147
545.9224	0.0029
546.1177	0.0144
546.3129	0.0056
546.5081	-0.0021
546.7034	0.0022
546.8986	0.0075
547.0938	0.0109
547.289	0.0137
547.4841	0.0116
547.6793	0.0122
547.8744	0.0057
548.0695	0.0035
548.2646	0.0117
548.4597	0.0045
548.6548	0.0167
548.8498	0.0033
549.0448	0.0079
549.2399	0.0102
549.4349	0.0099
549.6298	0.0112
549.8248	-0.0025
550.0198	0.0212
550.2147	0.0022
550.4096	0.0037
550.6045	0.0012
550.7994	0.0076
550.9943	0.0133
551.1892	-0.0113
551.384	0.018
551.5788	0.0098
551.7737	0.0073
551.9685	0.0073
552.1632	0.0036
552.358	0.0041
552.5528	0.0148
552.7475	0.0044
552.9422	0.0163
553.1369	0.018
553.3316	0.0107
553.5263	0.0234
553.7209	0.0123
553.9156	0.0064
554.1102	0.0029
554.3048	-0.0002
554.4994	0.0071
554.694	0.0212
554.8885	-0.0005
555.0831	0.0217
555.2776	0.0112
555.4721	0.0106
555.6666	0.0092
555.8611	0.0131
556.0555	0.0105
556.25	0.0098
556.4444	0.0068
556.6388	0.0069
556.8332	0.0069
557.0276	0.0074
557.222	-0.0002
557.4163	0.0083
557.6107	0.0009
557.805	-0.0016
557.9993	0.0097
558.1936	-0.0032
558.3879	0.0103
558.5821	0.0093
558.7764	0.006
558.9706	0.0044
559.1648	0.0116
559.359	-0.0031
559.5532	-0.0006
559.7473	-0.0073
559.9415	0.0084
560.1356	0.0097
560.3297	0.0028
560.5238	0.0197
560.7179	0.0059
560.9119	0.0051
561.106	0.0009
561.3	0.0113
561.494	0.0027
561.688	0.002
561.882	0.0117
562.076	0.0114
562.2699	0.0092
562.4639	0.0146
562.6578	0.0133
562.8517	0.0064
563.0456	0.0148
563.2395	0.012
563.4333	0.0125
563.6272	0.0017
563.821	0.0117
564.0148	0.007
564.2086	0.0117
564.4024	0.0106
564.5961	0.0202
564.7899	0.0121
564.9836	0.0181
565.1773	0.0111
565.371	0.0021
565.5647	0.004
565.7584	0.0214
565.952	0.002
566.1456	0.0097
566.3393	0.0091
566.5329	0.0048
566.7264	0.0175
566.92	0.007
567.1136	0.0089
567.3071	-0.0012
567.5006	0.012
567.6941	0.0073
567.8876	0.0029
568.0811	0.0246
568.2745	-0.0021
568.468	0.0071
568.6614	0.016
568.8548	0.0103
569.0482	0.0098
569.2416	0.0072
569.4349	0.0081
569.6283	0.0029
569.8216	0.0107
570.0149	0.0043
570.2082	0.0118
570.4015	0.0069
570.5947	0.006
570.788	0.0072
570.9812	0.0051
571.1744	0.0107
571.3676	0.0059
571.5608	0.0054
571.754	0.0143
571.9471	0.012
572.1402	0.006
572.3333	0.0136
572.5264	0.0046
572.7195	0.0101
572.9126	0.0039
573.1057	0.0095
573.2987	0.0097
573.4917	0.0069
573.6847	0.005
573.8777	0.0132
574.0707	0.0083
574.2636	0.01
574.4566	0.0031
574.6495	0.0067
574.8424	0.0116
575.0353	0.0119
575.2281	0.0101
575.421	0.0015
575.6138	0.0055
575.8067	0.0091
575.9995	0.0074
576.1923	0.0074
576.385	0.0087
576.5778	0.008
576.7706	0.0086
576.9633	0.0103
577.156	-0.0009
577.3487	0.0087
577.5414	0.0067
577.734	0.0039
577.9267	0.0121
578.1193	0.0078
578.3119	0.005
578.5045	0.0074
578.6971	0.0076
578.8897	0.0054
579.0822	0.0173
579.2747	0.0107
579.4673	0.0063
579.6598	0.0085
579.8522	0.0111
580.0447	0.0127
580.2372	0.0073
580.4296	0.0135
580.622	0.0044
580.8144	0.0074
581.0068	0.0091
581.1992	0.0079
581.3915	0.001
581.5839	0.0072
581.7762	0.0082
581.9685	0.0052
582.1608	0.0062
582.353	0.0061
582.5453	0.0132
582.7375	0.0113
582.9298	0.0056
583.122	0.0062
583.3142	0.0086
583.5063	0.0063
583.6985	0.0052
583.8906	0.0041
584.0827	0.0089
584.2749	0.0038
584.4669	0.0066
584.659	0.0089
584.8511	0.0114
585.0431	0.0077
585.2352	0.0077
585.4272	0.0089
585.6192	0.0098
585.8111	0.0072
586.0031	0.0011
586.195	0.0069
586.387	0.0038
586.5789	0.0109
586.7708	0.0085
586.9627	0.0077
587.1545	0.0096
587.3464	0.0114
587.5382	0.0026
587.73	0.0107
587.9218	0.0069
588.1136	0.0041
588.3053	0.0059
588.4971	0.0065
588.6888	0.0025
588.8805	0.0031
589.0722	0.0154
589.2639	0.0063
589.4556	0.0092
589.6472	0.0094
589.8389	0.0024
590.0305	0.0015
590.2221	0.0143
590.4137	0.0009
590.6052	0.0031
590.7968	0.0114
590.9883	0.0059
591.1798	0.0007
591.3713	0.0062
591.5628	0.0046
591.7543	0.0072
591.9458	0.008
592.1372	0.0034
592.3286	0.0058
592.52	0.0033
592.7114	0.0044
592.9028	0.0083
593.0941	0.0082
593.2855	0.0031
593.4768	0.01
593.6681	0.0111
593.8594	0.0135
594.0506	0.0098
594.2419	0.008
594.4331	0.008
594.6244	0.0011
594.8156	0.0035
595.0067	0.0037
595.1979	0.0057
595.3891	0.0054
595.5802	0.0163
595.7713	0.0068
595.9624	0.015
596.1535	0.003
596.3446	0.0037
596.5357	0.0082
596.7267	0.0041
596.9177	0.0033
597.1087	0.0068
597.2997	0.0082
597.4907	0.0058
597.6817	0.0089
597.8726	0.0091
598.0635	0.004
598.2544	0.0159
598.4453	0.0098
598.6362	0.0115
598.827	0.0053
599.0179	0.0124
599.2087	0.0132
599.3995	0.0147
599.5903	0.0113
599.7811	0.0199
599.9718	0.0086
600.1626	0.0049
600.3533	0.0061
600.544	0.0058
600.7347	0.004
600.9254	0.0115
601.116	0.0067
601.3067	0.0028
601.4973	0.0081
601.6879	0.0053
601.8785	0.0134
602.0691	0.006
602.2596	0.0092
602.4502	0.0112
602.6407	0.0093
602.8312	0.0068
603.0217	0.0058
603.2122	0.0067
603.4027	0.0089
603.5931	0.0022
603.7835	0.013
603.9739	0.0092
604.1643	0.0108
604.3547	0.0105
604.5451	0.0122
604.7354	0.0005
604.9257	0.0051
605.116	0.0045
605.3063	0.0095
605.4966	0.0053
605.6869	0.0155
605.8771	0.01
606.0673	0.0108
606.2575	0.0055
606.4477	0.0136
606.6379	0.0068
606.8281	0.0052
607.0182	0.0024
607.2083	0.0099
607.3985	0.0087
607.5885	0.012
607.7786	0.0089
607.9687	0.0132
608.1587	0.0064
608.3488	0.009
608.5388	-0.0016
608.7288	0.0001
608.9187	0.0053
609.1087	0.0089
609.2986	0.0136
609.4886	0.0105
609.6785	0.0094
609.8684	0.0053
610.0582	0.0031
610.2481	0.0001
610.4379	0.0129
610.6278	0.0096
610.8176	0.0104
611.0074	0.0035
611.1971	0.0027
611.3869	0.0072
611.5766	0.0013
611.7664	0.0127
611.9561	0.0146
612.1458	0.0051
612.3354	0.0033
612.5251	0.0115
612.7147	0.0101
612.9044	0.0041
613.094	0.0039
613.2836	0.0098
613.4731	0.0011
613.6627	0.0077
613.8522	0.0123
614.0417	0.0114
614.2313	0.0058
614.4207	0.0061
614.6102	0.0076
614.7997	0.0126
614.9891	0.0108
615.1785	0.0015
615.3679	0.0079
615.5573	0.008
615.7467	0.0054
615.9361	0.007
616.1254	0.0137
616.3147	0.0059
616.504	0.0045
616.6933	0.0058
616.8826	-0.0037
617.0718	0.0096
617.2611	0.0054
617.4503	0.0028
617.6395	0.0111
617.8287	0.0122
618.0179	0.0017
618.207	0.0129
618.3961	0.0011
618.5853	-0.0005
618.7744	0.009
618.9634	0.0099
619.1525	0.0032
619.3416	-0.0009
619.5306	0.0109
619.7196	0.0095
619.9086	0.004
620.0976	0.0028
620.2866	0.0046
620.4755	-0.0019
620.6645	0.0121
620.8534	0.0181
621.0423	0.0029
621.2312	0.0025
621.42	0.0039
621.6089	0.0041
621.7977	0.0099
621.9865	0.0055
622.1753	0.0018
622.3641	-0.0025
622.5529	0.0044
622.7416	-0.0012
622.9303	0.0031
623.1191	0.0114
623.3078	0.0041
623.4964	0.0022
623.6851	0.0134
623.8737	0.0058
624.0624	-0.001
624.251	0.0073
624.4396	0.0045
624.6282	0.0148
624.8167	0.0002
625.0053	0.0124
625.1938	0.0117
625.3823	0.0143
625.5708	0.0055
625.7593	-0.0006
625.9477	0.0058
626.1362	0.0024
626.3246	0.007
626.513	0.0079
626.7014	-0.0025
626.8898	0.0092
627.0781	0.0027
627.2665	0.0153
627.4548	0.0086
627.6431	0.021
627.8314	0.011
628.0197	0.0115
628.2079	0.0092
628.3962	0.0038
628.5844	0.0005
628.7726	0.0061
628.9608	0.011
629.1489	-0.0013
629.3371	-0.0099
629.5252	0.0044
629.7134	-0.0056
629.9015	0.0109
630.0895	-0.0128
630.2776	0.0108
630.4657	0.0092
630.6537	0.0134
630.8417	-0.0059
631.0297	-0.0004
631.2177	0.0074
631.4057	0.0122
631.5936	0.0005
631.7815	0.0036
631.9695	0.0248
632.1574	0.0248
632.3452	0.0058
632.5331	0.0058
632.7209	0.0259
632.9088	-0.003
633.0966	0.0253
633.2844	0.0043
633.4722	0.0042
633.6599	0.0249
633.8477	0.008
634.0354	0.013
634.2231	-0.0049
634.4108	0.0151
634.5985	0.0203
634.7861	0.0051
634.9738	-0.0001
635.1614	0.0078
635.349	-0.0019
635.5366	0.0084
635.7242	0.0013
635.9117	-0.0098
636.0993	0.0197
636.2868	0.0076
636.4743	0.0042
636.6618	-0.0056
636.8492	0.0117
637.0367	-0.0081
637.2241	-0.0065
637.4115	0.024
637.5989	-0.0019
637.7863	0.0299
637.9737	0.0045
638.161	0.0077
638.3484	-0.0022
638.5357	-0.0071
638.723	0.0347
638.9103	-0.0095
639.0975	0.0104
639.2848	0.0204
639.472	0.0062
639.6592	-0.0171
639.8464	0.0035
640.0336	0.0058
640.2208	-0.0001
640.4079	-0.0053
640.595	-0.0108
640.7821	0.0154
640.9692	-0.0097
641.1563	0.0163
641.3434	0.003
641.5304	0.0305
641.7174	0.0117
641.9044	0.0071
642.0914	0.019
642.2784	0.0004
642.4653	-0.0062
642.6523	0.0155
642.8392	-0.0019
643.0261	0.0099
643.213	0.0041
643.3999	0.0105
643.5867	0.0114
643.7735	-0.002
643.9604	0.0288
644.1472	0.0119
644.3339	0.0097
644.5207	0.0004
644.7075	0.012
644.8942	-0.0062
645.0809	0.0056
645.2676	0.0011
645.4543	-0.0008
645.6409	0.0198
645.8276	0.0246
646.0142	0.0175
646.2008	-0.0023
646.3874	-0.0135
646.574	0.015
646.7605	0.0067
646.9471	-0.0116
647.1336	-0.0196
647.3201	0.0202
647.5066	0.0034
647.6931	-0.0149
647.8795	0.013
648.0659	0.0111
648.2524	0.0134
648.4388	0.0003
648.6252	0.0174
648.8115	0.0132
648.9979	0.0122
649.1842	0.0115
649.3705	0.0234
649.5568	-0.0189
649.7431	0.0001
649.9294	0.0036
650.1156	-0.01
650.3018	0.0124
650.488	0.0094
650.6742	0.0271
650.8604	0.015
651.0466	-0.0042
651.2327	-0.0117
651.4188	0.0111
651.6049	0.0246
651.791	0.004
651.9771	0.012
652.1632	0.0089
652.3492	0.004
652.5352	0.0342
652.7212	0.0011
652.9072	0.0034
653.0932	0.0146
653.2791	-0.0115
653.465	0.0137
653.651	0.008
653.8369	0.0166
654.0227	-0.0087
654.2086	-0.01
654.3944	0.0127
654.5803	0.0073
654.7661	0.0077
654.9519	0.0023
655.1377	-0
655.3234	-0
655.5092	-0
655.6949	-0
655.8806	-0
656.0663	-0
656.2519	-0
656.4376	-0
656.6232	-0
656.8088	-0
656.9945	-0
657.18	-0
657.3656	-0
657.5511	-0
657.7367	-0
657.9222	-0
658.1077	-0
658.2932	-0
658.4786	-0
658.6641	-0
658.8495	-0
659.0349	-0
659.2203	-0
659.4057	0.013
659.591	0.3013
659.7764	0.0353
659.9617	0.0171
660.147	-0.0019
660.3323	-0.0071
660.5176	0.0027
660.7028	-0.0081
660.888	0.0017
661.0733	0.0217
661.2585	0.0048
661.4436	0.0147
661.6288	0.0209
661.8139	-0.0095
661.9991	-0.0115
662.1842	-0.0126
662.3693	-0.0178
662.5544	0.0022
662.7394	0.0113
662.9245	-0.0115
663.1095	-0.0119
663.2945	-0.0112
663.4795	0.001
663.6644	-0.0154
663.8494	-0.0121
664.0343	0.0136
664.2193	-0.0032
664.4042	0.0061
664.589	0.0036
664.7739	-0.0025
664.9587	-0.0166
665.1436	-0.0045
665.3284	0.0059
665.5132	-0.0161
665.698	0.0168
665.8827	0.0247
666.0675	0.0169
666.2522	0.008
666.4369	0.0111
666.6216	-0.0148
666.8063	0.0098
666.9909	0.0087
667.1756	-0.0083
667.3602	-0.0172
667.5448	0.0191
667.7294	0.0138
667.9139	-0.0188
668.0985	0.0325
668.283	0.0002
668.4675	0.0062
668.652	0.0143
668.8365	-0.0008
669.0209	0.0077
669.2054	0.0177
669.3898	0.0094
669.5742	0.0107
669.7586	0.005
669.943	-0.0056
670.1273	-0.0104
670.3117	0.0057
670.496	-0.0027
670.6803	0.0103
670.8646	-0.0102
671.0488	0.0226
671.2331	-0.0252
671.4173	-0.0031
671.6015	-0.0069
671.7857	0.0023
671.9699	0.0182
672.1541	0.0059
672.3382	0.0038
672.5223	0.0068
672.7064	-0.0021
672.8905	-0.0103
673.0746	0.0088
673.2587	0.0127
673.4427	0.0074
673.6267	0.0141
673.8107	0.0145
673.9947	0.015
674.1787	0.0069
674.3626	0.0062
674.5465	0.0147
674.7304	-0.0053
674.9143	0.0122
675.0982	-0.0038
675.2821	-0.0165
675.4659	-0.0132
675.6497	0.0105
675.8335	0.0026
676.0173	0.0005
676.2011	0.0129
676.3849	-0.0052
676.5686	0.0031
676.7523	-0.006
676.936	-0.0057
677.1197	-0.0085
677.3034	0.0293
677.487	0.0067
677.6706	0.0187
677.8542	0.0051
678.0378	0.0182
678.2214	-0.0012
678.405	0.0265
678.5885	0.0103
678.772	0.0067
678.9555	-0.012
679.139	-0.0012
679.3225	0.0026
679.5059	0.0086
679.6894	0.0053
679.8728	-0.0068
680.0562	0.0105
680.2395	-0.0087
680.4229	0.0077
680.6062	-0.0001
680.7896	0.0016
680.9729	0.0267
681.1562	0.0039
681.3394	0.0109
681.5227	0.0089
681.7059	0.0192
681.8891	0.0153
682.0723	0.0037
682.2555	-0.01
682.4387	-0.0043
682.6218	0.0082
682.805	0.008
682.9881	0.0135
683.1712	0.0113
683.3542	0.0262
683.5373	-0.0086
683.7203	0.0102
683.9034	0.0037
684.0864	0.0091
684.2694	0.0195
684.4523	0.015
684.6353	0.0136
684.8182	0.001
685.0011	0.0108
685.184	0.0041
685.3669	0.0212
685.5498	-0.006
685.7326	-0.0099
685.9154	-0.0097
686.0982	0.0289
686.281	-0.007
686.4638	0.0003
686.6465	-0.0003
686.8293	-0.0181
687.012	0.0117
687.1947	0.0029
687.3774	-0.0024
687.56	-0.0151
687.7427	0.0004
687.9253	-0.0111
688.1079	0.0079
688.2905	-0.007
688.4731	0.0273
688.6556	-0.0043
688.8382	-0.034
689.0207	-0.0031
689.2032	0.0139
689.3857	0.013
689.5681	0.0052
689.7506	0.0201
689.933	-0.0087
690.1154	0.0131
690.2978	-0.0009
690.4802	0.004
690.6626	-0.001
690.8449	0.0066
691.0272	-0.0077
691.2095	-0.0228
691.3918	0.008
691.5741	0.0013
691.7563	0.0186
691.9386	-0.0017
692.1208	-0.0064
692.303	-0.0078
692.4852	0.0059
692.6673	-0.0043
692.8495	0.0019
693.0316	0.0098
693.2137	-0.0018
693.3958	0.008
693.5778	0.0127
693.7599	0.0201
693.9419	-0.0046
694.1239	-0.0012
694.3059	0.0125
694.4879	0.0033
694.6699	-0.0085
694.8518	0.0061
695.0337	0.0232
695.2157	0.0265
695.3975	-0.003
695.5794	-0.0194
695.7613	-0.0021
695.9431	-0.0087
696.1249	-0.0001
696.3067	-0.0168
696.4885	0.007
696.6703	0.0146
696.852	0.0078
697.0337	0.0228
697.2154	0.0088
697.3971	0.0064
697.5788	0.0071
697.7605	-0.008
697.9421	0.0228
698.1237	0.0227
698.3053	-0.0185
698.4869	-0.0022
698.6685	-0.0081
698.85	0.0066
699.0315	0.0116
699.213	0.0286
699.3945	0.0026
699.576	0.0154
699.7575	0.0042
699.9389	-0.0021
700.1203	-0.0045
700.3017	-0.0009
700.4831	0.0318
700.6645	0.0391
700.8458	-0.0172
701.0271	0.0307
701.2084	0.0042
701.3897	0.0002
701.571	-0.0272
701.7523	-0.0049
701.9335	-0.0102
702.1147	0.0259
702.2959	-0.0026
702.4771	0.0166
702.6583	0.0189
702.8394	-0.0183
703.0205	0.0082
703.2016	0.0071
703.3827	-0.0078
703.5638	0.0113
703.7449	0.0149
703.9259	0.0068
704.1069	-0.0002
704.2879	0.0133
704.4689	-0.0006
704.6499	0.0085
704.8308	0.0197
705.0117	0.0185
705.1927	0.0102
705.3735	-0.0045
705.5544	0.0126
705.7353	0.0011
705.9161	-0.0141
706.0969	0.0163
706.2777	0.0036
706.4585	0.013
706.6393	0.0023
706.82	-0.0036
707.0007	0.003
707.1815	0.0099
707.3621	0.0192
707.5428	0.0242
707.7235	0.0132
707.9041	0.0027
708.0847	0.0239
708.2653	0.0183
708.4459	0.0041
708.6265	-0.024
708.807	0.0082
708.9875	0.0054
709.168	-0.0127
709.3485	0.0099
709.529	-0.0001
709.7095	-0.0143
709.8899	0.0041
710.0703	0.0163
710.2507	-0.0072
710.4311	-0.044
710.6115	0.0283
710.7918	0.0002
710.9721	0.0026
711.1524	-0.0125
711.3327	-0.0126
711.513	0.0075
711.6932	-0.0192
711.8735	0.0372
712.0537	-0.022
712.2339	-0.0042
712.4141	0.0178
712.5942	-0.012
712.7744	0.015
712.9545	0.0073
713.1346	0.0051
713.3147	0.0053
713.4947	0.0002
713.6748	0.0025
713.8548	0.0363
714.0348	-0.0033
714.2148	0.0178
714.3948	0.0183
714.5748	0.029
714.7547	0.0178
714.9346	0.0349
715.1145	-0.0122
715.2944	-0.0179
715.4743	0.0094
715.6541	-0.0137
715.834	0.0184
716.0138	0.0094
716.1936	0.0019
716.3733	-0.0077
716.5531	-0.0087
716.7328	0.027
716.9126	0.013
717.0923	-0.0264
717.2719	0.0044
717.4516	-0.0041
717.6312	0.0002
717.8109	0.029
717.9905	0.0166
718.1701	0.0054
718.3496	-0.022
718.5292	-0.0153
718.7087	0.01
718.8882	0.0049
719.0677	0.0155
719.2472	-0.0105
719.4267	0.0032
719.6061	-0.0116
719.7856	0.0272
719.965	0.0183
720.1443	-0.0289
720.3237	-0.0122
720.5031	0.0185
720.6824	-0.0088
720.8617	-0.0145
721.041	0.0222
721.2203	-0.0218
721.3995	-0.0017
721.5788	-0.0114
721.758	-0.0014
721.9372	-0.0156
722.1164	-0.0027
722.2956	-0.0037
722.4747	0.0177
722.6538	-0.0132
722.8329	0.0245
723.012	-0.0031
723.1911	0.0162
723.3702	0.0144
723.5492	-0.0124
723.7282	0.0165
723.9072	-0.0086
724.0862	0.0075
724.2652	-0.017
724.4441	-0.0022
724.623	0.0017
724.8019	-0.0156
724.9808	0.0346
725.1597	-0.0181
725.3385	0.0146
725.5174	0.0105
725.6962	-0.0069
725.875	0.0035
726.0538	0.0114
726.2325	0.0042
726.4112	-0.0216
726.59	-0.0299
726.7687	0.0132
726.9474	-0.0094
727.126	0.0075
727.3047	-0.0049
727.4833	0.0159
727.6619	-0.0016
727.8405	0.0095
728.0191	0.016
728.1976	0.0077
728.3762	0.0045
728.5547	0.005
728.7332	-0.0029
728.9116	-0.0085
729.0901	0.0169
729.2686	0.0201
729.447	-0.0117
729.6254	-0.0119
729.8038	-0.0082
729.9821	-0.0101
730.1605	0.013
730.3388	0.003
730.5171	0.0086
730.6954	-0.0077
730.8737	-0.0067
731.0519	0.004
731.2302	0.0061
731.4084	0.0041
731.5866	-0.0104
731.7648	-0.0142
731.9429	0.0104
732.1211	0.0028
732.2992	-0.0234
732.4773	-0.0001
732.6554	-0.0052
732.8335	0.0079
733.0115	0.0119
733.1896	-0.0308
733.3676	0.022
733.5456	-0.008
733.7235	0.005
733.9015	0.0196
734.0794	0.0001
734.2574	0.0014
734.4353	-0.0038
734.6131	0.0078
734.791	-0.0134
734.9689	-0.0155
735.1467	-0.0113
735.3245	0.0094
735.5023	0.0097
735.68	0.0188
735.8578	0.0138
736.0355	0.0004
736.2132	0.0136
736.3909	0.0106
736.5686	-0.0023
736.7463	-0.0004
736.9239	0.0177
737.1015	0.0049
737.2791	0.0121
737.4567	-0.0234
737.6343	-0.0107
737.8118	0.0145
737.9894	0.0069
738.1669	-0.0103
738.3444	0.0277
738.5218	-0.0169
738.6993	0.0053
738.8767	0.0049
739.0541	-0.0033
739.2315	-0.0009
739.4089	0.019
739.5863	-0.0042
739.7636	-0.0015
739.9409	-0.0038
740.1182	-0.0171
740.2955	0.0112
740.4728	-0.0062
740.65	0.0159
740.8272	-0.0075
741.0044	-0.0254
741.1816	0.0238
741.3588	-0.032
741.5359	-0.024
741.7131	-0.0094
741.8902	0.0116
742.0673	-0.0104
742.2444	0.0295
742.4214	0.0204
742.5985	-0.0225
742.7755	-0.0062
742.9525	-0.0088
743.1295	-0.0308
743.3064	-0.0084
743.4834	-0.0253
743.6603	0.05
743.8372	-0.0384
744.0141	0.0383
744.191	0.0253
744.3678	-0.0483
744.5446	-0.0042
744.7215	0.0016
744.8982	0.0143
745.075	0.041
745.2518	0.0053
745.4285	0.0236
745.6052	-0.0414
745.7819	-0.0025
745.9586	0.0192
746.1353	0.0039
746.3119	0.0234
746.4885	0.0083
746.6651	0.0003
746.8417	0.0131
747.0183	0.0239
747.1948	0.0224
747.3714	-0.023
747.5479	0.009
747.7244	-0.036
747.9008	0.0122
748.0773	0.0282
748.2537	0.0036
748.4301	0.0151
748.6065	-0.0069
748.7829	-0.0358
748.9593	0.0107
749.1356	-0.0097
749.3119	-0.008
749.4882	0.0176
749.6645	0.0187
749.8408	0.012
750.017	0.006
750.1933	-0.0226
750.3695	0.0219
750.5457	-0.0005
750.7218	-0.0008
750.898	0.0053
751.0741	0.0076
751.2502	-0.0047
751.4263	-0.0033
751.6024	-0.0081
751.7784	-0.0153
751.9545	0.0171
752.1305	-0.0095
752.3065	0.0073
752.4825	-0.0231
752.6584	-0.0071
752.8344	0.0061
753.0103	-0.0216
753.1862	0.003
753.3621	0.0203
753.5379	-0.0097
753.7138	0.0175
753.8896	0.0009
754.0654	-0.0092
754.2412	0.0132
754.417	0.0286
754.5927	0.0074
754.7685	-0.0083
754.9442	0.0075
755.1199	0.021
755.2956	0.0064
755.4712	-0.0173
755.6469	0.0007
755.8225	0.0181
755.9981	-0.0032
756.1736	0.0182
756.3492	0.0021
756.5248	0.021
756.7003	-0.0101
756.8758	0.0129
757.0513	-0.0041
757.2267	0.0042
757.4022	-0.0141
757.5776	-0.0066
757.753	0.0121
757.9284	-0.0059
758.1038	0.0147
758.2791	0.0237
758.4545	-0.0016
758.6298	0.0118
758.8051	0.0193
758.9803	0.0221
759.1556	0.0054
759.3308	-0.0023
759.506	-0.011
759.6812	0.0064
759.8564	0.0172
760.0316	-0.007
760.2067	0.0214
760.3819	0.0013
760.557	0.0005
760.732	0.0006
760.9071	0.0072
761.0821	-0.0157
761.2572	0.0296
761.4322	0.0202
761.6072	0.0046
761.7821	-0.013
761.9571	0.0027
762.132	-0.0002
762.3069	0.0038
762.4818	-0.0036
762.6567	-0.0088
762.8316	0.0033
763.0064	0.0066
763.1812	-0.0133
763.356	-0.0005
763.5308	0.0152
763.7055	-0.0072
763.8803	0.0044
764.055	-0.0034
764.2297	-0.008
764.4044	-0.0138
764.579	0.011
764.7537	0.0018
764.9283	-0.021
765.1029	0.0042
765.2775	0.0004
765.4521	0.0177
765.6266	-0.0136
765.8011	0.014
765.9756	0.032
766.1501	-0.0155
766.3246	0.0264
766.4991	0.0017
766.6735	0.0295
766.8479	-0.0092
767.0223	-0.0013
767.1967	-0.0141
767.371	-0.0291
767.5454	0.005
767.7197	0.0036
767.894	-0.0085
768.0683	0.0277
768.2425	0.0051
768.4168	-0.0142
768.591	-0.0008
768.7652	-0.0039
768.9394	-0.0119
769.1135	-0.0163
769.2877	0.0243
769.4618	0.0109
769.6359	-0.0031
769.81	0.0031
769.984	-0.0102
770.1581	0.0013
770.3321	0.0319
770.5061	0.0166
770.6801	-0.0028
770.8541	0.0005
771.028	0.0335
771.202	0.0152
771.3759	0.0216
771.5498	-0.0043
771.7236	0.0139
771.8975	0.0339
772.0713	0.0301
772.2451	-0.0258
772.4189	0.0284
772.5927	-0.0188
772.7665	-0.0149
772.9402	0.0125
773.1139	0.0025
773.2876	-0.0196
773.4613	-0.0108
773.635	0.0331
773.8086	0.0423
773.9822	0.0276
774.1558	0.0009
774.3294	-0.0336
774.503	0.0195
774.6765	0.0135
774.8501	-0.0254
775.0236	0.0205
775.1971	-0.0334
775.3705	-0.0289
775.544	-0.0316
775.7174	-0.0108
775.8908	0.0084
776.0642	-0.022
776.2376	0.0038
776.4109	-0.0229
776.5843	-0.0243
776.7576	-0.0046
776.9309	0.0642
777.1041	0.0122
777.2774	-0.0237
777.4506	-0.0122
777.6238	-0.0468
777.797	0.0154
777.9702	0.0191
778.1434	-0.0272
778.3165	-0.0317
778.4896	-0.0294
778.6627	0.0088
778.8358	-0.0342
779.0089	0.0138
779.1819	-0.0392
779.3549	0.005
779.5279	-0.0218
779.7009	0.0259
779.8739	0.0168
780.0468	0.0289
780.2197	0.0251
780.3926	-0.0074
780.5655	-0.0071
780.7384	0.0076
780.9112	0.0299
781.0841	0.0101
781.2569	0.0098
781.4297	-0.0083
781.6024	0.0141
781.7752	0.0397
781.9479	0.0181
782.1206	0.0231
782.2933	0.0095
782.466	0.0116
782.6386	-0.0247
782.8113	-0.0054
782.9839	-0.0078
783.1565	0.0009
783.329	0.0015
783.5016	0.0043
783.6741	0.0071
783.8466	0.0274
784.0191	-0.0196
784.1916	0.0013
784.3641	-0.0662
784.5365	-0.0311
784.7089	-0.0363
784.8813	0.0064
785.0537	0.0316
785.2261	0.0432
785.3984	-0.0172
785.5707	-0.0069
785.743	-0.0023
785.9153	-0.0134
786.0876	-0.0182
786.2598	-0.004
786.432	0.0079
786.6042	0.0182
786.7764	-0.0059
786.9486	0.0011
787.1207	0.0549
787.2928	0.0455
787.4649	0.0115
787.637	0.0027
787.8091	-0.0169
787.9811	0.0353
788.1532	0.0318
788.3252	0.0145
788.4972	-0.0138
788.6691	0.008
788.8411	-0.022
789.013	-0.0071
789.1849	-0.0324
789.3568	0.0076
789.5287	0.059
789.7005	-0.0234
789.8723	-0.0337
790.0442	-0.0198
790.2159	0.0111
790.3877	0.0141
790.5595	0.0016
790.7312	-0.0303
790.9029	-0.072
791.0746	-0.0373
791.2463	-0.0651
791.4179	0.0092
791.5896	0.0495
791.7612	-0.0161
791.9328	-0.0306
792.1044	0.0018
792.2759	-0.0616
792.4474	-0.0231
792.619	-0.0558
792.7905	0.0064
792.9619	0.0069
793.1334	0.0509
793.3048	0.029
793.4762	0.0346
793.6476	-0.0151
793.819	-0.0049
793.9904	0.0022
794.1617	0.013
794.333	0.0297
794.5043	0.0067
794.6756	-0.0116
794.8469	0.0146
795.0181	0.0131
795.1893	0.0117
795.3605	0.0501
795.5317	-0.0098
795.7029	-0.0217
795.874	-0.0059
796.0452	0.0006
796.2163	0.0488
796.3873	0.0754
796.5584	0.0074
796.7294	0.0039
796.9005	0.0158
797.0715	-0.0007
797.2425	0.024
797.4134	0.043
797.5844	0.0342
797.7553	-0.0483
797.9262	0.0336
798.0971	-0.0076
798.2679	0.0295
798.4388	-0.0213
798.6096	0.0671
798.7804	0.0284
798.9512	0.0077
799.122	-0.0326
799.2927	0.0089
799.4635	-0.0703
799.6342	0.0377
799.8049	0.0237
799.9755	-0.0817
800.1462	0.0161
800.3168	0.0293
800.4874	-0.1305
800.658	0.0593
800.8286	-0.0232
800.9991	0.0186
801.1696	-0.0513
801.3402	-0.0185
801.5106	-0.0428
801.6811	0.048
801.8516	0.061
802.022	-0.0299
802.1924	-0.0071
802.3628	0.06
802.5332	0.0261
802.7035	0.1227
802.8739	0.0484
803.0442	-0.0883
803.2145	0.016
803.3847	0.0281
803.555	0.0517
803.7252	-0.0043
803.8954	-0.0136
804.0656	-0.0255
804.2358	-0.0272
804.4059	0.0826
804.5761	0.0326
804.7462	0.0097
804.9163	-0.01
805.0864	-0.0042
805.2564	-0.0623
805.4264	-0.04
805.5965	0.0744
805.7665	-0.0199
805.9364	0.04
806.1064	-0.0109
806.2763	0.0401
806.4462	0.0024
806.6161	0.039
806.786	-0.0151
806.9559	0.0015
807.1257	-0.0144
807.2955	-0.0116
807.4653	-0.0052
807.6351	0.0885
807.8048	0.0499
807.9746	0.0593
808.1443	-0.038
808.314	-0.0254
808.4837	0.0345
808.6533	0.0201
808.8229	0.0149
808.9926	-0.0282
809.1622	0.0323
809.3317	-0.1
809.5013	-0.029
809.6708	0.0128
809.8403	0.0808
810.0098	-0.0509
810.1793	-0.0132
810.3488	0.007
810.5182	0.1243
810.6876	-0.0027
810.857	-0.0203
811.0264	-0.1132
811.1958	0.0187
811.3651	0.0487
811.5344	-0.0109
811.7037	0.0156
811.873	0.0544
812.0422	-0.0928
812.2115	-0.0192
812.3807	-0.1198
812.5499	0.0015
812.7191	-0.1236
812.8882	-0.0256
813.0574	-0.0312
813.2265	-0.0092
813.3956	0.0182
813.5646	-0.0419
813.7337	0.0405
813.9027	-0.0725
814.0718	0.0079
814.2407	-0.0164
814.4097	0.0475
814.5787	0.0509
814.7476	-0.0049
814.9165	0.0132
815.0854	-0.0387
815.2543	-0.0148
815.4232	0.0817
815.592	0.1099
815.7608	0.0317
815.9296	0.0366
816.0984	0.0164
816.2671	-0.2941
816.4359	0.0822
816.6046	0.0302
816.7733	0.0938
816.942	-0.1274
817.1106	0.0249
817.2793	-0.0423
817.4479	-0.1212
817.6165	0.0569
817.785	-0.012
817.9536	-0.0488
818.1221	0.093
818.2906	-0.1819
818.4591	0.0337
818.6276	-0.081
818.7961	-0.0821
818.9645	0.1114
819.1329	0.0708
819.3013	-0.1271
819.4697	-0.1245
819.638	0.0454
819.8064	0.0469
819.9747	0.1448
820.143	-0.0056
820.3113	0.0146
820.4795	0.1274
820.6477	0.066
820.816	0.086
820.9842	-0.0185
821.1523	0.0277
821.3205	0.0198
821.4886	-0.1369
821.6567	-0.0897
821.8248	0.0731
821.9929	-0.1843
822.1609	-0.0488
822.329	0.0942
822.497	-0.0179
822.665	-0.0613
822.833	0.1184
823.0009	-0.0479
823.1688	0.0666
823.3367	-0.0914
823.5046	-0.0119
823.6725	0.0851
823.8404	0.0126
824.0082	-0.0319
824.176	-0.007
824.3438	-0.0144
824.5116	-0.0439
824.6793	0.0357
824.847	0.2292
825.0147	0.1015
825.1824	-0.0213
825.3501	-0.0448
825.5177	0.0348
825.6854	-0.0669
825.853	0.0056
826.0206	-0.1228
826.1881	-0.0051
826.3557	-0.162
826.5232	0.0933
826.6907	0.0109
826.8582	-0.1835
827.0257	-0.0205
827.1931	0.0272
827.3605	-0.0416
827.528	0.1662
827.6953	-0.2851
827.8627	-0.0685
828.03	0.1357
828.1974	-0.0721
828.3647	0.1302
828.532	-0.0637
828.6992	0.0964
828.8665	-0.1082
829.0337	0.0215
829.2009	-0.0898
829.3681	-0.0378
829.5352	-0.2652
829.7024	0.2739
829.8695	-0.1864
830.0366	0.0863
830.2037	0.0945
830.3707	0.0307
830.5378	-0.0341
830.7048	-0.097
830.8718	-0.0978
831.0388	0.0665
831.2057	0.0694
831.3727	-0.2365
831.5396	0.2895
831.7065	-0.7434
831.8734	-0.0818
832.0402	0.0625
832.2071	-0.6686
832.3739	-0.0271
832.5407	-1.9823
832.7075	-0.448
832.8742	-0.0338
833.041	0.1692
833.2077	0.3483
833.3744	0.1888
833.541	0.0418
833.7077	-0.3036
833.8743	0.1288
834.0409	0.0605
834.2075	0.1624
834.3741	-0.119
834.5407	-0.0678
834.7072	-0.0398
834.8737	0.1916
835.0402	0.5939
835.2067	-0.0283
835.3731	0.0142
835.5395	-0.0196
835.706	-0.295
835.8723	0.0744
836.0387	-0.0267
836.2051	-0.0344
836.3714	-0.1051
836.5377	-0.2314
836.704	0.0883
836.8703	-0.0592
837.0365	-0.9125
837.2027	1.2599
837.3689	0.0573
837.5351	-0.0361
837.7013	-0.3338
837.8674	-0.2574
838.0335	0.1159
838.1997	0.0698
838.3657	-0
838.5318	-0.5235
838.6978	0.2302
838.8639	-0.2991
839.0299	-0.0479
839.1958	0.2946
839.3618	-0
839.5277	-0.118
839.6937	0.1565
839.8596	-0.249
840.0254	0.194
840.1913	-0.2815
840.3571	-0.1531
840.523	-1.4942
840.6888	-0.1103
840.8545	-0.5604
841.0203	0.1873
841.186	-0.2656
841.3517	-0.2612
841.5174	0.2267
841.6831	-0.1498
841.8488	0.1104
842.0144	1.6492
842.18	0.2183
842.3456	-0.6162
842.5112	-0
842.6767	0.0265
842.8422	-0.1388
843.0077	-0.0096
843.1732	-0.0482
843.3387	0.3991
843.5042	-0
843.6696	-0.0624
843.835	0.3927
844.0004	0.1241
844.1657	-0.5786
844.3311	0.8916
844.4964	-0
844.6617	1.1731
844.827	-0
844.9923	0.1598
845.1575	0.491
845.3227	-0.4141
845.4879	0.5455
845.6531	0.0542
845.8183	-0.0038
845.9834	-0
846.1485	0.25
846.3136	-0.3441
846.4787	-0
846.6438	-0.3131
846.8088	-0
846.9738	-0
847.1388	0.1882
847.3038	-0.043
847.4687	-0
847.6337	-0.1795
847.7986	-0.1866
847.9635	-0.124
848.1284	-0
848.2932	0.4439
848.458	-0
848.6228	-0.161
848.7876	-0
848.9524	0.2879
849.1172	-1.8251
849.2819	-0.4849
849.4466	0.8548
849.6113	0.2666
849.7759	-0.652
849.9406	-0.1736
850.1052	-0.5786
850.2698	-0
850.4344	-0.6387
850.599	0.8005
850.7635	0.0228
850.928	-0
851.0925	1.054
851.257	-0.2113
851.4215	0.0231
851.5859	-0.133
851.7503	-0
851.9147	0.3188
852.0791	0.2126
852.2434	-0.034
852.4078	-0
852.5721	-0
852.7364	-0.0245
852.9007	-0.162
853.0649	-0
853.2291	0.1911
853.3934	-0
853.5575	0.2528
853.7217	0.1822
853.8859	-0.4667
854.05	-0.7187
854.2141	0.4134
854.3782	-0.308
854.5423	0.0147
854.7063	-0.1026
854.8703	0.0882
855.0343	0.0508
855.1983	0.0527
855.3623	-0.0357
855.5262	-0
855.6901	0.3777
855.854	-0.12
856.0179	-0.3447
856.1818	0.327
856.3456	0.0641
856.5094	-0.6226
856.6732	-0.3407
856.837	-1.3038
857.0008	-0.3886
857.1645	-0.1553
857.3282	-0.6215
857.4919	-0.1243
857.6556	-0.5108
857.8192	-0.1949
857.9828	-0.2769
858.1465	-0.1271
858.31	-0
858.4736	-0.7226
858.6372	-0.3329
858.8007	0.4597
858.9642	0.5167
859.1277	1.9315
859.2911	-0.4975
859.4546	-0
859.618	0.185
859.7814	-0.365
859.9448	0.7426
860.1081	-0
860.2715	-1.6143
860.4348	0.2251
860.5981	0.2566
860.7614	-0
860.9246	0.0076
861.0879	-0.1379
861.2511	0.6451
861.4143	-0.0378
861.5774	-0.3947
861.7406	-0.2891
861.9037	-0.6465
862.0668	0.0591
862.2299	-0.0063
862.393	-0
862.556	-0
862.7191	-0.1691
862.8821	0.0673
863.0451	-0.1062
863.208	-0.2012
863.371	-0.7987
863.5339	0.1497
863.6968	0.4042
863.8597	-0
864.0225	0.6145
864.1854	-0
864.3482	-0
864.511	-0.1654
864.6737	-0
864.8365	0.0519
864.9992	-0
865.1619	-0.5063
865.3246	-1.0792
865.4873	-0.5825
865.65	0.0293
865.8126	0.5588
865.9752	-0.3575
866.1378	-0.1117
866.3004	-0.2763
866.4629	-1.99
866.6254	-0.3833
866.7879	0.2721
866.9504	0.0635
867.1129	0.0177
867.2753	-0.0257
867.4377	0.2257
867.6001	-0.7651
867.7625	-0.1507
867.9249	-0.0612
868.0872	-0.3501
868.2495	0.6944
868.4118	-0.2303
868.5741	-0.3451
868.7363	-0
868.8986	-0.3971
869.0608	-0
869.223	-0.5572
869.3851	-0
869.5473	0.1358
869.7094	0.2076
869.8715	-0
870.0336	0.0375
870.1957	-0.8088
870.3577	0.1767
870.5197	-0.206
870.6817	-1.0624
870.8437	-0.3947
871.0057	0.244
871.1676	0.0961
871.3295	-0
871.4914	-0
871.6533	-0.1511
871.8151	-0
871.977	0.1513
872.1388	-0
872.3006	-0.4317
872.4623	-0.7613
872.6241	-0
872.7858	0.0875
872.9475	-0
873.1092	0.0391
873.2709	14.5489
873.4325	-1.6965
873.5941	-0.5215
873.7557	0.3571
873.9173	-0
874.0789	0.0957
874.2404	-0
874.4019	-0.2559
874.5634	-0
874.7249	0.1923
874.8863	-0
875.0478	-0.4265
875.2092	0.5816
875.3706	-0
875.5319	0.643
875.6933	-0.1166
875.8546	-0.5685
876.0159	0.1616
876.1772	-0.0599
876.3385	-0
876.4997	0.3855
876.6609	-0.3086
876.8221	-0
876.9833	0.4475
877.1445	0.4204
877.3056	-1.3282
877.4667	-0
877.6278	-0
877.7889	-0
877.9499	0.0658
878.111	-0.7112
878.272	-0
878.433	1.3726
878.5939	-0
878.7549	0.1779
878.9158	0.3765
879.0767	-0
879.2376	-0.3152
879.3984	-0
879.5593	0.2234
879.7201	-1.5958
879.8809	-0.4138
880.0417	-0.1551
880.2024	0.2795
880.3632	-0.5796
880.5239	0.5452
880.6846	0.3316
880.8452	0.7458
881.0059	-0.7639
881.1665	-0.1332
881.3271	-0
881.4877	0.3731
881.6483	-0.8487
881.8088	-0
881.9693	-0
882.1298	-0
882.2903	-0
