Data from D4ACN5uM420nmA_Absorbance_14-37-09-342.txt Node
Date: Fri Feb 21 14:37:09 GMT 2025
User: LASERRRRR
Spectrometer: FLMT03099
Trigger mode: 0
Integration Time (sec): 1.500000E-2
Scans to average: 1
Electric dark correction enabled: true
Nonlinearity correction enabled: false
Boxcar width: 0
XAxis mode: Wavelengths
Number of Pixels in Spectrum: 3648
>>>>>Begin Spectral Data<<<<<
179.3399	-0.4576
179.5586	-0.4576
179.7771	-0.4576
179.9957	-0.1352
180.2143	-0
180.4329	0.0189
180.6514	-0
180.8699	-0
181.0885	-0
181.307	-0
181.5255	0.715
181.744	-0
181.9625	0.5898
182.181	0.8568
182.3994	-0.8251
182.6179	1.576
182.8363	-0
183.0547	0.0323
183.2732	0.2392
183.4916	0.2618
183.71	0.527
183.9284	0.0598
184.1467	0.3632
184.3651	0.0123
184.5835	0.1053
184.8018	0.0684
185.0201	0.0536
185.2385	0.3105
185.4568	0.224
185.6751	0.1649
185.8934	-0.0702
186.1117	0.0605
186.3299	0.0922
186.5482	0.2464
186.7664	0.1359
186.9847	0.1533
187.2029	0.3904
187.4211	-0.0799
187.6393	0.397
187.8575	0.4357
188.0757	0.1057
188.2939	0.247
188.512	0.1047
188.7302	-0.004
188.9483	0.1893
189.1665	0.2926
189.3846	0.5013
189.6027	0.1229
189.8208	0.1979
190.0389	0.0783
190.257	-0.0284
190.475	-0.0304
190.6931	0.1459
190.9111	0.3363
191.1292	0.0476
191.3472	0.1432
191.5652	0.1896
191.7832	0.1935
192.0012	0.1407
192.2192	0.0674
192.4371	0.0981
192.6551	0.1857
192.873	0.2326
193.091	0.0945
193.3089	0.2207
193.5268	0.2747
193.7447	0.2229
193.9626	0.1181
194.1805	0.2159
194.3984	0.1532
194.6162	0.2056
194.8341	0.1841
195.0519	0.2164
195.2697	0.2817
195.4875	0.298
195.7054	0.2583
195.9231	0.2858
196.1409	0.2923
196.3587	0.3378
196.5765	0.3011
196.7942	0.3044
197.012	0.3731
197.2297	0.3305
197.4474	0.3922
197.6651	0.2628
197.8828	0.2895
198.1005	0.4092
198.3182	0.4013
198.5358	0.3424
198.7535	0.4347
198.9711	0.4251
199.1888	0.3387
199.4064	0.3436
199.624	0.474
199.8416	0.3384
200.0592	0.3536
200.2767	0.3542
200.4943	0.406
200.7119	0.3843
200.9294	0.3893
201.1469	0.4097
201.3645	0.434
201.582	0.4458
201.7995	0.4294
202.017	0.434
202.2344	0.3833
202.4519	0.3883
202.6694	0.375
202.8868	0.3853
203.1042	0.4001
203.3217	0.3711
203.5391	0.3708
203.7565	0.3611
203.9739	0.3869
204.1913	0.3502
204.4086	0.3662
204.626	0.381
204.8433	0.3604
205.0607	0.3347
205.278	0.3599
205.4953	0.3561
205.7126	0.3556
205.9299	0.3338
206.1472	0.3436
206.3644	0.3349
206.5817	0.3264
206.7989	0.3114
207.0162	0.308
207.2334	0.3076
207.4506	0.2922
207.6678	0.3096
207.885	0.2822
208.1022	0.2867
208.3194	0.2884
208.5365	0.2814
208.7537	0.2998
208.9708	0.2796
209.1879	0.2937
209.405	0.2546
209.6222	0.2638
209.8392	0.2826
210.0563	0.2954
210.2734	0.2487
210.4905	0.2646
210.7075	0.2637
210.9245	0.2443
211.1416	0.2576
211.3586	0.2742
211.5756	0.2183
211.7926	0.2455
212.0096	0.2551
212.2265	0.2505
212.4435	0.2594
212.6604	0.234
212.8774	0.2344
213.0943	0.2383
213.3112	0.2495
213.5281	0.2344
213.745	0.2337
213.9619	0.2348
214.1788	0.251
214.3956	0.2278
214.6125	0.2398
214.8293	0.2312
215.0461	0.2499
215.2629	0.2343
215.4798	0.234
215.6965	0.2321
215.9133	0.2389
216.1301	0.2244
216.3469	0.2447
216.5636	0.2199
216.7803	0.228
216.9971	0.2398
217.2138	0.2527
217.4305	0.2487
217.6472	0.2392
217.8639	0.2465
218.0805	0.2357
218.2972	0.239
218.5138	0.243
218.7305	0.246
218.9471	0.2328
219.1637	0.2549
219.3803	0.2531
219.5969	0.2511
219.8135	0.2537
220.0301	0.2513
220.2466	0.2454
220.4632	0.2393
220.6797	0.2336
220.8962	0.24
221.1127	0.2596
221.3292	0.2646
221.5457	0.2608
221.7622	0.2587
221.9787	0.2628
222.1951	0.2707
222.4116	0.2663
222.628	0.2748
222.8444	0.2739
223.0608	0.2624
223.2772	0.2772
223.4936	0.279
223.71	0.2895
223.9264	0.2823
224.1427	0.275
224.3591	0.2726
224.5754	0.2893
224.7917	0.2846
225.008	0.2766
225.2243	0.2894
225.4406	0.286
225.6569	0.2955
225.8732	0.3078
226.0894	0.3023
226.3057	0.3019
226.5219	0.3054
226.7381	0.3185
226.9543	0.3167
227.1705	0.3159
227.3867	0.3172
227.6029	0.3217
227.8191	0.3399
228.0352	0.3323
228.2513	0.3429
228.4675	0.3485
228.6836	0.3487
228.8997	0.3357
229.1158	0.3423
229.3319	0.3531
229.548	0.3461
229.764	0.3677
229.9801	0.3639
230.1961	0.366
230.4121	0.3683
230.6282	0.3838
230.8442	0.386
231.0602	0.3782
231.2761	0.3781
231.4921	0.385
231.7081	0.3921
231.924	0.3994
232.14	0.4077
232.3559	0.4149
232.5718	0.4096
232.7877	0.413
233.0036	0.4129
233.2195	0.4271
233.4353	0.4223
233.6512	0.4207
233.867	0.4207
234.0829	0.4368
234.2987	0.437
234.5145	0.4304
234.7303	0.4334
234.9461	0.4387
235.1619	0.4377
235.3776	0.4449
235.5934	0.4255
235.8091	0.4368
236.0249	0.4477
236.2406	0.438
236.4563	0.4437
236.672	0.4374
236.8877	0.4503
237.1034	0.4493
237.319	0.4507
237.5347	0.4447
237.7503	0.4489
237.966	0.4588
238.1816	0.4524
238.3972	0.4493
238.6128	0.4553
238.8284	0.4677
239.0439	0.4518
239.2595	0.4661
239.475	0.4572
239.6906	0.4585
239.9061	0.4656
240.1216	0.4702
240.3371	0.4643
240.5526	0.4602
240.7681	0.4699
240.9836	0.4557
241.199	0.4525
241.4145	0.4553
241.6299	0.4617
241.8453	0.4436
242.0607	0.4455
242.2761	0.4458
242.4915	0.4309
242.7069	0.4338
242.9223	0.4308
243.1376	0.4287
243.353	0.4138
243.5683	0.4204
243.7836	0.4036
243.9989	0.3903
244.2142	0.3968
244.4295	0.3786
244.6448	0.3801
244.86	0.3585
245.0753	0.3582
245.2905	0.3554
245.5057	0.3568
245.721	0.3543
245.9362	0.3419
246.1514	0.3367
246.3665	0.3242
246.5817	0.3163
246.7969	0.312
247.012	0.3013
247.2271	0.3007
247.4423	0.2938
247.6574	0.2922
247.8725	0.2816
248.0876	0.2801
248.3026	0.2688
248.5177	0.2695
248.7328	0.2638
248.9478	0.2523
249.1628	0.2558
249.3779	0.2459
249.5929	0.2477
249.8079	0.2397
250.0228	0.2377
250.2378	0.2344
250.4528	0.2352
250.6677	0.2278
250.8827	0.2286
251.0976	0.222
251.3125	0.2196
251.5274	0.2156
251.7423	0.2051
251.9572	0.2173
252.172	0.2101
252.3869	0.2135
252.6017	0.205
252.8166	0.2053
253.0314	0.1968
253.2462	0.1994
253.461	0.1984
253.6758	0.1961
253.8906	0.1974
254.1053	0.1978
254.3201	0.1985
254.5348	0.1868
254.7496	0.1861
254.9643	0.1945
255.179	0.192
255.3937	0.1927
255.6083	0.1991
255.823	0.189
256.0377	0.1881
256.2523	0.1845
256.467	0.1896
256.6816	0.1864
256.8962	0.1855
257.1108	0.1858
257.3254	0.1853
257.54	0.1824
257.7545	0.1874
257.9691	0.1817
258.1836	0.1804
258.3981	0.1834
258.6127	0.1784
258.8272	0.1848
259.0417	0.1765
259.2561	0.1781
259.4706	0.1832
259.6851	0.1785
259.8995	0.1825
260.114	0.1846
260.3284	0.1755
260.5428	0.184
260.7572	0.1862
260.9716	0.1926
261.186	0.1833
261.4003	0.1813
261.6147	0.1826
261.829	0.1863
262.0433	0.1872
262.2577	0.1854
262.472	0.1883
262.6863	0.192
262.9005	0.1816
263.1148	0.1814
263.3291	0.1864
263.5433	0.1883
263.7576	0.1912
263.9718	0.193
264.186	0.1918
264.4002	0.1883
264.6144	0.1963
264.8286	0.1979
265.0427	0.1972
265.2569	0.1976
265.471	0.1976
265.6851	0.1968
265.8993	0.1926
266.1134	0.196
266.3275	0.1991
266.5415	0.1973
266.7556	0.1945
266.9697	0.1994
267.1837	0.201
267.3978	0.2005
267.6118	0.1904
267.8258	0.1992
268.0398	0.199
268.2538	0.2009
268.4677	0.1965
268.6817	0.1941
268.8957	0.1922
269.1096	0.1891
269.3235	0.1945
269.5374	0.1957
269.7514	0.1954
269.9652	0.1973
270.1791	0.1905
270.393	0.1932
270.6068	0.1959
270.8207	0.1881
271.0345	0.1971
271.2483	0.1907
271.4622	0.1922
271.676	0.1938
271.8897	0.1916
272.1035	0.1981
272.3173	0.1878
272.531	0.1943
272.7448	0.1932
272.9585	0.1899
273.1722	0.192
273.3859	0.2008
273.5996	0.1983
273.8133	0.1965
274.0269	0.1952
274.2406	0.2024
274.4542	0.1977
274.6679	0.1963
274.8815	0.2056
275.0951	0.206
275.3087	0.2064
275.5223	0.2114
275.7358	0.2062
275.9494	0.2078
276.1629	0.2051
276.3765	0.2099
276.59	0.21
276.8035	0.2058
277.017	0.2142
277.2305	0.2139
277.444	0.2148
277.6574	0.2102
277.8709	0.2106
278.0843	0.2162
278.2978	0.2121
278.5112	0.2137
278.7246	0.2131
278.938	0.207
279.1513	0.2165
279.3647	0.2138
279.5781	0.2045
279.7914	0.2068
280.0047	0.211
280.2181	0.205
280.4314	0.2022
280.6447	0.2074
280.8579	0.195
281.0712	0.2002
281.2845	0.2012
281.4977	0.2017
281.711	0.2034
281.9242	0.1973
282.1374	0.1976
282.3506	0.1949
282.5638	0.1955
282.7769	0.1959
282.9901	0.1945
283.2033	0.1942
283.4164	0.1959
283.6295	0.1937
283.8426	0.1932
284.0557	0.1934
284.2688	0.1928
284.4819	0.1915
284.695	0.1955
284.908	0.1866
285.1211	0.1931
285.3341	0.1883
285.5471	0.1922
285.7601	0.1905
285.9731	0.1863
286.1861	0.1871
286.3991	0.1909
286.612	0.188
286.825	0.1909
287.0379	0.1889
287.2508	0.1919
287.4637	0.1945
287.6766	0.1913
287.8895	0.187
288.1024	0.1914
288.3152	0.1896
288.5281	0.1771
288.7409	0.2008
288.9538	0.1907
289.1666	0.1859
289.3794	0.188
289.5922	0.1872
289.8049	0.1934
290.0177	0.1927
290.2304	0.1857
290.4432	0.1886
290.6559	0.1846
290.8686	0.1849
291.0813	0.1907
291.294	0.1911
291.5067	0.1841
291.7194	0.1838
291.932	0.1805
292.1447	0.1866
292.3573	0.1836
292.5699	0.19
292.7825	0.1844
292.9951	0.1838
293.2077	0.1865
293.4203	0.1851
293.6328	0.1843
293.8454	0.1872
294.0579	0.1826
294.2704	0.1912
294.4829	0.1829
294.6954	0.1855
294.9079	0.1838
295.1204	0.1807
295.3328	0.1856
295.5453	0.1837
295.7577	0.1868
295.9701	0.1886
296.1825	0.1851
296.3949	0.1832
296.6073	0.1838
296.8197	0.1838
297.0321	0.1936
297.2444	0.1804
297.4567	0.1892
297.6691	0.1901
297.8814	0.1915
298.0937	0.1847
298.306	0.1866
298.5182	0.1879
298.7305	0.1888
298.9428	0.1857
299.155	0.1798
299.3672	0.184
299.5794	0.1833
299.7916	0.1887
300.0038	0.1876
300.216	0.1833
300.4282	0.1845
300.6403	0.1916
300.8525	0.1848
301.0646	0.1862
301.2767	0.1837
301.4888	0.1977
301.7009	0.189
301.913	0.1885
302.125	0.1885
302.3371	0.1894
302.5491	0.1865
302.7612	0.1981
302.9732	0.1848
303.1852	0.1877
303.3972	0.1884
303.6092	0.1911
303.8211	0.1854
304.0331	0.1852
304.245	0.1828
304.457	0.1833
304.6689	0.1893
304.8808	0.1832
305.0927	0.1922
305.3046	0.1825
305.5164	0.1781
305.7283	0.185
305.9401	0.1706
306.152	0.1739
306.3638	0.1794
306.5756	0.1813
306.7874	0.1795
306.9992	0.1709
307.2109	0.1703
307.4227	0.1654
307.6344	0.18
307.8462	0.1735
308.0579	0.1772
308.2696	0.1716
308.4813	0.172
308.693	0.1634
308.9046	0.168
309.1163	0.1691
309.328	0.168
309.5396	0.1588
309.7512	0.1598
309.9628	0.1601
310.1744	0.1522
310.386	0.1519
310.5976	0.1537
310.8091	0.1638
311.0207	0.1588
311.2322	0.1517
311.4437	0.1509
311.6552	0.1604
311.8667	0.1576
312.0782	0.149
312.2897	0.1582
312.5012	0.1513
312.7126	0.1495
312.924	0.1487
313.1355	0.1458
313.3469	0.1476
313.5583	0.1509
313.7696	0.1501
313.981	0.1515
314.1924	0.1464
314.4037	0.1464
314.6151	0.1463
314.8264	0.149
315.0377	0.1446
315.249	0.1481
315.4603	0.1455
315.6716	0.1444
315.8828	0.1486
316.0941	0.1467
316.3053	0.1411
316.5165	0.1465
316.7277	0.1438
316.9389	0.1411
317.1501	0.1438
317.3613	0.1422
317.5724	0.1425
317.7836	0.1379
317.9947	0.1396
318.2058	0.1385
318.417	0.1412
318.6281	0.1372
318.8391	0.1452
319.0502	0.146
319.2613	0.1357
319.4723	0.1363
319.6834	0.1442
319.8944	0.1397
320.1054	0.1457
320.3164	0.1376
320.5274	0.138
320.7383	0.1393
320.9493	0.1401
321.1602	0.1401
321.3712	0.138
321.5821	0.1402
321.793	0.1433
322.0039	0.1453
322.2148	0.1474
322.4257	0.1379
322.6365	0.1331
322.8474	0.1446
323.0582	0.1402
323.269	0.1457
323.4798	0.1481
323.6906	0.1374
323.9014	0.1398
324.1122	0.1396
324.3229	0.144
324.5337	0.1423
324.7444	0.1424
324.9551	0.1455
325.1658	0.1477
325.3765	0.1474
325.5872	0.1486
325.7979	0.1437
326.0085	0.1478
326.2192	0.1478
326.4298	0.155
326.6404	0.1531
326.851	0.1529
327.0616	0.1504
327.2722	0.1527
327.4828	0.1497
327.6933	0.159
327.9039	0.1449
328.1144	0.1515
328.3249	0.1518
328.5354	0.1537
328.7459	0.1522
328.9564	0.1538
329.1669	0.1625
329.3773	0.1556
329.5878	0.147
329.7982	0.1553
330.0086	0.1594
330.219	0.1563
330.4294	0.1626
330.6398	0.1565
330.8502	0.1593
331.0605	0.1607
331.2708	0.1562
331.4812	0.1588
331.6915	0.1581
331.9018	0.1601
332.1121	0.1628
332.3224	0.1566
332.5326	0.1585
332.7429	0.1598
332.9531	0.1612
333.1633	0.1569
333.3735	0.1579
333.5837	0.162
333.7939	0.1548
334.0041	0.1611
334.2143	0.1595
334.4244	0.1644
334.6346	0.1496
334.8447	0.1555
335.0548	0.1616
335.2649	0.1539
335.475	0.1607
335.685	0.1537
335.8951	0.1551
336.1051	0.1571
336.3152	0.1642
336.5252	0.1629
336.7352	0.1521
336.9452	0.156
337.1552	0.1532
337.3652	0.1532
337.5751	0.157
337.7851	0.1594
337.995	0.161
338.2049	0.1556
338.4148	0.1586
338.6247	0.1623
338.8346	0.1628
339.0445	0.1634
339.2543	0.1576
339.4642	0.155
339.674	0.1535
339.8838	0.1571
340.0936	0.1607
340.3034	0.1538
340.5132	0.1529
340.7229	0.1628
340.9327	0.1641
341.1424	0.1575
341.3522	0.1587
341.5619	0.1652
341.7716	0.1649
341.9813	0.1679
342.1909	0.1675
342.4006	0.1647
342.6102	0.1616
342.8199	0.1642
343.0295	0.1672
343.2391	0.1627
343.4487	0.1689
343.6583	0.1752
343.8679	0.1717
344.0774	0.1656
344.287	0.1689
344.4965	0.1712
344.706	0.173
344.9155	0.1754
345.125	0.1727
345.3345	0.1833
345.544	0.1768
345.7534	0.1807
345.9629	0.1752
346.1723	0.1848
346.3817	0.1786
346.5911	0.1781
346.8005	0.1926
347.0099	0.1812
347.2193	0.1891
347.4286	0.195
347.638	0.1876
347.8473	0.1888
348.0566	0.1811
348.2659	0.1902
348.4752	0.1864
348.6845	0.1878
348.8937	0.188
349.103	0.1856
349.3122	0.1916
349.5214	0.1947
349.7306	0.1957
349.9398	0.194
350.149	0.1866
350.3582	0.1927
350.5674	0.1944
350.7765	0.1912
350.9856	0.1878
351.1948	0.1918
351.4039	0.1989
351.613	0.1932
351.822	0.198
352.0311	0.1917
352.2402	0.1931
352.4492	0.1895
352.6582	0.1895
352.8672	0.1884
353.0762	0.1867
353.2852	0.1971
353.4942	0.1842
353.7032	0.1844
353.9121	0.192
354.1211	0.1933
354.33	0.1893
354.5389	0.1855
354.7478	0.1821
354.9567	0.1931
355.1655	0.1875
355.3744	0.183
355.5833	0.1847
355.7921	0.1887
356.0009	0.1924
356.2097	0.1728
356.4185	0.1869
356.6273	0.1912
356.8361	0.187
357.0448	0.1963
357.2536	0.1855
357.4623	0.1899
357.671	0.1882
357.8797	0.1958
358.0884	0.1865
358.2971	0.1919
358.5057	0.1913
358.7144	0.1949
358.923	0.1957
359.1316	0.1913
359.3402	0.1925
359.5488	0.1906
359.7574	0.1986
359.966	0.1899
360.1746	0.1897
360.3831	0.1868
360.5916	0.1991
360.8002	0.1999
361.0087	0.1888
361.2172	0.2004
361.4256	0.2001
361.6341	0.202
361.8426	0.1974
362.051	0.1967
362.2594	0.1951
362.4678	0.2032
362.6762	0.2074
362.8846	0.2022
363.093	0.2004
363.3014	0.2025
363.5097	0.2048
363.718	0.2141
363.9264	0.207
364.1347	0.2068
364.343	0.2052
364.5513	0.2098
364.7595	0.2165
364.9678	0.2102
365.176	0.2095
365.3842	0.2118
365.5925	0.2146
365.8007	0.2063
366.0089	0.219
366.217	0.21
366.4252	0.2058
366.6333	0.2195
366.8415	0.221
367.0496	0.213
367.2577	0.2143
367.4658	0.2143
367.6739	0.2096
367.882	0.2151
368.09	0.2189
368.2981	0.22
368.5061	0.2189
368.7141	0.2134
368.9221	0.2309
369.1301	0.2181
369.3381	0.2165
369.5461	0.2138
369.754	0.2236
369.962	0.2166
370.1699	0.2264
370.3778	0.2306
370.5857	0.2249
370.7936	0.224
371.0015	0.2233
371.2093	0.2258
371.4172	0.2279
371.625	0.2256
371.8328	0.2242
372.0406	0.2342
372.2484	0.2298
372.4562	0.2277
372.664	0.2307
372.8717	0.235
373.0795	0.2417
373.2872	0.2418
373.4949	0.2335
373.7026	0.2306
373.9103	0.2218
374.118	0.2368
374.3256	0.2432
374.5333	0.2408
374.7409	0.2291
374.9485	0.2364
375.1561	0.2412
375.3637	0.241
375.5713	0.2476
375.7789	0.2387
375.9864	0.2377
376.194	0.2429
376.4015	0.2377
376.609	0.2414
376.8165	0.2457
377.024	0.2455
377.2315	0.2355
377.4389	0.2304
377.6464	0.2495
377.8538	0.2461
378.0612	0.247
378.2686	0.2318
378.476	0.2556
378.6834	0.2415
378.8908	0.2503
379.0981	0.2484
379.3055	0.249
379.5128	0.2371
379.7201	0.2565
379.9274	0.2528
380.1347	0.2527
380.342	0.2553
380.5492	0.2494
380.7565	0.2532
380.9637	0.2564
381.1709	0.259
381.3781	0.2521
381.5853	0.2476
381.7925	0.2519
381.9997	0.2573
382.2068	0.2574
382.4139	0.2488
382.6211	0.2588
382.8282	0.2586
383.0353	0.2546
383.2424	0.2502
383.4494	0.2463
383.6565	0.2558
383.8635	0.2594
384.0706	0.2599
384.2776	0.2548
384.4846	0.2645
384.6916	0.2544
384.8986	0.2641
385.1055	0.2673
385.3125	0.2588
385.5194	0.2598
385.7263	0.2552
385.9333	0.2635
386.1402	0.262
386.347	0.2552
386.5539	0.2657
386.7608	0.2596
386.9676	0.2585
387.1744	0.2573
387.3813	0.2594
387.5881	0.2585
387.7948	0.2635
388.0016	0.2615
388.2084	0.2536
388.4151	0.2543
388.6219	0.2528
388.8286	0.2652
389.0353	0.2542
389.242	0.2538
389.4487	0.2457
389.6553	0.2458
389.862	0.2495
390.0686	0.2585
390.2753	0.2521
390.4819	0.2475
390.6885	0.2474
390.8951	0.246
391.1016	0.2484
391.3082	0.2516
391.5147	0.2362
391.7213	0.2391
391.9278	0.2419
392.1343	0.2479
392.3408	0.2463
392.5473	0.2408
392.7537	0.2432
392.9602	0.2415
393.1666	0.2451
393.373	0.2321
393.5794	0.2316
393.7858	0.2431
393.9922	0.2345
394.1986	0.237
394.4049	0.2398
394.6113	0.2333
394.8176	0.2296
395.0239	0.2257
395.2302	0.2289
395.4365	0.2304
395.6428	0.2308
395.8491	0.2218
396.0553	0.2169
396.2615	0.2393
396.4678	0.2361
396.674	0.2156
396.8802	0.2252
397.0863	0.2219
397.2925	0.2184
397.4987	0.2183
397.7048	0.2277
397.9109	0.2122
398.117	0.2184
398.3231	0.2173
398.5292	0.2105
398.7353	0.2213
398.9413	0.2131
399.1474	0.2171
399.3534	0.2141
399.5594	0.2242
399.7654	0.2129
399.9714	0.2272
400.1774	0.2179
400.3833	0.225
400.5893	0.219
400.7952	0.2263
401.0011	0.2161
401.207	0.2168
401.4129	0.2095
401.6188	0.2118
401.8247	0.2219
402.0305	0.2166
402.2364	0.2218
402.4422	0.2188
402.648	0.2098
402.8538	0.2183
403.0596	0.2094
403.2654	0.2205
403.4711	0.2108
403.6768	0.2162
403.8826	0.219
404.0883	0.2207
404.294	0.2191
404.4997	0.2116
404.7054	0.2218
404.911	0.2139
405.1167	0.2183
405.3223	0.2134
405.5279	0.2135
405.7335	0.215
405.9391	0.2117
406.1447	0.2179
406.3502	0.2145
406.5558	0.2136
406.7613	0.2145
406.9668	0.2177
407.1724	0.217
407.3778	0.2177
407.5833	0.2069
407.7888	0.2204
407.9942	0.2114
408.1997	0.2157
408.4051	0.2188
408.6105	0.2205
408.8159	0.2114
409.0213	0.2177
409.2267	0.221
409.432	0.2184
409.6374	0.2106
409.8427	0.2293
410.048	0.2192
410.2533	0.2199
410.4586	0.2083
410.6639	0.2172
410.8691	0.2129
411.0744	0.214
411.2796	0.2213
411.4848	0.2159
411.69	0.2038
411.8952	0.2082
412.1004	0.2194
412.3056	0.2194
412.5107	0.2103
412.7158	0.225
412.921	0.2101
413.1261	0.2194
413.3312	0.2174
413.5362	0.2179
413.7413	0.2192
413.9464	0.2005
414.1514	0.2175
414.3564	0.2128
414.5614	0.2105
414.7664	0.2022
414.9714	0.2104
415.1764	0.2228
415.3813	0.2061
415.5863	0.215
415.7912	0.1967
415.9961	0.2047
416.201	0.1989
416.4059	0.2067
416.6108	0.2106
416.8156	0.217
417.0205	0.2112
417.2253	0.2111
417.4301	0.2096
417.6349	0.1959
417.8397	0.2085
418.0445	0.2013
418.2492	0.2026
418.454	0.2034
418.6587	0.2059
418.8634	0.2055
419.0681	0.2053
419.2728	0.2032
419.4775	0.2086
419.6822	0.1968
419.8868	0.1988
420.0915	0.1987
420.2961	0.1942
420.5007	0.1971
420.7053	0.2007
420.9099	0.2015
421.1144	0.205
421.319	0.1921
421.5235	0.1879
421.728	0.2034
421.9325	0.2023
422.137	0.1928
422.3415	0.1912
422.546	0.1884
422.7504	0.1935
422.9549	0.1935
423.1593	0.1838
423.3637	0.1851
423.5681	0.1943
423.7725	0.1846
423.9769	0.1869
424.1812	0.1831
424.3856	0.1814
424.5899	0.185
424.7942	0.1885
424.9985	0.1774
425.2028	0.192
425.4071	0.1853
425.6113	0.1823
425.8156	0.1771
426.0198	0.1874
426.224	0.1868
426.4282	0.1781
426.6324	0.1878
426.8366	0.1709
427.0407	0.1755
427.2449	0.1726
427.449	0.1758
427.6531	0.1918
427.8572	0.1724
428.0613	0.1887
428.2654	0.1778
428.4694	0.1705
428.6735	0.1661
428.8775	0.1682
429.0815	0.1659
429.2855	0.1628
429.4895	0.1648
429.6935	0.1648
429.8975	0.1571
430.1014	0.1635
430.3053	0.1599
430.5093	0.1614
430.7132	0.1542
430.9171	0.1455
431.1209	0.1572
431.3248	0.1497
431.5286	0.1442
431.7325	0.157
431.9363	0.1367
432.1401	0.1476
432.3439	0.1522
432.5477	0.1402
432.7514	0.1393
432.9552	0.1431
433.1589	0.1392
433.3627	0.1433
433.5664	0.1335
433.7701	0.1366
433.9737	0.1414
434.1774	0.1401
434.3811	0.1256
434.5847	0.1293
434.7883	0.1338
434.9919	0.1309
435.1955	0.125
435.3991	0.1284
435.6027	0.1257
435.8062	0.139
436.0098	0.1215
436.2133	0.1221
436.4168	0.1152
436.6203	0.1151
436.8238	0.1181
437.0272	0.1233
437.2307	0.1124
437.4341	0.1167
437.6375	0.1199
437.841	0.1088
438.0443	0.1193
438.2477	0.1014
438.4511	0.0968
438.6545	0.1171
438.8578	0.109
439.0611	0.102
439.2644	0.1048
439.4677	0.1031
439.671	0.0903
439.8743	0.0963
440.0775	0.0947
440.2808	0.0918
440.484	0.0885
440.6872	0.0905
440.8904	0.0832
441.0936	0.0906
441.2967	0.0804
441.4999	0.0782
441.703	0.0799
441.9062	0.0902
442.1093	0.0961
442.3124	0.0815
442.5155	0.0851
442.7185	0.0791
442.9216	0.0791
443.1246	0.0762
443.3276	0.0746
443.5307	0.0745
443.7337	0.0808
443.9366	0.0691
444.1396	0.0672
444.3426	0.0682
444.5455	0.0739
444.7484	0.0724
444.9513	0.0692
445.1542	0.0696
445.3571	0.0677
445.56	0.0642
445.7628	0.0654
445.9657	0.0637
446.1685	0.0628
446.3713	0.0693
446.5741	0.0608
446.7769	0.0651
446.9797	0.0588
447.1824	0.0557
447.3852	0.0403
447.5879	0.0564
447.7906	0.0515
447.9933	0.0529
448.196	0.0536
448.3986	0.0479
448.6013	0.0402
448.8039	0.0576
449.0066	0.0558
449.2092	0.0448
449.4118	0.0483
449.6143	0.0467
449.8169	0.0432
450.0195	0.0446
450.222	0.0517
450.4245	0.0459
450.627	0.0466
450.8295	0.0365
451.032	0.0435
451.2345	0.0398
451.4369	0.0416
451.6394	0.0457
451.8418	0.0337
452.0442	0.0472
452.2466	0.0319
452.449	0.0463
452.6513	0.0371
452.8537	0.0224
453.056	0.0337
453.2583	0.0297
453.4607	0.0278
453.663	0.0317
453.8652	0.025
454.0675	0.0403
454.2697	0.0208
454.472	0.0299
454.6742	0.0319
454.8764	0.0347
455.0786	0.0389
455.2808	0.0259
455.4829	0.0288
455.6851	0.0278
455.8872	0.0161
456.0893	0.0164
456.2915	0.015
456.4935	0.0339
456.6956	0.0212
456.8977	0.0228
457.0997	0.028
457.3018	0.0191
457.5038	0.0286
457.7058	0.0267
457.9078	0.0287
458.1098	0.0241
458.3117	0.0283
458.5137	0.0078
458.7156	0.0169
458.9175	0.0215
459.1194	0.0156
459.3213	0.0181
459.5232	0.0211
459.725	0.0162
459.9269	0.0156
460.1287	0.0155
460.3305	0.0242
460.5323	0.0159
460.7341	0.0257
460.9359	0.0125
461.1376	0.0156
461.3394	0.0154
461.5411	0.0204
461.7428	0.0189
461.9445	0.0173
462.1462	0.018
462.3479	0.0183
462.5495	0.0227
462.7512	0.0245
462.9528	0.0167
463.1544	0.0089
463.356	0.004
463.5576	0.0267
463.7592	0.0144
463.9607	0.0106
464.1623	0.0164
464.3638	0.0025
464.5653	0.0175
464.7668	0.0222
464.9683	0.0133
465.1697	0.0146
465.3712	0.0024
465.5726	0.0203
465.7741	0.0217
465.9755	0.0066
466.1769	0.0145
466.3782	0.0148
466.5796	0.0172
466.7809	0.0138
466.9823	0.0122
467.1836	0.0139
467.3849	0.009
467.5862	0.0027
467.7875	0.0067
467.9887	0.0055
468.19	0.0139
468.3912	0.0229
468.5924	0.0088
468.7936	0.0134
468.9948	-0.0012
469.196	0.0083
469.3972	0.0094
469.5983	0.0033
469.7994	0.0078
470.0006	0.0145
470.2017	0.0051
470.4027	0.0221
470.6038	-0.0042
470.8049	0.0092
471.0059	0.0126
471.2069	0.0149
471.408	0.0082
471.6089	0.0084
471.8099	0.0073
472.0109	0.0126
472.2119	0.0208
472.4128	0.0098
472.6137	0.0084
472.8146	0.0016
473.0155	0.025
473.2164	0.0086
473.4173	0.0039
473.6181	0.0001
473.819	0.0095
474.0198	-0.0026
474.2206	-0.0051
474.4214	0.0086
474.6222	0.0017
474.8229	0.0011
475.0237	0.0094
475.2244	0.0113
475.4251	0.0048
475.6258	0.0047
475.8265	0.0055
476.0272	0.0085
476.2278	0.0078
476.4285	0.0076
476.6291	0.006
476.8297	0.0091
477.0303	0.0034
477.2309	0.0087
477.4315	0.0035
477.632	0.0001
477.8326	0.0055
478.0331	0.0093
478.2336	0.0064
478.4341	0.009
478.6346	-0.0036
478.8351	0.0037
479.0355	0.0103
479.236	0.0147
479.4364	0.007
479.6368	0.0014
479.8372	-0.0007
480.0376	0.0045
480.2379	0.0089
480.4383	0.0092
480.6386	-0.0067
480.8389	0.0096
481.0392	0.0037
481.2395	0.0065
481.4398	0.002
481.6401	0.0045
481.8403	0.0024
482.0405	0.0072
482.2408	0.0035
482.441	0.0026
482.6411	0.0062
482.8413	0.0089
483.0415	0.0128
483.2416	0.0036
483.4417	0.0033
483.6419	-0.0034
483.8419	0.006
484.042	0.0111
484.2421	-0.003
484.4422	-0.0006
484.6422	0.0085
484.8422	0.0062
485.0422	0.0056
485.2422	0.0035
485.4422	0.0062
485.6422	0.0066
485.8421	0.0052
486.042	0.0093
486.242	0.0029
486.4419	0.0102
486.6417	0.0017
486.8416	0.0065
487.0415	0.0032
487.2413	0.0012
487.4411	0.0043
487.641	0.0047
487.8408	0.0085
488.0405	0.0067
488.2403	0.0006
488.4401	-0.0021
488.6398	0.0036
488.8395	0.0062
489.0392	0.0018
489.2389	0.0066
489.4386	-0.0023
489.6383	0.0027
489.8379	-0.001
490.0376	0.0003
490.2372	-0.0007
490.4368	-0.0022
490.6364	-0.0017
490.836	0.0005
491.0355	0.0003
491.2351	0.0034
491.4346	0.0032
491.6341	-0.0056
491.8336	0.0064
492.0331	0.0019
492.2326	0.004
492.432	0.0043
492.6315	0.0023
492.8309	0.0057
493.0303	0.0068
493.2297	0.0053
493.4291	0.0023
493.6284	0.004
493.8278	0.0007
494.0271	0.0037
494.2264	-0.0018
494.4257	0.003
494.625	0.0024
494.8243	0.0002
495.0236	0.0052
495.2228	-0.0035
495.422	0.0051
495.6213	0.001
495.8205	0.0043
496.0196	0.0029
496.2188	0.0047
496.418	0.001
496.6171	0.0005
496.8162	0.0013
497.0153	0.0074
497.2144	-0.0032
497.4135	0.0026
497.6126	0.0068
497.8116	-0.01
498.0107	0.0039
498.2097	0.0026
498.4087	-0.0015
498.6077	-0.0083
498.8067	0.0053
499.0056	-0.0051
499.2046	0.005
499.4035	0.007
499.6024	-0.0091
499.8013	0.007
500.0002	0.0053
500.199	0.012
500.3979	-0.005
500.5967	-0.0023
500.7956	-0.0001
500.9944	-0.0061
501.1932	0.0091
501.3919	0.0078
501.5907	0.0114
501.7895	-0.0027
501.9882	0.005
502.1869	0.0019
502.3856	-0.0037
502.5843	0.0046
502.783	0.0001
502.9816	-0.0008
503.1803	0.0004
503.3789	0.0081
503.5775	-0.0032
503.7761	-0.0042
503.9747	0.0052
504.1732	-0.0132
504.3718	0.01
504.5703	0.0009
504.7689	-0.0093
504.9674	-0.0089
505.1658	-0.0025
505.3643	0.0046
505.5628	0.0063
505.7612	0.0007
505.9597	-0.0061
506.1581	-0.0016
506.3565	-0.0031
506.5549	-0.0017
506.7532	-0.0099
506.9516	0.0039
507.1499	0.0045
507.3482	0.0021
507.5465	0.0026
507.7448	0.0054
507.9431	0.0019
508.1414	-0.0073
508.3396	-0.0025
508.5379	-0.0016
508.7361	-0.005
508.9343	0.0033
509.1325	0.0033
509.3306	-0.004
509.5288	-0.0065
509.7269	-0.0026
509.9251	-0.0008
510.1232	-0.0015
510.3213	0.0017
510.5193	-0.0015
510.7174	-0.0075
510.9154	0.0036
511.1135	-0.0009
511.3115	0.0016
511.5095	-0.0016
511.7075	-0.0022
511.9055	-0.0028
512.1034	-0.0089
512.3014	-0.0057
512.4993	0.0018
512.6972	0.0003
512.8951	-0.0028
513.093	-0.009
513.2908	0.0158
513.4887	-0.006
513.6865	-0.0062
513.8844	0.0057
514.0822	-0.0044
514.2799	-0.008
514.4777	-0.0086
514.6755	-0.0042
514.8732	-0.0057
515.0709	-0.005
515.2687	-0.0028
515.4664	0.0086
515.664	-0.0013
515.8617	0.0008
516.0594	0.0002
516.257	-0.0032
516.4546	0.0116
516.6522	-0.0111
516.8498	0.0054
517.0474	-0.0057
517.2449	0.0014
517.4425	-0.0059
517.64	0.0048
517.8375	0.0038
518.035	-0.0032
518.2325	-0.0053
518.43	0.0031
518.6274	-0.0043
518.8249	-0.0062
519.0223	0.0117
519.2197	-0.0129
519.4171	-0.003
519.6145	0.0014
519.8118	-0.0095
520.0092	-0.0179
520.2065	0.0024
520.4038	-0.0066
520.6011	-0.003
520.7984	-0.0031
520.9956	0.0088
521.1929	-0.0073
521.3901	0.0021
521.5874	-0.0073
521.7846	-0.0061
521.9818	-0.0014
522.1789	-0.0162
522.3761	0.0171
522.5732	-0.0022
522.7704	-0.0022
522.9675	-0.0153
523.1646	-0.0048
523.3617	0.0054
523.5587	0.0033
523.7558	-0.0075
523.9528	0.0062
524.1498	-0.0017
524.3468	-0.0067
524.5438	-0.0044
524.7408	-0.0116
524.9378	0.0082
525.1347	0.0031
525.3316	-0.0077
525.5285	-0.02
525.7254	0.0037
525.9223	0.0061
526.1192	-0.006
526.316	-0.0024
526.5129	-0.0081
526.7097	-0.0004
526.9065	-0.0018
527.1033	0.0001
527.3	-0.0112
527.4968	0.0012
527.6935	-0.0087
527.8903	-0.01
528.087	0.0064
528.2837	0.0116
528.4804	-0.0086
528.677	0.0081
528.8737	0.0014
529.0703	0.0009
529.2669	0.0036
529.4635	-0.0071
529.6601	-0.0059
529.8567	-0.0126
530.0532	0.0017
530.2498	-0.0116
530.4463	-0.0078
530.6428	0.0011
530.8393	0.0002
531.0358	-0.0059
531.2322	-0.0037
531.4287	-0.0023
531.6251	-0.0155
531.8215	-0.0031
532.0179	0.0033
532.2143	0.005
532.4107	0.0017
532.607	-0.007
532.8034	-0.0034
532.9997	-0.0025
533.196	-0.0063
533.3923	0.006
533.5886	-0.0019
533.7848	-0.0009
533.9811	-0.0075
534.1773	0.0017
534.3735	-0.0053
534.5697	-0.0045
534.7659	0.0059
534.9621	0.0075
535.1582	0.0044
535.3544	0.0093
535.5505	0.0094
535.7466	0.0002
535.9427	-0.0085
536.1387	-0.004
536.3348	-0.002
536.5308	0.0016
536.7269	-0.0073
536.9229	-0.0077
537.1189	0.0058
537.3148	-0.0084
537.5108	-0.0029
537.7068	0.0118
537.9027	-0.0115
538.0986	0.0118
538.2945	-0.0043
538.4904	-0.0062
538.6863	-0.0043
538.8821	0.0043
539.078	-0.005
539.2738	-0.0053
539.4696	-0.0068
539.6654	0.0021
539.8611	-0.0009
540.0569	-0.0018
540.2526	0.0069
540.4484	-0.0136
540.6441	0.0042
540.8398	0.0061
541.0355	-0.0055
541.2311	0.0039
541.4268	0.0023
541.6224	0.0047
541.818	-0.0038
542.0136	0.0061
542.2092	0.0104
542.4048	0.0008
542.6003	-0.0032
542.7959	0.0033
542.9914	0.0034
543.1869	-0.0021
543.3824	0.0032
543.5779	0.009
543.7734	0.0112
543.9688	0.0097
544.1642	0.001
544.3596	0.0048
544.555	0.003
544.7504	0.0044
544.9458	0.0058
545.1411	0.0041
545.3365	0.0034
545.5318	0.0013
545.7271	0.0004
545.9224	-0.0051
546.1177	0.0112
546.3129	0.0001
546.5081	0.0015
546.7034	0.0001
546.8986	0.0004
547.0938	0.0145
547.289	0.013
547.4841	0.0006
547.6793	0.0023
547.8744	0.0069
548.0695	0.0008
548.2646	0.0104
548.4597	0.0032
548.6548	0.0163
548.8498	0.0133
549.0448	0.002
549.2399	0.0068
549.4349	-0.0021
549.6298	0.0096
549.8248	-0.0051
550.0198	0.0076
550.2147	0.0019
550.4096	-0.0014
550.6045	0.0109
550.7994	0.003
550.9943	0.0052
551.1892	-0.0051
551.384	0.0102
551.5788	0.0035
551.7737	0.0008
551.9685	0.0063
552.1632	-0.002
552.358	0.0021
552.5528	-0.0003
552.7475	-0.0004
552.9422	-0.0021
553.1369	0.0067
553.3316	0.0034
553.5263	0.0105
553.7209	0.0066
553.9156	-0.0003
554.1102	0.0007
554.3048	-0.0074
554.4994	-0.0059
554.694	0.0075
554.8885	0.0036
555.0831	0.0036
555.2776	0.0006
555.4721	0.0065
555.6666	0.0061
555.8611	0.0071
556.0555	0.0061
556.25	0.016
556.4444	-0.0079
556.6388	-0.008
556.8332	-0.0036
557.0276	-0.0011
557.222	-0.0131
557.4163	-0.0011
557.6107	-0.0022
557.805	-0.0069
557.9993	-0.0008
558.1936	-0.0139
558.3879	0.0039
558.5821	-0
558.7764	-0.0041
558.9706	0.0024
559.1648	0.0058
559.359	-0.0091
559.5532	0.0003
559.7473	-0.0075
559.9415	-0.0024
560.1356	0.0087
560.3297	-0.0022
560.5238	0.0063
560.7179	-0.0048
560.9119	-0.0031
561.106	-0.0001
561.3	0.0025
561.494	-0.0064
561.688	0.006
561.882	-0.0047
562.076	0.0074
562.2699	0.0122
562.4639	0.0128
562.6578	0.0052
562.8517	-0.0003
563.0456	0.001
563.2395	0.0107
563.4333	-0.0026
563.6272	-0.0053
563.821	0.0059
564.0148	0.0012
564.2086	0.0057
564.4024	0.017
564.5961	0.007
564.7899	0.0034
564.9836	-0.0061
565.1773	0.0112
565.371	0.007
565.5647	0.0049
565.7584	0.0087
565.952	0.0028
566.1456	-0.0038
566.3393	0.0094
566.5329	0.0087
566.7264	0.006
566.92	0.0046
567.1136	-0.0022
567.3071	-0.0053
567.5006	0.006
567.6941	0.0066
567.8876	0.0066
568.0811	0.0119
568.2745	-0.0032
568.468	0.0034
568.6614	0.0079
568.8548	-0.0013
569.0482	0.0095
569.2416	0.0099
569.4349	0.0076
569.6283	-0.0014
569.8216	0.0117
570.0149	0.0023
570.2082	0.0173
570.4015	0.0083
570.5947	0.005
570.788	0.008
570.9812	0.0058
571.1744	0.0076
571.3676	0.0061
571.5608	0.0025
571.754	0.0146
571.9471	0.0068
572.1402	0.0071
572.3333	0.0103
572.5264	0.0154
572.7195	0.0039
572.9126	0.0028
573.1057	0.0067
573.2987	0.005
573.4917	0.0081
573.6847	0.0086
573.8777	0.0128
574.0707	0.0075
574.2636	0.0116
574.4566	0.0021
574.6495	0.0067
574.8424	0.0083
575.0353	0.0108
575.2281	0.0122
575.421	0.0042
575.6138	0.0083
575.8067	0.0109
575.9995	0.0052
576.1923	0.0075
576.385	0.0095
576.5778	0.0132
576.7706	0.0104
576.9633	0.0091
577.156	-0.0009
577.3487	0.0047
577.5414	0.0045
577.734	0.0078
577.9267	0.0119
578.1193	0.0109
578.3119	0.0029
578.5045	0.0084
578.6971	0.0059
578.8897	0.0061
579.0822	0.0115
579.2747	0.0066
579.4673	0.0048
579.6598	0.0041
579.8522	0.0068
580.0447	0.0103
580.2372	0.0119
580.4296	0.0149
580.622	0.0044
580.8144	0.0075
581.0068	0.0071
581.1992	0.0071
581.3915	0.0001
581.5839	0.0108
581.7762	0.0073
581.9685	0.0072
582.1608	0.0058
582.353	0.0076
582.5453	0.0052
582.7375	0.0116
582.9298	0.0022
583.122	0.0046
583.3142	0.012
583.5063	0.0025
583.6985	0.0066
583.8906	0.0072
584.0827	0.0101
584.2749	0.0036
584.4669	0.006
584.659	0.0071
584.8511	0.0117
585.0431	0.0066
585.2352	0.0101
585.4272	0.0055
585.6192	0.009
585.8111	0.0064
586.0031	0.0072
586.195	0.0088
586.387	0.0074
586.5789	0.0139
586.7708	0.0087
586.9627	0.008
587.1545	0.0078
587.3464	0.0095
587.5382	0.0058
587.73	0.0083
587.9218	0.005
588.1136	0.0034
588.3053	0.0088
588.4971	0.0028
588.6888	0.0069
588.8805	0.0032
589.0722	0.0144
589.2639	0.0061
589.4556	0.0074
589.6472	0.0118
589.8389	0.0068
590.0305	0.0067
590.2221	0.009
590.4137	0.0054
590.6052	0.0134
590.7968	0.0068
590.9883	0.0059
591.1798	0.0053
591.3713	0.005
591.5628	0.0036
591.7543	0.0034
591.9458	0.0039
592.1372	0.0082
592.3286	0.0035
592.52	0.0071
592.7114	0.0105
592.9028	0.0113
593.0941	0.0076
593.2855	0.0064
593.4768	0.0086
593.6681	0.0077
593.8594	0.0093
594.0506	0.008
594.2419	0.0059
594.4331	0.0098
594.6244	-0.0032
594.8156	0.0079
595.0067	0.0024
595.1979	0.0089
595.3891	0.0096
595.5802	0.0099
595.7713	0.0083
595.9624	0.0087
596.1535	0.0086
596.3446	0.0033
596.5357	0.0098
596.7267	0.003
596.9177	0.003
597.1087	0.0059
597.2997	0.0093
597.4907	0.0011
597.6817	0.0092
597.8726	0.0096
598.0635	0.0037
598.2544	0.0071
598.4453	0.0083
598.6362	0.0091
598.827	0.0058
599.0179	0.0125
599.2087	0.0101
599.3995	0.0095
599.5903	0.0125
599.7811	0.0123
599.9718	0.0033
600.1626	0.0097
600.3533	0.0038
600.544	0.0089
600.7347	0.0069
600.9254	0.0132
601.116	0.0074
601.3067	0.0072
601.4973	0.0121
601.6879	0.0031
601.8785	0.0106
602.0691	0.0081
602.2596	0.0082
602.4502	0.0061
602.6407	0.0116
602.8312	0.0057
603.0217	0.0059
603.2122	0.0082
603.4027	0.0042
603.5931	0.012
603.7835	0.0015
603.9739	0.0002
604.1643	0.012
604.3547	0.0134
604.5451	0.0103
604.7354	0.0076
604.9257	0.0034
605.116	0.0001
605.3063	0.009
605.4966	0.0006
605.6869	0.0131
605.8771	0.0073
606.0673	0.0031
606.2575	0.0044
606.4477	0.0082
606.6379	0.0029
606.8281	0.0056
607.0182	0.0022
607.2083	0.0027
607.3985	0.0048
607.5885	0.0042
607.7786	0.0081
607.9687	0.0091
608.1587	0.0085
608.3488	0.0074
608.5388	-0.0012
608.7288	0.0044
608.9187	0.0034
609.1087	0.006
609.2986	0.0139
609.4886	0.0035
609.6785	0.0116
609.8684	0.0091
610.0582	0.0008
610.2481	0.0033
610.4379	0.0121
610.6278	0.0056
610.8176	0.008
611.0074	0.0078
611.1971	0.0065
611.3869	0.0095
611.5766	-0.0043
611.7664	0.0142
611.9561	0.0112
612.1458	0.0056
612.3354	0.0105
612.5251	0.0012
612.7147	0.0123
612.9044	0.0017
613.094	0.0024
613.2836	0.0018
613.4731	0.004
613.6627	0.0108
613.8522	0.013
614.0417	0.0123
614.2313	0.0054
614.4207	0.0079
614.6102	0.0103
614.7997	0.0063
614.9891	0.0077
615.1785	0.0032
615.3679	0.0064
615.5573	0.0105
615.7467	0.0007
615.9361	0.003
616.1254	0.0091
616.3147	0.0089
616.504	0.0085
616.6933	0.0023
616.8826	0.0032
617.0718	0.0127
617.2611	0.0078
617.4503	0.0039
617.6395	0.0117
617.8287	0.0122
618.0179	0.0061
618.207	0.0183
618.3961	0.0031
618.5853	0.0044
618.7744	0.0004
618.9634	0.0101
619.1525	0.01
619.3416	0.0079
619.5306	0.0075
619.7196	0.0069
619.9086	0.012
620.0976	-0.0017
620.2866	0.0182
620.4755	0.005
620.6645	0.0175
620.8534	0.0058
621.0423	0.0136
621.2312	-0.0032
621.42	0.0012
621.6089	-0.0012
621.7977	0.0088
621.9865	-0.0012
622.1753	-0.0005
622.3641	0.0007
622.5529	-0.0026
622.7416	0.0048
622.9303	0.0005
623.1191	0.0107
623.3078	0.0036
623.4964	0.0046
623.6851	0.0067
623.8737	0.0082
624.0624	0.0006
624.251	0.0061
624.4396	0.0072
624.6282	0.0131
624.8167	0.006
625.0053	0.0083
625.1938	0.0008
625.3823	0.0038
625.5708	0.0004
625.7593	-0.0055
625.9477	0.0187
626.1362	-0.0083
626.3246	0.0191
626.513	0.0059
626.7014	0.0038
626.8898	0.0149
627.0781	-0.0015
627.2665	0.0144
627.4548	0.0015
627.6431	0.0049
627.8314	0.0124
628.0197	0.0169
628.2079	0.0011
628.3962	0.0128
628.5844	0.0035
628.7726	-0.0014
628.9608	0.0048
629.1489	0.0047
629.3371	-0.0037
629.5252	0.0058
629.7134	-0.0034
629.9015	0.0073
630.0895	0.0085
630.2776	0.0094
630.4657	0.0124
630.6537	0.0154
630.8417	-0.0041
631.0297	-0.002
631.2177	0.008
631.4057	0.0028
631.5936	-0.0067
631.7815	0.0031
631.9695	0.0171
632.1574	0.008
632.3452	0.0023
632.5331	-0.0088
632.7209	0.0109
632.9088	0.006
633.0966	-0.0028
633.2844	0.0111
633.4722	0.0081
633.6599	0.0285
633.8477	0.0063
634.0354	0.0057
634.2231	-0.0087
634.4108	0.0091
634.5985	0.0112
634.7861	-0.0014
634.9738	0.011
635.1614	0.0062
635.349	-0.0081
635.5366	0.0097
635.7242	-0.0033
635.9117	0.018
636.0993	0.0063
636.2868	-0.0033
636.4743	0.0124
636.6618	0.0095
636.8492	0.027
637.0367	-0.0095
637.2241	0.0054
637.4115	0.0145
637.5989	0.0036
637.7863	0.0147
637.9737	-0.0012
638.161	0.0147
638.3484	-0.0032
638.5357	-0.0046
638.723	0.0084
638.9103	-0.0069
639.0975	0.0016
639.2848	0.0063
639.472	0.0186
639.6592	-0.0216
639.8464	0.0022
640.0336	0.0038
640.2208	-0.0129
640.4079	-0.0002
640.595	0.0002
640.7821	0.0111
640.9692	-0.0103
641.1563	0.025
641.3434	0.0074
641.5304	0.0059
641.7174	0.0154
641.9044	0.0188
642.0914	0.0234
642.2784	0.0169
642.4653	0.0062
642.6523	0.0024
642.8392	-0.0053
643.0261	0.0119
643.213	0.0006
643.3999	0.0184
643.5867	0.0119
643.7735	-0.0222
643.9604	0.015
644.1472	0.0171
644.3339	0.0046
644.5207	-0.0063
644.7075	0.0021
644.8942	-0.0054
645.0809	0.0141
645.2676	-0.0097
645.4543	0.0038
645.6409	0.0291
645.8276	0.0135
646.0142	-0.0003
646.2008	0.0038
646.3874	-0.0023
646.574	-0.0029
646.7605	0.0143
646.9471	-0.0028
647.1336	-0.0082
647.3201	0.0004
647.5066	0.0091
647.6931	-0.0011
647.8795	0.0088
648.0659	-0.0011
648.2524	0.0029
648.4388	0.0128
648.6252	0.0183
648.8115	-0.0002
648.9979	0.0083
649.1842	0.0073
649.3705	0.0113
649.5568	-0.0138
649.7431	-0.0107
649.9294	-0.0039
650.1156	-0.0179
650.3018	0.017
650.488	0.0118
650.6742	0.0081
650.8604	0.011
651.0466	0.0073
651.2327	0.0174
651.4188	-0.0063
651.6049	0.0262
651.791	0.0082
651.9771	0.0064
652.1632	0.0102
652.3492	-0.007
652.5352	0.0184
652.7212	0.0055
652.9072	-0.0073
653.0932	0.0121
653.2791	0.0032
653.465	0.0122
653.651	0.0041
653.8369	0.0126
654.0227	-0.0005
654.2086	0.0028
654.3944	0.0192
654.5803	0.0049
654.7661	0.0065
654.9519	0.0037
655.1377	0.0001
655.3234	0.0001
655.5092	0.0001
655.6949	0.0001
655.8806	0.0001
656.0663	0.0001
656.2519	0.0001
656.4376	0.0001
656.6232	0.0001
656.8088	0.0001
656.9945	0.0001
657.18	0.0001
657.3656	0.0001
657.5511	0.0001
657.7367	0.0001
657.9222	0.0001
658.1077	0.0001
658.2932	0.0001
658.4786	0.0001
658.6641	0.0001
658.8495	0.0001
659.0349	0.0001
659.2203	0.0001
659.4057	0.0104
659.591	0.2685
659.7764	0.0344
659.9617	0.0073
660.147	0.0038
660.3323	0.0182
660.5176	-0.0011
660.7028	0.0038
660.888	0.0043
661.0733	0.0196
661.2585	-0.001
661.4436	0.01
661.6288	0.025
661.8139	-0.0038
661.9991	-0.0072
662.1842	0.0037
662.3693	0.0048
662.5544	0.0034
662.7394	0.0133
662.9245	-0.0039
663.1095	-0.0224
663.2945	0.0048
663.4795	-0.0071
663.6644	0.0082
663.8494	0.0065
664.0343	0.0105
664.2193	-0.015
664.4042	0.0159
664.589	0.0139
664.7739	0.0079
664.9587	-0.0025
665.1436	0.0002
665.3284	0.0109
665.5132	-0.0011
665.698	-0.0017
665.8827	0.0053
666.0675	-0.0079
666.2522	0.0241
666.4369	-0.0046
666.6216	0.0162
666.8063	0.0236
666.9909	0.0003
667.1756	-0.002
667.3602	0.0089
667.5448	0.0065
667.7294	0.0202
667.9139	-0.0204
668.0985	0.012
668.283	-0.0038
668.4675	0.0265
668.652	0.0194
668.8365	-0.0034
669.0209	0.0227
669.2054	0.0151
669.3898	-0.0004
669.5742	0.0287
669.7586	0.0205
669.943	0.0073
670.1273	0.0079
670.3117	-0.0031
670.496	0.0173
670.6803	0.0137
670.8646	-0.0257
671.0488	0.0253
671.2331	-0.016
671.4173	0.0024
671.6015	-0.0005
671.7857	0.004
671.9699	0.0151
672.1541	-0.0103
672.3382	0.0029
672.5223	0.0049
672.7064	-0.0185
672.8905	-0.0063
673.0746	0.0043
673.2587	0.012
673.4427	0.0067
673.6267	0.0183
673.8107	0.0245
673.9947	0.0043
674.1787	0.0082
674.3626	0.0104
674.5465	0.0015
674.7304	0.0068
674.9143	-0.0083
675.0982	0.0049
675.2821	-0.0055
675.4659	0.0122
675.6497	0.0209
675.8335	-0.027
676.0173	-0.0037
676.2011	0.0226
676.3849	-0.0016
676.5686	-0.0042
676.7523	0.0023
676.936	0.0107
677.1197	0.0069
677.3034	0.0171
677.487	0.0089
677.6706	0.0199
677.8542	-0.0124
678.0378	0.0052
678.2214	-0.0069
678.405	0.0124
678.5885	0.0022
678.772	0.0034
678.9555	-0.0073
679.139	0.022
679.3225	0.0045
679.5059	0.0114
679.6894	-0.0125
679.8728	0.0171
680.0562	0.0123
680.2395	-0.0075
680.4229	-0.0065
680.6062	0.0134
680.7896	-0.0133
680.9729	0.0215
681.1562	-0.0092
681.3394	-0.0048
681.5227	0.0051
681.7059	0.0138
681.8891	-0.0085
682.0723	0.0059
682.2555	0.0094
682.4387	0.02
682.6218	0.0287
682.805	0.0133
682.9881	0.0219
683.1712	-0.0049
683.3542	0.0188
683.5373	-0.0019
683.7203	-0.0038
683.9034	0.0022
684.0864	-0.0004
684.2694	-0.0059
684.4523	0.0076
684.6353	0.0026
684.8182	-0.0105
685.0011	0.0154
685.184	0.0045
685.3669	0.0201
685.5498	-0.0112
685.7326	0.007
685.9154	0.0135
686.0982	0.0125
686.281	-0.0016
686.4638	0.0035
686.6465	0.0049
686.8293	-0.0067
687.012	0.01
687.1947	0.0036
687.3774	0.0135
687.56	-0.0218
687.7427	-0.0021
687.9253	-0.0155
688.1079	-0.0006
688.2905	-0.0111
688.4731	0.0145
688.6556	0.0011
688.8382	-0.0155
689.0207	-0.0053
689.2032	0.0209
689.3857	-0.0138
689.5681	0.0089
689.7506	0.0318
689.933	-0.0022
690.1154	0.0129
690.2978	0.0061
690.4802	0.0205
690.6626	0.0059
690.8449	0.0198
691.0272	0.0008
691.2095	-0.011
691.3918	0.0074
691.5741	0.0304
691.7563	0.0174
691.9386	0.025
692.1208	0.0185
692.303	-0.0127
692.4852	0.0184
692.6673	0.0166
692.8495	-0.0073
693.0316	0.0193
693.2137	0.005
693.3958	0.0086
693.5778	-0.0073
693.7599	0.0096
693.9419	-0.0063
694.1239	-0.0011
694.3059	0.0339
694.4879	-0.0004
694.6699	-0.0009
694.8518	0.0222
695.0337	0.0098
695.2157	0.032
695.3975	-0.0073
695.5794	-0.0122
695.7613	0.0227
695.9431	-0.0148
696.1249	0.0104
696.3067	-0.0119
696.4885	0.018
696.6703	0.0222
696.852	-0.0063
697.0337	0.0147
697.2154	0.0022
697.3971	-0.0065
697.5788	0.0122
697.7605	0.0067
697.9421	0.0165
698.1237	0.0084
698.3053	-0.0014
698.4869	0.0099
698.6685	-0.0006
698.85	0.033
699.0315	-0.0047
699.213	0.0136
699.3945	-0.0054
699.576	0.0197
699.7575	-0.0033
699.9389	0.005
700.1203	0.0055
700.3017	0.0023
700.4831	0.0286
700.6645	0.0219
700.8458	-0.0044
701.0271	0.028
701.2084	0.0027
701.3897	0.0178
701.571	-0.0004
701.7523	-0.0031
701.9335	0.0037
702.1147	0.0253
702.2959	0.0009
702.4771	0.0111
702.6583	0.0167
702.8394	-0.0153
703.0205	0.0181
703.2016	0.0168
703.3827	0.0136
703.5638	-0.0083
703.7449	0.0326
703.9259	-0.0011
704.1069	-0.0181
704.2879	0.0253
704.4689	0.0039
704.6499	0.02
704.8308	0.0098
705.0117	-0.0026
705.1927	0.0358
705.3735	0.0096
705.5544	0.0155
705.7353	-0.0261
705.9161	-0.0166
706.0969	0.0119
706.2777	-0.0021
706.4585	0.0031
706.6393	0.0173
706.82	0.0107
707.0007	-0.011
707.1815	0.0201
707.3621	0.0313
707.5428	-0.0009
707.7235	-0.0042
707.9041	0.001
708.0847	0.007
708.2653	0.017
708.4459	-0.0112
708.6265	-0.0047
708.807	0.0041
708.9875	-0.0066
709.168	-0.0025
709.3485	0.0079
709.529	0.0024
709.7095	-0.0021
709.8899	0.0042
710.0703	0.0232
710.2507	-0.0111
710.4311	-0.0079
710.6115	0.031
710.7918	0.0075
710.9721	0.022
711.1524	-0.021
711.3327	-0.0178
711.513	-0.0091
711.6932	0.002
711.8735	0.0182
712.0537	-0.0117
712.2339	0.0093
712.4141	0.0333
712.5942	0.0144
712.7744	0.01
712.9545	0.0209
713.1346	0.0267
713.3147	0.0151
713.4947	-0.0149
713.6748	0.0007
713.8548	0.0167
714.0348	0.0108
714.2148	0.0061
714.3948	0.0268
714.5748	0.0147
714.7547	0.0163
714.9346	0.026
715.1145	-0.016
715.2944	-0.0178
715.4743	0.0253
715.6541	-0.019
715.834	0.0254
716.0138	0.0154
716.1936	0.0195
716.3733	-0.0124
716.5531	-0.0033
716.7328	0.026
716.9126	0.0152
717.0923	-0.0118
717.2719	-0.0041
717.4516	0.0059
717.6312	-0.0187
717.8109	0.0156
717.9905	-0.0018
718.1701	0.0183
718.3496	0.0051
718.5292	-0.0141
718.7087	-0.0244
718.8882	0.0239
719.0677	0.0055
719.2472	-0.0314
719.4267	-0.0019
719.6061	-0.0298
719.7856	0.0268
719.965	0.0219
720.1443	0.0082
720.3237	-0.014
720.5031	0.0053
720.6824	-0.002
720.8617	-0.0093
721.041	0.0305
721.2203	-0.0198
721.3995	-0.005
721.5788	-0.0086
721.758	-0.0196
721.9372	-0.0143
722.1164	-0.0107
722.2956	0.0026
722.4747	0.0237
722.6538	0.0097
722.8329	0.047
723.012	0.0021
723.1911	0.0393
723.3702	0.0063
723.5492	-0.0039
723.7282	-0.0119
723.9072	0.0042
724.0862	0.0076
724.2652	0.0219
724.4441	-0.0109
724.623	-0.0075
724.8019	0.0003
724.9808	0.0188
725.1597	-0.0091
725.3385	0.0221
725.5174	0.0102
725.6962	0.0159
725.875	0.0199
726.0538	0.0108
726.2325	0.0224
726.4112	-0.0144
726.59	-0.0004
726.7687	-0.0107
726.9474	0.0215
727.126	0.0158
727.3047	0.0015
727.4833	0.0255
727.6619	-0.0004
727.8405	-0.0035
728.0191	0.0367
728.1976	0.033
728.3762	-0.0096
728.5547	-0.0004
728.7332	0.01
728.9116	0.0113
729.0901	0.0034
729.2686	0.0182
729.447	-0.0174
729.6254	-0.0041
729.8038	-0.0152
729.9821	-0.0254
730.1605	0.0117
730.3388	-0.0083
730.5171	0.0253
730.6954	-0.0118
730.8737	0.0157
731.0519	-0.0121
731.2302	0.0057
731.4084	0.0072
731.5866	0.0064
731.7648	0.0042
731.9429	0.0238
732.1211	-0.0045
732.2992	0.0078
732.4773	0.0164
732.6554	-0.0093
732.8335	0.0249
733.0115	0.0243
733.1896	-0.0069
733.3676	0.015
733.5456	-0.0059
733.7235	0.0009
733.9015	0.0121
734.0794	0.0071
734.2574	-0.0116
734.4353	0.0311
734.6131	-0.0111
734.791	-0.0103
734.9689	-0.0046
735.1467	0.0129
735.3245	0.0216
735.5023	0.007
735.68	-0.0098
735.8578	0.0048
736.0355	0.0072
736.2132	0.018
736.3909	-0.0008
736.5686	-0.0087
736.7463	-0.0146
736.9239	0.036
737.1015	-0.005
737.2791	-0.0029
737.4567	0.0066
737.6343	-0.0175
737.8118	0.0085
737.9894	0.001
738.1669	-0.0057
738.3444	0.0345
738.5218	-0.0263
738.6993	0.0313
738.8767	0.0047
739.0541	-0.0015
739.2315	0.009
739.4089	0.0165
739.5863	0.0083
739.7636	0.0045
739.9409	0.0025
740.1182	0.0168
740.2955	0.0202
740.4728	0.0004
740.65	-0.0174
740.8272	0.0315
741.0044	0.009
741.1816	0.018
741.3588	-0.0081
741.5359	-0.0211
741.7131	-0.004
741.8902	0.0045
742.0673	-0.033
742.2444	0.0405
742.4214	0.0272
742.5985	-0.024
742.7755	-0.0199
742.9525	-0.0138
743.1295	-0.0149
743.3064	0.0122
743.4834	-0.0138
743.6603	0.0542
743.8372	-0.0468
744.0141	0.0449
744.191	0.033
744.3678	-0.0366
744.5446	0.0254
744.7215	0.0066
744.8982	0.0018
745.075	0.052
745.2518	-0.0068
745.4285	0.0536
745.6052	-0.0309
745.7819	-0.0029
745.9586	0.0118
746.1353	-0.0234
746.3119	-0.0261
746.4885	0.011
746.6651	0.003
746.8417	0.0046
747.0183	0.0254
747.1948	0.0257
747.3714	-0.0005
747.5479	0.0138
747.7244	-0.0253
747.9008	0.0016
748.0773	0.0393
748.2537	0.0313
748.4301	0.0238
748.6065	-0.0139
748.7829	-0.0283
748.9593	0.0057
749.1356	-0.0055
749.3119	0.0255
749.4882	0.0152
749.6645	0.0144
749.8408	0.0121
750.017	0.0375
750.1933	-0.0091
750.3695	0.0026
750.5457	-0.016
750.7218	-0.0089
750.898	-0.0084
751.0741	-0.0178
751.2502	0.0055
751.4263	0.0069
751.6024	0.0065
751.7784	0.0208
751.9545	-0.0153
752.1305	0.0103
752.3065	0.0042
752.4825	-0.0127
752.6584	-0.0059
752.8344	-0.0077
753.0103	-0.0132
753.1862	0.0076
753.3621	-0.0091
753.5379	-0.0024
753.7138	0.0257
753.8896	-0.0067
754.0654	-0.018
754.2412	0.0111
754.417	0.0198
754.5927	-0.0105
754.7685	0.0125
754.9442	0.0189
755.1199	0.0076
755.2956	0.0068
755.4712	-0.0015
755.6469	-0.0012
755.8225	0.0205
755.9981	0.0143
756.1736	-0.0032
756.3492	-0.0063
756.5248	0.028
756.7003	-0.007
756.8758	-0.0049
757.0513	0.0014
757.2267	0.0107
757.4022	-0.0052
757.5776	-0.0012
757.753	0.0123
757.9284	0.0036
758.1038	0.0301
758.2791	0.0195
758.4545	-0.0038
758.6298	-0.0046
758.8051	0.0113
758.9803	0.0118
759.1556	0.0022
759.3308	0.0091
759.506	0.0075
759.6812	0.0163
759.8564	-0.0005
760.0316	-0.0051
760.2067	0.0323
760.3819	0.0166
760.557	0.0082
760.732	0.0052
760.9071	0.0323
761.0821	-0.0339
761.2572	0.0212
761.4322	0.0122
761.6072	0.0034
761.7821	-0.0291
761.9571	0.042
762.132	0.0373
762.3069	0.0241
762.4818	-0.0035
762.6567	0.0081
762.8316	0.0256
763.0064	0.0104
763.1812	0.0212
763.356	0.0059
763.5308	0.0118
763.7055	0.0094
763.8803	-0.0026
764.055	0.0022
764.2297	-0.0054
764.4044	-0.0018
764.579	0.017
764.7537	0.0114
764.9283	0.0138
765.1029	-0
765.2775	0.0089
765.4521	0.0002
765.6266	0.0113
765.8011	0.0106
765.9756	0.0267
766.1501	0.0054
766.3246	0.017
766.4991	0.0136
766.6735	0.0188
766.8479	0.024
767.0223	0.0126
767.1967	0.0154
767.371	-0.0133
767.5454	0.0254
767.7197	0.0142
767.894	0.0048
768.0683	0.0355
768.2425	0.001
768.4168	0.0114
768.591	0.0263
768.7652	-0.0256
768.9394	-0.0282
769.1135	0.0149
769.2877	0.0174
769.4618	0.0016
769.6359	-0.0005
769.81	0.048
769.984	-0.0034
770.1581	0.0067
770.3321	0.0342
770.5061	-0.0004
770.6801	0.007
770.8541	0.0251
771.028	0.0381
771.202	0.0267
771.3759	0.0238
771.5498	-0.0079
771.7236	-0.0115
771.8975	0.0233
772.0713	0.0134
772.2451	-0.0182
772.4189	0.0088
772.5927	-0.0167
772.7665	-0.0036
772.9402	0.0132
773.1139	-0.0147
773.2876	0.015
773.4613	0.0248
773.635	0.0453
773.8086	-0.0062
773.9822	0.0252
774.1558	0.0315
774.3294	0.0123
774.503	0.0248
774.6765	0.0088
774.8501	0.0252
775.0236	0.0237
775.1971	-0.0084
775.3705	-0.0184
775.544	-0.0332
775.7174	0.0115
775.8908	0.0087
776.0642	-0.0034
776.2376	-0.0165
776.4109	0.0282
776.5843	-0.0148
776.7576	0.0453
776.9309	0.053
777.1041	-0.0226
777.2774	0.015
777.4506	0.0129
777.6238	-0.0466
777.797	0.0171
777.9702	0.0045
778.1434	0.0531
778.3165	-0.0123
778.4896	-0.0155
778.6627	0.0031
778.8358	-0.0292
779.0089	-0.0072
779.1819	0.0451
779.3549	0.028
779.5279	-0.032
779.7009	0.067
779.8739	0.0822
780.0468	0.0275
780.2197	-0.0119
780.3926	-0.0237
780.5655	-0.003
780.7384	-0.0241
780.9112	-0.0052
781.0841	-0.0051
781.2569	-0.0068
781.4297	-0.0117
781.6024	0.0271
781.7752	0.0312
781.9479	0.0443
782.1206	0.0128
782.2933	0.0131
782.466	0.0536
782.6386	-0.0114
782.8113	-0.0081
782.9839	-0.0082
783.1565	0.0184
783.329	-0.0041
783.5016	-0.019
783.6741	-0.0044
783.8466	0.032
784.0191	0.0138
784.1916	0.02
784.3641	-0.0166
784.5365	0.0014
784.7089	-0.0117
784.8813	0.0578
785.0537	0.0202
785.2261	-0.0023
785.3984	-0.0076
785.5707	-0.0389
785.743	0.0557
785.9153	-0.0045
786.0876	-0.0039
786.2598	-0.0276
786.432	0.0243
786.6042	0.0719
786.7764	-0.0375
786.9486	-0.0237
787.1207	0.0502
787.2928	0.0133
787.4649	-0.0154
787.637	0.038
787.8091	0.0154
787.9811	0.0237
788.1532	0.0034
788.3252	0.0034
788.4972	0.0016
788.6691	-0.0018
788.8411	-0.0007
789.013	0.0068
789.1849	0.0049
789.3568	0.0062
789.5287	0.0149
789.7005	-0.0424
789.8723	-0.0412
790.0442	-0.084
790.2159	-0.0489
790.3877	0.0754
790.5595	0.061
790.7312	-0.0187
790.9029	-0.0241
791.0746	-0.0036
791.2463	-0.0986
791.4179	0.0138
791.5896	0.0262
791.7612	0.0099
791.9328	-0.0291
792.1044	-0.0267
792.2759	-0.016
792.4474	0.008
792.619	-0.0444
792.7905	-0.0267
792.9619	0.0644
793.1334	0.1106
793.3048	0.0579
793.4762	0.0032
793.6476	-0.0202
793.819	-0.0074
793.9904	-0.0067
794.1617	-0.0196
794.333	0.0152
794.5043	-0.0327
794.6756	0.0298
794.8469	0.0085
795.0181	0.0366
795.1893	0.0329
795.3605	0.0483
795.5317	0.0169
795.7029	-0.0142
795.874	0.0055
796.0452	0.0325
796.2163	0.0278
796.3873	0.077
796.5584	-0.0082
796.7294	0.0073
796.9005	-0.0203
797.0715	-0.0408
797.2425	0.0554
797.4134	0.0584
797.5844	0.0524
797.7553	-0.0712
797.9262	0.1213
798.0971	-0.0033
798.2679	-0.0439
798.4388	0.0706
798.6096	0.058
798.7804	0.021
798.9512	0.0557
799.122	-0.0382
799.2927	0.012
799.4635	-0.0453
799.6342	-0.0772
799.8049	0.0386
799.9755	0.0063
800.1462	-0.0254
800.3168	0.0024
800.4874	-0.0438
800.658	0.0052
800.8286	0.022
800.9991	0.0013
801.1696	0.0071
801.3402	-0.1111
801.5106	-0.0574
801.6811	-0.0056
801.8516	0.021
802.022	0.0054
802.1924	-0.0246
802.3628	0.0301
802.5332	0.144
802.7035	0.0482
802.8739	0.0135
803.0442	-0.015
803.2145	0.0284
803.3847	0.0123
803.555	0.0595
803.7252	-0.0278
803.8954	0.003
804.0656	0.0376
804.2358	0.0034
804.4059	0.0523
804.5761	0.0828
804.7462	0.0301
804.9163	0.1306
805.0864	-0.0603
805.2564	-0.0152
805.4264	0.0559
805.5965	0.0442
805.7665	-0.0181
805.9364	-0.0569
806.1064	-0.014
806.2763	0.0626
806.4462	0.0477
806.6161	0.0123
806.786	0.0089
806.9559	0.03
807.1257	0.0029
807.2955	-0.0232
807.4653	0.0082
807.6351	0.0122
807.8048	0.0236
807.9746	0.0387
808.1443	-0.0289
808.314	0.0389
808.4837	0.0457
808.6533	-0.0246
808.8229	0.048
808.9926	0.0752
809.1622	0.0654
809.3317	-0.0155
809.5013	0.0071
809.6708	-0.0369
809.8403	0.0368
810.0098	0.0033
810.1793	0.0625
810.3488	-0.0872
810.5182	0.158
810.6876	0.0686
810.857	0.0847
811.0264	0.0418
811.1958	0.0632
811.3651	0.0573
811.5344	0.0163
811.7037	0.0162
811.873	0.1315
812.0422	-0.1108
812.2115	-0.0208
812.3807	-0.1659
812.5499	0.0947
812.7191	-0.097
812.8882	0.082
813.0574	0.0264
813.2265	-0.0085
813.3956	0.1104
813.5646	0.0708
813.7337	0.0033
813.9027	-0.0451
814.0718	0.06
814.2407	0.0418
814.4097	0.0933
814.5787	0.1018
814.7476	-0.0046
814.9165	0.0344
815.0854	0.0392
815.2543	-0.0363
815.4232	0.0146
815.592	0.0021
815.7608	-0.0047
815.9296	0.0789
816.0984	0.1587
816.2671	-0.306
816.4359	0.3273
816.6046	0.031
816.7733	-0.1425
816.942	-0.0288
817.1106	-0.0249
817.2793	-0.0958
817.4479	0.0115
817.6165	0.047
817.785	0.011
817.9536	0.0562
818.1221	0.0475
818.2906	-0.1147
818.4591	0.0319
818.6276	0.0711
818.7961	-0.0222
818.9645	0.1915
819.1329	0.0078
819.3013	-0.1563
819.4697	0.3856
819.638	0.2159
819.8064	0.0027
819.9747	0.023
820.143	0.0452
820.3113	0.1839
820.4795	0.2173
820.6477	0.0803
820.816	-0.0329
820.9842	0.0469
821.1523	0.0921
821.3205	0.0399
821.4886	-0.0204
821.6567	-0.1102
821.8248	0.2096
821.9929	-0.1954
822.1609	-0.0481
822.329	-0.015
822.497	0.0301
822.665	0.1958
822.833	0.105
823.0009	0.0677
823.1688	0.0629
823.3367	-0.149
823.5046	0.0515
823.6725	0.006
823.8404	0.2431
824.0082	-0.0503
824.176	0.0197
824.3438	0.2034
824.5116	-0.0461
824.6793	0.2748
824.847	0.2417
825.0147	0.1393
825.1824	0.0983
825.3501	-0.1655
825.5177	0.1522
825.6854	-0.1069
825.853	0.063
826.0206	0.0178
826.1881	0.0217
826.3557	-0.0661
826.5232	0.2412
826.6907	0.0996
826.8582	-0.0822
827.0257	0.3921
827.1931	-0.0323
827.3605	-0.1083
827.528	0.0485
827.6953	-0.0709
827.8627	-0.0644
828.03	0.0471
828.1974	-0.0854
828.3647	0.0542
828.532	0.0092
828.6992	0.0699
828.8665	-0.1962
829.0337	0.0469
829.2009	-0.1487
829.3681	0.0059
829.5352	-0.0259
829.7024	0.0857
829.8695	0.2756
830.0366	0.2513
830.2037	0.18
830.3707	0.0382
830.5378	-0.1036
830.7048	-0.1248
830.8718	0.1781
831.0388	-0.1557
831.2057	-0.1198
831.3727	-0.4571
831.5396	0.1213
831.7065	-0.7303
831.8734	0.1545
832.0402	0.022
832.2071	-0.6416
832.3739	0.218
832.5407	-1.865
832.7075	-0.1391
832.8742	0.9078
833.041	0.0915
833.2077	0.1284
833.3744	0.2814
833.541	0.0587
833.7077	-0.1105
833.8743	-0.052
834.0409	-0.0457
834.2075	0.0047
834.3741	-0.1731
834.5407	0.0683
834.7072	0.0156
834.8737	0.0424
835.0402	0.2957
835.2067	0.1859
835.3731	0.0045
835.5395	0.1173
835.706	-0.2615
835.8723	-0.0126
836.0387	0.2218
836.2051	0.6235
836.3714	0.0418
836.5377	0.0231
836.704	0.5868
836.8703	0.0635
837.0365	-0.5788
837.2027	0.1838
837.3689	0.0588
837.5351	0.4395
837.7013	-0.2514
837.8674	0.1883
838.0335	0.0044
838.1997	-0.0854
838.3657	-0
838.5318	0.2105
838.6978	1.2424
838.8639	-0.1417
839.0299	0.3016
839.1958	-0.0143
839.3618	0.4816
839.5277	-0.097
839.6937	0.6299
839.8596	-0.0018
840.0254	0.0715
840.1913	0.1934
840.3571	-0.2939
840.523	-0.7324
840.6888	0.1607
840.8545	-0.6474
841.0203	0.0045
841.186	0.0215
841.3517	-0.2335
841.5174	-0.0361
841.6831	0.2027
841.8488	-0.0781
842.0144	0.134
842.18	1.1372
842.3456	-0.597
842.5112	-0
842.6767	-0.0612
842.8422	0.0624
843.0077	0.4098
843.1732	-0.3655
843.3387	0.3747
843.5042	-0
843.6696	-0
843.835	-0.175
844.0004	-0.1247
844.1657	-0.6897
844.3311	-0.2952
844.4964	-0
844.6617	-0
844.827	-0
844.9923	0.1546
845.1575	-0.0479
845.3227	0.1368
845.4879	-0
845.6531	0.0673
845.8183	0.2501
845.9834	-0.15
846.1485	0.9801
846.3136	0.5436
846.4787	-0
846.6438	0.196
846.8088	-0
846.9738	-0.7496
847.1388	0.2086
847.3038	0.8005
847.4687	-0
847.6337	0.1953
847.7986	0.012
847.9635	-0.2414
848.1284	0.5922
848.2932	0.057
848.458	-0
848.6228	0.674
848.7876	-0
848.9524	-0
849.1172	-1.5511
849.2819	-0
849.4466	0.5378
849.6113	0.2858
849.7759	0.7385
849.9406	-0.2042
850.1052	-0
850.2698	-0.1782
850.4344	-0.5475
850.599	-0.2912
850.7635	-0
850.928	-0
851.0925	0.3161
851.257	0.6237
851.4215	-0
851.5859	-0.1418
851.7503	-0
851.9147	0.0583
852.0791	0.0731
852.2434	0.2464
852.4078	-0
852.5721	0.2188
852.7364	0.078
852.9007	0.557
853.0649	0.1293
853.2291	0.153
853.3934	-0
853.5575	-0.2362
853.7217	0.388
853.8859	0.265
854.05	-0.5794
854.2141	-0
854.3782	-0.3684
854.5423	-0
854.7063	-0.2112
854.8703	0.0999
855.0343	-0.1269
855.1983	0.5363
855.3623	0.1716
855.5262	-0
855.6901	0.1758
855.854	-0.1005
856.0179	0.4516
856.1818	-0.0812
856.3456	1.9214
856.5094	-0.4599
856.6732	-0
856.837	-1.2846
857.0008	-0
857.1645	0.6152
857.3282	-0.7324
857.4919	0.0482
857.6556	-0.2832
857.8192	0.1542
857.9828	-0.2445
858.1465	-0.0732
858.31	-0
858.4736	-0
858.6372	-0.2718
858.8007	-0.0713
858.9642	0.3132
859.1277	0.8804
859.2911	-0.4953
859.4546	-0
859.618	0.1189
859.7814	-0
859.9448	0.2307
860.1081	0.6158
860.2715	-1.5911
860.4348	-0.0148
860.5981	0.3815
860.7614	-0
860.9246	-0.2278
861.0879	0.8267
861.2511	-0
861.4143	-0.4443
861.5774	-0.1626
861.7406	0.1368
861.9037	-0.5275
862.0668	-0.6763
862.2299	-0.2493
862.393	-0
862.556	-0.587
862.7191	-0
862.8821	0.1081
863.0451	0.302
863.208	-0.2759
863.371	-0.4233
863.5339	0.3951
863.6968	1.3653
863.8597	-0.5296
864.0225	-0
864.1854	-0.1782
864.3482	-0.9448
864.511	-0.2295
864.6737	-0
864.8365	-0.043
864.9992	-0
865.1619	-0.6632
865.3246	-1.8751
865.4873	-0
865.65	0.0958
865.8126	-0.2092
865.9752	-0.0367
866.1378	1.2815
866.3004	-0.154
866.4629	-1.6277
866.6254	-0
866.7879	-0
866.9504	-0
867.1129	-0
867.2753	-0.0815
867.4377	-0.0456
867.6001	-0.5697
867.7625	-0.0993
867.9249	-0.148
868.0872	-0.0025
868.2495	-0
868.4118	0.1344
868.5741	-0
868.7363	0.4367
868.8986	-0.5259
869.0608	-0
869.223	-0.3953
869.3851	-0
869.5473	-0.1269
869.7094	1.3411
869.8715	-0
870.0336	0.2802
870.1957	-0.9018
870.3577	0.388
870.5197	-0.074
870.6817	-0.7225
870.8437	-0.0201
871.0057	-0.1016
871.1676	0.1295
871.3295	-0
871.4914	-1.1761
871.6533	-0.0262
871.8151	1.0836
871.977	-0.183
872.1388	0.8526
872.3006	-0.6141
872.4623	-0.4771
872.6241	0.9208
872.7858	0.0268
872.9475	-0
873.1092	-0
873.2709	0.6713
873.4325	-0.4771
873.5941	-0
873.7557	-0
873.9173	-0.1987
874.0789	0.6295
874.2404	-0
874.4019	0.4357
874.5634	0.3477
874.7249	-0
874.8863	1.843
875.0478	-0.175
875.2092	0.9728
875.3706	0.1554
875.5319	-0.4339
875.6933	1.0462
875.8546	-0.5416
876.0159	-0
876.1772	-0.6391
876.3385	0.5198
876.4997	0.6102
876.6609	0.4833
876.8221	-0
876.9833	-0.0686
877.1445	0.5851
877.3056	-0
877.4667	-0
877.6278	-0
877.7889	-0.3134
877.9499	0.939
878.111	-0.0049
878.272	1.3176
878.433	-0
878.5939	-0.4273
878.7549	-0
878.9158	-0.3956
879.0767	-0
879.2376	-0.2572
879.3984	0.2943
879.5593	0.5407
879.7201	-1.6277
879.8809	-0
880.0417	-0.2475
880.2024	0.6074
880.3632	-0.3635
880.5239	0.2039
880.6846	-0.0978
880.8452	-0.1317
881.0059	-0.6933
881.1665	0.2659
881.3271	0.1183
881.4877	-0
881.6483	-1.3436
881.8088	-0.8001
881.9693	-0
882.1298	-0
882.2903	-0
