Data from D4ACN5uM420nmA_Absorbance_14-37-08-967.txt Node
Date: Fri Feb 21 14:37:08 GMT 2025
User: LASERRRRR
Spectrometer: FLMT03099
Trigger mode: 0
Integration Time (sec): 1.500000E-2
Scans to average: 1
Electric dark correction enabled: true
Nonlinearity correction enabled: false
Boxcar width: 0
XAxis mode: Wavelengths
Number of Pixels in Spectrum: 3648
>>>>>Begin Spectral Data<<<<<
179.3399	-0.1165
179.5586	-0.1165
179.7771	-0.1165
179.9957	-0.1264
180.2143	-0
180.4329	-0
180.6514	-0.7314
180.8699	0.5817
181.0885	0.0815
181.307	0.6164
181.5255	0.2581
181.744	-0.3986
181.9625	0.2952
182.181	0.2599
182.3994	-0
182.6179	0.4849
182.8363	-0
183.0547	0.4578
183.2732	0.1411
183.4916	0.1023
183.71	0.1959
183.9284	-0.0171
184.1467	0.1082
184.3651	-0.014
184.5835	0.1288
184.8018	0.3916
185.0201	0.2449
185.2385	0.1954
185.4568	0.2071
185.6751	0.2442
185.8934	0.2245
186.1117	-0.1035
186.3299	0.13
186.5482	0.2098
186.7664	0.1019
186.9847	-0.0659
187.2029	0.7828
187.4211	0.0486
187.6393	0.2608
187.8575	0.3861
188.0757	0.1696
188.2939	0.0881
188.512	0.2859
188.7302	0.189
188.9483	0.5327
189.1665	0.4484
189.3846	0.2032
189.6027	0.2265
189.8208	0.6795
190.0389	0.2129
190.257	0.1326
190.475	-0.0346
190.6931	0.3437
190.9111	0.0966
191.1292	0.2063
191.3472	0.1361
191.5652	0.1492
191.7832	0.2541
192.0012	0.1558
192.2192	0.1973
192.4371	0.1623
192.6551	0.1695
192.873	0.2029
193.091	0.1416
193.3089	0.2464
193.5268	0.1748
193.7447	0.0968
193.9626	0.2434
194.1805	0.1989
194.3984	0.253
194.6162	0.1975
194.8341	0.397
195.0519	0.2633
195.2697	0.3304
195.4875	0.3733
195.7054	0.2248
195.9231	0.1809
196.1409	0.3585
196.3587	0.2961
196.5765	0.4106
196.7942	0.2831
197.012	0.2982
197.2297	0.3055
197.4474	0.3592
197.6651	0.3166
197.8828	0.2447
198.1005	0.4018
198.3182	0.3943
198.5358	0.3692
198.7535	0.37
198.9711	0.4477
199.1888	0.3878
199.4064	0.3796
199.624	0.4074
199.8416	0.3765
200.0592	0.4284
200.2767	0.4188
200.4943	0.4028
200.7119	0.3832
200.9294	0.4421
201.1469	0.4358
201.3645	0.4706
201.582	0.3906
201.7995	0.3993
202.017	0.3817
202.2344	0.3925
202.4519	0.3598
202.6694	0.3577
202.8868	0.4359
203.1042	0.3927
203.3217	0.355
203.5391	0.3939
203.7565	0.3393
203.9739	0.4327
204.1913	0.3779
204.4086	0.347
204.626	0.3351
204.8433	0.3529
205.0607	0.3532
205.278	0.3496
205.4953	0.3446
205.7126	0.3135
205.9299	0.3116
206.1472	0.3283
206.3644	0.3415
206.5817	0.337
206.7989	0.3467
207.0162	0.3418
207.2334	0.3357
207.4506	0.2905
207.6678	0.3138
207.885	0.279
208.1022	0.306
208.3194	0.31
208.5365	0.3322
208.7537	0.3068
208.9708	0.3022
209.1879	0.2877
209.405	0.2772
209.6222	0.2773
209.8392	0.2981
210.0563	0.2957
210.2734	0.2608
210.4905	0.2646
210.7075	0.2706
210.9245	0.2713
211.1416	0.2627
211.3586	0.2579
211.5756	0.2598
211.7926	0.2835
212.0096	0.253
212.2265	0.2644
212.4435	0.2582
212.6604	0.2573
212.8774	0.227
213.0943	0.2454
213.3112	0.2494
213.5281	0.2606
213.745	0.2479
213.9619	0.2367
214.1788	0.252
214.3956	0.2364
214.6125	0.2342
214.8293	0.24
215.0461	0.2364
215.2629	0.2389
215.4798	0.2357
215.6965	0.2401
215.9133	0.2364
216.1301	0.236
216.3469	0.2459
216.5636	0.2372
216.7803	0.2597
216.9971	0.2453
217.2138	0.2479
217.4305	0.2386
217.6472	0.23
217.8639	0.2409
218.0805	0.2508
218.2972	0.2384
218.5138	0.2546
218.7305	0.2572
218.9471	0.2496
219.1637	0.2696
219.3803	0.2531
219.5969	0.25
219.8135	0.2613
220.0301	0.2581
220.2466	0.2491
220.4632	0.2426
220.6797	0.2612
220.8962	0.2466
221.1127	0.2818
221.3292	0.2541
221.5457	0.2646
221.7622	0.2723
221.9787	0.2854
222.1951	0.2617
222.4116	0.2779
222.628	0.2775
222.8444	0.2962
223.0608	0.2758
223.2772	0.2788
223.4936	0.274
223.71	0.2739
223.9264	0.2902
224.1427	0.2739
224.3591	0.2906
224.5754	0.2841
224.7917	0.3022
225.008	0.2984
225.2243	0.2947
225.4406	0.2843
225.6569	0.3002
225.8732	0.3117
226.0894	0.3034
226.3057	0.3068
226.5219	0.3052
226.7381	0.321
226.9543	0.3092
227.1705	0.3053
227.3867	0.323
227.6029	0.3246
227.8191	0.3246
228.0352	0.3324
228.2513	0.3485
228.4675	0.3413
228.6836	0.3511
228.8997	0.344
229.1158	0.3438
229.3319	0.3592
229.548	0.3429
229.764	0.3569
229.9801	0.3698
230.1961	0.3714
230.4121	0.3777
230.6282	0.3922
230.8442	0.3918
231.0602	0.3788
231.2761	0.3935
231.4921	0.3891
231.7081	0.3992
231.924	0.406
232.14	0.4126
232.3559	0.4122
232.5718	0.4223
232.7877	0.415
233.0036	0.4253
233.2195	0.4226
233.4353	0.4184
233.6512	0.4166
233.867	0.4197
234.0829	0.4215
234.2987	0.4265
234.5145	0.4387
234.7303	0.4333
234.9461	0.4443
235.1619	0.443
235.3776	0.4388
235.5934	0.435
235.8091	0.4547
236.0249	0.4489
236.2406	0.4491
236.4563	0.4515
236.672	0.4481
236.8877	0.4532
237.1034	0.4424
237.319	0.4451
237.5347	0.4533
237.7503	0.4516
237.966	0.4626
238.1816	0.4612
238.3972	0.4563
238.6128	0.4699
238.8284	0.4686
239.0439	0.4638
239.2595	0.4636
239.475	0.4634
239.6906	0.4603
239.9061	0.4616
240.1216	0.4703
240.3371	0.476
240.5526	0.469
240.7681	0.4626
240.9836	0.4616
241.199	0.4585
241.4145	0.4457
241.6299	0.4582
241.8453	0.4485
242.0607	0.454
242.2761	0.446
242.4915	0.4373
242.7069	0.4402
242.9223	0.4297
243.1376	0.4245
243.353	0.4218
243.5683	0.4114
243.7836	0.4
243.9989	0.3898
244.2142	0.3877
244.4295	0.3836
244.6448	0.3827
244.86	0.3762
245.0753	0.3618
245.2905	0.3577
245.5057	0.3481
245.721	0.3485
245.9362	0.3416
246.1514	0.3349
246.3665	0.321
246.5817	0.307
246.7969	0.3129
247.012	0.3049
247.2271	0.3074
247.4423	0.2937
247.6574	0.2899
247.8725	0.2816
248.0876	0.2833
248.3026	0.2814
248.5177	0.2642
248.7328	0.2678
248.9478	0.2635
249.1628	0.2542
249.3779	0.2507
249.5929	0.2466
249.8079	0.2409
250.0228	0.2339
250.2378	0.2398
250.4528	0.2349
250.6677	0.2327
250.8827	0.2276
251.0976	0.2176
251.3125	0.2231
251.5274	0.2195
251.7423	0.2183
251.9572	0.2126
252.172	0.2043
252.3869	0.2121
252.6017	0.2033
252.8166	0.2051
253.0314	0.202
253.2462	0.2016
253.461	0.1941
253.6758	0.1982
253.8906	0.2011
254.1053	0.1923
254.3201	0.1916
254.5348	0.1904
254.7496	0.1919
254.9643	0.1944
255.179	0.1929
255.3937	0.2002
255.6083	0.1952
255.823	0.1934
256.0377	0.189
256.2523	0.1902
256.467	0.1926
256.6816	0.1913
256.8962	0.1867
257.1108	0.1875
257.3254	0.1896
257.54	0.1898
257.7545	0.185
257.9691	0.1874
258.1836	0.1823
258.3981	0.185
258.6127	0.1808
258.8272	0.186
259.0417	0.1815
259.2561	0.181
259.4706	0.177
259.6851	0.1802
259.8995	0.1812
260.114	0.1862
260.3284	0.1805
260.5428	0.1835
260.7572	0.1816
260.9716	0.1896
261.186	0.1797
261.4003	0.1798
261.6147	0.185
261.829	0.1873
262.0433	0.1832
262.2577	0.1852
262.472	0.1788
262.6863	0.1922
262.9005	0.1894
263.1148	0.1872
263.3291	0.1858
263.5433	0.1933
263.7576	0.1827
263.9718	0.1883
264.186	0.1888
264.4002	0.1933
264.6144	0.1959
264.8286	0.1946
265.0427	0.1898
265.2569	0.1965
265.471	0.1976
265.6851	0.195
265.8993	0.1959
266.1134	0.1957
266.3275	0.1957
266.5415	0.2004
266.7556	0.1958
266.9697	0.197
267.1837	0.1998
267.3978	0.1895
267.6118	0.1912
267.8258	0.1982
268.0398	0.1975
268.2538	0.2019
268.4677	0.198
268.6817	0.1918
268.8957	0.1892
269.1096	0.1901
269.3235	0.1862
269.5374	0.1876
269.7514	0.1929
269.9652	0.1878
270.1791	0.1882
270.393	0.1902
270.6068	0.1932
270.8207	0.1885
271.0345	0.1878
271.2483	0.1874
271.4622	0.1912
271.676	0.1907
271.8897	0.1873
272.1035	0.1973
272.3173	0.1888
272.531	0.1882
272.7448	0.1925
272.9585	0.1896
273.1722	0.1899
273.3859	0.1967
273.5996	0.1936
273.8133	0.1961
274.0269	0.1899
274.2406	0.197
274.4542	0.1941
274.6679	0.1963
274.8815	0.199
275.0951	0.1994
275.3087	0.2049
275.5223	0.1978
275.7358	0.1986
275.9494	0.2072
276.1629	0.2051
276.3765	0.2039
276.59	0.1993
276.8035	0.2066
277.017	0.2117
277.2305	0.2129
277.444	0.2113
277.6574	0.214
277.8709	0.2121
278.0843	0.208
278.2978	0.2109
278.5112	0.2121
278.7246	0.2015
278.938	0.2101
279.1513	0.2138
279.3647	0.2067
279.5781	0.2042
279.7914	0.2
280.0047	0.2057
280.2181	0.2043
280.4314	0.2034
280.6447	0.2075
280.8579	0.1984
281.0712	0.1951
281.2845	0.1989
281.4977	0.2038
281.711	0.1975
281.9242	0.1987
282.1374	0.1958
282.3506	0.1968
282.5638	0.1988
282.7769	0.1908
282.9901	0.1961
283.2033	0.1929
283.4164	0.1895
283.6295	0.1938
283.8426	0.1908
284.0557	0.1984
284.2688	0.1996
284.4819	0.1848
284.695	0.1938
284.908	0.1944
285.1211	0.186
285.3341	0.1873
285.5471	0.194
285.7601	0.1978
285.9731	0.1917
286.1861	0.1972
286.3991	0.1932
286.612	0.1946
286.825	0.1932
287.0379	0.1905
287.2508	0.1948
287.4637	0.1934
287.6766	0.1847
287.8895	0.188
288.1024	0.195
288.3152	0.192
288.5281	0.1859
288.7409	0.1927
288.9538	0.194
289.1666	0.1936
289.3794	0.1839
289.5922	0.1894
289.8049	0.1887
290.0177	0.1909
290.2304	0.1893
290.4432	0.1922
290.6559	0.1899
290.8686	0.1913
291.0813	0.1906
291.294	0.1899
291.5067	0.1847
291.7194	0.1875
291.932	0.1903
292.1447	0.1859
292.3573	0.1923
292.5699	0.1876
292.7825	0.1873
292.9951	0.1851
293.2077	0.1819
293.4203	0.1952
293.6328	0.1901
293.8454	0.1933
294.0579	0.1861
294.2704	0.1922
294.4829	0.1856
294.6954	0.1874
294.9079	0.1867
295.1204	0.1854
295.3328	0.1898
295.5453	0.1813
295.7577	0.1908
295.9701	0.1891
296.1825	0.1946
296.3949	0.1857
296.6073	0.1868
296.8197	0.1864
297.0321	0.1926
297.2444	0.1836
297.4567	0.1834
297.6691	0.1827
297.8814	0.1893
298.0937	0.1858
298.306	0.1894
298.5182	0.1898
298.7305	0.1914
298.9428	0.1871
299.155	0.1812
299.3672	0.1829
299.5794	0.1887
299.7916	0.19
300.0038	0.1865
300.216	0.1898
300.4282	0.1925
300.6403	0.1925
300.8525	0.1905
301.0646	0.1899
301.2767	0.1864
301.4888	0.1865
301.7009	0.1918
301.913	0.1929
302.125	0.1906
302.3371	0.1894
302.5491	0.1983
302.7612	0.1939
302.9732	0.1962
303.1852	0.1845
303.3972	0.1888
303.6092	0.1925
303.8211	0.1857
304.0331	0.185
304.245	0.1891
304.457	0.1858
304.6689	0.1877
304.8808	0.1843
305.0927	0.1901
305.3046	0.1839
305.5164	0.1803
305.7283	0.1846
305.9401	0.1786
306.152	0.183
306.3638	0.1811
306.5756	0.185
306.7874	0.1745
306.9992	0.172
307.2109	0.1804
307.4227	0.1755
307.6344	0.1819
307.8462	0.1736
308.0579	0.1752
308.2696	0.1762
308.4813	0.1692
308.693	0.1716
308.9046	0.1736
309.1163	0.1645
309.328	0.1603
309.5396	0.1556
309.7512	0.1616
309.9628	0.1606
310.1744	0.1586
310.386	0.1538
310.5976	0.1568
310.8091	0.1627
311.0207	0.1559
311.2322	0.1544
311.4437	0.1504
311.6552	0.1546
311.8667	0.1578
312.0782	0.1537
312.2897	0.1554
312.5012	0.1507
312.7126	0.1472
312.924	0.1494
313.1355	0.1499
313.3469	0.1491
313.5583	0.1507
313.7696	0.1468
313.981	0.1475
314.1924	0.1457
314.4037	0.145
314.6151	0.14
314.8264	0.1483
315.0377	0.1428
315.249	0.1447
315.4603	0.141
315.6716	0.1442
315.8828	0.1448
316.0941	0.1458
316.3053	0.1362
316.5165	0.1484
316.7277	0.1375
316.9389	0.1416
317.1501	0.1413
317.3613	0.1382
317.5724	0.1426
317.7836	0.1323
317.9947	0.1409
318.2058	0.1374
318.417	0.14
318.6281	0.1399
318.8391	0.1442
319.0502	0.1424
319.2613	0.1411
319.4723	0.1408
319.6834	0.1451
319.8944	0.1375
320.1054	0.1395
320.3164	0.138
320.5274	0.1389
320.7383	0.1454
320.9493	0.132
321.1602	0.1379
321.3712	0.1418
321.5821	0.1325
321.793	0.1509
322.0039	0.1403
322.2148	0.1444
322.4257	0.1364
322.6365	0.1377
322.8474	0.146
323.0582	0.144
323.269	0.1472
323.4798	0.1469
323.6906	0.14
323.9014	0.1406
324.1122	0.1394
324.3229	0.1429
324.5337	0.1492
324.7444	0.1385
324.9551	0.1452
325.1658	0.1427
325.3765	0.1464
325.5872	0.1434
325.7979	0.145
326.0085	0.1421
326.2192	0.145
326.4298	0.1503
326.6404	0.1483
326.851	0.1444
327.0616	0.1511
327.2722	0.1458
327.4828	0.1461
327.6933	0.1595
327.9039	0.1479
328.1144	0.1465
328.3249	0.1476
328.5354	0.1492
328.7459	0.1508
328.9564	0.1519
329.1669	0.1597
329.3773	0.1566
329.5878	0.1531
329.7982	0.1585
330.0086	0.1543
330.219	0.1517
330.4294	0.1591
330.6398	0.1611
330.8502	0.1608
331.0605	0.1538
331.2708	0.153
331.4812	0.1508
331.6915	0.157
331.9018	0.1561
332.1121	0.1598
332.3224	0.1513
332.5326	0.159
332.7429	0.1554
332.9531	0.1583
333.1633	0.1519
333.3735	0.1509
333.5837	0.1571
333.7939	0.1589
334.0041	0.1558
334.2143	0.1547
334.4244	0.1642
334.6346	0.1571
334.8447	0.159
335.0548	0.1601
335.2649	0.1613
335.475	0.1598
335.685	0.16
335.8951	0.1528
336.1051	0.1567
336.3152	0.1593
336.5252	0.1531
336.7352	0.1571
336.9452	0.1565
337.1552	0.1494
337.3652	0.1514
337.5751	0.154
337.7851	0.1512
337.995	0.1604
338.2049	0.1566
338.4148	0.1569
338.6247	0.156
338.8346	0.1538
339.0445	0.1575
339.2543	0.153
339.4642	0.1554
339.674	0.1544
339.8838	0.158
340.0936	0.1535
340.3034	0.1586
340.5132	0.157
340.7229	0.1542
340.9327	0.1671
341.1424	0.1567
341.3522	0.1556
341.5619	0.1595
341.7716	0.1648
341.9813	0.1621
342.1909	0.1655
342.4006	0.167
342.6102	0.1658
342.8199	0.1687
343.0295	0.158
343.2391	0.1689
343.4487	0.1669
343.6583	0.1724
343.8679	0.1694
344.0774	0.1657
344.287	0.1727
344.4965	0.1675
344.706	0.1702
344.9155	0.1679
345.125	0.1712
345.3345	0.1826
345.544	0.1754
345.7534	0.1856
345.9629	0.181
346.1723	0.182
346.3817	0.1804
346.5911	0.1789
346.8005	0.1898
347.0099	0.1795
347.2193	0.1928
347.4286	0.1934
347.638	0.1832
347.8473	0.1904
348.0566	0.1828
348.2659	0.1897
348.4752	0.1828
348.6845	0.1859
348.8937	0.1878
349.103	0.1859
349.3122	0.1912
349.5214	0.1949
349.7306	0.1957
349.9398	0.1878
350.149	0.1859
350.3582	0.1853
350.5674	0.1943
350.7765	0.1885
350.9856	0.1888
351.1948	0.1908
351.4039	0.1899
351.613	0.1934
351.822	0.1999
352.0311	0.1873
352.2402	0.1944
352.4492	0.1974
352.6582	0.1945
352.8672	0.1912
353.0762	0.1885
353.2852	0.1906
353.4942	0.1965
353.7032	0.193
353.9121	0.1929
354.1211	0.1907
354.33	0.1944
354.5389	0.1915
354.7478	0.1857
354.9567	0.1941
355.1655	0.1873
355.3744	0.1971
355.5833	0.1867
355.7921	0.2003
356.0009	0.1864
356.2097	0.1874
356.4185	0.1877
356.6273	0.1891
356.8361	0.192
357.0448	0.1916
357.2536	0.1874
357.4623	0.1904
357.671	0.1989
357.8797	0.1955
358.0884	0.1832
358.2971	0.1911
358.5057	0.1912
358.7144	0.201
358.923	0.1998
359.1316	0.206
359.3402	0.1952
359.5488	0.1939
359.7574	0.2015
359.966	0.1948
360.1746	0.1936
360.3831	0.2001
360.5916	0.202
360.8002	0.1994
361.0087	0.199
361.2172	0.2018
361.4256	0.2011
361.6341	0.2034
361.8426	0.2032
362.051	0.2061
362.2594	0.1977
362.4678	0.2061
362.6762	0.2066
362.8846	0.2077
363.093	0.2122
363.3014	0.2112
363.5097	0.2132
363.718	0.2103
363.9264	0.2181
364.1347	0.2109
364.343	0.2172
364.5513	0.2118
364.7595	0.213
364.9678	0.2112
365.176	0.2214
365.3842	0.2207
365.5925	0.2095
365.8007	0.2123
366.0089	0.22
366.217	0.2214
366.4252	0.2175
366.6333	0.217
366.8415	0.221
367.0496	0.2181
367.2577	0.2254
367.4658	0.224
367.6739	0.2148
367.882	0.224
368.09	0.2159
368.2981	0.2286
368.5061	0.2261
368.7141	0.2268
368.9221	0.2376
369.1301	0.2265
369.3381	0.2323
369.5461	0.2296
369.754	0.2264
369.962	0.2309
370.1699	0.2324
370.3778	0.2389
370.5857	0.2316
370.7936	0.2323
371.0015	0.239
371.2093	0.2331
371.4172	0.226
371.625	0.2374
371.8328	0.2322
372.0406	0.249
372.2484	0.2395
372.4562	0.2362
372.664	0.2412
372.8717	0.2363
373.0795	0.237
373.2872	0.2446
373.4949	0.2473
373.7026	0.2428
373.9103	0.2324
374.118	0.2427
374.3256	0.2468
374.5333	0.248
374.7409	0.2482
374.9485	0.2347
375.1561	0.2476
375.3637	0.2444
375.5713	0.2488
375.7789	0.2482
375.9864	0.2507
376.194	0.2526
376.4015	0.2481
376.609	0.2485
376.8165	0.2511
377.024	0.2482
377.2315	0.2506
377.4389	0.2441
377.6464	0.2582
377.8538	0.2558
378.0612	0.257
378.2686	0.2476
378.476	0.2674
378.6834	0.2569
378.8908	0.256
379.0981	0.2605
379.3055	0.2577
379.5128	0.2534
379.7201	0.2591
379.9274	0.2531
380.1347	0.2564
380.342	0.2649
380.5492	0.2625
380.7565	0.2674
380.9637	0.2626
381.1709	0.2634
381.3781	0.2622
381.5853	0.2621
381.7925	0.249
381.9997	0.2642
382.2068	0.2652
382.4139	0.2635
382.6211	0.2757
382.8282	0.27
383.0353	0.2675
383.2424	0.2726
383.4494	0.2663
383.6565	0.2728
383.8635	0.2671
384.0706	0.2755
384.2776	0.267
384.4846	0.2744
384.6916	0.2626
384.8986	0.2715
385.1055	0.2708
385.3125	0.2718
385.5194	0.263
385.7263	0.2765
385.9333	0.2733
386.1402	0.2752
386.347	0.2626
386.5539	0.2692
386.7608	0.2665
386.9676	0.2692
387.1744	0.2684
387.3813	0.274
387.5881	0.2591
387.7948	0.2752
388.0016	0.274
388.2084	0.2669
388.4151	0.2656
388.6219	0.2574
388.8286	0.2726
389.0353	0.2716
389.242	0.2662
389.4487	0.2641
389.6553	0.2545
389.862	0.2619
390.0686	0.2675
390.2753	0.2637
390.4819	0.2692
390.6885	0.2633
390.8951	0.2496
391.1016	0.2675
391.3082	0.2637
391.5147	0.2621
391.7213	0.2552
391.9278	0.2553
392.1343	0.2501
392.3408	0.2589
392.5473	0.2546
392.7537	0.2544
392.9602	0.2469
393.1666	0.25
393.373	0.2422
393.5794	0.2449
393.7858	0.2506
393.9922	0.246
394.1986	0.2478
394.4049	0.2421
394.6113	0.2471
394.8176	0.2483
395.0239	0.2371
395.2302	0.2412
395.4365	0.2423
395.6428	0.2396
395.8491	0.2468
396.0553	0.2306
396.2615	0.2356
396.4678	0.2453
396.674	0.2261
396.8802	0.2252
397.0863	0.2294
397.2925	0.2296
397.4987	0.231
397.7048	0.2323
397.9109	0.2219
398.117	0.2303
398.3231	0.224
398.5292	0.218
398.7353	0.2292
398.9413	0.2285
399.1474	0.2281
399.3534	0.2363
399.5594	0.2356
399.7654	0.2194
399.9714	0.2253
400.1774	0.2238
400.3833	0.2313
400.5893	0.2267
400.7952	0.2297
401.0011	0.2199
401.207	0.2333
401.4129	0.2258
401.6188	0.231
401.8247	0.2319
402.0305	0.2277
402.2364	0.2267
402.4422	0.2296
402.648	0.2336
402.8538	0.2232
403.0596	0.2295
403.2654	0.2252
403.4711	0.2166
403.6768	0.2208
403.8826	0.2147
404.0883	0.219
404.294	0.2266
404.4997	0.2266
404.7054	0.2356
404.911	0.2208
405.1167	0.2272
405.3223	0.2186
405.5279	0.2289
405.7335	0.2267
405.9391	0.216
406.1447	0.2256
406.3502	0.2244
406.5558	0.2261
406.7613	0.2212
406.9668	0.2217
407.1724	0.2273
407.3778	0.2302
407.5833	0.2168
407.7888	0.2333
407.9942	0.2283
408.1997	0.2282
408.4051	0.2287
408.6105	0.2268
408.8159	0.2258
409.0213	0.2336
409.2267	0.2297
409.432	0.2207
409.6374	0.2178
409.8427	0.233
410.048	0.2237
410.2533	0.2206
410.4586	0.2176
410.6639	0.2252
410.8691	0.2258
411.0744	0.2193
411.2796	0.2233
411.4848	0.2243
411.69	0.2203
411.8952	0.2287
412.1004	0.225
412.3056	0.2224
412.5107	0.2216
412.7158	0.2403
412.921	0.2226
413.1261	0.2199
413.3312	0.23
413.5362	0.2254
413.7413	0.2188
413.9464	0.2161
414.1514	0.2162
414.3564	0.2202
414.5614	0.2192
414.7664	0.216
414.9714	0.2181
415.1764	0.2188
415.3813	0.2118
415.5863	0.2249
415.7912	0.2104
415.9961	0.2192
416.201	0.2314
416.4059	0.2167
416.6108	0.2144
416.8156	0.2214
417.0205	0.2142
417.2253	0.2111
417.4301	0.2256
417.6349	0.211
417.8397	0.2132
418.0445	0.2178
418.2492	0.2035
418.454	0.2108
418.6587	0.217
418.8634	0.2222
419.0681	0.2293
419.2728	0.2099
419.4775	0.2197
419.6822	0.2136
419.8868	0.2068
420.0915	0.2053
420.2961	0.199
420.5007	0.2186
420.7053	0.2126
420.9099	0.2111
421.1144	0.2132
421.319	0.2015
421.5235	0.1967
421.728	0.211
421.9325	0.21
422.137	0.2021
422.3415	0.2032
422.546	0.1939
422.7504	0.1943
422.9549	0.2061
423.1593	0.1964
423.3637	0.1975
423.5681	0.2054
423.7725	0.1907
423.9769	0.2044
424.1812	0.1955
424.3856	0.1877
424.5899	0.1932
424.7942	0.1946
424.9985	0.1894
425.2028	0.1992
425.4071	0.1965
425.6113	0.1896
425.8156	0.1891
426.0198	0.1856
426.224	0.1999
426.4282	0.185
426.6324	0.1851
426.8366	0.1998
427.0407	0.1832
427.2449	0.183
427.449	0.1886
427.6531	0.1888
427.8572	0.1856
428.0613	0.1805
428.2654	0.1778
428.4694	0.1712
428.6735	0.175
428.8775	0.1731
429.0815	0.1759
429.2855	0.1765
429.4895	0.1818
429.6935	0.1675
429.8975	0.1687
430.1014	0.1699
430.3053	0.18
430.5093	0.1573
430.7132	0.1653
430.9171	0.1659
431.1209	0.1651
431.3248	0.1522
431.5286	0.1572
431.7325	0.166
431.9363	0.163
432.1401	0.1566
432.3439	0.1617
432.5477	0.1428
432.7514	0.1583
432.9552	0.1485
433.1589	0.1451
433.3627	0.156
433.5664	0.1385
433.7701	0.1511
433.9737	0.1457
434.1774	0.1439
434.3811	0.1389
434.5847	0.1421
434.7883	0.1367
434.9919	0.1319
435.1955	0.142
435.3991	0.1353
435.6027	0.1269
435.8062	0.143
436.0098	0.1276
436.2133	0.1273
436.4168	0.1264
436.6203	0.1172
436.8238	0.1247
437.0272	0.1267
437.2307	0.1231
437.4341	0.1156
437.6375	0.1214
437.841	0.1186
438.0443	0.1144
438.2477	0.1089
438.4511	0.1039
438.6545	0.1116
438.8578	0.1005
439.0611	0.1089
439.2644	0.098
439.4677	0.1156
439.671	0.0949
439.8743	0.1044
440.0775	0.0971
440.2808	0.1024
440.484	0.0964
440.6872	0.0964
440.8904	0.0817
441.0936	0.0927
441.2967	0.0912
441.4999	0.0841
441.703	0.0871
441.9062	0.0922
442.1093	0.1016
442.3124	0.084
442.5155	0.0871
442.7185	0.0837
442.9216	0.088
443.1246	0.0827
443.3276	0.0812
443.5307	0.0724
443.7337	0.0784
443.9366	0.0725
444.1396	0.0787
444.3426	0.0713
444.5455	0.071
444.7484	0.0683
444.9513	0.0792
445.1542	0.0783
445.3571	0.0659
445.56	0.065
445.7628	0.0725
445.9657	0.0644
446.1685	0.0641
446.3713	0.072
446.5741	0.0647
446.7769	0.0728
446.9797	0.0655
447.1824	0.0578
447.3852	0.0463
447.5879	0.0637
447.7906	0.0481
447.9933	0.0611
448.196	0.047
448.3986	0.0548
448.6013	0.0427
448.8039	0.0505
449.0066	0.0548
449.2092	0.059
449.4118	0.0462
449.6143	0.06
449.8169	0.0473
450.0195	0.0447
450.222	0.0575
450.4245	0.0434
450.627	0.039
450.8295	0.0484
451.032	0.0458
451.2345	0.0347
451.4369	0.0401
451.6394	0.0379
451.8418	0.0398
452.0442	0.0449
452.2466	0.0261
452.449	0.0467
452.6513	0.035
452.8537	0.0348
453.056	0.0336
453.2583	0.0237
453.4607	0.0323
453.663	0.0352
453.8652	0.0344
454.0675	0.0486
454.2697	0.0356
454.472	0.0325
454.6742	0.0376
454.8764	0.039
455.0786	0.0302
455.2808	0.0239
455.4829	0.0324
455.6851	0.0375
455.8872	0.0125
456.0893	0.0335
456.2915	0.0226
456.4935	0.0363
456.6956	0.0287
456.8977	0.0225
457.0997	0.0323
457.3018	0.0211
457.5038	0.0315
457.7058	0.0366
457.9078	0.0348
458.1098	0.0278
458.3117	0.0312
458.5137	0.02
458.7156	0.0364
458.9175	0.027
459.1194	0.0295
459.3213	0.023
459.5232	0.028
459.725	0.0236
459.9269	0.0198
460.1287	0.0142
460.3305	0.0256
460.5323	0.0263
460.7341	0.027
460.9359	0.0106
461.1376	0.0205
461.3394	0.0199
461.5411	0.0234
461.7428	0.0217
461.9445	0.0168
462.1462	0.0171
462.3479	0.018
462.5495	0.0215
462.7512	0.0222
462.9528	0.0237
463.1544	0.0178
463.356	0.0127
463.5576	0.0285
463.7592	0.0145
463.9607	0.0183
464.1623	0.0136
464.3638	0.0169
464.5653	0.0193
464.7668	0.0264
464.9683	0.0179
465.1697	0.0075
465.3712	0.0126
465.5726	0.0113
465.7741	0.0175
465.9755	0.0088
466.1769	0.018
466.3782	0.0129
466.5796	0.0184
466.7809	0.012
466.9823	0.0146
467.1836	0.0153
467.3849	0.0139
467.5862	0.0156
467.7875	0.015
467.9887	0.0114
468.19	0.0133
468.3912	0.0193
468.5924	0.0058
468.7936	0.0132
468.9948	0.018
469.196	0.01
469.3972	0.0061
469.5983	0.0056
469.7994	0.0162
470.0006	0.0162
470.2017	0.0267
470.4027	0.0196
470.6038	0.008
470.8049	0.0166
471.0059	0.0198
471.2069	0.0225
471.408	0.0121
471.6089	0.0117
471.8099	0.0167
472.0109	0.0149
472.2119	0.0216
472.4128	0.0141
472.6137	0.0127
472.8146	0.0193
473.0155	0.025
473.2164	0.0121
473.4173	0.0068
473.6181	0.0095
473.819	0.0113
474.0198	0.0061
474.2206	0.0081
474.4214	0.0164
474.6222	0.002
474.8229	0.0063
475.0237	0.0156
475.2244	0.0154
475.4251	0.0057
475.6258	0.0058
475.8265	0.0206
476.0272	0.0041
476.2278	0.0155
476.4285	0.0127
476.6291	0.007
476.8297	0.0167
477.0303	0.0088
477.2309	0.0159
477.4315	0.0127
477.632	0.0097
477.8326	0.0079
478.0331	0.0206
478.2336	0.0148
478.4341	0.0087
478.6346	0.0071
478.8351	0.0151
479.0355	0.0201
479.236	0.016
479.4364	0.0115
479.6368	0.0121
479.8372	0.0085
480.0376	0.0109
480.2379	0.0148
480.4383	0.0185
480.6386	0.0042
480.8389	0.0081
481.0392	0.0077
481.2395	0.0182
481.4398	0.0168
481.6401	0.0097
481.8403	-0.0022
482.0405	0.0109
482.2408	0.011
482.441	0.0151
482.6411	0.0205
482.8413	0.008
483.0415	0.0136
483.2416	0.0099
483.4417	0.0105
483.6419	0.0063
483.8419	0.0095
484.042	0.0124
484.2421	0.0036
484.4422	0.0101
484.6422	0.0119
484.8422	0.0091
485.0422	0.0114
485.2422	0.0043
485.4422	0.0103
485.6422	0.0051
485.8421	0.0087
486.042	0.0172
486.242	0.0012
486.4419	0.0126
486.6417	0.0022
486.8416	0.0125
487.0415	0.0029
487.2413	0.006
487.4411	0.0094
487.641	0.0064
487.8408	0.0126
488.0405	0.0145
488.2403	0.0085
488.4401	0.0143
488.6398	0.0106
488.8395	0.0142
489.0392	0.0197
489.2389	0.0155
489.4386	-0.0026
489.6383	0.0118
489.8379	0.0027
490.0376	0.0083
490.2372	0.0141
490.4368	0.0076
490.6364	0.0077
490.836	0.0079
491.0355	-0.0033
491.2351	0.008
491.4346	0.011
491.6341	0.0126
491.8336	0.015
492.0331	0.0013
492.2326	0.0129
492.432	0.0071
492.6315	0.0139
492.8309	0.0124
493.0303	0.0049
493.2297	0.0134
493.4291	0.0162
493.6284	0.0203
493.8278	0.0058
494.0271	0.0142
494.2264	0.0095
494.4257	0.0094
494.625	0.0077
494.8243	0.0057
495.0236	0.0173
495.2228	0.0189
495.422	0.0128
495.6213	0.0076
495.8205	0.0111
496.0196	0.0099
496.2188	0.0064
496.418	0.0113
496.6171	0.0058
496.8162	0.0118
497.0153	0.0139
497.2144	0.015
497.4135	0.0121
497.6126	0.0082
497.8116	0.0033
498.0107	0.0144
498.2097	0.0119
498.4087	0.0079
498.6077	0.0001
498.8067	0.0109
499.0056	0.0106
499.2046	0.0119
499.4035	0.007
499.6024	0.006
499.8013	0.0143
500.0002	0.0181
500.199	0.0157
500.3979	0.0119
500.5967	0.0086
500.7956	0.0104
500.9944	0.0109
501.1932	0.011
501.3919	0.0137
501.5907	0.0075
501.7895	0.0178
501.9882	0.0088
502.1869	0.0212
502.3856	0.005
502.5843	0.0128
502.783	0.0065
502.9816	0.0121
503.1803	0.0085
503.3789	0.0144
503.5775	0.0052
503.7761	0.0081
503.9747	0.0126
504.1732	0.0042
504.3718	0.0186
504.5703	0.0147
504.7689	0.0002
504.9674	0.0077
505.1658	0.006
505.3643	0.0188
505.5628	0.0153
505.7612	0.01
505.9597	0.0033
506.1581	0.009
506.3565	0.0092
506.5549	0.0064
506.7532	0.0119
506.9516	0.0084
507.1499	0.0065
507.3482	0.0166
507.5465	0.0133
507.7448	0.0134
507.9431	0.0088
508.1414	0.0028
508.3396	0.0076
508.5379	0.0098
508.7361	0.0214
508.9343	0.0133
509.1325	0.0201
509.3306	0.0067
509.5288	0.0077
509.7269	0.0135
509.9251	0.015
510.1232	0.0177
510.3213	0.0102
510.5193	0.0138
510.7174	0.0057
510.9154	0.007
511.1135	0.0032
511.3115	0.0048
511.5095	0.0114
511.7075	0.0088
511.9055	0.011
512.1034	0.0098
512.3014	0.0091
512.4993	0.0182
512.6972	0.0069
512.8951	0.0124
513.093	0.0099
513.2908	0.0169
513.4887	0.0107
513.6865	0.0024
513.8844	0.0141
514.0822	0.0034
514.2799	-0.0009
514.4777	0.0073
514.6755	0.0056
514.8732	0.0054
515.0709	0.0081
515.2687	0.0044
515.4664	0.0197
515.664	0.0169
515.8617	0.0068
516.0594	0.0141
516.257	0.0079
516.4546	0.0262
516.6522	0.0159
516.8498	0.0129
517.0474	0.0112
517.2449	0.0032
517.4425	0.0172
517.64	0.005
517.8375	0.0028
518.035	0.0067
518.2325	0.0072
518.43	0.0053
518.6274	0.0036
518.8249	0.0019
519.0223	0.0205
519.2197	0.0152
519.4171	0.0088
519.6145	0.0173
519.8118	-0.003
520.0092	0.007
520.2065	0.0238
520.4038	0.0164
520.6011	0.0256
520.7984	0.0195
520.9956	0.0081
521.1929	0.0046
521.3901	0.0174
521.5874	0.017
521.7846	0.0078
521.9818	0.005
522.1789	0.0091
522.3761	0.0185
522.5732	0.0106
522.7704	0.0016
522.9675	-0.001
523.1646	-0.0023
523.3617	0.0122
523.5587	0.005
523.7558	0.0127
523.9528	0.0139
524.1498	0.0035
524.3468	0.011
524.5438	0.019
524.7408	0.0018
524.9378	0.0175
525.1347	0.0163
525.3316	0.0043
525.5285	0.0117
525.7254	0.0074
525.9223	0.0143
526.1192	0.0169
526.316	0.0147
526.5129	0.0145
526.7097	0.0026
526.9065	0.0149
527.1033	0.0052
527.3	0.0162
527.4968	0.0132
527.6935	0.0029
527.8903	0.0102
528.087	0.0085
528.2837	0.0161
528.4804	0.0032
528.677	0.0182
528.8737	0.0089
529.0703	0.0117
529.2669	0.0089
529.4635	0.0054
529.6601	0.0071
529.8567	0.0044
530.0532	0.0117
530.2498	0.0056
530.4463	-0.0014
530.6428	0.016
530.8393	0.0178
531.0358	0.0112
531.2322	0.0043
531.4287	0.0105
531.6251	0.002
531.8215	0.0041
532.0179	0.0162
532.2143	0.0112
532.4107	0.0165
532.607	0.0011
532.8034	0.0039
532.9997	0.0082
533.196	0.0065
533.3923	0.01
533.5886	0.0155
533.7848	0.0135
533.9811	0.0073
534.1773	0.0086
534.3735	0.0193
534.5697	0.0102
534.7659	0.0155
534.9621	0.0101
535.1582	0.0147
535.3544	0.0017
535.5505	0.0084
535.7466	0.0133
535.9427	0.0118
536.1387	0.0066
536.3348	0.008
536.5308	0.0092
536.7269	0.0063
536.9229	0.0175
537.1189	0.017
537.3148	0.007
537.5108	0.01
537.7068	0.0144
537.9027	0.0027
538.0986	0.0187
538.2945	0.0082
538.4904	0.0052
538.6863	0.0026
538.8821	0.0175
539.078	0.0156
539.2738	0.0158
539.4696	-0.0042
539.6654	0.0142
539.8611	0.009
540.0569	0.0064
540.2526	0.0109
540.4484	0.0031
540.6441	0.0119
540.8398	0.0174
541.0355	0.0081
541.2311	0.0105
541.4268	0.0168
541.6224	0.0149
541.818	0.0018
542.0136	0.013
542.2092	0.0112
542.4048	0.0053
542.6003	0.0046
542.7959	0.0109
542.9914	0.0113
543.1869	0.0036
543.3824	0.0035
543.5779	0.019
543.7734	0.0181
543.9688	0.0135
544.1642	0.004
544.3596	0.0072
544.555	0.0083
544.7504	0.0201
544.9458	0.0046
545.1411	0.0092
545.3365	0.0095
545.5318	0.0271
545.7271	0.0206
545.9224	0.0011
546.1177	0.0052
546.3129	0.0231
546.5081	0.0055
546.7034	0.0098
546.8986	0.0186
547.0938	0.0087
547.289	0.0121
547.4841	0.0147
547.6793	0.0003
547.8744	0.0183
548.0695	0.0051
548.2646	0.0098
548.4597	0.0128
548.6548	0.0209
548.8498	0.015
549.0448	0.0157
549.2399	0.0173
549.4349	0.0109
549.6298	0.0152
549.8248	0.0152
550.0198	0.0139
550.2147	0.0174
550.4096	0.0053
550.6045	0.0076
550.7994	0.0076
550.9943	0.013
551.1892	-0.0005
551.384	0.0187
551.5788	0.0121
551.7737	0.0107
551.9685	0.0133
552.1632	0.0088
552.358	0.0097
552.5528	0.0151
552.7475	0.0146
552.9422	0.0212
553.1369	0.0111
553.3316	0.0167
553.5263	0.0184
553.7209	0.0053
553.9156	0.0046
554.1102	0.0206
554.3048	0.0006
554.4994	0.0024
554.694	0.0123
554.8885	0.0096
555.0831	0.0141
555.2776	0.0163
555.4721	0.0092
555.6666	0.0083
555.8611	0.0091
556.0555	0.0051
556.25	0.0123
556.4444	0.0021
556.6388	0.0086
556.8332	0.0136
557.0276	0.0129
557.222	0.0009
557.4163	0.0083
557.6107	0.0147
557.805	0.0048
557.9993	0.0129
558.1936	-0.0025
558.3879	0.0092
558.5821	0.0081
558.7764	0.0065
558.9706	0.0117
559.1648	0.0173
559.359	-0.0022
559.5532	0.0103
559.7473	-0.0009
559.9415	0.0025
560.1356	0.0235
560.3297	0.0053
560.5238	0.0114
560.7179	0.0024
560.9119	0.0044
561.106	0.0028
561.3	0.0078
561.494	-0.0024
561.688	-0.0017
561.882	0.0023
562.076	0.0123
562.2699	0.0158
562.4639	0.021
562.6578	0.0137
562.8517	0.0122
563.0456	0.0056
563.2395	0.0106
563.4333	0.0139
563.6272	0.0066
563.821	0.0026
564.0148	0.0034
564.2086	0.0052
564.4024	0.0121
564.5961	0.006
564.7899	0.0163
564.9836	0.0057
565.1773	0.0227
565.371	0.0103
565.5647	0.0116
565.7584	0.0163
565.952	0.0092
566.1456	0.0061
566.3393	0.0142
566.5329	0.0017
566.7264	0.0175
566.92	0.0091
567.1136	0.0067
567.3071	0.0007
567.5006	0.0135
567.6941	0.0068
567.8876	0.0082
568.0811	0.0235
568.2745	0.0008
568.468	0.0124
568.6614	0.0095
568.8548	0.0123
569.0482	0.0112
569.2416	0.014
569.4349	0.0068
569.6283	0.0072
569.8216	0.0089
570.0149	0.0077
570.2082	0.0132
570.4015	0.0055
570.5947	0.0052
570.788	0.011
570.9812	0.0062
571.1744	0.0036
571.3676	0.0084
571.5608	0.008
571.754	0.0133
571.9471	0.0113
572.1402	0.0075
572.3333	0.0088
572.5264	0.0123
572.7195	0.008
572.9126	0.0064
573.1057	0.0084
573.2987	0.0053
573.4917	0.0046
573.6847	0.0092
573.8777	0.0131
574.0707	0.0087
574.2636	0.0121
574.4566	0.0062
574.6495	0.0035
574.8424	0.0109
575.0353	0.0084
575.2281	0.0123
575.421	0.0046
575.6138	0.0045
575.8067	0.0094
575.9995	0.0085
576.1923	0.0097
576.385	0.0104
576.5778	0.0117
576.7706	0.0104
576.9633	0.0092
577.156	0.0008
577.3487	0.0073
577.5414	0.0063
577.734	0.0059
577.9267	0.0085
578.1193	0.0097
578.3119	0.0034
578.5045	0.0053
578.6971	0.0044
578.8897	0.0101
579.0822	0.013
579.2747	0.0062
579.4673	0.0081
579.6598	0.0103
579.8522	0.0093
580.0447	0.0068
580.2372	0.0107
580.4296	0.0115
580.622	0.0095
580.8144	0.0084
581.0068	0.01
581.1992	0.0054
581.3915	0.0017
581.5839	0.0093
581.7762	0.0107
581.9685	0.0087
582.1608	0.0096
582.353	0.0069
582.5453	0.0095
582.7375	0.0101
582.9298	0.0027
583.122	0.0049
583.3142	0.0108
583.5063	0.0081
583.6985	0.0033
583.8906	0.0068
584.0827	0.0106
584.2749	0.005
584.4669	0.0071
584.659	0.0134
584.8511	0.0106
585.0431	0.0117
585.2352	0.0105
585.4272	0.0107
585.6192	0.0068
585.8111	0.0085
586.0031	0.0061
586.195	0.0049
586.387	0.0073
586.5789	0.0103
586.7708	0.0088
586.9627	0.008
587.1545	0.0088
587.3464	0.0102
587.5382	0.0114
587.73	0.0152
587.9218	0.007
588.1136	0.0063
588.3053	0.0103
588.4971	0.0071
588.6888	0.0069
588.8805	0.0125
589.0722	0.0176
589.2639	0.0131
589.4556	0.0075
589.6472	0.0111
589.8389	0.0069
590.0305	0.0012
590.2221	0.0131
590.4137	0.0065
590.6052	0.0073
590.7968	0.0051
590.9883	0.0149
591.1798	0.0066
591.3713	0.0103
591.5628	0.0144
591.7543	0.0058
591.9458	0.0074
592.1372	0.0111
592.3286	0.008
592.52	0.0039
592.7114	0.007
592.9028	0.0105
593.0941	0.0081
593.2855	0.0084
593.4768	0.0116
593.6681	0.0107
593.8594	0.0118
594.0506	0.0064
594.2419	0.0077
594.4331	0.0115
594.6244	0.0016
594.8156	0.005
595.0067	0.0058
595.1979	0.0032
595.3891	0.0071
595.5802	0.009
595.7713	0.0061
595.9624	0.0131
596.1535	0.0114
596.3446	0.0015
596.5357	0.0086
596.7267	0.0116
596.9177	0.0029
597.1087	0.0053
597.2997	0.0098
597.4907	0.008
597.6817	0.0074
597.8726	0.0144
598.0635	0.0014
598.2544	0.0123
598.4453	0.0113
598.6362	0.007
598.827	0.0069
599.0179	0.0113
599.2087	0.0171
599.3995	0.0075
599.5903	0.0143
599.7811	0.0162
599.9718	0.0039
600.1626	0.0053
600.3533	0.009
600.544	0.0056
600.7347	0.0116
600.9254	0.0125
601.116	0.0078
601.3067	0.0118
601.4973	0.0132
601.6879	0.0077
601.8785	0.0177
602.0691	0.0076
602.2596	0.0144
602.4502	0.0082
602.6407	0.0102
602.8312	0.0087
603.0217	0.0061
603.2122	0.0045
603.4027	0.0127
603.5931	0.0072
603.7835	0.0083
603.9739	0.0054
604.1643	0.0149
604.3547	0.0176
604.5451	0.015
604.7354	0.0049
604.9257	0.0094
605.116	0.0075
605.3063	0.0147
605.4966	0.0047
605.6869	0.0114
605.8771	0.013
606.0673	0.0088
606.2575	0.0022
606.4477	0.0133
606.6379	0.007
606.8281	0.0076
607.0182	0.008
607.2083	0.0056
607.3985	0.0059
607.5885	0.0091
607.7786	0.0059
607.9687	0.0132
608.1587	0.0148
608.3488	0.0101
608.5388	0.0029
608.7288	0.0026
608.9187	0.0103
609.1087	0.0128
609.2986	0.0123
609.4886	0.0037
609.6785	0.0098
609.8684	0.0034
610.0582	0.0101
610.2481	0.0032
610.4379	0.0168
610.6278	0.0069
610.8176	0.0169
611.0074	0.0105
611.1971	0.0109
611.3869	0.0111
611.5766	-0.0029
611.7664	0.0093
611.9561	0.0106
612.1458	0.0097
612.3354	0.0104
612.5251	0.0074
612.7147	0.0114
612.9044	0.0054
613.094	0.011
613.2836	0.0054
613.4731	0.0106
613.6627	0.01
613.8522	0.0151
614.0417	0.0143
614.2313	0.0064
614.4207	0.0143
614.6102	0.0067
614.7997	0.0115
614.9891	0.0087
615.1785	0.0009
615.3679	0.0115
615.5573	0.0087
615.7467	0.006
615.9361	0.0114
616.1254	0.0154
616.3147	0.0137
616.504	0.0142
616.6933	0.0099
616.8826	0.0074
617.0718	0.0094
617.2611	0.0069
617.4503	0.0008
617.6395	0.0104
617.8287	0.0098
618.0179	0.007
618.207	0.0089
618.3961	0.0144
618.5853	0.0065
618.7744	0.0163
618.9634	0.0116
619.1525	0.0074
619.3416	0.0013
619.5306	0.0143
619.7196	0.0181
619.9086	0.0091
620.0976	0.0035
620.2866	0.0083
620.4755	0.0106
620.6645	0.0104
620.8534	0.0124
621.0423	0.0062
621.2312	0.0029
621.42	0.0012
621.6089	0.007
621.7977	0.0071
621.9865	0.0073
622.1753	0.001
622.3641	0.003
622.5529	0.0047
622.7416	0.0065
622.9303	0.0124
623.1191	0.0083
623.3078	0.0082
623.4964	0.0055
623.6851	0.0074
623.8737	0.0062
624.0624	-0.0025
624.251	0.0104
624.4396	0.0136
624.6282	0.019
624.8167	0.0073
625.0053	0.0219
625.1938	0.0033
625.3823	0.0116
625.5708	0.0062
625.7593	0.0044
625.9477	0.0171
626.1362	0.0013
626.3246	0.013
626.513	0.0056
626.7014	0.0173
626.8898	0.0153
627.0781	0.0133
627.2665	0.0171
627.4548	0.0042
627.6431	0.018
627.8314	0.0136
628.0197	0.0096
628.2079	0.0133
628.3962	0.008
628.5844	0.0119
628.7726	0.0012
628.9608	0.0096
629.1489	0.0145
629.3371	0.0045
629.5252	0.0053
629.7134	-0.0002
629.9015	0.0277
630.0895	0.0036
630.2776	0.0187
630.4657	0.0109
630.6537	0.011
630.8417	-0.0042
631.0297	0.0025
631.2177	0.0125
631.4057	0.0022
631.5936	0.0098
631.7815	0.0146
631.9695	0.0121
632.1574	0.0163
632.3452	0.0216
632.5331	0.0138
632.7209	0.0218
632.9088	0.0027
633.0966	0.0264
633.2844	0.0193
633.4722	0.0194
633.6599	0.0162
633.8477	0.0156
634.0354	0.0172
634.2231	0.0091
634.4108	0.008
634.5985	0.0113
634.7861	0.012
634.9738	0.0137
635.1614	0.0085
635.349	0.0173
635.5366	0.0053
635.7242	0.0125
635.9117	0.0119
636.0993	0.0218
636.2868	0.0079
636.4743	0.016
636.6618	-0.0031
636.8492	0.0038
637.0367	0.011
637.2241	0.0112
637.4115	0.021
637.5989	0.0086
637.7863	0.036
637.9737	0.0128
638.161	0.013
638.3484	0.0047
638.5357	0.0052
638.723	0.0274
638.9103	0.0056
639.0975	0.0193
639.2848	0.0196
639.472	0.0182
639.6592	-0.0118
639.8464	0.006
640.0336	0.018
640.2208	0.0122
640.4079	0.011
640.595	-0.0052
640.7821	0.0216
640.9692	0.0108
641.1563	0.0091
641.3434	0.014
641.5304	0.0345
641.7174	0.0136
641.9044	0.0091
642.0914	0.017
642.2784	0.0095
642.4653	0.0105
642.6523	0.0216
642.8392	0.0114
643.0261	0.0123
643.213	0.0075
643.3999	0.005
643.5867	0.015
643.7735	0.0146
643.9604	0.0082
644.1472	0.0093
644.3339	0.0055
644.5207	0.0269
644.7075	0.0066
644.8942	0.008
645.0809	0.0182
645.2676	0.0033
645.4543	0.0227
645.6409	0.0371
645.8276	0.0095
646.0142	0.0092
646.2008	0.0186
646.3874	0.0005
646.574	-0.0012
646.7605	0.0136
646.9471	0.003
647.1336	-0.0029
647.3201	0.0172
647.5066	0.0106
647.6931	0.0123
647.8795	0.0056
648.0659	0.0217
648.2524	0.0099
648.4388	0.0145
648.6252	0.0186
648.8115	0.0011
648.9979	0.0224
649.1842	0.0161
649.3705	0.0198
649.5568	-0.0077
649.7431	0.0086
649.9294	-0.0053
650.1156	-0.0083
650.3018	0.0095
650.488	0.0247
650.6742	0.0225
650.8604	0.0168
651.0466	0.0061
651.2327	0.0196
651.4188	0.0233
651.6049	0.0283
651.791	0.0086
651.9771	0.0072
652.1632	0.0139
652.3492	0.0045
652.5352	0.0254
652.7212	0.0084
652.9072	0.014
653.0932	0.0074
653.2791	0.0007
653.465	0.0291
653.651	0.021
653.8369	0.0049
654.0227	0.0166
654.2086	0.0072
654.3944	0.0206
654.5803	0.0109
654.7661	0.0095
654.9519	0.0054
655.1377	0.0002
655.3234	0.0002
655.5092	0.0002
655.6949	0.0002
655.8806	0.0002
656.0663	0.0002
656.2519	0.0002
656.4376	0.0002
656.6232	0.0002
656.8088	0.0002
656.9945	0.0002
657.18	0.0002
657.3656	0.0002
657.5511	0.0002
657.7367	0.0002
657.9222	0.0002
658.1077	0.0002
658.2932	0.0002
658.4786	0.0002
658.6641	0.0002
658.8495	0.0002
659.0349	0.0002
659.2203	0.0002
659.4057	0.0176
659.591	0.2395
659.7764	0.0283
659.9617	0.0239
660.147	0.0125
660.3323	0.0098
660.5176	-0.014
660.7028	-0.0052
660.888	0.0204
661.0733	0.0087
661.2585	0.0162
661.4436	0.0351
661.6288	0.016
661.8139	-0.0016
661.9991	-0.0204
662.1842	0.0028
662.3693	0.0253
662.5544	0.0044
662.7394	0.0092
662.9245	-0.0012
663.1095	0.0022
663.2945	-0.0087
663.4795	-0.0119
663.6644	0.0087
663.8494	0.0272
664.0343	0.024
664.2193	-0.0017
664.4042	0.0156
664.589	0.0051
664.7739	0.0161
664.9587	-0.0246
665.1436	0.0007
665.3284	0.0065
665.5132	0.0106
665.698	0.0121
665.8827	0.0286
666.0675	-0.0125
666.2522	0.0173
666.4369	0.0012
666.6216	0.0081
666.8063	0.0033
666.9909	0.0241
667.1756	0.0096
667.3602	0.0125
667.5448	0.0158
667.7294	0.0403
667.9139	0.0208
668.0985	0.041
668.283	-0.0072
668.4675	0.0278
668.652	0.0173
668.8365	0.034
669.0209	0.0163
669.2054	0.0241
669.3898	0.0222
669.5742	0.0277
669.7586	0.0142
669.943	0.0057
670.1273	0.0124
670.3117	0.0057
670.496	0.0086
670.6803	-0.0036
670.8646	0.0063
671.0488	0.0102
671.2331	0.0041
671.4173	0.0068
671.6015	0.0107
671.7857	0.0193
671.9699	0.0229
672.1541	0.0034
672.3382	0.0137
672.5223	0.0216
672.7064	0.0046
672.8905	0.0085
673.0746	0.0143
673.2587	0.0196
673.4427	0.0185
673.6267	0.0302
673.8107	0.0312
673.9947	0.0369
674.1787	0.0179
674.3626	0.0237
674.5465	0.0147
674.7304	-0.0062
674.9143	0.0083
675.0982	-0.001
675.2821	0.03
675.4659	0.0064
675.6497	0.0082
675.8335	-0.0052
676.0173	0.0095
676.2011	0.0225
676.3849	0.0193
676.5686	0.028
676.7523	-0.005
676.936	0.0242
677.1197	-0.0009
677.3034	0.0435
677.487	0.0089
677.6706	0.0271
677.8542	0.0004
678.0378	0.0047
678.2214	0.0133
678.405	0.0048
678.5885	0.0318
678.772	0.0115
678.9555	0.0101
679.139	0.0143
679.3225	0.006
679.5059	0.0047
679.6894	0.0221
679.8728	0.002
680.0562	-0.0009
680.2395	0.0051
680.4229	0.0062
680.6062	0.0172
680.7896	0.0016
680.9729	0.0289
681.1562	0.0128
681.3394	0.021
681.5227	0.0137
681.7059	0.0151
681.8891	0.0151
682.0723	-0.0042
682.2555	0.0106
682.4387	0.0247
682.6218	0.0005
682.805	0.0222
682.9881	0.0233
683.1712	0.0048
683.3542	0.0251
683.5373	-0.0008
683.7203	0.025
683.9034	0.0039
684.0864	-0.0093
684.2694	0.02
684.4523	0.0184
684.6353	0.0087
684.8182	-0.0028
685.0011	0.0127
685.184	0.0162
685.3669	0.032
685.5498	0.0046
685.7326	0.0069
685.9154	-0.0003
686.0982	0.0211
686.281	0.0092
686.4638	0.0151
686.6465	0.0057
686.8293	-0.0013
687.012	0.0061
687.1947	0.0165
687.3774	0.0186
687.56	0.0033
687.7427	0.0028
687.9253	-0.0164
688.1079	0.0254
688.2905	0.0032
688.4731	0.0165
688.6556	-0.0007
688.8382	-0.0119
689.0207	0.0199
689.2032	0.0437
689.3857	0.0012
689.5681	0.0217
689.7506	0.0362
689.933	0.0146
690.1154	0.031
690.2978	0.0254
690.4802	0.0383
690.6626	0.0184
690.8449	0.0205
691.0272	0.0111
691.2095	-0.0085
691.3918	0.0184
691.5741	0.0127
691.7563	0.0054
691.9386	0.0332
692.1208	0.0024
692.303	0.0096
692.4852	-0.0006
692.6673	0.0175
692.8495	-0.0114
693.0316	0.0153
693.2137	0.0339
693.3958	0.0149
693.5778	0.0151
693.7599	0.0133
693.9419	0.0062
694.1239	0.0278
694.3059	0.0229
694.4879	-0.0017
694.6699	0.0073
694.8518	0.0116
695.0337	0.0067
695.2157	0.0475
695.3975	0.0118
695.5794	-0.0137
695.7613	0.0222
695.9431	-0.0013
696.1249	0.0056
696.3067	0.0015
696.4885	0.0198
696.6703	0.0213
696.852	0.0009
697.0337	0.0265
697.2154	0.0156
697.3971	0.0257
697.5788	0.0177
697.7605	-0.0089
697.9421	0.0121
698.1237	0.0253
698.3053	0.0047
698.4869	0.0099
698.6685	-0.0122
698.85	0.0252
699.0315	0.0037
699.213	0.0273
699.3945	0.0033
699.576	0.02
699.7575	0.0087
699.9389	0.0069
700.1203	0.0124
700.3017	0.0345
700.4831	0.0282
700.6645	0.0366
700.8458	-0.0005
701.0271	0.042
701.2084	-0.0021
701.3897	0.0025
701.571	-0.0013
701.7523	0.0146
701.9335	0.0303
702.1147	0.0272
702.2959	0.0158
702.4771	0.015
702.6583	0.0242
702.8394	-0.0183
703.0205	0.0338
703.2016	-0.0023
703.3827	-0.0051
703.5638	0.0224
703.7449	0.0276
703.9259	0.0221
704.1069	-0.0205
704.2879	0.0361
704.4689	0.0238
704.6499	0.0394
704.8308	0.0064
705.0117	0.0143
705.1927	0.0013
705.3735	0.0307
705.5544	0.0191
705.7353	-0.0006
705.9161	-0.0332
706.0969	0.0037
706.2777	0.006
706.4585	-0.0041
706.6393	0.0206
706.82	0.0122
707.0007	-0.0038
707.1815	0.0006
707.3621	0.037
707.5428	-0.0074
707.7235	0.0117
707.9041	0.0345
708.0847	0.0096
708.2653	0.0108
708.4459	0.0056
708.6265	-0.0094
708.807	0.0065
708.9875	0.0032
709.168	-0.0008
709.3485	0.0152
709.529	0.0063
709.7095	-0.0136
709.8899	0.0032
710.0703	0.0153
710.2507	0.0087
710.4311	-0.0057
710.6115	0.0189
710.7918	0.0287
710.9721	0.0176
711.1524	-0.0232
711.3327	0.0266
711.513	0.0194
711.6932	0.0144
711.8735	0.036
712.0537	-0.0098
712.2339	-0.0077
712.4141	0.0481
712.5942	-0.019
712.7744	0.0289
712.9545	0.0076
713.1346	0.0361
713.3147	0.0162
713.4947	0.0102
713.6748	0.0266
713.8548	0.0222
714.0348	0.0176
714.2148	0.0101
714.3948	0.0231
714.5748	0.0198
714.7547	0.0208
714.9346	0.0276
715.1145	0.0106
715.2944	-0.0012
715.4743	0.0304
715.6541	-0.0145
715.834	0.0607
716.0138	-0.0058
716.1936	0.0111
716.3733	0.0209
716.5531	0.0293
716.7328	0.0124
716.9126	-0.0052
717.0923	0.0069
717.2719	0.009
717.4516	0.0123
717.6312	0.0015
717.8109	0.0214
717.9905	0.0184
718.1701	0.0326
718.3496	0.0114
718.5292	-0.0039
718.7087	0.0078
718.8882	0.0164
719.0677	0.0228
719.2472	0.0183
719.4267	0.0177
719.6061	-0.0095
719.7856	0.0168
719.965	0.0075
720.1443	0.0146
720.3237	-0.0017
720.5031	0.0213
720.6824	0.0095
720.8617	0.0202
721.041	0.0312
721.2203	-0.0065
721.3995	0.0311
721.5788	0.022
721.758	0.0028
721.9372	0.0142
722.1164	0.0384
722.2956	0.0187
722.4747	0.0353
722.6538	0.0056
722.8329	0.0232
723.012	0.0221
723.1911	0.0211
723.3702	0.0239
723.5492	0.0388
723.7282	0.021
723.9072	0.023
724.0862	0.0157
724.2652	-0.0095
724.4441	-0.003
724.623	0.0144
724.8019	0.0155
724.9808	0.0262
725.1597	0.0327
725.3385	0.0088
725.5174	0.0231
725.6962	0.0233
725.875	0.0099
726.0538	0.0424
726.2325	0.0508
726.4112	-0.0057
726.59	-0.0066
726.7687	0.0163
726.9474	0.0151
727.126	0.0232
727.3047	-0.0156
727.4833	-0.0076
727.6619	-0.0019
727.8405	0.0303
728.0191	0.0284
728.1976	0.0106
728.3762	0.0035
728.5547	0.0068
728.7332	0.0324
728.9116	0.0123
729.0901	-0.001
729.2686	0.013
729.447	-0.012
729.6254	0.0139
729.8038	0.0114
729.9821	-0.0051
730.1605	0.0089
730.3388	0.0339
730.5171	0.0332
730.6954	-0.0152
730.8737	0.0254
731.0519	-0.0014
731.2302	0.0096
731.4084	0.008
731.5866	-0.0061
731.7648	0.0277
731.9429	0.0128
732.1211	-0.0045
732.2992	0.014
732.4773	0.0053
732.6554	0.0105
732.8335	0.0254
733.0115	0.0215
733.1896	-0.0065
733.3676	0.0275
733.5456	0.0061
733.7235	0.0105
733.9015	0.0199
734.0794	0.0078
734.2574	-0.0063
734.4353	0.0105
734.6131	0.0112
734.791	0.0127
734.9689	-0.0121
735.1467	0.0007
735.3245	0.0278
735.5023	0.0319
735.68	0.0146
735.8578	0.0267
736.0355	0.0015
736.2132	-0.0006
736.3909	0.0181
736.5686	0.007
736.7463	-0.0149
736.9239	0.0336
737.1015	0.014
737.2791	0.0247
737.4567	0.0124
737.6343	0.006
737.8118	0.0305
737.9894	-0.0005
738.1669	0.0224
738.3444	0.0445
738.5218	-0.0018
738.6993	0.0219
738.8767	0.0093
739.0541	0.0047
739.2315	-0.009
739.4089	0.0255
739.5863	0.0115
739.7636	0.004
739.9409	0.0117
740.1182	-0.0215
740.2955	0.0271
740.4728	0.0051
740.65	-0.0166
740.8272	0.0303
741.0044	0.0014
741.1816	0.0136
741.3588	-0.0233
741.5359	0.0008
741.7131	-0.0054
741.8902	0.0125
742.0673	0.0103
742.2444	0.0275
742.4214	0.0276
742.5985	-0.0315
742.7755	0.0046
742.9525	-0.0139
743.1295	-0.0072
743.3064	0.0238
743.4834	0.0124
743.6603	0.0546
743.8372	-0.019
744.0141	0.0559
744.191	0.0132
744.3678	-0.0174
744.5446	0.0282
744.7215	0.018
744.8982	0.0407
745.075	0.0416
745.2518	-0.0038
745.4285	0.0323
745.6052	-0.0314
745.7819	0.0199
745.9586	0.0429
746.1353	0.0081
746.3119	0.0098
746.4885	0.0097
746.6651	0.0197
746.8417	-0.0077
747.0183	0.0513
747.1948	0.0354
747.3714	0.02
747.5479	0.0019
747.7244	-0.003
747.9008	-0.0013
748.0773	0.0527
748.2537	0.0312
748.4301	0.0469
748.6065	0.0145
748.7829	-0.0225
748.9593	-0.0051
749.1356	0.0253
749.3119	0.0214
749.4882	0.0291
749.6645	0.0103
749.8408	0.0114
750.017	0.0179
750.1933	-0.0045
750.3695	0.0282
750.5457	0.0064
750.7218	-0.0061
750.898	-0.0097
751.0741	-0.0039
751.2502	0.0049
751.4263	0.0219
751.6024	0.0184
751.7784	0.0127
751.9545	0.0126
752.1305	0.0137
752.3065	0.0038
752.4825	0.0137
752.6584	-0.0048
752.8344	-0.002
753.0103	0.0057
753.1862	0.004
753.3621	0.0244
753.5379	0.0142
753.7138	0.0221
753.8896	0.0193
754.0654	0.0114
754.2412	0.0412
754.417	0.0469
754.5927	0.0194
754.7685	0.0124
754.9442	0.0343
755.1199	0.0138
755.2956	0.0086
755.4712	0.0294
755.6469	0.0151
755.8225	0.0049
755.9981	0.0209
756.1736	0.0154
756.3492	0.0088
756.5248	0.0146
756.7003	0.0158
756.8758	0.0134
757.0513	0.0062
757.2267	0.0133
757.4022	0.0027
757.5776	0.0054
757.753	0.0141
757.9284	0.0209
758.1038	0.0182
758.2791	0.0114
758.4545	-0.0044
758.6298	0.0055
758.8051	0.0198
758.9803	0.0137
759.1556	-0.017
759.3308	0.0052
759.506	0.0104
759.6812	0.0049
759.8564	0.0118
760.0316	0.0012
760.2067	0.0339
760.3819	0.0097
760.557	0.0086
760.732	-0.0023
760.9071	0.054
761.0821	0.0087
761.2572	0.018
761.4322	0.0143
761.6072	0.0009
761.7821	-0.0216
761.9571	0.0096
762.132	0.0052
762.3069	0.0286
762.4818	0.0221
762.6567	0.0061
762.8316	0.0292
763.0064	-0.0097
763.1812	-0.006
763.356	-0.0112
763.5308	0.0262
763.7055	-0.0072
763.8803	0.0036
764.055	0.0125
764.2297	0.0018
764.4044	0.0015
764.579	0.0177
764.7537	0.0016
764.9283	0.0327
765.1029	0.0118
765.2775	0.0326
765.4521	0.0171
765.6266	0.0052
765.8011	0.0077
765.9756	0.0247
766.1501	0.0236
766.3246	0.0241
766.4991	0.0301
766.6735	0.0301
766.8479	-0.0034
767.0223	0.0291
767.1967	0.0078
767.371	0.0319
767.5454	0.0525
767.7197	0.0429
767.894	0.0121
768.0683	0.0346
768.2425	0.0334
768.4168	-0.0004
768.591	0.0196
768.7652	0.0086
768.9394	-0.0294
769.1135	0.0068
769.2877	0.0392
769.4618	0.0367
769.6359	0.023
769.81	0.0291
769.984	0.0206
770.1581	0.0017
770.3321	0.0297
770.5061	0.0185
770.6801	0.0141
770.8541	0.0221
771.028	0.0314
771.202	0.0496
771.3759	0.0022
771.5498	0.0174
771.7236	0.0153
771.8975	0.0315
772.0713	0.0528
772.2451	0.0152
772.4189	0.0147
772.5927	-0.0276
772.7665	0.0094
772.9402	0.033
773.1139	-0.004
773.2876	-0.0073
773.4613	0.0055
773.635	0.0208
773.8086	0.0188
773.9822	0.0289
774.1558	0.0688
774.3294	-0.0103
774.503	0.0174
774.6765	0.0257
774.8501	0.0345
775.0236	0.014
775.1971	0.002
775.3705	0.0021
775.544	-0.0116
775.7174	-0.0011
775.8908	-0.0055
776.0642	0.0348
776.2376	0.0281
776.4109	0.0226
776.5843	0.0032
776.7576	-0.0078
776.9309	0.015
777.1041	-0.0003
777.2774	0.014
777.4506	0.0101
777.6238	0.0176
777.797	0.0251
777.9702	-0.0041
778.1434	0.0252
778.3165	-0.0171
778.4896	-0.035
778.6627	-0.0044
778.8358	-0.011
779.0089	-0.0085
779.1819	0.0286
779.3549	0.0285
779.5279	0.0143
779.7009	0.0766
779.8739	0.0296
780.0468	0.0259
780.2197	0.0565
780.3926	0.011
780.5655	0.0381
780.7384	-0.0043
780.9112	0.0229
781.0841	0.0305
781.2569	0.0136
781.4297	0.028
781.6024	0.0053
781.7752	0.0341
781.9479	0.0405
782.1206	0.0067
782.2933	0.0032
782.466	0.0446
782.6386	0.0085
782.8113	0.0152
782.9839	0.0215
783.1565	0.0407
783.329	0.0021
783.5016	0.0563
783.6741	-0.0348
783.8466	0.0452
784.0191	-0.0143
784.1916	-0.0336
784.3641	-0.0345
784.5365	0.048
784.7089	0.0039
784.8813	0.081
785.0537	0.0536
785.2261	-0.0148
785.3984	0.0195
785.5707	0.0271
785.743	0.03
785.9153	0.0233
786.0876	0.009
786.2598	-0.0374
786.432	0.0353
786.6042	0.0576
786.7764	-0.031
786.9486	-0.0218
787.1207	0.0453
787.2928	0.0655
787.4649	-0.0117
787.637	0.0081
787.8091	0.0238
787.9811	0.036
788.1532	-0.0192
788.3252	0.0256
788.4972	0.0126
788.6691	0.0415
788.8411	-0.0132
789.013	-0.0107
789.1849	0.0352
789.3568	0.0375
789.5287	0.0432
789.7005	-0.0124
789.8723	-0.0222
790.0442	-0.0236
790.2159	0.0488
790.3877	0.0525
790.5595	0.0968
790.7312	-0.0404
790.9029	0.0058
791.0746	0.0146
791.2463	-0.0424
791.4179	0.0535
791.5896	0.0828
791.7612	0.0653
791.9328	0.0148
792.1044	0.0147
792.2759	-0.0102
792.4474	0.0514
792.619	0.0438
792.7905	0.0376
792.9619	0.0813
793.1334	0.0325
793.3048	0.0464
793.4762	0.0195
793.6476	0.0109
793.819	0.0051
793.9904	0.026
794.1617	-0.0052
794.333	-0.0071
794.5043	0.035
794.6756	0.0056
794.8469	0.0333
795.0181	0.0257
795.1893	0.0429
795.3605	0.0461
795.5317	-0.0197
795.7029	-0.0135
795.874	0.0149
796.0452	0.0215
796.2163	0.0241
796.3873	0.0546
796.5584	-0.0005
796.7294	-0.0035
796.9005	0.0129
797.0715	-0.0634
797.2425	0.0314
797.4134	0.0594
797.5844	0.0649
797.7553	-0.019
797.9262	0.0551
798.0971	0.0668
798.2679	-0.004
798.4388	0.0599
798.6096	0.0752
798.7804	0.0132
798.9512	0.0541
799.122	-0.0337
799.2927	0.0492
799.4635	-0.0208
799.6342	-0.0066
799.8049	0.0071
799.9755	0.051
800.1462	0.0801
800.3168	-0.0044
800.4874	-0.0535
800.658	0.0236
800.8286	-0.0289
800.9991	0.0204
801.1696	-0.0077
801.3402	-0.0534
801.5106	0.0035
801.6811	-0.0663
801.8516	0.1309
802.022	0.007
802.1924	-0.0553
802.3628	0.0256
802.5332	0.0834
802.7035	0.1624
802.8739	-0.0159
803.0442	-0.082
803.2145	0.0664
803.3847	0.0332
803.555	0.1063
803.7252	0.0138
803.8954	-0.0103
804.0656	0.0102
804.2358	0.0334
804.4059	0.0608
804.5761	0.0601
804.7462	-0.0778
804.9163	0.0253
805.0864	0.0153
805.2564	0.0051
805.4264	-0.0055
805.5965	-0.0129
805.7665	-0.0035
805.9364	-0.0305
806.1064	-0.0187
806.2763	0.0453
806.4462	0.0485
806.6161	0.0059
806.786	0.018
806.9559	0.049
807.1257	0.0109
807.2955	-0.0255
807.4653	-0.0075
807.6351	0.0419
807.8048	0.0248
807.9746	0.0495
808.1443	0.0009
808.314	0.0425
808.4837	0.0711
808.6533	0.0439
808.8229	0.0356
808.9926	0.0798
809.1622	0.0079
809.3317	-0.0399
809.5013	-0.0132
809.6708	0.0251
809.8403	0.0278
810.0098	0.0602
810.1793	0.1188
810.3488	-0.0763
810.5182	0.1077
810.6876	0.0356
810.857	0.0869
811.0264	-0.1013
811.1958	0.1168
811.3651	0.0234
811.5344	0.049
811.7037	0.0086
811.873	0.1267
812.0422	-0.0319
812.2115	0.0724
812.3807	-0.0443
812.5499	-0.0937
812.7191	-0.0294
812.8882	-0.0427
813.0574	0.007
813.2265	0.0129
813.3956	0.0339
813.5646	0.1212
813.7337	-0.0528
813.9027	-0.1074
814.0718	0.0347
814.2407	0.0688
814.4097	0.0461
814.5787	0.077
814.7476	0.0536
814.9165	0.0647
815.0854	0.0032
815.2543	0.0486
815.4232	0.162
815.592	0.0413
815.7608	-0.0886
815.9296	-0.0408
816.0984	0.2116
816.2671	-0.2204
816.4359	0.1012
816.6046	0.0371
816.7733	0.0774
816.942	0.0154
817.1106	0.1319
817.2793	-0.0288
817.4479	0.0991
817.6165	0.0571
817.785	0.171
817.9536	-0.1058
818.1221	-0.0456
818.2906	-0.011
818.4591	0.1424
818.6276	0.0974
818.7961	0.1445
818.9645	0.1988
819.1329	0.1019
819.3013	0.1401
819.4697	0.0952
819.638	0.0933
819.8064	0.0697
819.9747	0.1406
820.143	0.0717
820.3113	-0.0911
820.4795	0.1169
820.6477	0.172
820.816	0.0518
820.9842	0.1766
821.1523	0.0693
821.3205	0.0913
821.4886	0.1189
821.6567	-0.0264
821.8248	0.1525
821.9929	-0.0974
822.1609	0.2557
822.329	0.0392
822.497	0.035
822.665	-0.0261
822.833	0.0547
823.0009	-0.057
823.1688	-0.03
823.3367	-0.1129
823.5046	0.1619
823.6725	0.1316
823.8404	0.1723
824.0082	-0.0539
824.176	0.0348
824.3438	0.162
824.5116	0.0756
824.6793	0.1659
824.847	0.2202
825.0147	0.3834
825.1824	0.152
825.3501	0.0929
825.5177	-0.0627
825.6854	-0.1341
825.853	-0.0686
826.0206	0.0171
826.1881	0.0527
826.3557	0.0206
826.5232	0.0748
826.6907	0.0846
826.8582	-0.0611
827.0257	0.0659
827.1931	-0.0453
827.3605	-0.0584
827.528	-0.1882
827.6953	-0.1465
827.8627	-0.0516
828.03	0.0844
828.1974	0.1492
828.3647	0.1529
828.532	-0.0105
828.6992	0.0134
828.8665	-0.2476
829.0337	0.0856
829.2009	-0.0091
829.3681	0.0353
829.5352	-0.0192
829.7024	0.2064
829.8695	-0.1282
830.0366	0.052
830.2037	0.2265
830.3707	-0.0337
830.5378	0.015
830.7048	-0.1556
830.8718	0.2178
831.0388	0.0861
831.2057	-0.1061
831.3727	-0.2358
831.5396	0.0284
831.7065	-1.0542
831.8734	0.1805
832.0402	0.1046
832.2071	-0
832.3739	-0.1647
832.5407	-0
832.7075	-0.4206
832.8742	0.3584
833.041	0.1626
833.2077	0.0965
833.3744	0.2022
833.541	0.0578
833.7077	-0.0761
833.8743	0.46
834.0409	0.0569
834.2075	0.1233
834.3741	-0.1132
834.5407	0.2179
834.7072	0.0584
834.8737	0.3772
835.0402	0.6194
835.2067	0.0044
835.3731	-0.0124
835.5395	0.1023
835.706	0.139
835.8723	0.0099
836.0387	0.0578
836.2051	0.1618
836.3714	0.248
836.5377	0.1469
836.704	0.5192
836.8703	0.3303
837.0365	0.415
837.2027	0.3769
837.3689	0.1004
837.5351	0.4363
837.7013	0.1353
837.8674	-0.423
838.0335	0.2239
838.1997	-0.0576
838.3657	-0
838.5318	-0.3302
838.6978	0.4474
838.8639	-0
839.0299	0.1051
839.1958	0.1503
839.3618	-0
839.5277	0.0515
839.6937	0.0178
839.8596	-0.0536
840.0254	-0.0503
840.1913	-0.3247
840.3571	0.3861
840.523	-0
840.6888	0.0297
840.8545	-0.693
841.0203	0.5514
841.186	-0.0512
841.3517	0.3081
841.5174	0.441
841.6831	0.0386
841.8488	0.0412
842.0144	0.3959
842.18	0.5054
842.3456	-0.5807
842.5112	-1.406
842.6767	0.1299
842.8422	-0.1382
843.0077	-0.0883
843.1732	-0.1165
843.3387	0.6731
843.5042	-0
843.6696	-0
843.835	-0.2529
844.0004	-0.2153
844.1657	-0
844.3311	-0
844.4964	-0
844.6617	0.7788
844.827	-0
844.9923	0.1139
845.1575	-0.0077
845.3227	-0.0624
845.4879	0.6186
845.6531	0.147
845.8183	-0
845.9834	0.0068
846.1485	0.2416
846.3136	0.0446
846.4787	-0.475
846.6438	-0.1675
846.8088	-0
846.9738	-0
847.1388	0.2165
847.3038	1.5069
847.4687	0.5572
847.6337	0.2525
847.7986	0.8926
847.9635	0.0072
848.1284	-0
848.2932	0.2275
848.458	-1.5866
848.6228	0.3896
848.7876	-0.0446
848.9524	1.1708
849.1172	-1.6306
849.2819	-0
849.4466	-0
849.6113	-0.0412
849.7759	-0
849.9406	0.1634
850.1052	-1.3435
850.2698	-0.2916
850.4344	-0
850.599	-0
850.7635	0.3253
850.928	-0
851.0925	1.3641
851.257	0.0371
851.4215	0.1863
851.5859	0.5681
851.7503	-0
851.9147	0.1258
852.0791	-0.0878
852.2434	0.0531
852.4078	-0.1561
852.5721	-0
852.7364	-0.0237
852.9007	-0.0029
853.0649	-0
853.2291	0.2547
853.3934	-0
853.5575	0.0576
853.7217	0.3109
853.8859	-0
854.05	0.473
854.2141	0.2992
854.3782	-0.3977
854.5423	0.9626
854.7063	-0.1441
854.8703	-0.0453
855.0343	-0.128
855.1983	0.4835
855.3623	-0.035
855.5262	-0
855.6901	-0
855.854	0.2996
856.0179	-0.0768
856.1818	-0
856.3456	1.1048
856.5094	-0
856.6732	-0.4485
856.837	-0.1807
857.0008	-0.3868
857.1645	-0.1046
857.3282	-0.2497
857.4919	-0.1522
857.6556	0.0714
857.8192	0.0671
857.9828	0.1728
858.1465	0.3826
858.31	-0.0751
858.4736	-0.8024
858.6372	-0
858.8007	-0.0835
858.9642	1.1063
859.1277	0.2587
859.2911	-0.613
859.4546	-0.8692
859.618	-0
859.7814	-0.2181
859.9448	0.0761
860.1081	-0
860.2715	-1.2304
860.4348	0.065
860.5981	0.2849
860.7614	-0
860.9246	-0.1165
861.0879	-0
861.2511	-0
861.4143	-0
861.5774	-0.1524
861.7406	0.6424
861.9037	-0
862.0668	-0
862.2299	-0
862.393	0.257
862.556	-0.2769
862.7191	-0.0357
862.8821	0.4718
863.0451	0.3467
863.208	-0
863.371	-0
863.5339	0.9629
863.6968	0.5703
863.8597	-0.186
864.0225	-0.1476
864.1854	-0.1031
864.3482	-1.0337
864.511	-0.0963
864.6737	-0
864.8365	0.0527
864.9992	-0
865.1619	0.501
865.3246	-1.7042
865.4873	-0
865.65	0.1364
865.8126	0.2362
865.9752	0.6186
866.1378	0.4676
866.3004	0.418
866.4629	-1.846
866.6254	-0
866.7879	-0
866.9504	2.0969
867.1129	-0
867.2753	0.1216
867.4377	0.1569
867.6001	-0
867.7625	0.0074
867.9249	1.0712
868.0872	-0
868.2495	-0
868.4118	0.1395
868.5741	0.4688
868.7363	-0.374
868.8986	-0.3988
869.0608	-0.149
869.223	-0.3129
869.3851	-0.4326
869.5473	0.4757
869.7094	0.1574
869.8715	-0.3443
870.0336	-0.1282
870.1957	-0
870.3577	-0
870.5197	0.1253
870.6817	-0.4584
870.8437	-0.0229
871.0057	-0
871.1676	0.1555
871.3295	0.4413
871.4914	-0
871.6533	0.0455
871.8151	0.4195
871.977	-0
872.1388	1.3297
872.3006	-0.3614
872.4623	-0.8142
872.6241	0.6011
872.7858	0.0096
872.9475	-0
873.1092	1.026
873.2709	0.667
873.4325	-0
873.5941	-0.4726
873.7557	-0
873.9173	-0
874.0789	0.6916
874.2404	-0
874.4019	0.2353
874.5634	-0
874.7249	-0
874.8863	-0.3727
875.0478	-0.0423
875.2092	-0
875.3706	0.183
875.5319	-0
875.6933	-0
875.8546	-0.0098
876.0159	0.579
876.1772	-0
876.3385	0.3229
876.4997	-0
876.6609	-0
876.8221	-0
876.9833	-0.3744
877.1445	0.312
877.3056	-0
877.4667	-0.4246
877.6278	0.3826
877.7889	0.7767
877.9499	-0
878.111	-0.5914
878.272	-0.3504
878.433	0.4741
878.5939	-0
878.7549	-0
878.9158	-0.3328
879.0767	0.5854
879.2376	0.1496
879.3984	1.1749
879.5593	0.3751
879.7201	-0.827
879.8809	0.2233
880.0417	-0.2172
880.2024	0.0873
880.3632	-0.2769
880.5239	-0.0907
880.6846	0.0351
880.8452	-0.079
881.0059	-0.1807
881.1665	0.5425
881.3271	-0.0527
881.4877	0.5842
881.6483	-1.5898
881.8088	-0.9801
881.9693	-0
882.1298	-0
882.2903	-0
