Data from D4ACN5uM420nmA_Absorbance_14-37-08-232.txt Node
Date: Fri Feb 21 14:37:08 GMT 2025
User: LASERRRRR
Spectrometer: FLMT03099
Trigger mode: 0
Integration Time (sec): 1.500000E-2
Scans to average: 1
Electric dark correction enabled: true
Nonlinearity correction enabled: false
Boxcar width: 0
XAxis mode: Wavelengths
Number of Pixels in Spectrum: 3648
>>>>>Begin Spectral Data<<<<<
179.3399	-0.6275
179.5586	-0.6275
179.7771	-0.6275
179.9957	-0.2482
180.2143	-1.7278
180.4329	-0.2417
180.6514	-0
180.8699	0.8532
181.0885	0.0414
181.307	-0
181.5255	0.1833
181.744	0.1831
181.9625	-0
182.181	0.48
182.3994	-0.6302
182.6179	0.7107
182.8363	-0
183.0547	0.0623
183.2732	0.0387
183.4916	0.1347
183.71	0.1771
183.9284	0.2524
184.1467	0.1447
184.3651	0.2203
184.5835	0.1734
184.8018	0.0844
185.0201	0.1794
185.2385	0.2839
185.4568	0.1854
185.6751	-0.0257
185.8934	0.0806
186.1117	-0.1179
186.3299	0.0553
186.5482	0.2002
186.7664	0.2736
186.9847	-0.0338
187.2029	0.0964
187.4211	0.0396
187.6393	0.0556
187.8575	0.325
188.0757	0.2636
188.2939	0.0508
188.512	0.3136
188.7302	0.0805
188.9483	0.7852
189.1665	0.8463
189.3846	0.1919
189.6027	0.0906
189.8208	0.3374
190.0389	0.1259
190.257	0.1145
190.475	0.1421
190.6931	0.0648
190.9111	-0.0346
191.1292	-0.0466
191.3472	0.081
191.5652	0.1295
191.7832	0.0476
192.0012	0.1456
192.2192	0.0716
192.4371	0.0105
192.6551	0.144
192.873	0.1856
193.091	0.1695
193.3089	0.14
193.5268	0.2066
193.7447	0.2427
193.9626	0.149
194.1805	0.2619
194.3984	0.1649
194.6162	0.2498
194.8341	0.1712
195.0519	0.2157
195.2697	0.2582
195.4875	0.1959
195.7054	0.1923
195.9231	0.1511
196.1409	0.23
196.3587	0.2848
196.5765	0.2894
196.7942	0.2811
197.012	0.3692
197.2297	0.3039
197.4474	0.3397
197.6651	0.26
197.8828	0.3539
198.1005	0.366
198.3182	0.3493
198.5358	0.4149
198.7535	0.4275
198.9711	0.3605
199.1888	0.3416
199.4064	0.3825
199.624	0.334
199.8416	0.3507
200.0592	0.3931
200.2767	0.3747
200.4943	0.4066
200.7119	0.3691
200.9294	0.3651
201.1469	0.4009
201.3645	0.4306
201.582	0.3955
201.7995	0.3901
202.017	0.4194
202.2344	0.4352
202.4519	0.3669
202.6694	0.411
202.8868	0.4031
203.1042	0.3954
203.3217	0.4019
203.5391	0.381
203.7565	0.3473
203.9739	0.3691
204.1913	0.3582
204.4086	0.3493
204.626	0.3512
204.8433	0.369
205.0607	0.335
205.278	0.3453
205.4953	0.3466
205.7126	0.3183
205.9299	0.3398
206.1472	0.3262
206.3644	0.3502
206.5817	0.3158
206.7989	0.3278
207.0162	0.3327
207.2334	0.3017
207.4506	0.3116
207.6678	0.3142
207.885	0.2974
208.1022	0.3031
208.3194	0.2705
208.5365	0.3072
208.7537	0.2827
208.9708	0.3057
209.1879	0.2962
209.405	0.2661
209.6222	0.2623
209.8392	0.2955
210.0563	0.2671
210.2734	0.2607
210.4905	0.2786
210.7075	0.2584
210.9245	0.2647
211.1416	0.2691
211.3586	0.2657
211.5756	0.2454
211.7926	0.2801
212.0096	0.2666
212.2265	0.246
212.4435	0.255
212.6604	0.2566
212.8774	0.2422
213.0943	0.2521
213.3112	0.2502
213.5281	0.2488
213.745	0.2225
213.9619	0.2551
214.1788	0.2549
214.3956	0.2484
214.6125	0.236
214.8293	0.2513
215.0461	0.2416
215.2629	0.242
215.4798	0.233
215.6965	0.2365
215.9133	0.2236
216.1301	0.2414
216.3469	0.2465
216.5636	0.238
216.7803	0.2326
216.9971	0.2541
217.2138	0.2486
217.4305	0.2386
217.6472	0.2482
217.8639	0.2355
218.0805	0.2369
218.2972	0.2376
218.5138	0.2475
218.7305	0.251
218.9471	0.2441
219.1637	0.2635
219.3803	0.261
219.5969	0.2362
219.8135	0.2521
220.0301	0.2564
220.2466	0.2484
220.4632	0.2383
220.6797	0.2482
220.8962	0.2604
221.1127	0.261
221.3292	0.2637
221.5457	0.2725
221.7622	0.2669
221.9787	0.2796
222.1951	0.2575
222.4116	0.2597
222.628	0.2861
222.8444	0.2699
223.0608	0.2815
223.2772	0.277
223.4936	0.2855
223.71	0.2855
223.9264	0.2855
224.1427	0.2846
224.3591	0.2838
224.5754	0.2879
224.7917	0.2842
225.008	0.2865
225.2243	0.3097
225.4406	0.3066
225.6569	0.2932
225.8732	0.3051
226.0894	0.3052
226.3057	0.3058
226.5219	0.309
226.7381	0.3248
226.9543	0.3053
227.1705	0.3165
227.3867	0.3116
227.6029	0.3302
227.8191	0.3299
228.0352	0.3434
228.2513	0.3359
228.4675	0.3439
228.6836	0.343
228.8997	0.3448
229.1158	0.3549
229.3319	0.3576
229.548	0.3496
229.764	0.355
229.9801	0.3738
230.1961	0.3752
230.4121	0.3714
230.6282	0.3686
230.8442	0.3932
231.0602	0.3879
231.2761	0.3784
231.4921	0.3904
231.7081	0.3888
231.924	0.4014
232.14	0.4087
232.3559	0.4103
232.5718	0.4103
232.7877	0.4167
233.0036	0.4121
233.2195	0.4142
233.4353	0.4143
233.6512	0.4159
233.867	0.4229
234.0829	0.4261
234.2987	0.4269
234.5145	0.4361
234.7303	0.4346
234.9461	0.4372
235.1619	0.4379
235.3776	0.424
235.5934	0.4354
235.8091	0.4494
236.0249	0.4465
236.2406	0.442
236.4563	0.4461
236.672	0.4337
236.8877	0.4429
237.1034	0.455
237.319	0.4495
237.5347	0.4506
237.7503	0.4431
237.966	0.4657
238.1816	0.4527
238.3972	0.4563
238.6128	0.4656
238.8284	0.4689
239.0439	0.462
239.2595	0.4645
239.475	0.4656
239.6906	0.4578
239.9061	0.4573
240.1216	0.4698
240.3371	0.4668
240.5526	0.4598
240.7681	0.474
240.9836	0.456
241.199	0.4577
241.4145	0.4595
241.6299	0.4514
241.8453	0.4405
242.0607	0.4401
242.2761	0.4429
242.4915	0.4393
242.7069	0.4218
242.9223	0.4298
243.1376	0.4201
243.353	0.4104
243.5683	0.4082
243.7836	0.395
243.9989	0.3849
244.2142	0.3795
244.4295	0.3834
244.6448	0.3714
244.86	0.363
245.0753	0.3525
245.2905	0.3551
245.5057	0.3425
245.721	0.3437
245.9362	0.336
246.1514	0.3281
246.3665	0.3271
246.5817	0.3077
246.7969	0.3019
247.012	0.305
247.2271	0.3008
247.4423	0.2955
247.6574	0.296
247.8725	0.2763
248.0876	0.2783
248.3026	0.2702
248.5177	0.2659
248.7328	0.2548
248.9478	0.2569
249.1628	0.258
249.3779	0.249
249.5929	0.2408
249.8079	0.2389
250.0228	0.2374
250.2378	0.234
250.4528	0.2356
250.6677	0.2231
250.8827	0.2191
251.0976	0.2187
251.3125	0.221
251.5274	0.2148
251.7423	0.2104
251.9572	0.2157
252.172	0.2093
252.3869	0.2116
252.6017	0.2021
252.8166	0.2047
253.0314	0.2008
253.2462	0.201
253.461	0.197
253.6758	0.194
253.8906	0.2045
254.1053	0.1981
254.3201	0.1997
254.5348	0.1864
254.7496	0.191
254.9643	0.1981
255.179	0.1913
255.3937	0.1901
255.6083	0.1916
255.823	0.1859
256.0377	0.1845
256.2523	0.1877
256.467	0.1854
256.6816	0.1872
256.8962	0.1869
257.1108	0.1927
257.3254	0.185
257.54	0.1822
257.7545	0.1862
257.9691	0.1894
258.1836	0.1795
258.3981	0.1833
258.6127	0.1795
258.8272	0.184
259.0417	0.1793
259.2561	0.1868
259.4706	0.1794
259.6851	0.1773
259.8995	0.1831
260.114	0.1813
260.3284	0.1755
260.5428	0.1819
260.7572	0.1789
260.9716	0.1843
261.186	0.181
261.4003	0.1785
261.6147	0.1785
261.829	0.1769
262.0433	0.1823
262.2577	0.1828
262.472	0.1863
262.6863	0.1863
262.9005	0.1824
263.1148	0.1838
263.3291	0.1858
263.5433	0.1895
263.7576	0.1873
263.9718	0.189
264.186	0.1905
264.4002	0.1852
264.6144	0.1942
264.8286	0.186
265.0427	0.1913
265.2569	0.1913
265.471	0.1928
265.6851	0.1861
265.8993	0.1857
266.1134	0.1872
266.3275	0.1927
266.5415	0.1963
266.7556	0.1872
266.9697	0.2002
267.1837	0.1904
267.3978	0.191
267.6118	0.1865
267.8258	0.1923
268.0398	0.1967
268.2538	0.1959
268.4677	0.1812
268.6817	0.1846
268.8957	0.1844
269.1096	0.1833
269.3235	0.1817
269.5374	0.1888
269.7514	0.1909
269.9652	0.1873
270.1791	0.1846
270.393	0.185
270.6068	0.1837
270.8207	0.1859
271.0345	0.1883
271.2483	0.1757
271.4622	0.1812
271.676	0.1822
271.8897	0.1852
272.1035	0.1899
272.3173	0.1855
272.531	0.186
272.7448	0.1817
272.9585	0.1778
273.1722	0.1816
273.3859	0.1875
273.5996	0.1874
273.8133	0.1861
274.0269	0.1834
274.2406	0.1863
274.4542	0.1867
274.6679	0.1933
274.8815	0.1914
275.0951	0.1929
275.3087	0.1944
275.5223	0.1887
275.7358	0.1939
275.9494	0.1917
276.1629	0.1932
276.3765	0.1968
276.59	0.1937
276.8035	0.1953
277.017	0.2035
277.2305	0.1971
277.444	0.1964
277.6574	0.1973
277.8709	0.2056
278.0843	0.2005
278.2978	0.2036
278.5112	0.202
278.7246	0.1935
278.938	0.196
279.1513	0.198
279.3647	0.1972
279.5781	0.1925
279.7914	0.1951
280.0047	0.1953
280.2181	0.1951
280.4314	0.1904
280.6447	0.1982
280.8579	0.1875
281.0712	0.1939
281.2845	0.1974
281.4977	0.1945
281.711	0.1891
281.9242	0.1922
282.1374	0.1936
282.3506	0.1915
282.5638	0.1878
282.7769	0.1836
282.9901	0.1871
283.2033	0.1932
283.4164	0.1868
283.6295	0.1918
283.8426	0.1902
284.0557	0.196
284.2688	0.1934
284.4819	0.1879
284.695	0.1943
284.908	0.1875
285.1211	0.1896
285.3341	0.1869
285.5471	0.1909
285.7601	0.1875
285.9731	0.1975
286.1861	0.1992
286.3991	0.1928
286.612	0.191
286.825	0.1897
287.0379	0.1972
287.2508	0.193
287.4637	0.1952
287.6766	0.1903
287.8895	0.1902
288.1024	0.1941
288.3152	0.1907
288.5281	0.1911
288.7409	0.1939
288.9538	0.1994
289.1666	0.1894
289.3794	0.1902
289.5922	0.1868
289.8049	0.1899
290.0177	0.1924
290.2304	0.1892
290.4432	0.1893
290.6559	0.1954
290.8686	0.1929
291.0813	0.1904
291.294	0.1945
291.5067	0.1918
291.7194	0.1929
291.932	0.1902
292.1447	0.1865
292.3573	0.1927
292.5699	0.1946
292.7825	0.1891
292.9951	0.188
293.2077	0.1911
293.4203	0.1893
293.6328	0.1893
293.8454	0.1969
294.0579	0.1916
294.2704	0.1955
294.4829	0.1956
294.6954	0.19
294.9079	0.1865
295.1204	0.1896
295.3328	0.1935
295.5453	0.1909
295.7577	0.1933
295.9701	0.1959
296.1825	0.1981
296.3949	0.1914
296.6073	0.1882
296.8197	0.192
297.0321	0.1922
297.2444	0.1913
297.4567	0.1923
297.6691	0.1982
297.8814	0.1962
298.0937	0.1914
298.306	0.1902
298.5182	0.1945
298.7305	0.1954
298.9428	0.1899
299.155	0.1876
299.3672	0.1921
299.5794	0.1927
299.7916	0.1968
300.0038	0.1965
300.216	0.1883
300.4282	0.1928
300.6403	0.1948
300.8525	0.1914
301.0646	0.1913
301.2767	0.1953
301.4888	0.1908
301.7009	0.1884
301.913	0.1963
302.125	0.193
302.3371	0.1933
302.5491	0.1936
302.7612	0.1969
302.9732	0.1964
303.1852	0.1903
303.3972	0.195
303.6092	0.1916
303.8211	0.1908
304.0331	0.1886
304.245	0.1883
304.457	0.1896
304.6689	0.1954
304.8808	0.1875
305.0927	0.1923
305.3046	0.1841
305.5164	0.1905
305.7283	0.1863
305.9401	0.1744
306.152	0.1819
306.3638	0.1833
306.5756	0.185
306.7874	0.1763
306.9992	0.1717
307.2109	0.1775
307.4227	0.1725
307.6344	0.1783
307.8462	0.1683
308.0579	0.1779
308.2696	0.1708
308.4813	0.1695
308.693	0.1642
308.9046	0.1711
309.1163	0.1653
309.328	0.1659
309.5396	0.161
309.7512	0.1574
309.9628	0.1582
310.1744	0.1548
310.386	0.1553
310.5976	0.1549
310.8091	0.157
311.0207	0.1523
311.2322	0.1492
311.4437	0.15
311.6552	0.1564
311.8667	0.1572
312.0782	0.1463
312.2897	0.1476
312.5012	0.1476
312.7126	0.1417
312.924	0.1482
313.1355	0.1453
313.3469	0.1472
313.5583	0.1451
313.7696	0.1433
313.981	0.1428
314.1924	0.139
314.4037	0.1441
314.6151	0.1431
314.8264	0.1439
315.0377	0.1451
315.249	0.1436
315.4603	0.1369
315.6716	0.1391
315.8828	0.1384
316.0941	0.139
316.3053	0.1364
316.5165	0.1414
316.7277	0.1371
316.9389	0.1391
317.1501	0.1342
317.3613	0.1359
317.5724	0.136
317.7836	0.1336
317.9947	0.1354
318.2058	0.1362
318.417	0.1368
318.6281	0.1287
318.8391	0.137
319.0502	0.1307
319.2613	0.1357
319.4723	0.1353
319.6834	0.141
319.8944	0.1363
320.1054	0.1311
320.3164	0.1292
320.5274	0.1347
320.7383	0.1382
320.9493	0.1367
321.1602	0.137
321.3712	0.1342
321.5821	0.1295
321.793	0.1368
322.0039	0.1353
322.2148	0.13
322.4257	0.1302
322.6365	0.1266
322.8474	0.1374
323.0582	0.1392
323.269	0.1419
323.4798	0.137
323.6906	0.1352
323.9014	0.1316
324.1122	0.1359
324.3229	0.1353
324.5337	0.1346
324.7444	0.1341
324.9551	0.1447
325.1658	0.1378
325.3765	0.1406
325.5872	0.1383
325.7979	0.1403
326.0085	0.138
326.2192	0.1386
326.4298	0.1444
326.6404	0.1477
326.851	0.135
327.0616	0.1463
327.2722	0.141
327.4828	0.1399
327.6933	0.1495
327.9039	0.1426
328.1144	0.1434
328.3249	0.1463
328.5354	0.1443
328.7459	0.1434
328.9564	0.1422
329.1669	0.1475
329.3773	0.1456
329.5878	0.1444
329.7982	0.1468
330.0086	0.1438
330.219	0.1476
330.4294	0.1423
330.6398	0.1496
330.8502	0.1571
331.0605	0.147
331.2708	0.1477
331.4812	0.1518
331.6915	0.1488
331.9018	0.1501
332.1121	0.1542
332.3224	0.1458
332.5326	0.1448
332.7429	0.1504
332.9531	0.1537
333.1633	0.1435
333.3735	0.1456
333.5837	0.1536
333.7939	0.1485
334.0041	0.1495
334.2143	0.1444
334.4244	0.1593
334.6346	0.1484
334.8447	0.152
335.0548	0.1527
335.2649	0.1515
335.475	0.1496
335.685	0.1539
335.8951	0.1471
336.1051	0.1485
336.3152	0.1551
336.5252	0.1467
336.7352	0.1485
336.9452	0.1512
337.1552	0.1519
337.3652	0.1473
337.5751	0.1511
337.7851	0.1453
337.995	0.1544
338.2049	0.1472
338.4148	0.1538
338.6247	0.1501
338.8346	0.1483
339.0445	0.1498
339.2543	0.1534
339.4642	0.1484
339.674	0.1531
339.8838	0.1499
340.0936	0.1458
340.3034	0.152
340.5132	0.1501
340.7229	0.157
340.9327	0.1637
341.1424	0.15
341.3522	0.1464
341.5619	0.1623
341.7716	0.1571
341.9813	0.1595
342.1909	0.1625
342.4006	0.1666
342.6102	0.154
342.8199	0.1642
343.0295	0.1556
343.2391	0.1633
343.4487	0.1632
343.6583	0.1689
343.8679	0.1566
344.0774	0.1616
344.287	0.1599
344.4965	0.165
344.706	0.1701
344.9155	0.1639
345.125	0.1617
345.3345	0.1745
345.544	0.1726
345.7534	0.1691
345.9629	0.1729
346.1723	0.1708
346.3817	0.1725
346.5911	0.1755
346.8005	0.1837
347.0099	0.1731
347.2193	0.1824
347.4286	0.1813
347.638	0.1803
347.8473	0.1849
348.0566	0.1816
348.2659	0.1803
348.4752	0.18
348.6845	0.1821
348.8937	0.183
349.103	0.176
349.3122	0.1785
349.5214	0.1824
349.7306	0.1883
349.9398	0.1888
350.149	0.1825
350.3582	0.186
350.5674	0.1888
350.7765	0.1804
350.9856	0.1758
351.1948	0.1869
351.4039	0.1878
351.613	0.1849
351.822	0.1915
352.0311	0.182
352.2402	0.1923
352.4492	0.1835
352.6582	0.1847
352.8672	0.1884
353.0762	0.1889
353.2852	0.1939
353.4942	0.1853
353.7032	0.1896
353.9121	0.1783
354.1211	0.1869
354.33	0.1918
354.5389	0.1826
354.7478	0.1929
354.9567	0.1899
355.1655	0.1903
355.3744	0.1887
355.5833	0.1815
355.7921	0.1926
356.0009	0.1936
356.2097	0.1854
356.4185	0.1821
356.6273	0.1939
356.8361	0.194
357.0448	0.1923
357.2536	0.1936
357.4623	0.1929
357.671	0.198
357.8797	0.1936
358.0884	0.1903
358.2971	0.1942
358.5057	0.1953
358.7144	0.2024
358.923	0.1998
359.1316	0.2041
359.3402	0.1972
359.5488	0.1986
359.7574	0.2044
359.966	0.2006
360.1746	0.1994
360.3831	0.2068
360.5916	0.1989
360.8002	0.2119
361.0087	0.1941
361.2172	0.2089
361.4256	0.209
361.6341	0.2045
361.8426	0.2128
362.051	0.2111
362.2594	0.2063
362.4678	0.2098
362.6762	0.2119
362.8846	0.2123
363.093	0.2159
363.3014	0.2168
363.5097	0.2202
363.718	0.2192
363.9264	0.2138
364.1347	0.2116
364.343	0.2169
364.5513	0.2147
364.7595	0.2223
364.9678	0.2115
365.176	0.2203
365.3842	0.2263
365.5925	0.2118
365.8007	0.2272
366.0089	0.2327
366.217	0.2281
366.4252	0.2204
366.6333	0.2307
366.8415	0.2339
367.0496	0.2268
367.2577	0.2332
367.4658	0.2261
367.6739	0.2266
367.882	0.2383
368.09	0.2279
368.2981	0.2401
368.5061	0.2373
368.7141	0.24
368.9221	0.246
369.1301	0.2324
369.3381	0.2485
369.5461	0.2443
369.754	0.2341
369.962	0.2383
370.1699	0.242
370.3778	0.244
370.5857	0.2387
370.7936	0.24
371.0015	0.2356
371.2093	0.2388
371.4172	0.2523
371.625	0.2421
371.8328	0.2402
372.0406	0.2491
372.2484	0.2438
372.4562	0.2538
372.664	0.2547
372.8717	0.2489
373.0795	0.2565
373.2872	0.2539
373.4949	0.2547
373.7026	0.2436
373.9103	0.2463
374.118	0.2581
374.3256	0.2672
374.5333	0.2488
374.7409	0.2546
374.9485	0.258
375.1561	0.2583
375.3637	0.2558
375.5713	0.2545
375.7789	0.2674
375.9864	0.2536
376.194	0.2635
376.4015	0.2575
376.609	0.2543
376.8165	0.2606
377.024	0.2591
377.2315	0.268
377.4389	0.2584
377.6464	0.2674
377.8538	0.2593
378.0612	0.2634
378.2686	0.2696
378.476	0.2722
378.6834	0.2665
378.8908	0.2725
379.0981	0.2706
379.3055	0.2699
379.5128	0.266
379.7201	0.2673
379.9274	0.2751
380.1347	0.2724
380.342	0.275
380.5492	0.273
380.7565	0.2651
380.9637	0.2761
381.1709	0.2663
381.3781	0.2761
381.5853	0.2749
381.7925	0.2714
381.9997	0.2854
382.2068	0.2787
382.4139	0.2729
382.6211	0.2752
382.8282	0.2856
383.0353	0.2879
383.2424	0.2777
383.4494	0.2784
383.6565	0.2778
383.8635	0.2765
384.0706	0.2808
384.2776	0.2819
384.4846	0.2905
384.6916	0.2775
384.8986	0.2852
385.1055	0.293
385.3125	0.2874
385.5194	0.2862
385.7263	0.291
385.9333	0.2906
386.1402	0.2845
386.347	0.2779
386.5539	0.2861
386.7608	0.2803
386.9676	0.2836
387.1744	0.2804
387.3813	0.29
387.5881	0.2798
387.7948	0.2884
388.0016	0.2902
388.2084	0.2809
388.4151	0.2844
388.6219	0.2811
388.8286	0.2851
389.0353	0.286
389.242	0.2784
389.4487	0.2805
389.6553	0.2705
389.862	0.273
390.0686	0.2781
390.2753	0.2716
390.4819	0.2742
390.6885	0.2815
390.8951	0.2807
391.1016	0.2729
391.3082	0.2702
391.5147	0.27
391.7213	0.2703
391.9278	0.2725
392.1343	0.273
392.3408	0.281
392.5473	0.263
392.7537	0.2659
392.9602	0.2636
393.1666	0.259
393.373	0.2592
393.5794	0.257
393.7858	0.266
393.9922	0.2565
394.1986	0.2542
394.4049	0.2524
394.6113	0.26
394.8176	0.2561
395.0239	0.2545
395.2302	0.251
395.4365	0.254
395.6428	0.2518
395.8491	0.2494
396.0553	0.2486
396.2615	0.252
396.4678	0.26
396.674	0.243
396.8802	0.242
397.0863	0.2407
397.2925	0.2483
397.4987	0.2424
397.7048	0.2493
397.9109	0.2443
398.117	0.2475
398.3231	0.2467
398.5292	0.2313
398.7353	0.2414
398.9413	0.2352
399.1474	0.2312
399.3534	0.2438
399.5594	0.2484
399.7654	0.2386
399.9714	0.2476
400.1774	0.2478
400.3833	0.247
400.5893	0.241
400.7952	0.2481
401.0011	0.2368
401.207	0.2373
401.4129	0.2398
401.6188	0.2362
401.8247	0.2451
402.0305	0.2347
402.2364	0.2444
402.4422	0.2472
402.648	0.243
402.8538	0.2447
403.0596	0.2377
403.2654	0.24
403.4711	0.2431
403.6768	0.2377
403.8826	0.2466
404.0883	0.2307
404.294	0.2427
404.4997	0.2433
404.7054	0.2425
404.911	0.2424
405.1167	0.2422
405.3223	0.2363
405.5279	0.2353
405.7335	0.2387
405.9391	0.2326
406.1447	0.2394
406.3502	0.2324
406.5558	0.2349
406.7613	0.2391
406.9668	0.2386
407.1724	0.2328
407.3778	0.2389
407.5833	0.2314
407.7888	0.2395
407.9942	0.245
408.1997	0.2393
408.4051	0.2402
408.6105	0.2431
408.8159	0.2371
409.0213	0.2347
409.2267	0.2332
409.432	0.2424
409.6374	0.2464
409.8427	0.2419
410.048	0.2395
410.2533	0.2438
410.4586	0.2293
410.6639	0.2403
410.8691	0.2306
411.0744	0.2384
411.2796	0.2361
411.4848	0.2323
411.69	0.2356
411.8952	0.2311
412.1004	0.235
412.3056	0.2428
412.5107	0.2378
412.7158	0.2402
412.921	0.2447
413.1261	0.2454
413.3312	0.2323
413.5362	0.2414
413.7413	0.2363
413.9464	0.2304
414.1514	0.2311
414.3564	0.2279
414.5614	0.2326
414.7664	0.2278
414.9714	0.2322
415.1764	0.2357
415.3813	0.2312
415.5863	0.2307
415.7912	0.2318
415.9961	0.2375
416.201	0.2376
416.4059	0.233
416.6108	0.2337
416.8156	0.2304
417.0205	0.2279
417.2253	0.2253
417.4301	0.2457
417.6349	0.2353
417.8397	0.2273
418.0445	0.2172
418.2492	0.223
418.454	0.2205
418.6587	0.2246
418.8634	0.2209
419.0681	0.2259
419.2728	0.2291
419.4775	0.2295
419.6822	0.2216
419.8868	0.2155
420.0915	0.2227
420.2961	0.2043
420.5007	0.2203
420.7053	0.2163
420.9099	0.2235
421.1144	0.2168
421.319	0.2153
421.5235	0.2117
421.728	0.2186
421.9325	0.2237
422.137	0.215
422.3415	0.2099
422.546	0.2095
422.7504	0.216
422.9549	0.2194
423.1593	0.2054
423.3637	0.2167
423.5681	0.2151
423.7725	0.2063
423.9769	0.2117
424.1812	0.2076
424.3856	0.2044
424.5899	0.1993
424.7942	0.2064
424.9985	0.1983
425.2028	0.2137
425.4071	0.2074
425.6113	0.2
425.8156	0.2008
426.0198	0.2041
426.224	0.2114
426.4282	0.1877
426.6324	0.1887
426.8366	0.1903
427.0407	0.1941
427.2449	0.1995
427.449	0.1942
427.6531	0.2085
427.8572	0.2008
428.0613	0.1981
428.2654	0.1967
428.4694	0.1755
428.6735	0.1837
428.8775	0.1801
429.0815	0.1757
429.2855	0.1858
429.4895	0.1819
429.6935	0.1754
429.8975	0.1784
430.1014	0.1719
430.3053	0.1777
430.5093	0.1765
430.7132	0.1681
430.9171	0.1726
431.1209	0.1765
431.3248	0.1678
431.5286	0.1668
431.7325	0.1765
431.9363	0.1563
432.1401	0.167
432.3439	0.1749
432.5477	0.16
432.7514	0.166
432.9552	0.159
433.1589	0.1521
433.3627	0.1582
433.5664	0.1475
433.7701	0.1446
433.9737	0.158
434.1774	0.1527
434.3811	0.1452
434.5847	0.1473
434.7883	0.1405
434.9919	0.1422
435.1955	0.1412
435.3991	0.1348
435.6027	0.136
435.8062	0.1505
436.0098	0.1298
436.2133	0.136
436.4168	0.1316
436.6203	0.1294
436.8238	0.1327
437.0272	0.1371
437.2307	0.1234
437.4341	0.1248
437.6375	0.1233
437.841	0.1166
438.0443	0.1211
438.2477	0.111
438.4511	0.1071
438.6545	0.1164
438.8578	0.1166
439.0611	0.1186
439.2644	0.1169
439.4677	0.1121
439.671	0.1123
439.8743	0.1071
440.0775	0.1013
440.2808	0.1015
440.484	0.1054
440.6872	0.0991
440.8904	0.0895
441.0936	0.1045
441.2967	0.0877
441.4999	0.0925
441.703	0.0917
441.9062	0.0934
442.1093	0.1143
442.3124	0.0911
442.5155	0.0949
442.7185	0.0815
442.9216	0.083
443.1246	0.0841
443.3276	0.0837
443.5307	0.0815
443.7337	0.0893
443.9366	0.0778
444.1396	0.0752
444.3426	0.083
444.5455	0.081
444.7484	0.0678
444.9513	0.0709
445.1542	0.0801
445.3571	0.0731
445.56	0.0662
445.7628	0.0648
445.9657	0.0704
446.1685	0.0718
446.3713	0.0705
446.5741	0.0698
446.7769	0.0626
446.9797	0.0655
447.1824	0.0626
447.3852	0.0513
447.5879	0.0572
447.7906	0.0494
447.9933	0.0603
448.196	0.0589
448.3986	0.0554
448.6013	0.0452
448.8039	0.06
449.0066	0.0633
449.2092	0.0556
449.4118	0.0518
449.6143	0.0567
449.8169	0.0527
450.0195	0.0483
450.222	0.0537
450.4245	0.0507
450.627	0.0502
450.8295	0.0413
451.032	0.0396
451.2345	0.0433
451.4369	0.0445
451.6394	0.0513
451.8418	0.0436
452.0442	0.0461
452.2466	0.0366
452.449	0.041
452.6513	0.0407
452.8537	0.0335
453.056	0.0364
453.2583	0.0312
453.4607	0.0253
453.663	0.0358
453.8652	0.0211
454.0675	0.0424
454.2697	0.0347
454.472	0.0283
454.6742	0.0267
454.8764	0.0299
455.0786	0.0331
455.2808	0.0262
455.4829	0.035
455.6851	0.0342
455.8872	0.0198
456.0893	0.0262
456.2915	0.0222
456.4935	0.031
456.6956	0.0289
456.8977	0.0206
457.0997	0.0414
457.3018	0.0203
457.5038	0.03
457.7058	0.0333
457.9078	0.0185
458.1098	0.0277
458.3117	0.0286
458.5137	0.0099
458.7156	0.0305
458.9175	0.0254
459.1194	0.0178
459.3213	0.0217
459.5232	0.0265
459.725	0.0281
459.9269	0.0182
460.1287	0.0254
460.3305	0.0224
460.5323	0.0237
460.7341	0.0238
460.9359	0.0093
461.1376	0.0206
461.3394	0.019
461.5411	0.0246
461.7428	0.0202
461.9445	0.0129
462.1462	0.0174
462.3479	0.0081
462.5495	0.0209
462.7512	0.0366
462.9528	0.0233
463.1544	0.007
463.356	0.0137
463.5576	0.0228
463.7592	0.0226
463.9607	0.0072
464.1623	0.0098
464.3638	0.0153
464.5653	0.021
464.7668	0.0138
464.9683	0.0172
465.1697	0.0136
465.3712	0.0086
465.5726	0.0064
465.7741	0.0247
465.9755	0.0158
466.1769	0.0129
466.3782	0.0152
466.5796	0.0118
466.7809	0.0076
466.9823	0.0072
467.1836	0.0094
467.3849	0.0019
467.5862	0.0052
467.7875	0.005
467.9887	0.0114
468.19	0.0033
468.3912	0.0192
468.5924	0.0063
468.7936	0.0118
468.9948	0.005
469.196	0.0113
469.3972	0.0051
469.5983	0.0155
469.7994	0.005
470.0006	0.0034
470.2017	0.0179
470.4027	0.0222
470.6038	0.0091
470.8049	0.0114
471.0059	0.0122
471.2069	0.0092
471.408	0.0147
471.6089	0.0102
471.8099	0.0109
472.0109	0.0047
472.2119	0.011
472.4128	0.0047
472.6137	0.0108
472.8146	0.0044
473.0155	0.0089
473.2164	0.0101
473.4173	0.0001
473.6181	-0.0021
473.819	0.0106
474.0198	-0.0049
474.2206	-0.0111
474.4214	0.0173
474.6222	0.0021
474.8229	0.0013
475.0237	0.0215
475.2244	0.0141
475.4251	0.0056
475.6258	-0.0019
475.8265	0.0052
476.0272	-0.0008
476.2278	0.0085
476.4285	0.0067
476.6291	0.0118
476.8297	0.0135
477.0303	-0.0002
477.2309	0.0078
477.4315	0.005
477.632	0.0049
477.8326	0.0042
478.0331	0.0126
478.2336	0.008
478.4341	0.0041
478.6346	-0.0002
478.8351	-0.0033
479.0355	0.0043
479.236	0.0138
479.4364	-0.0007
479.6368	0.0058
479.8372	0.0033
480.0376	0.0004
480.2379	0.0042
480.4383	0.0089
480.6386	-0.0013
480.8389	0.0091
481.0392	-0.0023
481.2395	0.0138
481.4398	0.0071
481.6401	0.0116
481.8403	0.0088
482.0405	0.0035
482.2408	0.004
482.441	0.0088
482.6411	0.0023
482.8413	-0.0024
483.0415	0.009
483.2416	0.0054
483.4417	0.0026
483.6419	-0.0043
483.8419	-0.0007
484.042	0.004
484.2421	-0.0053
484.4422	0.0024
484.6422	0.0057
484.8422	0.0073
485.0422	0.005
485.2422	0.0059
485.4422	0.0065
485.6422	0.0038
485.8421	0.0035
486.042	0.0126
486.242	0
486.4419	0.0065
486.6417	0.0031
486.8416	0.0088
487.0415	0.0012
487.2413	-0.0007
487.4411	0.0076
487.641	0.0044
487.8408	0.011
488.0405	0.0095
488.2403	-0.0026
488.4401	-0.0033
488.6398	0.0093
488.8395	0.0055
489.0392	0.0061
489.2389	0.0078
489.4386	-0.0107
489.6383	0.0011
489.8379	-0.0033
490.0376	-0.0005
490.2372	-0.0023
490.4368	-0.0061
490.6364	-0.004
490.836	0.0012
491.0355	-0.0047
491.2351	0.0027
491.4346	0.0001
491.6341	-0.0037
491.8336	0.0033
492.0331	0.0022
492.2326	0.0028
492.432	-0.0013
492.6315	0.004
492.8309	-0.0034
493.0303	-0.002
493.2297	0.0058
493.4291	-0.0013
493.6284	0.0074
493.8278	-0.0015
494.0271	0.0022
494.2264	0.0028
494.4257	0.0109
494.625	0.0036
494.8243	-0.0034
495.0236	0.0007
495.2228	0.0028
495.422	0.0048
495.6213	-0.0014
495.8205	0.0037
496.0196	0.0018
496.2188	0.0002
496.418	-0.0024
496.6171	-0.0018
496.8162	-0.0049
497.0153	0.0046
497.2144	-0.003
497.4135	-0.0002
497.6126	-0.0031
497.8116	-0.0028
498.0107	0.0032
498.2097	0.0033
498.4087	-0.0067
498.6077	-0.0049
498.8067	-0.0002
499.0056	0.0005
499.2046	0.0085
499.4035	0.0001
499.6024	0.0013
499.8013	0.0055
500.0002	-0.0059
500.199	0.0061
500.3979	-0.0027
500.5967	0.0024
500.7956	0.0097
500.9944	-0.0089
501.1932	0.0134
501.3919	0.0027
501.5907	0.0028
501.7895	-0.0046
501.9882	0.006
502.1869	0.0021
502.3856	0.0025
502.5843	0.0007
502.783	-0.006
502.9816	0.0071
503.1803	0.0017
503.3789	0.006
503.5775	-0.0023
503.7761	-0.0044
503.9747	0.0072
504.1732	-0.0095
504.3718	0.0103
504.5703	0.0003
504.7689	-0.0029
504.9674	0.006
505.1658	-0.0015
505.3643	0.0009
505.5628	0.0015
505.7612	0.0071
505.9597	-0.003
506.1581	-0.0059
506.3565	0.0029
506.5549	-0.0036
506.7532	-0.0057
506.9516	0.0022
507.1499	-0.0023
507.3482	0.0042
507.5465	0.0049
507.7448	-0.0011
507.9431	0.0086
508.1414	-0.0105
508.3396	0.005
508.5379	-0.0099
508.7361	0.004
508.9343	0.0002
509.1325	0.0026
509.3306	0.0014
509.5288	-0.0069
509.7269	0.004
509.9251	0.0042
510.1232	0.002
510.3213	-0.0005
510.5193	-0.005
510.7174	-0.0032
510.9154	0.0023
511.1135	-0.0068
511.3115	-0.0039
511.5095	-0.0071
511.7075	-0.0042
511.9055	-0.0004
512.1034	-0.0022
512.3014	-0.0068
512.4993	-0.0015
512.6972	-0.0008
512.8951	-0.0052
513.093	0.0019
513.2908	0.0045
513.4887	0.0013
513.6865	-0.0011
513.8844	0.0056
514.0822	0.0007
514.2799	-0.0106
514.4777	-0.0067
514.6755	-0.0099
514.8732	-0.0066
515.0709	-0.0023
515.2687	-0.0078
515.4664	0.0089
515.664	-0.0048
515.8617	0.0011
516.0594	-0.0023
516.257	-0.009
516.4546	0.0143
516.6522	-0.0073
516.8498	-0.003
517.0474	-0.0055
517.2449	-0.0082
517.4425	-0.0053
517.64	0.004
517.8375	-0.0066
518.035	-0.0169
518.2325	-0.0116
518.43	-0.0078
518.6274	-0.0019
518.8249	-0.0099
519.0223	0.0017
519.2197	-0.0037
519.4171	-0.0081
519.6145	0.008
519.8118	-0.0182
520.0092	-0.0074
520.2065	0.0089
520.4038	0.0044
520.6011	0.0025
520.7984	-0.0038
520.9956	-0.0019
521.1929	0.0041
521.3901	0.0029
521.5874	0.0071
521.7846	-0.0084
521.9818	-0.0034
522.1789	-0.008
522.3761	0.0064
522.5732	-0.0059
522.7704	-0.0077
522.9675	-0.0129
523.1646	-0.012
523.3617	0.0059
523.5587	0.0011
523.7558	0.0041
523.9528	0.0026
524.1498	-0.0083
524.3468	-0.0091
524.5438	0.0099
524.7408	-0.0087
524.9378	0.007
525.1347	0.0048
525.3316	-0.0119
525.5285	-0.0054
525.7254	0.0057
525.9223	0.0115
526.1192	0.0024
526.316	0.011
526.5129	0.0044
526.7097	-0.0051
526.9065	-0.0027
527.1033	-0.0038
527.3	-0.0018
527.4968	0.0039
527.6935	-0.0103
527.8903	-0.0022
528.087	-0.0087
528.2837	0.0044
528.4804	-0.008
528.677	0.0013
528.8737	-0.0015
529.0703	0.0003
529.2669	0.0028
529.4635	-0.0063
529.6601	-0.0056
529.8567	-0.0098
530.0532	-0.0033
530.2498	-0.001
530.4463	-0.0215
530.6428	-0.0013
530.8393	0.0131
531.0358	-0.0096
531.2322	-0.0085
531.4287	-0.0101
531.6251	-0.0194
531.8215	-0.0056
532.0179	0.0053
532.2143	-0.0019
532.4107	-0.0027
532.607	-0.0103
532.8034	-0.0114
532.9997	-0.0098
533.196	-0.0045
533.3923	0.0093
533.5886	0.0071
533.7848	-0.0042
533.9811	0.0006
534.1773	0.0084
534.3735	0.0044
534.5697	0.001
534.7659	0.0023
534.9621	-0.0004
535.1582	0.001
535.3544	0.0072
535.5505	0.0083
535.7466	-0.0035
535.9427	-0.0045
536.1387	-0.0074
536.3348	0.0058
536.5308	-0.0086
536.7269	-0.0011
536.9229	-0.0072
537.1189	0.0089
537.3148	-0.0033
537.5108	0.0106
537.7068	0.0072
537.9027	-0.0124
538.0986	0.0002
538.2945	-0.0066
538.4904	-0.0052
538.6863	-0.0033
538.8821	0.0104
539.078	0.0014
539.2738	-0.0037
539.4696	-0.0061
539.6654	0.0008
539.8611	0.0014
540.0569	0.0046
540.2526	0.0121
540.4484	-0.0095
540.6441	-0.002
540.8398	0.0031
541.0355	-0.0099
541.2311	-0.0008
541.4268	0.0139
541.6224	0.006
541.818	-0.0021
542.0136	0.0143
542.2092	0.0077
542.4048	-0.0009
542.6003	0.0021
542.7959	-0.0064
542.9914	0.0042
543.1869	0.0011
543.3824	0.0095
543.5779	0.0142
543.7734	0.0047
543.9688	0.008
544.1642	-0.0052
544.3596	0.0098
544.555	0.0044
544.7504	0.0076
544.9458	-0.0007
545.1411	-0.0005
545.3365	0.0045
545.5318	-0.0043
545.7271	0.0091
545.9224	-0.0085
546.1177	0.0002
546.3129	-0.0055
546.5081	-0.0001
546.7034	0.0077
546.8986	-0.0009
547.0938	0.0088
547.289	0.0034
547.4841	0.0101
547.6793	0.004
547.8744	0.0016
548.0695	-0.0042
548.2646	0.0087
548.4597	-0.0064
548.6548	0.0113
548.8498	0.0016
549.0448	0.0032
549.2399	0.0143
549.4349	0.0062
549.6298	0.015
549.8248	-0.0016
550.0198	0.0115
550.2147	-0.0006
550.4096	-0.0089
550.6045	-0.0022
550.7994	-0.0036
550.9943	0.002
551.1892	-0.0207
551.384	0.012
551.5788	0.0043
551.7737	0.0047
551.9685	0.0025
552.1632	-0.0083
552.358	0.0059
552.5528	0.0184
552.7475	0.0095
552.9422	0.0036
553.1369	0.0069
553.3316	-0.0009
553.5263	0.0065
553.7209	-0.0034
553.9156	0.0071
554.1102	0.0032
554.3048	-0.0102
554.4994	0.0001
554.694	0.002
554.8885	0.0095
555.0831	0.0109
555.2776	0.0053
555.4721	0.0016
555.6666	0
555.8611	-0.0005
556.0555	-0.0025
556.25	0.0132
556.4444	0.0009
556.6388	-0.0037
556.8332	0.007
557.0276	0.0094
557.222	-0.0023
557.4163	0.002
557.6107	-0.0052
557.805	-0.0145
557.9993	0.0092
558.1936	0.0004
558.3879	-0.0019
558.5821	0.0041
558.7764	-0.0107
558.9706	-0.0024
559.1648	0.0027
559.359	-0.008
559.5532	-0.0073
559.7473	-0.0048
559.9415	-0.0026
560.1356	0.0165
560.3297	-0.0034
560.5238	0.0041
560.7179	0.0041
560.9119	0.0106
561.106	-0.0047
561.3	0.0019
561.494	-0.0124
561.688	-0.003
561.882	-0.0037
562.076	-0.0008
562.2699	-0.0007
562.4639	0.0137
562.6578	0.0157
562.8517	-0.0071
563.0456	-0
563.2395	0.0055
563.4333	0.0075
563.6272	0.0043
563.821	-0.0022
564.0148	0.0053
564.2086	-0.0012
564.4024	0.0155
564.5961	0.0003
564.7899	0.0093
564.9836	0.0029
565.1773	0.0099
565.371	-0.0013
565.5647	0.0088
565.7584	0.0134
565.952	0.0066
566.1456	-0.002
566.3393	0.0074
566.5329	0.0049
566.7264	0.0019
566.92	0.0062
567.1136	-0.0008
567.3071	-0.0012
567.5006	0.0136
567.6941	0.0036
567.8876	0.0022
568.0811	0.0165
568.2745	0.0005
568.468	0.0033
568.6614	0.0046
568.8548	0.0075
569.0482	0.0037
569.2416	0.0096
569.4349	0.0017
569.6283	0.0022
569.8216	0.0057
570.0149	0.0016
570.2082	0.0141
570.4015	0.0034
570.5947	0.007
570.788	0.0101
570.9812	0.0057
571.1744	0.0023
571.3676	0.007
571.5608	0.0061
571.754	0.0141
571.9471	0.0106
572.1402	0.009
572.3333	0.0072
572.5264	0.0067
572.7195	0.0053
572.9126	0.0083
573.1057	0.0072
573.2987	0.0053
573.4917	0.005
573.6847	0.0075
573.8777	0.0106
574.0707	0.0072
574.2636	0.0105
574.4566	0.0025
574.6495	0.0032
574.8424	0.0089
575.0353	0.0085
575.2281	0.0082
575.421	0.0021
575.6138	0.0059
575.8067	0.0067
575.9995	0.0066
576.1923	0.0044
576.385	0.011
576.5778	0.0085
576.7706	0.0081
576.9633	0.0093
577.156	0.003
577.3487	0.0083
577.5414	0.0047
577.734	0.0076
577.9267	0.0085
578.1193	0.0121
578.3119	0.003
578.5045	0.0062
578.6971	0.0059
578.8897	0.0045
579.0822	0.0123
579.2747	0.0055
579.4673	0.0079
579.6598	0.0085
579.8522	0.0084
580.0447	0.0131
580.2372	0.0105
580.4296	0.0131
580.622	0.0026
580.8144	0.0085
581.0068	0.0042
581.1992	0.0061
581.3915	0.0005
581.5839	0.0073
581.7762	0.0061
581.9685	0.0076
582.1608	0.0054
582.353	0.009
582.5453	0.0088
582.7375	0.0076
582.9298	0.0045
583.122	0.0072
583.3142	0.0091
583.5063	0.0062
583.6985	0.0055
583.8906	0.0093
584.0827	0.0098
584.2749	0.0023
584.4669	0.0097
584.659	0.0102
584.8511	0.0099
585.0431	0.0093
585.2352	0.0085
585.4272	0.0084
585.6192	0.0047
585.8111	0.0073
586.0031	0.0056
586.195	0.005
586.387	0.0038
586.5789	0.0088
586.7708	0.0125
586.9627	0.0103
587.1545	0.0131
587.3464	0.0063
587.5382	0.003
587.73	0.0116
587.9218	0.0063
588.1136	0.0081
588.3053	0.0103
588.4971	0.0021
588.6888	0.0012
588.8805	0.0094
589.0722	0.0157
589.2639	0.0034
589.4556	0.0117
589.6472	0.0128
589.8389	0.0068
590.0305	0.0096
590.2221	0.0084
590.4137	0.001
590.6052	0.0047
590.7968	0.009
590.9883	0.0077
591.1798	0.0013
591.3713	0.0018
591.5628	0.003
591.7543	0.0062
591.9458	0.0035
592.1372	0.0114
592.3286	0.0037
592.52	0.0084
592.7114	0.0075
592.9028	0.0144
593.0941	0.0061
593.2855	0.007
593.4768	0.0112
593.6681	0.0148
593.8594	0.0163
594.0506	0.0048
594.2419	0.0077
594.4331	0.0077
594.6244	0.0082
594.8156	0.0004
595.0067	0.002
595.1979	0.0044
595.3891	0.0063
595.5802	0.014
595.7713	0.0092
595.9624	0.0094
596.1535	0.0072
596.3446	0.0022
596.5357	0.0075
596.7267	0.001
596.9177	0.0044
597.1087	0.0039
597.2997	0.0098
597.4907	0.0015
597.6817	0.006
597.8726	0.0057
598.0635	0.005
598.2544	0.0173
598.4453	0.0097
598.6362	0.005
598.827	0.0093
599.0179	0.0138
599.2087	0.0099
599.3995	0.0092
599.5903	0.008
599.7811	0.0126
599.9718	0.0053
600.1626	0.005
600.3533	0.0064
600.544	0.0026
600.7347	0.009
600.9254	0.0144
601.116	0.0074
601.3067	0.0059
601.4973	0.0051
601.6879	0.0049
601.8785	0.0126
602.0691	0.0037
602.2596	0.0101
602.4502	0.0072
602.6407	0.0128
602.8312	0.0056
603.0217	0.0069
603.2122	0.0077
603.4027	0.006
603.5931	0.0053
603.7835	0.004
603.9739	0.0032
604.1643	0.0114
604.3547	0.007
604.5451	0.0086
604.7354	0.0028
604.9257	0.0042
605.116	0.0049
605.3063	0.0073
605.4966	0.0021
605.6869	0.0136
605.8771	0.0049
606.0673	0.0049
606.2575	0.0083
606.4477	0.0127
606.6379	0.0021
606.8281	0.0013
607.0182	0.0043
607.2083	0.0025
607.3985	0.0138
607.5885	0.0094
607.7786	0.0103
607.9687	0.0087
608.1587	0.0076
608.3488	0.0078
608.5388	-0.0032
608.7288	0.0007
608.9187	0.0082
609.1087	0.0071
609.2986	0.0098
609.4886	0.004
609.6785	0.0069
609.8684	0.0019
610.0582	0.0037
610.2481	0.0015
610.4379	0.0081
610.6278	0.0058
610.8176	0.015
611.0074	0.0123
611.1971	0.0057
611.3869	0.0144
611.5766	-0.0062
611.7664	0.016
611.9561	0.0079
612.1458	0.0082
612.3354	0.0002
612.5251	0.0022
612.7147	0.0107
612.9044	0.0066
613.094	0.0088
613.2836	0.0088
613.4731	0.0007
613.6627	0.0044
613.8522	0.015
614.0417	0.0056
614.2313	0.0068
614.4207	0.0094
614.6102	0.0105
614.7997	0.0122
614.9891	0.0085
615.1785	0.0072
615.3679	0.0119
615.5573	0.0111
615.7467	0.0035
615.9361	0.0099
616.1254	0.0126
616.3147	0.0096
616.504	0.0108
616.6933	0.01
616.8826	-0.001
617.0718	0.0076
617.2611	-0.0003
617.4503	0.0051
617.6395	0.0031
617.8287	0.0047
618.0179	0.0092
618.207	0.0137
618.3961	0.0037
618.5853	0.0006
618.7744	0.0088
618.9634	0.0066
619.1525	-0.0012
619.3416	-0.0028
619.5306	0.0076
619.7196	0.0035
619.9086	0.007
620.0976	-0.003
620.2866	0.016
620.4755	0.0008
620.6645	0.016
620.8534	0.0106
621.0423	0.0033
621.2312	0.0053
621.42	0.0108
621.6089	0.0057
621.7977	0.0141
621.9865	0.0073
622.1753	0.0042
622.3641	-0.0011
622.5529	-0.0097
622.7416	0.0095
622.9303	0.0036
623.1191	0.0033
623.3078	0.0079
623.4964	0.0062
623.6851	0.0086
623.8737	0.0029
624.0624	-0.0017
624.251	0.0027
624.4396	0.0107
624.6282	0.0253
624.8167	0.0098
625.0053	0.0063
625.1938	0.0047
625.3823	0.0074
625.5708	-0.0019
625.7593	0.0028
625.9477	0.0254
626.1362	-0.0012
626.3246	0.0086
626.513	0.0073
626.7014	0.0142
626.8898	0.0124
627.0781	0.0016
627.2665	0.0149
627.4548	-0.0048
627.6431	0.0193
627.8314	0.0178
628.0197	0.0098
628.2079	-0.0062
628.3962	0.0047
628.5844	0.0026
628.7726	0.0133
628.9608	0.0071
629.1489	0.0108
629.3371	-0.0045
629.5252	-0.0018
629.7134	-0.0012
629.9015	0.0144
630.0895	-0.0082
630.2776	0.0031
630.4657	0.0136
630.6537	0.0047
630.8417	0.0019
631.0297	0.0028
631.2177	0.0067
631.4057	0.0086
631.5936	0.0017
631.7815	0.0086
631.9695	0.0252
632.1574	0.0238
632.3452	0.0043
632.5331	0.0074
632.7209	0.0108
632.9088	0.0108
633.0966	0.0215
633.2844	0.0021
633.4722	0.0187
633.6599	0.0209
633.8477	0.0147
634.0354	0.0294
634.2231	0.0004
634.4108	0.0027
634.5985	0.0108
634.7861	0.0025
634.9738	-0.0148
635.1614	0.008
635.349	-0.0056
635.5366	0.0237
635.7242	-0.002
635.9117	0.0116
636.0993	0.012
636.2868	0.006
636.4743	0.006
636.6618	-0.0095
636.8492	0.0071
637.0367	0.0049
637.2241	0.0027
637.4115	0.0184
637.5989	0.0076
637.7863	0.0222
637.9737	0.0142
638.161	0.0038
638.3484	-0.0036
638.5357	-0.0032
638.723	0.0272
638.9103	-0.0078
639.0975	0.0049
639.2848	0.0049
639.472	0.0139
639.6592	-0.0297
639.8464	0.02
640.0336	0.0068
640.2208	0.0082
640.4079	0.0034
640.595	-0.014
640.7821	0.0098
640.9692	0.0082
641.1563	0.0119
641.3434	0.0227
641.5304	0.0044
641.7174	0.0017
641.9044	0.0202
642.0914	0.0319
642.2784	0.0025
642.4653	0.001
642.6523	0.0012
642.8392	-0.0102
643.0261	0.0157
643.213	-0.0034
643.3999	0.0082
643.5867	0.0249
643.7735	-0.0009
643.9604	0.0242
644.1472	0.0225
644.3339	-0.0008
644.5207	0.0136
644.7075	-0.0117
644.8942	0.0181
645.0809	0.0089
645.2676	-0.0117
645.4543	0.0133
645.6409	0.016
645.8276	0.0166
646.0142	-0.0116
646.2008	0.0042
646.3874	0.0004
646.574	0.0024
646.7605	0.001
646.9471	-0.0015
647.1336	-0.0125
647.3201	-0.0014
647.5066	0.0115
647.6931	-0.0042
647.8795	-0.0046
648.0659	-0.0126
648.2524	0.0182
648.4388	0.0127
648.6252	0.0176
648.8115	-0.0061
648.9979	-0.0023
649.1842	0.0118
649.3705	0.0169
649.5568	-0.0174
649.7431	-0.0027
649.9294	-0.0109
650.1156	-0.0224
650.3018	0.0111
650.488	0.0145
650.6742	0.0276
650.8604	0.0058
651.0466	-0.0067
651.2327	0.0129
651.4188	-0.011
651.6049	0.0112
651.791	0.0015
651.9771	0.0021
652.1632	-0.0052
652.3492	-0.0025
652.5352	0.0213
652.7212	0.0015
652.9072	0.0048
653.0932	0.0156
653.2791	0.0101
653.465	0.0051
653.651	0.0124
653.8369	0.0133
654.0227	-0.0058
654.2086	0.0061
654.3944	0.0031
654.5803	0.0078
654.7661	0.01
654.9519	0.0039
655.1377	-0.0001
655.3234	-0.0001
655.5092	-0.0001
655.6949	-0.0001
655.8806	-0.0001
656.0663	-0.0001
656.2519	-0.0001
656.4376	-0.0001
656.6232	-0.0001
656.8088	-0.0001
656.9945	-0.0001
657.18	-0.0001
657.3656	-0.0001
657.5511	-0.0001
657.7367	-0.0001
657.9222	-0.0001
658.1077	-0.0001
658.2932	-0.0001
658.4786	-0.0001
658.6641	-0.0001
658.8495	-0.0001
659.0349	-0.0001
659.2203	-0.0001
659.4057	0.0081
659.591	0.2716
659.7764	0.0315
659.9617	0.0194
660.147	0.0142
660.3323	-0.0011
660.5176	0.017
660.7028	-0.0093
660.888	-0.0053
661.0733	0.0054
661.2585	0.0083
661.4436	0.0067
661.6288	0.0252
661.8139	0.0168
661.9991	-0.0123
662.1842	-0.0129
662.3693	0.0069
662.5544	0.0104
662.7394	0.0113
662.9245	0.0143
663.1095	-0.0097
663.2945	-0.0013
663.4795	-0.0225
663.6644	-0.0155
663.8494	0.0009
664.0343	0.0189
664.2193	-0.0007
664.4042	-0.0138
664.589	0.006
664.7739	0.0083
664.9587	-0.0138
665.1436	-0.0119
665.3284	0.0036
665.5132	-0.009
665.698	0.0294
665.8827	0.0078
666.0675	-0.0271
666.2522	0.0333
666.4369	0.0246
666.6216	0.0053
666.8063	-0.0009
666.9909	0.0177
667.1756	-0.0035
667.3602	0.0021
667.5448	0.0294
667.7294	0.0085
667.9139	-0.0043
668.0985	0.021
668.283	-0.0295
668.4675	0.0152
668.652	0.0005
668.8365	0.0038
669.0209	0.0069
669.2054	0.02
669.3898	0.0014
669.5742	0.0282
669.7586	0.0083
669.943	0.0226
670.1273	-0.003
670.3117	0.0063
670.496	0.0175
670.6803	0.0129
670.8646	-0.0148
671.0488	0.0296
671.2331	0.0021
671.4173	0.0119
671.6015	0.002
671.7857	-0.0019
671.9699	0.0273
672.1541	0.0132
672.3382	0.0013
672.5223	0.0134
672.7064	0.0081
672.8905	-0.0123
673.0746	0.0029
673.2587	0.0285
673.4427	0.0143
673.6267	0.0127
673.8107	0.0185
673.9947	0.0062
674.1787	-0.0002
674.3626	0.0045
674.5465	0.0196
674.7304	-0.0037
674.9143	-0.0162
675.0982	0.0073
675.2821	0.0004
675.4659	-0.015
675.6497	0.032
675.8335	-0.0082
676.0173	-0.0223
676.2011	0.0297
676.3849	0.0169
676.5686	0.0234
676.7523	-0.0074
676.936	-0.0167
677.1197	-0.0147
677.3034	0.0396
677.487	-0.0015
677.6706	0.0182
677.8542	0.0122
678.0378	0.0165
678.2214	-0.0081
678.405	-0.0022
678.5885	0.0164
678.772	0.0005
678.9555	-0.0022
679.139	0.0036
679.3225	0.0143
679.5059	-0.0144
679.6894	0.0104
679.8728	-0.0132
680.0562	0.0126
680.2395	-0.0051
680.4229	0.0114
680.6062	0.0109
680.7896	-0.0086
680.9729	0.0216
681.1562	0.0001
681.3394	-0.0084
681.5227	0.0144
681.7059	-0.0004
681.8891	0.0287
682.0723	0.0225
682.2555	-0.0088
682.4387	0.0199
682.6218	-0.0027
682.805	0.0062
682.9881	0.0301
683.1712	0.0267
683.3542	0.0092
683.5373	-0.0034
683.7203	0.0023
683.9034	0.0052
684.0864	-0.0113
684.2694	0.0029
684.4523	0.0183
684.6353	-0.0005
684.8182	-0.0037
685.0011	0.0227
685.184	0.0106
685.3669	0.0153
685.5498	0.0012
685.7326	0.0079
685.9154	-0.0009
686.0982	0.0295
686.281	-0.0038
686.4638	0.0187
686.6465	-0.0085
686.8293	-0.0063
687.012	0.004
687.1947	0.0028
687.3774	-0.0078
687.56	-0.0095
687.7427	-0.0072
687.9253	-0.0145
688.1079	0.0145
688.2905	0.0071
688.4731	0.0254
688.6556	0.0103
688.8382	-0.0254
689.0207	0.0165
689.2032	0.0299
689.3857	0.0078
689.5681	-0.0183
689.7506	0.037
689.933	0.0004
690.1154	0.0058
690.2978	0.008
690.4802	0.0264
690.6626	-0.0141
690.8449	-0.0016
691.0272	0.0032
691.2095	-0.0278
691.3918	0.0154
691.5741	0.0101
691.7563	0.0183
691.9386	0.0178
692.1208	0.0078
692.303	-0.0069
692.4852	0.0044
692.6673	0.0131
692.8495	-0.0227
693.0316	0.0076
693.2137	0.0093
693.3958	0.0232
693.5778	0.0105
693.7599	-0.0106
693.9419	0.004
694.1239	-0.0056
694.3059	0.0092
694.4879	-0.0107
694.6699	0.013
694.8518	0.0252
695.0337	0.0142
695.2157	0.0273
695.3975	-0.0087
695.5794	0.0077
695.7613	0.0014
695.9431	-0.0126
696.1249	0.0167
696.3067	0.0088
696.4885	0.0302
696.6703	-0.0041
696.852	0.0111
697.0337	0.0142
697.2154	0.0181
697.3971	0.002
697.5788	0.0163
697.7605	-0.0056
697.9421	0.01
698.1237	0.0098
698.3053	-0.0119
698.4869	0.0222
698.6685	-0.0079
698.85	0.0034
699.0315	-0.0203
699.213	0.025
699.3945	0.0111
699.576	0.0333
699.7575	0.0079
699.9389	-0.0037
700.1203	-0.0002
700.3017	0.0101
700.4831	0.0225
700.6645	0.0265
700.8458	-0.0065
701.0271	0.029
701.2084	0.0072
701.3897	0.0043
701.571	-0.0241
701.7523	0.0096
701.9335	0.0217
702.1147	0.0081
702.2959	0.0023
702.4771	-0.0017
702.6583	0.003
702.8394	-0.0082
703.0205	0.0051
703.2016	0.0034
703.3827	-0.0002
703.5638	0.0324
703.7449	0.0369
703.9259	0.0071
704.1069	-0.0071
704.2879	0.0013
704.4689	0.0086
704.6499	-0.0034
704.8308	0.0044
705.0117	0.02
705.1927	0.0027
705.3735	0.0075
705.5544	0.0309
705.7353	-0.0065
705.9161	-0.0028
706.0969	0.0013
706.2777	0.0215
706.4585	-0.0011
706.6393	0.0194
706.82	0.0075
707.0007	0.0045
707.1815	-0.0156
707.3621	0.0305
707.5428	0.03
707.7235	0.0139
707.9041	0.0253
708.0847	0.0152
708.2653	0.0399
708.4459	0.0022
708.6265	-0.0108
708.807	-0.005
708.9875	0.0098
709.168	0.0109
709.3485	0.0172
709.529	-0.0037
709.7095	-0.0141
709.8899	0.0061
710.0703	0.03
710.2507	0.0244
710.4311	-0.0261
710.6115	0.0396
710.7918	0.0118
710.9721	0.0208
711.1524	0.0328
711.3327	-0.0034
711.513	0.0078
711.6932	-0.0086
711.8735	0.0014
712.0537	-0.0205
712.2339	0.0038
712.4141	0.0454
712.5942	0.0094
712.7744	-0.0067
712.9545	-0.0024
713.1346	0.0424
713.3147	0.0194
713.4947	-0.0015
713.6748	0.0078
713.8548	0.0092
714.0348	0.0377
714.2148	0.0071
714.3948	0.0056
714.5748	0.0314
714.7547	0.0168
714.9346	0.0063
715.1145	-0.0306
715.2944	-0.0046
715.4743	0.0259
715.6541	-0.0062
715.834	0.0247
716.0138	-0.0166
716.1936	0.0094
716.3733	0.0078
716.5531	-0.0198
716.7328	0.0112
716.9126	0.0022
717.0923	-0.0516
717.2719	-0.018
717.4516	0.0069
717.6312	-0.0077
717.8109	0.0289
717.9905	0.0172
718.1701	0.0147
718.3496	-0.0037
718.5292	-0.0139
718.7087	0.0115
718.8882	0.0121
719.0677	0.0027
719.2472	-0.0063
719.4267	-0.0021
719.6061	0.0141
719.7856	0.0429
719.965	0.0143
720.1443	-0.0171
720.3237	-0.0277
720.5031	-0.007
720.6824	0.0121
720.8617	0.0077
721.041	0.0148
721.2203	-0.0184
721.3995	0.0134
721.5788	-0.0202
721.758	-0.0201
721.9372	0.0091
722.1164	-0.0208
722.2956	-0.0107
722.4747	0.0077
722.6538	0.02
722.8329	0.0295
723.012	0.0292
723.1911	-0.0111
723.3702	0.0188
723.5492	0.0071
723.7282	-0.0175
723.9072	0.0229
724.0862	-0.0139
724.2652	0.0154
724.4441	-0.0051
724.623	-0.0207
724.8019	0.0081
724.9808	0.0095
725.1597	0.006
725.3385	0.0156
725.5174	-0.0009
725.6962	0.0356
725.875	0.0153
726.0538	-0.004
726.2325	0.0198
726.4112	-0.0116
726.59	-0.0033
726.7687	-0.02
726.9474	0.0286
727.126	0.0017
727.3047	0.0215
727.4833	0.0206
727.6619	-0.016
727.8405	0.0005
728.0191	0.0269
728.1976	0.0102
728.3762	0.0314
728.5547	-0.0204
728.7332	0.0213
728.9116	0.0053
729.0901	0.0094
729.2686	0.0039
729.447	-0.0046
729.6254	0.0142
729.8038	0.0087
729.9821	-0.0104
730.1605	0.0132
730.3388	0.0033
730.5171	0.0076
730.6954	-0.0061
730.8737	0.0115
731.0519	-0.0044
731.2302	0.0197
731.4084	-0.0026
731.5866	0.0098
731.7648	0.0157
731.9429	0.038
732.1211	0.0173
732.2992	-0.0028
732.4773	0.0064
732.6554	-0.013
732.8335	0.02
733.0115	0.0119
733.1896	-0.0091
733.3676	0.0264
733.5456	0.0079
733.7235	0.0041
733.9015	-0.0021
734.0794	-0.0058
734.2574	-0.0209
734.4353	0.0013
734.6131	0.006
734.791	-0.0055
734.9689	-0.0007
735.1467	-0.0004
735.3245	0.0204
735.5023	0.01
735.68	0.0023
735.8578	0.0165
736.0355	0.0041
736.2132	0.013
736.3909	0.0175
736.5686	0.0075
736.7463	-0.0041
736.9239	0.0197
737.1015	0.0022
737.2791	-0.0024
737.4567	0.0279
737.6343	0.0095
737.8118	0.0174
737.9894	-0.0044
738.1669	-0.0241
738.3444	0.0195
738.5218	-0.0159
738.6993	0.0188
738.8767	0.0089
739.0541	0.0061
739.2315	0.0052
739.4089	0.0338
739.5863	0.0179
739.7636	-0.0145
739.9409	0.0045
740.1182	-0.0063
740.2955	0.018
740.4728	-0.0156
740.65	-0.0373
740.8272	0.0297
741.0044	-0.0269
741.1816	-0.0039
741.3588	-0.0173
741.5359	0.0012
741.7131	0.0271
741.8902	-0.0092
742.0673	-0.0216
742.2444	0.0354
742.4214	0.0156
742.5985	0.0006
742.7755	-0.0024
742.9525	-0.0117
743.1295	-0.0142
743.3064	0.0002
743.4834	0.0174
743.6603	0.0325
743.8372	-0.0274
744.0141	0.0762
744.191	-0.004
744.3678	-0.0273
744.5446	0.0359
744.7215	-0.0025
744.8982	0.0034
745.075	0.0693
745.2518	0.0011
745.4285	0.0303
745.6052	-0.0171
745.7819	-0.0049
745.9586	0.0116
746.1353	-0.0392
746.3119	0.0304
746.4885	0.0209
746.6651	0.0054
746.8417	0.0019
747.0183	0.0319
747.1948	0.021
747.3714	0.0184
747.5479	0.0151
747.7244	0.0259
747.9008	0.0047
748.0773	0.0384
748.2537	-0.0009
748.4301	0.0377
748.6065	-0.0227
748.7829	-0.0405
748.9593	0.0048
749.1356	0.0074
749.3119	0.0359
749.4882	0.0243
749.6645	0.005
749.8408	0.0273
750.017	0.0207
750.1933	-0.0145
750.3695	0.0014
750.5457	-0.0032
750.7218	0.0069
750.898	-0.0032
751.0741	0.0059
751.2502	0.0187
751.4263	0.0205
751.6024	0.022
751.7784	-0.0194
751.9545	0.0117
752.1305	0.0159
752.3065	0.014
752.4825	-0.0117
752.6584	0.0037
752.8344	-0.0355
753.0103	-0.0027
753.1862	0.0036
753.3621	0.0011
753.5379	0.0042
753.7138	0.0087
753.8896	0.0112
754.0654	-0.0046
754.2412	0.0026
754.417	0.0211
754.5927	0.0189
754.7685	0.0114
754.9442	0.0159
755.1199	-0.0266
755.2956	-0.0034
755.4712	-0.0043
755.6469	0.0174
755.8225	0.0169
755.9981	0.0084
756.1736	0.0108
756.3492	-0.0009
756.5248	0.0202
756.7003	0.0151
756.8758	0.0173
757.0513	0.0109
757.2267	0.0014
757.4022	-0.0025
757.5776	0.0051
757.753	0.0129
757.9284	0.0079
758.1038	0.0289
758.2791	0.0231
758.4545	-0.0218
758.6298	0.0074
758.8051	0.0064
758.9803	0.0102
759.1556	0.0033
759.3308	0.0076
759.506	-0.0023
759.6812	0.0018
759.8564	0.0035
760.0316	-0.0018
760.2067	0.0262
760.3819	0.0013
760.557	-0.0142
760.732	0.0106
760.9071	0.0205
761.0821	-0.0157
761.2572	-0.0057
761.4322	0.0143
761.6072	-0.0016
761.7821	-0.0224
761.9571	0.0099
762.132	0.0067
762.3069	0.0338
762.4818	0.0256
762.6567	-0.0017
762.8316	0.0033
763.0064	0.0164
763.1812	0.0097
763.356	-0.0047
763.5308	0.0083
763.7055	-0.0169
763.8803	0.0049
764.055	-0.0161
764.2297	0.0013
764.4044	0.0043
764.579	0.0026
764.7537	0.0081
764.9283	0.0008
765.1029	0.0062
765.2775	0.0184
765.4521	-0.0002
765.6266	0.0109
765.8011	0.015
765.9756	0.0227
766.1501	0.013
766.3246	0.0192
766.4991	-0.0163
766.6735	0.0373
766.8479	-0.0236
767.0223	-0.0003
767.1967	0.0152
767.371	0.0268
767.5454	0.0312
767.7197	0.0197
767.894	0.0281
768.0683	0.023
768.2425	-0.0133
768.4168	0.0025
768.591	0.0044
768.7652	-0.0121
768.9394	-0.0183
769.1135	-0.0093
769.2877	0.0099
769.4618	0.0442
769.6359	-0.006
769.81	0.0259
769.984	0.0058
770.1581	0.0205
770.3321	0.0209
770.5061	-0.0098
770.6801	0.0355
770.8541	0.0131
771.028	0.0465
771.202	0.0326
771.3759	0.0281
771.5498	0.0274
771.7236	0.0002
771.8975	0.0388
772.0713	-0.0098
772.2451	0.0238
772.4189	0.0166
772.5927	-0.0368
772.7665	0.0022
772.9402	0.0124
773.1139	-0.0047
773.2876	0.0002
773.4613	0.0282
773.635	0.0029
773.8086	0.0088
773.9822	0.0193
774.1558	0.0221
774.3294	0.0085
774.503	-0.0079
774.6765	0.05
774.8501	-0.0098
775.0236	0.019
775.1971	-0.0307
775.3705	0.0194
775.544	-0.0699
775.7174	-0.0029
775.8908	0.0387
776.0642	0.0103
776.2376	0.027
776.4109	-0.0358
776.5843	0.0409
776.7576	0.022
776.9309	0.0182
777.1041	-0.0538
777.2774	0.0087
777.4506	0.0223
777.6238	-0.0185
777.797	0.0234
777.9702	0.0049
778.1434	0.0115
778.3165	0.0052
778.4896	-0.0216
778.6627	0.0108
778.8358	0.0138
779.0089	-0.0366
779.1819	0.0407
779.3549	0.0043
779.5279	0.0075
779.7009	0.0536
779.8739	0.0315
780.0468	0.0176
780.2197	0.0371
780.3926	0.0022
780.5655	0.022
780.7384	0.0044
780.9112	0.0213
781.0841	0.0162
781.2569	0.0034
781.4297	-0.0132
781.6024	0.0601
781.7752	0.0402
781.9479	0.0247
782.1206	0.0039
782.2933	0.0065
782.466	0.0649
782.6386	-0.0188
782.8113	0.0084
782.9839	0.0103
783.1565	0.0246
783.329	0.0061
783.5016	0.0014
783.6741	0.0183
783.8466	0.0157
784.0191	0.0293
784.1916	-0.0144
784.3641	-0.0151
784.5365	0.0368
784.7089	-0.0441
784.8813	0.0929
785.0537	0.0814
785.2261	-0.0121
785.3984	0.0003
785.5707	-0.0412
785.743	0.0263
785.9153	0.0025
786.0876	-0.0139
786.2598	-0.0237
786.432	0.0078
786.6042	0.048
786.7764	-0.0222
786.9486	-0.0093
787.1207	0.0147
787.2928	0.0357
787.4649	0.0061
787.637	-0.0154
787.8091	0.0014
787.9811	0.0269
788.1532	0.0172
788.3252	0.0279
788.4972	0.0182
788.6691	0.0151
788.8411	-0.0087
789.013	-0.001
789.1849	0.0125
789.3568	0.0213
789.5287	0.0605
789.7005	-0.0479
789.8723	-0.026
790.0442	0.0085
790.2159	-0.0078
790.3877	0.0223
790.5595	0.043
790.7312	-0.0006
790.9029	-0.0255
791.0746	0.019
791.2463	-0.0087
791.4179	0.0277
791.5896	-0.0006
791.7612	0.0347
791.9328	-0.0106
792.1044	0.0179
792.2759	-0.0213
792.4474	0.0864
792.619	-0.026
792.7905	0.0203
792.9619	0.0474
793.1334	0.0551
793.3048	0.0623
793.4762	0.014
793.6476	-0.0167
793.819	0.0077
793.9904	-0.0064
794.1617	0.0053
794.333	-0.0067
794.5043	0.0262
794.6756	-0.0061
794.8469	0.0202
795.0181	0.0079
795.1893	0.0272
795.3605	0.0202
795.5317	0.0132
795.7029	-0.0055
795.874	0.0185
796.0452	0.0107
796.2163	0.0906
796.3873	0.0581
796.5584	0.0272
796.7294	-0.0296
796.9005	-0.0264
797.0715	-0.0541
797.2425	0.0097
797.4134	0.0591
797.5844	0.0435
797.7553	-0.0673
797.9262	0.044
798.0971	0.0261
798.2679	0.0229
798.4388	-0.015
798.6096	-0.0398
798.7804	-0.0031
798.9512	0.0294
799.122	-0.0256
799.2927	0.0355
799.4635	-0.0755
799.6342	-0.0777
799.8049	-0.0177
799.9755	-0.0168
800.1462	0.0288
800.3168	0.0991
800.4874	-0.0539
800.658	-0.0408
800.8286	0.0328
800.9991	0.0007
801.1696	-0.0179
801.3402	-0.0503
801.5106	-0.1084
801.6811	0.0171
801.8516	0.0516
802.022	-0.0011
802.1924	-0.1219
802.3628	0.078
802.5332	0.0661
802.7035	0.0251
802.8739	0.0352
803.0442	-0.0698
803.2145	0.033
803.3847	0.0975
803.555	0.0205
803.7252	-0.0335
803.8954	-0.0295
804.0656	-0.0157
804.2358	0.0026
804.4059	0.0085
804.5761	-0.003
804.7462	0.0482
804.9163	-0.0208
805.0864	0.0486
805.2564	-0.0593
805.4264	-0.0296
805.5965	0.0808
805.7665	-0.0331
805.9364	-0.052
806.1064	0.0184
806.2763	0.0257
806.4462	0.0452
806.6161	0.011
806.786	0.0147
806.9559	0.085
807.1257	0.0086
807.2955	0.0272
807.4653	-0.0089
807.6351	0.0257
807.8048	0.0481
807.9746	0.0183
808.1443	0.0046
808.314	0.0123
808.4837	0.0262
808.6533	-0.0819
808.8229	-0.025
808.9926	0.086
809.1622	-0.0088
809.3317	-0.034
809.5013	-0.0344
809.6708	-0.0809
809.8403	0.0308
810.0098	-0.0464
810.1793	-0.081
810.3488	-0.0926
810.5182	0.1413
810.6876	-0.0144
810.857	0.0863
811.0264	-0.0375
811.1958	0.0284
811.3651	-0.0014
811.5344	0.0461
811.7037	0.109
811.873	0.0356
812.0422	-0.1117
812.2115	-0.0014
812.3807	0.0079
812.5499	-0.0041
812.7191	-0.0745
812.8882	-0.1211
813.0574	0.0365
813.2265	0.0852
813.3956	-0.0053
813.5646	-0.0169
813.7337	-0.0116
813.9027	0.0263
814.0718	-0.0064
814.2407	0.0272
814.4097	0.103
814.5787	0.1304
814.7476	0.0699
814.9165	0.0678
815.0854	0.0222
815.2543	0.0402
815.4232	0.0903
815.592	-0.0282
815.7608	0.0017
815.9296	-0.0589
816.0984	-0.0158
816.2671	-0.0732
816.4359	0.0972
816.6046	0.1281
816.7733	-0.1581
816.942	-0.0274
817.1106	0.0955
817.2793	-0.0375
817.4479	0.0954
817.6165	-0.0103
817.785	-0.0502
817.9536	0.0011
818.1221	0.09
818.2906	-0.0433
818.4591	0.0405
818.6276	0.0109
818.7961	-0.0412
818.9645	0.0247
819.1329	-0.0681
819.3013	-0.0582
819.4697	-0.0542
819.638	-0.0802
819.8064	-0.0179
819.9747	-0.0424
820.143	-0.1281
820.3113	-0.0406
820.4795	-0.0829
820.6477	0.0446
820.816	0.0487
820.9842	0.1161
821.1523	0.0398
821.3205	0.0302
821.4886	0.0373
821.6567	-0.0014
821.8248	0.1261
821.9929	-0.1074
822.1609	-0.0247
822.329	0.132
822.497	0.0851
822.665	-0.0145
822.833	-0.0647
823.0009	0.0269
823.1688	0.0326
823.3367	-0.1808
823.5046	0.0819
823.6725	-0.1474
823.8404	0.3022
824.0082	-0.0788
824.176	0.0389
824.3438	0.1561
824.5116	-0.0669
824.6793	0.0595
824.847	-0.1237
825.0147	-0.0542
825.1824	0.0118
825.3501	0.1168
825.5177	-0.0953
825.6854	-0.1007
825.853	-0.0753
826.0206	-0.1151
826.1881	-0.0931
826.3557	0.0464
826.5232	0.0802
826.6907	0.0698
826.8582	-0.0507
827.0257	0.2953
827.1931	0.0327
827.3605	-0.0491
827.528	0.0074
827.6953	-0.0769
827.8627	-0.0756
828.03	0.0349
828.1974	0.0185
828.3647	0.0349
828.532	-0.0019
828.6992	0.1604
828.8665	-0.308
829.0337	0.0248
829.2009	-0.0176
829.3681	-0.0878
829.5352	-0.2882
829.7024	0.1052
829.8695	-0.0906
830.0366	0.1192
830.2037	0.0526
830.3707	0.0368
830.5378	-0.0194
830.7048	-0.0338
830.8718	0.1885
831.0388	-0.1928
831.2057	-0
831.3727	-0.3225
831.5396	-0.1053
831.7065	-0.9274
831.8734	0.093
832.0402	0.1632
832.2071	-0.3539
832.3739	0.1253
832.5407	-1.1963
832.7075	-0.3688
832.8742	1.2365
833.041	-0.0172
833.2077	0.3206
833.3744	0.1634
833.541	0.2065
833.7077	-0.1495
833.8743	-0.0535
834.0409	0.0637
834.2075	0.0332
834.3741	-0.1751
834.5407	0.226
834.7072	0.0856
834.8737	0.0659
835.0402	0.1637
835.2067	-0.3141
835.3731	0.0922
835.5395	-0.1449
835.706	-0.0059
835.8723	0.0084
836.0387	0.0489
836.2051	-0.0916
836.3714	0.1297
836.5377	-0.1028
836.704	0.1799
836.8703	-0.3406
837.0365	-0.4658
837.2027	0.3538
837.3689	0.0564
837.5351	0.2382
837.7013	-0.1254
837.8674	-0.1635
838.0335	-0.2687
838.1997	-0.0701
838.3657	-0
838.5318	-0.7932
838.6978	0.9849
838.8639	-0.6456
839.0299	-0.106
839.1958	-0.1217
839.3618	0.2084
839.5277	-0.1938
839.6937	0.1692
839.8596	-0.2315
840.0254	0.3117
840.1913	-0.1555
840.3571	-0.1472
840.523	-0
840.6888	0.0766
840.8545	-0.5098
841.0203	0.1545
841.186	0.085
841.3517	-0.4258
841.5174	0.1448
841.6831	0.1144
841.8488	-0.2328
842.0144	-0.2602
842.18	0.2094
842.3456	-0.2651
842.5112	-0
842.6767	-0.1162
842.8422	0.1598
843.0077	0.1206
843.1732	-0.5567
843.3387	-0.2441
843.5042	-0
843.6696	-0.3086
843.835	-0.1348
844.0004	0.1218
844.1657	-0
844.3311	0.0414
844.4964	-0.1515
844.6617	0.6239
844.827	-0
844.9923	0.4873
845.1575	-0.2383
845.3227	-0.2804
845.4879	-0.3098
845.6531	-0.072
845.8183	0.5923
845.9834	-0
846.1485	0.2047
846.3136	-0.3896
846.4787	-0
846.6438	-0.2441
846.8088	-0
846.9738	-0
847.1388	0.0024
847.3038	-0.1844
847.4687	-0
847.6337	-0.4403
847.7986	-0.264
847.9635	-0.3515
848.1284	0.6382
848.2932	0.1866
848.458	-0
848.6228	-0.2372
848.7876	-0
848.9524	-0.5313
849.1172	-1.699
849.2819	-0
849.4466	0.2619
849.6113	0.0034
849.7759	-0.6435
849.9406	-0.1813
850.1052	-1.5178
850.2698	0.5567
850.4344	-0
850.599	0.1538
850.7635	0.1457
850.928	0.0577
851.0925	0.1705
851.257	-0.1513
851.4215	0.4003
851.5859	-0.0434
851.7503	-0
851.9147	-0.4178
852.0791	-0.251
852.2434	0.1317
852.4078	0.9247
852.5721	0.4428
852.7364	0.1692
852.9007	-0.1382
853.0649	-0
853.2291	2.4464
853.3934	-0
853.5575	-0.1667
853.7217	0.235
853.8859	-0
854.05	-0.4639
854.2141	0.4705
854.3782	-0.4319
854.5423	-0.4376
854.7063	-0.0408
854.8703	0.202
855.0343	-0.1231
855.1983	0.096
855.3623	-0.1274
855.5262	-0
855.6901	0.4208
855.854	-0.0883
856.0179	-0.093
856.1818	-0
856.3456	-0.004
856.5094	1.7118
856.6732	-0.6223
856.837	-0.7391
857.0008	-0.4496
857.1645	-0.0538
857.3282	-0
857.4919	-0.0822
857.6556	-0.3588
857.8192	-0.0761
857.9828	-0.193
858.1465	0.2914
858.31	-0
858.4736	-0
858.6372	-0.2516
858.8007	-0.0073
858.9642	0.1868
859.1277	-0
859.2911	-0.6596
859.4546	-0
859.618	0.1252
859.7814	-0
859.9448	1.1527
860.1081	-0
860.2715	-1.9258
860.4348	0.8129
860.5981	0.1108
860.7614	-0.0213
860.9246	-0.246
861.0879	-0.3439
861.2511	-0.5545
861.4143	-0.346
861.5774	-0.5969
861.7406	1.2672
861.9037	-0
862.0668	0.1606
862.2299	1.1203
862.393	-0
862.556	-0.4945
862.7191	-0.5078
862.8821	0.3508
863.0451	0.4898
863.208	-0.0811
863.371	-0
863.5339	0.0733
863.6968	0.8183
863.8597	-0.2082
864.0225	0.3063
864.1854	-0
864.3482	-0.8704
864.511	-0.2044
864.6737	-0
864.8365	0.031
864.9992	-0
865.1619	-0.2251
865.3246	-2.1498
865.4873	0.0898
865.65	-0
865.8126	-0.1418
865.9752	-0.4429
866.1378	0.0119
866.3004	0.3048
866.4629	-1.9168
866.6254	-0.0874
866.7879	-0.5005
866.9504	-0.2084
867.1129	-0.2539
867.2753	-0.0761
867.4377	-0.3232
867.6001	-0
867.7625	-0.152
867.9249	-0.1536
868.0872	0.0729
868.2495	-0.0573
868.4118	0.2534
868.5741	-0
868.7363	0.6128
868.8986	1.0043
869.0608	-0.8628
869.223	-0.6317
869.3851	-0
869.5473	-0.2413
869.7094	-0
869.8715	-0
870.0336	0.0306
870.1957	0.0813
870.3577	0.0713
870.5197	0.1215
870.6817	-0.7632
870.8437	-0.143
871.0057	0.3517
871.1676	0.168
871.3295	1.0661
871.4914	-1.6314
871.6533	-0
871.8151	0.7124
871.977	0.6921
872.1388	-0.2783
872.3006	0.0146
872.4623	-0.7854
872.6241	-0.0476
872.7858	0.0847
872.9475	-0
873.1092	0.0488
873.2709	0.1863
873.4325	-1.827
873.5941	-0.3394
873.7557	-0.0626
873.9173	-0.2294
874.0789	-0.0594
874.2404	-0
874.4019	0.0979
874.5634	-0
874.7249	2.2492
874.8863	-0
875.0478	-0.2441
875.2092	0.4035
875.3706	-0.0443
875.5319	0.3898
875.6933	-0.0847
875.8546	0.2016
876.0159	-0.0338
876.1772	0.1262
876.3385	-0.0839
876.4997	-0.0707
876.6609	0.5173
876.8221	-0
876.9833	-0.094
877.1445	0.1237
877.3056	-0
877.4667	-0.4125
877.6278	-0
877.7889	-0
877.9499	-0.0077
878.111	-0.1187
878.272	-0.549
878.433	-0.0771
878.5939	0.4284
878.7549	0.9561
878.9158	0.8785
879.0767	-0
879.2376	-0
879.3984	0.0588
879.5593	-0.0221
879.7201	0.5441
879.8809	-0
880.0417	-0.1411
880.2024	-0.2043
880.3632	0.1016
880.5239	0.0986
880.6846	0.5979
880.8452	-0
881.0059	-1.1807
881.1665	-0.065
881.3271	0.633
881.4877	0.4867
881.6483	-1.0483
881.8088	-0
881.9693	-0
882.1298	-0
882.2903	-0
