Data from D4ACN5uM420nmA_Absorbance_14-37-09-717.txt Node
Date: Fri Feb 21 14:37:09 GMT 2025
User: LASERRRRR
Spectrometer: FLMT03099
Trigger mode: 0
Integration Time (sec): 1.500000E-2
Scans to average: 1
Electric dark correction enabled: true
Nonlinearity correction enabled: false
Boxcar width: 0
XAxis mode: Wavelengths
Number of Pixels in Spectrum: 3648
>>>>>Begin Spectral Data<<<<<
179.3399	-0.4008
179.5586	-0.4008
179.7771	-0.4008
179.9957	-0.0596
180.2143	-1.0843
180.4329	-0
180.6514	-0
180.8699	-0
181.0885	-0
181.307	0.3804
181.5255	0.3599
181.744	-0
181.9625	0.0368
182.181	-0
182.3994	-0.1818
182.6179	0.381
182.8363	-0
183.0547	0.7969
183.2732	0.3187
183.4916	0.1856
183.71	0.1906
183.9284	-0.062
184.1467	0.4457
184.3651	-0.0617
184.5835	0.2361
184.8018	0.0172
185.0201	0.014
185.2385	0.3406
185.4568	0.274
185.6751	0.16
185.8934	0.1078
186.1117	-0.139
186.3299	0.1175
186.5482	0.2942
186.7664	0.2294
186.9847	-0.0462
187.2029	0.3028
187.4211	0.0018
187.6393	0.0559
187.8575	0.221
188.0757	0.7144
188.2939	0.0826
188.512	0.0889
188.7302	0.1526
188.9483	0.3118
189.1665	0.4723
189.3846	0.4879
189.6027	0.208
189.8208	0.28
190.0389	0.2166
190.257	0.0984
190.475	0.0218
190.6931	0.0612
190.9111	-0.1023
191.1292	0.1158
191.3472	0.0433
191.5652	0.2036
191.7832	0.1884
192.0012	0.0957
192.2192	0.2221
192.4371	0.0246
192.6551	0.2011
192.873	0.2081
193.091	0.1724
193.3089	0.0591
193.5268	0.1817
193.7447	0.1365
193.9626	0.2775
194.1805	0.2026
194.3984	0.1288
194.6162	0.1803
194.8341	0.2757
195.0519	0.2176
195.2697	0.2129
195.4875	0.2209
195.7054	0.2304
195.9231	0.1991
196.1409	0.2966
196.3587	0.3135
196.5765	0.2774
196.7942	0.2892
197.012	0.3257
197.2297	0.2769
197.4474	0.4378
197.6651	0.2943
197.8828	0.3699
198.1005	0.416
198.3182	0.3718
198.5358	0.3231
198.7535	0.3376
198.9711	0.3572
199.1888	0.3199
199.4064	0.3881
199.624	0.3747
199.8416	0.3469
200.0592	0.3801
200.2767	0.367
200.4943	0.4358
200.7119	0.4041
200.9294	0.3909
201.1469	0.391
201.3645	0.4173
201.582	0.4006
201.7995	0.4055
202.017	0.4033
202.2344	0.4019
202.4519	0.3827
202.6694	0.3806
202.8868	0.3913
203.1042	0.4178
203.3217	0.389
203.5391	0.3784
203.7565	0.3755
203.9739	0.3612
204.1913	0.35
204.4086	0.334
204.626	0.335
204.8433	0.3449
205.0607	0.3361
205.278	0.3501
205.4953	0.3381
205.7126	0.3427
205.9299	0.29
206.1472	0.3067
206.3644	0.3513
206.5817	0.3052
206.7989	0.3158
207.0162	0.3069
207.2334	0.3124
207.4506	0.2793
207.6678	0.3234
207.885	0.2723
208.1022	0.2956
208.3194	0.2761
208.5365	0.2934
208.7537	0.2819
208.9708	0.2918
209.1879	0.2615
209.405	0.2761
209.6222	0.2613
209.8392	0.2601
210.0563	0.251
210.2734	0.2692
210.4905	0.2874
210.7075	0.262
210.9245	0.2619
211.1416	0.2575
211.3586	0.2533
211.5756	0.228
211.7926	0.2692
212.0096	0.2387
212.2265	0.2463
212.4435	0.2407
212.6604	0.2652
212.8774	0.2484
213.0943	0.2361
213.3112	0.2589
213.5281	0.256
213.745	0.2387
213.9619	0.2394
214.1788	0.2554
214.3956	0.2549
214.6125	0.2344
214.8293	0.2279
215.0461	0.2361
215.2629	0.2594
215.4798	0.2459
215.6965	0.2389
215.9133	0.2236
216.1301	0.2186
216.3469	0.2247
216.5636	0.2243
216.7803	0.2273
216.9971	0.2405
217.2138	0.2459
217.4305	0.2323
217.6472	0.239
217.8639	0.2315
218.0805	0.2508
218.2972	0.2419
218.5138	0.2279
218.7305	0.2423
218.9471	0.2322
219.1637	0.2715
219.3803	0.2552
219.5969	0.2394
219.8135	0.255
220.0301	0.2512
220.2466	0.2628
220.4632	0.2413
220.6797	0.242
220.8962	0.254
221.1127	0.2539
221.3292	0.2554
221.5457	0.2678
221.7622	0.2613
221.9787	0.2698
222.1951	0.2687
222.4116	0.2587
222.628	0.2806
222.8444	0.27
223.0608	0.2818
223.2772	0.2804
223.4936	0.2716
223.71	0.2693
223.9264	0.283
224.1427	0.2856
224.3591	0.2801
224.5754	0.2811
224.7917	0.2824
225.008	0.2928
225.2243	0.2957
225.4406	0.2815
225.6569	0.304
225.8732	0.2983
226.0894	0.3087
226.3057	0.306
226.5219	0.3119
226.7381	0.3237
226.9543	0.3084
227.1705	0.3109
227.3867	0.3176
227.6029	0.3195
227.8191	0.326
228.0352	0.3399
228.2513	0.3424
228.4675	0.3371
228.6836	0.3446
228.8997	0.343
229.1158	0.3501
229.3319	0.3535
229.548	0.3562
229.764	0.3532
229.9801	0.3786
230.1961	0.3746
230.4121	0.3739
230.6282	0.3778
230.8442	0.3863
231.0602	0.3907
231.2761	0.3772
231.4921	0.3783
231.7081	0.3942
231.924	0.4135
232.14	0.4094
232.3559	0.4036
232.5718	0.4146
232.7877	0.4116
233.0036	0.4116
233.2195	0.415
233.4353	0.4208
233.6512	0.426
233.867	0.4338
234.0829	0.4338
234.2987	0.4329
234.5145	0.4358
234.7303	0.4322
234.9461	0.4325
235.1619	0.4314
235.3776	0.4402
235.5934	0.4294
235.8091	0.4487
236.0249	0.4512
236.2406	0.4445
236.4563	0.4447
236.672	0.4441
236.8877	0.4448
237.1034	0.4462
237.319	0.4481
237.5347	0.4466
237.7503	0.4432
237.966	0.4587
238.1816	0.4531
238.3972	0.4564
238.6128	0.4596
238.8284	0.4629
239.0439	0.4582
239.2595	0.4632
239.475	0.4561
239.6906	0.4555
239.9061	0.4644
240.1216	0.4526
240.3371	0.4617
240.5526	0.4641
240.7681	0.4708
240.9836	0.4742
241.199	0.4604
241.4145	0.4539
241.6299	0.4534
241.8453	0.4506
242.0607	0.4384
242.2761	0.4401
242.4915	0.4334
242.7069	0.4269
242.9223	0.4385
243.1376	0.4232
243.353	0.4186
243.5683	0.4173
243.7836	0.4013
243.9989	0.3995
244.2142	0.3853
244.4295	0.3864
244.6448	0.3857
244.86	0.3721
245.0753	0.3608
245.2905	0.3544
245.5057	0.3517
245.721	0.3496
245.9362	0.3326
246.1514	0.3441
246.3665	0.3259
246.5817	0.3109
246.7969	0.3129
247.012	0.308
247.2271	0.3042
247.4423	0.297
247.6574	0.2989
247.8725	0.2859
248.0876	0.2813
248.3026	0.2747
248.5177	0.2652
248.7328	0.2547
248.9478	0.2648
249.1628	0.2493
249.3779	0.2511
249.5929	0.2458
249.8079	0.2383
250.0228	0.2382
250.2378	0.2403
250.4528	0.2367
250.6677	0.2303
250.8827	0.2235
251.0976	0.226
251.3125	0.221
251.5274	0.2188
251.7423	0.2119
251.9572	0.2145
252.172	0.2111
252.3869	0.2146
252.6017	0.2099
252.8166	0.2019
253.0314	0.2042
253.2462	0.1986
253.461	0.2003
253.6758	0.197
253.8906	0.1973
254.1053	0.2023
254.3201	0.1909
254.5348	0.1897
254.7496	0.1887
254.9643	0.1913
255.179	0.1885
255.3937	0.1882
255.6083	0.1956
255.823	0.1899
256.0377	0.1872
256.2523	0.19
256.467	0.1932
256.6816	0.1885
256.8962	0.1862
257.1108	0.1813
257.3254	0.1868
257.54	0.1786
257.7545	0.1895
257.9691	0.1858
258.1836	0.1831
258.3981	0.1858
258.6127	0.1768
258.8272	0.1917
259.0417	0.1763
259.2561	0.1768
259.4706	0.1811
259.6851	0.1898
259.8995	0.1769
260.114	0.1881
260.3284	0.1838
260.5428	0.1842
260.7572	0.178
260.9716	0.1915
261.186	0.1875
261.4003	0.1799
261.6147	0.1843
261.829	0.182
262.0433	0.1836
262.2577	0.1816
262.472	0.1813
262.6863	0.1901
262.9005	0.1823
263.1148	0.1864
263.3291	0.1865
263.5433	0.1889
263.7576	0.1948
263.9718	0.1853
264.186	0.1871
264.4002	0.1895
264.6144	0.1962
264.8286	0.2004
265.0427	0.1941
265.2569	0.1987
265.471	0.2008
265.6851	0.1985
265.8993	0.1933
266.1134	0.1965
266.3275	0.1979
266.5415	0.1989
266.7556	0.201
266.9697	0.1989
267.1837	0.1999
267.3978	0.2012
267.6118	0.1963
267.8258	0.2059
268.0398	0.2013
268.2538	0.2047
268.4677	0.1928
268.6817	0.1971
268.8957	0.1906
269.1096	0.1921
269.3235	0.1942
269.5374	0.2017
269.7514	0.1932
269.9652	0.1991
270.1791	0.1926
270.393	0.1985
270.6068	0.1972
270.8207	0.1912
271.0345	0.1942
271.2483	0.1931
271.4622	0.1965
271.676	0.1884
271.8897	0.1854
272.1035	0.1986
272.3173	0.1877
272.531	0.1926
272.7448	0.1937
272.9585	0.1955
273.1722	0.1944
273.3859	0.199
273.5996	0.1982
273.8133	0.203
274.0269	0.1977
274.2406	0.2008
274.4542	0.1994
274.6679	0.2044
274.8815	0.208
275.0951	0.2125
275.3087	0.215
275.5223	0.2085
275.7358	0.215
275.9494	0.2138
276.1629	0.2137
276.3765	0.2151
276.59	0.2102
276.8035	0.2144
277.017	0.219
277.2305	0.2177
277.444	0.2164
277.6574	0.2153
277.8709	0.2173
278.0843	0.2215
278.2978	0.2186
278.5112	0.2168
278.7246	0.2218
278.938	0.2146
279.1513	0.2163
279.3647	0.2149
279.5781	0.2087
279.7914	0.2071
280.0047	0.2088
280.2181	0.2043
280.4314	0.2161
280.6447	0.2138
280.8579	0.2073
281.0712	0.2024
281.2845	0.2021
281.4977	0.2042
281.711	0.1958
281.9242	0.1995
282.1374	0.1993
282.3506	0.1976
282.5638	0.1959
282.7769	0.2016
282.9901	0.1966
283.2033	0.1953
283.4164	0.1967
283.6295	0.1958
283.8426	0.1893
284.0557	0.1935
284.2688	0.2011
284.4819	0.1881
284.695	0.1961
284.908	0.186
285.1211	0.1946
285.3341	0.1848
285.5471	0.1923
285.7601	0.1911
285.9731	0.1947
286.1861	0.188
286.3991	0.1982
286.612	0.1889
286.825	0.1921
287.0379	0.1858
287.2508	0.188
287.4637	0.1906
287.6766	0.1863
287.8895	0.1895
288.1024	0.1918
288.3152	0.189
288.5281	0.1886
288.7409	0.1858
288.9538	0.1839
289.1666	0.1855
289.3794	0.1852
289.5922	0.181
289.8049	0.1841
290.0177	0.1888
290.2304	0.1863
290.4432	0.1885
290.6559	0.1899
290.8686	0.1879
291.0813	0.1824
291.294	0.1811
291.5067	0.182
291.7194	0.1848
291.932	0.1833
292.1447	0.1894
292.3573	0.1867
292.5699	0.1882
292.7825	0.1831
292.9951	0.1839
293.2077	0.1802
293.4203	0.1825
293.6328	0.1855
293.8454	0.1807
294.0579	0.1831
294.2704	0.1887
294.4829	0.184
294.6954	0.1838
294.9079	0.1811
295.1204	0.1779
295.3328	0.1839
295.5453	0.1884
295.7577	0.1882
295.9701	0.1839
296.1825	0.1844
296.3949	0.1802
296.6073	0.1818
296.8197	0.1841
297.0321	0.1833
297.2444	0.1807
297.4567	0.1855
297.6691	0.1816
297.8814	0.1833
298.0937	0.1844
298.306	0.1854
298.5182	0.1866
298.7305	0.1849
298.9428	0.1819
299.155	0.1812
299.3672	0.1872
299.5794	0.1838
299.7916	0.1859
300.0038	0.1881
300.216	0.1804
300.4282	0.1817
300.6403	0.1889
300.8525	0.1856
301.0646	0.1871
301.2767	0.1865
301.4888	0.1813
301.7009	0.1875
301.913	0.192
302.125	0.185
302.3371	0.1904
302.5491	0.1909
302.7612	0.1907
302.9732	0.1914
303.1852	0.1868
303.3972	0.1904
303.6092	0.1888
303.8211	0.186
304.0331	0.1836
304.245	0.1859
304.457	0.1838
304.6689	0.178
304.8808	0.181
305.0927	0.1878
305.3046	0.1839
305.5164	0.1814
305.7283	0.1791
305.9401	0.1758
306.152	0.1807
306.3638	0.1773
306.5756	0.1773
306.7874	0.1761
306.9992	0.1772
307.2109	0.17
307.4227	0.1686
307.6344	0.1704
307.8462	0.1698
308.0579	0.1768
308.2696	0.1727
308.4813	0.1645
308.693	0.1659
308.9046	0.1715
309.1163	0.1631
309.328	0.1641
309.5396	0.1605
309.7512	0.1615
309.9628	0.1595
310.1744	0.1521
310.386	0.156
310.5976	0.1589
310.8091	0.1595
311.0207	0.1543
311.2322	0.1567
311.4437	0.1525
311.6552	0.1564
311.8667	0.1534
312.0782	0.1544
312.2897	0.1536
312.5012	0.1529
312.7126	0.1461
312.924	0.1477
313.1355	0.1556
313.3469	0.1492
313.5583	0.146
313.7696	0.1495
313.981	0.1528
314.1924	0.1451
314.4037	0.1506
314.6151	0.1443
314.8264	0.1527
315.0377	0.1475
315.249	0.1482
315.4603	0.1408
315.6716	0.1486
315.8828	0.1475
316.0941	0.1491
316.3053	0.1411
316.5165	0.1482
316.7277	0.145
316.9389	0.145
317.1501	0.1457
317.3613	0.1453
317.5724	0.139
317.7836	0.1396
317.9947	0.1459
318.2058	0.1409
318.417	0.1416
318.6281	0.1425
318.8391	0.1421
319.0502	0.1443
319.2613	0.1505
319.4723	0.1424
319.6834	0.1448
319.8944	0.1389
320.1054	0.1436
320.3164	0.136
320.5274	0.1435
320.7383	0.1491
320.9493	0.1405
321.1602	0.1414
321.3712	0.1422
321.5821	0.1402
321.793	0.1454
322.0039	0.1442
322.2148	0.1432
322.4257	0.1388
322.6365	0.1443
322.8474	0.1489
323.0582	0.1437
323.269	0.1486
323.4798	0.1406
323.6906	0.144
323.9014	0.1415
324.1122	0.1426
324.3229	0.1452
324.5337	0.1476
324.7444	0.1504
324.9551	0.1464
325.1658	0.1474
325.3765	0.1462
325.5872	0.1474
325.7979	0.1499
326.0085	0.1454
326.2192	0.149
326.4298	0.1521
326.6404	0.1546
326.851	0.1467
327.0616	0.1504
327.2722	0.1518
327.4828	0.1524
327.6933	0.1624
327.9039	0.1517
328.1144	0.1571
328.3249	0.1572
328.5354	0.1548
328.7459	0.1552
328.9564	0.1615
329.1669	0.1578
329.3773	0.1585
329.5878	0.1564
329.7982	0.1592
330.0086	0.1648
330.219	0.1573
330.4294	0.157
330.6398	0.161
330.8502	0.1611
331.0605	0.1601
331.2708	0.1594
331.4812	0.1632
331.6915	0.1604
331.9018	0.1609
332.1121	0.1651
332.3224	0.1607
332.5326	0.1586
332.7429	0.1569
332.9531	0.1666
333.1633	0.1585
333.3735	0.1583
333.5837	0.1638
333.7939	0.1553
334.0041	0.1636
334.2143	0.1607
334.4244	0.1731
334.6346	0.1576
334.8447	0.1575
335.0548	0.1685
335.2649	0.1657
335.475	0.1596
335.685	0.162
335.8951	0.1526
336.1051	0.1611
336.3152	0.1622
336.5252	0.1585
336.7352	0.1609
336.9452	0.158
337.1552	0.1564
337.3652	0.1596
337.5751	0.1539
337.7851	0.1533
337.995	0.1565
338.2049	0.1566
338.4148	0.1564
338.6247	0.1623
338.8346	0.1525
339.0445	0.1591
339.2543	0.1571
339.4642	0.1576
339.674	0.1584
339.8838	0.1595
340.0936	0.154
340.3034	0.1541
340.5132	0.1528
340.7229	0.162
340.9327	0.1676
341.1424	0.1627
341.3522	0.1561
341.5619	0.1673
341.7716	0.1666
341.9813	0.1634
342.1909	0.1718
342.4006	0.1634
342.6102	0.1658
342.8199	0.1671
343.0295	0.1679
343.2391	0.1678
343.4487	0.178
343.6583	0.178
343.8679	0.1692
344.0774	0.1721
344.287	0.1763
344.4965	0.1746
344.706	0.1781
344.9155	0.1717
345.125	0.1782
345.3345	0.1844
345.544	0.1805
345.7534	0.1792
345.9629	0.1764
346.1723	0.1853
346.3817	0.1842
346.5911	0.189
346.8005	0.1887
347.0099	0.1856
347.2193	0.1898
347.4286	0.1958
347.638	0.1918
347.8473	0.198
348.0566	0.1861
348.2659	0.195
348.4752	0.1914
348.6845	0.19
348.8937	0.1843
349.103	0.1876
349.3122	0.1912
349.5214	0.1924
349.7306	0.1996
349.9398	0.1952
350.149	0.1873
350.3582	0.1978
350.5674	0.2002
350.7765	0.1997
350.9856	0.1949
351.1948	0.1953
351.4039	0.1938
351.613	0.1952
351.822	0.1951
352.0311	0.1944
352.2402	0.1982
352.4492	0.1958
352.6582	0.1937
352.8672	0.196
353.0762	0.1922
353.2852	0.1903
353.4942	0.191
353.7032	0.1872
353.9121	0.1869
354.1211	0.1925
354.33	0.1959
354.5389	0.19
354.7478	0.1857
354.9567	0.1832
355.1655	0.187
355.3744	0.1891
355.5833	0.1859
355.7921	0.1951
356.0009	0.1859
356.2097	0.1838
356.4185	0.1822
356.6273	0.1871
356.8361	0.183
357.0448	0.1842
357.2536	0.186
357.4623	0.1854
357.671	0.1944
357.8797	0.1929
358.0884	0.1858
358.2971	0.1885
358.5057	0.1912
358.7144	0.191
358.923	0.1929
359.1316	0.1973
359.3402	0.1883
359.5488	0.1853
359.7574	0.1969
359.966	0.1916
360.1746	0.1861
360.3831	0.1984
360.5916	0.193
360.8002	0.1987
361.0087	0.1896
361.2172	0.1982
361.4256	0.1923
361.6341	0.2028
361.8426	0.1968
362.051	0.1992
362.2594	0.1959
362.4678	0.1901
362.6762	0.1975
362.8846	0.203
363.093	0.1936
363.3014	0.209
363.5097	0.2019
363.718	0.2061
363.9264	0.2022
364.1347	0.1966
364.343	0.2071
364.5513	0.2035
364.7595	0.2145
364.9678	0.2007
365.176	0.208
365.3842	0.2082
365.5925	0.2042
365.8007	0.2075
366.0089	0.2122
366.217	0.2079
366.4252	0.212
366.6333	0.2053
366.8415	0.2101
367.0496	0.2069
367.2577	0.2179
367.4658	0.2016
367.6739	0.2072
367.882	0.2122
368.09	0.207
368.2981	0.2141
368.5061	0.2154
368.7141	0.2175
368.9221	0.2265
369.1301	0.2165
369.3381	0.2188
369.5461	0.2157
369.754	0.2111
369.962	0.2116
370.1699	0.2212
370.3778	0.2311
370.5857	0.2144
370.7936	0.2187
371.0015	0.2261
371.2093	0.212
371.4172	0.2188
371.625	0.2271
371.8328	0.2209
372.0406	0.2306
372.2484	0.2264
372.4562	0.2228
372.664	0.2209
372.8717	0.2201
373.0795	0.2298
373.2872	0.2301
373.4949	0.2324
373.7026	0.2256
373.9103	0.225
374.118	0.2298
374.3256	0.2315
374.5333	0.2297
374.7409	0.2224
374.9485	0.2252
375.1561	0.2371
375.3637	0.2322
375.5713	0.2382
375.7789	0.2306
375.9864	0.2284
376.194	0.2404
376.4015	0.234
376.609	0.2381
376.8165	0.2415
377.024	0.2391
377.2315	0.238
377.4389	0.2289
377.6464	0.237
377.8538	0.2337
378.0612	0.2406
378.2686	0.242
378.476	0.2467
378.6834	0.241
378.8908	0.2404
379.0981	0.2425
379.3055	0.232
379.5128	0.2391
379.7201	0.2482
379.9274	0.2546
380.1347	0.242
380.342	0.2486
380.5492	0.2384
380.7565	0.2386
380.9637	0.2446
381.1709	0.2438
381.3781	0.2533
381.5853	0.2456
381.7925	0.2422
381.9997	0.2511
382.2068	0.2455
382.4139	0.2433
382.6211	0.2421
382.8282	0.2537
383.0353	0.2538
383.2424	0.2484
383.4494	0.2403
383.6565	0.2577
383.8635	0.2504
384.0706	0.2615
384.2776	0.2549
384.4846	0.2553
384.6916	0.2491
384.8986	0.2535
385.1055	0.2531
385.3125	0.2615
385.5194	0.2577
385.7263	0.2517
385.9333	0.2579
386.1402	0.2525
386.347	0.2458
386.5539	0.2502
386.7608	0.2506
386.9676	0.2527
387.1744	0.2498
387.3813	0.2491
387.5881	0.2507
387.7948	0.2552
388.0016	0.2681
388.2084	0.2578
388.4151	0.2517
388.6219	0.2397
388.8286	0.2501
389.0353	0.2443
389.242	0.2575
389.4487	0.2495
389.6553	0.2378
389.862	0.2398
390.0686	0.2469
390.2753	0.2457
390.4819	0.2409
390.6885	0.2472
390.8951	0.236
391.1016	0.248
391.3082	0.2451
391.5147	0.2329
391.7213	0.2356
391.9278	0.2393
392.1343	0.2408
392.3408	0.2371
392.5473	0.2363
392.7537	0.2324
392.9602	0.2358
393.1666	0.2369
393.373	0.2334
393.5794	0.232
393.7858	0.2341
393.9922	0.2271
394.1986	0.2334
394.4049	0.2341
394.6113	0.2286
394.8176	0.2327
395.0239	0.2179
395.2302	0.2227
395.4365	0.2218
395.6428	0.2212
395.8491	0.2271
396.0553	0.2288
396.2615	0.2197
396.4678	0.2233
396.674	0.2145
396.8802	0.216
397.0863	0.2113
397.2925	0.2164
397.4987	0.2179
397.7048	0.2187
397.9109	0.2154
398.117	0.2061
398.3231	0.2175
398.5292	0.2096
398.7353	0.2165
398.9413	0.2177
399.1474	0.2143
399.3534	0.2152
399.5594	0.2129
399.7654	0.2107
399.9714	0.2086
400.1774	0.2142
400.3833	0.2112
400.5893	0.2126
400.7952	0.2151
401.0011	0.2133
401.207	0.2155
401.4129	0.2087
401.6188	0.2143
401.8247	0.2155
402.0305	0.2005
402.2364	0.211
402.4422	0.2134
402.648	0.2096
402.8538	0.2091
403.0596	0.206
403.2654	0.2112
403.4711	0.1953
403.6768	0.2139
403.8826	0.2118
404.0883	0.2135
404.294	0.2043
404.4997	0.2112
404.7054	0.2204
404.911	0.2074
405.1167	0.2142
405.3223	0.2048
405.5279	0.2149
405.7335	0.2061
405.9391	0.2081
406.1447	0.2148
406.3502	0.1977
406.5558	0.1998
406.7613	0.2047
406.9668	0.2044
407.1724	0.2054
407.3778	0.2074
407.5833	0.2016
407.7888	0.2099
407.9942	0.2129
408.1997	0.2123
408.4051	0.2139
408.6105	0.2162
408.8159	0.204
409.0213	0.2049
409.2267	0.2043
409.432	0.2109
409.6374	0.2016
409.8427	0.2128
410.048	0.2139
410.2533	0.2064
410.4586	0.1945
410.6639	0.2044
410.8691	0.2051
411.0744	0.2087
411.2796	0.2089
411.4848	0.2137
411.69	0.1987
411.8952	0.2112
412.1004	0.2063
412.3056	0.208
412.5107	0.2111
412.7158	0.217
412.921	0.2064
413.1261	0.2012
413.3312	0.2109
413.5362	0.2101
413.7413	0.1973
413.9464	0.2034
414.1514	0.2026
414.3564	0.205
414.5614	0.2007
414.7664	0.1974
414.9714	0.2024
415.1764	0.2199
415.3813	0.1956
415.5863	0.2085
415.7912	0.2082
415.9961	0.2048
416.201	0.2074
416.4059	0.2048
416.6108	0.2172
416.8156	0.2
417.0205	0.1962
417.2253	0.2003
417.4301	0.2069
417.6349	0.198
417.8397	0.2078
418.0445	0.1957
418.2492	0.1901
418.454	0.1927
418.6587	0.2029
418.8634	0.2041
419.0681	0.2093
419.2728	0.2007
419.4775	0.2121
419.6822	0.1911
419.8868	0.1956
420.0915	0.1975
420.2961	0.193
420.5007	0.203
420.7053	0.1893
420.9099	0.1992
421.1144	0.1953
421.319	0.1944
421.5235	0.1818
421.728	0.194
421.9325	0.1889
422.137	0.1797
422.3415	0.1844
422.546	0.1792
422.7504	0.1861
422.9549	0.1876
423.1593	0.1845
423.3637	0.1819
423.5681	0.1861
423.7725	0.1827
423.9769	0.1873
424.1812	0.1776
424.3856	0.1786
424.5899	0.1786
424.7942	0.177
424.9985	0.1812
425.2028	0.1866
425.4071	0.1787
425.6113	0.179
425.8156	0.1753
426.0198	0.175
426.224	0.1724
426.4282	0.1677
426.6324	0.1722
426.8366	0.1762
427.0407	0.1691
427.2449	0.1657
427.449	0.172
427.6531	0.1826
427.8572	0.1758
428.0613	0.1689
428.2654	0.1667
428.4694	0.1514
428.6735	0.1506
428.8775	0.1567
429.0815	0.1583
429.2855	0.1573
429.4895	0.1582
429.6935	0.1519
429.8975	0.1532
430.1014	0.1617
430.3053	0.1555
430.5093	0.1552
430.7132	0.1447
430.9171	0.1545
431.1209	0.148
431.3248	0.1351
431.5286	0.1465
431.7325	0.1548
431.9363	0.1376
432.1401	0.1423
432.3439	0.1465
432.5477	0.1286
432.7514	0.1439
432.9552	0.1301
433.1589	0.1275
433.3627	0.1434
433.5664	0.1372
433.7701	0.1355
433.9737	0.133
434.1774	0.1332
434.3811	0.1232
434.5847	0.1285
434.7883	0.1282
434.9919	0.1227
435.1955	0.1231
435.3991	0.123
435.6027	0.1207
435.8062	0.13
436.0098	0.1181
436.2133	0.1175
436.4168	0.106
436.6203	0.1061
436.8238	0.1138
437.0272	0.1153
437.2307	0.109
437.4341	0.1107
437.6375	0.1168
437.841	0.1009
438.0443	0.1083
438.2477	0.0979
438.4511	0.0987
438.6545	0.1002
438.8578	0.107
439.0611	0.1066
439.2644	0.0998
439.4677	0.1002
439.671	0.098
439.8743	0.1018
440.0775	0.0923
440.2808	0.086
440.484	0.098
440.6872	0.0879
440.8904	0.0824
441.0936	0.0885
441.2967	0.077
441.4999	0.0795
441.703	0.0808
441.9062	0.0807
442.1093	0.0891
442.3124	0.0747
442.5155	0.0807
442.7185	0.0705
442.9216	0.0746
443.1246	0.0736
443.3276	0.0777
443.5307	0.07
443.7337	0.0737
443.9366	0.0745
444.1396	0.0633
444.3426	0.0717
444.5455	0.0667
444.7484	0.0619
444.9513	0.0656
445.1542	0.0678
445.3571	0.065
445.56	0.0582
445.7628	0.0634
445.9657	0.0648
446.1685	0.0702
446.3713	0.0547
446.5741	0.0676
446.7769	0.0693
446.9797	0.06
447.1824	0.0556
447.3852	0.0393
447.5879	0.0538
447.7906	0.047
447.9933	0.0525
448.196	0.0431
448.3986	0.0566
448.6013	0.041
448.8039	0.0542
449.0066	0.0533
449.2092	0.053
449.4118	0.0484
449.6143	0.0512
449.8169	0.0486
450.0195	0.0419
450.222	0.0489
450.4245	0.0479
450.627	0.035
450.8295	0.0401
451.032	0.0459
451.2345	0.0345
451.4369	0.0413
451.6394	0.0386
451.8418	0.0415
452.0442	0.0338
452.2466	0.0325
452.449	0.0393
452.6513	0.0348
452.8537	0.0318
453.056	0.031
453.2583	0.0268
453.4607	0.0267
453.663	0.035
453.8652	0.0341
454.0675	0.0379
454.2697	0.0336
454.472	0.0262
454.6742	0.035
454.8764	0.0332
455.0786	0.0317
455.2808	0.0329
455.4829	0.0376
455.6851	0.0298
455.8872	0.017
456.0893	0.0282
456.2915	0.0231
456.4935	0.0256
456.6956	0.0213
456.8977	0.0234
457.0997	0.0301
457.3018	0.022
457.5038	0.0214
457.7058	0.0307
457.9078	0.0338
458.1098	0.0295
458.3117	0.0222
458.5137	0.0184
458.7156	0.0208
458.9175	0.0262
459.1194	0.0212
459.3213	0.0163
459.5232	0.0261
459.725	0.0245
459.9269	0.0288
460.1287	0.0061
460.3305	0.0179
460.5323	0.0239
460.7341	0.0252
460.9359	0.0089
461.1376	0.0224
461.3394	0.0177
461.5411	0.0187
461.7428	0.0222
461.9445	0.0182
462.1462	0.0111
462.3479	0.0143
462.5495	0.0224
462.7512	0.0291
462.9528	0.0208
463.1544	0.0094
463.356	0.0119
463.5576	0.0189
463.7592	0.0168
463.9607	0.0209
464.1623	0.0133
464.3638	0.0156
464.5653	0.0098
464.7668	0.0228
464.9683	0.0148
465.1697	0.0118
465.3712	0.0077
465.5726	0.0153
465.7741	0.0182
465.9755	0.0176
466.1769	0.0166
466.3782	0.0119
466.5796	0.0181
466.7809	0.0169
466.9823	0.0196
467.1836	0.0089
467.3849	0.0175
467.5862	0.01
467.7875	0.0084
467.9887	0.0201
468.19	0.011
468.3912	0.0188
468.5924	0.0073
468.7936	0.0092
468.9948	0.004
469.196	0.0123
469.3972	0.0065
469.5983	0.0102
469.7994	0.0134
470.0006	0.0189
470.2017	0.0121
470.4027	0.0225
470.6038	0.012
470.8049	0.0109
471.0059	0.0191
471.2069	0.0131
471.408	0.0153
471.6089	0.0203
471.8099	0.0175
472.0109	0.012
472.2119	0.0282
472.4128	0.0059
472.6137	0.0193
472.8146	0.0116
473.0155	0.0122
473.2164	0.0179
473.4173	-0.0012
473.6181	0.0093
473.819	0.0146
474.0198	0.0089
474.2206	0.0011
474.4214	0.0121
474.6222	0.0041
474.8229	0.0078
475.0237	0.0178
475.2244	0.0116
475.4251	0.0044
475.6258	0.0067
475.8265	0.0156
476.0272	0.0101
476.2278	0.0153
476.4285	0.0073
476.6291	0.0086
476.8297	0.0112
477.0303	0.0102
477.2309	0.0127
477.4315	0.0124
477.632	0.0004
477.8326	0.0119
478.0331	0.016
478.2336	0.0069
478.4341	0.0112
478.6346	0.0135
478.8351	0.0093
479.0355	0.0195
479.236	0.0198
479.4364	0.0102
479.6368	0.01
479.8372	0.0106
480.0376	-0.0025
480.2379	0.0116
480.4383	0.0085
480.6386	0.0059
480.8389	0.0107
481.0392	0.009
481.2395	0.0111
481.4398	0.0104
481.6401	0.0135
481.8403	0.0074
482.0405	0.0102
482.2408	0.0131
482.441	0.0158
482.6411	0.0095
482.8413	-0.0015
483.0415	0.0196
483.2416	0.0106
483.4417	0.01
483.6419	0.0006
483.8419	0.0026
484.042	0.0089
484.2421	0.0028
484.4422	0.0106
484.6422	0.0093
484.8422	0.0099
485.0422	0.0119
485.2422	0.0074
485.4422	0.0058
485.6422	0.0078
485.8421	0.0065
486.042	0.0133
486.242	0.0046
486.4419	0.0115
486.6417	0.0063
486.8416	0.0031
487.0415	-0.0011
487.2413	0.01
487.4411	0.0131
487.641	0.0133
487.8408	0.0174
488.0405	0.0125
488.2403	0.0007
488.4401	0.0138
488.6398	0.0143
488.8395	0.0125
489.0392	0.0086
489.2389	0.0075
489.4386	0.0035
489.6383	0.009
489.8379	0.0099
490.0376	0.0119
490.2372	0.0021
490.4368	0.0002
490.6364	0.003
490.836	0.0104
491.0355	0.0037
491.2351	0.0125
491.4346	0.0069
491.6341	0.0061
491.8336	0.0197
492.0331	0.0087
492.2326	0.0135
492.432	0.0081
492.6315	0.0205
492.8309	0.0121
493.0303	0.0079
493.2297	0.004
493.4291	0.0081
493.6284	0.0096
493.8278	0.0026
494.0271	0.0085
494.2264	0.0031
494.4257	0.0186
494.625	0.004
494.8243	0.0009
495.0236	0.0167
495.2228	0.0161
495.422	0.0115
495.6213	0.0097
495.8205	0.01
496.0196	0.0111
496.2188	0.0075
496.418	0.0101
496.6171	0.0074
496.8162	0.0066
497.0153	0.0098
497.2144	0.0121
497.4135	0.0056
497.6126	0.0116
497.8116	0.0041
498.0107	0.0072
498.2097	0.0166
498.4087	-0.0003
498.6077	-0.0049
498.8067	0.0104
499.0056	-0.0019
499.2046	0.0129
499.4035	0.0099
499.6024	0.0042
499.8013	0.007
500.0002	0.0067
500.199	0.016
500.3979	-0.0006
500.5967	0.0097
500.7956	0.0124
500.9944	0.0069
501.1932	0.0173
501.3919	0.0072
501.5907	0.0112
501.7895	0.011
501.9882	0.0046
502.1869	0.0175
502.3856	0.0057
502.5843	0.0104
502.783	0.0064
502.9816	0.0102
503.1803	0.0049
503.3789	0.0157
503.5775	0.0092
503.7761	0.0036
503.9747	0.0103
504.1732	0.0051
504.3718	0.0134
504.5703	0.0063
504.7689	0.005
504.9674	0.0098
505.1658	0.0108
505.3643	0.0014
505.5628	0.0169
505.7612	0.0129
505.9597	0.0006
506.1581	0.0059
506.3565	0.0098
506.5549	0.0023
506.7532	0.0055
506.9516	0.0139
507.1499	0.012
507.3482	0.0117
507.5465	0.013
507.7448	0.0066
507.9431	0.009
508.1414	-0.0014
508.3396	0.0114
508.5379	0.0071
508.7361	0.0088
508.9343	0.0133
509.1325	0.0179
509.3306	0.0037
509.5288	-0.0039
509.7269	0.0132
509.9251	0.0068
510.1232	0.0148
510.3213	0.0146
510.5193	0.0136
510.7174	0.008
510.9154	0.0217
511.1135	0.0072
511.3115	0.0095
511.5095	-0.0037
511.7075	0.0187
511.9055	0.0095
512.1034	0.0102
512.3014	0.0055
512.4993	0.0112
512.6972	0.0047
512.8951	0.0062
513.093	0.012
513.2908	0.0182
513.4887	0.0142
513.6865	0.0119
513.8844	0.014
514.0822	0.0066
514.2799	0.0031
514.4777	0.0088
514.6755	0.0054
514.8732	0.0089
515.0709	0.0141
515.2687	0.0156
515.4664	0.0181
515.664	0.0157
515.8617	0.02
516.0594	0.0042
516.257	0.0056
516.4546	0.0179
516.6522	0.0076
516.8498	0.0029
517.0474	0.0081
517.2449	0.0054
517.4425	0.0078
517.64	0.0152
517.8375	0.0144
518.035	0.0101
518.2325	-0.0008
518.43	0.0074
518.6274	0.0081
518.8249	0.0061
519.0223	0.0178
519.2197	0.0075
519.4171	0.0095
519.6145	0.0173
519.8118	-0.0036
520.0092	0.0119
520.2065	0.0186
520.4038	0.0105
520.6011	0.0114
520.7984	0.0167
520.9956	0.0115
521.1929	0.0136
521.3901	0.0153
521.5874	0.0081
521.7846	0.0044
521.9818	0.0101
522.1789	-0.001
522.3761	0.0233
522.5732	0.005
522.7704	0.0043
522.9675	0.0015
523.1646	0.0067
523.3617	0.0136
523.5587	0.0083
523.7558	0.01
523.9528	0.0168
524.1498	0.0021
524.3468	0.009
524.5438	0.0159
524.7408	0.0045
524.9378	0.011
525.1347	0.0087
525.3316	0.0057
525.5285	0.0068
525.7254	0.0145
525.9223	0.0159
526.1192	0.0041
526.316	0.0073
526.5129	0.0058
526.7097	0.0125
526.9065	0.0184
527.1033	0.0075
527.3	0.0014
527.4968	0.0166
527.6935	-0.0003
527.8903	0.0098
528.087	0.0057
528.2837	0.0142
528.4804	0.0034
528.677	0.0121
528.8737	0.0058
529.0703	0.0006
529.2669	0.0082
529.4635	0.0058
529.6601	-0.0059
529.8567	0.0092
530.0532	0.0007
530.2498	0.0039
530.4463	0.0021
530.6428	0.0088
530.8393	0.0079
531.0358	0.0019
531.2322	-0.0004
531.4287	0.0093
531.6251	-0.0042
531.8215	0.0098
532.0179	0.0129
532.2143	0.011
532.4107	0.0102
532.607	0.0028
532.8034	0.0043
532.9997	0.0088
533.196	0.0024
533.3923	0.0127
533.5886	0.0113
533.7848	0.0061
533.9811	0.0053
534.1773	0.0141
534.3735	0.0108
534.5697	0.0083
534.7659	0.0087
534.9621	0.0098
535.1582	0.0033
535.3544	0.0094
535.5505	0.0156
535.7466	0.0105
535.9427	0.0159
536.1387	0.0048
536.3348	0.0117
536.5308	0.004
536.7269	-0.0013
536.9229	0.0129
537.1189	0.0089
537.3148	0.0133
537.5108	0.0119
537.7068	0.0101
537.9027	-0.0107
538.0986	0.0109
538.2945	0.0043
538.4904	0.0086
538.6863	0.0082
538.8821	0.0032
539.078	0.0146
539.2738	0.0147
539.4696	-0.0002
539.6654	0.0042
539.8611	0.0077
540.0569	0.0028
540.2526	0.0134
540.4484	0.0002
540.6441	0.011
540.8398	0.0143
541.0355	0.0081
541.2311	0.0109
541.4268	0.0169
541.6224	0.0237
541.818	0.0118
542.0136	0.0039
542.2092	0.0055
542.4048	-0.0016
542.6003	0.0081
542.7959	0.0103
542.9914	0.0079
543.1869	0.006
543.3824	0.01
543.5779	0.0199
543.7734	0.0151
543.9688	0.014
544.1642	-0.0037
544.3596	0.0077
544.555	0.0086
544.7504	0.0179
544.9458	0.0029
545.1411	0.0158
545.3365	0.0069
545.5318	0.0007
545.7271	0.0196
545.9224	0.007
546.1177	0.0135
546.3129	0.006
546.5081	0.0011
546.7034	0.0231
546.8986	0.0094
547.0938	0.0155
547.289	0.0086
547.4841	0.0068
547.6793	0.0103
547.8744	0.0104
548.0695	0.005
548.2646	0.0003
548.4597	-0.0003
548.6548	0.0142
548.8498	0.013
549.0448	0.0102
549.2399	0.0078
549.4349	0.0093
549.6298	0.0126
549.8248	0.011
550.0198	-0
550.2147	0.0024
550.4096	0.0104
550.6045	0.0085
550.7994	0.0104
550.9943	0.0096
551.1892	0
551.384	0.008
551.5788	0.008
551.7737	0.0151
551.9685	0.0121
552.1632	-0.0012
552.358	0.0028
552.5528	0.0116
552.7475	0.0022
552.9422	0.0155
553.1369	0.0153
553.3316	0.0079
553.5263	0.0039
553.7209	0.0088
553.9156	0.0045
554.1102	0.0148
554.3048	0.0108
554.4994	0.0107
554.694	0.0216
554.8885	0.0038
555.0831	0.0144
555.2776	0.0141
555.4721	0.005
555.6666	0.0091
555.8611	0.0071
556.0555	0.0096
556.25	0.012
556.4444	0.0111
556.6388	0.0074
556.8332	0.0119
557.0276	0.0049
557.222	-0.0021
557.4163	0.0088
557.6107	0.0016
557.805	0.0062
557.9993	0.0068
558.1936	0.0036
558.3879	0.0047
558.5821	0.0091
558.7764	0.0046
558.9706	0.0049
559.1648	0.0035
559.359	-0.0007
559.5532	0.0028
559.7473	0.0062
559.9415	0.0036
560.1356	0.0201
560.3297	0.0075
560.5238	0.0069
560.7179	-0.0018
560.9119	0.0009
561.106	0.0063
561.3	0.0136
561.494	-0.0044
561.688	0.0005
561.882	-0.0007
562.076	0.0066
562.2699	0.0145
562.4639	0.0099
562.6578	0.0216
562.8517	0.007
563.0456	0.0134
563.2395	0.0063
563.4333	0.0123
563.6272	0.0014
563.821	0.0041
564.0148	0.0093
564.2086	0.0107
564.4024	0.0169
564.5961	0.0082
564.7899	0.01
564.9836	0.0039
565.1773	0.0117
565.371	0.0106
565.5647	0.0154
565.7584	0.0132
565.952	0.0141
566.1456	0.0057
566.3393	0.0096
566.5329	0.0015
566.7264	0.0083
566.92	0.0061
567.1136	0.0018
567.3071	0.002
567.5006	0.0053
567.6941	0.0144
567.8876	0.0018
568.0811	0.0245
568.2745	-0.0053
568.468	0.0089
568.6614	0.0133
568.8548	0.0085
569.0482	0.0134
569.2416	0.0109
569.4349	0.0069
569.6283	0.007
569.8216	0.0068
570.0149	0.0048
570.2082	0.0122
570.4015	0.0121
570.5947	0.008
570.788	0.0113
570.9812	0.0022
571.1744	0.0099
571.3676	0.0064
571.5608	0.0056
571.754	0.0104
571.9471	0.0113
572.1402	0.0095
572.3333	0.011
572.5264	0.0056
572.7195	0.0037
572.9126	0.0065
573.1057	0.0087
573.2987	0.0051
573.4917	0.0083
573.6847	0.0092
573.8777	0.0126
574.0707	0.0091
574.2636	0.0099
574.4566	0.0069
574.6495	0.0063
574.8424	0.0124
575.0353	0.0111
575.2281	0.0087
575.421	0.0059
575.6138	0.0045
575.8067	0.0099
575.9995	0.0073
576.1923	0.0076
576.385	0.0089
576.5778	0.0071
576.7706	0.0121
576.9633	0.0132
577.156	-0.0005
577.3487	0.0075
577.5414	0.0071
577.734	0.009
577.9267	0.0123
578.1193	0.0138
578.3119	0.0094
578.5045	0.0102
578.6971	0.0076
578.8897	0.0058
579.0822	0.0128
579.2747	0.0087
579.4673	0.0048
579.6598	0.0091
579.8522	0.0067
580.0447	0.008
580.2372	0.0101
580.4296	0.0109
580.622	0.006
580.8144	0.0074
581.0068	0.0072
581.1992	0.0108
581.3915	0
581.5839	0.0062
581.7762	0.0087
581.9685	0.0068
582.1608	0.0126
582.353	0.0081
582.5453	0.0076
582.7375	0.0097
582.9298	0.0042
583.122	0.0054
583.3142	0.0097
583.5063	0.0062
583.6985	0.0057
583.8906	0.0097
584.0827	0.0093
584.2749	0.0041
584.4669	0.0062
584.659	0.0082
584.8511	0.0131
585.0431	0.0085
585.2352	0.0067
585.4272	0.0069
585.6192	0.0071
585.8111	0.0098
586.0031	0.008
586.195	0.0055
586.387	0.0097
586.5789	0.0093
586.7708	0.0138
586.9627	0.0114
587.1545	0.0069
587.3464	0.0076
587.5382	0.0081
587.73	0.011
587.9218	0.0088
588.1136	0.004
588.3053	0.0088
588.4971	0.0068
588.6888	0.0049
588.8805	0.0046
589.0722	0.0161
589.2639	0.0096
589.4556	0.0087
589.6472	0.0152
589.8389	0.0091
590.0305	0.0024
590.2221	0.0084
590.4137	0.0051
590.6052	0.0074
590.7968	0.0088
590.9883	0.008
591.1798	0.0125
591.3713	0.005
591.5628	0.0105
591.7543	0.0073
591.9458	0.0078
592.1372	0.011
592.3286	0.0056
592.52	0.0098
592.7114	0.0059
592.9028	0.0164
593.0941	0.0115
593.2855	0.0097
593.4768	0.0161
593.6681	0.0106
593.8594	0.0121
594.0506	0.0077
594.2419	0.0048
594.4331	0.0062
594.6244	0.0008
594.8156	0.0017
595.0067	0.0043
595.1979	0.0026
595.3891	0.006
595.5802	0.0139
595.7713	0.0103
595.9624	0.014
596.1535	0.0107
596.3446	0.0057
596.5357	0.0071
596.7267	0.0097
596.9177	0.0089
597.1087	0.0057
597.2997	0.0058
597.4907	0.0012
597.6817	0.007
597.8726	0.0084
598.0635	0.0082
598.2544	0.0046
598.4453	0.0089
598.6362	0.005
598.827	0.0073
599.0179	0.0115
599.2087	0.0145
599.3995	0.0111
599.5903	0.0089
599.7811	0.0127
599.9718	0.0067
600.1626	0.0034
600.3533	0.0014
600.544	0.0084
600.7347	0.0025
600.9254	0.0098
601.116	0.0033
601.3067	0.0063
601.4973	0.0118
601.6879	0.0082
601.8785	0.0115
602.0691	0.006
602.2596	0.0092
602.4502	0.0087
602.6407	0.0089
602.8312	0.0108
603.0217	0.0067
603.2122	0.0082
603.4027	0.008
603.5931	0.0081
603.7835	0.0083
603.9739	0.0059
604.1643	0.0121
604.3547	0.0098
604.5451	0.0176
604.7354	0.0014
604.9257	0.0055
605.116	0.0048
605.3063	0.01
605.4966	0.0094
605.6869	0.0108
605.8771	0.0056
606.0673	0.0075
606.2575	0.0083
606.4477	0.014
606.6379	0.0046
606.8281	0.0079
607.0182	0.0085
607.2083	0.004
607.3985	0.0052
607.5885	0.0097
607.7786	0.0062
607.9687	0.0094
608.1587	0.0116
608.3488	0.0104
608.5388	-0.0018
608.7288	0.0025
608.9187	0.009
609.1087	0.0141
609.2986	0.0096
609.4886	0.0055
609.6785	0.0078
609.8684	0.0079
610.0582	0.0036
610.2481	-0.0017
610.4379	0.0079
610.6278	0.0034
610.8176	0.0099
611.0074	0.0052
611.1971	0.008
611.3869	0.0064
611.5766	0.0003
611.7664	0.0139
611.9561	0.011
612.1458	0.01
612.3354	0.0102
612.5251	0.009
612.7147	0.0122
612.9044	0.0031
613.094	0.0185
613.2836	0.0047
613.4731	0.0095
613.6627	0.0074
613.8522	0.0063
614.0417	0.0116
614.2313	0.012
614.4207	0.0107
614.6102	0.016
614.7997	0.0103
614.9891	0.0074
615.1785	0.0027
615.3679	0.0099
615.5573	0.0096
615.7467	0.0044
615.9361	0.0041
616.1254	0.0159
616.3147	0.0018
616.504	0.0064
616.6933	0.0095
616.8826	0.0018
617.0718	0.0135
617.2611	0.0058
617.4503	0.0075
617.6395	0.0054
617.8287	0.0071
618.0179	0.0037
618.207	0.0194
618.3961	0.0085
618.5853	0.0104
618.7744	0.0131
618.9634	0.0093
619.1525	0
619.3416	0.003
619.5306	0.0069
619.7196	0.0181
619.9086	0.0091
620.0976	-0.0004
620.2866	0.0124
620.4755	0.0083
620.6645	0.0104
620.8534	0.007
621.0423	0.0037
621.2312	0.0163
621.42	0.0107
621.6089	0.0065
621.7977	0.0176
621.9865	0.0111
622.1753	-0.0015
622.3641	0.0021
622.5529	-0.0011
622.7416	0.01
622.9303	0.0056
623.1191	0.0058
623.3078	0.0091
623.4964	0.0152
623.6851	0.0078
623.8737	0.004
624.0624	-0.0009
624.251	0.0026
624.4396	0.0015
624.6282	0.0142
624.8167	0.0052
625.0053	0.0024
625.1938	-0.0072
625.3823	0.0103
625.5708	0.0023
625.7593	0.0021
625.9477	0.0135
626.1362	0.0107
626.3246	0.0023
626.513	0.0194
626.7014	0.0149
626.8898	0.0128
627.0781	0.0043
627.2665	0.0117
627.4548	0.0075
627.6431	0.0147
627.8314	0.0127
628.0197	0.023
628.2079	-0.0044
628.3962	0.0121
628.5844	-0.0019
628.7726	0.0053
628.9608	0.0126
629.1489	-0.0023
629.3371	0.0013
629.5252	0.0121
629.7134	-0.0062
629.9015	0.0044
630.0895	-0.0028
630.2776	0.0162
630.4657	0.0149
630.6537	0.0103
630.8417	-0.0055
631.0297	0.0093
631.2177	0.0093
631.4057	0.0129
631.5936	0.0063
631.7815	0.0015
631.9695	0.0271
632.1574	0.014
632.3452	0.0139
632.5331	0.0053
632.7209	0.0159
632.9088	0.0025
633.0966	0.0349
633.2844	0.0112
633.4722	0.0112
633.6599	0.0177
633.8477	-0.0041
634.0354	0.0118
634.2231	0.0061
634.4108	-0.0008
634.5985	0.0078
634.7861	-0.0051
634.9738	-0.0061
635.1614	0.0078
635.349	0.0081
635.5366	0.0135
635.7242	0.0096
635.9117	0.01
636.0993	0.0061
636.2868	-0.0016
636.4743	-0.0008
636.6618	0.0071
636.8492	0.0126
637.0367	0.0012
637.2241	0.011
637.4115	0.0319
637.5989	0.0044
637.7863	0.0193
637.9737	0.0023
638.161	0.0012
638.3484	-0.0006
638.5357	0.0136
638.723	0.0108
638.9103	-0.0202
639.0975	-0.0145
639.2848	0.0066
639.472	0.0022
639.6592	-0.0047
639.8464	0.0043
640.0336	0.0085
640.2208	-0.0028
640.4079	-0.0059
640.595	0.0145
640.7821	0.0066
640.9692	0.0007
641.1563	0.0144
641.3434	0.0108
641.5304	0.0325
641.7174	0.0151
641.9044	-0.0112
642.0914	0.0259
642.2784	-0.0037
642.4653	0.0058
642.6523	0.0052
642.8392	-0.0028
643.0261	0.0141
643.213	0.0034
643.3999	0.0147
643.5867	0.0088
643.7735	-0.0016
643.9604	0.0035
644.1472	0.0017
644.3339	-0.0052
644.5207	-0.0041
644.7075	0.0059
644.8942	-0.014
645.0809	0.008
645.2676	0.0045
645.4543	0.0006
645.6409	0.0188
645.8276	-0.0049
646.0142	0.0155
646.2008	0.0062
646.3874	-0.0089
646.574	0.0085
646.7605	0.0101
646.9471	0.0007
647.1336	-0.0314
647.3201	-0.0011
647.5066	0.0072
647.6931	0.0003
647.8795	0.0063
648.0659	0.0111
648.2524	0.0157
648.4388	0.0117
648.6252	0.0154
648.8115	-0.0052
648.9979	0.0043
649.1842	0.0029
649.3705	0.0148
649.5568	-0.0142
649.7431	0.0005
649.9294	0.0019
650.1156	-0.0196
650.3018	0.0362
650.488	0.0089
650.6742	0.0145
650.8604	0.0086
651.0466	-0.0062
651.2327	-0.0029
651.4188	0.0099
651.6049	0.0329
651.791	0.0124
651.9771	0.018
652.1632	-0.0009
652.3492	0.0094
652.5352	0.0127
652.7212	0.0026
652.9072	0.0087
653.0932	0.0098
653.2791	0.0044
653.465	-0.0028
653.651	0.0042
653.8369	0.0112
654.0227	0.0014
654.2086	0.0021
654.3944	0.0246
654.5803	0.0003
654.7661	0.0064
654.9519	0.0032
655.1377	0
655.3234	0
655.5092	0
655.6949	0
655.8806	0
656.0663	0
656.2519	0
656.4376	0
656.6232	0
656.8088	0
656.9945	0
657.18	0
657.3656	0
657.5511	0
657.7367	0
657.9222	0
658.1077	0
658.2932	0
658.4786	0
658.6641	0
658.8495	0
659.0349	0
659.2203	0
659.4057	0.0176
659.591	0.258
659.7764	0.0328
659.9617	0.0109
660.147	0.0019
660.3323	0.0052
660.5176	0.0051
660.7028	-0.0006
660.888	0.0142
661.0733	0.0164
661.2585	0.0009
661.4436	0.0142
661.6288	0.0078
661.8139	0.0062
661.9991	0.0009
662.1842	0.0004
662.3693	0.0032
662.5544	0.0237
662.7394	-0.0084
662.9245	-0.0142
663.1095	-0.0004
663.2945	-0.0074
663.4795	-0.0061
663.6644	0.0155
663.8494	0.0173
664.0343	0.0027
664.2193	0.0049
664.4042	0.0207
664.589	-0.0033
664.7739	0.007
664.9587	-0.0154
665.1436	-0.0033
665.3284	0.0054
665.5132	-0.0234
665.698	0.0081
665.8827	0.0109
666.0675	0.0068
666.2522	0.0064
666.4369	-0.0002
666.6216	0.0132
666.8063	0.0005
666.9909	0.0125
667.1756	-0.01
667.3602	-0.0137
667.5448	-0.0008
667.7294	-0.0005
667.9139	-0.007
668.0985	0.0043
668.283	-0.0019
668.4675	0.0204
668.652	0.0176
668.8365	-0.0008
669.0209	0.0122
669.2054	-0.009
669.3898	-0.0011
669.5742	0.0353
669.7586	0.0185
669.943	0.0106
670.1273	0.0081
670.3117	0.0094
670.496	0.0112
670.6803	0.0049
670.8646	-0.0097
671.0488	0.0266
671.2331	-0.0077
671.4173	0.009
671.6015	0.0172
671.7857	0.0048
671.9699	0.0095
672.1541	-0.0043
672.3382	0.0184
672.5223	-0.0007
672.7064	0.0019
672.8905	-0.0088
673.0746	-0.0004
673.2587	0.0237
673.4427	0.0007
673.6267	0.0143
673.8107	0.03
673.9947	0.0103
674.1787	0.0219
674.3626	0.0139
674.5465	0.0239
674.7304	-0.0063
674.9143	0.0182
675.0982	0.0098
675.2821	-0.0013
675.4659	-0.0054
675.6497	0.004
675.8335	-0.012
676.0173	-0.0152
676.2011	0.0294
676.3849	0.0104
676.5686	0.0153
676.7523	0.0012
676.936	0.0109
677.1197	-0.0126
677.3034	0.028
677.487	0.0041
677.6706	0.0008
677.8542	0.0001
678.0378	0.0049
678.2214	-0.002
678.405	0.0099
678.5885	0.027
678.772	0.0148
678.9555	0.0041
679.139	0.0121
679.3225	0.0123
679.5059	-0.0037
679.6894	0.0104
679.8728	0.014
680.0562	-0.0113
680.2395	-0.0127
680.4229	-0.0009
680.6062	0.0062
680.7896	0.0038
680.9729	0.0212
681.1562	-0.0072
681.3394	-0.0084
681.5227	-0.0022
681.7059	0.0104
681.8891	0.002
682.0723	0.0007
682.2555	0.0215
682.4387	-0.0122
682.6218	0.0085
682.805	-0.0047
682.9881	0.0261
683.1712	0.0081
683.3542	0.0236
683.5373	-0.0172
683.7203	0.0161
683.9034	0.0001
684.0864	0.0003
684.2694	-0.0056
684.4523	0.0078
684.6353	0.0138
684.8182	-0.0069
685.0011	0.0107
685.184	0.0073
685.3669	0.0239
685.5498	0.0055
685.7326	-0.0036
685.9154	-0.0105
686.0982	0.0108
686.281	0.0047
686.4638	0.0045
686.6465	-0.0009
686.8293	-0.0059
687.012	0.0025
687.1947	0.0031
687.3774	0.004
687.56	-0.0001
687.7427	0.0062
687.9253	-0.0184
688.1079	0.0019
688.2905	-0.0259
688.4731	0.0203
688.6556	0.0078
688.8382	-0.0316
689.0207	0.0183
689.2032	0.0226
689.3857	0.0163
689.5681	0.0037
689.7506	0.0129
689.933	-0.0026
690.1154	0.0134
690.2978	-0.0021
690.4802	0.0127
690.6626	0.0022
690.8449	0.0105
691.0272	-0.015
691.2095	-0.0158
691.3918	-0.0123
691.5741	0.0105
691.7563	0.0047
691.9386	0.0223
692.1208	0.0001
692.303	0.0152
692.4852	-0.0015
692.6673	-0.0008
692.8495	-0.0045
693.0316	0.0004
693.2137	0.0032
693.3958	-0.013
693.5778	0.0004
693.7599	-0.0025
693.9419	-0.0222
694.1239	-0.0315
694.3059	0.0148
694.4879	0.0253
694.6699	-0.0004
694.8518	0.0001
695.0337	0.0255
695.2157	0.0229
695.3975	-0.0055
695.5794	-0.0068
695.7613	-0.0065
695.9431	-0.0217
696.1249	0.0036
696.3067	-0.0198
696.4885	0.0186
696.6703	0.0047
696.852	0.0026
697.0337	0.0178
697.2154	0.0042
697.3971	0.0001
697.5788	0.0117
697.7605	-0.0131
697.9421	0.0123
698.1237	0.0198
698.3053	-0.0231
698.4869	-0.0065
698.6685	-0.0108
698.85	0.0108
699.0315	0.0039
699.213	0.0224
699.3945	-0.0207
699.576	0.0143
699.7575	0.018
699.9389	-0.0106
700.1203	-0.0104
700.3017	0.0002
700.4831	0.0265
700.6645	0.0104
700.8458	0.0058
701.0271	0.0303
701.2084	0.0293
701.3897	0.0108
701.571	-0.0077
701.7523	0.0103
701.9335	0.0026
702.1147	0.0084
702.2959	-0.0274
702.4771	0.015
702.6583	-0.0135
702.8394	-0.0128
703.0205	0.0068
703.2016	-0.0002
703.3827	-0.0044
703.5638	0.0227
703.7449	0.0172
703.9259	-0.0161
704.1069	0.0014
704.2879	0.0101
704.4689	-0.0089
704.6499	0.0309
704.8308	-0.0121
705.0117	0.0142
705.1927	0.0012
705.3735	0.0056
705.5544	-0.0069
705.7353	0.0019
705.9161	0.0043
706.0969	0.0142
706.2777	0.01
706.4585	0.0011
706.6393	0.0059
706.82	0.007
707.0007	0.0027
707.1815	-0.0047
707.3621	0.0281
707.5428	0.0197
707.7235	-0.0188
707.9041	0.0103
708.0847	0.008
708.2653	0.02
708.4459	0.0067
708.6265	-0.0114
708.807	0.004
708.9875	-0.0174
709.168	-0.0005
709.3485	-0.0063
709.529	0.019
709.7095	-0.0223
709.8899	-0.0105
710.0703	0.0023
710.2507	0.0058
710.4311	-0.0179
710.6115	0.0283
710.7918	0.0227
710.9721	-0.0036
711.1524	-0.0236
711.3327	-0.0145
711.513	-0.0022
711.6932	-0.0077
711.8735	0.029
712.0537	-0.0142
712.2339	0.0088
712.4141	0.0108
712.5942	-0.0301
712.7744	0.0115
712.9545	0.0059
713.1346	0.0057
713.3147	0.0016
713.4947	0.0113
713.6748	0.0152
713.8548	0.0111
714.0348	-0.002
714.2148	0.008
714.3948	0.0206
714.5748	0.0048
714.7547	0.0459
714.9346	0.016
715.1145	0.0052
715.2944	-0.0236
715.4743	0.018
715.6541	0.0045
715.834	0.0257
716.0138	-0.004
716.1936	-0.031
716.3733	-0.0131
716.5531	0.0263
716.7328	0.0215
716.9126	0.012
717.0923	-0.0605
717.2719	0.0113
717.4516	0.0118
717.6312	-0.0065
717.8109	0.0309
717.9905	0.0183
718.1701	0.014
718.3496	-0.0014
718.5292	-0.0164
718.7087	-0.0199
718.8882	-0.0075
719.0677	0.0068
719.2472	0.0078
719.4267	-0.0061
719.6061	-0.0343
719.7856	-0.0006
719.965	0.0019
720.1443	0.0033
720.3237	-0.0096
720.5031	0.0106
720.6824	0.0071
720.8617	0.0066
721.041	0.0411
721.2203	-0.0222
721.3995	-0.0159
721.5788	-0.0002
721.758	-0.0031
721.9372	-0.0058
722.1164	0.0006
722.2956	-0.0119
722.4747	0.0194
722.6538	-0.0055
722.8329	0.008
723.012	0.0045
723.1911	0.0101
723.3702	0.0218
723.5492	0.0111
723.7282	0.0063
723.9072	0.0079
724.0862	0.0106
724.2652	-0.01
724.4441	-0.0079
724.623	0.0074
724.8019	-0.0094
724.9808	-0.0056
725.1597	0.0036
725.3385	0.0192
725.5174	-0.0002
725.6962	-0.0119
725.875	-0.0002
726.0538	0.0061
726.2325	0.016
726.4112	-0.0039
726.59	0.0037
726.7687	0.0006
726.9474	0.0059
727.126	0.02
727.3047	-0.0295
727.4833	0.0063
727.6619	-0.0139
727.8405	-0.0059
728.0191	0.0306
728.1976	-0.0051
728.3762	0.0219
728.5547	-0.0117
728.7332	-0.0073
728.9116	-0.0138
729.0901	0.0181
729.2686	-0.0008
729.447	-0.0064
729.6254	-0.0089
729.8038	0.0231
729.9821	-0.0156
730.1605	0.0086
730.3388	-0.0069
730.5171	0.0098
730.6954	0.0014
730.8737	0.0011
731.0519	-0.0097
731.2302	0.0246
731.4084	0.0082
731.5866	0.0013
731.7648	0.0065
731.9429	0.0221
732.1211	0.0031
732.2992	0.0048
732.4773	-0.0097
732.6554	-0.0055
732.8335	0.014
733.0115	0.0038
733.1896	-0.0187
733.3676	0.0125
733.5456	0.0182
733.7235	-0.0014
733.9015	0.0244
734.0794	0.0043
734.2574	-0.0085
734.4353	0.0054
734.6131	0.0272
734.791	0.0104
734.9689	-0.0086
735.1467	-0.0059
735.3245	0.0295
735.5023	0.0111
735.68	-0.0053
735.8578	-0.0031
736.0355	-0.0028
736.2132	0.0108
736.3909	0.0292
736.5686	0.0031
736.7463	-0.0193
736.9239	0.0119
737.1015	0.007
737.2791	0.0246
737.4567	0.0038
737.6343	-0.0041
737.8118	0.0226
737.9894	-0.0112
738.1669	-0.0055
738.3444	0.0126
738.5218	-0.0299
738.6993	0.0125
738.8767	-0.0071
739.0541	-0.0134
739.2315	0.0073
739.4089	0.0266
739.5863	-0.0127
739.7636	0.0047
739.9409	-0.0259
740.1182	-0.0063
740.2955	0.0188
740.4728	-0.0279
740.65	-0.0126
740.8272	0.0229
741.0044	-0.0128
741.1816	0.0332
741.3588	-0.0136
741.5359	0.0083
741.7131	-0.0163
741.8902	-0.018
742.0673	-0.0039
742.2444	0.0047
742.4214	0.0098
742.5985	-0.0048
742.7755	-0.0002
742.9525	-0.019
743.1295	-0.0456
743.3064	0.0161
743.4834	0.0338
743.6603	0.0505
743.8372	-0.0621
744.0141	0.0354
744.191	-0.0012
744.3678	-0.0363
744.5446	0.0112
744.7215	0.0078
744.8982	-0.0011
745.075	0.0355
745.2518	0.0293
745.4285	0.0276
745.6052	-0.0161
745.7819	0.0183
745.9586	0.0239
746.1353	-0.0143
746.3119	0.0505
746.4885	0.0223
746.6651	0.0223
746.8417	-0.011
747.0183	0.0438
747.1948	0.0242
747.3714	-0.0049
747.5479	0.0043
747.7244	-0.0098
747.9008	0.0144
748.0773	0.035
748.2537	-0.0019
748.4301	0.0091
748.6065	-0.0144
748.7829	-0.0081
748.9593	0.0021
749.1356	-0.0066
749.3119	0.0053
749.4882	0.007
749.6645	0.0152
749.8408	0.0299
750.017	0.0113
750.1933	-0.0255
750.3695	0.0064
750.5457	-0.0012
750.7218	-0.004
750.898	-0.0002
751.0741	-0.0133
751.2502	0.0111
751.4263	-0.0074
751.6024	0.009
751.7784	-0.0112
751.9545	0.0152
752.1305	0.0082
752.3065	0.0435
752.4825	0.0211
752.6584	0.0006
752.8344	-0.0136
753.0103	0.0053
753.1862	0.0043
753.3621	0.0084
753.5379	-0.0025
753.7138	-0.0008
753.8896	0.0108
754.0654	-0.0107
754.2412	0.0114
754.417	0.0239
754.5927	0.0105
754.7685	0.0273
754.9442	0.0239
755.1199	0.0069
755.2956	0.0067
755.4712	-0.0113
755.6469	-0.0001
755.8225	0.0055
755.9981	0.0045
756.1736	0.0202
756.3492	0.0026
756.5248	0.0146
756.7003	0.0061
756.8758	0.022
757.0513	0.0105
757.2267	-0.003
757.4022	-0.0076
757.5776	0.0047
757.753	0.0131
757.9284	-0.0111
758.1038	0.0073
758.2791	0.0018
758.4545	-0.0154
758.6298	0.0082
758.8051	0.0113
758.9803	0.0156
759.1556	-0.0107
759.3308	-0.0026
759.506	0.0097
759.6812	0.0153
759.8564	0.0084
760.0316	-0.0032
760.2067	0.0146
760.3819	-0.0013
760.557	0.006
760.732	-0.0055
760.9071	0.021
761.0821	-0.0144
761.2572	0.0142
761.4322	0.0317
761.6072	-0.0109
761.7821	-0.0322
761.9571	0.0103
762.132	0.009
762.3069	0.0041
762.4818	0.0114
762.6567	0.0162
762.8316	0.0215
763.0064	0.0141
763.1812	0.0098
763.356	-0.0211
763.5308	0.0158
763.7055	0.0071
763.8803	0.0179
764.055	-0.0042
764.2297	-0.0226
764.4044	-0.0132
764.579	-0.0098
764.7537	0.0118
764.9283	0.0196
765.1029	-0.0039
765.2775	0.003
765.4521	0.0127
765.6266	-0.0054
765.8011	0.0084
765.9756	0.0071
766.1501	-0.0019
766.3246	0.0197
766.4991	0.0214
766.6735	0.0358
766.8479	-0.0087
767.0223	0.0244
767.1967	0.0194
767.371	0.0091
767.5454	0.0184
767.7197	0.0289
767.894	0.0162
768.0683	0.0193
768.2425	0.024
768.4168	0.0069
768.591	-0.003
768.7652	-0.02
768.9394	-0.0202
769.1135	-0.0454
769.2877	0.0019
769.4618	0.0336
769.6359	-0.0023
769.81	0.0212
769.984	-0.0058
770.1581	0.0158
770.3321	0.0238
770.5061	-0.0083
770.6801	0.0227
770.8541	0.0054
771.028	0.0437
771.202	0.0236
771.3759	0.0127
771.5498	0.0212
771.7236	0.0303
771.8975	0.0155
772.0713	0.0048
772.2451	-0.0434
772.4189	0.0121
772.5927	-0.0381
772.7665	-0.0057
772.9402	0.0179
773.1139	0.0069
773.2876	-0.0101
773.4613	0.0129
773.635	0.0291
773.8086	0.0416
773.9822	-0.0021
774.1558	0.0646
774.3294	0.001
774.503	0.0087
774.6765	0.0163
774.8501	-0.0151
775.0236	0.0309
775.1971	0.0175
775.3705	-0.0073
775.544	-0.0707
775.7174	-0.0045
775.8908	0.0369
776.0642	0.0241
776.2376	0.0021
776.4109	0.0334
776.5843	-0.0193
776.7576	0.0107
776.9309	0.0166
777.1041	-0.0287
777.2774	0.0088
777.4506	-0.0081
777.6238	-0.0555
777.797	-0.0032
777.9702	-0.0062
778.1434	-0.0083
778.3165	-0.0254
778.4896	-0.0456
778.6627	-0.0044
778.8358	-0.0072
779.0089	-0.031
779.1819	0.0122
779.3549	0.0097
779.5279	-0.0042
779.7009	0.0926
779.8739	0.0209
780.0468	0.0333
780.2197	-0.028
780.3926	-0.0433
780.5655	0.0161
780.7384	0.007
780.9112	0.0059
781.0841	0.0405
781.2569	0.013
781.4297	0.0053
781.6024	0.0021
781.7752	0.0351
781.9479	0.0759
782.1206	0.0337
782.2933	-0.0014
782.466	0.0165
782.6386	-0.0127
782.8113	0.002
782.9839	-0.0102
783.1565	0.0148
783.329	-0.0123
783.5016	-0.0065
783.6741	-0.0064
783.8466	0.0387
784.0191	0.0301
784.1916	-0.0051
784.3641	-0.0365
784.5365	-0.0011
784.7089	-0.0402
784.8813	0.0745
785.0537	0.0301
785.2261	0.017
785.3984	-0.001
785.5707	0.0004
785.743	0.0159
785.9153	0.0326
786.0876	-0.0019
786.2598	-0.0172
786.432	-0.0235
786.6042	0.0331
786.7764	-0.0237
786.9486	-0.016
787.1207	0.0284
787.2928	0.0177
787.4649	-0.0124
787.637	0.0015
787.8091	-0.0186
787.9811	0.0109
788.1532	0.0196
788.3252	0.0056
788.4972	-0.0003
788.6691	0.0056
788.8411	0.0045
789.013	0.0105
789.1849	-0.0039
789.3568	0.0173
789.5287	0.0623
789.7005	-0.0652
789.8723	-0.0607
790.0442	-0.0412
790.2159	-0.0256
790.3877	0.0252
790.5595	0.0306
790.7312	0.0086
790.9029	0.0173
791.0746	-0.0161
791.2463	-0.0489
791.4179	-0.033
791.5896	0.0035
791.7612	0.0273
791.9328	0.0425
792.1044	-0.0249
792.2759	0.0094
792.4474	-0.0188
792.619	-0.0162
792.7905	0.0313
792.9619	-0.0036
793.1334	0.0135
793.3048	0.0944
793.4762	0.0264
793.6476	-0.0559
793.819	0.0371
793.9904	0.004
794.1617	-0.0144
794.333	-0.0106
794.5043	-0.0138
794.6756	-0.0145
794.8469	0.0241
795.0181	0.0079
795.1893	0.049
795.3605	0.0235
795.5317	0.002
795.7029	-0.0304
795.874	0.0128
796.0452	0.015
796.2163	0.0005
796.3873	0.0673
796.5584	0.0667
796.7294	-0.0337
796.9005	-0.0179
797.0715	0.0136
797.2425	0.1069
797.4134	0.0239
797.5844	0.0196
797.7553	-0.0768
797.9262	0.0549
798.0971	0.0251
798.2679	-0.0366
798.4388	0.0225
798.6096	0.0559
798.7804	0.0496
798.9512	0.0233
799.122	-0.0291
799.2927	0.0157
799.4635	-0.0615
799.6342	-0.0416
799.8049	0.0464
799.9755	-0.0885
800.1462	0.0131
800.3168	0.0406
800.4874	-0.1037
800.658	-0.0151
800.8286	0.1075
800.9991	-0.0023
801.1696	-0.0383
801.3402	-0.059
801.5106	-0.1083
801.6811	-0.08
801.8516	0.0758
802.022	-0.0622
802.1924	-0.0665
802.3628	0.001
802.5332	0.1133
802.7035	0.032
802.8739	-0.0236
803.0442	-0.028
803.2145	0.0192
803.3847	0.0329
803.555	-0.0058
803.7252	-0.0726
803.8954	-0.0041
804.0656	-0.0271
804.2358	0.041
804.4059	0.0086
804.5761	0.0304
804.7462	-0.0663
804.9163	0.0201
805.0864	-0.0162
805.2564	0.0576
805.4264	0.0025
805.5965	0.0092
805.7665	0.0559
805.9364	-0.0115
806.1064	-0.0155
806.2763	0.0139
806.4462	-0.006
806.6161	-0.0151
806.786	0.0025
806.9559	0.0402
807.1257	-0.0135
807.2955	-0.0236
807.4653	0.009
807.6351	0.0581
807.8048	0.0544
807.9746	-0.0317
808.1443	-0.0166
808.314	0.0259
808.4837	-0.0283
808.6533	-0.0295
808.8229	0.0863
808.9926	0.0159
809.1622	-0.02
809.3317	-0.0556
809.5013	-0.0359
809.6708	0.0248
809.8403	0.0691
810.0098	-0.0415
810.1793	-0.0686
810.3488	0.0227
810.5182	0.0835
810.6876	-0.0048
810.857	-0.0268
811.0264	-0.062
811.1958	0.1017
811.3651	-0.05
811.5344	0.157
811.7037	0.1093
811.873	-0.0058
812.0422	-0.0242
812.2115	-0.0597
812.3807	-0.0704
812.5499	0.0626
812.7191	0.2554
812.8882	-0.0259
813.0574	-0.009
813.2265	-0.0225
813.3956	-0.0093
813.5646	0.0127
813.7337	0.0364
813.9027	-0.1218
814.0718	0.0283
814.2407	0.0761
814.4097	0.076
814.5787	0.1124
814.7476	-0.0261
814.9165	0.0973
815.0854	0.0028
815.2543	-0.0348
815.4232	0.0414
815.592	0.0273
815.7608	-0.0441
815.9296	0.1873
816.0984	-0.0087
816.2671	0.0722
816.4359	0.1071
816.6046	0.0746
816.7733	0.0122
816.942	-0.0247
817.1106	0.0575
817.2793	-0.01
817.4479	-0.0624
817.6165	0.0632
817.785	0.022
817.9536	-0.1459
818.1221	-0.0747
818.2906	-0.1181
818.4591	0.0506
818.6276	0.076
818.7961	-0.0875
818.9645	0.1747
819.1329	0.0511
819.3013	-0.1201
819.4697	-0.0134
819.638	0.0023
819.8064	0.0218
819.9747	-0.0208
820.143	0.0182
820.3113	0.048
820.4795	-0.0782
820.6477	0.0012
820.816	0.0011
820.9842	0.1828
821.1523	0.0608
821.3205	-0.001
821.4886	-0.0151
821.6567	-0.02
821.8248	0.0475
821.9929	-0.1725
822.1609	0.0051
822.329	0.0045
822.497	-0.0857
822.665	-0.0356
822.833	0.0497
823.0009	-0.045
823.1688	0.0195
823.3367	-0.1769
823.5046	0.1093
823.6725	-0.0391
823.8404	0.5243
824.0082	-0.2005
824.176	-0.0075
824.3438	0.176
824.5116	-0.0203
824.6793	0.1163
824.847	0.0333
825.0147	0.0742
825.1824	-0.0467
825.3501	-0.0882
825.5177	-0.0188
825.6854	0.0025
825.853	-0.0478
826.0206	-0.1285
826.1881	0.153
826.3557	0.0089
826.5232	0.0682
826.6907	-0.0262
826.8582	0.0522
827.0257	0.4142
827.1931	0.0866
827.3605	-0.0488
827.528	0.0026
827.6953	-0.2078
827.8627	-0.0942
828.03	0.0406
828.1974	0.063
828.3647	0.0982
828.532	0.1066
828.6992	0.0961
828.8665	-0.1248
829.0337	0.1035
829.2009	-0.0535
829.3681	-0.0171
829.5352	-0.4491
829.7024	0.0435
829.8695	-0.0204
830.0366	0.0788
830.2037	0.1589
830.3707	-0.0724
830.5378	0.1786
830.7048	-0.1119
830.8718	0.1508
831.0388	-0.1016
831.2057	0.2007
831.3727	-0.0215
831.5396	0.0073
831.7065	-0.4834
831.8734	-0.061
832.0402	0.0883
832.2071	-0.7002
832.3739	-0.2109
832.5407	-1.837
832.7075	-0.4978
832.8742	0.5884
833.041	-0.0262
833.2077	0.0738
833.3744	-0.018
833.541	0.1645
833.7077	-0.1749
833.8743	0.0149
834.0409	0.0884
834.2075	0.0712
834.3741	-0.17
834.5407	0.1758
834.7072	0.0226
834.8737	0.2273
835.0402	0.3664
835.2067	-0.133
835.3731	-0.184
835.5395	0.1109
835.706	-0.3107
835.8723	-0.1379
836.0387	-0.0445
836.2051	-0
836.3714	0.44
836.5377	-0.0629
836.704	0.1736
836.8703	-0.0915
837.0365	-0.8111
837.2027	0.0928
837.3689	0.2881
837.5351	0.1236
837.7013	0.1068
837.8674	-0.5368
838.0335	-0.056
838.1997	-0.0593
838.3657	0.9684
838.5318	-0.4809
838.6978	-0
838.8639	-0.5239
839.0299	0.0393
839.1958	0.0777
839.3618	0.7289
839.5277	0.4545
839.6937	-0.1451
839.8596	-0.1247
840.0254	-0.2017
840.1913	-0.3582
840.3571	-0
840.523	-1.5237
840.6888	-0.1687
840.8545	-0.2525
841.0203	-0.0079
841.186	0.1648
841.3517	-0.2767
841.5174	0.0299
841.6831	0.1598
841.8488	0.1433
842.0144	0.943
842.18	0.4469
842.3456	-0.5637
842.5112	-0
842.6767	-0.0633
842.8422	-0.0604
843.0077	-0.0892
843.1732	-0.2438
843.3387	0.8068
843.5042	-0
843.6696	0.1533
843.835	-0.2399
844.0004	-0.3489
844.1657	-0
844.3311	-0.1514
844.4964	-0.1831
844.6617	-0
844.827	-0
844.9923	0.3949
845.1575	-0.3338
845.3227	-0.4446
845.4879	-0.2014
845.6531	0.0139
845.8183	-0.0475
845.9834	0.6391
846.1485	0.1507
846.3136	-0.2385
846.4787	0.0612
846.6438	0.2102
846.8088	-0
846.9738	-0
847.1388	0.0328
847.3038	0.2569
847.4687	0.5621
847.6337	-0
847.7986	0.1038
847.9635	-0.1704
848.1284	-0
848.2932	0.1758
848.458	-0
848.6228	-0
848.7876	-0
848.9524	0.2254
849.1172	-1.959
849.2819	-0
849.4466	0.6763
849.6113	0.4262
849.7759	-0
849.9406	-0.2063
850.1052	-1.2331
850.2698	-0
850.4344	-0.9061
850.599	0.0069
850.7635	1.093
850.928	-0
851.0925	0.3541
851.257	-0.079
851.4215	2.5647
851.5859	0.4725
851.7503	-0
851.9147	-0.1994
852.0791	-0.2207
852.2434	0.1324
852.4078	-0
852.5721	1.0664
852.7364	0.1126
852.9007	-0.0129
853.0649	-0
853.2291	-0.0883
853.3934	-0
853.5575	-0.2249
853.7217	0.2169
853.8859	0.4136
854.05	-0.4799
854.2141	0.6264
854.3782	0.5577
854.5423	-0.3241
854.7063	-0.0883
854.8703	0.3609
855.0343	0.1233
855.1983	-0.2178
855.3623	0.3684
855.5262	-0
855.6901	0.0154
855.854	0.2638
856.0179	-0.3308
856.1818	0.6456
856.3456	-0
856.5094	-0.7392
856.6732	-0
856.837	-0.9511
857.0008	-0
857.1645	-0.1566
857.3282	0.0152
857.4919	0.1106
857.6556	-0.1713
857.8192	-0.0754
857.9828	-0.3006
858.1465	0.9151
858.31	-0
858.4736	-0.5611
858.6372	0.0906
858.8007	-0.1942
858.9642	0.1374
859.1277	0.4141
859.2911	-0.7423
859.4546	-0
859.618	0.385
859.7814	0.5965
859.9448	-0
860.1081	-0
860.2715	-1.8881
860.4348	0.742
860.5981	0.3757
860.7614	-0
860.9246	-0.2304
861.0879	-0
861.2511	-0
861.4143	-0
861.5774	0.3085
861.7406	-0.1143
861.9037	-0
862.0668	-0.5173
862.2299	-0
862.393	-0
862.556	1.0291
862.7191	-0.2558
862.8821	0.1061
863.0451	0.6168
863.208	-0
863.371	-0.68
863.5339	0.3175
863.6968	-0
863.8597	-0.3881
864.0225	-0.0498
864.1854	0.4011
864.3482	-1.1451
864.511	0.0554
864.6737	-0
864.8365	0.0044
864.9992	0.1071
865.1619	-0.2999
865.3246	-1.6335
865.4873	-0
865.65	1.5628
865.8126	-0
865.9752	-0.0087
866.1378	-0.028
866.3004	-0.2849
866.4629	-1.8261
866.6254	2.143
866.7879	0.1968
866.9504	-0
867.1129	-0.3687
867.2753	0.105
867.4377	0.9671
867.6001	-0.7175
867.7625	-0.2024
867.9249	-0.0947
868.0872	-0.2606
868.2495	-0
868.4118	0.4483
868.5741	-0
868.7363	0.5714
868.8986	-0.536
869.0608	-0.256
869.223	-0.8759
869.3851	-0
869.5473	0.4467
869.7094	-0
869.8715	-0
870.0336	-0.0538
870.1957	-0
870.3577	0.9608
870.5197	-0.1133
870.6817	-0.9603
870.8437	-0.0257
871.0057	-0
871.1676	0.2307
871.3295	-0
871.4914	-1.8102
871.6533	-0.4512
871.8151	0.1362
871.977	-0.2999
872.1388	-0.5347
872.3006	-0.4575
872.4623	-0.5633
872.6241	-0
872.7858	0.7793
872.9475	-0
873.1092	-0.072
873.2709	1.1892
873.4325	-0
873.5941	-0.0383
873.7557	1.4363
873.9173	-0
874.0789	0.0681
874.2404	-0
874.4019	0.053
874.5634	-0
874.7249	-0
874.8863	-0.1377
875.0478	-0.228
875.2092	0.1831
875.3706	-0
875.5319	-0
875.6933	0.1222
875.8546	-0
876.0159	0.2331
876.1772	-0.3424
876.3385	-0
876.4997	0.3508
876.6609	0.8836
876.8221	-0
876.9833	0.5107
877.1445	0.8111
877.3056	-0.9319
877.4667	-0
877.6278	0.1098
877.7889	1.4255
877.9499	0.1689
878.111	-0.3687
878.272	-0.3646
878.433	-0.1337
878.5939	-0.0421
878.7549	-0
878.9158	-0
879.0767	0.9046
879.2376	0.3936
879.3984	0.4237
879.5593	0.0952
879.7201	-1.5369
879.8809	-0
880.0417	-0.1916
880.2024	-0
880.3632	-0.3689
880.5239	0.1362
880.6846	-0.3692
880.8452	0.1832
881.0059	-0
881.1665	-0.1861
881.3271	0.3128
881.4877	-0.0296
881.6483	-1.2623
881.8088	-0
881.9693	-0
882.1298	-0
882.2903	-0
