Data from D4ACN5uM420nmA_Absorbance_14-37-08-006.txt Node
Date: Fri Feb 21 14:37:08 GMT 2025
User: LASERRRRR
Spectrometer: FLMT03099
Trigger mode: 0
Integration Time (sec): 1.500000E-2
Scans to average: 1
Electric dark correction enabled: true
Nonlinearity correction enabled: false
Boxcar width: 0
XAxis mode: Wavelengths
Number of Pixels in Spectrum: 3648
>>>>>Begin Spectral Data<<<<<
179.3399	-0.3243
179.5586	-0.3243
179.7771	-0.3243
179.9957	-0.2221
180.2143	-0
180.4329	0.5929
180.6514	-0
180.8699	0.6548
181.0885	-0
181.307	-0.2164
181.5255	0.0508
181.744	0.3188
181.9625	0.7436
182.181	-0.179
182.3994	-0.6381
182.6179	-0
182.8363	-0
183.0547	0.6298
183.2732	-0.0055
183.4916	0.2903
183.71	0.264
183.9284	0.054
184.1467	0.0722
184.3651	0.2075
184.5835	0.2059
184.8018	0.1386
185.0201	0.1092
185.2385	0.3547
185.4568	0.2227
185.6751	0.2572
185.8934	0.1948
186.1117	-0.1038
186.3299	0.1719
186.5482	0.1382
186.7664	0.3621
186.9847	0.0574
187.2029	0.136
187.4211	0.0363
187.6393	0.1909
187.8575	0.4039
188.0757	14.7312
188.2939	0.0062
188.512	0.1467
188.7302	0.2511
188.9483	0.2456
189.1665	0.6535
189.3846	0.3193
189.6027	0.2542
189.8208	0.275
190.0389	0.3314
190.257	0.0603
190.475	0.0515
190.6931	0.3065
190.9111	0.1702
191.1292	0.0888
191.3472	0.1522
191.5652	0.1831
191.7832	0.0399
192.0012	0.1073
192.2192	0.19
192.4371	0.2217
192.6551	0.1117
192.873	0.0806
193.091	0.117
193.3089	0.2089
193.5268	0.2201
193.7447	0.1409
193.9626	0.2064
194.1805	0.1847
194.3984	0.2128
194.6162	0.2149
194.8341	0.2445
195.0519	0.1514
195.2697	0.2467
195.4875	0.3829
195.7054	0.2955
195.9231	0.2514
196.1409	0.3333
196.3587	0.2774
196.5765	0.3313
196.7942	0.2751
197.012	0.2657
197.2297	0.3287
197.4474	0.3134
197.6651	0.3219
197.8828	0.3388
198.1005	0.3676
198.3182	0.3631
198.5358	0.389
198.7535	0.3722
198.9711	0.3663
199.1888	0.4146
199.4064	0.3904
199.624	0.3793
199.8416	0.3372
200.0592	0.4217
200.2767	0.3907
200.4943	0.437
200.7119	0.4162
200.9294	0.3881
201.1469	0.3821
201.3645	0.4737
201.582	0.4226
201.7995	0.3755
202.017	0.4441
202.2344	0.4028
202.4519	0.4277
202.6694	0.4004
202.8868	0.4065
203.1042	0.3784
203.3217	0.3484
203.5391	0.3918
203.7565	0.3762
203.9739	0.3772
204.1913	0.357
204.4086	0.3719
204.626	0.3502
204.8433	0.3714
205.0607	0.3675
205.278	0.3484
205.4953	0.351
205.7126	0.3603
205.9299	0.3275
206.1472	0.3456
206.3644	0.3513
206.5817	0.3288
206.7989	0.3379
207.0162	0.3116
207.2334	0.341
207.4506	0.3078
207.6678	0.327
207.885	0.2857
208.1022	0.3203
208.3194	0.2633
208.5365	0.2906
208.7537	0.2649
208.9708	0.2768
209.1879	0.3011
209.405	0.2884
209.6222	0.2758
209.8392	0.2945
210.0563	0.2856
210.2734	0.248
210.4905	0.26
210.7075	0.2607
210.9245	0.2531
211.1416	0.2738
211.3586	0.2676
211.5756	0.2633
211.7926	0.2674
212.0096	0.2672
212.2265	0.2668
212.4435	0.257
212.6604	0.2535
212.8774	0.2538
213.0943	0.2562
213.3112	0.2586
213.5281	0.2353
213.745	0.2561
213.9619	0.2251
214.1788	0.2579
214.3956	0.2524
214.6125	0.2488
214.8293	0.2323
215.0461	0.2354
215.2629	0.2558
215.4798	0.2344
215.6965	0.2349
215.9133	0.2369
216.1301	0.2425
216.3469	0.2526
216.5636	0.2463
216.7803	0.2543
216.9971	0.2694
217.2138	0.2485
217.4305	0.2483
217.6472	0.2279
217.8639	0.237
218.0805	0.2647
218.2972	0.2545
218.5138	0.252
218.7305	0.2525
218.9471	0.248
219.1637	0.2761
219.3803	0.2776
219.5969	0.249
219.8135	0.2573
220.0301	0.2557
220.2466	0.2681
220.4632	0.2529
220.6797	0.2641
220.8962	0.2655
221.1127	0.2594
221.3292	0.2622
221.5457	0.2766
221.7622	0.2652
221.9787	0.2641
222.1951	0.2768
222.4116	0.2779
222.628	0.2885
222.8444	0.2846
223.0608	0.2734
223.2772	0.2781
223.4936	0.2795
223.71	0.294
223.9264	0.2794
224.1427	0.2947
224.3591	0.2945
224.5754	0.2845
224.7917	0.2973
225.008	0.2959
225.2243	0.3107
225.4406	0.3003
225.6569	0.3061
225.8732	0.3141
226.0894	0.3053
226.3057	0.304
226.5219	0.3094
226.7381	0.3319
226.9543	0.3194
227.1705	0.3167
227.3867	0.3169
227.6029	0.3218
227.8191	0.3438
228.0352	0.3419
228.2513	0.3446
228.4675	0.3381
228.6836	0.3634
228.8997	0.3452
229.1158	0.3575
229.3319	0.3595
229.548	0.3585
229.764	0.3547
229.9801	0.3721
230.1961	0.3708
230.4121	0.362
230.6282	0.3866
230.8442	0.3929
231.0602	0.3833
231.2761	0.3788
231.4921	0.3925
231.7081	0.3815
231.924	0.398
232.14	0.4006
232.3559	0.408
232.5718	0.4079
232.7877	0.4153
233.0036	0.4182
233.2195	0.41
233.4353	0.4181
233.6512	0.4222
233.867	0.4209
234.0829	0.4355
234.2987	0.4323
234.5145	0.4321
234.7303	0.4312
234.9461	0.4504
235.1619	0.442
235.3776	0.4256
235.5934	0.4343
235.8091	0.443
236.0249	0.4393
236.2406	0.4444
236.4563	0.4505
236.672	0.4444
236.8877	0.4506
237.1034	0.4493
237.319	0.4436
237.5347	0.4513
237.7503	0.45
237.966	0.4512
238.1816	0.4469
238.3972	0.4653
238.6128	0.4669
238.8284	0.4712
239.0439	0.4537
239.2595	0.4659
239.475	0.4691
239.6906	0.4663
239.9061	0.4679
240.1216	0.4676
240.3371	0.468
240.5526	0.4611
240.7681	0.4668
240.9836	0.4682
241.199	0.4685
241.4145	0.4538
241.6299	0.4508
241.8453	0.4443
242.0607	0.4375
242.2761	0.4374
242.4915	0.4372
242.7069	0.4257
242.9223	0.4287
243.1376	0.4125
243.353	0.4046
243.5683	0.4024
243.7836	0.3959
243.9989	0.3887
244.2142	0.3823
244.4295	0.3835
244.6448	0.3686
244.86	0.361
245.0753	0.3568
245.2905	0.3416
245.5057	0.3391
245.721	0.3437
245.9362	0.3255
246.1514	0.3287
246.3665	0.32
246.5817	0.3051
246.7969	0.3097
247.012	0.2929
247.2271	0.3006
247.4423	0.2884
247.6574	0.2847
247.8725	0.2826
248.0876	0.2702
248.3026	0.2776
248.5177	0.2618
248.7328	0.2537
248.9478	0.255
249.1628	0.2509
249.3779	0.2501
249.5929	0.2447
249.8079	0.2478
250.0228	0.2364
250.2378	0.2359
250.4528	0.236
250.6677	0.2293
250.8827	0.2233
251.0976	0.218
251.3125	0.2254
251.5274	0.2143
251.7423	0.2122
251.9572	0.2188
252.172	0.2088
252.3869	0.2097
252.6017	0.21
252.8166	0.2042
253.0314	0.2024
253.2462	0.1968
253.461	0.2044
253.6758	0.1972
253.8906	0.1998
254.1053	0.195
254.3201	0.1974
254.5348	0.1886
254.7496	0.1882
254.9643	0.1955
255.179	0.1949
255.3937	0.1975
255.6083	0.1971
255.823	0.1889
256.0377	0.1869
256.2523	0.1855
256.467	0.1893
256.6816	0.1845
256.8962	0.1886
257.1108	0.187
257.3254	0.19
257.54	0.1848
257.7545	0.1812
257.9691	0.1899
258.1836	0.1781
258.3981	0.1827
258.6127	0.1814
258.8272	0.1895
259.0417	0.1831
259.2561	0.179
259.4706	0.1791
259.6851	0.178
259.8995	0.1825
260.114	0.1764
260.3284	0.1759
260.5428	0.1804
260.7572	0.1757
260.9716	0.1831
261.186	0.1822
261.4003	0.1794
261.6147	0.1795
261.829	0.1792
262.0433	0.1885
262.2577	0.1812
262.472	0.1845
262.6863	0.1903
262.9005	0.1793
263.1148	0.1862
263.3291	0.1862
263.5433	0.1894
263.7576	0.1867
263.9718	0.185
264.186	0.187
264.4002	0.1812
264.6144	0.1952
264.8286	0.1894
265.0427	0.1891
265.2569	0.1985
265.471	0.186
265.6851	0.1885
265.8993	0.1881
266.1134	0.1919
266.3275	0.1838
266.5415	0.1914
266.7556	0.1926
266.9697	0.1955
267.1837	0.1941
267.3978	0.185
267.6118	0.1852
267.8258	0.1939
268.0398	0.1899
268.2538	0.1946
268.4677	0.1893
268.6817	0.1871
268.8957	0.1831
269.1096	0.1785
269.3235	0.1818
269.5374	0.1874
269.7514	0.1856
269.9652	0.1871
270.1791	0.1801
270.393	0.1818
270.6068	0.1874
270.8207	0.1817
271.0345	0.1785
271.2483	0.1818
271.4622	0.1806
271.676	0.182
271.8897	0.181
272.1035	0.1879
272.3173	0.1824
272.531	0.1844
272.7448	0.1846
272.9585	0.1841
273.1722	0.1788
273.3859	0.1818
273.5996	0.1809
273.8133	0.1892
274.0269	0.1811
274.2406	0.1888
274.4542	0.1834
274.6679	0.1853
274.8815	0.1922
275.0951	0.1937
275.3087	0.1948
275.5223	0.1835
275.7358	0.191
275.9494	0.1929
276.1629	0.1988
276.3765	0.1945
276.59	0.1905
276.8035	0.1936
277.017	0.1949
277.2305	0.1923
277.444	0.1901
277.6574	0.1979
277.8709	0.1954
278.0843	0.1965
278.2978	0.1949
278.5112	0.1966
278.7246	0.19
278.938	0.1925
279.1513	0.1991
279.3647	0.1933
279.5781	0.1937
279.7914	0.1929
280.0047	0.1925
280.2181	0.1875
280.4314	0.1928
280.6447	0.1929
280.8579	0.1847
281.0712	0.1923
281.2845	0.1899
281.4977	0.1958
281.711	0.1864
281.9242	0.1927
282.1374	0.1904
282.3506	0.1967
282.5638	0.1898
282.7769	0.1858
282.9901	0.19
283.2033	0.1911
283.4164	0.1897
283.6295	0.1865
283.8426	0.1886
284.0557	0.191
284.2688	0.1906
284.4819	0.1879
284.695	0.1916
284.908	0.1841
285.1211	0.194
285.3341	0.1904
285.5471	0.1964
285.7601	0.1922
285.9731	0.1955
286.1861	0.1949
286.3991	0.1938
286.612	0.191
286.825	0.195
287.0379	0.1888
287.2508	0.1922
287.4637	0.1928
287.6766	0.1904
287.8895	0.1941
288.1024	0.1937
288.3152	0.1961
288.5281	0.1894
288.7409	0.1924
288.9538	0.1939
289.1666	0.1915
289.3794	0.1945
289.5922	0.189
289.8049	0.1973
290.0177	0.1955
290.2304	0.1914
290.4432	0.1948
290.6559	0.1907
290.8686	0.1924
291.0813	0.1882
291.294	0.1963
291.5067	0.1901
291.7194	0.1911
291.932	0.1927
292.1447	0.1914
292.3573	0.1935
292.5699	0.1977
292.7825	0.1888
292.9951	0.1894
293.2077	0.189
293.4203	0.1921
293.6328	0.1935
293.8454	0.1986
294.0579	0.1929
294.2704	0.1943
294.4829	0.1901
294.6954	0.1908
294.9079	0.1906
295.1204	0.1908
295.3328	0.1911
295.5453	0.1895
295.7577	0.1944
295.9701	0.1965
296.1825	0.1912
296.3949	0.1916
296.6073	0.1902
296.8197	0.193
297.0321	0.2002
297.2444	0.1867
297.4567	0.2013
297.6691	0.1916
297.8814	0.1887
298.0937	0.1899
298.306	0.1927
298.5182	0.1929
298.7305	0.2023
298.9428	0.1953
299.155	0.1895
299.3672	0.1894
299.5794	0.1939
299.7916	0.1958
300.0038	0.195
300.216	0.1914
300.4282	0.1964
300.6403	0.1979
300.8525	0.1942
301.0646	0.1944
301.2767	0.1935
301.4888	0.1875
301.7009	0.1988
301.913	0.1936
302.125	0.1967
302.3371	0.1911
302.5491	0.1934
302.7612	0.1989
302.9732	0.1997
303.1852	0.1948
303.3972	0.1956
303.6092	0.1897
303.8211	0.1929
304.0331	0.1884
304.245	0.1917
304.457	0.1978
304.6689	0.1935
304.8808	0.1865
305.0927	0.185
305.3046	0.19
305.5164	0.1863
305.7283	0.188
305.9401	0.1788
306.152	0.1848
306.3638	0.1862
306.5756	0.1926
306.7874	0.1834
306.9992	0.1783
307.2109	0.1744
307.4227	0.1744
307.6344	0.1811
307.8462	0.1775
308.0579	0.1761
308.2696	0.171
308.4813	0.1726
308.693	0.1657
308.9046	0.1747
309.1163	0.1682
309.328	0.1692
309.5396	0.1608
309.7512	0.1618
309.9628	0.1571
310.1744	0.1578
310.386	0.1595
310.5976	0.1484
310.8091	0.1594
311.0207	0.1565
311.2322	0.146
311.4437	0.1522
311.6552	0.1506
311.8667	0.1569
312.0782	0.1491
312.2897	0.151
312.5012	0.1495
312.7126	0.1408
312.924	0.1446
313.1355	0.1408
313.3469	0.145
313.5583	0.1457
313.7696	0.1417
313.981	0.1434
314.1924	0.1371
314.4037	0.1367
314.6151	0.143
314.8264	0.1427
315.0377	0.1362
315.249	0.1417
315.4603	0.1392
315.6716	0.1417
315.8828	0.1372
316.0941	0.1359
316.3053	0.1315
316.5165	0.1352
316.7277	0.135
316.9389	0.1363
317.1501	0.1384
317.3613	0.136
317.5724	0.1368
317.7836	0.1288
317.9947	0.1349
318.2058	0.1323
318.417	0.1349
318.6281	0.1332
318.8391	0.1364
319.0502	0.1351
319.2613	0.1309
319.4723	0.1295
319.6834	0.134
319.8944	0.1293
320.1054	0.1299
320.3164	0.1301
320.5274	0.1334
320.7383	0.1341
320.9493	0.1355
321.1602	0.1349
321.3712	0.1287
321.5821	0.1303
321.793	0.1403
322.0039	0.1298
322.2148	0.1324
322.4257	0.1326
322.6365	0.1366
322.8474	0.139
323.0582	0.136
323.269	0.1339
323.4798	0.1356
323.6906	0.1369
323.9014	0.1293
324.1122	0.1311
324.3229	0.1425
324.5337	0.1362
324.7444	0.1339
324.9551	0.1408
325.1658	0.1337
325.3765	0.1448
325.5872	0.1378
325.7979	0.1391
326.0085	0.1358
326.2192	0.1411
326.4298	0.1403
326.6404	0.1461
326.851	0.1367
327.0616	0.1401
327.2722	0.1435
327.4828	0.1417
327.6933	0.1418
327.9039	0.1381
328.1144	0.1387
328.3249	0.1458
328.5354	0.1476
328.7459	0.1418
328.9564	0.1458
329.1669	0.1467
329.3773	0.1472
329.5878	0.1395
329.7982	0.1434
330.0086	0.146
330.219	0.1429
330.4294	0.1469
330.6398	0.1436
330.8502	0.1465
331.0605	0.1387
331.2708	0.1506
331.4812	0.1448
331.6915	0.1495
331.9018	0.1425
332.1121	0.1561
332.3224	0.1433
332.5326	0.1405
332.7429	0.1426
332.9531	0.1503
333.1633	0.1386
333.3735	0.1462
333.5837	0.1487
333.7939	0.1497
334.0041	0.1468
334.2143	0.1475
334.4244	0.1571
334.6346	0.1498
334.8447	0.1524
335.0548	0.1472
335.2649	0.1547
335.475	0.1576
335.685	0.1467
335.8951	0.1451
336.1051	0.1534
336.3152	0.1541
336.5252	0.1418
336.7352	0.1487
336.9452	0.1488
337.1552	0.1446
337.3652	0.1398
337.5751	0.1446
337.7851	0.1517
337.995	0.1552
338.2049	0.1509
338.4148	0.1527
338.6247	0.1477
338.8346	0.1501
339.0445	0.1521
339.2543	0.1444
339.4642	0.1527
339.674	0.1441
339.8838	0.1562
340.0936	0.1568
340.3034	0.1577
340.5132	0.1421
340.7229	0.152
340.9327	0.1668
341.1424	0.1543
341.3522	0.1516
341.5619	0.1588
341.7716	0.1546
341.9813	0.1594
342.1909	0.1609
342.4006	0.1594
342.6102	0.163
342.8199	0.1557
343.0295	0.1548
343.2391	0.1601
343.4487	0.1631
343.6583	0.1664
343.8679	0.1645
344.0774	0.1537
344.287	0.1605
344.4965	0.1712
344.706	0.1676
344.9155	0.163
345.125	0.166
345.3345	0.1733
345.544	0.1718
345.7534	0.1669
345.9629	0.1745
346.1723	0.1709
346.3817	0.1727
346.5911	0.1746
346.8005	0.1795
347.0099	0.1752
347.2193	0.1759
347.4286	0.1815
347.638	0.1809
347.8473	0.1748
348.0566	0.1803
348.2659	0.1778
348.4752	0.1799
348.6845	0.1691
348.8937	0.1787
349.103	0.1829
349.3122	0.18
349.5214	0.1839
349.7306	0.1884
349.9398	0.1841
350.149	0.179
350.3582	0.1816
350.5674	0.187
350.7765	0.1807
350.9856	0.1837
351.1948	0.1841
351.4039	0.1887
351.613	0.1909
351.822	0.1866
352.0311	0.1826
352.2402	0.1921
352.4492	0.1862
352.6582	0.1888
352.8672	0.187
353.0762	0.1877
353.2852	0.1881
353.4942	0.1882
353.7032	0.1903
353.9121	0.1881
354.1211	0.1941
354.33	0.1948
354.5389	0.1891
354.7478	0.1866
354.9567	0.1944
355.1655	0.1931
355.3744	0.1928
355.5833	0.1885
355.7921	0.1948
356.0009	0.1943
356.2097	0.1886
356.4185	0.1897
356.6273	0.192
356.8361	0.1947
357.0448	0.1942
357.2536	0.1913
357.4623	0.1939
357.671	0.1932
357.8797	0.1953
358.0884	0.1938
358.2971	0.2009
358.5057	0.2039
358.7144	0.1942
358.923	0.2101
359.1316	0.2015
359.3402	0.2034
359.5488	0.2036
359.7574	0.2065
359.966	0.2051
360.1746	0.2019
360.3831	0.2099
360.5916	0.209
360.8002	0.2188
361.0087	0.1996
361.2172	0.2079
361.4256	0.2088
361.6341	0.2084
361.8426	0.2148
362.051	0.21
362.2594	0.2103
362.4678	0.2159
362.6762	0.2185
362.8846	0.2216
363.093	0.214
363.3014	0.2231
363.5097	0.2204
363.718	0.2197
363.9264	0.2192
364.1347	0.2241
364.343	0.2192
364.5513	0.2211
364.7595	0.2324
364.9678	0.2212
365.176	0.2267
365.3842	0.2216
365.5925	0.2306
365.8007	0.2239
366.0089	0.2303
366.217	0.2258
366.4252	0.2274
366.6333	0.2347
366.8415	0.2337
367.0496	0.2324
367.2577	0.2363
367.4658	0.2267
367.6739	0.228
367.882	0.2382
368.09	0.2292
368.2981	0.2392
368.5061	0.2409
368.7141	0.2329
368.9221	0.2476
369.1301	0.2397
369.3381	0.2455
369.5461	0.2418
369.754	0.2484
369.962	0.2457
370.1699	0.25
370.3778	0.2601
370.5857	0.2519
370.7936	0.2476
371.0015	0.2464
371.2093	0.255
371.4172	0.2451
371.625	0.242
371.8328	0.2411
372.0406	0.2591
372.2484	0.2582
372.4562	0.2546
372.664	0.2531
372.8717	0.254
373.0795	0.2589
373.2872	0.2637
373.4949	0.2652
373.7026	0.2481
373.9103	0.2536
374.118	0.2658
374.3256	0.2602
374.5333	0.2605
374.7409	0.2596
374.9485	0.2552
375.1561	0.2646
375.3637	0.2579
375.5713	0.2662
375.7789	0.2651
375.9864	0.2641
376.194	0.2641
376.4015	0.2706
376.609	0.2621
376.8165	0.2702
377.024	0.2679
377.2315	0.2727
377.4389	0.2647
377.6464	0.2783
377.8538	0.2662
378.0612	0.2723
378.2686	0.2757
378.476	0.2754
378.6834	0.2723
378.8908	0.2851
379.0981	0.2709
379.3055	0.2754
379.5128	0.2806
379.7201	0.2807
379.9274	0.2849
380.1347	0.2796
380.342	0.2869
380.5492	0.2721
380.7565	0.2734
380.9637	0.2892
381.1709	0.2772
381.3781	0.2912
381.5853	0.2858
381.7925	0.2817
381.9997	0.2865
382.2068	0.2856
382.4139	0.2906
382.6211	0.2787
382.8282	0.2884
383.0353	0.2891
383.2424	0.2797
383.4494	0.2911
383.6565	0.2824
383.8635	0.293
384.0706	0.2939
384.2776	0.2927
384.4846	0.2902
384.6916	0.2954
384.8986	0.2978
385.1055	0.2963
385.3125	0.29
385.5194	0.298
385.7263	0.293
385.9333	0.2912
386.1402	0.2939
386.347	0.2861
386.5539	0.2952
386.7608	0.2933
386.9676	0.2865
387.1744	0.2882
387.3813	0.2948
387.5881	0.2939
387.7948	0.2997
388.0016	0.2985
388.2084	0.2981
388.4151	0.29
388.6219	0.2846
388.8286	0.2828
389.0353	0.2883
389.242	0.2908
389.4487	0.2803
389.6553	0.2745
389.862	0.2831
390.0686	0.2978
390.2753	0.2833
390.4819	0.2919
390.6885	0.2884
390.8951	0.2795
391.1016	0.2814
391.3082	0.2771
391.5147	0.2766
391.7213	0.2859
391.9278	0.2785
392.1343	0.276
392.3408	0.2754
392.5473	0.2772
392.7537	0.2741
392.9602	0.2705
393.1666	0.2677
393.373	0.2682
393.5794	0.2836
393.7858	0.278
393.9922	0.267
394.1986	0.2677
394.4049	0.2613
394.6113	0.2724
394.8176	0.2624
395.0239	0.2577
395.2302	0.2605
395.4365	0.2668
395.6428	0.2541
395.8491	0.2552
396.0553	0.2554
396.2615	0.2548
396.4678	0.261
396.674	0.2571
396.8802	0.2534
397.0863	0.2607
397.2925	0.2547
397.4987	0.2533
397.7048	0.2571
397.9109	0.2462
398.117	0.2519
398.3231	0.2492
398.5292	0.2427
398.7353	0.2473
398.9413	0.2496
399.1474	0.2498
399.3534	0.2429
399.5594	0.2519
399.7654	0.2477
399.9714	0.2497
400.1774	0.2493
400.3833	0.249
400.5893	0.252
400.7952	0.2537
401.0011	0.2408
401.207	0.2476
401.4129	0.2477
401.6188	0.2446
401.8247	0.252
402.0305	0.24
402.2364	0.2483
402.4422	0.2517
402.648	0.2531
402.8538	0.2437
403.0596	0.2557
403.2654	0.2445
403.4711	0.2441
403.6768	0.2458
403.8826	0.2605
404.0883	0.2432
404.294	0.2468
404.4997	0.2522
404.7054	0.249
404.911	0.2441
405.1167	0.2552
405.3223	0.2418
405.5279	0.2432
405.7335	0.2478
405.9391	0.2434
406.1447	0.2607
406.3502	0.2469
406.5558	0.2457
406.7613	0.2535
406.9668	0.2469
407.1724	0.246
407.3778	0.2482
407.5833	0.237
407.7888	0.2496
407.9942	0.2519
408.1997	0.2492
408.4051	0.2401
408.6105	0.2486
408.8159	0.2458
409.0213	0.2446
409.2267	0.2534
409.432	0.2357
409.6374	0.2485
409.8427	0.2561
410.048	0.2414
410.2533	0.2418
410.4586	0.2367
410.6639	0.2485
410.8691	0.2375
411.0744	0.247
411.2796	0.2473
411.4848	0.2467
411.69	0.2331
411.8952	0.2497
412.1004	0.2387
412.3056	0.2402
412.5107	0.2377
412.7158	0.2588
412.921	0.2424
413.1261	0.2494
413.3312	0.2475
413.5362	0.2538
413.7413	0.2436
413.9464	0.2424
414.1514	0.2392
414.3564	0.241
414.5614	0.242
414.7664	0.2321
414.9714	0.2373
415.1764	0.2496
415.3813	0.2378
415.5863	0.2482
415.7912	0.2404
415.9961	0.2347
416.201	0.2498
416.4059	0.2426
416.6108	0.239
416.8156	0.2289
417.0205	0.2354
417.2253	0.2342
417.4301	0.2463
417.6349	0.2371
417.8397	0.239
418.0445	0.2353
418.2492	0.2373
418.454	0.2338
418.6587	0.2477
418.8634	0.231
419.0681	0.242
419.2728	0.2352
419.4775	0.2435
419.6822	0.2331
419.8868	0.2266
420.0915	0.2296
420.2961	0.2284
420.5007	0.2256
420.7053	0.2222
420.9099	0.2284
421.1144	0.227
421.319	0.2272
421.5235	0.2126
421.728	0.2324
421.9325	0.2176
422.137	0.2149
422.3415	0.2262
422.546	0.2175
422.7504	0.2196
422.9549	0.2342
423.1593	0.2138
423.3637	0.2212
423.5681	0.229
423.7725	0.2159
423.9769	0.2217
424.1812	0.213
424.3856	0.2132
424.5899	0.2176
424.7942	0.2138
424.9985	0.213
425.2028	0.2113
425.4071	0.2072
425.6113	0.2093
425.8156	0.2109
426.0198	0.2091
426.224	0.2108
426.4282	0.2027
426.6324	0.2012
426.8366	0.2024
427.0407	0.2037
427.2449	0.2019
427.449	0.1995
427.6531	0.2069
427.8572	0.2034
428.0613	0.2048
428.2654	0.1957
428.4694	0.1786
428.6735	0.1892
428.8775	0.1931
429.0815	0.1897
429.2855	0.1841
429.4895	0.1914
429.6935	0.1876
429.8975	0.1832
430.1014	0.1876
430.3053	0.1862
430.5093	0.1859
430.7132	0.1759
430.9171	0.1822
431.1209	0.1901
431.3248	0.1674
431.5286	0.1666
431.7325	0.1788
431.9363	0.1657
432.1401	0.1719
432.3439	0.1754
432.5477	0.1567
432.7514	0.1696
432.9552	0.1675
433.1589	0.1579
433.3627	0.1627
433.5664	0.1551
433.7701	0.1534
433.9737	0.1558
434.1774	0.1657
434.3811	0.1463
434.5847	0.1567
434.7883	0.1522
434.9919	0.1502
435.1955	0.1452
435.3991	0.147
435.6027	0.1434
435.8062	0.1512
436.0098	0.1388
436.2133	0.1336
436.4168	0.1387
436.6203	0.131
436.8238	0.1308
437.0272	0.1343
437.2307	0.13
437.4341	0.1369
437.6375	0.1312
437.841	0.1232
438.0443	0.1253
438.2477	0.1206
438.4511	0.1156
438.6545	0.1298
438.8578	0.1165
439.0611	0.1225
439.2644	0.1127
439.4677	0.1051
439.671	0.1044
439.8743	0.1135
440.0775	0.1107
440.2808	0.0985
440.484	0.1071
440.6872	0.0978
440.8904	0.0908
441.0936	0.1081
441.2967	0.0994
441.4999	0.0976
441.703	0.0938
441.9062	0.0981
442.1093	0.1005
442.3124	0.1027
442.5155	0.0913
442.7185	0.0862
442.9216	0.0864
443.1246	0.0835
443.3276	0.0977
443.5307	0.0762
443.7337	0.0856
443.9366	0.0826
444.1396	0.0874
444.3426	0.0771
444.5455	0.0837
444.7484	0.0696
444.9513	0.073
445.1542	0.0794
445.3571	0.0828
445.56	0.0746
445.7628	0.0796
445.9657	0.0804
446.1685	0.071
446.3713	0.0726
446.5741	0.0695
446.7769	0.0718
446.9797	0.075
447.1824	0.0678
447.3852	0.0538
447.5879	0.0549
447.7906	0.0567
447.9933	0.0573
448.196	0.0585
448.3986	0.0561
448.6013	0.052
448.8039	0.0608
449.0066	0.0638
449.2092	0.0597
449.4118	0.0614
449.6143	0.0545
449.8169	0.05
450.0195	0.0492
450.222	0.0507
450.4245	0.0619
450.627	0.056
450.8295	0.0463
451.032	0.0509
451.2345	0.0516
451.4369	0.0522
451.6394	0.0467
451.8418	0.0451
452.0442	0.047
452.2466	0.0343
452.449	0.0455
452.6513	0.0368
452.8537	0.0339
453.056	0.0427
453.2583	0.0348
453.4607	0.0265
453.663	0.036
453.8652	0.0317
454.0675	0.0425
454.2697	0.042
454.472	0.0315
454.6742	0.0466
454.8764	0.0432
455.0786	0.0306
455.2808	0.0345
455.4829	0.037
455.6851	0.0375
455.8872	0.0282
456.0893	0.0367
456.2915	0.0285
456.4935	0.0314
456.6956	0.0294
456.8977	0.0311
457.0997	0.0328
457.3018	0.0286
457.5038	0.0279
457.7058	0.0258
457.9078	0.0348
458.1098	0.0326
458.3117	0.0357
458.5137	0.0261
458.7156	0.0253
458.9175	0.0248
459.1194	0.0245
459.3213	0.0202
459.5232	0.0306
459.725	0.0262
459.9269	0.0209
460.1287	0.021
460.3305	0.0292
460.5323	0.0284
460.7341	0.0202
460.9359	0.0131
461.1376	0.0281
461.3394	0.0289
461.5411	0.0258
461.7428	0.0233
461.9445	0.0207
462.1462	0.0149
462.3479	0.0194
462.5495	0.0251
462.7512	0.0253
462.9528	0.0283
463.1544	0.0148
463.356	0.0219
463.5576	0.0193
463.7592	0.0185
463.9607	0.0182
464.1623	0.0196
464.3638	0.0111
464.5653	0.0218
464.7668	0.0223
464.9683	0.0255
465.1697	0.0143
465.3712	0.0104
465.5726	0.0144
465.7741	0.0219
465.9755	0.0138
466.1769	0.0171
466.3782	0.0191
466.5796	0.0187
466.7809	0.0198
466.9823	0.0177
467.1836	0.0164
467.3849	0.016
467.5862	0.0104
467.7875	0.0094
467.9887	0.0114
468.19	0.0188
468.3912	0.0246
468.5924	0.0063
468.7936	0.0118
468.9948	0.0109
469.196	0.0138
469.3972	0.0045
469.5983	0.015
469.7994	0.0217
470.0006	0.0161
470.2017	0.0059
470.4027	0.0219
470.6038	0.0139
470.8049	0.015
471.0059	0.0088
471.2069	0.023
471.408	0.0126
471.6089	0.0169
471.8099	0.007
472.0109	0.0152
472.2119	0.0231
472.4128	0.0085
472.6137	0.0228
472.8146	0.0087
473.0155	0.0236
473.2164	0.0175
473.4173	0.0056
473.6181	0.007
473.819	0.0137
474.0198	0.0101
474.2206	0.0003
474.4214	0.0149
474.6222	0.0055
474.8229	0.0053
475.0237	0.0091
475.2244	0.0103
475.4251	0.0098
475.6258	0.0108
475.8265	0.0198
476.0272	0.0131
476.2278	0.0108
476.4285	0.0161
476.6291	0.0186
476.8297	0.0149
477.0303	0.0046
477.2309	0.004
477.4315	0.0164
477.632	0.0024
477.8326	0.0126
478.0331	0.0144
478.2336	0.011
478.4341	0.0087
478.6346	0.0115
478.8351	0.0137
479.0355	0.0255
479.236	0.0152
479.4364	0.0101
479.6368	0.0128
479.8372	0.0081
480.0376	0.0122
480.2379	0.0131
480.4383	0.0145
480.6386	0.0063
480.8389	0.0082
481.0392	0.0102
481.2395	0.0126
481.4398	0.0144
481.6401	0.0148
481.8403	0.0042
482.0405	0.0114
482.2408	0.0143
482.441	0.013
482.6411	0.0104
482.8413	0.0046
483.0415	0.0179
483.2416	0.016
483.4417	0.0112
483.6419	0.0042
483.8419	0.0073
484.042	0.0108
484.2421	0.0102
484.4422	0.01
484.6422	0.0137
484.8422	0.0083
485.0422	0.011
485.2422	0.0063
485.4422	0.0054
485.6422	0.0063
485.8421	0.0093
486.042	0.0173
486.242	0.0082
486.4419	0.0124
486.6417	0.0041
486.8416	0.0071
487.0415	0.0071
487.2413	0.0016
487.4411	0.0128
487.641	0.0084
487.8408	0.0096
488.0405	0.0176
488.2403	0.0058
488.4401	0.0096
488.6398	0.0137
488.8395	0.0118
489.0392	0.0082
489.2389	0.0097
489.4386	-0.0029
489.6383	0.0122
489.8379	0.0093
490.0376	0.0088
490.2372	0.0071
490.4368	0.0073
490.6364	0.0002
490.836	0.006
491.0355	0.0062
491.2351	0.0091
491.4346	0.0216
491.6341	0.0034
491.8336	0.0127
492.0331	0.011
492.2326	0.0169
492.432	0.0068
492.6315	0.0083
492.8309	0.0086
493.0303	0.0111
493.2297	0.0117
493.4291	0.0088
493.6284	0.013
493.8278	0.0071
494.0271	0.0148
494.2264	0.0076
494.4257	0.0146
494.625	0.008
494.8243	0.0123
495.0236	0.0102
495.2228	0.0144
495.422	0.0076
495.6213	0.0083
495.8205	0.0053
496.0196	0.0025
496.2188	0.01
496.418	0.0129
496.6171	0.0083
496.8162	0.0137
497.0153	0.0164
497.2144	0.0126
497.4135	0.0061
497.6126	0.0146
497.8116	0.0027
498.0107	0.0147
498.2097	0.0142
498.4087	0.0023
498.6077	0.0026
498.8067	0.0071
499.0056	0.0169
499.2046	0.0181
499.4035	0.0077
499.6024	0.0019
499.8013	0.0096
500.0002	0.0146
500.199	0.0196
500.3979	0.006
500.5967	0.0132
500.7956	0.0073
500.9944	0.0107
501.1932	0.0192
501.3919	0.012
501.5907	0.0149
501.7895	0.0053
501.9882	0.0065
502.1869	0.0173
502.3856	0.0081
502.5843	0.0079
502.783	0.0065
502.9816	0.0139
503.1803	0.0154
503.3789	0.018
503.5775	0.0083
503.7761	0.0081
503.9747	0.017
504.1732	0.0044
504.3718	0.0166
504.5703	0.0117
504.7689	0.0069
504.9674	0.0043
505.1658	0.0033
505.3643	0.0153
505.5628	0.008
505.7612	0.0102
505.9597	-0.0009
506.1581	0.0078
506.3565	0.0093
506.5549	0.0027
506.7532	0.0113
506.9516	0.0163
507.1499	0
507.3482	0.0132
507.5465	0.014
507.7448	0.0087
507.9431	0.0166
508.1414	-0.0046
508.3396	0.0074
508.5379	0.0016
508.7361	0.0115
508.9343	0.0081
509.1325	0.019
509.3306	0.0114
509.5288	0.0085
509.7269	0.0133
509.9251	0.0142
510.1232	0.0103
510.3213	0.0108
510.5193	0.0123
510.7174	0.0067
510.9154	0.0154
511.1135	0.0077
511.3115	0.0058
511.5095	0.0132
511.7075	0.0098
511.9055	0.0136
512.1034	0.0087
512.3014	0.0086
512.4993	0.0103
512.6972	0.0078
512.8951	0.0088
513.093	0.0101
513.2908	0.016
513.4887	0.0073
513.6865	0.0081
513.8844	0.0042
514.0822	0.0115
514.2799	0.0004
514.4777	-0.0035
514.6755	0.002
514.8732	0.0104
515.0709	0.0054
515.2687	0.0138
515.4664	0.0136
515.664	0.0095
515.8617	0.0114
516.0594	0.0141
516.257	0.0101
516.4546	0.0225
516.6522	0.0178
516.8498	0.0105
517.0474	0.0169
517.2449	0.0079
517.4425	0.0184
517.64	0.0143
517.8375	0.0253
518.035	0.0021
518.2325	0.0009
518.43	0.0005
518.6274	0.0189
518.8249	0.0033
519.0223	0.0138
519.2197	0.0099
519.4171	0.0048
519.6145	0.0135
519.8118	0.0125
520.0092	0.0079
520.2065	0.0182
520.4038	0.0117
520.6011	0.0216
520.7984	0.0082
520.9956	0.0177
521.1929	0.0148
521.3901	0.0056
521.5874	0.0209
521.7846	0.0047
521.9818	0.0019
522.1789	0.0073
522.3761	0.0298
522.5732	0.0122
522.7704	-0.0113
522.9675	0.0049
523.1646	0.0037
523.3617	0.0136
523.5587	0.0084
523.7558	0.0116
523.9528	0.0208
524.1498	0.0097
524.3468	0.0167
524.5438	0.0165
524.7408	0.0112
524.9378	0.0211
525.1347	0.0059
525.3316	0.0084
525.5285	0.0082
525.7254	0.0143
525.9223	0.0209
526.1192	0.0004
526.316	0.0136
526.5129	0.0133
526.7097	0.0102
526.9065	0.0105
527.1033	0.0011
527.3	0.0046
527.4968	0.0156
527.6935	0.0034
527.8903	0.0033
528.087	0.0099
528.2837	0.0093
528.4804	0.0054
528.677	0.0154
528.8737	0.0101
529.0703	0.0153
529.2669	0.0203
529.4635	0.0114
529.6601	0.0084
529.8567	0.0017
530.0532	0.0146
530.2498	0.0074
530.4463	0.0077
530.6428	0.0082
530.8393	0.0098
531.0358	0.0093
531.2322	0.0062
531.4287	0.0054
531.6251	0.0017
531.8215	0.0039
532.0179	0.0098
532.2143	0.0067
532.4107	0.0152
532.607	0.005
532.8034	0.0069
532.9997	0.0082
533.196	0.0103
533.3923	0.0167
533.5886	0.013
533.7848	0.0059
533.9811	0.0129
534.1773	0.0139
534.3735	0.0107
534.5697	0.0096
534.7659	0.013
534.9621	0.0068
535.1582	0.0188
535.3544	0.0133
535.5505	0.0174
535.7466	0.016
535.9427	0.0098
536.1387	0.0049
536.3348	0.0102
536.5308	-0.0008
536.7269	0.0202
536.9229	0.0128
537.1189	0.0066
537.3148	0.0114
537.5108	0.014
537.7068	0.0219
537.9027	0.0007
538.0986	0.0127
538.2945	0.0119
538.4904	0.0086
538.6863	0.0097
538.8821	0.0196
539.078	0.0177
539.2738	0.0084
539.4696	0.0093
539.6654	0.0142
539.8611	0.0125
540.0569	0.0127
540.2526	0.0168
540.4484	0.0033
540.6441	0.006
540.8398	0.0109
541.0355	0.0037
541.2311	0.019
541.4268	0.015
541.6224	0.0118
541.818	0.012
542.0136	0.0111
542.2092	0.0108
542.4048	0.014
542.6003	0.0037
542.7959	0.0095
542.9914	0.0151
543.1869	0.014
543.3824	0.0128
543.5779	0.02
543.7734	0.0153
543.9688	0.0147
544.1642	-0.0013
544.3596	0.0144
544.555	0.0153
544.7504	0.013
544.9458	0.0097
545.1411	0.004
545.3365	0.0135
545.5318	0.0085
545.7271	0.015
545.9224	-0.0004
546.1177	0.0149
546.3129	-0.0005
546.5081	0.0017
546.7034	0.0036
546.8986	0.0029
547.0938	0.0179
547.289	0.0202
547.4841	0.0092
547.6793	0.0051
547.8744	0.0164
548.0695	0.0041
548.2646	0.0063
548.4597	0.0021
548.6548	0.0196
548.8498	0.011
549.0448	0.0102
549.2399	0.0196
549.4349	0.0035
549.6298	0.0157
549.8248	0.0024
550.0198	0.0079
550.2147	0.0176
550.4096	-0.0006
550.6045	0.0067
550.7994	0.0051
550.9943	0.0206
551.1892	-0.0017
551.384	0.0165
551.5788	0.0089
551.7737	0.0116
551.9685	0.0066
552.1632	-0.0028
552.358	0.0081
552.5528	0.005
552.7475	0.0079
552.9422	0.0111
553.1369	0.0215
553.3316	0.0152
553.5263	0.0283
553.7209	0.0174
553.9156	0.0164
554.1102	0.0128
554.3048	0.0086
554.4994	0.0118
554.694	0.0154
554.8885	0.0107
555.0831	0.015
555.2776	0.0187
555.4721	0.0175
555.6666	0.0115
555.8611	0.0182
556.0555	0.0037
556.25	0.0171
556.4444	0.0112
556.6388	-0.0066
556.8332	0.0027
557.0276	0.0075
557.222	0.0041
557.4163	0.0166
557.6107	0.0098
557.805	0.0008
557.9993	0.0082
558.1936	0.0012
558.3879	0.0109
558.5821	0.0069
558.7764	-0.0063
558.9706	0.0005
559.1648	0.0166
559.359	-0.0065
559.5532	0.0046
559.7473	-0.0009
559.9415	0.003
560.1356	0.0156
560.3297	0.0027
560.5238	0.0132
560.7179	0.0094
560.9119	0.0024
561.106	0.004
561.3	0.0096
561.494	-0.0011
561.688	0.007
561.882	0.0129
562.076	0.0131
562.2699	0.0113
562.4639	0.0208
562.6578	0.0138
562.8517	0.0073
563.0456	0.0116
563.2395	0.0125
563.4333	0.0127
563.6272	0.0113
563.821	0.0125
564.0148	0.0066
564.2086	0.0097
564.4024	0.0188
564.5961	0.0121
564.7899	0.0199
564.9836	0.0057
565.1773	0.0148
565.371	0.0091
565.5647	0.0022
565.7584	0.0233
565.952	0.0063
566.1456	0.0099
566.3393	0.0123
566.5329	0.008
566.7264	0.0147
566.92	0.0036
567.1136	0.0042
567.3071	0.0012
567.5006	0.0138
567.6941	0.0098
567.8876	0.0088
568.0811	0.0191
568.2745	0.0014
568.468	0.0108
568.6614	0.0194
568.8548	0.0106
569.0482	0.0121
569.2416	0.0099
569.4349	0.011
569.6283	0.0037
569.8216	0.0116
570.0149	0.0055
570.2082	0.0172
570.4015	0.009
570.5947	0.0065
570.788	0.0071
570.9812	0.0033
571.1744	0.0109
571.3676	0.0073
571.5608	0.0103
571.754	0.0138
571.9471	0.0165
572.1402	0.0088
572.3333	0.0107
572.5264	0.0094
572.7195	0.0081
572.9126	0.0075
573.1057	0.0104
573.2987	0.0092
573.4917	0.0044
573.6847	0.007
573.8777	0.0147
574.0707	0.0109
574.2636	0.0083
574.4566	0.0049
574.6495	0.0069
574.8424	0.0113
575.0353	0.0157
575.2281	0.013
575.421	0.0058
575.6138	0.0089
575.8067	0.0108
575.9995	0.0108
576.1923	0.0105
576.385	0.01
576.5778	0.0127
576.7706	0.0084
576.9633	0.0103
577.156	0.0026
577.3487	0.0093
577.5414	0.005
577.734	0.0067
577.9267	0.0105
578.1193	0.0137
578.3119	0.0069
578.5045	0.0111
578.6971	0.0046
578.8897	0.0013
579.0822	0.0078
579.2747	0.0095
579.4673	0.0118
579.6598	0.0086
579.8522	0.0061
580.0447	0.0124
580.2372	0.0154
580.4296	0.0124
580.622	0.0041
580.8144	0.0087
581.0068	0.0075
581.1992	0.007
581.3915	0.0023
581.5839	0.0068
581.7762	0.0076
581.9685	0.0032
582.1608	0.0071
582.353	0.0043
582.5453	0.0083
582.7375	0.0094
582.9298	0.0022
583.122	0.0066
583.3142	0.0108
583.5063	0.0063
583.6985	0.0079
583.8906	0.0054
584.0827	0.0111
584.2749	0.0084
584.4669	0.0083
584.659	0.009
584.8511	0.0164
585.0431	0.0136
585.2352	0.008
585.4272	0.0068
585.6192	0.008
585.8111	0.0065
586.0031	0.0092
586.195	0.0047
586.387	0.0031
586.5789	0.0099
586.7708	0.0111
586.9627	0.0094
587.1545	0.0089
587.3464	0.0083
587.5382	0.0078
587.73	0.013
587.9218	0.0049
588.1136	0.01
588.3053	0.0081
588.4971	0.0082
588.6888	0.0062
588.8805	0.0114
589.0722	0.0128
589.2639	0.0076
589.4556	0.0106
589.6472	0.0178
589.8389	0.0056
590.0305	0.007
590.2221	0.0117
590.4137	0.0087
590.6052	0.0047
590.7968	0.0127
590.9883	0.0058
591.1798	0.0041
591.3713	0.0076
591.5628	0.011
591.7543	0.0028
591.9458	0.0056
592.1372	0.0103
592.3286	0.0096
592.52	0.01
592.7114	0.0122
592.9028	0.0135
593.0941	0.0087
593.2855	0.012
593.4768	0.018
593.6681	0.0149
593.8594	0.0111
594.0506	0.0076
594.2419	0.0074
594.4331	0.0124
594.6244	0.005
594.8156	0.012
595.0067	0.0072
595.1979	0.0035
595.3891	0.0103
595.5802	0.0105
595.7713	0.0039
595.9624	0.012
596.1535	0.0071
596.3446	0.0036
596.5357	0.0139
596.7267	0.0032
596.9177	0.0144
597.1087	0.0056
597.2997	0.0126
597.4907	0.0069
597.6817	0.0117
597.8726	0.0094
598.0635	0.0074
598.2544	0.0107
598.4453	0.0092
598.6362	0.0042
598.827	0.009
599.0179	0.009
599.2087	0.0118
599.3995	0.0137
599.5903	0.0126
599.7811	0.0138
599.9718	0.0076
600.1626	0.0055
600.3533	0.0083
600.544	0.0096
600.7347	0.0087
600.9254	0.0106
601.116	0.0118
601.3067	0.0069
601.4973	0.0086
601.6879	0.0116
601.8785	0.0148
602.0691	0.0039
602.2596	0.0133
602.4502	0.0117
602.6407	0.0146
602.8312	0.0139
603.0217	0.0101
603.2122	0.0079
603.4027	0.0073
603.5931	0.0054
603.7835	0.0064
603.9739	0.0133
604.1643	0.0096
604.3547	0.0122
604.5451	0.0112
604.7354	0.0031
604.9257	0.0023
605.116	0.0032
605.3063	0.0121
605.4966	0.0127
605.6869	0.0181
605.8771	0.0148
606.0673	0.0078
606.2575	0.0014
606.4477	0.0129
606.6379	0.0092
606.8281	0.012
607.0182	0.0006
607.2083	0.0093
607.3985	0.0057
607.5885	0.0087
607.7786	0.0074
607.9687	0.0146
608.1587	0.0116
608.3488	0.0119
608.5388	0.0082
608.7288	0.0044
608.9187	0.0027
609.1087	0.0072
609.2986	0.0121
609.4886	0.0041
609.6785	0.0093
609.8684	0.0026
610.0582	0.0019
610.2481	-0.0017
610.4379	0.0088
610.6278	0.0071
610.8176	0.0204
611.0074	0.0092
611.1971	0.0119
611.3869	0.0014
611.5766	0.0077
611.7664	0.0198
611.9561	0.0138
612.1458	0.0088
612.3354	0.0073
612.5251	0.0042
612.7147	0.0126
612.9044	0.0023
613.094	0.0085
613.2836	0.0043
613.4731	0.0066
613.6627	0.01
613.8522	0.0084
614.0417	0.0149
614.2313	0.0108
614.4207	0.0102
614.6102	0.0158
614.7997	0.0161
614.9891	0.005
615.1785	-0.0007
615.3679	0.0126
615.5573	0.0089
615.7467	0.0057
615.9361	0.0119
616.1254	0.0103
616.3147	0.0107
616.504	0.0151
616.6933	0.011
616.8826	-0.0077
617.0718	0.0118
617.2611	0.0115
617.4503	0.0137
617.6395	0.0099
617.8287	0.008
618.0179	0.0073
618.207	0.0238
618.3961	0.0069
618.5853	0.0099
618.7744	0.008
618.9634	0.0065
619.1525	0.0137
619.3416	0.0069
619.5306	0.0156
619.7196	0.0162
619.9086	0.0125
620.0976	0.0105
620.2866	0.0084
620.4755	0.0126
620.6645	0.0204
620.8534	0.0103
621.0423	-0.0008
621.2312	0.0143
621.42	0.0077
621.6089	0.0074
621.7977	0.0151
621.9865	0.003
622.1753	0.0005
622.3641	0.0115
622.5529	0.0082
622.7416	0.0087
622.9303	-0.0029
623.1191	0.012
623.3078	0.009
623.4964	0.0099
623.6851	0.0179
623.8737	0.0001
624.0624	-0.004
624.251	0.0078
624.4396	0.0042
624.6282	0.007
624.8167	-0.0014
625.0053	0.0175
625.1938	0.0078
625.3823	0.008
625.5708	0.0058
625.7593	-0.0037
625.9477	0.0213
626.1362	-0.0018
626.3246	0.004
626.513	0.0104
626.7014	0.0215
626.8898	0.0118
627.0781	0.0148
627.2665	0.0208
627.4548	0.0046
627.6431	0.0119
627.8314	0.02
628.0197	0.0087
628.2079	0.0046
628.3962	0.0098
628.5844	0.0147
628.7726	0.0039
628.9608	0.0176
629.1489	0.0192
629.3371	-0.003
629.5252	0.0084
629.7134	0.0135
629.9015	0.0156
630.0895	-0.0069
630.2776	0.0055
630.4657	0.0135
630.6537	0.0124
630.8417	0.0015
631.0297	0.0079
631.2177	0.011
631.4057	0.0096
631.5936	0.0096
631.7815	0.0059
631.9695	0.0217
632.1574	0.0148
632.3452	0.004
632.5331	0.0072
632.7209	0.0141
632.9088	-0.0004
633.0966	0.0215
633.2844	0.0196
633.4722	0.0106
633.6599	0.0276
633.8477	0.0141
634.0354	0.027
634.2231	-0.0109
634.4108	0.0087
634.5985	0.0069
634.7861	-0.0202
634.9738	0.0055
635.1614	0.0062
635.349	0.0073
635.5366	0.0086
635.7242	0.0026
635.9117	0.0146
636.0993	0.0114
636.2868	0.01
636.4743	0.0217
636.6618	-0.0131
636.8492	0.0123
637.0367	-0.0014
637.2241	0.0089
637.4115	0.0366
637.5989	0.0098
637.7863	0.0381
637.9737	0.0099
638.161	0.0094
638.3484	-0.0067
638.5357	0.0091
638.723	0.0113
638.9103	-0.0076
639.0975	0.0132
639.2848	0.01
639.472	0.0079
639.6592	-0.0005
639.8464	0.006
640.0336	0.0064
640.2208	-0.0024
640.4079	0.0007
640.595	0.0067
640.7821	0.0362
640.9692	-0.0007
641.1563	0.0097
641.3434	0.0178
641.5304	0.0369
641.7174	0.0063
641.9044	-0.008
642.0914	0.0245
642.2784	0.004
642.4653	-0.0006
642.6523	0.0184
642.8392	-0.0147
643.0261	0.0323
643.213	0.016
643.3999	0.0193
643.5867	0.0289
643.7735	0.007
643.9604	0.0232
644.1472	0.0077
644.3339	0.0163
644.5207	-0.0066
644.7075	0.0006
644.8942	0.0032
645.0809	0.0073
645.2676	-0.0213
645.4543	0.0116
645.6409	0.0272
645.8276	0.021
646.0142	0.0206
646.2008	0.0101
646.3874	0.0232
646.574	-0.0055
646.7605	-0.0077
646.9471	-0.0007
647.1336	0.0002
647.3201	0.0151
647.5066	0.0066
647.6931	0.0132
647.8795	0.0188
648.0659	0.0263
648.2524	0.018
648.4388	0.0171
648.6252	0.0085
648.8115	0.0068
648.9979	0.0213
649.1842	0.0032
649.3705	0.0107
649.5568	0.0102
649.7431	0.0019
649.9294	0.0017
650.1156	-0.0028
650.3018	0.0026
650.488	0.0273
650.6742	0.0209
650.8604	0.0175
651.0466	0.0068
651.2327	0.0166
651.4188	0.0049
651.6049	0.0106
651.791	0.0139
651.9771	0.0074
652.1632	0.0134
652.3492	-0.0038
652.5352	0.0198
652.7212	0.0092
652.9072	-0.0017
653.0932	0.0064
653.2791	0.0141
653.465	0.0154
653.651	0.0154
653.8369	0.0259
654.0227	0.0107
654.2086	0.0186
654.3944	0.0237
654.5803	0.0001
654.7661	0.0012
654.9519	-0.0004
655.1377	0.0001
655.3234	0.0001
655.5092	0.0001
655.6949	0.0001
655.8806	0.0001
656.0663	0.0001
656.2519	0.0001
656.4376	0.0001
656.6232	0.0001
656.8088	0.0001
656.9945	0.0001
657.18	0.0001
657.3656	0.0001
657.5511	0.0001
657.7367	0.0001
657.9222	0.0001
658.1077	0.0001
658.2932	0.0001
658.4786	0.0001
658.6641	0.0001
658.8495	0.0001
659.0349	0.0001
659.2203	0.0001
659.4057	0.0131
659.591	0.298
659.7764	0.0251
659.9617	0.0146
660.147	0.0076
660.3323	0.0104
660.5176	0.0019
660.7028	-0.0037
660.888	0.0225
661.0733	0.0112
661.2585	0.0046
661.4436	-0.002
661.6288	0.0321
661.8139	0.007
661.9991	-0.007
662.1842	0.0025
662.3693	0.0242
662.5544	0.0188
662.7394	0.0203
662.9245	0.0198
663.1095	-0.0032
663.2945	0.0053
663.4795	0.0045
663.6644	0.0084
663.8494	0.0182
664.0343	0.0219
664.2193	-0.0082
664.4042	0.0172
664.589	0.0133
664.7739	0.0043
664.9587	0.0064
665.1436	-0.0025
665.3284	0.0067
665.5132	-0.0215
665.698	0.0034
665.8827	0.0262
666.0675	-0.0189
666.2522	0.0176
666.4369	0.0219
666.6216	0.0164
666.8063	0.0199
666.9909	-0.0065
667.1756	0.0058
667.3602	-0.0121
667.5448	0.0232
667.7294	0.0112
667.9139	0.0047
668.0985	0.0112
668.283	-0.0045
668.4675	0.0302
668.652	0.0216
668.8365	0.0297
669.0209	-0.0078
669.2054	0.0063
669.3898	-0.0023
669.5742	0.0302
669.7586	0.0087
669.943	-0.0098
670.1273	0.0146
670.3117	0.0424
670.496	-0.0024
670.6803	0.0206
670.8646	-0.0039
671.0488	0.0243
671.2331	-0.0031
671.4173	0.0277
671.6015	0.0151
671.7857	0.0095
671.9699	0.0235
672.1541	0.008
672.3382	0.0027
672.5223	-0.0018
672.7064	-0.0034
672.8905	0.0004
673.0746	0.0251
673.2587	0.0437
673.4427	0.0074
673.6267	0.0172
673.8107	0.0218
673.9947	0.0225
674.1787	0.0057
674.3626	0.0198
674.5465	0.0157
674.7304	0.0215
674.9143	0.0002
675.0982	-0.0062
675.2821	0.0025
675.4659	-0.0029
675.6497	0.0034
675.8335	0.0185
676.0173	-0.0062
676.2011	0.0359
676.3849	0.0276
676.5686	0.0266
676.7523	0.0065
676.936	0.0236
677.1197	0.006
677.3034	0.0401
677.487	0.006
677.6706	0.0125
677.8542	0.0194
678.0378	0.0092
678.2214	-0.0033
678.405	0.0076
678.5885	0.0135
678.772	0.0113
678.9555	0.0026
679.139	0.0187
679.3225	0.0068
679.5059	-0.0062
679.6894	0.0243
679.8728	-0.0017
680.0562	0.0087
680.2395	0.0037
680.4229	-0.0036
680.6062	-0.0001
680.7896	-0.0011
680.9729	0.0243
681.1562	0.0193
681.3394	-0.0003
681.5227	0.0122
681.7059	0.0094
681.8891	0.0162
682.0723	-0.0069
682.2555	0.0055
682.4387	0.0291
682.6218	0.0216
682.805	0.018
682.9881	0.0207
683.1712	0.026
683.3542	0.0177
683.5373	-0.0003
683.7203	0.0266
683.9034	-0.0208
684.0864	0.0047
684.2694	0.0103
684.4523	0.0034
684.6353	-0.0072
684.8182	0.0072
685.0011	0.0285
685.184	0.0009
685.3669	0.0192
685.5498	-0.006
685.7326	0.0014
685.9154	0.0053
686.0982	0.0209
686.281	-0.0121
686.4638	0.0161
686.6465	0.018
686.8293	-0.0026
687.012	0.0032
687.1947	0.0041
687.3774	0.017
687.56	-0.0032
687.7427	0.0084
687.9253	-0.0105
688.1079	0.0005
688.2905	0.002
688.4731	0.0062
688.6556	-0.009
688.8382	-0.0024
689.0207	0.0062
689.2032	0.0162
689.3857	0.0017
689.5681	-0.0018
689.7506	0.0288
689.933	0.0011
690.1154	0.0125
690.2978	0.0227
690.4802	0.0181
690.6626	0.013
690.8449	0.0101
691.0272	0.0169
691.2095	-0.0023
691.3918	0.0118
691.5741	0.0069
691.7563	0.0138
691.9386	0.0058
692.1208	0.0075
692.303	0.0042
692.4852	0.0129
692.6673	0.0108
692.8495	-0.0166
693.0316	0.0309
693.2137	0.0303
693.3958	0.0028
693.5778	-0.0039
693.7599	-0.0037
693.9419	-0.0053
694.1239	0.0202
694.3059	0.0324
694.4879	0.0014
694.6699	0.0187
694.8518	0.0129
695.0337	0.0084
695.2157	0.0326
695.3975	-0.0145
695.5794	-0.0166
695.7613	0.0022
695.9431	0.0094
696.1249	0.0481
696.3067	0.0081
696.4885	0.0262
696.6703	-0.0126
696.852	-0.0016
697.0337	0.0215
697.2154	0.0134
697.3971	-0.0005
697.5788	0.0257
697.7605	0.0013
697.9421	0.0128
698.1237	0.0266
698.3053	-0.0119
698.4869	-0.0033
698.6685	-0.011
698.85	0.0302
699.0315	-0.0112
699.213	0.0257
699.3945	0.0143
699.576	0.0122
699.7575	-0.0005
699.9389	0.0133
700.1203	0.0173
700.3017	0.0154
700.4831	0.0375
700.6645	0.0155
700.8458	0.0197
701.0271	0.0361
701.2084	0.0149
701.3897	0.0142
701.571	-0.0058
701.7523	0.0135
701.9335	0.0327
702.1147	0.0163
702.2959	-0.0271
702.4771	0.0193
702.6583	-0.0076
702.8394	-0.0234
703.0205	0.0427
703.2016	0.0134
703.3827	0.0236
703.5638	0.0059
703.7449	0.0268
703.9259	0.016
704.1069	0.0161
704.2879	0.0133
704.4689	0.0114
704.6499	0.0359
704.8308	0.0376
705.0117	0.0212
705.1927	0.0163
705.3735	0.0032
705.5544	0.0163
705.7353	-0.017
705.9161	-0.0031
706.0969	0.0211
706.2777	0.0111
706.4585	0.013
706.6393	0.03
706.82	0.0169
707.0007	0.0087
707.1815	0.0023
707.3621	0.0317
707.5428	0.0146
707.7235	0.0155
707.9041	0.0135
708.0847	0.0012
708.2653	0.028
708.4459	0.0041
708.6265	0.0042
708.807	0.0026
708.9875	0.0143
709.168	0.0023
709.3485	0.0127
709.529	0.0227
709.7095	0.0061
709.8899	0.0223
710.0703	0.0293
710.2507	0.0192
710.4311	-0.0151
710.6115	0.0083
710.7918	0.0179
710.9721	0.0118
711.1524	0.0172
711.3327	-0.0167
711.513	0.0128
711.6932	0.0045
711.8735	0.0124
712.0537	0.0052
712.2339	0.0286
712.4141	0.0397
712.5942	-0.0159
712.7744	0.0469
712.9545	0.0021
713.1346	0.0205
713.3147	0.0053
713.4947	-0.019
713.6748	0.013
713.8548	0.0112
714.0348	0.0516
714.2148	0.0296
714.3948	0.0171
714.5748	0.0149
714.7547	0.0059
714.9346	0.0321
715.1145	0.0002
715.2944	-0.0049
715.4743	0.0304
715.6541	-0.0049
715.834	0.0139
716.0138	0.0257
716.1936	-0.0107
716.3733	0.0043
716.5531	0.0179
716.7328	0.0156
716.9126	0.0251
717.0923	-0.0243
717.2719	0.0279
717.4516	0.0188
717.6312	-0.0326
717.8109	0.0328
717.9905	0.0373
718.1701	0.0334
718.3496	-0.0045
718.5292	0.0044
718.7087	0.0074
718.8882	0.042
719.0677	-0.0009
719.2472	0.0064
719.4267	-0.0082
719.6061	-0.0186
719.7856	0.0348
719.965	0.0174
720.1443	0.0057
720.3237	-0.0068
720.5031	0.0138
720.6824	-0.0069
720.8617	0.0349
721.041	0.0454
721.2203	0.0023
721.3995	0.0122
721.5788	0.013
721.758	-0.0145
721.9372	0.0096
722.1164	0.0003
722.2956	0.0033
722.4747	0.0454
722.6538	0.0252
722.8329	0.0595
723.012	0.0024
723.1911	0.0323
723.3702	0.0273
723.5492	0.0041
723.7282	-0.0049
723.9072	0.0123
724.0862	0.0157
724.2652	0.0191
724.4441	-0.0014
724.623	-0.0035
724.8019	0.0009
724.9808	0.019
725.1597	0.0165
725.3385	-0.0008
725.5174	0.0271
725.6962	0.0064
725.875	0.0271
726.0538	0.0047
726.2325	0.039
726.4112	-0.0123
726.59	0.0088
726.7687	-0.0075
726.9474	0.0463
727.126	0.0208
727.3047	-0.0137
727.4833	0.0246
727.6619	0.0016
727.8405	0.023
728.0191	0.0157
728.1976	-0.0019
728.3762	0.0273
728.5547	-0.0023
728.7332	0.0243
728.9116	0.0094
729.0901	-0.0023
729.2686	0.0091
729.447	-0.0036
729.6254	0.0116
729.8038	0.0005
729.9821	-0.0125
730.1605	0.0209
730.3388	0.0107
730.5171	0.0324
730.6954	0.0036
730.8737	0.0189
731.0519	-0.0009
731.2302	0.0186
731.4084	0.0013
731.5866	-0.0062
731.7648	-0.0004
731.9429	0.0095
732.1211	-0.0007
732.2992	0.0236
732.4773	0.0211
732.6554	0.0033
732.8335	0.0321
733.0115	0.0055
733.1896	-0.0038
733.3676	0.0053
733.5456	0.0013
733.7235	-0.0034
733.9015	0.0111
734.0794	-0.0085
734.2574	-0.0088
734.4353	0.0153
734.6131	0.0046
734.791	0.0121
734.9689	0.0056
735.1467	-0.0094
735.3245	0.0295
735.5023	0.0232
735.68	0.0087
735.8578	0.0075
736.0355	0.0012
736.2132	0.0109
736.3909	0.0026
736.5686	-0.0028
736.7463	-0.0139
736.9239	0.0191
737.1015	-0.0089
737.2791	0.0359
737.4567	0.011
737.6343	0.0237
737.8118	0.0084
737.9894	0.021
738.1669	0.0127
738.3444	0.064
738.5218	-0.0024
738.6993	0.025
738.8767	0.0211
739.0541	-0.0009
739.2315	0.0155
739.4089	0.0287
739.5863	0.0121
739.7636	-0.0005
739.9409	0.0039
740.1182	-0.0059
740.2955	0.0296
740.4728	-0.0151
740.65	0.0097
740.8272	0.0377
741.0044	0.0214
741.1816	0.013
741.3588	-0.0187
741.5359	0.0261
741.7131	-0.0119
741.8902	0.0442
742.0673	-0.0452
742.2444	0.0323
742.4214	0.0381
742.5985	0.004
742.7755	0.0233
742.9525	-0.0304
743.1295	0.0049
743.3064	0.0013
743.4834	0.0043
743.6603	0.0312
743.8372	-0.023
744.0141	0.0641
744.191	0.0283
744.3678	0.0027
744.5446	0.0173
744.7215	0.007
744.8982	0.0397
745.075	0.0406
745.2518	0.0113
745.4285	0.0304
745.6052	-0.0185
745.7819	0.0465
745.9586	0.0335
746.1353	-0.0245
746.3119	-0.0025
746.4885	0.0381
746.6651	0.0063
746.8417	0.0083
747.0183	0.0365
747.1948	-0.0019
747.3714	0.0259
747.5479	0.0064
747.7244	0.0054
747.9008	-0.0145
748.0773	0.0539
748.2537	0.0207
748.4301	0.0409
748.6065	0.0066
748.7829	-0.0194
748.9593	0.0052
749.1356	0.0043
749.3119	0.0261
749.4882	0.004
749.6645	0.0047
749.8408	0.0397
750.017	0.0311
750.1933	-0.0062
750.3695	0.0015
750.5457	-0.0049
750.7218	0.0224
750.898	0.009
751.0741	0.0079
751.2502	-0.0056
751.4263	0.0182
751.6024	0.0163
751.7784	-0.0015
751.9545	-0.0013
752.1305	-0.019
752.3065	0.0226
752.4825	0.0059
752.6584	0.0101
752.8344	0.0122
753.0103	-0.0136
753.1862	0.0163
753.3621	0.0118
753.5379	0.0187
753.7138	0.0056
753.8896	0.0196
754.0654	0.0035
754.2412	0.0175
754.417	0.0432
754.5927	0.0154
754.7685	0.018
754.9442	0.0239
755.1199	0.0204
755.2956	0.0224
755.4712	-0.019
755.6469	0.0074
755.8225	0.0146
755.9981	0.0027
756.1736	0.0056
756.3492	0.0073
756.5248	0.0291
756.7003	0.0061
756.8758	0.0053
757.0513	0.0111
757.2267	0.0151
757.4022	0.0057
757.5776	0.0092
757.753	0.0466
757.9284	0.0119
758.1038	0.0163
758.2791	-0.0067
758.4545	0.0136
758.6298	0.0134
758.8051	0.0019
758.9803	0.0018
759.1556	0.0105
759.3308	0.0269
759.506	0.0232
759.6812	-0.0031
759.8564	0.0114
760.0316	-0.0104
760.2067	0.0184
760.3819	0.0089
760.557	0.0091
760.732	-0.0074
760.9071	0.0484
761.0821	-0.002
761.2572	0.0151
761.4322	0.011
761.6072	-0.0142
761.7821	-0.0059
761.9571	0.0237
762.132	0.001
762.3069	0.0202
762.4818	0.0149
762.6567	-0.0045
762.8316	0.0325
763.0064	0.0107
763.1812	0.0156
763.356	-0.0224
763.5308	0.0349
763.7055	0.0017
763.8803	-0.0035
764.055	0.006
764.2297	-0.008
764.4044	-0.0067
764.579	0.0047
764.7537	0.0181
764.9283	0.0133
765.1029	0.0037
765.2775	0.0198
765.4521	0.0121
765.6266	0.0119
765.8011	0.0271
765.9756	0.0239
766.1501	0.017
766.3246	0.0164
766.4991	0.0199
766.6735	0.0264
766.8479	0.0057
767.0223	0.0457
767.1967	0.0089
767.371	0.0166
767.5454	0.0298
767.7197	0.0312
767.894	0.0014
768.0683	0.0296
768.2425	0.0496
768.4168	-0.0011
768.591	0.0006
768.7652	0.0207
768.9394	-0.0178
769.1135	0.0064
769.2877	0.0121
769.4618	0.0585
769.6359	-0.0072
769.81	0.0348
769.984	-0.0024
770.1581	0.0158
770.3321	0.0348
770.5061	0.0096
770.6801	0.0137
770.8541	0.0164
771.028	0.0395
771.202	0.0277
771.3759	0.0196
771.5498	0.0139
771.7236	0.0313
771.8975	0.0592
772.0713	0.0133
772.2451	-0.0026
772.4189	0.048
772.5927	-0.0395
772.7665	0.0239
772.9402	-0.0202
773.1139	-0.0041
773.2876	0.007
773.4613	0.0217
773.635	0.0365
773.8086	0.0307
773.9822	0.0539
774.1558	0.0587
774.3294	0.0285
774.503	0.0159
774.6765	0.0156
774.8501	0.0221
775.0236	0.0025
775.1971	0.0338
775.3705	-0.0126
775.544	-0.0395
775.7174	0.0096
775.8908	0.0456
776.0642	0.0155
776.2376	0.0527
776.4109	0.0289
776.5843	-0.0004
776.7576	0.0056
776.9309	0.1144
777.1041	0.005
777.2774	0.0005
777.4506	-0.0004
777.6238	0.0267
777.797	-0.008
777.9702	0.0533
778.1434	-0.0124
778.3165	0.0097
778.4896	-0.0139
778.6627	0.048
778.8358	0.0109
779.0089	-0.0097
779.1819	0.0497
779.3549	-0.0043
779.5279	-0.0199
779.7009	0.1006
779.8739	-0.0109
780.0468	0.0025
780.2197	0.0004
780.3926	-0.0061
780.5655	0.0527
780.7384	0.0039
780.9112	0.0698
781.0841	0.0187
781.2569	0.033
781.4297	-0.0162
781.6024	0.0329
781.7752	0.0534
781.9479	0.0725
782.1206	0.0056
782.2933	0.0401
782.466	0.0393
782.6386	0.0214
782.8113	0.0097
782.9839	-0.0158
783.1565	0.012
783.329	0.0003
783.5016	-0.0235
783.6741	-0.0057
783.8466	0.0331
784.0191	0.0558
784.1916	-0.0151
784.3641	-0.0981
784.5365	-0.0026
784.7089	-0.0127
784.8813	0.066
785.0537	0.0421
785.2261	0.0256
785.3984	0.0267
785.5707	0.0147
785.743	0.0257
785.9153	0.017
786.0876	-0.0041
786.2598	0.0019
786.432	0.0163
786.6042	0.0325
786.7764	-0.0035
786.9486	-0.0303
787.1207	0.0331
787.2928	0.0406
787.4649	0.0162
787.637	0.0093
787.8091	0.011
787.9811	0.0586
788.1532	0.0494
788.3252	0.0056
788.4972	0.0053
788.6691	0.0238
788.8411	-0.0225
789.013	0.0397
789.1849	-0.0204
789.3568	0.0182
789.5287	0.0806
789.7005	-0.0107
789.8723	0.0178
790.0442	0.0168
790.2159	0.009
790.3877	0.0525
790.5595	0.0397
790.7312	0.0087
790.9029	-0.0498
791.0746	0.0486
791.2463	0.0113
791.4179	0.0347
791.5896	0.0197
791.7612	0.0722
791.9328	0.0121
792.1044	0.003
792.2759	0.007
792.4474	0.0618
792.619	-0.005
792.7905	0.0289
792.9619	0.0702
793.1334	0.0784
793.3048	0.0955
793.4762	0.031
793.6476	-0.0279
793.819	0.0044
793.9904	0.0145
794.1617	-0.0143
794.333	0.0032
794.5043	0.0173
794.6756	-0.0008
794.8469	0.0197
795.0181	0.0223
795.1893	0.0381
795.3605	0.0204
795.5317	-0.0152
795.7029	-0.0087
795.874	0.0024
796.0452	0.0433
796.2163	0.0083
796.3873	0.0382
796.5584	0.0173
796.7294	0.0192
796.9005	0.0158
797.0715	-0.0398
797.2425	0.097
797.4134	0.0488
797.5844	0.0302
797.7553	-0.066
797.9262	0.0809
798.0971	0.033
798.2679	-0.0263
798.4388	0.0572
798.6096	0.0189
798.7804	0.0284
798.9512	0.0813
799.122	-0.0242
799.2927	0.0884
799.4635	-0.0652
799.6342	-0.0097
799.8049	0.0809
799.9755	-0.0103
800.1462	-0.0006
800.3168	-0.0548
800.4874	-0.0793
800.658	0.0741
800.8286	0.0072
800.9991	0.0285
801.1696	-0.0121
801.3402	0.0368
801.5106	-0.003
801.6811	-0.0112
801.8516	0.1055
802.022	0.0864
802.1924	-0.0271
802.3628	-0.0028
802.5332	0.0572
802.7035	0.1144
802.8739	0.0252
803.0442	-0.0988
803.2145	0.0143
803.3847	0.0863
803.555	0.1112
803.7252	0.0305
803.8954	0.0026
804.0656	-0.0518
804.2358	0.0197
804.4059	0.1156
804.5761	0.1081
804.7462	-0.0093
804.9163	0.0219
805.0864	-0.0293
805.2564	0.0367
805.4264	-0.0354
805.5965	0.0422
805.7665	-0.0052
805.9364	0.0503
806.1064	-0.0028
806.2763	0.0238
806.4462	0.0234
806.6161	0.0438
806.786	0.0393
806.9559	0.0267
807.1257	-0.0045
807.2955	0.0121
807.4653	0.0635
807.6351	0.0131
807.8048	0.0639
807.9746	0.0466
808.1443	-0.0368
808.314	0.0502
808.4837	0.058
808.6533	0.0817
808.8229	-0.0142
808.9926	0.0998
809.1622	0.0491
809.3317	0.0659
809.5013	-0.0221
809.6708	0.0812
809.8403	0.0075
810.0098	-0.0348
810.1793	-0.0445
810.3488	0.0109
810.5182	0.0447
810.6876	0.0271
810.857	-0.0266
811.0264	0.0222
811.1958	0.1293
811.3651	0.0207
811.5344	0.1289
811.7037	0.0132
811.873	-0.0024
812.0422	0.0514
812.2115	-0.0534
812.3807	-0.0503
812.5499	-0.0188
812.7191	-0.0412
812.8882	0.081
813.0574	0.0148
813.2265	-0.0275
813.3956	-0.0029
813.5646	0.0865
813.7337	0.0138
813.9027	-0.0912
814.0718	0.0152
814.2407	0.0173
814.4097	0.0221
814.5787	0.0725
814.7476	0.0172
814.9165	0.0593
815.0854	0.0245
815.2543	0.023
815.4232	0.0237
815.592	-0.0831
815.7608	0.0317
815.9296	0.1667
816.0984	0.1835
816.2671	-0.0829
816.4359	0.0946
816.6046	0.195
816.7733	-0.0438
816.942	-0.032
817.1106	0.1411
817.2793	-0.0628
817.4479	-0.0581
817.6165	0.0183
817.785	0.1173
817.9536	-0.1216
818.1221	-0.0568
818.2906	0.002
818.4591	-0.0075
818.6276	0.0762
818.7961	0.0635
818.9645	0.004
819.1329	0.0708
819.3013	-0.0521
819.4697	0.2019
819.638	0.1787
819.8064	0.178
819.9747	0.0618
820.143	-0.1589
820.3113	0.3493
820.4795	0.0071
820.6477	0.0965
820.816	0.0059
820.9842	0.1934
821.1523	0.2013
821.3205	-0.0069
821.4886	-0.0228
821.6567	-0.0778
821.8248	0.0711
821.9929	-0.0854
822.1609	0.0407
822.329	0.0905
822.497	-0.0341
822.665	0.0876
822.833	0.0501
823.0009	0.0056
823.1688	0.185
823.3367	0.0032
823.5046	0.1238
823.6725	0.0119
823.8404	0.0328
824.0082	0.0128
824.176	-0.0879
824.3438	0.3306
824.5116	0.0183
824.6793	0.1274
824.847	-0.123
825.0147	0.4858
825.1824	0.1015
825.3501	0.2562
825.5177	0.1364
825.6854	-0.1993
825.853	-0.0251
826.0206	0.1175
826.1881	0.1692
826.3557	0.0315
826.5232	0.1264
826.6907	-0.0103
826.8582	0.6089
827.0257	0.1097
827.1931	0.0514
827.3605	-0.0718
827.528	-0.0779
827.6953	-0.154
827.8627	-0.0202
828.03	0.1289
828.1974	-0.1427
828.3647	-0.0118
828.532	0.0908
828.6992	0.2321
828.8665	-0.275
829.0337	0.3553
829.2009	-0.0993
829.3681	0.035
829.5352	-0.2961
829.7024	0.0488
829.8695	0.0257
830.0366	0.2246
830.2037	0.0878
830.3707	0.0987
830.5378	-0.0023
830.7048	-0.1187
830.8718	0.0834
831.0388	0.2781
831.2057	0.3704
831.3727	-0.2102
831.5396	-0.0345
831.7065	-0
831.8734	0.2862
832.0402	0.3935
832.2071	0.2187
832.3739	-0.3493
832.5407	-1.5128
832.7075	-0.1822
832.8742	0.892
833.041	0.391
833.2077	0.1592
833.3744	0.0277
833.541	0.0681
833.7077	-0.0606
833.8743	0.1892
834.0409	0.0489
834.2075	0.1162
834.3741	-0.14
834.5407	0.1577
834.7072	-0.0056
834.8737	0.3506
835.0402	0.1651
835.2067	-0.0753
835.3731	0.1902
835.5395	-0.016
835.706	-0.2684
835.8723	0.1186
836.0387	0.1101
836.2051	-0.0268
836.3714	0.2236
836.5377	0.0469
836.704	0.0939
836.8703	-0.1939
837.0365	-0.3506
837.2027	0.3221
837.3689	0.0935
837.5351	-0.0424
837.7013	0.1922
837.8674	-0
838.0335	0.077
838.1997	-0.1959
838.3657	-0
838.5318	-0.2224
838.6978	0.3394
838.8639	-0.3936
839.0299	0.3884
839.1958	0.1497
839.3618	0.3991
839.5277	0.8362
839.6937	-0.3156
839.8596	-0.184
840.0254	0.0313
840.1913	0.0289
840.3571	-0.1802
840.523	-0
840.6888	-0.0434
840.8545	-0.6874
841.0203	-0.1012
841.186	0.2363
841.3517	-0.08
841.5174	-0.0654
841.6831	0.083
841.8488	0.6711
842.0144	-0.0321
842.18	0.3755
842.3456	-0.6406
842.5112	-0
842.6767	-0.0437
842.8422	0.7942
843.0077	0.0958
843.1732	-0.3097
843.3387	0.5588
843.5042	0.4599
843.6696	-0.2599
843.835	-0
844.0004	-0.24
844.1657	-0
844.3311	-0.1691
844.4964	-0.6104
844.6617	0.2838
844.827	-0
844.9923	0.4337
845.1575	-0.0531
845.3227	0.2927
845.4879	-0.2221
845.6531	-0.2146
845.8183	0.5313
845.9834	0.7287
846.1485	0.0356
846.3136	-0.0878
846.4787	0.7565
846.6438	-0.3321
846.8088	0.5254
846.9738	-0.3388
847.1388	0.4635
847.3038	0.5853
847.4687	-0
847.6337	0.3257
847.7986	-0.046
847.9635	-0.1551
848.1284	0.559
848.2932	1.2678
848.458	-0
848.6228	-0.2149
848.7876	-0
848.9524	-0.2984
849.1172	-1.9665
849.2819	-0
849.4466	0.8134
849.6113	-0.0268
849.7759	-0
849.9406	-0.2299
850.1052	-1.0045
850.2698	-0
850.4344	0.8799
850.599	-0.2929
850.7635	1.403
850.928	0.8674
851.0925	0.0328
851.257	-0.2429
851.4215	-0
851.5859	0.1152
851.7503	-0
851.9147	-0.5765
852.0791	0.0912
852.2434	0.9783
852.4078	-0
852.5721	-0
852.7364	0.0626
852.9007	-0.1307
853.0649	-0
853.2291	0.4378
853.3934	-0
853.5575	-0.0585
853.7217	0.3216
853.8859	-0.2307
854.05	-0.4081
854.2141	0.0269
854.3782	-0.3163
854.5423	0.643
854.7063	0.4641
854.8703	0.1475
855.0343	0.0508
855.1983	0.2288
855.3623	1.0135
855.5262	-0
855.6901	0.4931
855.854	0.3227
856.0179	-0
856.1818	-0
856.3456	0.3341
856.5094	-0.5435
856.6732	-0.5983
856.837	-0.8666
857.0008	-0
857.1645	-0
857.3282	-0.6423
857.4919	0.4025
857.6556	0.4669
857.8192	-0.3216
857.9828	-0.1379
858.1465	-0.0179
858.31	-0
858.4736	-0.6257
858.6372	-0
858.8007	0.0917
858.9642	0.4013
859.1277	-0
859.2911	-0.5782
859.4546	-1.2833
859.618	0.2377
859.7814	0.6861
859.9448	-0
860.1081	-0.1734
860.2715	-1.9243
860.4348	0.623
860.5981	1.0762
860.7614	-0
860.9246	0.0348
861.0879	0.155
861.2511	-0
861.4143	-0
861.5774	-0
861.7406	-0
861.9037	-0.8573
862.0668	-0.7368
862.2299	0.4561
862.393	0.6132
862.556	0.4618
862.7191	-0.6334
862.8821	0.6141
863.0451	0.0698
863.208	0.2547
863.371	-0.4643
863.5339	0.5425
863.6968	-0
863.8597	-0
864.0225	-0.3097
864.1854	-0.1208
864.3482	-1.0028
864.511	-0.0782
864.6737	-0
864.8365	1.3943
864.9992	-0
865.1619	-0.1084
865.3246	-1.8274
865.4873	-0.3243
865.65	0.0924
865.8126	0.1908
865.9752	0.5455
866.1378	0.3986
866.3004	0.611
866.4629	-1.9584
866.6254	-0
866.7879	0.1674
866.9504	0.2396
867.1129	-0.6143
867.2753	-0.3268
867.4377	-0.049
867.6001	-0.4898
867.7625	-0.3056
867.9249	-0
868.0872	0.5019
868.2495	0.7524
868.4118	-0
868.5741	-0
868.7363	-0
868.8986	0.3231
869.0608	-0
869.223	-0.2094
869.3851	-0.4085
869.5473	0.1855
869.7094	-0
869.8715	-0
870.0336	0.2381
870.1957	-0
870.3577	0.2536
870.5197	0.155
870.6817	-1.0624
870.8437	0.0896
871.0057	0.2854
871.1676	0.2661
871.3295	0.133
871.4914	-0
871.6533	-0.5799
871.8151	1.7603
871.977	-0.0378
872.1388	0.0878
872.3006	-0.6711
872.4623	-0.4826
872.6241	0.5561
872.7858	0.4063
872.9475	0.0707
873.1092	0.0749
873.2709	-0
873.4325	-2.0334
873.5941	0.0348
873.7557	0.568
873.9173	0.3571
874.0789	0.1996
874.2404	-0.1123
874.4019	-0.1664
874.5634	0.4706
874.7249	-0
874.8863	0.3379
875.0478	0.1513
875.2092	-0
875.3706	0.2402
875.5319	-0
875.6933	-0.2998
875.8546	-0
876.0159	0.2086
876.1772	-0
876.3385	0.597
876.4997	0.5452
876.6609	0.1173
876.8221	-0
876.9833	0.1465
877.1445	0.4639
877.3056	-1.2006
877.4667	-0
877.6278	0.9241
877.7889	0.9106
877.9499	-0
878.111	-0.2164
878.272	1.1927
878.433	-0
878.5939	-0.2528
878.7549	0.5929
878.9158	0.4857
879.0767	-0
879.2376	0.7988
879.3984	0.0119
879.5593	-0
879.7201	-1.5351
879.8809	-0.2117
880.0417	-0.1551
880.2024	0.3987
880.3632	-0.6351
880.5239	-0.0687
880.6846	-0.4088
880.8452	-0.0993
881.0059	-1.0028
881.1665	0.1587
881.3271	1.4729
881.4877	-0
881.6483	-1.1912
881.8088	-0
881.9693	-0
882.1298	-0
882.2903	-0
