Data from D4ACN5uM420nmA_Absorbance_14-37-08-532.txt Node
Date: Fri Feb 21 14:37:08 GMT 2025
User: LASERRRRR
Spectrometer: FLMT03099
Trigger mode: 0
Integration Time (sec): 1.500000E-2
Scans to average: 1
Electric dark correction enabled: true
Nonlinearity correction enabled: false
Boxcar width: 0
XAxis mode: Wavelengths
Number of Pixels in Spectrum: 3648
>>>>>Begin Spectral Data<<<<<
179.3399	-0.2313
179.5586	-0.2313
179.7771	-0.2313
179.9957	0.1068
180.2143	-0
180.4329	0.0563
180.6514	-0
180.8699	0.7609
181.0885	0.7278
181.307	0.0314
181.5255	0.5929
181.744	-0
181.9625	0.3443
182.181	-0.1994
182.3994	-0.1189
182.6179	-0
182.8363	-0
183.0547	0.2968
183.2732	0.1357
183.4916	0.3034
183.71	0.2191
183.9284	0.4529
184.1467	0.2883
184.3651	0.0578
184.5835	0.2488
184.8018	0.1603
185.0201	0.1991
185.2385	0.4305
185.4568	0.1133
185.6751	0.2857
185.8934	0.5911
186.1117	-0.0754
186.3299	0.3124
186.5482	0.1534
186.7664	0.1585
186.9847	0.1588
187.2029	0.5975
187.4211	0.3541
187.6393	0.3298
187.8575	0.2543
188.0757	0.5875
188.2939	0.0026
188.512	0.1901
188.7302	0.0899
188.9483	0.1814
189.1665	0.5708
189.3846	0.1832
189.6027	0.0656
189.8208	0.2863
190.0389	0.3144
190.257	0.3067
190.475	-0.0754
190.6931	0.1262
190.9111	0.2306
191.1292	0.2063
191.3472	0.1329
191.5652	0.0337
191.7832	0.2412
192.0012	0.134
192.2192	0.2419
192.4371	0.027
192.6551	0.2243
192.873	0.2143
193.091	0.1009
193.3089	0.1549
193.5268	0.2623
193.7447	0.1904
193.9626	0.1684
194.1805	0.2176
194.3984	0.209
194.6162	0.1862
194.8341	0.2423
195.0519	0.2179
195.2697	0.2096
195.4875	0.2837
195.7054	0.3203
195.9231	0.234
196.1409	0.3369
196.3587	0.2867
196.5765	0.3094
196.7942	0.3664
197.012	0.3556
197.2297	0.3246
197.4474	0.3607
197.6651	0.2957
197.8828	0.2961
198.1005	0.3823
198.3182	0.415
198.5358	0.3904
198.7535	0.3864
198.9711	0.3431
199.1888	0.3648
199.4064	0.4132
199.624	0.3562
199.8416	0.4059
200.0592	0.3995
200.2767	0.4114
200.4943	0.3979
200.7119	0.3446
200.9294	0.4044
201.1469	0.3822
201.3645	0.4309
201.582	0.3775
201.7995	0.4159
202.017	0.4221
202.2344	0.4381
202.4519	0.3715
202.6694	0.3996
202.8868	0.3953
203.1042	0.4217
203.3217	0.3913
203.5391	0.3805
203.7565	0.3695
203.9739	0.3861
204.1913	0.3648
204.4086	0.3693
204.626	0.3784
204.8433	0.3512
205.0607	0.36
205.278	0.3298
205.4953	0.3456
205.7126	0.3376
205.9299	0.3537
206.1472	0.3122
206.3644	0.342
206.5817	0.3203
206.7989	0.3477
207.0162	0.3131
207.2334	0.3366
207.4506	0.3058
207.6678	0.3044
207.885	0.2995
208.1022	0.296
208.3194	0.308
208.5365	0.3069
208.7537	0.3089
208.9708	0.3086
209.1879	0.2899
209.405	0.2758
209.6222	0.2627
209.8392	0.2913
210.0563	0.2654
210.2734	0.265
210.4905	0.2871
210.7075	0.28
210.9245	0.2541
211.1416	0.2612
211.3586	0.2824
211.5756	0.2421
211.7926	0.2725
212.0096	0.2791
212.2265	0.2534
212.4435	0.2585
212.6604	0.2387
212.8774	0.2434
213.0943	0.2538
213.3112	0.2644
213.5281	0.2568
213.745	0.2429
213.9619	0.2327
214.1788	0.2547
214.3956	0.2396
214.6125	0.2642
214.8293	0.248
215.0461	0.2426
215.2629	0.2513
215.4798	0.2535
215.6965	0.2475
215.9133	0.2462
216.1301	0.2297
216.3469	0.2521
216.5636	0.2489
216.7803	0.236
216.9971	0.2537
217.2138	0.2398
217.4305	0.2338
217.6472	0.2417
217.8639	0.2602
218.0805	0.2422
218.2972	0.238
218.5138	0.2495
218.7305	0.2578
218.9471	0.2537
219.1637	0.2658
219.3803	0.2405
219.5969	0.2469
219.8135	0.2611
220.0301	0.2435
220.2466	0.256
220.4632	0.2445
220.6797	0.2543
220.8962	0.2731
221.1127	0.2705
221.3292	0.2574
221.5457	0.2855
221.7622	0.2529
221.9787	0.2806
222.1951	0.2764
222.4116	0.2631
222.628	0.2904
222.8444	0.2899
223.0608	0.2736
223.2772	0.2794
223.4936	0.2691
223.71	0.2922
223.9264	0.283
224.1427	0.2867
224.3591	0.2935
224.5754	0.2857
224.7917	0.2885
225.008	0.292
225.2243	0.3064
225.4406	0.2971
225.6569	0.2995
225.8732	0.312
226.0894	0.2943
226.3057	0.3045
226.5219	0.3217
226.7381	0.3249
226.9543	0.3081
227.1705	0.319
227.3867	0.3191
227.6029	0.3373
227.8191	0.329
228.0352	0.3418
228.2513	0.3582
228.4675	0.342
228.6836	0.3508
228.8997	0.3499
229.1158	0.3414
229.3319	0.3608
229.548	0.3474
229.764	0.3625
229.9801	0.3721
230.1961	0.3634
230.4121	0.3678
230.6282	0.3838
230.8442	0.3949
231.0602	0.3858
231.2761	0.3909
231.4921	0.3873
231.7081	0.398
231.924	0.4013
232.14	0.3989
232.3559	0.4029
232.5718	0.4098
232.7877	0.412
233.0036	0.4238
233.2195	0.4029
233.4353	0.4162
233.6512	0.4202
233.867	0.4327
234.0829	0.4367
234.2987	0.4297
234.5145	0.4303
234.7303	0.4313
234.9461	0.4413
235.1619	0.4299
235.3776	0.4395
235.5934	0.4427
235.8091	0.4446
236.0249	0.4467
236.2406	0.4352
236.4563	0.4492
236.672	0.4455
236.8877	0.4547
237.1034	0.4406
237.319	0.462
237.5347	0.4514
237.7503	0.447
237.966	0.4629
238.1816	0.4475
238.3972	0.472
238.6128	0.4579
238.8284	0.4724
239.0439	0.4558
239.2595	0.4736
239.475	0.4591
239.6906	0.4613
239.9061	0.4598
240.1216	0.472
240.3371	0.4556
240.5526	0.4653
240.7681	0.4625
240.9836	0.4642
241.199	0.4671
241.4145	0.4535
241.6299	0.453
241.8453	0.4513
242.0607	0.4449
242.2761	0.4339
242.4915	0.4274
242.7069	0.4288
242.9223	0.4321
243.1376	0.4178
243.353	0.4123
243.5683	0.4087
243.7836	0.4016
243.9989	0.3959
244.2142	0.3829
244.4295	0.3794
244.6448	0.3801
244.86	0.368
245.0753	0.3541
245.2905	0.3498
245.5057	0.3442
245.721	0.3456
245.9362	0.3425
246.1514	0.3312
246.3665	0.321
246.5817	0.3138
246.7969	0.3072
247.012	0.3036
247.2271	0.2975
247.4423	0.292
247.6574	0.2914
247.8725	0.2805
248.0876	0.2732
248.3026	0.2754
248.5177	0.2608
248.7328	0.2574
248.9478	0.2555
249.1628	0.2588
249.3779	0.2472
249.5929	0.2496
249.8079	0.2464
250.0228	0.2384
250.2378	0.231
250.4528	0.2348
250.6677	0.2288
250.8827	0.218
251.0976	0.2198
251.3125	0.2218
251.5274	0.2152
251.7423	0.2143
251.9572	0.215
252.172	0.2124
252.3869	0.205
252.6017	0.207
252.8166	0.2067
253.0314	0.2018
253.2462	0.201
253.461	0.1974
253.6758	0.1989
253.8906	0.1993
254.1053	0.1967
254.3201	0.1982
254.5348	0.185
254.7496	0.1888
254.9643	0.196
255.179	0.1902
255.3937	0.1966
255.6083	0.1927
255.823	0.1918
256.0377	0.1896
256.2523	0.1898
256.467	0.1905
256.6816	0.1899
256.8962	0.1914
257.1108	0.185
257.3254	0.1856
257.54	0.1851
257.7545	0.1877
257.9691	0.1857
258.1836	0.1825
258.3981	0.1883
258.6127	0.1784
258.8272	0.19
259.0417	0.1802
259.2561	0.1828
259.4706	0.1803
259.6851	0.1816
259.8995	0.1792
260.114	0.1802
260.3284	0.1751
260.5428	0.1814
260.7572	0.1793
260.9716	0.1855
261.186	0.1803
261.4003	0.1773
261.6147	0.1839
261.829	0.1788
262.0433	0.177
262.2577	0.1833
262.472	0.1831
262.6863	0.184
262.9005	0.184
263.1148	0.1803
263.3291	0.1829
263.5433	0.1887
263.7576	0.1856
263.9718	0.1843
264.186	0.1887
264.4002	0.1867
264.6144	0.194
264.8286	0.1915
265.0427	0.1967
265.2569	0.1903
265.471	0.1902
265.6851	0.1946
265.8993	0.1889
266.1134	0.1971
266.3275	0.1917
266.5415	0.1949
266.7556	0.1992
266.9697	0.1966
267.1837	0.1979
267.3978	0.1945
267.6118	0.1881
267.8258	0.2004
268.0398	0.1949
268.2538	0.1947
268.4677	0.1905
268.6817	0.1912
268.8957	0.1822
269.1096	0.1867
269.3235	0.1951
269.5374	0.196
269.7514	0.1936
269.9652	0.1927
270.1791	0.1872
270.393	0.1881
270.6068	0.1912
270.8207	0.1841
271.0345	0.187
271.2483	0.1846
271.4622	0.184
271.676	0.1878
271.8897	0.1835
272.1035	0.189
272.3173	0.1855
272.531	0.1865
272.7448	0.1835
272.9585	0.1843
273.1722	0.1885
273.3859	0.1878
273.5996	0.1912
273.8133	0.1943
274.0269	0.1873
274.2406	0.1896
274.4542	0.1898
274.6679	0.1937
274.8815	0.1987
275.0951	0.1975
275.3087	0.1988
275.5223	0.1986
275.7358	0.1972
275.9494	0.2017
276.1629	0.2009
276.3765	0.2005
276.59	0.1961
276.8035	0.2007
277.017	0.1991
277.2305	0.2018
277.444	0.2041
277.6574	0.205
277.8709	0.2084
278.0843	0.2017
278.2978	0.2031
278.5112	0.2024
278.7246	0.1938
278.938	0.2013
279.1513	0.2061
279.3647	0.2021
279.5781	0.1979
279.7914	0.196
280.0047	0.199
280.2181	0.1959
280.4314	0.2012
280.6447	0.2057
280.8579	0.1968
281.0712	0.1911
281.2845	0.1954
281.4977	0.1989
281.711	0.1907
281.9242	0.1951
282.1374	0.1986
282.3506	0.1933
282.5638	0.1943
282.7769	0.1897
282.9901	0.1937
283.2033	0.1905
283.4164	0.1873
283.6295	0.1906
283.8426	0.1897
284.0557	0.1955
284.2688	0.1938
284.4819	0.1877
284.695	0.1949
284.908	0.1873
285.1211	0.1904
285.3341	0.1936
285.5471	0.1927
285.7601	0.192
285.9731	0.1915
286.1861	0.1943
286.3991	0.1971
286.612	0.1923
286.825	0.1966
287.0379	0.1872
287.2508	0.1963
287.4637	0.1915
287.6766	0.1902
287.8895	0.1933
288.1024	0.194
288.3152	0.1967
288.5281	0.1911
288.7409	0.1949
288.9538	0.1969
289.1666	0.1904
289.3794	0.1937
289.5922	0.195
289.8049	0.1906
290.0177	0.188
290.2304	0.1864
290.4432	0.1952
290.6559	0.1912
290.8686	0.1872
291.0813	0.189
291.294	0.1907
291.5067	0.1882
291.7194	0.1918
291.932	0.1829
292.1447	0.1902
292.3573	0.1913
292.5699	0.195
292.7825	0.1844
292.9951	0.187
293.2077	0.1853
293.4203	0.191
293.6328	0.1864
293.8454	0.191
294.0579	0.1923
294.2704	0.194
294.4829	0.1897
294.6954	0.1907
294.9079	0.1875
295.1204	0.1897
295.3328	0.1929
295.5453	0.1923
295.7577	0.1902
295.9701	0.1913
296.1825	0.191
296.3949	0.1903
296.6073	0.1938
296.8197	0.1872
297.0321	0.191
297.2444	0.185
297.4567	0.1895
297.6691	0.193
297.8814	0.1871
298.0937	0.1859
298.306	0.1864
298.5182	0.1911
298.7305	0.1885
298.9428	0.1925
299.155	0.1822
299.3672	0.1889
299.5794	0.1971
299.7916	0.1877
300.0038	0.1887
300.216	0.1886
300.4282	0.1867
300.6403	0.1983
300.8525	0.1914
301.0646	0.1932
301.2767	0.1936
301.4888	0.1913
301.7009	0.1882
301.913	0.1863
302.125	0.1904
302.3371	0.1943
302.5491	0.1947
302.7612	0.1934
302.9732	0.1927
303.1852	0.1896
303.3972	0.1945
303.6092	0.195
303.8211	0.1859
304.0331	0.1874
304.245	0.1868
304.457	0.1891
304.6689	0.1887
304.8808	0.1851
305.0927	0.1925
305.3046	0.1889
305.5164	0.1882
305.7283	0.1842
305.9401	0.1788
306.152	0.1795
306.3638	0.1861
306.5756	0.1794
306.7874	0.1797
306.9992	0.1746
307.2109	0.1735
307.4227	0.1774
307.6344	0.1768
307.8462	0.1732
308.0579	0.1769
308.2696	0.1701
308.4813	0.1678
308.693	0.1638
308.9046	0.1723
309.1163	0.1667
309.328	0.1675
309.5396	0.1571
309.7512	0.1636
309.9628	0.1619
310.1744	0.1568
310.386	0.1574
310.5976	0.1558
310.8091	0.1595
311.0207	0.1569
311.2322	0.1565
311.4437	0.1515
311.6552	0.1522
311.8667	0.1515
312.0782	0.1496
312.2897	0.1532
312.5012	0.1485
312.7126	0.1518
312.924	0.1471
313.1355	0.145
313.3469	0.1423
313.5583	0.1428
313.7696	0.1417
313.981	0.1518
314.1924	0.1447
314.4037	0.1444
314.6151	0.1413
314.8264	0.1446
315.0377	0.1424
315.249	0.1434
315.4603	0.1423
315.6716	0.1434
315.8828	0.1386
316.0941	0.1387
316.3053	0.1392
316.5165	0.1443
316.7277	0.1383
316.9389	0.1443
317.1501	0.1398
317.3613	0.1371
317.5724	0.1352
317.7836	0.1325
317.9947	0.1394
318.2058	0.1358
318.417	0.1377
318.6281	0.1387
318.8391	0.1414
319.0502	0.1344
319.2613	0.1373
319.4723	0.1403
319.6834	0.1361
319.8944	0.1357
320.1054	0.1441
320.3164	0.1314
320.5274	0.1339
320.7383	0.1387
320.9493	0.1334
321.1602	0.1382
321.3712	0.1361
321.5821	0.1334
321.793	0.1415
322.0039	0.1366
322.2148	0.1362
322.4257	0.1366
322.6365	0.1308
322.8474	0.1415
323.0582	0.1429
323.269	0.1405
323.4798	0.1435
323.6906	0.1323
323.9014	0.1366
324.1122	0.1355
324.3229	0.143
324.5337	0.1421
324.7444	0.137
324.9551	0.1452
325.1658	0.1385
325.3765	0.1448
325.5872	0.1412
325.7979	0.1393
326.0085	0.1444
326.2192	0.1434
326.4298	0.1428
326.6404	0.1516
326.851	0.1432
327.0616	0.1481
327.2722	0.1426
327.4828	0.1417
327.6933	0.1498
327.9039	0.1451
328.1144	0.1497
328.3249	0.1474
328.5354	0.1519
328.7459	0.1477
328.9564	0.1526
329.1669	0.144
329.3773	0.1469
329.5878	0.1495
329.7982	0.1481
330.0086	0.149
330.219	0.1506
330.4294	0.1512
330.6398	0.1542
330.8502	0.1592
331.0605	0.1551
331.2708	0.1496
331.4812	0.1541
331.6915	0.153
331.9018	0.1561
332.1121	0.1538
332.3224	0.1558
332.5326	0.147
332.7429	0.1531
332.9531	0.1584
333.1633	0.1533
333.3735	0.1493
333.5837	0.1522
333.7939	0.1495
334.0041	0.1591
334.2143	0.1507
334.4244	0.1552
334.6346	0.1529
334.8447	0.1472
335.0548	0.1566
335.2649	0.1541
335.475	0.1569
335.685	0.1531
335.8951	0.1502
336.1051	0.1509
336.3152	0.1563
336.5252	0.155
336.7352	0.154
336.9452	0.155
337.1552	0.1552
337.3652	0.1453
337.5751	0.1524
337.7851	0.1521
337.995	0.1557
338.2049	0.1555
338.4148	0.1569
338.6247	0.1534
338.8346	0.1512
339.0445	0.1515
339.2543	0.1533
339.4642	0.1498
339.674	0.1505
339.8838	0.1546
340.0936	0.155
340.3034	0.1479
340.5132	0.1521
340.7229	0.1565
340.9327	0.1662
341.1424	0.1596
341.3522	0.1526
341.5619	0.1608
341.7716	0.1649
341.9813	0.1643
342.1909	0.1671
342.4006	0.1583
342.6102	0.1656
342.8199	0.1653
343.0295	0.1636
343.2391	0.1671
343.4487	0.1601
343.6583	0.1715
343.8679	0.1617
344.0774	0.1609
344.287	0.1705
344.4965	0.164
344.706	0.1722
344.9155	0.1662
345.125	0.1709
345.3345	0.1805
345.544	0.1715
345.7534	0.173
345.9629	0.1762
346.1723	0.1753
346.3817	0.1785
346.5911	0.1737
346.8005	0.1842
347.0099	0.1807
347.2193	0.1864
347.4286	0.1878
347.638	0.1799
347.8473	0.1886
348.0566	0.179
348.2659	0.1874
348.4752	0.1786
348.6845	0.1852
348.8937	0.1923
349.103	0.1864
349.3122	0.1843
349.5214	0.1926
349.7306	0.1866
349.9398	0.189
350.149	0.1893
350.3582	0.1845
350.5674	0.19
350.7765	0.1892
350.9856	0.1812
351.1948	0.1915
351.4039	0.1878
351.613	0.1897
351.822	0.1923
352.0311	0.1915
352.2402	0.1863
352.4492	0.191
352.6582	0.193
352.8672	0.1913
353.0762	0.1947
353.2852	0.1901
353.4942	0.1954
353.7032	0.188
353.9121	0.1939
354.1211	0.1946
354.33	0.189
354.5389	0.1854
354.7478	0.1859
354.9567	0.1948
355.1655	0.1932
355.3744	0.1897
355.5833	0.1951
355.7921	0.1966
356.0009	0.1843
356.2097	0.1815
356.4185	0.1855
356.6273	0.1937
356.8361	0.1876
357.0448	0.191
357.2536	0.1862
357.4623	0.1892
357.671	0.1991
357.8797	0.1913
358.0884	0.1905
358.2971	0.191
358.5057	0.1956
358.7144	0.1905
358.923	0.2041
359.1316	0.1992
359.3402	0.1937
359.5488	0.1921
359.7574	0.2103
359.966	0.2044
360.1746	0.2012
360.3831	0.2083
360.5916	0.2041
360.8002	0.2066
361.0087	0.1979
361.2172	0.2015
361.4256	0.2075
361.6341	0.2101
361.8426	0.2053
362.051	0.2092
362.2594	0.209
362.4678	0.2089
362.6762	0.2071
362.8846	0.2114
363.093	0.2095
363.3014	0.2164
363.5097	0.2057
363.718	0.2113
363.9264	0.2174
364.1347	0.2111
364.343	0.2152
364.5513	0.2131
364.7595	0.2165
364.9678	0.2115
365.176	0.2222
365.3842	0.2222
365.5925	0.2183
365.8007	0.2208
366.0089	0.2188
366.217	0.2157
366.4252	0.2187
366.6333	0.2277
366.8415	0.2305
367.0496	0.2264
367.2577	0.2309
367.4658	0.2216
367.6739	0.2282
367.882	0.2314
368.09	0.2324
368.2981	0.2332
368.5061	0.2339
368.7141	0.2349
368.9221	0.2368
369.1301	0.2346
369.3381	0.243
369.5461	0.2289
369.754	0.2357
369.962	0.2328
370.1699	0.2405
370.3778	0.2522
370.5857	0.2384
370.7936	0.2381
371.0015	0.2428
371.2093	0.2371
371.4172	0.2375
371.625	0.2421
371.8328	0.2413
372.0406	0.2458
372.2484	0.2349
372.4562	0.2443
372.664	0.2458
372.8717	0.2543
373.0795	0.2511
373.2872	0.2519
373.4949	0.2505
373.7026	0.2434
373.9103	0.2459
374.118	0.2546
374.3256	0.2562
374.5333	0.2459
374.7409	0.2487
374.9485	0.2502
375.1561	0.2619
375.3637	0.2482
375.5713	0.2496
375.7789	0.2554
375.9864	0.2486
376.194	0.2587
376.4015	0.2481
376.609	0.2599
376.8165	0.2524
377.024	0.2482
377.2315	0.2658
377.4389	0.2556
377.6464	0.2664
377.8538	0.2605
378.0612	0.2605
378.2686	0.2593
378.476	0.2686
378.6834	0.268
378.8908	0.2668
379.0981	0.2644
379.3055	0.2648
379.5128	0.2609
379.7201	0.2683
379.9274	0.263
380.1347	0.2613
380.342	0.2844
380.5492	0.2718
380.7565	0.2656
380.9637	0.2732
381.1709	0.2628
381.3781	0.2768
381.5853	0.2647
381.7925	0.2713
381.9997	0.2755
382.2068	0.2771
382.4139	0.2781
382.6211	0.2731
382.8282	0.2785
383.0353	0.2788
383.2424	0.269
383.4494	0.2726
383.6565	0.2752
383.8635	0.2706
384.0706	0.2851
384.2776	0.2678
384.4846	0.281
384.6916	0.2798
384.8986	0.2779
385.1055	0.2878
385.3125	0.2764
385.5194	0.2883
385.7263	0.2685
385.9333	0.2798
386.1402	0.2856
386.347	0.2785
386.5539	0.2901
386.7608	0.272
386.9676	0.2793
387.1744	0.2785
387.3813	0.28
387.5881	0.2616
387.7948	0.2879
388.0016	0.2834
388.2084	0.2743
388.4151	0.2852
388.6219	0.2617
388.8286	0.2719
389.0353	0.2781
389.242	0.2727
389.4487	0.2766
389.6553	0.265
389.862	0.268
390.0686	0.2762
390.2753	0.2799
390.4819	0.2784
390.6885	0.2665
390.8951	0.2756
391.1016	0.2643
391.3082	0.2643
391.5147	0.2636
391.7213	0.2661
391.9278	0.2689
392.1343	0.2607
392.3408	0.2711
392.5473	0.2645
392.7537	0.2462
392.9602	0.2589
393.1666	0.2601
393.373	0.2506
393.5794	0.2569
393.7858	0.2536
393.9922	0.248
394.1986	0.2567
394.4049	0.2541
394.6113	0.2531
394.8176	0.2546
395.0239	0.2548
395.2302	0.2496
395.4365	0.2564
395.6428	0.2456
395.8491	0.2443
396.0553	0.238
396.2615	0.2471
396.4678	0.2567
396.674	0.2383
396.8802	0.2464
397.0863	0.2396
397.2925	0.2467
397.4987	0.2348
397.7048	0.2407
397.9109	0.2356
398.117	0.2367
398.3231	0.2383
398.5292	0.2301
398.7353	0.2349
398.9413	0.2326
399.1474	0.2334
399.3534	0.2419
399.5594	0.241
399.7654	0.2295
399.9714	0.2339
400.1774	0.2318
400.3833	0.2373
400.5893	0.2363
400.7952	0.2372
401.0011	0.2385
401.207	0.236
401.4129	0.24
401.6188	0.2294
401.8247	0.2463
402.0305	0.2345
402.2364	0.2452
402.4422	0.2349
402.648	0.235
402.8538	0.2264
403.0596	0.2354
403.2654	0.2395
403.4711	0.2394
403.6768	0.2366
403.8826	0.2301
404.0883	0.2321
404.294	0.2258
404.4997	0.2327
404.7054	0.2411
404.911	0.2384
405.1167	0.228
405.3223	0.2351
405.5279	0.2323
405.7335	0.2359
405.9391	0.2312
406.1447	0.2356
406.3502	0.2437
406.5558	0.2243
406.7613	0.2346
406.9668	0.2332
407.1724	0.2355
407.3778	0.2331
407.5833	0.2255
407.7888	0.2202
407.9942	0.2276
408.1997	0.237
408.4051	0.2366
408.6105	0.2403
408.8159	0.2268
409.0213	0.2456
409.2267	0.2426
409.432	0.2373
409.6374	0.2275
409.8427	0.2291
410.048	0.2263
410.2533	0.2312
410.4586	0.2204
410.6639	0.2362
410.8691	0.2243
411.0744	0.2371
411.2796	0.2312
411.4848	0.2325
411.69	0.2205
411.8952	0.2384
412.1004	0.2263
412.3056	0.2167
412.5107	0.236
412.7158	0.2402
412.921	0.2336
413.1261	0.2268
413.3312	0.2329
413.5362	0.2428
413.7413	0.2411
413.9464	0.2248
414.1514	0.2251
414.3564	0.2271
414.5614	0.2336
414.7664	0.2256
414.9714	0.2241
415.1764	0.2346
415.3813	0.2188
415.5863	0.2312
415.7912	0.2246
415.9961	0.2208
416.201	0.2378
416.4059	0.2341
416.6108	0.2235
416.8156	0.2241
417.0205	0.2167
417.2253	0.2234
417.4301	0.2286
417.6349	0.2236
417.8397	0.2182
418.0445	0.22
418.2492	0.2197
418.454	0.2268
418.6587	0.2228
418.8634	0.2271
419.0681	0.2275
419.2728	0.2199
419.4775	0.2246
419.6822	0.2031
419.8868	0.2134
420.0915	0.2167
420.2961	0.2053
420.5007	0.2095
420.7053	0.2202
420.9099	0.2146
421.1144	0.2237
421.319	0.2164
421.5235	0.2015
421.728	0.2159
421.9325	0.215
422.137	0.203
422.3415	0.2072
422.546	0.2131
422.7504	0.2084
422.9549	0.2141
423.1593	0.2017
423.3637	0.2166
423.5681	0.2069
423.7725	0.201
423.9769	0.2052
424.1812	0.1923
424.3856	0.1967
424.5899	0.2025
424.7942	0.206
424.9985	0.2062
425.2028	0.2029
425.4071	0.195
425.6113	0.2002
425.8156	0.1955
426.0198	0.1942
426.224	0.1987
426.4282	0.191
426.6324	0.2004
426.8366	0.2047
427.0407	0.1829
427.2449	0.1925
427.449	0.1909
427.6531	0.1998
427.8572	0.1942
428.0613	0.1885
428.2654	0.1855
428.4694	0.1773
428.6735	0.189
428.8775	0.1797
429.0815	0.1741
429.2855	0.1749
429.4895	0.1735
429.6935	0.1761
429.8975	0.1706
430.1014	0.1819
430.3053	0.1743
430.5093	0.1611
430.7132	0.1632
430.9171	0.1646
431.1209	0.1629
431.3248	0.1595
431.5286	0.1622
431.7325	0.1758
431.9363	0.1595
432.1401	0.1576
432.3439	0.1591
432.5477	0.1473
432.7514	0.1491
432.9552	0.1529
433.1589	0.1506
433.3627	0.1652
433.5664	0.145
433.7701	0.1524
433.9737	0.1532
434.1774	0.1504
434.3811	0.1448
434.5847	0.1433
434.7883	0.1432
434.9919	0.139
435.1955	0.1319
435.3991	0.139
435.6027	0.1313
435.8062	0.1439
436.0098	0.1295
436.2133	0.1333
436.4168	0.1346
436.6203	0.1239
436.8238	0.1332
437.0272	0.1233
437.2307	0.1233
437.4341	0.1225
437.6375	0.123
437.841	0.1214
438.0443	0.1251
438.2477	0.1118
438.4511	0.1104
438.6545	0.1148
438.8578	0.1168
439.0611	0.1202
439.2644	0.118
439.4677	0.1199
439.671	0.1017
439.8743	0.1103
440.0775	0.1083
440.2808	0.0975
440.484	0.1032
440.6872	0.1085
440.8904	0.0981
441.0936	0.0971
441.2967	0.0882
441.4999	0.0865
441.703	0.0948
441.9062	0.0942
442.1093	0.1014
442.3124	0.0871
442.5155	0.0891
442.7185	0.0842
442.9216	0.0806
443.1246	0.085
443.3276	0.0864
443.5307	0.078
443.7337	0.082
443.9366	0.0749
444.1396	0.0653
444.3426	0.08
444.5455	0.0749
444.7484	0.0715
444.9513	0.0758
445.1542	0.0752
445.3571	0.0746
445.56	0.0671
445.7628	0.0649
445.9657	0.0707
446.1685	0.0712
446.3713	0.0618
446.5741	0.0737
446.7769	0.0659
446.9797	0.0608
447.1824	0.0621
447.3852	0.0383
447.5879	0.0542
447.7906	0.0519
447.9933	0.0585
448.196	0.0546
448.3986	0.0503
448.6013	0.0501
448.8039	0.0541
449.0066	0.0588
449.2092	0.0613
449.4118	0.0518
449.6143	0.0514
449.8169	0.0511
450.0195	0.0448
450.222	0.0539
450.4245	0.0504
450.627	0.0487
450.8295	0.0448
451.032	0.0425
451.2345	0.0441
451.4369	0.0407
451.6394	0.0495
451.8418	0.0389
452.0442	0.0447
452.2466	0.0359
452.449	0.0372
452.6513	0.0349
452.8537	0.0271
453.056	0.0386
453.2583	0.0368
453.4607	0.0329
453.663	0.0364
453.8652	0.0222
454.0675	0.0375
454.2697	0.0422
454.472	0.029
454.6742	0.0363
454.8764	0.0391
455.0786	0.028
455.2808	0.0296
455.4829	0.0335
455.6851	0.0293
455.8872	0.0199
456.0893	0.0253
456.2915	0.0257
456.4935	0.0303
456.6956	0.0293
456.8977	0.0308
457.0997	0.0211
457.3018	0.031
457.5038	0.0273
457.7058	0.0346
457.9078	0.0285
458.1098	0.0216
458.3117	0.0284
458.5137	0.0186
458.7156	0.0278
458.9175	0.0234
459.1194	0.0214
459.3213	0.0216
459.5232	0.0254
459.725	0.0282
459.9269	0.0187
460.1287	0.0164
460.3305	0.0254
460.5323	0.0225
460.7341	0.0185
460.9359	0.0147
461.1376	0.0202
461.3394	0.0218
461.5411	0.0302
461.7428	0.0206
461.9445	0.0157
462.1462	0.0222
462.3479	0.0235
462.5495	0.0221
462.7512	0.0207
462.9528	0.0102
463.1544	0.0132
463.356	0.0108
463.5576	0.0243
463.7592	0.0203
463.9607	0.0129
464.1623	0.0078
464.3638	0.0111
464.5653	0.0125
464.7668	0.0229
464.9683	0.0155
465.1697	0.0111
465.3712	0.0127
465.5726	0.0115
465.7741	0.0182
465.9755	0.0111
466.1769	0.0162
466.3782	0.018
466.5796	0.0152
466.7809	0.0125
466.9823	0.0116
467.1836	0.0114
467.3849	0.0229
467.5862	0.0084
467.7875	0.0108
467.9887	0.0109
468.19	0.0126
468.3912	0.0173
468.5924	0.0081
468.7936	0.0118
468.9948	0.0003
469.196	0.011
469.3972	0.0078
469.5983	0.0051
469.7994	0.0155
470.0006	0.0135
470.2017	0.0211
470.4027	0.0195
470.6038	0.0141
470.8049	0.012
471.0059	0.0118
471.2069	0.0145
471.408	0.0125
471.6089	0.0269
471.8099	0.0206
472.0109	0.0048
472.2119	0.0166
472.4128	0.0028
472.6137	0.011
472.8146	0.0133
473.0155	0.014
473.2164	0.0128
473.4173	-0.0022
473.6181	0.0094
473.819	0.006
474.0198	0.0038
474.2206	0.0049
474.4214	0.0093
474.6222	-0.0089
474.8229	0.0087
475.0237	0.0177
475.2244	0.0037
475.4251	0.0114
475.6258	-0.003
475.8265	0.0089
476.0272	0.0088
476.2278	0.0067
476.4285	0.01
476.6291	0.008
476.8297	0.0093
477.0303	0.0062
477.2309	0.0017
477.4315	0.0103
477.632	0.004
477.8326	0.0124
478.0331	0.0141
478.2336	0.0013
478.4341	0.011
478.6346	0.0039
478.8351	0.0075
479.0355	0.005
479.236	0.0129
479.4364	0.0063
479.6368	0.0064
479.8372	0.0064
480.0376	0.0054
480.2379	0.0048
480.4383	0.01
480.6386	-0.0045
480.8389	0.0021
481.0392	0.0063
481.2395	0.0125
481.4398	0.011
481.6401	0.0121
481.8403	0.0018
482.0405	0.0049
482.2408	0.0103
482.441	0.0003
482.6411	0.0121
482.8413	0.0024
483.0415	0.012
483.2416	0.0044
483.4417	0.0042
483.6419	0.0033
483.8419	0.0018
484.042	0.0087
484.2421	-0.0019
484.4422	0.0076
484.6422	0.0041
484.8422	0.0093
485.0422	0.005
485.2422	0.0057
485.4422	0.0061
485.6422	0.0046
485.8421	0.0039
486.042	0.0148
486.242	0.0033
486.4419	0.006
486.6417	0.0048
486.8416	0.006
487.0415	0.0051
487.2413	0.0009
487.4411	0.0114
487.641	0.0077
487.8408	0.0044
488.0405	0.0138
488.2403	0.003
488.4401	0.0037
488.6398	0.013
488.8395	0.0088
489.0392	0.0117
489.2389	0.0062
489.4386	-0.0029
489.6383	0.0118
489.8379	-0.0047
490.0376	0.0028
490.2372	0.0049
490.4368	-0.0021
490.6364	-0.0048
490.836	-0.0034
491.0355	0.0001
491.2351	0.0026
491.4346	0.0024
491.6341	0.0013
491.8336	0.0124
492.0331	0.0004
492.2326	0.0002
492.432	0.0067
492.6315	0.0039
492.8309	0.0041
493.0303	0.0074
493.2297	0.0052
493.4291	0.0003
493.6284	0.0123
493.8278	-0.0012
494.0271	0.0067
494.2264	0.005
494.4257	0.0047
494.625	0.0012
494.8243	0.0012
495.0236	0.0004
495.2228	0.0013
495.422	0.01
495.6213	0.0025
495.8205	0.009
496.0196	-0.0033
496.2188	0.0034
496.418	-0.0014
496.6171	0.0039
496.8162	0.0113
497.0153	0.0037
497.2144	0.0027
497.4135	0.0044
497.6126	0.0013
497.8116	0.0002
498.0107	0.0018
498.2097	0.0021
498.4087	0.0027
498.6077	-0.0007
498.8067	0.0026
499.0056	0.0043
499.2046	0.0067
499.4035	0.0046
499.6024	-0.0091
499.8013	0.0067
500.0002	0.0048
500.199	0.0076
500.3979	-0.003
500.5967	0.0035
500.7956	0.0021
500.9944	0.0075
501.1932	0.0084
501.3919	0.0043
501.5907	0.0024
501.7895	-0.0016
501.9882	-0.001
502.1869	0.0156
502.3856	0.0005
502.5843	-0.0034
502.783	0.0049
502.9816	0.0077
503.1803	0.0028
503.3789	0.0036
503.5775	-0.0015
503.7761	0.002
503.9747	0.0033
504.1732	-0.0097
504.3718	0.0125
504.5703	0.0049
504.7689	-0.0117
504.9674	-0.0017
505.1658	0.0017
505.3643	0.0047
505.5628	0.007
505.7612	0.0095
505.9597	-0.0073
506.1581	0.0019
506.3565	0.003
506.5549	-0.0048
506.7532	-0.0094
506.9516	0.0025
507.1499	0.0016
507.3482	0.003
507.5465	0.0049
507.7448	-0.0008
507.9431	0.0044
508.1414	0.0021
508.3396	0.0014
508.5379	-0.0003
508.7361	0.0088
508.9343	-0.0028
509.1325	0.0064
509.3306	-0.006
509.5288	-0.0027
509.7269	0.0057
509.9251	0.001
510.1232	0.0049
510.3213	0.0022
510.5193	0.0066
510.7174	-0.003
510.9154	0.0067
511.1135	0.0019
511.3115	-0.0046
511.5095	0.0039
511.7075	0.0029
511.9055	0.0011
512.1034	0.0016
512.3014	-0.0023
512.4993	-0.0038
512.6972	0.0047
512.8951	-0.0034
513.093	-0.0014
513.2908	0.0086
513.4887	-0.0026
513.6865	0.0008
513.8844	0.0047
514.0822	-0.0033
514.2799	-0.0072
514.4777	-0.0176
514.6755	0.0011
514.8732	-0.0032
515.0709	-0.0014
515.2687	-0.0065
515.4664	0.0046
515.664	0.0022
515.8617	-0.0012
516.0594	0.0049
516.257	-0.0026
516.4546	0.0114
516.6522	0.0006
516.8498	-0.0033
517.0474	-0.0032
517.2449	-0.0042
517.4425	-0.0013
517.64	-0.0046
517.8375	0.0027
518.035	-0.0035
518.2325	-0.0042
518.43	-0.0077
518.6274	-0.0079
518.8249	-0.0157
519.0223	0.0061
519.2197	-0.0042
519.4171	0.002
519.6145	0.002
519.8118	-0.0112
520.0092	-0.0046
520.2065	0.0058
520.4038	-0.0014
520.6011	0.001
520.7984	0.0001
520.9956	0.0048
521.1929	0.0011
521.3901	0.0009
521.5874	0.0113
521.7846	-0.0135
521.9818	-0.0029
522.1789	-0.009
522.3761	0.0076
522.5732	-0.0013
522.7704	-0.0148
522.9675	-0.0105
523.1646	-0.004
523.3617	0.0084
523.5587	-0.0067
523.7558	0.0023
523.9528	0.0106
524.1498	-0.0022
524.3468	-0.0063
524.5438	0.0059
524.7408	-0.0086
524.9378	-0.0011
525.1347	-0.0004
525.3316	-0.0018
525.5285	0.0019
525.7254	0.0036
525.9223	0.0039
526.1192	0.0011
526.316	0.0074
526.5129	0.0102
526.7097	0.0069
526.9065	0.0042
527.1033	0.0084
527.3	-0.0057
527.4968	-0.01
527.6935	-0.0029
527.8903	-0.0003
528.087	0.0008
528.2837	0.0064
528.4804	0.001
528.677	0.0009
528.8737	-0.0108
529.0703	0.0006
529.2669	0.0047
529.4635	-0.0088
529.6601	0.0024
529.8567	-0.0092
530.0532	-0
530.2498	0.0021
530.4463	-0.0152
530.6428	0.0001
530.8393	0.0119
531.0358	-0.0022
531.2322	-0
531.4287	-0.0032
531.6251	-0.0109
531.8215	-0.0085
532.0179	0.0075
532.2143	0.0012
532.4107	0.0006
532.607	0.0039
532.8034	-0.0063
532.9997	0.0009
533.196	-0.0104
533.3923	0.0064
533.5886	0.0048
533.7848	0.0072
533.9811	0.0005
534.1773	0.0025
534.3735	-0.0011
534.5697	0.0106
534.7659	0.0009
534.9621	0.0054
535.1582	0.0008
535.3544	0.0008
535.5505	0.0066
535.7466	0.001
535.9427	0.0009
536.1387	-0.008
536.3348	0.0026
536.5308	0.0053
536.7269	-0.0051
536.9229	0.0003
537.1189	0.0085
537.3148	-0
537.5108	0.0071
537.7068	0.0084
537.9027	-0.0068
538.0986	-0.0011
538.2945	-0.003
538.4904	0.0001
538.6863	-0.0028
538.8821	0.0039
539.078	-0.003
539.2738	0.0042
539.4696	0.007
539.6654	-0.0036
539.8611	0.008
540.0569	-0.0014
540.2526	0.0038
540.4484	-0.0043
540.6441	0.0052
540.8398	0.0164
541.0355	-0.0028
541.2311	0.0012
541.4268	0.0142
541.6224	0.0207
541.818	0.0031
542.0136	0.0056
542.2092	0.0069
542.4048	-0.0038
542.6003	-0.0082
542.7959	-0.0016
542.9914	0.0049
543.1869	0.0044
543.3824	0.0091
543.5779	0.0127
543.7734	0.0124
543.9688	0.0068
544.1642	-0.0028
544.3596	0.0127
544.555	0.0091
544.7504	0.0087
544.9458	0.0092
545.1411	0.0003
545.3365	0.0064
545.5318	0.0058
545.7271	0.0086
545.9224	0.0042
546.1177	0.0092
546.3129	0.0011
546.5081	0.0029
546.7034	-0.0019
546.8986	-0.0082
547.0938	0.013
547.289	0.0043
547.4841	0.0069
547.6793	0.0021
547.8744	0.0113
548.0695	0.0014
548.2646	0.0077
548.4597	-0.0018
548.6548	0.0119
548.8498	0.0077
549.0448	-0.0012
549.2399	0.0079
549.4349	0.0001
549.6298	-0.0024
549.8248	0.0026
550.0198	0.0054
550.2147	0.0019
550.4096	-0.0076
550.6045	0.0066
550.7994	0.0065
550.9943	0.0086
551.1892	-0.0042
551.384	0.0093
551.5788	0.0042
551.7737	0.0084
551.9685	0.0109
552.1632	-0.0038
552.358	0.0019
552.5528	-0.002
552.7475	-0.0031
552.9422	0.0102
553.1369	0.0142
553.3316	0.0081
553.5263	0.0083
553.7209	-0.0055
553.9156	0.0052
554.1102	0.0003
554.3048	-0.0027
554.4994	-0.0049
554.694	0.0077
554.8885	-0.0037
555.0831	0.0065
555.2776	0.01
555.4721	0.0085
555.6666	0.002
555.8611	0.0078
556.0555	0.0012
556.25	0.0097
556.4444	0.0011
556.6388	0.0009
556.8332	0.0015
557.0276	0.0126
557.222	-0.0086
557.4163	0.0011
557.6107	-0.0018
557.805	-0.0013
557.9993	-0.0036
558.1936	-0.01
558.3879	0.0049
558.5821	-0.0037
558.7764	-0.0025
558.9706	-0.0026
559.1648	0.0076
559.359	-0.0041
559.5532	0.0029
559.7473	0.0049
559.9415	0.0012
560.1356	0.0132
560.3297	-0.0004
560.5238	0.006
560.7179	0.0001
560.9119	-0.0022
561.106	-0.0026
561.3	0.0026
561.494	-0.0019
561.688	0.0006
561.882	0.0087
562.076	-0.003
562.2699	0.0112
562.4639	0.0167
562.6578	0.0057
562.8517	0.0083
563.0456	0.0097
563.2395	0.0039
563.4333	0.0093
563.6272	0.0017
563.821	0.0051
564.0148	0.0018
564.2086	0.0019
564.4024	0.0111
564.5961	0.0135
564.7899	0.0127
564.9836	0.0054
565.1773	0.0169
565.371	0.0004
565.5647	-0.0002
565.7584	0.0091
565.952	0.0074
566.1456	-0.0002
566.3393	0.0066
566.5329	0.0023
566.7264	-0.0007
566.92	0.0022
567.1136	-0.0028
567.3071	-0.0066
567.5006	0.0102
567.6941	0.0083
567.8876	0.0023
568.0811	0.0198
568.2745	0.0058
568.468	0.0065
568.6614	0.0073
568.8548	0.0092
569.0482	0.0099
569.2416	0.0058
569.4349	0.0116
569.6283	0.0042
569.8216	0.0102
570.0149	0.0058
570.2082	0.0106
570.4015	0.0066
570.5947	0.009
570.788	0.0107
570.9812	0.0062
571.1744	0.0065
571.3676	0.0099
571.5608	0.0042
571.754	0.0126
571.9471	0.0095
572.1402	0.0101
572.3333	0.0037
572.5264	0.003
572.7195	0.0054
572.9126	0.0036
573.1057	0.0113
573.2987	0.008
573.4917	0.0055
573.6847	0.006
573.8777	0.0096
574.0707	0.0094
574.2636	0.0073
574.4566	0.0069
574.6495	0.0078
574.8424	0.0104
575.0353	0.0094
575.2281	0.0084
575.421	0.0033
575.6138	0.0014
575.8067	0.0043
575.9995	0.0098
576.1923	0.0097
576.385	0.0016
576.5778	0.0122
576.7706	0.01
576.9633	0.0105
577.156	0.0016
577.3487	0.0074
577.5414	0.007
577.734	0.0046
577.9267	0.0072
578.1193	0.0089
578.3119	0.0042
578.5045	0.0101
578.6971	0.0048
578.8897	0.0019
579.0822	0.0137
579.2747	0.0027
579.4673	0.0081
579.6598	0.0107
579.8522	0.0116
580.0447	0.0078
580.2372	0.0135
580.4296	0.013
580.622	0.0038
580.8144	0.0082
581.0068	0.0081
581.1992	0.0064
581.3915	0.0002
581.5839	0.0062
581.7762	0.0069
581.9685	0.008
582.1608	0.0094
582.353	0.0063
582.5453	0.0107
582.7375	0.0084
582.9298	0.0038
583.122	0.0061
583.3142	0.0127
583.5063	0.0069
583.6985	0.0055
583.8906	0.01
584.0827	0.0134
584.2749	0.003
584.4669	0.0083
584.659	0.0111
584.8511	0.0097
585.0431	0.0102
585.2352	0.0103
585.4272	0.0082
585.6192	0.0087
585.8111	0.0064
586.0031	0.002
586.195	0.0074
586.387	0.0079
586.5789	0.0103
586.7708	0.0079
586.9627	0.0098
587.1545	0.009
587.3464	0.0107
587.5382	0.0073
587.73	0.01
587.9218	0.0041
588.1136	0.0047
588.3053	0.0105
588.4971	0.0064
588.6888	0.0063
588.8805	0.0066
589.0722	0.0105
589.2639	0.0079
589.4556	0.01
589.6472	0.0086
589.8389	0.0139
590.0305	0.0059
590.2221	0.0083
590.4137	-0.0001
590.6052	0.005
590.7968	0.0074
590.9883	0.0123
591.1798	0.0046
591.3713	0.0072
591.5628	0.0073
591.7543	0.0047
591.9458	0.0085
592.1372	0.0094
592.3286	0.0101
592.52	0.0083
592.7114	0.0054
592.9028	0.0119
593.0941	0.0085
593.2855	0.0062
593.4768	0.0097
593.6681	0.0113
593.8594	0.009
594.0506	0.0079
594.2419	0.005
594.4331	0.0091
594.6244	0.0043
594.8156	0.0014
595.0067	-0.0007
595.1979	0.0068
595.3891	0.007
595.5802	0.0131
595.7713	0.0097
595.9624	0.0105
596.1535	0.0012
596.3446	0.0008
596.5357	0.0094
596.7267	0.0091
596.9177	0.0126
597.1087	0.0083
597.2997	0.0106
597.4907	0.0037
597.6817	0.0118
597.8726	0.0087
598.0635	-0.0012
598.2544	0.0079
598.4453	0.0045
598.6362	0.0076
598.827	0.0097
599.0179	0.0061
599.2087	0.0134
599.3995	0.011
599.5903	0.0109
599.7811	0.0124
599.9718	0.0043
600.1626	0.0027
600.3533	0.0055
600.544	0.0058
600.7347	0.0093
600.9254	0.0146
601.116	0.0101
601.3067	0.0074
601.4973	0.0082
601.6879	0.0098
601.8785	0.0101
602.0691	0.004
602.2596	0.0115
602.4502	0.0108
602.6407	0.0107
602.8312	0.0071
603.0217	0.0078
603.2122	0.0028
603.4027	0.0016
603.5931	0.0055
603.7835	0.009
603.9739	0.004
604.1643	0.0076
604.3547	0.0064
604.5451	0.0134
604.7354	0.008
604.9257	0.0068
605.116	0.0056
605.3063	0.0104
605.4966	0.0062
605.6869	0.0102
605.8771	0.0084
606.0673	0.0077
606.2575	0.0107
606.4477	0.014
606.6379	0.0026
606.8281	0.0052
607.0182	0.0065
607.2083	0.0057
607.3985	0.0055
607.5885	0.0036
607.7786	0.0084
607.9687	0.0125
608.1587	0.0131
608.3488	0.0038
608.5388	0.0005
608.7288	0.0017
608.9187	0.0134
609.1087	0.009
609.2986	0.0096
609.4886	0.0029
609.6785	0.0027
609.8684	0.0013
610.0582	0.0017
610.2481	0.0047
610.4379	0.0091
610.6278	0.0133
610.8176	0.0203
611.0074	0.0162
611.1971	0.0085
611.3869	0.0107
611.5766	-0.0027
611.7664	0.016
611.9561	0.0166
612.1458	0.0177
612.3354	0.0111
612.5251	0.0088
612.7147	0.0158
612.9044	0.0057
613.094	0.0122
613.2836	0.004
613.4731	0.008
613.6627	0.0064
613.8522	0.0062
614.0417	0.0103
614.2313	0.0118
614.4207	0.0076
614.6102	0.0119
614.7997	0.0185
614.9891	0.0068
615.1785	0.0001
615.3679	0.0134
615.5573	0.0051
615.7467	0.0084
615.9361	0.0076
616.1254	0.0096
616.3147	0.007
616.504	0.0086
616.6933	0.0066
616.8826	0.0013
617.0718	0.0137
617.2611	-0.0023
617.4503	0.0101
617.6395	0.011
617.8287	0.012
618.0179	0.0002
618.207	0.0193
618.3961	0.0098
618.5853	0.0037
618.7744	0.0066
618.9634	0.0109
619.1525	0.0019
619.3416	0.0013
619.5306	0.0043
619.7196	0.0108
619.9086	0.0021
620.0976	0.0053
620.2866	0.0148
620.4755	0.0071
620.6645	0.0151
620.8534	0.007
621.0423	0.0071
621.2312	0.0059
621.42	0.0009
621.6089	0.014
621.7977	0.0102
621.9865	0.0076
622.1753	0.0003
622.3641	-0.0001
622.5529	-0.0022
622.7416	-0.0027
622.9303	0.0018
623.1191	0.0133
623.3078	0.0141
623.4964	0.0013
623.6851	0.0088
623.8737	0.0016
624.0624	-0.0075
624.251	-0.0027
624.4396	0.0009
624.6282	0.0139
624.8167	0.0053
625.0053	0.0173
625.1938	0.0019
625.3823	0.0171
625.5708	0.0051
625.7593	0.0051
625.9477	0.0207
626.1362	0.0061
626.3246	0.0068
626.513	0.0029
626.7014	0.0088
626.8898	0.0117
627.0781	0.0101
627.2665	0.0076
627.4548	0.0087
627.6431	0.0238
627.8314	0.0162
628.0197	0.0174
628.2079	0.0062
628.3962	0.0188
628.5844	0.0075
628.7726	0.0003
628.9608	0.0092
629.1489	0.0173
629.3371	0.0015
629.5252	0.0104
629.7134	-0.0016
629.9015	0.0059
630.0895	-0.0035
630.2776	0.0023
630.4657	0.0133
630.6537	0.0118
630.8417	-0.0044
631.0297	-0.0021
631.2177	0.0136
631.4057	0.0029
631.5936	0.0111
631.7815	0.0153
631.9695	0.0264
632.1574	0.0125
632.3452	0.0174
632.5331	-0.0071
632.7209	0.0163
632.9088	0.0037
633.0966	0.0368
633.2844	0.0062
633.4722	0.0157
633.6599	0.026
633.8477	0.0112
634.0354	0.0214
634.2231	-0.0035
634.4108	-0.0132
634.5985	0.026
634.7861	-0.0035
634.9738	0.0091
635.1614	0.0145
635.349	-0.006
635.5366	0.0004
635.7242	0.0035
635.9117	0.0146
636.0993	0.0119
636.2868	-0.0016
636.4743	0.0107
636.6618	0.0071
636.8492	0.0127
637.0367	0.0029
637.2241	0.0047
637.4115	0.0359
637.5989	-0.002
637.7863	0.0308
637.9737	-0.0029
638.161	0.0051
638.3484	-0.005
638.5357	0.0029
638.723	0.0267
638.9103	0.0006
639.0975	-0.0008
639.2848	0.0143
639.472	0.0128
639.6592	0.0011
639.8464	-0.0046
640.0336	0.0037
640.2208	0.0021
640.4079	0.0033
640.595	-0.0031
640.7821	0.0155
640.9692	0.0041
641.1563	-0.0005
641.3434	0.0227
641.5304	0.0192
641.7174	0.0241
641.9044	0.0056
642.0914	0.017
642.2784	0.0002
642.4653	0.0094
642.6523	0.0085
642.8392	-0.0038
643.0261	0.0228
643.213	0.0258
643.3999	0.0083
643.5867	0.0206
643.7735	-0.0101
643.9604	0.0274
644.1472	0.023
644.3339	-0.0003
644.5207	0.0101
644.7075	-0.0046
644.8942	0.0078
645.0809	-0.0096
645.2676	0.0031
645.4543	0.0204
645.6409	0.0244
645.8276	0.0175
646.0142	0.0051
646.2008	-0.0061
646.3874	0.0016
646.574	0.0008
646.7605	0.0027
646.9471	-0.011
647.1336	-0.0231
647.3201	0.0259
647.5066	0.0214
647.6931	0.0138
647.8795	0.0075
648.0659	0.0067
648.2524	0.0276
648.4388	0.0073
648.6252	0.0276
648.8115	0.006
648.9979	0.0143
649.1842	-0.0007
649.3705	0.0206
649.5568	-0.0045
649.7431	0.0025
649.9294	0.0054
650.1156	0.0019
650.3018	0.0065
650.488	0.0102
650.6742	0.0034
650.8604	0.0079
651.0466	0.0004
651.2327	0.0113
651.4188	0.012
651.6049	0.0159
651.791	0.0145
651.9771	0.0097
652.1632	0.0084
652.3492	-0.0088
652.5352	0.024
652.7212	0.0076
652.9072	-0.0057
653.0932	0.0177
653.2791	0.0106
653.465	0.0037
653.651	0.0045
653.8369	0.0237
654.0227	0.0081
654.2086	-0.0029
654.3944	0.014
654.5803	0.0042
654.7661	0.0055
654.9519	0.0027
655.1377	0.0002
655.3234	0.0002
655.5092	0.0002
655.6949	0.0002
655.8806	0.0002
656.0663	0.0002
656.2519	0.0002
656.4376	0.0002
656.6232	0.0002
656.8088	0.0002
656.9945	0.0002
657.18	0.0002
657.3656	0.0002
657.5511	0.0002
657.7367	0.0002
657.9222	0.0002
658.1077	0.0002
658.2932	0.0002
658.4786	0.0002
658.6641	0.0002
658.8495	0.0002
659.0349	0.0002
659.2203	0.0002
659.4057	0.0156
659.591	0.2813
659.7764	0.039
659.9617	0.0178
660.147	0.0045
660.3323	0.0342
660.5176	0.0089
660.7028	-0.0173
660.888	0.0031
661.0733	0.0181
661.2585	0.016
661.4436	0.0244
661.6288	0.0247
661.8139	0.0037
661.9991	-0.0164
662.1842	-0.011
662.3693	-0.0043
662.5544	0.0182
662.7394	0.0119
662.9245	0.0498
663.1095	-0.0043
663.2945	-0.0004
663.4795	-0.0151
663.6644	0.0112
663.8494	0.0196
664.0343	0.0284
664.2193	-0.0056
664.4042	0.0199
664.589	0.0156
664.7739	0.0106
664.9587	-0.0055
665.1436	0.0121
665.3284	-0.0046
665.5132	-0.0055
665.698	0.0271
665.8827	0.0162
666.0675	-0.0153
666.2522	0.0192
666.4369	0.0038
666.6216	0.0109
666.8063	-0.0118
666.9909	0.0077
667.1756	0.0039
667.3602	-0.0073
667.5448	0.0104
667.7294	0.0417
667.9139	-0.0331
668.0985	0.0179
668.283	0.0023
668.4675	0.0349
668.652	0.0113
668.8365	0.0093
669.0209	0.0097
669.2054	0.0174
669.3898	0.0176
669.5742	0.0174
669.7586	0.0227
669.943	0.0101
670.1273	-0.0061
670.3117	0.0237
670.496	0.0133
670.6803	-0.0171
670.8646	-0.0017
671.0488	0.0338
671.2331	-0.018
671.4173	0.0104
671.6015	0.0032
671.7857	0.0212
671.9699	0.0097
672.1541	-0.0021
672.3382	0.0284
672.5223	0.007
672.7064	0.0158
672.8905	0.0181
673.0746	0.0195
673.2587	0.0245
673.4427	0.0061
673.6267	0.0265
673.8107	0.0238
673.9947	0.0103
674.1787	0.0169
674.3626	0.0081
674.5465	0.0213
674.7304	0.0012
674.9143	-0.0084
675.0982	0.0162
675.2821	0.0137
675.4659	0.0021
675.6497	-0.0024
675.8335	-0.0004
676.0173	-0.0152
676.2011	0.0266
676.3849	0.0203
676.5686	0.028
676.7523	0.0009
676.936	0.0062
677.1197	0.021
677.3034	0.0445
677.487	-0.001
677.6706	0.0062
677.8542	-0.0012
678.0378	0.004
678.2214	0.01
678.405	-0.0051
678.5885	0.0048
678.772	0.0173
678.9555	-0.0042
679.139	0.0169
679.3225	0.002
679.5059	0.0051
679.6894	0.0116
679.8728	0.0099
680.0562	0.0074
680.2395	0.0131
680.4229	0.0156
680.6062	0.0051
680.7896	0.0113
680.9729	0.0255
681.1562	0.0191
681.3394	0.0102
681.5227	0.0154
681.7059	-0.0067
681.8891	0.0143
682.0723	-0.0194
682.2555	0.0116
682.4387	0.0173
682.6218	0.0124
682.805	0.0045
682.9881	0.0281
683.1712	0.0113
683.3542	0.0316
683.5373	0.0062
683.7203	0.0212
683.9034	0.0059
684.0864	0.0024
684.2694	0.0113
684.4523	0.0166
684.6353	0.0252
684.8182	0.007
685.0011	0.0234
685.184	0.0018
685.3669	0.0287
685.5498	-0.0045
685.7326	0.0068
685.9154	0.0043
686.0982	0.0108
686.281	0.0021
686.4638	0.0258
686.6465	0.0154
686.8293	0.0001
687.012	0.0171
687.1947	0.0031
687.3774	0.0215
687.56	-0.0008
687.7427	0.0004
687.9253	-0.0062
688.1079	0.0127
688.2905	0.0051
688.4731	0.0231
688.6556	-0.0009
688.8382	-0.024
689.0207	0.0075
689.2032	0.0289
689.3857	0.0095
689.5681	-0.0193
689.7506	0.0175
689.933	0.0039
690.1154	0.0265
690.2978	0.0163
690.4802	0.031
690.6626	0.01
690.8449	0.0163
691.0272	0.0022
691.2095	-0.0085
691.3918	0.0063
691.5741	0.0026
691.7563	0.0212
691.9386	0.0286
692.1208	0.0174
692.303	0.0032
692.4852	0.0144
692.6673	0.0156
692.8495	-0.01
693.0316	0.0187
693.2137	0.0152
693.3958	0.0102
693.5778	0.0091
693.7599	-0.0037
693.9419	-0.0247
694.1239	-0.0076
694.3059	0.0139
694.4879	0.0155
694.6699	0.0002
694.8518	0.0067
695.0337	0.0253
695.2157	0.0277
695.3975	-0.0052
695.5794	-0.0042
695.7613	0.026
695.9431	-0.0017
696.1249	0.0107
696.3067	-0.019
696.4885	0.0251
696.6703	0.0113
696.852	0.0115
697.0337	0.0204
697.2154	0.0126
697.3971	0.0093
697.5788	0.0182
697.7605	-0.0025
697.9421	0.0157
698.1237	0.0309
698.3053	-0.0043
698.4869	0.0201
698.6685	0.008
698.85	0.0447
699.0315	-0.0063
699.213	0.0375
699.3945	0.0126
699.576	0.0214
699.7575	0.015
699.9389	0.0125
700.1203	0.0051
700.3017	0.0282
700.4831	0.0171
700.6645	0.0399
700.8458	0.0054
701.0271	0.0535
701.2084	-0.0044
701.3897	0.017
701.571	-0.008
701.7523	0.0079
701.9335	-0.005
702.1147	0.0402
702.2959	0.0104
702.4771	0.0197
702.6583	0.0037
702.8394	-0.0035
703.0205	0.0264
703.2016	0.0075
703.3827	-0.0096
703.5638	0.0083
703.7449	0.0118
703.9259	0.0217
704.1069	0.0094
704.2879	0.0195
704.4689	0.0266
704.6499	0.0325
704.8308	0.0326
705.0117	0.0034
705.1927	0.0023
705.3735	0.0281
705.5544	0.0359
705.7353	-0.006
705.9161	-0.0287
706.0969	0.0086
706.2777	0.028
706.4585	-0.0121
706.6393	0.0184
706.82	0.0084
707.0007	0.0081
707.1815	0.0023
707.3621	0.0377
707.5428	0.0035
707.7235	-0.0001
707.9041	0.0259
708.0847	0.0059
708.2653	0.0406
708.4459	0.0065
708.6265	0.0149
708.807	0.0072
708.9875	0.0117
709.168	0.0063
709.3485	0.0299
709.529	0.0172
709.7095	0.0107
709.8899	0.0045
710.0703	0.0405
710.2507	0.009
710.4311	-0.0188
710.6115	0.0192
710.7918	0.0407
710.9721	0.0219
711.1524	0.0051
711.3327	-0.0098
711.513	0.0182
711.6932	0.0336
711.8735	0.0157
712.0537	0.0027
712.2339	0.018
712.4141	0.0213
712.5942	-0.0041
712.7744	0.0254
712.9545	0.031
713.1346	0.0348
713.3147	0.0067
713.4947	-0.0001
713.6748	0.0007
713.8548	0.0264
714.0348	0.0363
714.2148	0.0257
714.3948	0.0344
714.5748	0.0306
714.7547	0.0305
714.9346	0.0377
715.1145	0.0158
715.2944	-0.0281
715.4743	0.0382
715.6541	-0.0141
715.834	0.0276
716.0138	0.0396
716.1936	0.0068
716.3733	-0.0086
716.5531	0.0475
716.7328	0.0162
716.9126	0.009
717.0923	0.0036
717.2719	0.0255
717.4516	0.0168
717.6312	-0.0184
717.8109	0.0282
717.9905	0.0276
718.1701	0.0122
718.3496	0.0098
718.5292	0.0086
718.7087	-0.0001
718.8882	0.022
719.0677	0.0084
719.2472	0.0013
719.4267	0.0017
719.6061	-0.0169
719.7856	0.0293
719.965	0.0236
720.1443	0.0022
720.3237	0.0205
720.5031	0.0218
720.6824	0.0233
720.8617	0.021
721.041	0.0233
721.2203	-0.0129
721.3995	0.0154
721.5788	0.0126
721.758	0.0057
721.9372	0.0243
722.1164	-0.0019
722.2956	0.0069
722.4747	0.0168
722.6538	0.0128
722.8329	0.0214
723.012	0.0261
723.1911	0.0207
723.3702	-0.0013
723.5492	0.0133
723.7282	0.0174
723.9072	0.0353
724.0862	-0.0168
724.2652	0.0187
724.4441	-0.0197
724.623	0.0144
724.8019	0.0159
724.9808	-0.0065
725.1597	0.0368
725.3385	0.0369
725.5174	0.0147
725.6962	0.0061
725.875	0.0123
726.0538	0.0255
726.2325	0.0322
726.4112	0.0002
726.59	0.0224
726.7687	-0.0144
726.9474	0.0396
727.126	0.0358
727.3047	0.0007
727.4833	0.0132
727.6619	-0.0044
727.8405	0.012
728.0191	0.0244
728.1976	0.0161
728.3762	0.0254
728.5547	0.0028
728.7332	0.0309
728.9116	0.0221
729.0901	-0.0082
729.2686	-0.0023
729.447	0.022
729.6254	0.0146
729.8038	0.0146
729.9821	-0.0048
730.1605	0.0182
730.3388	0.0153
730.5171	0.0292
730.6954	-0.0043
730.8737	-0.006
731.0519	0.003
731.2302	0.0235
731.4084	0.0103
731.5866	-0.0004
731.7648	0.0093
731.9429	0.0063
732.1211	0.0002
732.2992	0.0045
732.4773	0.0076
732.6554	-0.0243
732.8335	0.0393
733.0115	-0.01
733.1896	-0.0106
733.3676	0.0152
733.5456	-0.0028
733.7235	0.001
733.9015	0.0102
734.0794	-0.0069
734.2574	-0.0109
734.4353	0.0394
734.6131	0.003
734.791	0.0019
734.9689	-0.0088
735.1467	0.018
735.3245	0.0339
735.5023	0.0201
735.68	0.0172
735.8578	0.0083
736.0355	0.0112
736.2132	0.0241
736.3909	0.0055
736.5686	0.0117
736.7463	0.0024
736.9239	0.0143
737.1015	0.018
737.2791	0.0073
737.4567	0.0309
737.6343	0.0125
737.8118	0.0271
737.9894	-0.0022
738.1669	-0.0116
738.3444	0.0461
738.5218	-0.005
738.6993	0.0115
738.8767	0.0027
739.0541	-0.0116
739.2315	0.0044
739.4089	0.0264
739.5863	0.0044
739.7636	0.0002
739.9409	0.0083
740.1182	0.0313
740.2955	0.0189
740.4728	0.0144
740.65	-0.0229
740.8272	0.0038
741.0044	0.0057
741.1816	0.0459
741.3588	-0.0208
741.5359	-0.0125
741.7131	-0.0123
741.8902	0.015
742.0673	-0.0115
742.2444	0.0044
742.4214	0.0333
742.5985	0.0108
742.7755	0.0266
742.9525	-0.0049
743.1295	-0.0227
743.3064	0.0033
743.4834	-0.0017
743.6603	0.0288
743.8372	-0.0459
744.0141	0.0389
744.191	0.0364
744.3678	-0.0403
744.5446	-0.013
744.7215	0.0124
744.8982	0.0412
745.075	0.0625
745.2518	0.0123
745.4285	0.0459
745.6052	-0.0156
745.7819	0.0041
745.9586	0.0039
746.1353	0.0186
746.3119	0.0235
746.4885	0.025
746.6651	0.0051
746.8417	0.0045
747.0183	0.0117
747.1948	0.0234
747.3714	0.0127
747.5479	0.0422
747.7244	-0.008
747.9008	-0.0133
748.0773	0.0188
748.2537	0.0396
748.4301	0.0217
748.6065	0.0012
748.7829	-0.0051
748.9593	0.0018
749.1356	-0.0046
749.3119	0.0221
749.4882	0.031
749.6645	0.0047
749.8408	0.0236
750.017	0.0354
750.1933	-0.0333
750.3695	0.0313
750.5457	0.0053
750.7218	0.0241
750.898	-0.014
751.0741	0.0132
751.2502	0.0312
751.4263	0.0088
751.6024	0.0067
751.7784	-0.004
751.9545	0.0137
752.1305	0.0172
752.3065	0.0222
752.4825	0.017
752.6584	0.0113
752.8344	0.0017
753.0103	-0.0198
753.1862	0.0075
753.3621	0.0135
753.5379	0.0083
753.7138	0.0175
753.8896	0.0178
754.0654	-0.0095
754.2412	0.0097
754.417	0.0261
754.5927	0.0222
754.7685	0.0196
754.9442	0.0119
755.1199	0.0153
755.2956	0.0312
755.4712	0.0175
755.6469	0.0154
755.8225	0.0308
755.9981	0.0296
756.1736	0.0229
756.3492	0.0021
756.5248	0.0236
756.7003	0.005
756.8758	0.0223
757.0513	0.0062
757.2267	0.0097
757.4022	-0.003
757.5776	0.0033
757.753	0.0149
757.9284	0.0006
758.1038	0.0238
758.2791	0.0267
758.4545	-0.012
758.6298	0.0077
758.8051	0.0134
758.9803	0.0214
759.1556	0.0034
759.3308	0.0033
759.506	0.0186
759.6812	0.0158
759.8564	-0.0013
760.0316	0.0053
760.2067	0.0176
760.3819	0.0044
760.557	0.0059
760.732	0.0074
760.9071	0.0307
761.0821	-0.021
761.2572	0.0194
761.4322	0.0113
761.6072	0.003
761.7821	-0.0066
761.9571	0.0264
762.132	0.0197
762.3069	0.014
762.4818	0.0209
762.6567	-0.0005
762.8316	0.0248
763.0064	0.0127
763.1812	0.0372
763.356	-0.0115
763.5308	0.0323
763.7055	-0.0004
763.8803	0.0092
764.055	-0.0024
764.2297	-0.0038
764.4044	0.0075
764.579	0.0024
764.7537	0.0092
764.9283	0.0209
765.1029	-0.0011
765.2775	0.0204
765.4521	0.0079
765.6266	0.0122
765.8011	0.0257
765.9756	0.0266
766.1501	-0.0081
766.3246	0.0155
766.4991	0.0115
766.6735	0.0509
766.8479	0.0217
767.0223	0.0274
767.1967	-0.0052
767.371	0.0092
767.5454	0.0214
767.7197	0.0091
767.894	-0.0045
768.0683	0.0277
768.2425	0.0023
768.4168	0.0295
768.591	0.0094
768.7652	-0.0013
768.9394	-0.0213
769.1135	-0.0104
769.2877	0.0424
769.4618	0.0315
769.6359	0.0036
769.81	0.0375
769.984	0.0052
770.1581	0.0245
770.3321	0.0195
770.5061	-0.0086
770.6801	0.0169
770.8541	-0.0093
771.028	0.0117
771.202	0.0281
771.3759	0.0069
771.5498	0.0244
771.7236	0.0186
771.8975	0.051
772.0713	0.0248
772.2451	0.0082
772.4189	0.0157
772.5927	-0.0423
772.7665	-0.0027
772.9402	0.0263
773.1139	0.0121
773.2876	-0.0067
773.4613	0.0393
773.635	0.0331
773.8086	0.0095
773.9822	0.0077
774.1558	0.0382
774.3294	0.0207
774.503	0.0574
774.6765	0.0242
774.8501	0.0136
775.0236	0.0054
775.1971	-0.0145
775.3705	0.01
775.544	-0.0217
775.7174	0.0372
775.8908	0.005
776.0642	0.0339
776.2376	0.0983
776.4109	0.1115
776.5843	0.0158
776.7576	0.0285
776.9309	0.0133
777.1041	-0.0575
777.2774	0.0359
777.4506	-0.0062
777.6238	0.0077
777.797	0.0258
777.9702	0.0289
778.1434	0.0285
778.3165	-0.0282
778.4896	-0.0068
778.6627	0.0051
778.8358	0.0151
779.0089	-0.0085
779.1819	0.035
779.3549	0.052
779.5279	0.0044
779.7009	0.0632
779.8739	0.0577
780.0468	0.0126
780.2197	0.0265
780.3926	0.0064
780.5655	0.0085
780.7384	0.0024
780.9112	0.0334
781.0841	0.0012
781.2569	0.0253
781.4297	-0.0002
781.6024	0.0063
781.7752	0.0572
781.9479	0.0146
782.1206	0.0209
782.2933	0.034
782.466	0.044
782.6386	0.0073
782.8113	-0.0008
782.9839	0.0196
783.1565	0.0419
783.329	-0.0042
783.5016	0.001
783.6741	0.0022
783.8466	0.0356
784.0191	0.0773
784.1916	0.0216
784.3641	-0.0168
784.5365	0.0232
784.7089	0.0056
784.8813	0.1316
785.0537	0.0444
785.2261	-0.001
785.3984	0.0018
785.5707	0.0155
785.743	0.0702
785.9153	0.0171
786.0876	0.0248
786.2598	0.0299
786.432	0.0386
786.6042	0.0643
786.7764	0.0062
786.9486	0.0053
787.1207	0.0161
787.2928	0.0504
787.4649	-0.0073
787.637	0.0117
787.8091	-0.0083
787.9811	0.0059
788.1532	0.0406
788.3252	0.0152
788.4972	0.0235
788.6691	0.0357
788.8411	-0.0121
789.013	0.019
789.1849	0.0076
789.3568	0.0418
789.5287	0.071
789.7005	-0.0206
789.8723	-0.0141
790.0442	0.0211
790.2159	0.0396
790.3877	0.0741
790.5595	0.022
790.7312	0.0017
790.9029	0.0507
791.0746	0.0487
791.2463	-0.0559
791.4179	0.0511
791.5896	0.0574
791.7612	0.0329
791.9328	0.0097
792.1044	0.0376
792.2759	-0.0066
792.4474	0.0031
792.619	0.0253
792.7905	0.058
792.9619	0.0524
793.1334	0.0714
793.3048	0.0464
793.4762	0.0639
793.6476	-0.0203
793.819	-0.0002
793.9904	0.0127
794.1617	-0.0161
794.333	0.0175
794.5043	-0.0008
794.6756	0.0247
794.8469	0.0097
795.0181	-0.0058
795.1893	0.0436
795.3605	0.0288
795.5317	0.0086
795.7029	-0.0151
795.874	0.05
796.0452	0.0007
796.2163	0.0977
796.3873	0.0203
796.5584	0.0595
796.7294	0.0618
796.9005	0.0409
797.0715	0.0548
797.2425	0.0943
797.4134	0.1031
797.5844	0.0649
797.7553	-0.0153
797.9262	0.0443
798.0971	0.0692
798.2679	0.0045
798.4388	0.073
798.6096	0.0078
798.7804	0.0595
798.9512	0.1564
799.122	-0.008
799.2927	0.0985
799.4635	0.0318
799.6342	-0.0229
799.8049	0.0722
799.9755	0.0314
800.1462	0.0205
800.3168	0.0211
800.4874	-0.0718
800.658	0.0941
800.8286	0.0417
800.9991	0.0287
801.1696	-0.0005
801.3402	-0.0241
801.5106	0.0649
801.6811	-0.0024
801.8516	0.0484
802.022	0.1403
802.1924	0.0163
802.3628	0.0579
802.5332	0.0371
802.7035	0.1125
802.8739	0.0663
803.0442	-0.0153
803.2145	0.0127
803.3847	-0.0021
803.555	0.079
803.7252	0.1309
803.8954	-0.0005
804.0656	0.061
804.2358	0.0393
804.4059	0.0771
804.5761	-0.0044
804.7462	0.0243
804.9163	0.0546
805.0864	0.0172
805.2564	-0.0281
805.4264	0.1401
805.5965	0.0745
805.7665	0.0885
805.9364	0.0169
806.1064	0.0298
806.2763	0.0249
806.4462	0.0138
806.6161	0.0439
806.786	-0.0102
806.9559	0.0185
807.1257	0.0301
807.2955	-0.0004
807.4653	0.0447
807.6351	0.026
807.8048	0.0365
807.9746	0.0565
808.1443	0.0665
808.314	-0.0004
808.4837	0.08
808.6533	-0.0174
808.8229	-0.0114
808.9926	0.0622
809.1622	-0.0074
809.3317	0.0485
809.5013	0.0664
809.6708	-0.0006
809.8403	-0.0005
810.0098	0.0747
810.1793	0.0621
810.3488	-0.0392
810.5182	0.0996
810.6876	0.0844
810.857	0.015
811.0264	-0.0871
811.1958	0.1143
811.3651	0.0184
811.5344	0.1156
811.7037	-0.0077
811.873	0.1665
812.0422	-0.1267
812.2115	-0.0573
812.3807	-0.0293
812.5499	-0.0111
812.7191	0.1008
812.8882	0.0556
813.0574	-0.0086
813.2265	0.0419
813.3956	0.057
813.5646	0.0979
813.7337	-0.0559
813.9027	-0.0618
814.0718	0.0518
814.2407	0.187
814.4097	0.0649
814.5787	0.0815
814.7476	0.0203
814.9165	0.0736
815.0854	-0.0316
815.2543	0.1044
815.4232	0.071
815.592	0.0171
815.7608	-0.1499
815.9296	-0.0092
816.0984	0.2474
816.2671	-0.3189
816.4359	0.1856
816.6046	0.0371
816.7733	-0.0179
816.942	-0.014
817.1106	0.0877
817.2793	-0.0651
817.4479	0.065
817.6165	0.0343
817.785	0.1059
817.9536	0.0252
818.1221	-0.0088
818.2906	-0.1773
818.4591	0.0535
818.6276	0.0217
818.7961	0.0086
818.9645	0.0708
819.1329	0.0966
819.3013	0.0602
819.4697	-0.0018
819.638	0.2696
819.8064	-0.0534
819.9747	0.0775
820.143	0.0358
820.3113	0.0451
820.4795	0.03
820.6477	0.0556
820.816	0.1146
820.9842	0.0391
821.1523	-0.0211
821.3205	0.0221
821.4886	-0.0653
821.6567	-0.0287
821.8248	0.1773
821.9929	-0.0383
822.1609	0.0373
822.329	-0.0039
822.497	-0.0105
822.665	0.0359
822.833	0.139
823.0009	0.0392
823.1688	0.1482
823.3367	-0.1725
823.5046	0.1064
823.6725	0.0055
823.8404	-0.0382
824.0082	0.0629
824.176	-0.0708
824.3438	0.6547
824.5116	0.0086
824.6793	0.2689
824.847	0.1832
825.0147	0.0092
825.1824	-0.0432
825.3501	0.1899
825.5177	-0.0627
825.6854	-0.0875
825.853	0.1614
826.0206	0.1574
826.1881	-0.0588
826.3557	-0.0151
826.5232	0.0872
826.6907	-0.039
826.8582	-0.0898
827.0257	0.1834
827.1931	0.0579
827.3605	-0.0013
827.528	0.0305
827.6953	0.019
827.8627	-0.1925
828.03	0.1326
828.1974	0.1307
828.3647	0.0299
828.532	0.0391
828.6992	0.1824
828.8665	-0.0734
829.0337	0.0589
829.2009	-0.1144
829.3681	0.0826
829.5352	-0.2871
829.7024	0.3362
829.8695	0.1101
830.0366	0.1482
830.2037	0.1153
830.3707	0.1108
830.5378	0.1325
830.7048	0.0966
830.8718	0.859
831.0388	0.2403
831.2057	0.3287
831.3727	-0.2607
831.5396	0.0776
831.7065	-0.9258
831.8734	0.4638
832.0402	0.3162
832.2071	-0.5586
832.3739	0.145
832.5407	-1.7243
832.7075	-0.2842
832.8742	1.7748
833.041	0.1284
833.2077	-0
833.3744	0.5237
833.541	-0.0107
833.7077	0.2099
833.8743	0.1833
834.0409	0.1717
834.2075	0.1818
834.3741	-0.1395
834.5407	0.0451
834.7072	0.0868
834.8737	0.1128
835.0402	0.8763
835.2067	-0.0858
835.3731	-0.1465
835.5395	-0.0629
835.706	-0.069
835.8723	-0.1151
836.0387	0.0723
836.2051	-0.0485
836.3714	0.5265
836.5377	0.1147
836.704	0.3091
836.8703	-0.0843
837.0365	0.04
837.2027	0.8385
837.3689	0.1848
837.5351	-0.1169
837.7013	-0.076
837.8674	-0.2262
838.0335	-0.0818
838.1997	0.0576
838.3657	-0
838.5318	-0.0739
838.6978	-0
838.8639	-0.4861
839.0299	-0.174
839.1958	0.1702
839.3618	0.0671
839.5277	0.066
839.6937	-0.0705
839.8596	-0.0721
840.0254	0.2514
840.1913	-0.2618
840.3571	0.2792
840.523	-0
840.6888	0.0363
840.8545	-0.4688
841.0203	0.0796
841.186	0.0783
841.3517	-0.1236
841.5174	0.6636
841.6831	0.5465
841.8488	0.392
842.0144	0.4473
842.18	0.2512
842.3456	0.1034
842.5112	-0
842.6767	0.2035
842.8422	0.0963
843.0077	0.1509
843.1732	-0.1905
843.3387	-0.0989
843.5042	-0
843.6696	0.2029
843.835	-0.0164
844.0004	-0.3099
844.1657	-0
844.3311	-0.2209
844.4964	-0.0627
844.6617	0.4983
844.827	-0
844.9923	0.1535
845.1575	-0
845.3227	-0.2212
845.4879	-0.0705
845.6531	0.0348
845.8183	0.4491
845.9834	-0
846.1485	0.2327
846.3136	-0.0262
846.4787	-0
846.6438	0.6145
846.8088	0.4375
846.9738	-0.1109
847.1388	0.4819
847.3038	0.8909
847.4687	0.1437
847.6337	-0
847.7986	-0.1157
847.9635	0.4065
848.1284	-0
848.2932	0.1123
848.458	-0
848.6228	1.0984
848.7876	-0
848.9524	0.0569
849.1172	-1.5333
849.2819	-0
849.4466	-0
849.6113	0.1502
849.7759	-0
849.9406	0.4656
850.1052	-1.214
850.2698	1.2062
850.4344	-0.1165
850.599	0.0093
850.7635	-0.0948
850.928	0.3717
851.0925	0.1868
851.257	-0
851.4215	-0
851.5859	0.279
851.7503	-0
851.9147	-0
852.0791	0.6279
852.2434	0.7472
852.4078	0.4038
852.5721	0.7789
852.7364	0.1015
852.9007	0.2988
853.0649	-0
853.2291	0.7697
853.3934	-0
853.5575	0.1614
853.7217	-0.0019
853.8859	-0
854.05	-0.1514
854.2141	0.0857
854.3782	-0.068
854.5423	-0.2308
854.7063	0.0256
854.8703	0.4398
855.0343	0.7076
855.1983	0.4611
855.3623	0.569
855.5262	-0
855.6901	0.4583
855.854	0.4209
856.0179	-0.3581
856.1818	-0
856.3456	0.5681
856.5094	-0.6565
856.6732	-0
856.837	-0.2795
857.0008	-0
857.1645	-0
857.3282	-0.3402
857.4919	0.2019
857.6556	-0.216
857.8192	0.6473
857.9828	-0.1118
858.1465	0.1296
858.31	-0
858.4736	-0.7233
858.6372	-0
858.8007	0.5425
858.9642	0.1716
859.1277	-0
859.2911	-0.1675
859.4546	-1.2878
859.618	0.1066
859.7814	-0.0358
859.9448	0.528
860.1081	-0
860.2715	-1.6952
860.4348	0.754
860.5981	-0
860.7614	-0.2354
860.9246	-0.0411
861.0879	-0.2519
861.2511	-0
861.4143	-0
861.5774	-0.0394
861.7406	-0
861.9037	-0
862.0668	0.699
862.2299	-0
862.393	-0
862.556	-0
862.7191	-0.3746
862.8821	0.1911
863.0451	0.1138
863.208	-0.1285
863.371	-0.5704
863.5339	-0
863.6968	-0
863.8597	0.4206
864.0225	-0
864.1854	-0
864.3482	-0
864.511	0.0576
864.6737	-0.0787
864.8365	0.0334
864.9992	-0
865.1619	-0.0092
865.3246	-2.0969
865.4873	-0
865.65	-0
865.8126	1.0481
865.9752	-0
866.1378	0.3607
866.3004	0.684
866.4629	-1.6799
866.6254	-0
866.7879	-0
866.9504	-0.1608
867.1129	-0.3402
867.2753	-0.2013
867.4377	-0
867.6001	-0.4566
867.7625	1.1326
867.9249	-0
868.0872	-0.1227
868.2495	-0
868.4118	0.7992
868.5741	-0
868.7363	0.2148
868.8986	-0.3777
869.0608	-0.2037
869.223	-0
869.3851	-0
869.5473	-0.0277
869.7094	0.0747
869.8715	-0.8422
870.0336	0.2114
870.1957	-1.1484
870.3577	0.4917
870.5197	0.2262
870.6817	-0.6427
870.8437	-0
871.0057	-0
871.1676	0.3685
871.3295	0.5401
871.4914	-1.0864
871.6533	-0.2541
871.8151	0.2844
871.977	-0.5391
872.1388	0.6002
872.3006	0.0617
872.4623	-0.6717
872.6241	-0
872.7858	-0
872.9475	-0
873.1092	0.1889
873.2709	0.3281
873.4325	-0
873.5941	0.0276
873.7557	-0
873.9173	-0.0191
874.0789	0.3219
874.2404	-0
874.4019	0.1003
874.5634	0.5809
874.7249	-0
874.8863	-0.2786
875.0478	-0.3896
875.2092	1.3689
875.3706	-0.0463
875.5319	-0
875.6933	0.4474
875.8546	-0
876.0159	0.3925
876.1772	-0.1296
876.3385	-0
876.4997	0.3559
876.6609	0.5327
876.8221	-0
876.9833	-0.1131
877.1445	0.4213
877.3056	-0.7314
877.4667	-0.5111
877.6278	-0
877.7889	0.1304
877.9499	-0
878.111	-0.6137
878.272	-0
878.433	-0.3079
878.5939	0.7977
878.7549	-0.5336
878.9158	-0.1618
879.0767	-0.0941
879.2376	-0.0114
879.3984	-0
879.5593	-0
879.7201	-1.7894
879.8809	0.6268
880.0417	-0.0441
880.2024	0.0155
880.3632	-0.138
880.5239	0.8078
880.6846	-0
880.8452	0.0044
881.0059	-0.5842
881.1665	-0.1847
881.3271	-0
881.4877	-0
881.6483	-1.5737
881.8088	-0
881.9693	-0
882.1298	-0
882.2903	-0
