Data from D4ACN5uM420nmA_Absorbance_14-37-08-201.txt Node
Date: Fri Feb 21 14:37:08 GMT 2025
User: LASERRRRR
Spectrometer: FLMT03099
Trigger mode: 0
Integration Time (sec): 1.500000E-2
Scans to average: 1
Electric dark correction enabled: true
Nonlinearity correction enabled: false
Boxcar width: 0
XAxis mode: Wavelengths
Number of Pixels in Spectrum: 3648
>>>>>Begin Spectral Data<<<<<
179.3399	-0.9688
179.5586	-0.9688
179.7771	-0.9688
179.9957	-0.2748
180.2143	-0
180.4329	-0
180.6514	-0
180.8699	-0
181.0885	0.7805
181.307	-0.1137
181.5255	-0.0168
181.744	-0.313
181.9625	-0
182.181	-0.2908
182.3994	-0.366
182.6179	-0.8
182.8363	0.0422
183.0547	-0.3046
183.2732	0.0369
183.4916	0.312
183.71	0.1111
183.9284	-0.0672
184.1467	0.6333
184.3651	0.2104
184.5835	0.2461
184.8018	0.1107
185.0201	-0.0376
185.2385	-0
185.4568	0.0373
185.6751	0.0947
185.8934	0.2326
186.1117	-0.0437
186.3299	0.1693
186.5482	0.324
186.7664	0.32
186.9847	-0.0182
187.2029	0.0399
187.4211	0.1065
187.6393	0.0129
187.8575	0.0908
188.0757	0.2676
188.2939	-0.0225
188.512	0.1962
188.7302	0.1042
188.9483	0.3446
189.1665	0.2197
189.3846	0.18
189.6027	0.1307
189.8208	0.0986
190.0389	0.159
190.257	0.1384
190.475	-0.0509
190.6931	0.0141
190.9111	0.0679
191.1292	0.099
191.3472	0.1245
191.5652	0.1603
191.7832	0.1335
192.0012	0.0446
192.2192	0.0524
192.4371	0.1083
192.6551	0.2252
192.873	0.0586
193.091	0.145
193.3089	0.21
193.5268	0.2488
193.7447	0.1841
193.9626	0.189
194.1805	0.2057
194.3984	0.128
194.6162	0.2362
194.8341	0.2339
195.0519	0.2276
195.2697	0.1996
195.4875	0.2446
195.7054	0.2267
195.9231	0.2554
196.1409	0.2391
196.3587	0.416
196.5765	0.323
196.7942	0.2329
197.012	0.3054
197.2297	0.3127
197.4474	0.4351
197.6651	0.3039
197.8828	0.3132
198.1005	0.3869
198.3182	0.3802
198.5358	0.3324
198.7535	0.3941
198.9711	0.3831
199.1888	0.3605
199.4064	0.4375
199.624	0.4263
199.8416	0.3188
200.0592	0.3826
200.2767	0.4107
200.4943	0.3132
200.7119	0.3949
200.9294	0.4309
201.1469	0.3896
201.3645	0.472
201.582	0.3835
201.7995	0.381
202.017	0.3888
202.2344	0.3698
202.4519	0.3636
202.6694	0.4188
202.8868	0.4284
203.1042	0.3794
203.3217	0.4097
203.5391	0.3748
203.7565	0.3026
203.9739	0.3816
204.1913	0.3755
204.4086	0.3509
204.626	0.371
204.8433	0.374
205.0607	0.344
205.278	0.3272
205.4953	0.3167
205.7126	0.3552
205.9299	0.3313
206.1472	0.3099
206.3644	0.3386
206.5817	0.327
206.7989	0.3119
207.0162	0.3218
207.2334	0.3262
207.4506	0.2842
207.6678	0.3205
207.885	0.2682
208.1022	0.3197
208.3194	0.2927
208.5365	0.3117
208.7537	0.2966
208.9708	0.2755
209.1879	0.2915
209.405	0.2636
209.6222	0.2681
209.8392	0.2943
210.0563	0.2904
210.2734	0.2754
210.4905	0.2673
210.7075	0.2747
210.9245	0.2551
211.1416	0.2625
211.3586	0.2469
211.5756	0.2634
211.7926	0.2705
212.0096	0.245
212.2265	0.2681
212.4435	0.2532
212.6604	0.2504
212.8774	0.2533
213.0943	0.2572
213.3112	0.2563
213.5281	0.2263
213.745	0.2322
213.9619	0.2446
214.1788	0.257
214.3956	0.2525
214.6125	0.254
214.8293	0.2534
215.0461	0.25
215.2629	0.2683
215.4798	0.2401
215.6965	0.2421
215.9133	0.2367
216.1301	0.225
216.3469	0.2421
216.5636	0.2466
216.7803	0.2406
216.9971	0.2374
217.2138	0.2549
217.4305	0.2424
217.6472	0.2441
217.8639	0.2431
218.0805	0.2397
218.2972	0.2394
218.5138	0.2566
218.7305	0.2513
218.9471	0.2415
219.1637	0.275
219.3803	0.2662
219.5969	0.2504
219.8135	0.2563
220.0301	0.2582
220.2466	0.2538
220.4632	0.2459
220.6797	0.254
220.8962	0.2493
221.1127	0.2645
221.3292	0.2613
221.5457	0.2708
221.7622	0.2523
221.9787	0.2809
222.1951	0.2578
222.4116	0.2743
222.628	0.2776
222.8444	0.2769
223.0608	0.2816
223.2772	0.2746
223.4936	0.2848
223.71	0.2804
223.9264	0.2938
224.1427	0.2837
224.3591	0.2825
224.5754	0.2996
224.7917	0.2898
225.008	0.2921
225.2243	0.295
225.4406	0.3039
225.6569	0.2982
225.8732	0.302
226.0894	0.3004
226.3057	0.3017
226.5219	0.3099
226.7381	0.3218
226.9543	0.3144
227.1705	0.319
227.3867	0.3232
227.6029	0.3272
227.8191	0.3351
228.0352	0.3345
228.2513	0.3428
228.4675	0.3434
228.6836	0.3546
228.8997	0.3392
229.1158	0.3529
229.3319	0.3582
229.548	0.3524
229.764	0.3592
229.9801	0.3762
230.1961	0.3703
230.4121	0.3599
230.6282	0.3817
230.8442	0.3867
231.0602	0.3815
231.2761	0.3869
231.4921	0.3874
231.7081	0.3891
231.924	0.4022
232.14	0.4036
232.3559	0.4158
232.5718	0.4084
232.7877	0.4139
233.0036	0.4073
233.2195	0.4196
233.4353	0.4231
233.6512	0.4149
233.867	0.4239
234.0829	0.4272
234.2987	0.4313
234.5145	0.4387
234.7303	0.432
234.9461	0.442
235.1619	0.4361
235.3776	0.4372
235.5934	0.4295
235.8091	0.4489
236.0249	0.4478
236.2406	0.4369
236.4563	0.4541
236.672	0.4443
236.8877	0.4551
237.1034	0.4398
237.319	0.4561
237.5347	0.4502
237.7503	0.4421
237.966	0.4644
238.1816	0.4502
238.3972	0.456
238.6128	0.4674
238.8284	0.4611
239.0439	0.4599
239.2595	0.4613
239.475	0.4664
239.6906	0.4552
239.9061	0.4554
240.1216	0.4537
240.3371	0.4665
240.5526	0.4581
240.7681	0.4646
240.9836	0.4601
241.199	0.4675
241.4145	0.4611
241.6299	0.4515
241.8453	0.4403
242.0607	0.4391
242.2761	0.4451
242.4915	0.4359
242.7069	0.427
242.9223	0.4268
243.1376	0.4273
243.353	0.4057
243.5683	0.4093
243.7836	0.4037
243.9989	0.386
244.2142	0.3812
244.4295	0.3738
244.6448	0.3754
244.86	0.3665
245.0753	0.3564
245.2905	0.3491
245.5057	0.3466
245.721	0.3449
245.9362	0.3398
246.1514	0.3277
246.3665	0.3164
246.5817	0.3167
246.7969	0.3033
247.012	0.3003
247.2271	0.2976
247.4423	0.2953
247.6574	0.2866
247.8725	0.2806
248.0876	0.2685
248.3026	0.2764
248.5177	0.2591
248.7328	0.2582
248.9478	0.2622
249.1628	0.2517
249.3779	0.2487
249.5929	0.2419
249.8079	0.2463
250.0228	0.2343
250.2378	0.2355
250.4528	0.2314
250.6677	0.2218
250.8827	0.2196
251.0976	0.2198
251.3125	0.2224
251.5274	0.218
251.7423	0.21
251.9572	0.2098
252.172	0.2089
252.3869	0.2104
252.6017	0.2048
252.8166	0.2064
253.0314	0.1987
253.2462	0.2029
253.461	0.2035
253.6758	0.2017
253.8906	0.1992
254.1053	0.2041
254.3201	0.1985
254.5348	0.1826
254.7496	0.1916
254.9643	0.1909
255.179	0.1955
255.3937	0.1919
255.6083	0.197
255.823	0.1939
256.0377	0.1885
256.2523	0.1851
256.467	0.1854
256.6816	0.1888
256.8962	0.1859
257.1108	0.1891
257.3254	0.1868
257.54	0.1828
257.7545	0.1837
257.9691	0.1867
258.1836	0.1754
258.3981	0.1861
258.6127	0.1775
258.8272	0.1914
259.0417	0.1777
259.2561	0.1825
259.4706	0.1825
259.6851	0.181
259.8995	0.1812
260.114	0.1765
260.3284	0.1723
260.5428	0.1815
260.7572	0.1841
260.9716	0.1885
261.186	0.18
261.4003	0.1771
261.6147	0.184
261.829	0.1848
262.0433	0.1784
262.2577	0.1827
262.472	0.1813
262.6863	0.1913
262.9005	0.1826
263.1148	0.1805
263.3291	0.1827
263.5433	0.1891
263.7576	0.1811
263.9718	0.1868
264.186	0.1876
264.4002	0.188
264.6144	0.1927
264.8286	0.1931
265.0427	0.1959
265.2569	0.1894
265.471	0.189
265.6851	0.1951
265.8993	0.1864
266.1134	0.1903
266.3275	0.193
266.5415	0.1891
266.7556	0.1957
266.9697	0.1938
267.1837	0.1895
267.3978	0.1908
267.6118	0.1879
267.8258	0.1931
268.0398	0.1935
268.2538	0.1923
268.4677	0.1869
268.6817	0.1865
268.8957	0.1823
269.1096	0.186
269.3235	0.187
269.5374	0.1878
269.7514	0.1809
269.9652	0.1828
270.1791	0.1853
270.393	0.1856
270.6068	0.1889
270.8207	0.1852
271.0345	0.1836
271.2483	0.1764
271.4622	0.1842
271.676	0.1835
271.8897	0.187
272.1035	0.1868
272.3173	0.1818
272.531	0.1806
272.7448	0.1828
272.9585	0.18
273.1722	0.1814
273.3859	0.1883
273.5996	0.1887
273.8133	0.1917
274.0269	0.1817
274.2406	0.1823
274.4542	0.1849
274.6679	0.1912
274.8815	0.1926
275.0951	0.1984
275.3087	0.1932
275.5223	0.1923
275.7358	0.1971
275.9494	0.1945
276.1629	0.2002
276.3765	0.1923
276.59	0.1896
276.8035	0.1983
277.017	0.2004
277.2305	0.1925
277.444	0.1951
277.6574	0.1963
277.8709	0.2006
278.0843	0.1997
278.2978	0.1986
278.5112	0.1974
278.7246	0.191
278.938	0.1987
279.1513	0.1959
279.3647	0.19
279.5781	0.1949
279.7914	0.1908
280.0047	0.1977
280.2181	0.1948
280.4314	0.1921
280.6447	0.2041
280.8579	0.1921
281.0712	0.1912
281.2845	0.1925
281.4977	0.1931
281.711	0.1904
281.9242	0.1934
282.1374	0.1908
282.3506	0.1931
282.5638	0.1925
282.7769	0.1886
282.9901	0.1954
283.2033	0.1897
283.4164	0.1829
283.6295	0.1901
283.8426	0.1864
284.0557	0.1939
284.2688	0.1915
284.4819	0.1873
284.695	0.1938
284.908	0.1923
285.1211	0.1946
285.3341	0.1881
285.5471	0.1958
285.7601	0.1906
285.9731	0.1897
286.1861	0.195
286.3991	0.198
286.612	0.1902
286.825	0.1963
287.0379	0.194
287.2508	0.1929
287.4637	0.1975
287.6766	0.1911
287.8895	0.1936
288.1024	0.1923
288.3152	0.1951
288.5281	0.1876
288.7409	0.1905
288.9538	0.1956
289.1666	0.1923
289.3794	0.1902
289.5922	0.1871
289.8049	0.1927
290.0177	0.1953
290.2304	0.1951
290.4432	0.1939
290.6559	0.1968
290.8686	0.1936
291.0813	0.1946
291.294	0.1974
291.5067	0.19
291.7194	0.1895
291.932	0.1909
292.1447	0.189
292.3573	0.1944
292.5699	0.1949
292.7825	0.1873
292.9951	0.1921
293.2077	0.1905
293.4203	0.1924
293.6328	0.1927
293.8454	0.185
294.0579	0.1876
294.2704	0.1959
294.4829	0.1883
294.6954	0.1948
294.9079	0.1899
295.1204	0.1921
295.3328	0.1998
295.5453	0.1924
295.7577	0.1933
295.9701	0.1915
296.1825	0.1933
296.3949	0.1859
296.6073	0.19
296.8197	0.1887
297.0321	0.1962
297.2444	0.1872
297.4567	0.1925
297.6691	0.1882
297.8814	0.194
298.0937	0.1909
298.306	0.1935
298.5182	0.197
298.7305	0.189
298.9428	0.1874
299.155	0.1897
299.3672	0.1918
299.5794	0.196
299.7916	0.1929
300.0038	0.1972
300.216	0.191
300.4282	0.1888
300.6403	0.1984
300.8525	0.191
301.0646	0.1953
301.2767	0.1905
301.4888	0.1954
301.7009	0.1948
301.913	0.1913
302.125	0.1893
302.3371	0.1909
302.5491	0.1932
302.7612	0.1917
302.9732	0.1928
303.1852	0.1938
303.3972	0.194
303.6092	0.1921
303.8211	0.1848
304.0331	0.1935
304.245	0.1872
304.457	0.1919
304.6689	0.1918
304.8808	0.1831
305.0927	0.1865
305.3046	0.1895
305.5164	0.1833
305.7283	0.1868
305.9401	0.1724
306.152	0.184
306.3638	0.1837
306.5756	0.1899
306.7874	0.1767
306.9992	0.1745
307.2109	0.1749
307.4227	0.1758
307.6344	0.1809
307.8462	0.1715
308.0579	0.179
308.2696	0.1692
308.4813	0.1719
308.693	0.171
308.9046	0.1692
309.1163	0.1669
309.328	0.1661
309.5396	0.156
309.7512	0.1589
309.9628	0.162
310.1744	0.1562
310.386	0.1502
310.5976	0.1542
310.8091	0.1552
311.0207	0.1535
311.2322	0.1465
311.4437	0.1491
311.6552	0.1511
311.8667	0.1557
312.0782	0.1473
312.2897	0.1494
312.5012	0.1488
312.7126	0.1457
312.924	0.1462
313.1355	0.1398
313.3469	0.1441
313.5583	0.1388
313.7696	0.1408
313.981	0.1486
314.1924	0.1375
314.4037	0.14
314.6151	0.138
314.8264	0.1463
315.0377	0.1376
315.249	0.1438
315.4603	0.1383
315.6716	0.1416
315.8828	0.1425
316.0941	0.1425
316.3053	0.138
316.5165	0.1401
316.7277	0.1344
316.9389	0.1346
317.1501	0.1319
317.3613	0.1326
317.5724	0.1397
317.7836	0.1283
317.9947	0.133
318.2058	0.1353
318.417	0.1303
318.6281	0.1339
318.8391	0.1367
319.0502	0.1308
319.2613	0.1348
319.4723	0.1371
319.6834	0.1416
319.8944	0.1344
320.1054	0.1335
320.3164	0.1361
320.5274	0.1334
320.7383	0.1399
320.9493	0.1341
321.1602	0.1319
321.3712	0.1286
321.5821	0.1334
321.793	0.1442
322.0039	0.1312
322.2148	0.1386
322.4257	0.132
322.6365	0.1323
322.8474	0.1348
323.0582	0.1391
323.269	0.134
323.4798	0.1368
323.6906	0.1356
323.9014	0.1376
324.1122	0.1297
324.3229	0.1437
324.5337	0.1323
324.7444	0.1378
324.9551	0.1416
325.1658	0.1375
325.3765	0.1411
325.5872	0.1383
325.7979	0.1365
326.0085	0.1336
326.2192	0.14
326.4298	0.1479
326.6404	0.1371
326.851	0.1396
327.0616	0.1422
327.2722	0.1373
327.4828	0.1437
327.6933	0.1422
327.9039	0.1418
328.1144	0.1465
328.3249	0.1469
328.5354	0.1456
328.7459	0.1411
328.9564	0.1414
329.1669	0.1584
329.3773	0.1455
329.5878	0.1433
329.7982	0.1537
330.0086	0.1482
330.219	0.1439
330.4294	0.1487
330.6398	0.1518
330.8502	0.1564
331.0605	0.1482
331.2708	0.1468
331.4812	0.1463
331.6915	0.154
331.9018	0.1456
332.1121	0.1536
332.3224	0.1498
332.5326	0.1459
332.7429	0.1492
332.9531	0.1563
333.1633	0.1452
333.3735	0.1466
333.5837	0.1512
333.7939	0.1486
334.0041	0.1542
334.2143	0.1477
334.4244	0.1529
334.6346	0.149
334.8447	0.15
335.0548	0.152
335.2649	0.1527
335.475	0.1529
335.685	0.1486
335.8951	0.1444
336.1051	0.1521
336.3152	0.1507
336.5252	0.1455
336.7352	0.1471
336.9452	0.1495
337.1552	0.1521
337.3652	0.1444
337.5751	0.149
337.7851	0.1557
337.995	0.1563
338.2049	0.1449
338.4148	0.1501
338.6247	0.1545
338.8346	0.1487
339.0445	0.1496
339.2543	0.1517
339.4642	0.1449
339.674	0.1465
339.8838	0.157
340.0936	0.152
340.3034	0.1571
340.5132	0.1513
340.7229	0.1503
340.9327	0.1611
341.1424	0.1517
341.3522	0.1478
341.5619	0.1598
341.7716	0.1592
341.9813	0.1652
342.1909	0.1554
342.4006	0.1587
342.6102	0.1577
342.8199	0.1538
343.0295	0.1522
343.2391	0.162
343.4487	0.1613
343.6583	0.1756
343.8679	0.1672
344.0774	0.1612
344.287	0.1614
344.4965	0.1674
344.706	0.1685
344.9155	0.1648
345.125	0.1647
345.3345	0.1714
345.544	0.1692
345.7534	0.1702
345.9629	0.1735
346.1723	0.1779
346.3817	0.165
346.5911	0.1777
346.8005	0.184
347.0099	0.1759
347.2193	0.1746
347.4286	0.1826
347.638	0.1801
347.8473	0.1818
348.0566	0.1776
348.2659	0.1756
348.4752	0.1781
348.6845	0.1783
348.8937	0.1809
349.103	0.1796
349.3122	0.1812
349.5214	0.1831
349.7306	0.1844
349.9398	0.1805
350.149	0.1771
350.3582	0.1805
350.5674	0.1845
350.7765	0.1912
350.9856	0.1853
351.1948	0.1796
351.4039	0.1946
351.613	0.1798
351.822	0.1958
352.0311	0.1859
352.2402	0.1924
352.4492	0.1877
352.6582	0.1799
352.8672	0.1853
353.0762	0.1895
353.2852	0.1894
353.4942	0.1841
353.7032	0.1865
353.9121	0.193
354.1211	0.1949
354.33	0.1864
354.5389	0.1873
354.7478	0.1857
354.9567	0.1919
355.1655	0.1888
355.3744	0.1833
355.5833	0.188
355.7921	0.1906
356.0009	0.1948
356.2097	0.1884
356.4185	0.1914
356.6273	0.1935
356.8361	0.1932
357.0448	0.192
357.2536	0.1976
357.4623	0.1911
357.671	0.191
357.8797	0.1951
358.0884	0.195
358.2971	0.192
358.5057	0.2003
358.7144	0.2045
358.923	0.1981
359.1316	0.2043
359.3402	0.2041
359.5488	0.1968
359.7574	0.2053
359.966	0.1945
360.1746	0.1977
360.3831	0.1961
360.5916	0.2069
360.8002	0.2127
361.0087	0.2031
361.2172	0.2063
361.4256	0.2099
361.6341	0.2084
361.8426	0.2031
362.051	0.212
362.2594	0.208
362.4678	0.2082
362.6762	0.2176
362.8846	0.2118
363.093	0.2142
363.3014	0.2217
363.5097	0.222
363.718	0.2224
363.9264	0.2211
364.1347	0.2128
364.343	0.216
364.5513	0.2143
364.7595	0.2275
364.9678	0.2167
365.176	0.2217
365.3842	0.2264
365.5925	0.2223
365.8007	0.2232
366.0089	0.2321
366.217	0.2253
366.4252	0.226
366.6333	0.2334
366.8415	0.2255
367.0496	0.2268
367.2577	0.2279
367.4658	0.2268
367.6739	0.2314
367.882	0.2321
368.09	0.227
368.2981	0.2361
368.5061	0.2317
368.7141	0.23
368.9221	0.2424
369.1301	0.2351
369.3381	0.2487
369.5461	0.2427
369.754	0.2333
369.962	0.243
370.1699	0.2428
370.3778	0.2519
370.5857	0.2436
370.7936	0.2463
371.0015	0.2479
371.2093	0.2412
371.4172	0.2483
371.625	0.2445
371.8328	0.2414
372.0406	0.2557
372.2484	0.2498
372.4562	0.2449
372.664	0.2525
372.8717	0.2504
373.0795	0.2478
373.2872	0.2551
373.4949	0.2612
373.7026	0.2503
373.9103	0.2506
374.118	0.251
374.3256	0.2584
374.5333	0.2526
374.7409	0.2531
374.9485	0.2578
375.1561	0.2554
375.3637	0.2473
375.5713	0.2587
375.7789	0.2579
375.9864	0.2607
376.194	0.2674
376.4015	0.2598
376.609	0.2659
376.8165	0.2591
377.024	0.2683
377.2315	0.2717
377.4389	0.261
377.6464	0.2726
377.8538	0.262
378.0612	0.2574
378.2686	0.2701
378.476	0.2788
378.6834	0.2594
378.8908	0.2754
379.0981	0.2744
379.3055	0.2714
379.5128	0.27
379.7201	0.268
379.9274	0.273
380.1347	0.2659
380.342	0.2767
380.5492	0.268
380.7565	0.2728
380.9637	0.2763
381.1709	0.2761
381.3781	0.2792
381.5853	0.2707
381.7925	0.2729
381.9997	0.2858
382.2068	0.2769
382.4139	0.2744
382.6211	0.2837
382.8282	0.2768
383.0353	0.2903
383.2424	0.2777
383.4494	0.2844
383.6565	0.2808
383.8635	0.2854
384.0706	0.2862
384.2776	0.2813
384.4846	0.2855
384.6916	0.2758
384.8986	0.2848
385.1055	0.2914
385.3125	0.2897
385.5194	0.2905
385.7263	0.2823
385.9333	0.2901
386.1402	0.2819
386.347	0.2831
386.5539	0.2886
386.7608	0.2847
386.9676	0.2796
387.1744	0.2794
387.3813	0.2932
387.5881	0.2805
387.7948	0.2883
388.0016	0.289
388.2084	0.2842
388.4151	0.2888
388.6219	0.277
388.8286	0.29
389.0353	0.2806
389.242	0.2809
389.4487	0.2793
389.6553	0.2726
389.862	0.2658
390.0686	0.2855
390.2753	0.2768
390.4819	0.2799
390.6885	0.2733
390.8951	0.2804
391.1016	0.2777
391.3082	0.2765
391.5147	0.2683
391.7213	0.2761
391.9278	0.2658
392.1343	0.2784
392.3408	0.2696
392.5473	0.2703
392.7537	0.2711
392.9602	0.2582
393.1666	0.2665
393.373	0.272
393.5794	0.2657
393.7858	0.2705
393.9922	0.262
394.1986	0.2442
394.4049	0.2596
394.6113	0.2602
394.8176	0.2618
395.0239	0.25
395.2302	0.2605
395.4365	0.2523
395.6428	0.2548
395.8491	0.251
396.0553	0.2488
396.2615	0.2439
396.4678	0.2612
396.674	0.2458
396.8802	0.2567
397.0863	0.2474
397.2925	0.2508
397.4987	0.2448
397.7048	0.2505
397.9109	0.2435
398.117	0.2415
398.3231	0.2475
398.5292	0.2403
398.7353	0.2418
398.9413	0.2435
399.1474	0.2493
399.3534	0.2498
399.5594	0.2488
399.7654	0.2385
399.9714	0.2434
400.1774	0.2349
400.3833	0.2521
400.5893	0.2441
400.7952	0.2433
401.0011	0.2483
401.207	0.2417
401.4129	0.2457
401.6188	0.2386
401.8247	0.25
402.0305	0.2371
402.2364	0.2411
402.4422	0.2396
402.648	0.2307
402.8538	0.2412
403.0596	0.237
403.2654	0.237
403.4711	0.2389
403.6768	0.2285
403.8826	0.2484
404.0883	0.2458
404.294	0.2414
404.4997	0.2315
404.7054	0.2447
404.911	0.2302
405.1167	0.2509
405.3223	0.2368
405.5279	0.2407
405.7335	0.2421
405.9391	0.2339
406.1447	0.2406
406.3502	0.2384
406.5558	0.2433
406.7613	0.2357
406.9668	0.2308
407.1724	0.2371
407.3778	0.237
407.5833	0.2264
407.7888	0.2414
407.9942	0.2452
408.1997	0.2357
408.4051	0.2307
408.6105	0.2419
408.8159	0.2333
409.0213	0.2416
409.2267	0.246
409.432	0.2366
409.6374	0.24
409.8427	0.2467
410.048	0.2339
410.2533	0.2423
410.4586	0.2411
410.6639	0.2354
410.8691	0.2394
411.0744	0.2431
411.2796	0.2419
411.4848	0.2324
411.69	0.2294
411.8952	0.2385
412.1004	0.2386
412.3056	0.2316
412.5107	0.2377
412.7158	0.252
412.921	0.2432
413.1261	0.2377
413.3312	0.2339
413.5362	0.2443
413.7413	0.2455
413.9464	0.2308
414.1514	0.2287
414.3564	0.2401
414.5614	0.2326
414.7664	0.2325
414.9714	0.2228
415.1764	0.2411
415.3813	0.2357
415.5863	0.2386
415.7912	0.2192
415.9961	0.2317
416.201	0.2422
416.4059	0.2314
416.6108	0.2257
416.8156	0.2314
417.0205	0.2365
417.2253	0.2241
417.4301	0.227
417.6349	0.2352
417.8397	0.2329
418.0445	0.2238
418.2492	0.2254
418.454	0.2291
418.6587	0.2303
418.8634	0.222
419.0681	0.2327
419.2728	0.2333
419.4775	0.2419
419.6822	0.22
419.8868	0.2303
420.0915	0.2204
420.2961	0.2108
420.5007	0.2287
420.7053	0.226
420.9099	0.2175
421.1144	0.2239
421.319	0.2182
421.5235	0.2134
421.728	0.2259
421.9325	0.2205
422.137	0.2181
422.3415	0.2137
422.546	0.2088
422.7504	0.2196
422.9549	0.2208
423.1593	0.2109
423.3637	0.212
423.5681	0.2221
423.7725	0.2111
423.9769	0.2083
424.1812	0.2024
424.3856	0.2007
424.5899	0.2072
424.7942	0.21
424.9985	0.2043
425.2028	0.2191
425.4071	0.2122
425.6113	0.2081
425.8156	0.2074
426.0198	0.2043
426.224	0.2057
426.4282	0.1979
426.6324	0.1943
426.8366	0.1949
427.0407	0.188
427.2449	0.1953
427.449	0.1934
427.6531	0.2046
427.8572	0.1908
428.0613	0.1953
428.2654	0.2004
428.4694	0.1805
428.6735	0.1883
428.8775	0.1867
429.0815	0.1835
429.2855	0.1867
429.4895	0.18
429.6935	0.1809
429.8975	0.1825
430.1014	0.1827
430.3053	0.1815
430.5093	0.1748
430.7132	0.177
430.9171	0.1733
431.1209	0.175
431.3248	0.1722
431.5286	0.1703
431.7325	0.1691
431.9363	0.1611
432.1401	0.1645
432.3439	0.1704
432.5477	0.155
432.7514	0.1512
432.9552	0.1607
433.1589	0.1581
433.3627	0.1625
433.5664	0.1587
433.7701	0.1536
433.9737	0.1519
434.1774	0.1528
434.3811	0.1439
434.5847	0.1482
434.7883	0.1497
434.9919	0.1456
435.1955	0.1389
435.3991	0.1417
435.6027	0.1363
435.8062	0.1579
436.0098	0.1278
436.2133	0.1349
436.4168	0.1291
436.6203	0.1304
436.8238	0.1307
437.0272	0.1332
437.2307	0.1202
437.4341	0.1295
437.6375	0.126
437.841	0.1236
438.0443	0.125
438.2477	0.1145
438.4511	0.1077
438.6545	0.1162
438.8578	0.1166
439.0611	0.1223
439.2644	0.1237
439.4677	0.1144
439.671	0.097
439.8743	0.108
440.0775	0.1078
440.2808	0.1015
440.484	0.1022
440.6872	0.1069
440.8904	0.0948
441.0936	0.1014
441.2967	0.091
441.4999	0.0877
441.703	0.0987
441.9062	0.0905
442.1093	0.1006
442.3124	0.0875
442.5155	0.0964
442.7185	0.0835
442.9216	0.0889
443.1246	0.0888
443.3276	0.0876
443.5307	0.0739
443.7337	0.0853
443.9366	0.0808
444.1396	0.0708
444.3426	0.0775
444.5455	0.0733
444.7484	0.0778
444.9513	0.0757
445.1542	0.0771
445.3571	0.0749
445.56	0.066
445.7628	0.073
445.9657	0.0713
446.1685	0.0782
446.3713	0.0744
446.5741	0.0778
446.7769	0.0722
446.9797	0.0668
447.1824	0.0604
447.3852	0.0558
447.5879	0.0584
447.7906	0.0508
447.9933	0.0603
448.196	0.0581
448.3986	0.0529
448.6013	0.0512
448.8039	0.0653
449.0066	0.0595
449.2092	0.0546
449.4118	0.0556
449.6143	0.0555
449.8169	0.0466
450.0195	0.0536
450.222	0.0561
450.4245	0.0513
450.627	0.0478
450.8295	0.0458
451.032	0.0518
451.2345	0.0284
451.4369	0.0354
451.6394	0.0428
451.8418	0.0501
452.0442	0.0423
452.2466	0.0372
452.449	0.0396
452.6513	0.0302
452.8537	0.0367
453.056	0.0406
453.2583	0.0303
453.4607	0.0343
453.663	0.0429
453.8652	0.0276
454.0675	0.0354
454.2697	0.0336
454.472	0.0183
454.6742	0.0368
454.8764	0.0453
455.0786	0.0309
455.2808	0.0295
455.4829	0.0409
455.6851	0.0412
455.8872	0.0247
456.0893	0.026
456.2915	0.0276
456.4935	0.0288
456.6956	0.0289
456.8977	0.0327
457.0997	0.0382
457.3018	0.023
457.5038	0.0323
457.7058	0.0248
457.9078	0.0241
458.1098	0.0315
458.3117	0.0258
458.5137	0.02
458.7156	0.0301
458.9175	0.0261
459.1194	0.0206
459.3213	0.0211
459.5232	0.0307
459.725	0.0135
459.9269	0.0225
460.1287	0.0204
460.3305	0.0242
460.5323	0.0192
460.7341	0.0206
460.9359	0.0121
461.1376	0.0184
461.3394	0.0297
461.5411	0.0332
461.7428	0.0227
461.9445	0.0142
462.1462	0.0281
462.3479	0.0062
462.5495	0.0176
462.7512	0.0294
462.9528	0.0205
463.1544	0.0141
463.356	0.0135
463.5576	0.0214
463.7592	0.0235
463.9607	0.0121
464.1623	0.0093
464.3638	0.0122
464.5653	0.0184
464.7668	0.0208
464.9683	0.019
465.1697	0.017
465.3712	0.0207
465.5726	0.014
465.7741	0.0212
465.9755	0.0181
466.1769	0.0143
466.3782	0.0147
466.5796	0.0192
466.7809	0.0217
466.9823	0.0164
467.1836	0.0082
467.3849	0.01
467.5862	0.0081
467.7875	0.0205
467.9887	0.0137
468.19	0.0161
468.3912	0.0177
468.5924	0.0144
468.7936	0.0176
468.9948	0.0122
469.196	0.0105
469.3972	0.0139
469.5983	0.0105
469.7994	0.0175
470.0006	0.0112
470.2017	0.0073
470.4027	0.031
470.6038	0.0118
470.8049	0.0205
471.0059	0.0208
471.2069	0.0142
471.408	0.0177
471.6089	0.0166
471.8099	0.0181
472.0109	0.0097
472.2119	0.0176
472.4128	0.0069
472.6137	0.0091
472.8146	0.0164
473.0155	0.0218
473.2164	0.0116
473.4173	0.003
473.6181	0.0083
473.819	0.0082
474.0198	0.0089
474.2206	0.0019
474.4214	0.0182
474.6222	0.0046
474.8229	0.0121
475.0237	0.0197
475.2244	0.0107
475.4251	0.0147
475.6258	0.008
475.8265	0.0142
476.0272	0.0037
476.2278	0.0149
476.4285	0.0116
476.6291	0.0098
476.8297	0.0025
477.0303	0.0084
477.2309	0.0099
477.4315	0.0049
477.632	0.0121
477.8326	0.0125
478.0331	0.0118
478.2336	0.0071
478.4341	0.017
478.6346	0.011
478.8351	0.0021
479.0355	0.0146
479.236	0.0127
479.4364	0.0134
479.6368	0.0089
479.8372	0.0082
480.0376	0.0059
480.2379	0.0126
480.4383	0.0132
480.6386	0.0085
480.8389	0.0056
481.0392	0.0065
481.2395	0.0157
481.4398	0.0108
481.6401	0.0089
481.8403	0.0064
482.0405	0.009
482.2408	0.0117
482.441	0.0111
482.6411	0.0068
482.8413	0.0082
483.0415	0.0193
483.2416	0.0035
483.4417	0.0181
483.6419	0.005
483.8419	0.0075
484.042	0.0083
484.2421	0.0039
484.4422	0.0104
484.6422	0.0126
484.8422	0.0082
485.0422	0.0075
485.2422	0.0092
485.4422	0.0058
485.6422	0.0055
485.8421	0.0088
486.042	0.0109
486.242	0.0097
486.4419	0.0107
486.6417	0.0096
486.8416	0.011
487.0415	0.006
487.2413	0.0043
487.4411	0.0119
487.641	0.0083
487.8408	0.0145
488.0405	0.0124
488.2403	0.0108
488.4401	0.0087
488.6398	0.0149
488.8395	0.0082
489.0392	0.0073
489.2389	0.0111
489.4386	-0.0012
489.6383	0.0123
489.8379	0.0002
490.0376	0.0108
490.2372	0.0095
490.4368	0.0064
490.6364	0.0014
490.836	0.002
491.0355	0.0068
491.2351	0.0126
491.4346	0.0153
491.6341	0.0102
491.8336	0.0059
492.0331	0.0068
492.2326	0.006
492.432	0.0058
492.6315	0.0195
492.8309	0.0175
493.0303	0.0055
493.2297	0.015
493.4291	0.0072
493.6284	0.0169
493.8278	0.0106
494.0271	0.0128
494.2264	0.007
494.4257	0.0099
494.625	0.0072
494.8243	0.003
495.0236	0.0129
495.2228	0.0122
495.422	0.0008
495.6213	0.0098
495.8205	0.0119
496.0196	0.0132
496.2188	0.0093
496.418	0.0115
496.6171	0.0002
496.8162	0.0147
497.0153	0.0138
497.2144	0.0091
497.4135	0.0101
497.6126	0.0136
497.8116	-0.0004
498.0107	0.0091
498.2097	0.01
498.4087	0.0072
498.6077	0.0002
498.8067	0.014
499.0056	-0.0006
499.2046	0.0135
499.4035	0.0148
499.6024	-0.0024
499.8013	0.0064
500.0002	0.012
500.199	0.0165
500.3979	0.0057
500.5967	0.0088
500.7956	0.0101
500.9944	0.0097
501.1932	0.0137
501.3919	0.0106
501.5907	0.0108
501.7895	0.0062
501.9882	0.0061
502.1869	0.0074
502.3856	0.0112
502.5843	0.0111
502.783	0.0094
502.9816	0.0088
503.1803	0.0055
503.3789	0.0168
503.5775	0.004
503.7761	0.0049
503.9747	0.0129
504.1732	0.0031
504.3718	0.0179
504.5703	0.004
504.7689	-0.0042
504.9674	0.0019
505.1658	0.0068
505.3643	0.0155
505.5628	0.017
505.7612	0.0101
505.9597	0.0095
506.1581	0.0058
506.3565	0.0084
506.5549	0.0027
506.7532	0.0056
506.9516	0.0106
507.1499	0.0068
507.3482	0.0129
507.5465	0.0062
507.7448	0.0131
507.9431	0.0117
508.1414	0.0081
508.3396	0.0135
508.5379	0.0093
508.7361	0.013
508.9343	0.0125
509.1325	0.0143
509.3306	0.0102
509.5288	0.0014
509.7269	0.0199
509.9251	0.0077
510.1232	0.0062
510.3213	0.0156
510.5193	0.0134
510.7174	0.0056
510.9154	0.0136
511.1135	0.0061
511.3115	0.0063
511.5095	0.0062
511.7075	0.008
511.9055	0.0092
512.1034	0.0096
512.3014	0.0051
512.4993	0.0077
512.6972	0.0046
512.8951	0.0147
513.093	0.0081
513.2908	0.0132
513.4887	0.0121
513.6865	0.0104
513.8844	0.0137
514.0822	0.0123
514.2799	0.0018
514.4777	-0.004
514.6755	0.0011
514.8732	-0.0002
515.0709	0.0074
515.2687	-0.0061
515.4664	0.0116
515.664	0.0079
515.8617	0.0093
516.0594	0.0122
516.257	0.011
516.4546	0.0229
516.6522	0.0141
516.8498	0.0105
517.0474	0.0204
517.2449	0.0027
517.4425	0.0116
517.64	0.0095
517.8375	0.0169
518.035	0.0061
518.2325	0.0051
518.43	0.014
518.6274	0.005
518.8249	-0.002
519.0223	0.0138
519.2197	0.0136
519.4171	0.0084
519.6145	0.0164
519.8118	-0.006
520.0092	0.0011
520.2065	0.0205
520.4038	0.0124
520.6011	0.0069
520.7984	0.0172
520.9956	0.0236
521.1929	0.0185
521.3901	0.0216
521.5874	0.0194
521.7846	0.0061
521.9818	0.0065
522.1789	0.0012
522.3761	0.0224
522.5732	0.0119
522.7704	-0.0025
522.9675	-0.0009
523.1646	-0.0011
523.3617	0.0096
523.5587	0.013
523.7558	0.0101
523.9528	0.0086
524.1498	-0.0047
524.3468	0.0096
524.5438	0.0185
524.7408	-0.0004
524.9378	0.0129
525.1347	0.0036
525.3316	0.003
525.5285	0.0075
525.7254	0.0121
525.9223	0.0077
526.1192	0.0063
526.316	0.0071
526.5129	0.0066
526.7097	0.0039
526.9065	0.0086
527.1033	-0.0012
527.3	0.0106
527.4968	0.0204
527.6935	0.0036
527.8903	0.0046
528.087	0.0024
528.2837	0.0013
528.4804	0.0068
528.677	0.0048
528.8737	0.0095
529.0703	0.0061
529.2669	0.0165
529.4635	0.0032
529.6601	-0.0029
529.8567	0.002
530.0532	0.0089
530.2498	0.0042
530.4463	0.0006
530.6428	0.0014
530.8393	0.0156
531.0358	0.0104
531.2322	0.0037
531.4287	0.0089
531.6251	-0.0008
531.8215	0.0132
532.0179	0.0157
532.2143	0.0098
532.4107	0.0116
532.607	0.0099
532.8034	-0.0027
532.9997	0.0024
533.196	0.006
533.3923	0.0128
533.5886	0.0088
533.7848	0.0079
533.9811	0.014
534.1773	0.0078
534.3735	0.0093
534.5697	0.0094
534.7659	0.0083
534.9621	0.0103
535.1582	0.01
535.3544	0.0132
535.5505	0.01
535.7466	0.0074
535.9427	0.0063
536.1387	0.0093
536.3348	0.0134
536.5308	0.0037
536.7269	0.0075
536.9229	0.0051
537.1189	0.0218
537.3148	0.0071
537.5108	0.0102
537.7068	0.0133
537.9027	0.0016
538.0986	0.007
538.2945	0.0025
538.4904	0.0044
538.6863	-0.0002
538.8821	0.0172
539.078	0.0034
539.2738	0.0158
539.4696	0.0016
539.6654	0.0095
539.8611	0.0028
540.0569	0.0101
540.2526	0.0124
540.4484	0.0087
540.6441	0.0081
540.8398	0.0143
541.0355	0.0007
541.2311	0.0032
541.4268	0.0195
541.6224	0.0198
541.818	0.0076
542.0136	0.0173
542.2092	0.012
542.4048	0.011
542.6003	0.0025
542.7959	0.0049
542.9914	0.0091
543.1869	0.0031
543.3824	0.0079
543.5779	0.0093
543.7734	0.0206
543.9688	0.0164
544.1642	0.0036
544.3596	0.0078
544.555	0.0097
544.7504	0.0228
544.9458	0.0128
545.1411	-0.0008
545.3365	0.0121
545.5318	0.0104
545.7271	0.0107
545.9224	0.0063
546.1177	0.0064
546.3129	0.0022
546.5081	0.011
546.7034	0.011
546.8986	0.0115
547.0938	0.0138
547.289	0.017
547.4841	0.0056
547.6793	0.0085
547.8744	0.0124
548.0695	0.0096
548.2646	0.0049
548.4597	0.0145
548.6548	0.0207
548.8498	0.0129
549.0448	0.0143
549.2399	0.0182
549.4349	0.0089
549.6298	0.0094
549.8248	0.0022
550.0198	0.0143
550.2147	0.01
550.4096	0.0076
550.6045	0.0079
550.7994	0.0112
550.9943	0.0156
551.1892	-0.0095
551.384	0.0157
551.5788	0.0142
551.7737	0.01
551.9685	0.0077
552.1632	-0.0002
552.358	0.0141
552.5528	0.0014
552.7475	0.0067
552.9422	0.008
553.1369	0.02
553.3316	0.0139
553.5263	0.0192
553.7209	0.0081
553.9156	0.0169
554.1102	0.0136
554.3048	0.0096
554.4994	0.0121
554.694	0.0145
554.8885	0.0151
555.0831	0.0052
555.2776	0.0064
555.4721	-0.001
555.6666	0.0123
555.8611	0.0075
556.0555	0.0107
556.25	0.0116
556.4444	0.0114
556.6388	0.0042
556.8332	0.0042
557.0276	0.0171
557.222	-0.0023
557.4163	0.0072
557.6107	0.0113
557.805	0.0027
557.9993	0.0135
558.1936	0.0083
558.3879	0.0161
558.5821	0.01
558.7764	-0.0005
558.9706	0.0004
559.1648	0.0143
559.359	-0.0051
559.5532	0.0051
559.7473	-0.0004
559.9415	0.0077
560.1356	0.0227
560.3297	0.0055
560.5238	0.016
560.7179	0.0103
560.9119	0.008
561.106	0.0029
561.3	0.0031
561.494	-0.0022
561.688	0.0048
561.882	0.0042
562.076	0.0101
562.2699	0.0185
562.4639	0.0132
562.6578	0.0181
562.8517	0.0094
563.0456	0.0054
563.2395	0.0181
563.4333	0.0044
563.6272	0.0025
563.821	0.0073
564.0148	-0.0011
564.2086	0.0058
564.4024	0.0132
564.5961	0.0097
564.7899	0.011
564.9836	0.0115
565.1773	0.011
565.371	0.0055
565.5647	0.0093
565.7584	0.0171
565.952	0.0075
566.1456	0.0121
566.3393	0.01
566.5329	0.0034
566.7264	0.0072
566.92	0.0035
567.1136	0.0035
567.3071	-0.0005
567.5006	0.0153
567.6941	0.0094
567.8876	0.0051
568.0811	0.026
568.2745	0.0001
568.468	0.011
568.6614	0.0178
568.8548	0.0057
569.0482	0.0076
569.2416	0.0094
569.4349	0.0124
569.6283	0.0075
569.8216	0.0128
570.0149	0.0075
570.2082	0.0151
570.4015	0.008
570.5947	0.0134
570.788	0.0095
570.9812	0.0043
571.1744	0.0104
571.3676	0.0116
571.5608	0.0068
571.754	0.0119
571.9471	0.0187
572.1402	0.0096
572.3333	0.0107
572.5264	0.0084
572.7195	-0.0016
572.9126	0.0086
573.1057	0.009
573.2987	0.0097
573.4917	0.0061
573.6847	0.0062
573.8777	0.0118
574.0707	0.0096
574.2636	0.0093
574.4566	0.0063
574.6495	0.0048
574.8424	0.0096
575.0353	0.0083
575.2281	0.0102
575.421	0.0099
575.6138	0.0061
575.8067	0.0104
575.9995	0.0096
576.1923	0.0094
576.385	0.0117
576.5778	0.0151
576.7706	0.0096
576.9633	0.0114
577.156	0.0005
577.3487	0.0082
577.5414	0.0049
577.734	0.0049
577.9267	0.0134
578.1193	0.0069
578.3119	0.0087
578.5045	0.0058
578.6971	0.0073
578.8897	0.0031
579.0822	0.0139
579.2747	0.0038
579.4673	0.0069
579.6598	0.0131
579.8522	0.0056
580.0447	0.0093
580.2372	0.0176
580.4296	0.0118
580.622	0.0046
580.8144	0.0096
581.0068	0.0066
581.1992	0.0085
581.3915	0.0014
581.5839	0.0086
581.7762	0.0063
581.9685	0.0077
582.1608	0.0079
582.353	0.0081
582.5453	0.0091
582.7375	0.0119
582.9298	0.0019
583.122	0.0065
583.3142	0.0123
583.5063	0.0052
583.6985	0.0051
583.8906	0.0056
584.0827	0.0092
584.2749	0.0091
584.4669	0.0104
584.659	0.0097
584.8511	0.0121
585.0431	0.0085
585.2352	0.0075
585.4272	0.0093
585.6192	0.0069
585.8111	0.0061
586.0031	0.0086
586.195	0.0067
586.387	0.0066
586.5789	0.0097
586.7708	0.0075
586.9627	0.0076
587.1545	0.0082
587.3464	0.0085
587.5382	0.0077
587.73	0.0128
587.9218	0.0052
588.1136	0.0044
588.3053	0.0089
588.4971	0.0089
588.6888	0.0087
588.8805	0.006
589.0722	0.0163
589.2639	0.0089
589.4556	0.011
589.6472	0.0124
589.8389	0.0049
590.0305	0.0065
590.2221	0.0119
590.4137	0.0081
590.6052	0.004
590.7968	0.0044
590.9883	0.0047
591.1798	0.0091
591.3713	0.0046
591.5628	0.0094
591.7543	0.0054
591.9458	0.0084
592.1372	0.0105
592.3286	0.0053
592.52	0.0088
592.7114	0.0107
592.9028	0.0089
593.0941	0.0089
593.2855	0.0124
593.4768	0.0125
593.6681	0.0123
593.8594	0.0124
594.0506	0.0057
594.2419	0.0106
594.4331	0.0103
594.6244	-0.0002
594.8156	0.0098
595.0067	0.0053
595.1979	0.0055
595.3891	0.0061
595.5802	0.0091
595.7713	0.0104
595.9624	0.012
596.1535	0.0135
596.3446	0.0051
596.5357	0.0055
596.7267	0.0119
596.9177	0.0086
597.1087	0.0056
597.2997	0.0074
597.4907	0.0021
597.6817	0.0115
597.8726	0.0088
598.0635	0.0023
598.2544	0.0055
598.4453	0.013
598.6362	0.0062
598.827	0.007
599.0179	0.0092
599.2087	0.0093
599.3995	0.0081
599.5903	0.0139
599.7811	0.0115
599.9718	0.0056
600.1626	0.0088
600.3533	0.0029
600.544	0.0073
600.7347	0.0068
600.9254	0.0148
601.116	0.0093
601.3067	0.0079
601.4973	0.0141
601.6879	0.0079
601.8785	0.0131
602.0691	0.0061
602.2596	0.0089
602.4502	0.0053
602.6407	0.0067
602.8312	0.0072
603.0217	0.012
603.2122	0.0025
603.4027	0.005
603.5931	0.0084
603.7835	0.0119
603.9739	0.0032
604.1643	0.0107
604.3547	0.0134
604.5451	0.0124
604.7354	0.0041
604.9257	0.0038
605.116	0.0063
605.3063	0.005
605.4966	0.005
605.6869	0.0094
605.8771	0.0109
606.0673	0.0099
606.2575	0.0092
606.4477	0.0106
606.6379	0.006
606.8281	0.011
607.0182	0.0049
607.2083	0.0084
607.3985	0.0114
607.5885	0.0112
607.7786	0.0139
607.9687	0.0084
608.1587	0.0123
608.3488	0.0121
608.5388	0.0044
608.7288	-0.002
608.9187	0.0115
609.1087	0.0114
609.2986	0.012
609.4886	0.0074
609.6785	0.007
609.8684	0.0036
610.0582	0.004
610.2481	0.0045
610.4379	0.0145
610.6278	0.0088
610.8176	0.0123
611.0074	0.0129
611.1971	0.003
611.3869	0.0056
611.5766	-0.0009
611.7664	0.014
611.9561	0.0128
612.1458	0.0086
612.3354	0.012
612.5251	0.0098
612.7147	0.0107
612.9044	0.0039
613.094	0.0069
613.2836	0.0032
613.4731	0.0048
613.6627	0.0084
613.8522	0.0119
614.0417	0.0187
614.2313	0.0016
614.4207	0.0129
614.6102	0.0124
614.7997	0.0098
614.9891	0.0117
615.1785	0.0007
615.3679	0.0119
615.5573	0.0019
615.7467	0.0041
615.9361	0.0091
616.1254	0.016
616.3147	0.0074
616.504	0.0089
616.6933	0.0031
616.8826	0.004
617.0718	0.0111
617.2611	0.0001
617.4503	0.008
617.6395	0.0067
617.8287	0.015
618.0179	-0.0003
618.207	0.0149
618.3961	0.0039
618.5853	0.0025
618.7744	0.0087
618.9634	0.0128
619.1525	0.0079
619.3416	-0.0046
619.5306	0.0173
619.7196	0.0097
619.9086	0.012
620.0976	0.0015
620.2866	0.0088
620.4755	0.0017
620.6645	0.0037
620.8534	0.0159
621.0423	0.0005
621.2312	0.0069
621.42	0.0082
621.6089	0.0009
621.7977	0.0085
621.9865	0.0052
622.1753	-0.0024
622.3641	0.0094
622.5529	0.0123
622.7416	0.0108
622.9303	0.0012
623.1191	0.0124
623.3078	0.01
623.4964	0.0163
623.6851	0.018
623.8737	0.001
624.0624	-0.003
624.251	0.008
624.4396	0.0067
624.6282	0.0128
624.8167	0.0088
625.0053	0.0148
625.1938	0.006
625.3823	0.0053
625.5708	0.0052
625.7593	0.0047
625.9477	0.0074
626.1362	-0.0003
626.3246	0.0123
626.513	0.0127
626.7014	0.0134
626.8898	0.0185
627.0781	0.0089
627.2665	0.0195
627.4548	-0.0028
627.6431	0.0125
627.8314	0.0208
628.0197	0.0137
628.2079	0.007
628.3962	0.0079
628.5844	0.0082
628.7726	0.0016
628.9608	0.0071
629.1489	0.007
629.3371	0.0013
629.5252	0.0153
629.7134	0.0059
629.9015	0.0103
630.0895	-0.0087
630.2776	0.0128
630.4657	0.0145
630.6537	0.0153
630.8417	-0.0032
631.0297	-0.0025
631.2177	0.0111
631.4057	-0
631.5936	0.0014
631.7815	0.009
631.9695	0.0225
632.1574	0.0224
632.3452	0.0132
632.5331	0.0197
632.7209	0.0219
632.9088	0.0036
633.0966	0.0218
633.2844	0.0128
633.4722	0.0172
633.6599	0.021
633.8477	0.0222
634.0354	0.0188
634.2231	-0.0132
634.4108	0.0116
634.5985	0.0179
634.7861	-0.0028
634.9738	-0.0095
635.1614	0.002
635.349	0.0092
635.5366	0.0201
635.7242	0.0219
635.9117	0.0151
636.0993	0.0086
636.2868	0.0021
636.4743	0.0107
636.6618	-0.0091
636.8492	0.0013
637.0367	0.0079
637.2241	0.0118
637.4115	0.0347
637.5989	-0.0037
637.7863	0.0197
637.9737	-0.0077
638.161	0.0143
638.3484	-0.001
638.5357	0.0076
638.723	0.0133
638.9103	-0.0111
639.0975	0.0135
639.2848	0.0152
639.472	0.0164
639.6592	-0.0133
639.8464	0.0025
640.0336	0.0046
640.2208	-0.0049
640.4079	0.0075
640.595	0.021
640.7821	0.0229
640.9692	0.0019
641.1563	0.0006
641.3434	0.0154
641.5304	0.0172
641.7174	0.0309
641.9044	0.0132
642.0914	0.0203
642.2784	0.0043
642.4653	-0.0039
642.6523	0.0102
642.8392	0.0029
643.0261	0.0261
643.213	-0.0004
643.3999	0.0178
643.5867	0.0103
643.7735	-0.0024
643.9604	0.0127
644.1472	0.0157
644.3339	0.0095
644.5207	-0.003
644.7075	0.022
644.8942	-0.0002
645.0809	0.0102
645.2676	-0.0137
645.4543	0.0034
645.6409	0.0268
645.8276	0.0027
646.0142	0.0153
646.2008	0.0224
646.3874	-0.0071
646.574	-0.002
646.7605	0.0146
646.9471	0.0058
647.1336	-0.0071
647.3201	0.0074
647.5066	0.0091
647.6931	0.0128
647.8795	0.0034
648.0659	0.0101
648.2524	0.0087
648.4388	0.0123
648.6252	0.0207
648.8115	-0.006
648.9979	0.0182
649.1842	0.0066
649.3705	0.0151
649.5568	-0.0086
649.7431	-0.0066
649.9294	-0.0018
650.1156	-0.0209
650.3018	0.0203
650.488	0.0098
650.6742	0.0223
650.8604	0.0169
651.0466	0.0032
651.2327	0.0023
651.4188	0.0048
651.6049	0.0217
651.791	0.0255
651.9771	0.0054
652.1632	0.0024
652.3492	0.0083
652.5352	0.0338
652.7212	0.0022
652.9072	-0.0073
653.0932	0.0227
653.2791	0.0148
653.465	0.0269
653.651	0.0064
653.8369	0.0128
654.0227	-0.0082
654.2086	0.0046
654.3944	0.0048
654.5803	0.0047
654.7661	0.0076
654.9519	-0.0005
655.1377	-0
655.3234	-0
655.5092	-0
655.6949	-0
655.8806	-0
656.0663	-0
656.2519	-0
656.4376	-0
656.6232	-0
656.8088	-0
656.9945	-0
657.18	-0
657.3656	-0
657.5511	-0
657.7367	-0
657.9222	-0
658.1077	-0
658.2932	-0
658.4786	-0
658.6641	-0
658.8495	-0
659.0349	-0
659.2203	-0
659.4057	0.0125
659.591	0.2649
659.7764	0.034
659.9617	0.0105
660.147	0.0068
660.3323	0.0207
660.5176	0.0031
660.7028	-0.008
660.888	0.0136
661.0733	0.0227
661.2585	0.0037
661.4436	0.0113
661.6288	0.0104
661.8139	0.0045
661.9991	-0.0036
662.1842	0.0131
662.3693	0.0206
662.5544	-0.0023
662.7394	0.0128
662.9245	0.0117
663.1095	-0.0237
663.2945	-0.0092
663.4795	-0.0005
663.6644	0.0077
663.8494	0.0126
664.0343	0.0088
664.2193	-0.0042
664.4042	0.0062
664.589	0.0119
664.7739	0.0291
664.9587	-0.0039
665.1436	-0.0123
665.3284	0.0073
665.5132	-0.0147
665.698	0.0155
665.8827	0.0088
666.0675	-0.0239
666.2522	0.0037
666.4369	0.0066
666.6216	0.0113
666.8063	0.0065
666.9909	-0.008
667.1756	0.0063
667.3602	0.0069
667.5448	0.0206
667.7294	0.0377
667.9139	-0.016
668.0985	0.0103
668.283	-0.0071
668.4675	0.0336
668.652	0.0225
668.8365	0.0138
669.0209	0.0137
669.2054	0.0172
669.3898	0.0148
669.5742	0.0135
669.7586	0.0009
669.943	0.0136
670.1273	-0.0047
670.3117	0.0296
670.496	-0.0035
670.6803	-0.0124
670.8646	-0.0264
671.0488	0.0185
671.2331	-0.0056
671.4173	0.0064
671.6015	0.009
671.7857	0.007
671.9699	0.03
672.1541	-0.0037
672.3382	0.0084
672.5223	0.0067
672.7064	-0.0035
672.8905	-0.0075
673.0746	0.0276
673.2587	0.0107
673.4427	0.0095
673.6267	0.0167
673.8107	0.021
673.9947	0.0104
674.1787	0.0123
674.3626	0.0309
674.5465	0.0061
674.7304	0.0099
674.9143	-0.0098
675.0982	0.0003
675.2821	0.0258
675.4659	-0.0089
675.6497	0.0253
675.8335	-0.0006
676.0173	0.0056
676.2011	0.0334
676.3849	0.0221
676.5686	0.025
676.7523	-0.0104
676.936	0.0256
677.1197	0.0025
677.3034	0.0423
677.487	-0.0072
677.6706	0.017
677.8542	0.0079
678.0378	0.0036
678.2214	0.0058
678.405	0.0124
678.5885	0.0142
678.772	0.0131
678.9555	-0.0042
679.139	0.0094
679.3225	0.0044
679.5059	0.012
679.6894	-0.0017
679.8728	-0.0123
680.0562	0.008
680.2395	-0.0014
680.4229	-0.001
680.6062	0.0058
680.7896	-0.0139
680.9729	0.0199
681.1562	-0.0005
681.3394	0.0075
681.5227	0.0164
681.7059	0.0116
681.8891	0.0043
682.0723	0.0059
682.2555	0.0012
682.4387	0.0157
682.6218	0.0161
682.805	0.0131
682.9881	0.0297
683.1712	0.0044
683.3542	0.0196
683.5373	-0.0019
683.7203	0.011
683.9034	-0.0022
684.0864	-0.0059
684.2694	-0.008
684.4523	0.0177
684.6353	0.003
684.8182	0.0062
685.0011	0.0311
685.184	-0.008
685.3669	0.0136
685.5498	-0.002
685.7326	0.008
685.9154	0.003
686.0982	0.0119
686.281	-0.0112
686.4638	0.0167
686.6465	0.0075
686.8293	0.0015
687.012	0.0143
687.1947	0.0209
687.3774	0.01
687.56	-0.0012
687.7427	0.0032
687.9253	-0.0252
688.1079	-0.0108
688.2905	-0.0084
688.4731	0.0172
688.6556	-0.0025
688.8382	-0.0242
689.0207	0.0008
689.2032	0.0127
689.3857	-0.0122
689.5681	0.0047
689.7506	0.0386
689.933	0.0125
690.1154	0.0138
690.2978	0.0124
690.4802	0.0046
690.6626	0.0048
690.8449	0.0194
691.0272	0.0112
691.2095	-0.0046
691.3918	0.002
691.5741	0.0151
691.7563	0.0161
691.9386	0.0196
692.1208	0.0257
692.303	0.0015
692.4852	0.0101
692.6673	0.0042
692.8495	0.0066
693.0316	-0
693.2137	0.0256
693.3958	-0
693.5778	0.0083
693.7599	0.0066
693.9419	0.0003
694.1239	0.0121
694.3059	0.022
694.4879	0.0022
694.6699	0.0008
694.8518	0.004
695.0337	0.0027
695.2157	0.018
695.3975	-0.0113
695.5794	-0.0207
695.7613	0.0072
695.9431	-0.0047
696.1249	0.0069
696.3067	0.0029
696.4885	0.0109
696.6703	0.0077
696.852	-0.0021
697.0337	0.0044
697.2154	0.0049
697.3971	0.0147
697.5788	0.0169
697.7605	-0.0128
697.9421	0.0183
698.1237	0.0153
698.3053	-0.0149
698.4869	0.013
698.6685	-0.0095
698.85	0.028
699.0315	-0.0059
699.213	0.0015
699.3945	-0.0104
699.576	0.0255
699.7575	0.0372
699.9389	-0.0023
700.1203	0.015
700.3017	-0.0225
700.4831	0.0204
700.6645	0.0352
700.8458	-0.0024
701.0271	0.024
701.2084	0.0241
701.3897	-0.0015
701.571	-0.0192
701.7523	0.0098
701.9335	0.0164
702.1147	0.0364
702.2959	0.0071
702.4771	0.0021
702.6583	0.0041
702.8394	-0.0057
703.0205	0.0213
703.2016	-0.0054
703.3827	0.0035
703.5638	0.0107
703.7449	0.0221
703.9259	0.0099
704.1069	-0.0073
704.2879	-0.0027
704.4689	-0.0193
704.6499	0.0316
704.8308	0.0127
705.0117	0.0072
705.1927	0.0059
705.3735	0.0097
705.5544	-0.0004
705.7353	0.0042
705.9161	0.0022
706.0969	0.0096
706.2777	0.0093
706.4585	0.0021
706.6393	0.0281
706.82	0.0072
707.0007	0.011
707.1815	-0.0004
707.3621	0.0284
707.5428	0.0316
707.7235	-0.002
707.9041	0.0184
708.0847	0.0052
708.2653	0.0267
708.4459	0.0024
708.6265	-0.0238
708.807	-0.0169
708.9875	-0.0062
709.168	0.0046
709.3485	0.0235
709.529	0.0039
709.7095	-0.0149
709.8899	-0.0052
710.0703	0.0126
710.2507	0.0009
710.4311	-0.0228
710.6115	-0.0089
710.7918	0.0267
710.9721	0.0003
711.1524	-0.0188
711.3327	-0.034
711.513	-0.0099
711.6932	-0.005
711.8735	0.0089
712.0537	-0.002
712.2339	0.0057
712.4141	-0.003
712.5942	0.0026
712.7744	0.0244
712.9545	0.0074
713.1346	0.0463
713.3147	0.0059
713.4947	-0.0055
713.6748	0.0061
713.8548	0.0259
714.0348	0.0289
714.2148	-0.0008
714.3948	0.0385
714.5748	-0.0043
714.7547	0.0147
714.9346	0.0205
715.1145	0.0193
715.2944	-0.0171
715.4743	0.0162
715.6541	-0.0127
715.834	0.0259
716.0138	-0
716.1936	0.0173
716.3733	0.0061
716.5531	-0.0085
716.7328	0.0367
716.9126	-0.0075
717.0923	-0.0347
717.2719	0.0181
717.4516	0.041
717.6312	-0.0106
717.8109	0.0326
717.9905	0.0189
718.1701	0.028
718.3496	-0.0047
718.5292	0.0008
718.7087	0.0187
718.8882	0.034
719.0677	0.0007
719.2472	0.0047
719.4267	0.0052
719.6061	-0.0156
719.7856	0.0445
719.965	-0.0034
720.1443	-0.0108
720.3237	-0
720.5031	0.0054
720.6824	0.0291
720.8617	0.0306
721.041	0.0103
721.2203	-0.0247
721.3995	-0.0143
721.5788	-0.0078
721.758	0.0226
721.9372	-0.0064
722.1164	-0.0156
722.2956	0.0152
722.4747	-0.0048
722.6538	0.0103
722.8329	0.01
723.012	0.0129
723.1911	0.0051
723.3702	0.0109
723.5492	0.0013
723.7282	0.0166
723.9072	0.0227
724.0862	0.0206
724.2652	0.0153
724.4441	0.0099
724.623	-0.0089
724.8019	-0.0046
724.9808	-0.0024
725.1597	-0.0084
725.3385	0.0155
725.5174	-0.001
725.6962	0.002
725.875	0.0217
726.0538	0.0166
726.2325	0.0306
726.4112	-0.0208
726.59	-0.0122
726.7687	-0.0276
726.9474	0.0169
727.126	0.0214
727.3047	0.0112
727.4833	0.0087
727.6619	-0.0182
727.8405	0.0079
728.0191	0.007
728.1976	0.0046
728.3762	0.0168
728.5547	0.0122
728.7332	0.0028
728.9116	0.001
729.0901	0.0137
729.2686	0.0167
729.447	0.0051
729.6254	-0.0053
729.8038	0.0223
729.9821	-0.0106
730.1605	0.0131
730.3388	-0.0044
730.5171	0.0282
730.6954	0.001
730.8737	-0.001
731.0519	0.0111
731.2302	0.022
731.4084	-0.0066
731.5866	0.0097
731.7648	0.0082
731.9429	0.0217
732.1211	-0.0003
732.2992	-0.0122
732.4773	0.0254
732.6554	-0.0109
732.8335	0.0164
733.0115	0.0016
733.1896	-0.0173
733.3676	0.0189
733.5456	0.0101
733.7235	-0.0038
733.9015	0.015
734.0794	-0.005
734.2574	-0.0157
734.4353	0.0237
734.6131	0.0065
734.791	-0.0031
734.9689	-0.0112
735.1467	-0.0139
735.3245	0.0225
735.5023	0.0171
735.68	0.0139
735.8578	0.015
736.0355	-0.0011
736.2132	0.0107
736.3909	0.0102
736.5686	-0.0289
736.7463	-0.0011
736.9239	0.0161
737.1015	0.0056
737.2791	-0.0113
737.4567	0.026
737.6343	0.0149
737.8118	0.034
737.9894	-0.0111
738.1669	0.018
738.3444	0.0196
738.5218	-0.0043
738.6993	0.0187
738.8767	-0.0017
739.0541	0.0147
739.2315	-0.005
739.4089	0.0312
739.5863	0.008
739.7636	-0.0099
739.9409	0.0133
740.1182	0.0253
740.2955	0.026
740.4728	0.0052
740.65	-0.0174
740.8272	-0.0005
741.0044	0.0027
741.1816	0.0403
741.3588	-0.0257
741.5359	-0.0118
741.7131	-0.0194
741.8902	0.0008
742.0673	-0.0114
742.2444	0.0159
742.4214	0.0358
742.5985	0.017
742.7755	0.0061
742.9525	-0.0174
743.1295	-0.0235
743.3064	-0.0213
743.4834	0.0198
743.6603	0.0447
743.8372	-0.0591
744.0141	0.0217
744.191	0.0361
744.3678	-0.0182
744.5446	0.0147
744.7215	0.0036
744.8982	-0.005
745.075	0.053
745.2518	0.0204
745.4285	0.0278
745.6052	-0.015
745.7819	-0.0005
745.9586	-0.0237
746.1353	-0.0422
746.3119	0.0109
746.4885	0.0008
746.6651	0.0096
746.8417	0.0172
747.0183	0.0268
747.1948	-0.0115
747.3714	0.0163
747.5479	0.0082
747.7244	-0.03
747.9008	0.047
748.0773	0.0251
748.2537	0.0356
748.4301	0.0113
748.6065	-0.0018
748.7829	-0.0255
748.9593	0.0061
749.1356	0.0048
749.3119	0.0149
749.4882	0.0257
749.6645	0.0094
749.8408	0.0112
750.017	0.0155
750.1933	-0.0211
750.3695	0.0059
750.5457	-0.0024
750.7218	-0.0054
750.898	-0.0254
751.0741	0.0042
751.2502	0.015
751.4263	0.0038
751.6024	-0.0121
751.7784	-0.0042
751.9545	-0.0102
752.1305	0.0119
752.3065	0.0203
752.4825	0.0146
752.6584	-0.0035
752.8344	0.0131
753.0103	0.0043
753.1862	0.0177
753.3621	-0.0062
753.5379	-0.0076
753.7138	0.0261
753.8896	0.0132
754.0654	0.004
754.2412	0.0424
754.417	0.0167
754.5927	0.0191
754.7685	0.0228
754.9442	0.0282
755.1199	0.0055
755.2956	0.0157
755.4712	0.0185
755.6469	-0.0017
755.8225	0.0258
755.9981	0.0196
756.1736	-0.01
756.3492	0.0103
756.5248	0.0175
756.7003	-0.0022
756.8758	-0.0047
757.0513	0.0126
757.2267	0.0178
757.4022	-0.0018
757.5776	0.0004
757.753	0.0121
757.9284	0.0167
758.1038	-0.0025
758.2791	0.014
758.4545	0.0117
758.6298	0.0051
758.8051	0.0114
758.9803	0.0091
759.1556	0.0009
759.3308	0.0002
759.506	0.0069
759.6812	0.0121
759.8564	0.0089
760.0316	-0.0018
760.2067	0.0282
760.3819	-0.0082
760.557	0.0006
760.732	0.0077
760.9071	0.0271
761.0821	-0.011
761.2572	0.0207
761.4322	0.0138
761.6072	-0.0027
761.7821	-0.0011
761.9571	0.0138
762.132	0.0171
762.3069	0.0197
762.4818	0.0222
762.6567	0.0077
762.8316	0.0184
763.0064	0.0159
763.1812	-0.0007
763.356	-0.0004
763.5308	0.0292
763.7055	0.0009
763.8803	-0.0011
764.055	0.0072
764.2297	-0.0035
764.4044	0.0049
764.579	0.0079
764.7537	0.0131
764.9283	0.0185
765.1029	-0.0113
765.2775	-0.0031
765.4521	-0
765.6266	0.0297
765.8011	0.0034
765.9756	0.0139
766.1501	0.0292
766.3246	0.0276
766.4991	0.0242
766.6735	0.0159
766.8479	-0.0308
767.0223	0.0466
767.1967	-0.0161
767.371	0.0282
767.5454	0.0167
767.7197	0.0147
767.894	-0.0143
768.0683	0.0221
768.2425	-0.0056
768.4168	0.0177
768.591	0.0186
768.7652	-0.0202
768.9394	-0.0077
769.1135	-0.0073
769.2877	-0.0013
769.4618	0.0094
769.6359	-0.0115
769.81	0.0288
769.984	0.0072
770.1581	0.0187
770.3321	0.0309
770.5061	-0.0206
770.6801	-0.0089
770.8541	0.0126
771.028	0.0439
771.202	0.0242
771.3759	0.0054
771.5498	-0.0008
771.7236	0.0095
771.8975	0.0466
772.0713	-0.0023
772.2451	-0.0087
772.4189	0.001
772.5927	-0.0216
772.7665	0.0005
772.9402	0.0133
773.1139	0.0089
773.2876	-0.0215
773.4613	0.0482
773.635	0.0391
773.8086	0.0068
773.9822	0.0091
774.1558	0.0366
774.3294	-0.0302
774.503	-0.0055
774.6765	0.0274
774.8501	0.0111
775.0236	0.0732
775.1971	0.0156
775.3705	-0.0054
775.544	-0.0205
775.7174	0.0296
775.8908	0.0279
776.0642	0.0008
776.2376	0.0178
776.4109	-0.0051
776.5843	0.008
776.7576	0.0288
776.9309	0.011
777.1041	0.0063
777.2774	-0.0017
777.4506	-0.0176
777.6238	0.0089
777.797	0.0128
777.9702	0.0013
778.1434	0.01
778.3165	-0.0269
778.4896	-0.0359
778.6627	0.0085
778.8358	-0.0214
779.0089	-0.0066
779.1819	0.034
779.3549	0.0238
779.5279	-0.0319
779.7009	0.0583
779.8739	0.0385
780.0468	-0.0391
780.2197	0.006
780.3926	-0.0315
780.5655	0.0069
780.7384	0.0057
780.9112	0.0038
781.0841	0.0155
781.2569	0.0356
781.4297	0.0306
781.6024	0.0214
781.7752	0.0483
781.9479	0.0302
782.1206	0.0244
782.2933	0.015
782.466	0.0141
782.6386	-0.0325
782.8113	-0.0165
782.9839	0.0065
783.1565	0.0343
783.329	0.0117
783.5016	-0.0028
783.6741	-0.0197
783.8466	0.0461
784.0191	0.016
784.1916	0.0024
784.3641	-0.0556
784.5365	0.0187
784.7089	-0.0383
784.8813	0.0337
785.0537	0.0175
785.2261	-0.0066
785.3984	-0.0089
785.5707	0.0235
785.743	0.0604
785.9153	-0.0124
786.0876	0.01
786.2598	-0.0317
786.432	0.0045
786.6042	0.0205
786.7764	-0.0008
786.9486	0.0049
787.1207	0.0545
787.2928	0.0638
787.4649	0.0165
787.637	0.0162
787.8091	0.0119
787.9811	0.0134
788.1532	0.0122
788.3252	0.0076
788.4972	-0.006
788.6691	0.0185
788.8411	-0.033
789.013	0.0082
789.1849	0.0641
789.3568	0.016
789.5287	0.0551
789.7005	-0.0292
789.8723	0.0038
790.0442	0.0214
790.2159	-0.0092
790.3877	0.0713
790.5595	0.0471
790.7312	-0.0243
790.9029	0.0167
791.0746	0.0173
791.2463	-0.0607
791.4179	0.0216
791.5896	0.0306
791.7612	0.1046
791.9328	-0.0312
792.1044	0.0246
792.2759	-0.0413
792.4474	0.019
792.619	0.0023
792.7905	0.0023
792.9619	0.0311
793.1334	0.009
793.3048	0.0561
793.4762	0.0119
793.6476	-0.0464
793.819	-0.0112
793.9904	0.0192
794.1617	0.0152
794.333	0.0129
794.5043	0.0211
794.6756	-0
794.8469	0.0012
795.0181	0.0293
795.1893	0.035
795.3605	0.0323
795.5317	-0.0225
795.7029	0.0034
795.874	0.0009
796.0452	0.0338
796.2163	0.1133
796.3873	0.0462
796.5584	-0.0234
796.7294	-0.0246
796.9005	-0.0073
797.0715	-0.014
797.2425	0.0417
797.4134	0.0932
797.5844	0.0906
797.7553	-0.098
797.9262	0.1345
798.0971	0.0832
798.2679	0.0036
798.4388	0.0303
798.6096	0.0311
798.7804	0.0316
798.9512	0.0047
799.122	0.0091
799.2927	0.1198
799.4635	-0.0608
799.6342	-0.0626
799.8049	-0.0062
799.9755	-0.0403
800.1462	-0.0187
800.3168	0.012
800.4874	-0.096
800.658	0.0418
800.8286	-0.0122
800.9991	0.0259
801.1696	-0.0416
801.3402	-0.0616
801.5106	-0.0552
801.6811	0.0548
801.8516	0.049
802.022	-0.0361
802.1924	-0.0762
802.3628	0.0747
802.5332	0.0513
802.7035	0.0834
802.8739	-0.0354
803.0442	-0.0641
803.2145	0.0167
803.3847	0.0543
803.555	0.0627
803.7252	-0.0341
803.8954	-0.0496
804.0656	0.0281
804.2358	-0.0333
804.4059	0.1165
804.5761	-0.0019
804.7462	-0.0085
804.9163	0.0226
805.0864	-0.0865
805.2564	-0.0112
805.4264	0.0619
805.5965	0.0635
805.7665	0.0551
805.9364	0.0652
806.1064	-0.0205
806.2763	0.0095
806.4462	-0.0128
806.6161	0.0197
806.786	0.0611
806.9559	-0.0039
807.1257	0.0337
807.2955	0.0114
807.4653	0.0613
807.6351	0.0759
807.8048	0.0041
807.9746	-0.0135
808.1443	-0
808.314	-0.0081
808.4837	0.0152
808.6533	-0.0446
808.8229	0.1316
808.9926	-0.0199
809.1622	0.0204
809.3317	-0.0533
809.5013	-0.0707
809.6708	0.0643
809.8403	-0.046
810.0098	-0.0174
810.1793	-0.0144
810.3488	0.0117
810.5182	0.1023
810.6876	0.1144
810.857	0.018
811.0264	-0.0588
811.1958	0.0195
811.3651	0.0742
811.5344	0.0362
811.7037	-0.016
811.873	0.0119
812.0422	-0.0444
812.2115	0.0166
812.3807	-0.2198
812.5499	-0.0693
812.7191	-0.1315
812.8882	-0.0332
813.0574	0.0467
813.2265	-0.034
813.3956	-0.0529
813.5646	0.0767
813.7337	0.0492
813.9027	-0.1318
814.0718	0.0701
814.2407	0.0214
814.4097	0.0638
814.5787	0.0418
814.7476	-0.0086
814.9165	0.0314
815.0854	0.0134
815.2543	-0.0444
815.4232	0.1102
815.592	0.0592
815.7608	-0.2249
815.9296	0.0534
816.0984	0.0483
816.2671	-0.388
816.4359	0.0261
816.6046	0.0092
816.7733	-0.1543
816.942	0.0108
817.1106	0.1392
817.2793	-0.0592
817.4479	-0.0339
817.6165	-0.056
817.785	0.0552
817.9536	-0.0501
818.1221	-0.0122
818.2906	-0.0623
818.4591	0.0251
818.6276	-0.0073
818.7961	0.0725
818.9645	0.0542
819.1329	-0.0042
819.3013	-0.0217
819.4697	-0.0366
819.638	0.366
819.8064	0.0827
819.9747	0.2863
820.143	-0.0522
820.3113	0.0826
820.4795	0.0195
820.6477	0.153
820.816	0.1336
820.9842	0.0524
821.1523	-0.0159
821.3205	0.0749
821.4886	-0.0141
821.6567	-0.0456
821.8248	0.1437
821.9929	-0.1654
822.1609	-0.1417
822.329	0.009
822.497	-0.0121
822.665	0.0232
822.833	-0.0563
823.0009	0.0291
823.1688	0.1443
823.3367	-0.207
823.5046	0.1181
823.6725	0.0236
823.8404	-0.0142
824.0082	0.0483
824.176	0.005
824.3438	0.0568
824.5116	0.1384
824.6793	0.0551
824.847	0.0301
825.0147	-0.0465
825.1824	0.0174
825.3501	0.059
825.5177	-0.027
825.6854	0.1141
825.853	0.044
826.0206	-0.0379
826.1881	0.1254
826.3557	-0.0174
826.5232	0.0462
826.6907	0.0368
826.8582	-0.0168
827.0257	0.2738
827.1931	-0.0109
827.3605	0.0077
827.528	-0.1056
827.6953	-0.1966
827.8627	-0.0895
828.03	0.0978
828.1974	-0.0067
828.3647	-0
828.532	-0.0279
828.6992	0.116
828.8665	-0.2341
829.0337	0.0561
829.2009	-0.0267
829.3681	0.1736
829.5352	-0.2986
829.7024	0.2455
829.8695	0.1021
830.0366	0.1752
830.2037	0.1455
830.3707	0.0157
830.5378	0.0785
830.7048	-0.1172
830.8718	0.1017
831.0388	-0.1437
831.2057	-0.0462
831.3727	-0.0419
831.5396	-0.0282
831.7065	-0.6463
831.8734	0.6786
832.0402	0.114
832.2071	-0.5755
832.3739	-0.0838
832.5407	-2.0828
832.7075	-0.4763
832.8742	0.6732
833.041	0.1579
833.2077	0.1297
833.3744	0.0612
833.541	0.0142
833.7077	-0.1728
833.8743	0.088
834.0409	0.0863
834.2075	0.0607
834.3741	-0.3264
834.5407	-0.0923
834.7072	0.2059
834.8737	0.1497
835.0402	0.0118
835.2067	0.0878
835.3731	-0.0741
835.5395	-0.0145
835.706	-0.1672
835.8723	-0.2181
836.0387	0.6228
836.2051	0.0702
836.3714	0.0663
836.5377	-0.0232
836.704	0.372
836.8703	-0.255
837.0365	-0.5447
837.2027	0.0506
837.3689	0.346
837.5351	0.3254
837.7013	-0.1358
837.8674	-0.5481
838.0335	-0.0203
838.1997	-0.2484
838.3657	0.4337
838.5318	-0.4752
838.6978	-0
838.8639	-0.5977
839.0299	0.0069
839.1958	0.0805
839.3618	0.6945
839.5277	-0.116
839.6937	0.3498
839.8596	-0.215
840.0254	-0.1483
840.1913	-0.1224
840.3571	0.4196
840.523	-0
840.6888	-0.0239
840.8545	0.6096
841.0203	-0.155
841.186	-0.1893
841.3517	0.039
841.5174	0.0871
841.6831	0.4892
841.8488	-0.0698
842.0144	0.0979
842.18	0.0768
842.3456	-0.9399
842.5112	-0
842.6767	0.0453
842.8422	0.3052
843.0077	0.0356
843.1732	-0.0771
843.3387	-0.0845
843.5042	-0
843.6696	-0.3117
843.835	0.1663
844.0004	-0.2929
844.1657	-1.0455
844.3311	-0
844.4964	-0.457
844.6617	-0
844.827	-0
844.9923	0.0569
845.1575	-0.4836
845.3227	-0.2292
845.4879	-0.3384
845.6531	-0.0977
845.8183	0.7976
845.9834	-0
846.1485	0.3357
846.3136	-0.3724
846.4787	1.4378
846.6438	-0
846.8088	0.3474
846.9738	-0.3203
847.1388	0.1107
847.3038	-0.0273
847.4687	-0
847.6337	0.4703
847.7986	-0.1438
847.9635	-0.0505
848.1284	-0
848.2932	-0
848.458	-0
848.6228	-0
848.7876	-0
848.9524	0.0332
849.1172	-1.8424
849.2819	-0.4386
849.4466	0.5413
849.6113	-0.0387
849.7759	-0
849.9406	0.4196
850.1052	0.4337
850.2698	-0
850.4344	-0.6056
850.599	-0.1593
850.7635	0.2185
850.928	-0.0478
851.0925	0.0247
851.257	0.4132
851.4215	0.0948
851.5859	0.3254
851.7503	-0
851.9147	-0
852.0791	0.2045
852.2434	0.0132
852.4078	-0
852.5721	-0.0266
852.7364	0.1334
852.9007	0.0179
853.0649	-0
853.2291	0.3763
853.3934	0.0398
853.5575	0.0237
853.7217	-0
853.8859	-0.4748
854.05	0.1813
854.2141	-0
854.3782	-0.1433
854.5423	0.2205
854.7063	-0.1069
854.8703	0.3197
855.0343	0.1407
855.1983	-0.2714
855.3623	0.4674
855.5262	-0
855.6901	0.1258
855.854	0.1714
856.0179	-0.4261
856.1818	0.5494
856.3456	0.5046
856.5094	-0.6296
856.6732	-0.2876
856.837	-0.6876
857.0008	-0.7252
857.1645	-0.1488
857.3282	-0.3623
857.4919	0.4108
857.6556	0.6908
857.8192	0.0111
857.9828	-0.1887
858.1465	-0
858.31	-0
858.4736	-0.5888
858.6372	-0.3702
858.8007	-0
858.9642	0.4705
859.1277	-0
859.2911	-0.6971
859.4546	-0
859.618	-0
859.7814	-0
859.9448	-0
860.1081	-0
860.2715	-0
860.4348	-0.0603
860.5981	1.3629
860.7614	0.6517
860.9246	-0
861.0879	0.1458
861.2511	-0
861.4143	-0
861.5774	-0.2283
861.7406	0.065
861.9037	-0
862.0668	0.1069
862.2299	-0.1731
862.393	-0
862.556	0.3169
862.7191	-0.4938
862.8821	0.5679
863.0451	-0.0838
863.208	-0
863.371	-0.286
863.5339	0.2072
863.6968	0.3392
863.8597	-0.2319
864.0225	-0
864.1854	-0
864.3482	0.6463
864.511	-0.0439
864.6737	-0
864.8365	-0.087
864.9992	-0
865.1619	-0.1415
865.3246	-0
865.4873	-0
865.65	0.8506
865.8126	-0
865.9752	-0.362
866.1378	0.974
866.3004	0.0155
866.4629	-2.2099
866.6254	0.184
866.7879	-0.2615
866.9504	-0
867.1129	-0.3874
867.2753	0.0225
867.4377	0.122
867.6001	-0
867.7625	-0.1703
867.9249	0.1087
868.0872	-0.0828
868.2495	1.1853
868.4118	-0
868.5741	-0.1994
868.7363	-0.3366
868.8986	-0.1689
869.0608	-0.5837
869.223	-0.4182
869.3851	-0
869.5473	0.2045
869.7094	-0
869.8715	-0
870.0336	-0.0416
870.1957	-0
870.3577	0.126
870.5197	-0.0724
870.6817	-0.681
870.8437	-0.3543
871.0057	0.6527
871.1676	0.3181
871.3295	-0
871.4914	-0
871.6533	-0.5199
871.8151	0.2342
871.977	-0.3335
872.1388	-0.3763
872.3006	-0.3713
872.4623	-0.2454
872.6241	1.8316
872.7858	-0.1009
872.9475	-0
873.1092	-0.1775
873.2709	0.3441
873.4325	-1.6587
873.5941	-0.4816
873.7557	0.0631
873.9173	-0.258
874.0789	0.1489
874.2404	-0
874.4019	-0.0368
874.5634	-0
874.7249	-0
874.8863	0.7074
875.0478	-0
875.2092	0.4229
875.3706	-0
875.5319	-0
875.6933	-0.2185
875.8546	-0
876.0159	0.5076
876.1772	-0.2111
876.3385	0.0951
876.4997	0.0433
876.6609	1.173
876.8221	-0
876.9833	0.2566
877.1445	0.2203
877.3056	-1.1139
877.4667	-0
877.6278	0.3931
877.7889	0.7426
877.9499	-0
878.111	-0.5732
878.272	0.3742
878.433	-0.2566
878.5939	0.1455
878.7549	0.412
878.9158	-0
879.0767	0.1286
879.2376	0.9002
879.3984	0.2548
879.5593	0.4636
879.7201	-0
879.8809	-0.4096
880.0417	-0.0599
880.2024	-0.112
880.3632	-0.6965
880.5239	0.681
880.6846	-0.286
880.8452	-0.1871
881.0059	-0.7517
881.1665	-0.3453
881.3271	-0
881.4877	0.7617
881.6483	-0
881.8088	-0
881.9693	-0
882.1298	-0
882.2903	-0
