Data from D4ACN5uM420nmA_Absorbance_14-37-09-852.txt Node
Date: Fri Feb 21 14:37:09 GMT 2025
User: LASERRRRR
Spectrometer: FLMT03099
Trigger mode: 0
Integration Time (sec): 1.500000E-2
Scans to average: 1
Electric dark correction enabled: true
Nonlinearity correction enabled: false
Boxcar width: 0
XAxis mode: Wavelengths
Number of Pixels in Spectrum: 3648
>>>>>Begin Spectral Data<<<<<
179.3399	-0.5686
179.5586	-0.5686
179.7771	-0.5686
179.9957	-0.3213
180.2143	-0
180.4329	0.2097
180.6514	-0.6325
180.8699	-0
181.0885	0.148
181.307	0.3503
181.5255	0.3801
181.744	-0
181.9625	-0
182.181	-0
182.3994	-0.2327
182.6179	0.2018
182.8363	0.4265
183.0547	0.1051
183.2732	0.1038
183.4916	0.3789
183.71	0.2089
183.9284	0.2987
184.1467	0.3092
184.3651	0.1199
184.5835	0.244
184.8018	0.1594
185.0201	-0.05
185.2385	0.3611
185.4568	0.256
185.6751	0.2017
185.8934	0.0681
186.1117	-0.0514
186.3299	0.2934
186.5482	0.2839
186.7664	0.1952
186.9847	-0.0973
187.2029	0.178
187.4211	0.3212
187.6393	0.1438
187.8575	0.2952
188.0757	0.696
188.2939	-0.0207
188.512	0.3932
188.7302	0.1575
188.9483	0.2223
189.1665	0.2739
189.3846	0.3463
189.6027	0.081
189.8208	0.28
190.0389	0.1263
190.257	0.1025
190.475	0.1268
190.6931	0.1073
190.9111	0.0418
191.1292	0.0713
191.3472	0.1421
191.5652	0.2428
191.7832	0.1922
192.0012	0.1305
192.2192	0.2373
192.4371	0.1675
192.6551	0.1769
192.873	0.1595
193.091	0.1724
193.3089	0.1668
193.5268	0.2146
193.7447	0.2538
193.9626	0.2279
194.1805	0.1504
194.3984	0.287
194.6162	0.3829
194.8341	0.2609
195.0519	0.267
195.2697	0.2706
195.4875	0.2678
195.7054	0.2786
195.9231	0.2368
196.1409	0.3332
196.3587	0.2653
196.5765	0.3388
196.7942	0.3719
197.012	0.2926
197.2297	0.2549
197.4474	0.3773
197.6651	0.3137
197.8828	0.3083
198.1005	0.3727
198.3182	0.3796
198.5358	0.4372
198.7535	0.363
198.9711	0.3473
199.1888	0.3033
199.4064	0.3837
199.624	0.386
199.8416	0.3659
200.0592	0.3993
200.2767	0.3936
200.4943	0.3947
200.7119	0.3944
200.9294	0.3994
201.1469	0.4376
201.3645	0.4107
201.582	0.3774
201.7995	0.45
202.017	0.3624
202.2344	0.4371
202.4519	0.4094
202.6694	0.3856
202.8868	0.3805
203.1042	0.427
203.3217	0.4154
203.5391	0.3712
203.7565	0.3608
203.9739	0.4
204.1913	0.364
204.4086	0.355
204.626	0.3597
204.8433	0.381
205.0607	0.3526
205.278	0.3887
205.4953	0.3276
205.7126	0.3474
205.9299	0.315
206.1472	0.3298
206.3644	0.2997
206.5817	0.3198
206.7989	0.3112
207.0162	0.312
207.2334	0.3405
207.4506	0.2999
207.6678	0.2831
207.885	0.2742
208.1022	0.2858
208.3194	0.2906
208.5365	0.2914
208.7537	0.2835
208.9708	0.2926
209.1879	0.2839
209.405	0.2782
209.6222	0.2693
209.8392	0.297
210.0563	0.2841
210.2734	0.2533
210.4905	0.2578
210.7075	0.2796
210.9245	0.2712
211.1416	0.2469
211.3586	0.2471
211.5756	0.2335
211.7926	0.2832
212.0096	0.2495
212.2265	0.2299
212.4435	0.2443
212.6604	0.2508
212.8774	0.2337
213.0943	0.2408
213.3112	0.2419
213.5281	0.2345
213.745	0.2248
213.9619	0.2195
214.1788	0.2517
214.3956	0.2405
214.6125	0.2259
214.8293	0.2499
215.0461	0.2377
215.2629	0.2428
215.4798	0.2321
215.6965	0.2208
215.9133	0.2335
216.1301	0.235
216.3469	0.2402
216.5636	0.2311
216.7803	0.2384
216.9971	0.2305
217.2138	0.2393
217.4305	0.2347
217.6472	0.2282
217.8639	0.2293
218.0805	0.2408
218.2972	0.2301
218.5138	0.2418
218.7305	0.2484
218.9471	0.2292
219.1637	0.2561
219.3803	0.2486
219.5969	0.2387
219.8135	0.2475
220.0301	0.2421
220.2466	0.2434
220.4632	0.2394
220.6797	0.2666
220.8962	0.2503
221.1127	0.2577
221.3292	0.2625
221.5457	0.2678
221.7622	0.2632
221.9787	0.272
222.1951	0.2709
222.4116	0.2674
222.628	0.2761
222.8444	0.2879
223.0608	0.2662
223.2772	0.267
223.4936	0.2662
223.71	0.2769
223.9264	0.2975
224.1427	0.2949
224.3591	0.294
224.5754	0.2829
224.7917	0.2894
225.008	0.2881
225.2243	0.2902
225.4406	0.2832
225.6569	0.3011
225.8732	0.316
226.0894	0.2993
226.3057	0.3136
226.5219	0.3096
226.7381	0.3285
226.9543	0.3044
227.1705	0.3096
227.3867	0.3194
227.6029	0.3139
227.8191	0.3184
228.0352	0.3303
228.2513	0.3407
228.4675	0.3428
228.6836	0.3416
228.8997	0.3432
229.1158	0.3549
229.3319	0.3641
229.548	0.3619
229.764	0.3594
229.9801	0.3777
230.1961	0.3706
230.4121	0.3615
230.6282	0.3847
230.8442	0.3856
231.0602	0.3827
231.2761	0.3854
231.4921	0.3933
231.7081	0.3989
231.924	0.4158
232.14	0.4074
232.3559	0.4145
232.5718	0.4137
232.7877	0.4134
233.0036	0.4133
233.2195	0.4155
233.4353	0.4176
233.6512	0.4271
233.867	0.4333
234.0829	0.4234
234.2987	0.4281
234.5145	0.4391
234.7303	0.4371
234.9461	0.4371
235.1619	0.4529
235.3776	0.4393
235.5934	0.436
235.8091	0.4493
236.0249	0.4541
236.2406	0.4412
236.4563	0.4519
236.672	0.4502
236.8877	0.4528
237.1034	0.4455
237.319	0.4526
237.5347	0.4514
237.7503	0.4452
237.966	0.4682
238.1816	0.4547
238.3972	0.4647
238.6128	0.4717
238.8284	0.4658
239.0439	0.4579
239.2595	0.4631
239.475	0.4595
239.6906	0.452
239.9061	0.4692
240.1216	0.4672
240.3371	0.4581
240.5526	0.4642
240.7681	0.4643
240.9836	0.4665
241.199	0.4563
241.4145	0.4588
241.6299	0.4507
241.8453	0.4474
242.0607	0.4505
242.2761	0.4497
242.4915	0.4469
242.7069	0.4359
242.9223	0.4311
243.1376	0.4271
243.353	0.4218
243.5683	0.4135
243.7836	0.4062
243.9989	0.3959
244.2142	0.3866
244.4295	0.3864
244.6448	0.3826
244.86	0.3716
245.0753	0.3579
245.2905	0.3567
245.5057	0.3549
245.721	0.3545
245.9362	0.3393
246.1514	0.3378
246.3665	0.3182
246.5817	0.3073
246.7969	0.3147
247.012	0.3074
247.2271	0.3022
247.4423	0.2982
247.6574	0.2934
247.8725	0.286
248.0876	0.2777
248.3026	0.2814
248.5177	0.266
248.7328	0.2591
248.9478	0.2557
249.1628	0.2578
249.3779	0.2441
249.5929	0.2479
249.8079	0.2447
250.0228	0.2411
250.2378	0.2376
250.4528	0.2425
250.6677	0.2244
250.8827	0.2242
251.0976	0.2234
251.3125	0.2221
251.5274	0.2114
251.7423	0.2101
251.9572	0.2163
252.172	0.2108
252.3869	0.2108
252.6017	0.2131
252.8166	0.207
253.0314	0.203
253.2462	0.1999
253.461	0.2011
253.6758	0.1933
253.8906	0.1918
254.1053	0.1972
254.3201	0.1979
254.5348	0.1869
254.7496	0.1913
254.9643	0.1934
255.179	0.1858
255.3937	0.1925
255.6083	0.1938
255.823	0.1886
256.0377	0.1833
256.2523	0.1892
256.467	0.1881
256.6816	0.1897
256.8962	0.195
257.1108	0.1851
257.3254	0.1888
257.54	0.1855
257.7545	0.1848
257.9691	0.189
258.1836	0.1811
258.3981	0.1837
258.6127	0.1813
258.8272	0.1836
259.0417	0.1792
259.2561	0.1823
259.4706	0.1785
259.6851	0.186
259.8995	0.1808
260.114	0.1852
260.3284	0.1828
260.5428	0.1864
260.7572	0.1812
260.9716	0.1899
261.186	0.1759
261.4003	0.1843
261.6147	0.182
261.829	0.1844
262.0433	0.1846
262.2577	0.1836
262.472	0.1881
262.6863	0.188
262.9005	0.1839
263.1148	0.1887
263.3291	0.1863
263.5433	0.1949
263.7576	0.1915
263.9718	0.1891
264.186	0.1933
264.4002	0.1929
264.6144	0.2013
264.8286	0.1986
265.0427	0.2022
265.2569	0.2017
265.471	0.1961
265.6851	0.202
265.8993	0.1946
266.1134	0.2002
266.3275	0.1982
266.5415	0.2004
266.7556	0.2064
266.9697	0.1989
267.1837	0.2027
267.3978	0.2016
267.6118	0.1968
267.8258	0.1979
268.0398	0.2049
268.2538	0.2035
268.4677	0.1983
268.6817	0.1979
268.8957	0.192
269.1096	0.1912
269.3235	0.1943
269.5374	0.2001
269.7514	0.194
269.9652	0.1953
270.1791	0.1951
270.393	0.1954
270.6068	0.1929
270.8207	0.1972
271.0345	0.1941
271.2483	0.1913
271.4622	0.1931
271.676	0.1961
271.8897	0.1979
272.1035	0.1989
272.3173	0.1956
272.531	0.1989
272.7448	0.1918
272.9585	0.1963
273.1722	0.1968
273.3859	0.2007
273.5996	0.1998
273.8133	0.2023
274.0269	0.2003
274.2406	0.205
274.4542	0.2
274.6679	0.2052
274.8815	0.2076
275.0951	0.2136
275.3087	0.2085
275.5223	0.2105
275.7358	0.2137
275.9494	0.2065
276.1629	0.2115
276.3765	0.218
276.59	0.2087
276.8035	0.2143
277.017	0.2206
277.2305	0.2197
277.444	0.2226
277.6574	0.2242
277.8709	0.2267
278.0843	0.2213
278.2978	0.2203
278.5112	0.2196
278.7246	0.2136
278.938	0.2204
279.1513	0.2193
279.3647	0.2112
279.5781	0.2185
279.7914	0.21
280.0047	0.2096
280.2181	0.2078
280.4314	0.2053
280.6447	0.212
280.8579	0.2006
281.0712	0.206
281.2845	0.2061
281.4977	0.2079
281.711	0.2067
281.9242	0.2042
282.1374	0.1991
282.3506	0.2001
282.5638	0.2004
282.7769	0.1922
282.9901	0.1975
283.2033	0.1942
283.4164	0.1961
283.6295	0.1947
283.8426	0.1933
284.0557	0.1956
284.2688	0.2001
284.4819	0.1852
284.695	0.1963
284.908	0.1919
285.1211	0.195
285.3341	0.1833
285.5471	0.1936
285.7601	0.1947
285.9731	0.1935
286.1861	0.1883
286.3991	0.1954
286.612	0.1866
286.825	0.1935
287.0379	0.1893
287.2508	0.1948
287.4637	0.1921
287.6766	0.1847
287.8895	0.1888
288.1024	0.1903
288.3152	0.1936
288.5281	0.1876
288.7409	0.1912
288.9538	0.1925
289.1666	0.1865
289.3794	0.1875
289.5922	0.1877
289.8049	0.1852
290.0177	0.1916
290.2304	0.1839
290.4432	0.1906
290.6559	0.1889
290.8686	0.184
291.0813	0.1851
291.294	0.1863
291.5067	0.1816
291.7194	0.179
291.932	0.1825
292.1447	0.1841
292.3573	0.1872
292.5699	0.188
292.7825	0.1799
292.9951	0.183
293.2077	0.1799
293.4203	0.1821
293.6328	0.183
293.8454	0.1863
294.0579	0.1842
294.2704	0.1872
294.4829	0.183
294.6954	0.1861
294.9079	0.1826
295.1204	0.1797
295.3328	0.1863
295.5453	0.1854
295.7577	0.1812
295.9701	0.1834
296.1825	0.1841
296.3949	0.1865
296.6073	0.1771
296.8197	0.1837
297.0321	0.1844
297.2444	0.1802
297.4567	0.1834
297.6691	0.186
297.8814	0.1826
298.0937	0.1816
298.306	0.181
298.5182	0.188
298.7305	0.1846
298.9428	0.1919
299.155	0.184
299.3672	0.1796
299.5794	0.1853
299.7916	0.1878
300.0038	0.1869
300.216	0.179
300.4282	0.181
300.6403	0.1913
300.8525	0.1817
301.0646	0.1824
301.2767	0.189
301.4888	0.1875
301.7009	0.1842
301.913	0.1863
302.125	0.1832
302.3371	0.1838
302.5491	0.1904
302.7612	0.1894
302.9732	0.1861
303.1852	0.1852
303.3972	0.1865
303.6092	0.1863
303.8211	0.1845
304.0331	0.1819
304.245	0.1836
304.457	0.1819
304.6689	0.1809
304.8808	0.1818
305.0927	0.183
305.3046	0.1784
305.5164	0.1813
305.7283	0.1804
305.9401	0.1745
306.152	0.1769
306.3638	0.1808
306.5756	0.1766
306.7874	0.1774
306.9992	0.1789
307.2109	0.172
307.4227	0.1694
307.6344	0.1779
307.8462	0.1756
308.0579	0.1751
308.2696	0.1764
308.4813	0.1689
308.693	0.1674
308.9046	0.1637
309.1163	0.1632
309.328	0.1651
309.5396	0.1618
309.7512	0.1644
309.9628	0.1623
310.1744	0.1566
310.386	0.1516
310.5976	0.1539
310.8091	0.16
311.0207	0.1573
311.2322	0.1516
311.4437	0.1537
311.6552	0.1562
311.8667	0.1554
312.0782	0.1551
312.2897	0.1552
312.5012	0.1559
312.7126	0.1539
312.924	0.1535
313.1355	0.1498
313.3469	0.1466
313.5583	0.1527
313.7696	0.1484
313.981	0.1527
314.1924	0.1424
314.4037	0.1478
314.6151	0.1479
314.8264	0.1519
315.0377	0.1528
315.249	0.1544
315.4603	0.1457
315.6716	0.149
315.8828	0.1402
316.0941	0.1487
316.3053	0.1421
316.5165	0.1465
316.7277	0.145
316.9389	0.1456
317.1501	0.1468
317.3613	0.1451
317.5724	0.1438
317.7836	0.1417
317.9947	0.1392
318.2058	0.1427
318.417	0.1463
318.6281	0.1459
318.8391	0.1481
319.0502	0.1434
319.2613	0.1431
319.4723	0.1425
319.6834	0.1475
319.8944	0.1395
320.1054	0.1429
320.3164	0.139
320.5274	0.1407
320.7383	0.1454
320.9493	0.1509
321.1602	0.1372
321.3712	0.1407
321.5821	0.145
321.793	0.1531
322.0039	0.1453
322.2148	0.1414
322.4257	0.1399
322.6365	0.1436
322.8474	0.149
323.0582	0.146
323.269	0.1451
323.4798	0.1453
323.6906	0.1452
323.9014	0.1415
324.1122	0.145
324.3229	0.1544
324.5337	0.1481
324.7444	0.1484
324.9551	0.1525
325.1658	0.1473
325.3765	0.154
325.5872	0.1487
325.7979	0.1562
326.0085	0.143
326.2192	0.1445
326.4298	0.1535
326.6404	0.1588
326.851	0.1477
327.0616	0.1546
327.2722	0.1514
327.4828	0.1474
327.6933	0.1609
327.9039	0.1572
328.1144	0.163
328.3249	0.1659
328.5354	0.1632
328.7459	0.1593
328.9564	0.1579
329.1669	0.1619
329.3773	0.1586
329.5878	0.1607
329.7982	0.1626
330.0086	0.1559
330.219	0.1601
330.4294	0.1637
330.6398	0.1654
330.8502	0.171
331.0605	0.1642
331.2708	0.156
331.4812	0.1658
331.6915	0.1674
331.9018	0.1676
332.1121	0.167
332.3224	0.1641
332.5326	0.1649
332.7429	0.1577
332.9531	0.1696
333.1633	0.1625
333.3735	0.1596
333.5837	0.161
333.7939	0.1682
334.0041	0.1668
334.2143	0.1606
334.4244	0.1699
334.6346	0.1648
334.8447	0.1588
335.0548	0.1688
335.2649	0.1646
335.475	0.1613
335.685	0.1655
335.8951	0.1588
336.1051	0.1667
336.3152	0.1657
336.5252	0.1584
336.7352	0.1541
336.9452	0.1633
337.1552	0.1646
337.3652	0.1553
337.5751	0.1658
337.7851	0.1584
337.995	0.1606
338.2049	0.1585
338.4148	0.1654
338.6247	0.1625
338.8346	0.159
339.0445	0.1593
339.2543	0.1589
339.4642	0.1582
339.674	0.1536
339.8838	0.16
340.0936	0.1658
340.3034	0.1519
340.5132	0.1594
340.7229	0.1742
340.9327	0.1727
341.1424	0.1669
341.3522	0.1628
341.5619	0.1668
341.7716	0.1669
341.9813	0.1703
342.1909	0.168
342.4006	0.1642
342.6102	0.1688
342.8199	0.1718
343.0295	0.1614
343.2391	0.1702
343.4487	0.1738
343.6583	0.1813
343.8679	0.1662
344.0774	0.1696
344.287	0.176
344.4965	0.1774
344.706	0.1836
344.9155	0.1791
345.125	0.1788
345.3345	0.1845
345.544	0.1768
345.7534	0.1806
345.9629	0.1832
346.1723	0.187
346.3817	0.1829
346.5911	0.181
346.8005	0.1866
347.0099	0.185
347.2193	0.1947
347.4286	0.1954
347.638	0.195
347.8473	0.1953
348.0566	0.1906
348.2659	0.1897
348.4752	0.1937
348.6845	0.1951
348.8937	0.1863
349.103	0.193
349.3122	0.1906
349.5214	0.191
349.7306	0.2025
349.9398	0.202
350.149	0.1907
350.3582	0.1962
350.5674	0.1971
350.7765	0.1983
350.9856	0.1919
351.1948	0.1968
351.4039	0.2044
351.613	0.1942
351.822	0.1926
352.0311	0.1922
352.2402	0.1955
352.4492	0.198
352.6582	0.1982
352.8672	0.1917
353.0762	0.1964
353.2852	0.1916
353.4942	0.1897
353.7032	0.1894
353.9121	0.1924
354.1211	0.1876
354.33	0.1887
354.5389	0.1857
354.7478	0.185
354.9567	0.191
355.1655	0.1885
355.3744	0.1831
355.5833	0.1877
355.7921	0.194
356.0009	0.1872
356.2097	0.185
356.4185	0.1888
356.6273	0.1913
356.8361	0.193
357.0448	0.1896
357.2536	0.1866
357.4623	0.1862
357.671	0.1894
357.8797	0.1894
358.0884	0.1838
358.2971	0.1879
358.5057	0.1956
358.7144	0.1927
358.923	0.1946
359.1316	0.1943
359.3402	0.1931
359.5488	0.1851
359.7574	0.1945
359.966	0.1892
360.1746	0.1892
360.3831	0.1938
360.5916	0.1874
360.8002	0.1968
361.0087	0.1894
361.2172	0.1874
361.4256	0.192
361.6341	0.1973
361.8426	0.1973
362.051	0.2051
362.2594	0.1917
362.4678	0.2002
362.6762	0.2011
362.8846	0.1973
363.093	0.1993
363.3014	0.1983
363.5097	0.1977
363.718	0.2084
363.9264	0.2022
364.1347	0.2002
364.343	0.2023
364.5513	0.1986
364.7595	0.2088
364.9678	0.2047
365.176	0.2057
365.3842	0.211
365.5925	0.2017
365.8007	0.2049
366.0089	0.2147
366.217	0.2091
366.4252	0.1997
366.6333	0.2129
366.8415	0.2122
367.0496	0.2062
367.2577	0.2103
367.4658	0.2046
367.6739	0.2052
367.882	0.2093
368.09	0.2081
368.2981	0.2172
368.5061	0.2147
368.7141	0.2039
368.9221	0.2183
369.1301	0.2208
369.3381	0.2209
369.5461	0.2213
369.754	0.2206
369.962	0.2177
370.1699	0.2149
370.3778	0.2263
370.5857	0.2184
370.7936	0.219
371.0015	0.2161
371.2093	0.2215
371.4172	0.2138
371.625	0.223
371.8328	0.2222
372.0406	0.2186
372.2484	0.2197
372.4562	0.2272
372.664	0.2201
372.8717	0.2341
373.0795	0.2325
373.2872	0.2301
373.4949	0.2287
373.7026	0.2231
373.9103	0.219
374.118	0.2264
374.3256	0.2325
374.5333	0.2249
374.7409	0.224
374.9485	0.2298
375.1561	0.223
375.3637	0.2299
375.5713	0.2356
375.7789	0.2299
375.9864	0.2315
376.194	0.2342
376.4015	0.2358
376.609	0.2229
376.8165	0.231
377.024	0.2427
377.2315	0.2304
377.4389	0.2296
377.6464	0.2352
377.8538	0.2402
378.0612	0.2358
378.2686	0.2404
378.476	0.2393
378.6834	0.2421
378.8908	0.2378
379.0981	0.2459
379.3055	0.2419
379.5128	0.2354
379.7201	0.2437
379.9274	0.2468
380.1347	0.2365
380.342	0.2524
380.5492	0.2397
380.7565	0.2474
380.9637	0.247
381.1709	0.2344
381.3781	0.2489
381.5853	0.2426
381.7925	0.2365
381.9997	0.2394
382.2068	0.2485
382.4139	0.2429
382.6211	0.24
382.8282	0.2551
383.0353	0.2506
383.2424	0.2448
383.4494	0.2471
383.6565	0.2409
383.8635	0.2445
384.0706	0.2534
384.2776	0.2476
384.4846	0.2476
384.6916	0.2522
384.8986	0.2559
385.1055	0.2594
385.3125	0.2539
385.5194	0.2525
385.7263	0.2526
385.9333	0.2509
386.1402	0.252
386.347	0.2546
386.5539	0.2492
386.7608	0.2487
386.9676	0.255
387.1744	0.2461
387.3813	0.2538
387.5881	0.2392
387.7948	0.2535
388.0016	0.252
388.2084	0.2409
388.4151	0.2502
388.6219	0.2402
388.8286	0.2473
389.0353	0.2543
389.242	0.2489
389.4487	0.2449
389.6553	0.2453
389.862	0.2369
390.0686	0.248
390.2753	0.246
390.4819	0.2474
390.6885	0.2421
390.8951	0.2388
391.1016	0.2426
391.3082	0.2386
391.5147	0.2307
391.7213	0.2309
391.9278	0.2318
392.1343	0.2335
392.3408	0.2347
392.5473	0.237
392.7537	0.2352
392.9602	0.2284
393.1666	0.2296
393.373	0.2253
393.5794	0.236
393.7858	0.2292
393.9922	0.2288
394.1986	0.2267
394.4049	0.2274
394.6113	0.2249
394.8176	0.225
395.0239	0.2263
395.2302	0.2248
395.4365	0.2238
395.6428	0.2202
395.8491	0.2279
396.0553	0.2194
396.2615	0.2241
396.4678	0.2241
396.674	0.2212
396.8802	0.2145
397.0863	0.209
397.2925	0.2191
397.4987	0.2121
397.7048	0.2189
397.9109	0.2082
398.117	0.2101
398.3231	0.2068
398.5292	0.2131
398.7353	0.2074
398.9413	0.2111
399.1474	0.2173
399.3534	0.2129
399.5594	0.224
399.7654	0.2124
399.9714	0.2096
400.1774	0.2046
400.3833	0.2126
400.5893	0.2157
400.7952	0.2168
401.0011	0.214
401.207	0.2207
401.4129	0.2053
401.6188	0.2071
401.8247	0.2133
402.0305	0.209
402.2364	0.2141
402.4422	0.2112
402.648	0.205
402.8538	0.2068
403.0596	0.1978
403.2654	0.2092
403.4711	0.2055
403.6768	0.2052
403.8826	0.2073
404.0883	0.2097
404.294	0.2091
404.4997	0.2151
404.7054	0.2133
404.911	0.2065
405.1167	0.2112
405.3223	0.2053
405.5279	0.2033
405.7335	0.2044
405.9391	0.198
406.1447	0.2124
406.3502	0.1995
406.5558	0.1992
406.7613	0.2114
406.9668	0.2004
407.1724	0.205
407.3778	0.2051
407.5833	0.1988
407.7888	0.2104
407.9942	0.1983
408.1997	0.2134
408.4051	0.2028
408.6105	0.2202
408.8159	0.2055
409.0213	0.2038
409.2267	0.2109
409.432	0.2098
409.6374	0.214
409.8427	0.2084
410.048	0.2099
410.2533	0.2062
410.4586	0.2011
410.6639	0.2111
410.8691	0.1983
411.0744	0.2058
411.2796	0.2071
411.4848	0.2141
411.69	0.2031
411.8952	0.2071
412.1004	0.2086
412.3056	0.2013
412.5107	0.2032
412.7158	0.217
412.921	0.2016
413.1261	0.2136
413.3312	0.2089
413.5362	0.2048
413.7413	0.2079
413.9464	0.2074
414.1514	0.2061
414.3564	0.1932
414.5614	0.1949
414.7664	0.2007
414.9714	0.2012
415.1764	0.2102
415.3813	0.2058
415.5863	0.2048
415.7912	0.1976
415.9961	0.1991
416.201	0.2129
416.4059	0.2063
416.6108	0.2042
416.8156	0.2032
417.0205	0.2099
417.2253	0.2015
417.4301	0.2024
417.6349	0.2051
417.8397	0.1936
418.0445	0.2002
418.2492	0.183
418.454	0.1891
418.6587	0.2003
418.8634	0.1944
419.0681	0.1999
419.2728	0.1997
419.4775	0.206
419.6822	0.1942
419.8868	0.1959
420.0915	0.1946
420.2961	0.1753
420.5007	0.1975
420.7053	0.1986
420.9099	0.1975
421.1144	0.1864
421.319	0.1817
421.5235	0.1842
421.728	0.1952
421.9325	0.1935
422.137	0.1808
422.3415	0.1743
422.546	0.1841
422.7504	0.1934
422.9549	0.1973
423.1593	0.1846
423.3637	0.1843
423.5681	0.1854
423.7725	0.1803
423.9769	0.1853
424.1812	0.1723
424.3856	0.1724
424.5899	0.1808
424.7942	0.1793
424.9985	0.1767
425.2028	0.1837
425.4071	0.1817
425.6113	0.1798
425.8156	0.1774
426.0198	0.1812
426.224	0.1813
426.4282	0.1624
426.6324	0.1661
426.8366	0.1733
427.0407	0.1641
427.2449	0.1674
427.449	0.1665
427.6531	0.1702
427.8572	0.1744
428.0613	0.1703
428.2654	0.1689
428.4694	0.1605
428.6735	0.1592
428.8775	0.1605
429.0815	0.1587
429.2855	0.1641
429.4895	0.1574
429.6935	0.1544
429.8975	0.1517
430.1014	0.1572
430.3053	0.1623
430.5093	0.1468
430.7132	0.1511
430.9171	0.1454
431.1209	0.1563
431.3248	0.1424
431.5286	0.1457
431.7325	0.1524
431.9363	0.1405
432.1401	0.1359
432.3439	0.1405
432.5477	0.1342
432.7514	0.1345
432.9552	0.134
433.1589	0.1338
433.3627	0.143
433.5664	0.1302
433.7701	0.1329
433.9737	0.1247
434.1774	0.1309
434.3811	0.1225
434.5847	0.1361
434.7883	0.1268
434.9919	0.1267
435.1955	0.1311
435.3991	0.1313
435.6027	0.1155
435.8062	0.1347
436.0098	0.1187
436.2133	0.1172
436.4168	0.1298
436.6203	0.1071
436.8238	0.1155
437.0272	0.1056
437.2307	0.1072
437.4341	0.1097
437.6375	0.1042
437.841	0.1015
438.0443	0.1055
438.2477	0.1003
438.4511	0.1036
438.6545	0.1007
438.8578	0.099
439.0611	0.1022
439.2644	0.1009
439.4677	0.1088
439.671	0.087
439.8743	0.0978
440.0775	0.0959
440.2808	0.0914
440.484	0.0884
440.6872	0.0955
440.8904	0.0833
441.0936	0.0871
441.2967	0.0763
441.4999	0.0813
441.703	0.0828
441.9062	0.0842
442.1093	0.0933
442.3124	0.0816
442.5155	0.0826
442.7185	0.0672
442.9216	0.0753
443.1246	0.0688
443.3276	0.0684
443.5307	0.0678
443.7337	0.0703
443.9366	0.0691
444.1396	0.0643
444.3426	0.0592
444.5455	0.0635
444.7484	0.0642
444.9513	0.0662
445.1542	0.0667
445.3571	0.0647
445.56	0.0578
445.7628	0.0612
445.9657	0.0609
446.1685	0.0616
446.3713	0.0592
446.5741	0.0651
446.7769	0.0674
446.9797	0.0503
447.1824	0.0612
447.3852	0.0474
447.5879	0.0569
447.7906	0.0474
447.9933	0.0622
448.196	0.0432
448.3986	0.0452
448.6013	0.0409
448.8039	0.0579
449.0066	0.0505
449.2092	0.0514
449.4118	0.0473
449.6143	0.0419
449.8169	0.0444
450.0195	0.0405
450.222	0.0466
450.4245	0.0381
450.627	0.0439
450.8295	0.0427
451.032	0.0367
451.2345	0.0346
451.4369	0.0473
451.6394	0.0313
451.8418	0.0425
452.0442	0.0404
452.2466	0.0313
452.449	0.0375
452.6513	0.0362
452.8537	0.0342
453.056	0.0287
453.2583	0.0327
453.4607	0.0282
453.663	0.0325
453.8652	0.0284
454.0675	0.0414
454.2697	0.0315
454.472	0.0306
454.6742	0.0321
454.8764	0.0383
455.0786	0.0226
455.2808	0.0168
455.4829	0.0296
455.6851	0.0269
455.8872	0.0179
456.0893	0.0335
456.2915	0.0211
456.4935	0.0311
456.6956	0.0199
456.8977	0.0232
457.0997	0.0284
457.3018	0.0193
457.5038	0.0331
457.7058	0.0215
457.9078	0.0218
458.1098	0.0261
458.3117	0.0291
458.5137	0.0102
458.7156	0.0214
458.9175	0.0255
459.1194	0.0283
459.3213	0.0237
459.5232	0.0277
459.725	0.024
459.9269	0.0266
460.1287	0.0141
460.3305	0.0219
460.5323	0.0208
460.7341	0.0188
460.9359	0.0072
461.1376	0.0247
461.3394	0.0236
461.5411	0.0212
461.7428	0.0255
461.9445	0.0186
462.1462	0.0156
462.3479	0.0177
462.5495	0.0237
462.7512	0.0233
462.9528	0.0177
463.1544	0.0187
463.356	0.0062
463.5576	0.0225
463.7592	0.014
463.9607	0.0204
464.1623	0.0194
464.3638	0.0122
464.5653	0.0249
464.7668	0.0223
464.9683	0.0176
465.1697	0.0124
465.3712	0.0008
465.5726	0.0163
465.7741	0.0265
465.9755	0.0097
466.1769	0.0172
466.3782	0.008
466.5796	0.0147
466.7809	0.0175
466.9823	0.0155
467.1836	0.0084
467.3849	0.0081
467.5862	0.007
467.7875	0.0094
467.9887	0.0146
468.19	0.0122
468.3912	0.0156
468.5924	0.0115
468.7936	0.0125
468.9948	0.0121
469.196	0.009
469.3972	0.0059
469.5983	0.0121
469.7994	0.0154
470.0006	0.016
470.2017	0.005
470.4027	0.0274
470.6038	0.01
470.8049	0.0083
471.0059	0.0177
471.2069	0.0118
471.408	0.0252
471.6089	0.0205
471.8099	0.0202
472.0109	0.0109
472.2119	0.0181
472.4128	0.0062
472.6137	0.0116
472.8146	0.0122
473.0155	0.0162
473.2164	0.0104
473.4173	0.0071
473.6181	0.0072
473.819	0.021
474.0198	0.0037
474.2206	-0.0018
474.4214	0.0142
474.6222	-0.0024
474.8229	0.0072
475.0237	0.0192
475.2244	0.0136
475.4251	0.0081
475.6258	0.0067
475.8265	0.0115
476.0272	0.0067
476.2278	0.0083
476.4285	0.0147
476.6291	0.0101
476.8297	0.0143
477.0303	0.0028
477.2309	0.0073
477.4315	0.0155
477.632	0.0085
477.8326	0.0125
478.0331	0.0121
478.2336	0.0084
478.4341	0.0165
478.6346	0.0076
478.8351	0.0055
479.0355	0.0166
479.236	0.0162
479.4364	0.0042
479.6368	0.0073
479.8372	0.0143
480.0376	0.009
480.2379	0.0172
480.4383	0.0184
480.6386	0.0059
480.8389	0.0068
481.0392	0.0088
481.2395	0.0131
481.4398	0.0171
481.6401	0.0115
481.8403	0.0046
482.0405	0.0208
482.2408	0.0075
482.441	0.0123
482.6411	0.011
482.8413	0.0078
483.0415	0.0198
483.2416	0.0118
483.4417	0.011
483.6419	0.0004
483.8419	0.0105
484.042	0.0069
484.2421	0.0072
484.4422	0.0046
484.6422	0.0098
484.8422	0.0046
485.0422	0.0094
485.2422	0.0076
485.4422	0.01
485.6422	0.0092
485.8421	0.0137
486.042	0.0144
486.242	0.0054
486.4419	0.0105
486.6417	0.0066
486.8416	0.0117
487.0415	0.0027
487.2413	0.0063
487.4411	0.0116
487.641	0.0076
487.8408	0.018
488.0405	0.0175
488.2403	0.007
488.4401	0.0107
488.6398	0.0163
488.8395	0.0091
489.0392	0.0095
489.2389	0.0112
489.4386	0.0004
489.6383	0.0133
489.8379	0.013
490.0376	0.0131
490.2372	0.0058
490.4368	0.0063
490.6364	-0.0059
490.836	0.0033
491.0355	-0.003
491.2351	0.0063
491.4346	0.0134
491.6341	0.006
491.8336	0.0099
492.0331	0.0033
492.2326	0.0196
492.432	0.0002
492.6315	0.0124
492.8309	0.016
493.0303	0.0094
493.2297	0.0109
493.4291	0.0092
493.6284	0.0176
493.8278	0.0121
494.0271	0.0094
494.2264	0.0031
494.4257	0.0121
494.625	0.0106
494.8243	0.0056
495.0236	0.0095
495.2228	0.0164
495.422	0.0191
495.6213	0.0137
495.8205	0.0094
496.0196	0.0102
496.2188	0.0026
496.418	0.0074
496.6171	0.0123
496.8162	0.0074
497.0153	0.0155
497.2144	0.0108
497.4135	0.0134
497.6126	0.008
497.8116	0.0045
498.0107	0.0088
498.2097	0.019
498.4087	0.0059
498.6077	0.0052
498.8067	0.0144
499.0056	0.0082
499.2046	0.0143
499.4035	0.016
499.6024	-0.0003
499.8013	0.0103
500.0002	0.0144
500.199	0.0118
500.3979	0.0106
500.5967	0.011
500.7956	0.0092
500.9944	0.0046
501.1932	0.009
501.3919	0.012
501.5907	0.0053
501.7895	0.0072
501.9882	0.0142
502.1869	0.0144
502.3856	0.0109
502.5843	0.0078
502.783	0.0068
502.9816	0.0134
503.1803	0.0046
503.3789	0.0178
503.5775	0.008
503.7761	0.0055
503.9747	0.0112
504.1732	0.0073
504.3718	0.0251
504.5703	0.0099
504.7689	0.0036
504.9674	0.0042
505.1658	0.0073
505.3643	0.0174
505.5628	0.0136
505.7612	0.0148
505.9597	-0.0037
506.1581	0.0079
506.3565	0.0061
506.5549	0.0077
506.7532	0.0066
506.9516	0.013
507.1499	0.0088
507.3482	0.0095
507.5465	0.0063
507.7448	0.0106
507.9431	0.0112
508.1414	0.0051
508.3396	0.0117
508.5379	0.0063
508.7361	0.004
508.9343	0.0237
509.1325	0.0101
509.3306	0.0083
509.5288	-0.005
509.7269	0.0075
509.9251	0.0116
510.1232	0.007
510.3213	0.013
510.5193	0.0123
510.7174	0.0118
510.9154	0.0101
511.1135	0.0082
511.3115	0.0031
511.5095	0.0079
511.7075	0.0066
511.9055	0.0129
512.1034	0.0116
512.3014	0.0065
512.4993	0.0104
512.6972	0.0039
512.8951	0.007
513.093	0.0142
513.2908	0.0207
513.4887	0.0126
513.6865	0.0076
513.8844	0.0181
514.0822	0.0108
514.2799	-0.0013
514.4777	0.0075
514.6755	0.0067
514.8732	-0.0035
515.0709	0.0099
515.2687	-0.0004
515.4664	0.0272
515.664	0.0107
515.8617	0.0155
516.0594	0.0111
516.257	0.0197
516.4546	0.0132
516.6522	0.0107
516.8498	0.0134
517.0474	0.0141
517.2449	0.0056
517.4425	0.0109
517.64	0.0083
517.8375	0.0224
518.035	0.0051
518.2325	0.0036
518.43	0.0046
518.6274	0.0064
518.8249	-0.0004
519.0223	0.0141
519.2197	0.0097
519.4171	0.0008
519.6145	0.0092
519.8118	-0.0007
520.0092	-0.0008
520.2065	0.0133
520.4038	0.0058
520.6011	0.0052
520.7984	0.0129
520.9956	0.0087
521.1929	0.0056
521.3901	0.0199
521.5874	0.0091
521.7846	0.0009
521.9818	0.0133
522.1789	-0.0035
522.3761	0.0163
522.5732	0.0169
522.7704	0.0034
522.9675	0.0031
523.1646	0.0074
523.3617	0.0144
523.5587	-0.0007
523.7558	0.0043
523.9528	0.007
524.1498	0.0023
524.3468	0.0049
524.5438	0.0093
524.7408	0.0042
524.9378	0.012
525.1347	0.0109
525.3316	0.0024
525.5285	0.0124
525.7254	0.0135
525.9223	0.0291
526.1192	0.0168
526.316	0.0133
526.5129	0.0088
526.7097	0.0083
526.9065	0.0077
527.1033	-0.001
527.3	0.0141
527.4968	0.0185
527.6935	-0.0056
527.8903	0.0023
528.087	0.0062
528.2837	0.0103
528.4804	0.0075
528.677	0.0084
528.8737	0.0072
529.0703	0.0057
529.2669	0.013
529.4635	0.0064
529.6601	0.0023
529.8567	0.0018
530.0532	0.0051
530.2498	0.007
530.4463	-0.0075
530.6428	0.0051
530.8393	0.0151
531.0358	-0.0019
531.2322	0.0011
531.4287	0.0132
531.6251	-0.0012
531.8215	0.0022
532.0179	0.0118
532.2143	0.0103
532.4107	0.0133
532.607	0.0033
532.8034	0.0065
532.9997	0.0028
533.196	-0.0008
533.3923	0.0134
533.5886	0.0157
533.7848	0.0173
533.9811	0.0065
534.1773	0.001
534.3735	0.0127
534.5697	0.0057
534.7659	0.0094
534.9621	0.0155
535.1582	0.0108
535.3544	0.011
535.5505	0.013
535.7466	0.0029
535.9427	0.0025
536.1387	0.0053
536.3348	0.0083
536.5308	0.004
536.7269	0.0067
536.9229	0.0066
537.1189	0.0161
537.3148	0.0101
537.5108	0.0099
537.7068	0.0162
537.9027	-0.0022
538.0986	0.0092
538.2945	0.0057
538.4904	0.0038
538.6863	0.0005
538.8821	0.0137
539.078	0.0099
539.2738	0.0099
539.4696	-0.0027
539.6654	0.0152
539.8611	0.0105
540.0569	0.0091
540.2526	0.0155
540.4484	0.0025
540.6441	0.0129
540.8398	0.0224
541.0355	0.0115
541.2311	0.0071
541.4268	0.021
541.6224	0.0169
541.818	0.0197
542.0136	0.0162
542.2092	0.0167
542.4048	0.0102
542.6003	0.0104
542.7959	0.0124
542.9914	0.015
543.1869	0.0123
543.3824	0.0079
543.5779	0.0169
543.7734	0.016
543.9688	0.0202
544.1642	0.0041
544.3596	0.0173
544.555	0.0137
544.7504	0.0123
544.9458	0.0032
545.1411	0.0035
545.3365	0.0086
545.5318	0.0135
545.7271	0.0114
545.9224	0.0096
546.1177	0.0011
546.3129	0.0081
546.5081	-0.0027
546.7034	0.0119
546.8986	0.015
547.0938	0.0133
547.289	0.0054
547.4841	0.014
547.6793	0.0047
547.8744	0.0114
548.0695	0.0009
548.2646	0.0085
548.4597	0.0071
548.6548	0.0145
548.8498	0.0079
549.0448	0.0098
549.2399	0.0117
549.4349	0.0075
549.6298	0.0232
549.8248	0.003
550.0198	0.0135
550.2147	0.0204
550.4096	0.0018
550.6045	0.0029
550.7994	0.0133
550.9943	0.0167
551.1892	-0.0044
551.384	0.0109
551.5788	0.0168
551.7737	0.022
551.9685	0.0154
552.1632	0.002
552.358	0.0117
552.5528	0.0101
552.7475	0.009
552.9422	0.0118
553.1369	0.0222
553.3316	0.0093
553.5263	0.0136
553.7209	0.0115
553.9156	0.0071
554.1102	0.009
554.3048	0.011
554.4994	0.0061
554.694	0.0174
554.8885	0.0083
555.0831	0.0134
555.2776	0.0113
555.4721	0.008
555.6666	0.0123
555.8611	0.0085
556.0555	0.008
556.25	0.0081
556.4444	0.0008
556.6388	0.0118
556.8332	0.0043
557.0276	0.008
557.222	0.0016
557.4163	0.0149
557.6107	0.0083
557.805	0.0006
557.9993	0.0102
558.1936	0.002
558.3879	0.0146
558.5821	0.0079
558.7764	0.0052
558.9706	0
559.1648	0.0173
559.359	-0.0033
559.5532	0.0094
559.7473	-0.0014
559.9415	0.0023
560.1356	0.0192
560.3297	0.0011
560.5238	0.009
560.7179	-0.0007
560.9119	0.0179
561.106	0.0032
561.3	0.0097
561.494	0.0033
561.688	0.001
561.882	0.0085
562.076	0.0112
562.2699	0.0117
562.4639	0.017
562.6578	0.0151
562.8517	0.0118
563.0456	0.0069
563.2395	0.0189
563.4333	0.0048
563.6272	0.0065
563.821	0.0079
564.0148	0.0109
564.2086	0.0023
564.4024	0.0196
564.5961	0.0072
564.7899	0.0159
564.9836	0.008
565.1773	0.017
565.371	0.0101
565.5647	0.0068
565.7584	0.01
565.952	0.008
566.1456	0.0008
566.3393	0.0099
566.5329	-0.0009
566.7264	0.0161
566.92	-0.0004
567.1136	0.0094
567.3071	0.0008
567.5006	0.013
567.6941	0.0166
567.8876	0.0038
568.0811	0.0209
568.2745	0.0036
568.468	0.012
568.6614	0.0104
568.8548	0.0149
569.0482	0.0074
569.2416	0.013
569.4349	0.0062
569.6283	0.0059
569.8216	0.0057
570.0149	0.005
570.2082	0.0132
570.4015	0.0056
570.5947	0.0053
570.788	0.0131
570.9812	0.0085
571.1744	0.0101
571.3676	0.0111
571.5608	0.0066
571.754	0.0168
571.9471	0.0087
572.1402	0.0085
572.3333	0.0103
572.5264	0.0034
572.7195	0.0093
572.9126	0.0068
573.1057	0.0108
573.2987	0.0102
573.4917	0.0083
573.6847	0.0096
573.8777	0.0144
574.0707	0.0111
574.2636	0.0118
574.4566	0.0073
574.6495	0.0073
574.8424	0.0076
575.0353	0.0116
575.2281	0.0077
575.421	0.0042
575.6138	0.0046
575.8067	0.0141
575.9995	0.0089
576.1923	0.0082
576.385	0.0108
576.5778	0.0084
576.7706	0.0105
576.9633	0.008
577.156	0.0017
577.3487	0.0037
577.5414	0.005
577.734	0.0047
577.9267	0.0101
578.1193	0.0112
578.3119	0.0046
578.5045	0.0115
578.6971	0.0058
578.8897	0.0049
579.0822	0.0143
579.2747	0.0074
579.4673	0.0104
579.6598	0.0065
579.8522	0.0097
580.0447	0.0125
580.2372	0.0134
580.4296	0.0115
580.622	0.0039
580.8144	0.0071
581.0068	0.0082
581.1992	0.0084
581.3915	0.0001
581.5839	0.0076
581.7762	0.0084
581.9685	0.0063
582.1608	0.0093
582.353	0.0058
582.5453	0.0104
582.7375	0.0081
582.9298	0.0021
583.122	0.009
583.3142	0.0111
583.5063	0.0037
583.6985	0.0041
583.8906	0.0057
584.0827	0.0095
584.2749	0.0065
584.4669	0.0071
584.659	0.0092
584.8511	0.014
585.0431	0.0092
585.2352	0.0084
585.4272	0.0073
585.6192	0.0105
585.8111	0.0084
586.0031	0.0056
586.195	0.0094
586.387	0.0087
586.5789	0.0136
586.7708	0.0108
586.9627	0.0077
587.1545	0.0062
587.3464	0.0032
587.5382	0.0102
587.73	0.0113
587.9218	0.0077
588.1136	0.0062
588.3053	0.0077
588.4971	0.0072
588.6888	0.0069
588.8805	0.0048
589.0722	0.0148
589.2639	0.0111
589.4556	0.0094
589.6472	0.007
589.8389	0.0108
590.0305	0.0117
590.2221	0.0125
590.4137	0.0064
590.6052	0.0096
590.7968	0.0101
590.9883	0.01
591.1798	0.0034
591.3713	0.0111
591.5628	0.0093
591.7543	0.0094
591.9458	0.0065
592.1372	0.0094
592.3286	0.0054
592.52	0.0071
592.7114	0.0062
592.9028	0.0142
593.0941	0.007
593.2855	0.0092
593.4768	0.014
593.6681	0.0088
593.8594	0.0116
594.0506	0.0047
594.2419	0.0108
594.4331	0.0089
594.6244	0.0053
594.8156	0.0068
595.0067	0.0039
595.1979	0.0054
595.3891	0.0107
595.5802	0.0136
595.7713	0.0119
595.9624	0.0177
596.1535	0.0094
596.3446	0.0063
596.5357	0.0037
596.7267	0.008
596.9177	0.0062
597.1087	0.0056
597.2997	0.006
597.4907	0.0002
597.6817	0.0076
597.8726	0.0147
598.0635	0.0084
598.2544	0.0107
598.4453	0.0075
598.6362	0.0047
598.827	0.0066
599.0179	0.0122
599.2087	0.0136
599.3995	0.0087
599.5903	0.0126
599.7811	0.02
599.9718	0.007
600.1626	0.0017
600.3533	0.0063
600.544	0.008
600.7347	0.0085
600.9254	0.0134
601.116	0.009
601.3067	0.0081
601.4973	0.0108
601.6879	0.0031
601.8785	0.0094
602.0691	0.0111
602.2596	0.0053
602.4502	0.0087
602.6407	0.0154
602.8312	0.0091
603.0217	0.009
603.2122	0.0083
603.4027	0.0075
603.5931	0.0058
603.7835	0.0074
603.9739	0.0072
604.1643	0.0122
604.3547	0.0145
604.5451	0.0128
604.7354	-0.0012
604.9257	0.0097
605.116	0.0048
605.3063	0.0078
605.4966	0.0071
605.6869	0.0111
605.8771	0.01
606.0673	0.0065
606.2575	0.0076
606.4477	0.0126
606.6379	0.0062
606.8281	0.0067
607.0182	0.0062
607.2083	0.0093
607.3985	0.0085
607.5885	0.0088
607.7786	0.0066
607.9687	0.0147
608.1587	0.0108
608.3488	0.0106
608.5388	0.003
608.7288	-0.001
608.9187	0.0069
609.1087	0.0114
609.2986	0.0131
609.4886	0.0004
609.6785	0.0081
609.8684	0.0056
610.0582	0.0104
610.2481	0.0005
610.4379	0.0095
610.6278	0.0084
610.8176	0.0091
611.0074	0.0068
611.1971	0.0082
611.3869	0.0137
611.5766	0.0024
611.7664	0.0129
611.9561	0.007
612.1458	0.0072
612.3354	0.0087
612.5251	0.0081
612.7147	0.0162
612.9044	0.0094
613.094	0.0104
613.2836	0.0078
613.4731	0.0105
613.6627	0.0085
613.8522	0.0093
614.0417	0.0084
614.2313	0.006
614.4207	0.0039
614.6102	0.0092
614.7997	0.0151
614.9891	0.014
615.1785	0.0059
615.3679	0.0112
615.5573	0.0086
615.7467	0.0076
615.9361	0.006
616.1254	0.011
616.3147	0.0111
616.504	0.0114
616.6933	0.0111
616.8826	0.0095
617.0718	0.0147
617.2611	0.0011
617.4503	0.0065
617.6395	0.0061
617.8287	0.0163
618.0179	0.0046
618.207	0.0152
618.3961	0.0032
618.5853	0.0044
618.7744	0.0185
618.9634	0.0229
619.1525	0.0028
619.3416	0.0005
619.5306	0.0157
619.7196	0.0173
619.9086	0.0106
620.0976	0.0007
620.2866	0.005
620.4755	-0.0012
620.6645	0.0161
620.8534	-0
621.0423	0.0061
621.2312	0.0067
621.42	0.0084
621.6089	-0.0064
621.7977	0.0134
621.9865	0.0026
622.1753	0.0017
622.3641	0.0055
622.5529	0.0019
622.7416	0.0125
622.9303	0.0015
623.1191	0.011
623.3078	0.0005
623.4964	0.0086
623.6851	0.008
623.8737	0.0006
624.0624	0.0046
624.251	0.0083
624.4396	0.0051
624.6282	0.021
624.8167	0.0013
625.0053	0.012
625.1938	0.0105
625.3823	0.011
625.5708	-0.003
625.7593	0.0035
625.9477	0.0152
626.1362	0.0031
626.3246	-0.0019
626.513	0.0071
626.7014	0.0105
626.8898	0.0202
627.0781	-0.0079
627.2665	0.0122
627.4548	-0.0071
627.6431	0.0118
627.8314	0.0215
628.0197	0.0102
628.2079	0.0138
628.3962	0.0153
628.5844	0.004
628.7726	0.0064
628.9608	0.0119
629.1489	0.0115
629.3371	-0.0045
629.5252	0.0177
629.7134	-0.0026
629.9015	0.0144
630.0895	-0.005
630.2776	0.0114
630.4657	0.0037
630.6537	0.0173
630.8417	-0.0027
631.0297	0.0059
631.2177	0.0005
631.4057	0.0126
631.5936	-0.009
631.7815	0.0106
631.9695	0.0301
632.1574	0.0123
632.3452	0.0191
632.5331	0.0156
632.7209	0.0198
632.9088	0.014
633.0966	0.015
633.2844	0.0187
633.4722	0.0192
633.6599	0.0144
633.8477	0.0123
634.0354	0.0114
634.2231	-0.0151
634.4108	0.0092
634.5985	0.0265
634.7861	0.0057
634.9738	-0.0004
635.1614	0.0113
635.349	-0.0001
635.5366	0.0068
635.7242	0.0107
635.9117	0.0185
636.0993	0.0116
636.2868	0.0049
636.4743	0.0062
636.6618	0.0019
636.8492	0.0161
637.0367	-0.0004
637.2241	-0.0044
637.4115	0.0289
637.5989	0.0039
637.7863	0.0248
637.9737	0.0119
638.161	0.0066
638.3484	-0.0087
638.5357	-0.0014
638.723	0.014
638.9103	-0.0083
639.0975	0.013
639.2848	0.0129
639.472	0.0119
639.6592	-0.0094
639.8464	0.0022
640.0336	0.0085
640.2208	-0.0019
640.4079	-0.0051
640.595	-0.0007
640.7821	0.0134
640.9692	0.0028
641.1563	0.0082
641.3434	0.0201
641.5304	0.0275
641.7174	0.0063
641.9044	0.0102
642.0914	0.0209
642.2784	-0.0058
642.4653	-0.0033
642.6523	0.0198
642.8392	-0.0104
643.0261	0.0074
643.213	0.0135
643.3999	0.0227
643.5867	0.0208
643.7735	-0.0204
643.9604	0.0177
644.1472	0.0054
644.3339	0.0311
644.5207	0.002
644.7075	0.0083
644.8942	-0.0015
645.0809	0.0034
645.2676	0.0095
645.4543	0.0087
645.6409	0.0218
645.8276	0.0169
646.0142	0.0122
646.2008	0.014
646.3874	-0.0001
646.574	-0.0131
646.7605	0.0101
646.9471	0.0032
647.1336	-0.0066
647.3201	0.0136
647.5066	0.0193
647.6931	0.0146
647.8795	0.0048
648.0659	0.0173
648.2524	0.0018
648.4388	0.0078
648.6252	0.0253
648.8115	0.0016
648.9979	0.021
649.1842	0.0113
649.3705	0.0207
649.5568	0.0042
649.7431	-0.0059
649.9294	-0.0062
650.1156	-0.0117
650.3018	0.006
650.488	0.015
650.6742	0.0173
650.8604	0.0073
651.0466	-0.0038
651.2327	0.0098
651.4188	-0.0041
651.6049	0.0257
651.791	0.0117
651.9771	0.0133
652.1632	0.0061
652.3492	-0.0088
652.5352	0.0125
652.7212	0.0046
652.9072	0.0011
653.0932	0.0164
653.2791	0.0058
653.465	0.0032
653.651	0.0116
653.8369	0.003
654.0227	0.0027
654.2086	0.006
654.3944	0.0213
654.5803	0.0059
654.7661	0.005
654.9519	-0.0005
655.1377	0.0001
655.3234	0.0001
655.5092	0.0001
655.6949	0.0001
655.8806	0.0001
656.0663	0.0001
656.2519	0.0001
656.4376	0.0001
656.6232	0.0001
656.8088	0.0001
656.9945	0.0001
657.18	0.0001
657.3656	0.0001
657.5511	0.0001
657.7367	0.0001
657.9222	0.0001
658.1077	0.0001
658.2932	0.0001
658.4786	0.0001
658.6641	0.0001
658.8495	0.0001
659.0349	0.0001
659.2203	0.0001
659.4057	0.0058
659.591	0.2921
659.7764	0.0247
659.9617	0.0211
660.147	0.0052
660.3323	0.0169
660.5176	0.0186
660.7028	-0.0077
660.888	0.0114
661.0733	0.011
661.2585	-0.0011
661.4436	0.012
661.6288	0.025
661.8139	0.01
661.9991	-0.0072
662.1842	0.0052
662.3693	-0.0016
662.5544	0.0182
662.7394	0.0244
662.9245	0.0172
663.1095	-0.0249
663.2945	0.005
663.4795	-0.0018
663.6644	0.0039
663.8494	0.0163
664.0343	0.0014
664.2193	-0.0001
664.4042	0.0161
664.589	0.0021
664.7739	0.0048
664.9587	-0.0152
665.1436	0.0021
665.3284	0.0077
665.5132	-0.0082
665.698	0.0023
665.8827	0.0232
666.0675	-0.0014
666.2522	0.014
666.4369	0.0028
666.6216	0.03
666.8063	0.0192
666.9909	-0.0018
667.1756	-0.0093
667.3602	0.0125
667.5448	0.014
667.7294	0.0011
667.9139	-0.0101
668.0985	0.0203
668.283	-0.0089
668.4675	-0.0051
668.652	-0.0046
668.8365	-0.0148
669.0209	0.0008
669.2054	0.019
669.3898	0.012
669.5742	0.0431
669.7586	0.0358
669.943	0.0188
670.1273	-0.0055
670.3117	0.0246
670.496	0.0125
670.6803	0.0115
670.8646	-0.004
671.0488	0.0342
671.2331	-0.0174
671.4173	0.0058
671.6015	-0.0009
671.7857	-0.0032
671.9699	0.0115
672.1541	-0.0023
672.3382	0.0029
672.5223	-0.0007
672.7064	0.0083
672.8905	-0.0036
673.0746	0.0022
673.2587	0.0291
673.4427	0.0004
673.6267	0.025
673.8107	0.02
673.9947	-0.0047
674.1787	0.0219
674.3626	0.0071
674.5465	0.0236
674.7304	-0.0208
674.9143	0.0122
675.0982	0.0152
675.2821	0.0124
675.4659	0.0023
675.6497	0.0072
675.8335	0.0223
676.0173	-0.0038
676.2011	0.0128
676.3849	-0.0105
676.5686	0.0163
676.7523	0.0018
676.936	-0.0072
677.1197	-0.0069
677.3034	0.0158
677.487	0.0034
677.6706	0.0155
677.8542	-0.0055
678.0378	-0.0018
678.2214	0.0195
678.405	0.0034
678.5885	0.0255
678.772	0.0119
678.9555	-0.0043
679.139	0.0318
679.3225	0.0012
679.5059	0.0043
679.6894	0.0051
679.8728	0.0151
680.0562	-0.0033
680.2395	-0.0036
680.4229	-0.0028
680.6062	0.0114
680.7896	0.0023
680.9729	0.0284
681.1562	0.0116
681.3394	-0.0148
681.5227	0.0018
681.7059	0.0246
681.8891	0.0063
682.0723	-0.0092
682.2555	0.0258
682.4387	0.0196
682.6218	0.0068
682.805	0.0147
682.9881	0.0118
683.1712	-0.0032
683.3542	0.0298
683.5373	-0.0061
683.7203	0.0205
683.9034	-0.0052
684.0864	-0.0032
684.2694	0.0049
684.4523	0.0215
684.6353	0.0019
684.8182	0.005
685.0011	0.0251
685.184	0.0046
685.3669	0.0374
685.5498	0.0019
685.7326	0.0033
685.9154	-0.0074
686.0982	0.0215
686.281	-0.0038
686.4638	0.0176
686.6465	0.0032
686.8293	-0.0074
687.012	0.0104
687.1947	0.0018
687.3774	0.0145
687.56	-0.0052
687.7427	0.0089
687.9253	-0.0159
688.1079	-0.0001
688.2905	0.0099
688.4731	0.0141
688.6556	-0.001
688.8382	-0.0364
689.0207	0.03
689.2032	0.0083
689.3857	0.003
689.5681	0.0054
689.7506	0.0209
689.933	-0.0066
690.1154	0.0231
690.2978	0.0203
690.4802	0.0083
690.6626	0.0006
690.8449	0.025
691.0272	-0.0142
691.2095	-0.0032
691.3918	0.0107
691.5741	-0.0012
691.7563	0.0008
691.9386	0.0261
692.1208	0.0113
692.303	0.0059
692.4852	0.019
692.6673	0.0122
692.8495	-0.0026
693.0316	-0.017
693.2137	0.013
693.3958	0.0154
693.5778	-0.0074
693.7599	0.0146
693.9419	-0.0118
694.1239	-0.0086
694.3059	0.031
694.4879	-0.0067
694.6699	-0.0007
694.8518	0.0151
695.0337	0.0173
695.2157	0.016
695.3975	0.0177
695.5794	-0.0209
695.7613	0.0172
695.9431	-0.0084
696.1249	0.0177
696.3067	-0.0035
696.4885	0.019
696.6703	0.0041
696.852	-0.0086
697.0337	0.011
697.2154	-0.0044
697.3971	0.0153
697.5788	0.0238
697.7605	0.002
697.9421	0.0154
698.1237	0.0137
698.3053	-0.0004
698.4869	0.0058
698.6685	-0.0125
698.85	0.0102
699.0315	-0.0212
699.213	0.0076
699.3945	-0.0252
699.576	0.0348
699.7575	0.0214
699.9389	-0.0113
700.1203	0.007
700.3017	0.0105
700.4831	0.017
700.6645	0.0317
700.8458	-0.0207
701.0271	0.0226
701.2084	0.0129
701.3897	0.0104
701.571	-0.0139
701.7523	0.0085
701.9335	0.0033
702.1147	0.024
702.2959	-0.0035
702.4771	0.0001
702.6583	0.012
702.8394	-0.0196
703.0205	0.0228
703.2016	-0.0059
703.3827	-0.019
703.5638	0.004
703.7449	0.0184
703.9259	0.0289
704.1069	-0.0218
704.2879	0.0239
704.4689	0.0274
704.6499	0.0285
704.8308	0.0144
705.0117	0.009
705.1927	0.0047
705.3735	-0.0031
705.5544	0.019
705.7353	-0.0106
705.9161	-0.0134
706.0969	0.0139
706.2777	0.0103
706.4585	-0.0046
706.6393	0.013
706.82	0.0056
707.0007	0.0069
707.1815	0.0098
707.3621	0.0265
707.5428	0.0104
707.7235	0.0041
707.9041	0.0137
708.0847	0.004
708.2653	0.0211
708.4459	0.0156
708.6265	0.0254
708.807	0.0068
708.9875	0.0013
709.168	0.0135
709.3485	0.0158
709.529	0.0264
709.7095	-0.013
709.8899	-0.0005
710.0703	0.0218
710.2507	0.0045
710.4311	-0.0307
710.6115	0.0312
710.7918	0.0237
710.9721	0.0139
711.1524	-0.0035
711.3327	-0.0149
711.513	0.0034
711.6932	-0.0073
711.8735	0.0286
712.0537	-0.015
712.2339	0.0026
712.4141	0.0228
712.5942	-0.0127
712.7744	0.0119
712.9545	0.0319
713.1346	0.0285
713.3147	0.0139
713.4947	0.0032
713.6748	-0.0009
713.8548	0.015
714.0348	0.0126
714.2148	0.0198
714.3948	0.0252
714.5748	0.0387
714.7547	0.0214
714.9346	0.0303
715.1145	0.0237
715.2944	-0.0197
715.4743	0.0176
715.6541	-0.0174
715.834	0.0308
716.0138	0.0318
716.1936	-0.0154
716.3733	0.025
716.5531	0.0024
716.7328	0.0209
716.9126	0.0161
717.0923	-0.0187
717.2719	0.0173
717.4516	0.0014
717.6312	-0.0108
717.8109	0.0504
717.9905	-0.0036
718.1701	0.0294
718.3496	-0.0107
718.5292	0.0021
718.7087	0.0189
718.8882	0.0128
719.0677	0.0121
719.2472	-0.0052
719.4267	-0.0068
719.6061	0.0262
719.7856	0.0038
719.965	-0.0011
720.1443	-0.0174
720.3237	-0.0266
720.5031	0.001
720.6824	0.0052
720.8617	0.0143
721.041	0.024
721.2203	-0.0141
721.3995	-0.0207
721.5788	0.0057
721.758	0.0268
721.9372	0.0217
722.1164	0.0006
722.2956	-0.002
722.4747	-0.011
722.6538	0.002
722.8329	0.0282
723.012	0.0278
723.1911	0.021
723.3702	0.0401
723.5492	-0.0079
723.7282	0.0089
723.9072	0.0301
724.0862	0.0409
724.2652	0.0263
724.4441	-0.0248
724.623	0.0081
724.8019	0.0056
724.9808	0.0233
725.1597	0.0053
725.3385	0.0005
725.5174	-0.0032
725.6962	0.0098
725.875	0.0048
726.0538	0.0068
726.2325	0.0372
726.4112	-0.0245
726.59	0.0052
726.7687	-0.0136
726.9474	0.0213
727.126	0.0148
727.3047	0.0158
727.4833	0.0171
727.6619	0.0155
727.8405	0.0234
728.0191	0.0258
728.1976	0.0098
728.3762	0.0152
728.5547	0.0097
728.7332	0.0185
728.9116	0.0178
729.0901	0.0221
729.2686	0.0208
729.447	-0.0017
729.6254	0.0055
729.8038	0.0152
729.9821	0.0036
730.1605	0.0154
730.3388	0.0012
730.5171	0.0172
730.6954	-0.006
730.8737	0.0239
731.0519	-0.0016
731.2302	-0.0012
731.4084	0.0049
731.5866	-0.0062
731.7648	-0.0049
731.9429	0.0221
732.1211	0.0058
732.2992	-0.0053
732.4773	0.0235
732.6554	0.009
732.8335	0.0284
733.0115	0.0251
733.1896	-0.0151
733.3676	0.0235
733.5456	0.0054
733.7235	0.0039
733.9015	0.0144
734.0794	0.0122
734.2574	-0.0071
734.4353	0.0094
734.6131	0.0024
734.791	-0.0029
734.9689	-0.0024
735.1467	-0.0086
735.3245	0.0353
735.5023	-0.006
735.68	0.0051
735.8578	0.008
736.0355	0.0009
736.2132	0.0023
736.3909	0.0142
736.5686	0.0012
736.7463	-0.0079
736.9239	0.0246
737.1015	0.0272
737.2791	0.0206
737.4567	0.0244
737.6343	-0.003
737.8118	0.0023
737.9894	0.0055
738.1669	-0.0005
738.3444	0.0106
738.5218	-0.0108
738.6993	0.0016
738.8767	0.0133
739.0541	0.0117
739.2315	-0.0038
739.4089	0.0035
739.5863	0.0104
739.7636	-0.0063
739.9409	-0.0092
740.1182	0.0111
740.2955	-0.0071
740.4728	0.0085
740.65	0.0026
740.8272	0.035
741.0044	-0.0259
741.1816	0.0395
741.3588	-0.0172
741.5359	0.0003
741.7131	0.029
741.8902	0.0077
742.0673	-0.0027
742.2444	0.0138
742.4214	-0.0009
742.5985	-0.0072
742.7755	0.0081
742.9525	-0.014
743.1295	-0.0332
743.3064	-0.0234
743.4834	0.0083
743.6603	0.0399
743.8372	-0.0356
744.0141	0.0233
744.191	0.0136
744.3678	-0.0203
744.5446	-0.002
744.7215	0.017
744.8982	0.0346
745.075	0.0452
745.2518	-0.002
745.4285	0.0102
745.6052	-0.0306
745.7819	0.0073
745.9586	0.0126
746.1353	-0.0484
746.3119	0.016
746.4885	0.025
746.6651	0.0002
746.8417	0.0126
747.0183	0.0239
747.1948	0.017
747.3714	0.0294
747.5479	0.0355
747.7244	0.0071
747.9008	0.0025
748.0773	0.0276
748.2537	0.0212
748.4301	0.0393
748.6065	-0.0239
748.7829	0.0048
748.9593	-0.0111
749.1356	-0.006
749.3119	0.0056
749.4882	0.0414
749.6645	0.0099
749.8408	0.0191
750.017	0.0246
750.1933	-0.0177
750.3695	0.0188
750.5457	-0.0035
750.7218	-0.013
750.898	-0.0163
751.0741	-0.0024
751.2502	-0.0099
751.4263	-0.0061
751.6024	-0.0011
751.7784	-0.0033
751.9545	-0.0031
752.1305	0.0176
752.3065	0.01
752.4825	0.0169
752.6584	0.0121
752.8344	-0.0031
753.0103	-0.0129
753.1862	-0.0017
753.3621	0.0128
753.5379	-0.0078
753.7138	0.0129
753.8896	-0.0019
754.0654	0.0002
754.2412	0.0243
754.417	0.0254
754.5927	-0.0005
754.7685	0.0065
754.9442	0.0216
755.1199	0.001
755.2956	-0.0104
755.4712	0.0153
755.6469	0.0004
755.8225	0.0157
755.9981	0.0166
756.1736	0.0048
756.3492	0.005
756.5248	0.0017
756.7003	-0.006
756.8758	0.0022
757.0513	0.0103
757.2267	0.0221
757.4022	-0.0037
757.5776	0.0007
757.753	0.0198
757.9284	-0.0032
758.1038	0.0144
758.2791	0.0043
758.4545	0.0001
758.6298	-0.0025
758.8051	0.0123
758.9803	-0.0006
759.1556	-0.0138
759.3308	-0.0099
759.506	0.0068
759.6812	0.0012
759.8564	0.0012
760.0316	-0.0048
760.2067	0.0144
760.3819	0.0099
760.557	0.0063
760.732	0.0065
760.9071	0.0113
761.0821	-0.0017
761.2572	-0.0034
761.4322	0.0192
761.6072	0.0046
761.7821	-0.022
761.9571	0.0283
762.132	0.0114
762.3069	0.0236
762.4818	0.0455
762.6567	0.0057
762.8316	0.0262
763.0064	0.0298
763.1812	0.0364
763.356	-0.0339
763.5308	0.0145
763.7055	0.0102
763.8803	0.0046
764.055	0.0099
764.2297	0.0089
764.4044	0.0152
764.579	0.0077
764.7537	-0.002
764.9283	0.0213
765.1029	-0.0001
765.2775	0.0085
765.4521	-0.0032
765.6266	0.0033
765.8011	0.0221
765.9756	0.0148
766.1501	-0.0208
766.3246	0.0154
766.4991	-0.0055
766.6735	0.029
766.8479	-0.0056
767.0223	0.0003
767.1967	-0.0174
767.371	-0.0064
767.5454	0.0121
767.7197	0.0254
767.894	-0.0018
768.0683	0.0144
768.2425	0.0214
768.4168	0.028
768.591	0.0101
768.7652	0.0183
768.9394	-0.0367
769.1135	-0.0105
769.2877	0.0112
769.4618	0.0327
769.6359	0.0031
769.81	0.0317
769.984	0.0293
770.1581	0.0185
770.3321	0.0337
770.5061	-0.0013
770.6801	0.011
770.8541	0.0221
771.028	0.032
771.202	0.021
771.3759	-0.0025
771.5498	-0.0027
771.7236	-0.0182
771.8975	0.0285
772.0713	0.0247
772.2451	0.0081
772.4189	-0.0089
772.5927	-0.0381
772.7665	-0.0002
772.9402	0.0136
773.1139	-0.0068
773.2876	-0.0003
773.4613	0.0025
773.635	0.0365
773.8086	0.0367
773.9822	0.0106
774.1558	0.0179
774.3294	0.0107
774.503	-0.0038
774.6765	-0.0144
774.8501	0.0079
775.0236	0.051
775.1971	0.0089
775.3705	-0.0027
775.544	-0.0052
775.7174	0.0516
775.8908	0.0228
776.0642	0.0998
776.2376	0.0451
776.4109	-0.0097
776.5843	-0.0022
776.7576	0.0004
776.9309	0.0271
777.1041	-0.0254
777.2774	-0.0489
777.4506	0.017
777.6238	-0.0547
777.797	-0.0128
777.9702	0.0177
778.1434	-0.0161
778.3165	-0.0358
778.4896	-0.0009
778.6627	0.0163
778.8358	0.0026
779.0089	-0.0051
779.1819	0.0095
779.3549	0.034
779.5279	-0.0225
779.7009	0.0423
779.8739	0.0367
780.0468	0.0387
780.2197	0.0257
780.3926	-0.045
780.5655	0.0431
780.7384	0.0081
780.9112	0.0045
781.0841	0.0235
781.2569	0.031
781.4297	0.0367
781.6024	0.0246
781.7752	0.0402
781.9479	0.0346
782.1206	0.0024
782.2933	0.0106
782.466	0.0227
782.6386	0.0066
782.8113	0.0103
782.9839	-0.0015
783.1565	-0.003
783.329	-0.0139
783.5016	0.0118
783.6741	-0.0033
783.8466	0.0231
784.0191	0.0301
784.1916	0.0157
784.3641	-0.0419
784.5365	0.0096
784.7089	-0.0127
784.8813	0.022
785.0537	0.0308
785.2261	0.0248
785.3984	0.001
785.5707	0.0101
785.743	0.0428
785.9153	-0.007
786.0876	-0.0284
786.2598	0.0041
786.432	0.0101
786.6042	0.0709
786.7764	-0.0059
786.9486	-0.014
787.1207	0.0556
787.2928	0.0364
787.4649	0.0068
787.637	-0.0073
787.8091	0.017
787.9811	0.0246
788.1532	0.009
788.3252	0.0097
788.4972	0.0143
788.6691	-0.0061
788.8411	-0.0157
789.013	0.0143
789.1849	-0.0357
789.3568	0.0164
789.5287	0.0447
789.7005	-0.0117
789.8723	-0.0441
790.0442	-0.0265
790.2159	-0.0087
790.3877	0.0337
790.5595	0.0453
790.7312	-0.0152
790.9029	0.0036
791.0746	-0.0006
791.2463	-0.0052
791.4179	-0.0068
791.5896	-0.0044
791.7612	0.0414
791.9328	0.0006
792.1044	-0.0323
792.2759	-0.0723
792.4474	-0.0221
792.619	0.0251
792.7905	0.0276
792.9619	0.0581
793.1334	0.0724
793.3048	0.0721
793.4762	0.0246
793.6476	-0.0151
793.819	-0.0324
793.9904	0.004
794.1617	-0.0239
794.333	0.0199
794.5043	0.0245
794.6756	0.009
794.8469	-0.0211
795.0181	0.0216
795.1893	0.0233
795.3605	0.0453
795.5317	0.0004
795.7029	-0.0185
795.874	-0.0079
796.0452	0.0056
796.2163	0.0439
796.3873	0.0752
796.5584	0.043
796.7294	0.0037
796.9005	0.0037
797.0715	-0.0208
797.2425	0.1354
797.4134	0.1148
797.5844	0.0056
797.7553	-0.0779
797.9262	0.0604
798.0971	0.0306
798.2679	0.0018
798.4388	0.0728
798.6096	0.0333
798.7804	0.0055
798.9512	-0.0075
799.122	0.011
799.2927	0.1119
799.4635	-0.0238
799.6342	-0.058
799.8049	0.0661
799.9755	-0.0072
800.1462	0.0377
800.3168	0.0568
800.4874	-0.0795
800.658	0.1437
800.8286	-0.0039
800.9991	0.0953
801.1696	-0.0897
801.3402	-0.0447
801.5106	-0.0392
801.6811	-0.0148
801.8516	0.0973
802.022	0.0105
802.1924	0.0861
802.3628	0.0231
802.5332	0.0196
802.7035	0.0961
802.8739	0.0892
803.0442	0.0104
803.2145	0.0209
803.3847	0.0086
803.555	0.056
803.7252	-0.0333
803.8954	-0.0294
804.0656	-0.0097
804.2358	-0.0587
804.4059	0.0346
804.5761	0.0028
804.7462	0.0721
804.9163	0.0615
805.0864	-0.0278
805.2564	-0.0212
805.4264	-0.0217
805.5965	0.0007
805.7665	0.0242
805.9364	0.0231
806.1064	0.0112
806.2763	0.0379
806.4462	0.0341
806.6161	0.0093
806.786	-0.0171
806.9559	0.0083
807.1257	-0.0075
807.2955	-0.0117
807.4653	0.003
807.6351	0.0929
807.8048	0.002
807.9746	-0.0177
808.1443	0.0257
808.314	0.0528
808.4837	0.0607
808.6533	-0.0039
808.8229	0.0264
808.9926	0.0288
809.1622	0.0348
809.3317	-0.0077
809.5013	0.0064
809.6708	0.0109
809.8403	0.0806
810.0098	0.0361
810.1793	0.0475
810.3488	-0.0307
810.5182	0.1136
810.6876	0.1032
810.857	0.0381
811.0264	0.0354
811.1958	0.041
811.3651	-0.0128
811.5344	0.1125
811.7037	0.0178
811.873	0.0981
812.0422	-0.0907
812.2115	0.0012
812.3807	-0.0563
812.5499	0.0393
812.7191	0.06
812.8882	-0.0864
813.0574	-0.0166
813.2265	0.0209
813.3956	0.0268
813.5646	-0.0296
813.7337	0.0543
813.9027	0.0243
814.0718	0.0743
814.2407	0.0538
814.4097	0.0662
814.5787	0.1028
814.7476	0.014
814.9165	-0.0214
815.0854	0.0663
815.2543	0.0228
815.4232	0.1616
815.592	0.1722
815.7608	-0.0549
815.9296	-0.0538
816.0984	0.0053
816.2671	-0.1853
816.4359	0.0943
816.6046	0.0015
816.7733	-0.0017
816.942	-0.0814
817.1106	0.037
817.2793	0.0345
817.4479	-0.0862
817.6165	0.0504
817.785	0.1025
817.9536	-0.058
818.1221	-0.0132
818.2906	-0.1181
818.4591	0.1064
818.6276	0.0505
818.7961	-0.0141
818.9645	0.0331
819.1329	0.4957
819.3013	-0.0047
819.4697	-0.0952
819.638	0.1393
819.8064	0.0466
819.9747	0.1221
820.143	-0.0778
820.3113	0.0445
820.4795	0.0181
820.6477	0.2221
820.816	0.0997
820.9842	0.0745
821.1523	0.0226
821.3205	0.0619
821.4886	-0.0963
821.6567	-0.0223
821.8248	0.1693
821.9929	-0.1684
822.1609	0.063
822.329	0.0586
822.497	0.0481
822.665	-0.0473
822.833	0.118
823.0009	0.1184
823.1688	0.178
823.3367	-0.1694
823.5046	0.1235
823.6725	0.0218
823.8404	0.1503
824.0082	-0.0697
824.176	0.0918
824.3438	0.0944
824.5116	-0.0111
824.6793	0.0296
824.847	0.0396
825.0147	0.0311
825.1824	0.1231
825.3501	-0.0124
825.5177	-0.0254
825.6854	-0.1043
825.853	0.0196
826.0206	-0.095
826.1881	0.0129
826.3557	-0.0018
826.5232	0.2136
826.6907	0.0131
826.8582	0.0979
827.0257	0.0615
827.1931	0.2104
827.3605	-0.1353
827.528	-0.1751
827.6953	-0.1683
827.8627	0.1055
828.03	0.0574
828.1974	0.0295
828.3647	0.0982
828.532	0.1318
828.6992	0.1607
828.8665	-0.2827
829.0337	-0.0709
829.2009	-0.1687
829.3681	-0.0495
829.5352	-0.3847
829.7024	0.4062
829.8695	0.0294
830.0366	0.1558
830.2037	0.1077
830.3707	0.0685
830.5378	-0.0345
830.7048	0.0118
830.8718	0.1891
831.0388	-0.0931
831.2057	0.08
831.3727	-0.3077
831.5396	0.2982
831.7065	-0.8021
831.8734	0.2852
832.0402	-0.0047
832.2071	-0.3998
832.3739	-0.2038
832.5407	-1.5147
832.7075	-0.525
832.8742	0.3553
833.041	0.1143
833.2077	0.0738
833.3744	-0.0482
833.541	0.3575
833.7077	-0.179
833.8743	0.2085
834.0409	0.2132
834.2075	0.1891
834.3741	-0.0562
834.5407	0.1301
834.7072	0.0577
834.8737	0.2532
835.0402	0.5286
835.2067	-0.1613
835.3731	0.0995
835.5395	0.2186
835.706	0.0051
835.8723	0.1501
836.0387	0.086
836.2051	0.7254
836.3714	0.1897
836.5377	0.2734
836.704	0.3563
836.8703	-0.1746
837.0365	-0.8989
837.2027	-0
837.3689	0.3294
837.5351	-0.0366
837.7013	0.161
837.8674	0.3694
838.0335	0.2878
838.1997	0.1114
838.3657	0.1313
838.5318	0.3157
838.6978	-0
838.8639	-0.3652
839.0299	0.3549
839.1958	0.4975
839.3618	-0
839.5277	0.0363
839.6937	-0.3309
839.8596	-0.0826
840.0254	-0.191
840.1913	-0.1019
840.3571	-0.1017
840.523	-1.1523
840.6888	-0.076
840.8545	-0.6496
841.0203	0.0722
841.186	-0
841.3517	-0.3006
841.5174	0.2533
841.6831	0.0304
841.8488	0.18
842.0144	0.3252
842.18	0.2845
842.3456	-0.5911
842.5112	-0
842.6767	-0.0311
842.8422	-0.1247
843.0077	0.325
843.1732	-0.2894
843.3387	0.2557
843.5042	-0
843.6696	-0
843.835	0.5806
844.0004	-0.0957
844.1657	-0.8451
844.3311	0.1105
844.4964	-0
844.6617	1.1641
844.827	-0
844.9923	0.6716
845.1575	-0
845.3227	-0.29
845.4879	0.1843
845.6531	0.0332
845.8183	0.3535
845.9834	-0.1997
846.1485	-0
846.3136	0.2309
846.4787	-0.2832
846.6438	0.3066
846.8088	-0
846.9738	-0
847.1388	0.4148
847.3038	0.4262
847.4687	0.9637
847.6337	-0.6921
847.7986	-0.1781
847.9635	0.051
848.1284	1.3004
848.2932	0.2666
848.458	-0
848.6228	0.3307
848.7876	0.0768
848.9524	-0.0996
849.1172	-1.837
849.2819	-0
849.4466	0.552
849.6113	-0
849.7759	-0
849.9406	-0.0427
850.1052	-1.033
850.2698	0.3424
850.4344	0.1737
850.599	-0.0813
850.7635	0.2876
850.928	0.4552
851.0925	0.224
851.257	0.2557
851.4215	0.1414
851.5859	0.0399
851.7503	-0
851.9147	0.0471
852.0791	-0.0747
852.2434	0.3597
852.4078	0.0445
852.5721	1.6427
852.7364	-0.2267
852.9007	-0.0129
853.0649	-0
853.2291	0.8841
853.3934	-0.3212
853.5575	0.0825
853.7217	0.1333
853.8859	-0.4081
854.05	-0.5879
854.2141	0.4311
854.3782	-0.3486
854.5423	-0.2874
854.7063	-0.0227
854.8703	0.3609
855.0343	-0.3007
855.1983	0.0115
855.3623	0.4799
855.5262	0.9327
855.6901	1.0707
855.854	0.0212
856.0179	-0.1835
856.1818	-0
856.3456	0.3801
856.5094	-0
856.6732	-0
856.837	0.3774
857.0008	2.0128
857.1645	-0.3322
857.3282	0.0817
857.4919	0.5386
857.6556	-0.2033
857.8192	0.2947
857.9828	0.3538
858.1465	0.0934
858.31	-0
858.4736	-0.6347
858.6372	-0
858.8007	0.0904
858.9642	0.3859
859.1277	0.788
859.2911	-0.5788
859.4546	-1.6335
859.618	1.6943
859.7814	-0
859.9448	-0
860.1081	0.2877
860.2715	-1.5147
860.4348	0.0478
860.5981	-0
860.7614	-0
860.9246	0.0777
861.0879	-0.1219
861.2511	-0.3051
861.4143	-0.2971
861.5774	-0.3091
861.7406	-0.1984
861.9037	-0.7837
862.0668	-0.6628
862.2299	0.3739
862.393	-0
862.556	-0
862.7191	-0.1313
862.8821	0.2761
863.0451	-0.1891
863.208	0.0962
863.371	-0.499
863.5339	0.2284
863.6968	0.1756
863.8597	-0.3524
864.0225	-0
864.1854	0.7761
864.3482	-0.5461
864.511	0.0058
864.6737	-0.1007
864.8365	0.0413
864.9992	-0
865.1619	-0.3881
865.3246	-1.7589
865.4873	-0.4441
865.65	0.2534
865.8126	0.5548
865.9752	1.3559
866.1378	-0.0651
866.3004	-0.0502
866.4629	-1.7404
866.6254	-0.3846
866.7879	-0.1028
866.9504	-0
867.1129	-0.0146
867.2753	-0.066
867.4377	0.4114
867.6001	-0
867.7625	0.0779
867.9249	-0
868.0872	0.0744
868.2495	-0
868.4118	-0
868.5741	-0.0699
868.7363	-0
868.8986	-0.5207
869.0608	-0.4537
869.223	-0.4362
869.3851	-0
869.5473	-0.1478
869.7094	-0
869.8715	-0
870.0336	0.1841
870.1957	-0
870.3577	0.7003
870.5197	0.8803
870.6817	-0.7845
870.8437	0.1581
871.0057	0.0801
871.1676	0.3554
871.3295	0.0508
871.4914	-1.2201
871.6533	0.5347
871.8151	-0
871.977	-0
872.1388	-0
872.3006	0.1922
872.4623	0.2074
872.6241	1.1085
872.7858	-0.1175
872.9475	-0
873.1092	-0.0978
873.2709	0.2924
873.4325	-1.5147
873.5941	-0.2626
873.7557	0.7649
873.9173	0.2647
874.0789	1.1568
874.2404	-0
874.4019	-0.1562
874.5634	-0
874.7249	-0
874.8863	0.1648
875.0478	-0.1867
875.2092	1.3508
875.3706	0.0802
875.5319	-0
875.6933	1.1667
875.8546	-0.6002
876.0159	0.2744
876.1772	0.1313
876.3385	-0
876.4997	0.0831
876.6609	-0.0091
876.8221	-0
876.9833	0.0301
877.1445	0.5241
877.3056	-1.2119
877.4667	-0
877.6278	-0
877.7889	-0.1297
877.9499	0.5094
878.111	-0.7117
878.272	0.1891
878.433	-0.1057
878.5939	0.2121
878.7549	-0.0321
878.9158	-0.2123
879.0767	1.087
879.2376	0.6108
879.3984	1.0616
879.5593	-0
879.7201	-1.1417
879.8809	-0
880.0417	-0.2051
880.2024	-0.1682
880.3632	-0.4813
880.5239	-0.2172
880.6846	-0.0699
880.8452	0.048
881.0059	-1.0042
881.1665	-0.261
881.3271	0.5207
881.4877	0.4628
881.6483	-1.2089
881.8088	-0
881.9693	-0.5404
882.1298	-0.5404
882.2903	-0.5404
