Data from D4ACN5uM420nmA_Absorbance_14-37-10-241.txt Node
Date: Fri Feb 21 14:37:10 GMT 2025
User: LASERRRRR
Spectrometer: FLMT03099
Trigger mode: 0
Integration Time (sec): 1.500000E-2
Scans to average: 1
Electric dark correction enabled: true
Nonlinearity correction enabled: false
Boxcar width: 0
XAxis mode: Wavelengths
Number of Pixels in Spectrum: 3648
>>>>>Begin Spectral Data<<<<<
179.3399	-0
179.5586	-0
179.7771	-0
179.9957	0.0993
180.2143	-0
180.4329	0.5002
180.6514	-0
180.8699	-0.0324
181.0885	-0.3909
181.307	0.0666
181.5255	0.977
181.744	-0
181.9625	0.3695
182.181	-0
182.3994	-0.3243
182.6179	0.036
182.8363	-0.0696
183.0547	-0.4138
183.2732	0.051
183.4916	0.247
183.71	0.2622
183.9284	-0.0522
184.1467	1.0131
184.3651	0.1074
184.5835	0.1867
184.8018	0.6262
185.0201	0.0783
185.2385	0.1441
185.4568	0.087
185.6751	0.2253
185.8934	0.1818
186.1117	0.1125
186.3299	0.232
186.5482	0.1912
186.7664	0.0741
186.9847	0.4355
187.2029	0.1341
187.4211	0.2494
187.6393	0.0339
187.8575	0.1839
188.0757	0.3673
188.2939	0.0677
188.512	0.2258
188.7302	0.2872
188.9483	0.1991
189.1665	0.5772
189.3846	0.261
189.6027	0.1984
189.8208	0.2524
190.0389	0.2155
190.257	-0.0024
190.475	-0.0179
190.6931	0.1578
190.9111	-0.0073
191.1292	0.2937
191.3472	0.1858
191.5652	0.5644
191.7832	0.1377
192.0012	0.1063
192.2192	0.0607
192.4371	0.1291
192.6551	0.12
192.873	0.1589
193.091	0.1799
193.3089	0.1814
193.5268	0.1762
193.7447	0.1553
193.9626	0.1486
194.1805	0.3472
194.3984	0.2121
194.6162	0.2388
194.8341	0.3172
195.0519	0.2705
195.2697	0.339
195.4875	0.3285
195.7054	0.2668
195.9231	0.1944
196.1409	0.3862
196.3587	0.2434
196.5765	0.3636
196.7942	0.2936
197.012	0.3311
197.2297	0.3499
197.4474	0.3864
197.6651	0.3042
197.8828	0.3809
198.1005	0.3777
198.3182	0.4405
198.5358	0.3568
198.7535	0.3742
198.9711	0.3481
199.1888	0.3144
199.4064	0.399
199.624	0.3766
199.8416	0.3274
200.0592	0.3577
200.2767	0.3687
200.4943	0.4645
200.7119	0.3538
200.9294	0.4416
201.1469	0.413
201.3645	0.4755
201.582	0.4004
201.7995	0.4559
202.017	0.3929
202.2344	0.4123
202.4519	0.3602
202.6694	0.4072
202.8868	0.4261
203.1042	0.4207
203.3217	0.3839
203.5391	0.4196
203.7565	0.3125
203.9739	0.375
204.1913	0.3418
204.4086	0.369
204.626	0.3749
204.8433	0.3647
205.0607	0.3592
205.278	0.3336
205.4953	0.3492
205.7126	0.3257
205.9299	0.3109
206.1472	0.3095
206.3644	0.3613
206.5817	0.3079
206.7989	0.318
207.0162	0.3017
207.2334	0.3208
207.4506	0.3162
207.6678	0.2834
207.885	0.3043
208.1022	0.2915
208.3194	0.2878
208.5365	0.2975
208.7537	0.2763
208.9708	0.2976
209.1879	0.3014
209.405	0.292
209.6222	0.2428
209.8392	0.2831
210.0563	0.2687
210.2734	0.2606
210.4905	0.2631
210.7075	0.2718
210.9245	0.2796
211.1416	0.2623
211.3586	0.2654
211.5756	0.2588
211.7926	0.2579
212.0096	0.2341
212.2265	0.2396
212.4435	0.2572
212.6604	0.2425
212.8774	0.2367
213.0943	0.2611
213.3112	0.2416
213.5281	0.2427
213.745	0.2418
213.9619	0.2349
214.1788	0.2603
214.3956	0.2506
214.6125	0.2475
214.8293	0.2221
215.0461	0.2365
215.2629	0.2443
215.4798	0.2343
215.6965	0.2373
215.9133	0.2277
216.1301	0.2185
216.3469	0.2404
216.5636	0.2367
216.7803	0.2277
216.9971	0.2393
217.2138	0.2428
217.4305	0.2347
217.6472	0.2272
217.8639	0.2402
218.0805	0.2314
218.2972	0.2445
218.5138	0.2485
218.7305	0.2386
218.9471	0.2299
219.1637	0.2533
219.3803	0.248
219.5969	0.2432
219.8135	0.2524
220.0301	0.251
220.2466	0.2468
220.4632	0.2574
220.6797	0.2564
220.8962	0.2509
221.1127	0.2547
221.3292	0.2542
221.5457	0.269
221.7622	0.2554
221.9787	0.2784
222.1951	0.2705
222.4116	0.2506
222.628	0.2671
222.8444	0.2637
223.0608	0.2762
223.2772	0.2779
223.4936	0.2754
223.71	0.2773
223.9264	0.2887
224.1427	0.2956
224.3591	0.2841
224.5754	0.2734
224.7917	0.2914
225.008	0.2932
225.2243	0.2899
225.4406	0.2885
225.6569	0.3119
225.8732	0.3011
226.0894	0.3012
226.3057	0.2916
226.5219	0.3167
226.7381	0.3016
226.9543	0.3116
227.1705	0.3122
227.3867	0.3078
227.6029	0.3185
227.8191	0.3386
228.0352	0.3318
228.2513	0.3488
228.4675	0.3407
228.6836	0.3451
228.8997	0.3452
229.1158	0.3502
229.3319	0.349
229.548	0.3554
229.764	0.3552
229.9801	0.3783
230.1961	0.3769
230.4121	0.3748
230.6282	0.3902
230.8442	0.387
231.0602	0.3812
231.2761	0.3848
231.4921	0.3892
231.7081	0.3877
231.924	0.4119
232.14	0.4075
232.3559	0.4054
232.5718	0.411
232.7877	0.4073
233.0036	0.4187
233.2195	0.4236
233.4353	0.4178
233.6512	0.4189
233.867	0.4263
234.0829	0.4361
234.2987	0.434
234.5145	0.433
234.7303	0.4393
234.9461	0.446
235.1619	0.4408
235.3776	0.4476
235.5934	0.4407
235.8091	0.4409
236.0249	0.4487
236.2406	0.4472
236.4563	0.4462
236.672	0.443
236.8877	0.4496
237.1034	0.4482
237.319	0.4482
237.5347	0.4514
237.7503	0.4455
237.966	0.4599
238.1816	0.4528
238.3972	0.4539
238.6128	0.4789
238.8284	0.4609
239.0439	0.4702
239.2595	0.4537
239.475	0.4641
239.6906	0.4566
239.9061	0.4564
240.1216	0.4637
240.3371	0.4567
240.5526	0.4681
240.7681	0.4649
240.9836	0.466
241.199	0.4543
241.4145	0.4582
241.6299	0.4552
241.8453	0.4467
242.0607	0.4473
242.2761	0.4428
242.4915	0.4359
242.7069	0.4296
242.9223	0.4327
243.1376	0.4369
243.353	0.4214
243.5683	0.4129
243.7836	0.4038
243.9989	0.4041
244.2142	0.3919
244.4295	0.3897
244.6448	0.3798
244.86	0.3683
245.0753	0.3599
245.2905	0.3533
245.5057	0.3467
245.721	0.3503
245.9362	0.3414
246.1514	0.3361
246.3665	0.3255
246.5817	0.319
246.7969	0.3189
247.012	0.3074
247.2271	0.3117
247.4423	0.2987
247.6574	0.2961
247.8725	0.2865
248.0876	0.2764
248.3026	0.275
248.5177	0.2656
248.7328	0.2615
248.9478	0.2603
249.1628	0.2578
249.3779	0.2489
249.5929	0.2499
249.8079	0.2498
250.0228	0.2345
250.2378	0.2393
250.4528	0.2368
250.6677	0.229
250.8827	0.2243
251.0976	0.2227
251.3125	0.2201
251.5274	0.2137
251.7423	0.2126
251.9572	0.2118
252.172	0.216
252.3869	0.2091
252.6017	0.2093
252.8166	0.2087
253.0314	0.202
253.2462	0.2014
253.461	0.2035
253.6758	0.2034
253.8906	0.1984
254.1053	0.1992
254.3201	0.1955
254.5348	0.1906
254.7496	0.1875
254.9643	0.1934
255.179	0.1932
255.3937	0.1916
255.6083	0.1935
255.823	0.1908
256.0377	0.1876
256.2523	0.1898
256.467	0.1901
256.6816	0.1859
256.8962	0.1885
257.1108	0.1898
257.3254	0.1879
257.54	0.1856
257.7545	0.1895
257.9691	0.1859
258.1836	0.1807
258.3981	0.179
258.6127	0.175
258.8272	0.1868
259.0417	0.184
259.2561	0.19
259.4706	0.184
259.6851	0.1842
259.8995	0.1822
260.114	0.1823
260.3284	0.1796
260.5428	0.1834
260.7572	0.1814
260.9716	0.1847
261.186	0.1836
261.4003	0.1821
261.6147	0.182
261.829	0.1819
262.0433	0.1874
262.2577	0.1832
262.472	0.1822
262.6863	0.1935
262.9005	0.1886
263.1148	0.1904
263.3291	0.1871
263.5433	0.1923
263.7576	0.1914
263.9718	0.1972
264.186	0.1973
264.4002	0.1937
264.6144	0.2018
264.8286	0.1983
265.0427	0.1964
265.2569	0.2026
265.471	0.2055
265.6851	0.1986
265.8993	0.1967
266.1134	0.1987
266.3275	0.2006
266.5415	0.2014
266.7556	0.2105
266.9697	0.2023
267.1837	0.2026
267.3978	0.2047
267.6118	0.1961
267.8258	0.2042
268.0398	0.2034
268.2538	0.2041
268.4677	0.1998
268.6817	0.2044
268.8957	0.1954
269.1096	0.1927
269.3235	0.2001
269.5374	0.2006
269.7514	0.2004
269.9652	0.195
270.1791	0.1912
270.393	0.2012
270.6068	0.1989
270.8207	0.1962
271.0345	0.1932
271.2483	0.2025
271.4622	0.2013
271.676	0.1961
271.8897	0.1991
272.1035	0.2009
272.3173	0.2024
272.531	0.2063
272.7448	0.1996
272.9585	0.1965
273.1722	0.2001
273.3859	0.2027
273.5996	0.2077
273.8133	0.2022
274.0269	0.2048
274.2406	0.2098
274.4542	0.2035
274.6679	0.2171
274.8815	0.2148
275.0951	0.2207
275.3087	0.2209
275.5223	0.2119
275.7358	0.2141
275.9494	0.2148
276.1629	0.2236
276.3765	0.2143
276.59	0.213
276.8035	0.2161
277.017	0.2249
277.2305	0.2178
277.444	0.2211
277.6574	0.2236
277.8709	0.2271
278.0843	0.223
278.2978	0.2283
278.5112	0.2229
278.7246	0.2175
278.938	0.2236
279.1513	0.2259
279.3647	0.2255
279.5781	0.2194
279.7914	0.2125
280.0047	0.2182
280.2181	0.2146
280.4314	0.212
280.6447	0.2161
280.8579	0.2092
281.0712	0.2137
281.2845	0.2107
281.4977	0.2081
281.711	0.2048
281.9242	0.2024
282.1374	0.2016
282.3506	0.2
282.5638	0.1993
282.7769	0.1955
282.9901	0.1993
283.2033	0.1977
283.4164	0.1958
283.6295	0.1978
283.8426	0.1981
284.0557	0.1987
284.2688	0.1983
284.4819	0.1934
284.695	0.1944
284.908	0.1938
285.1211	0.2018
285.3341	0.187
285.5471	0.1939
285.7601	0.1967
285.9731	0.1964
286.1861	0.196
286.3991	0.1948
286.612	0.1965
286.825	0.1903
287.0379	0.1869
287.2508	0.1942
287.4637	0.1877
287.6766	0.1835
287.8895	0.1873
288.1024	0.1888
288.3152	0.1923
288.5281	0.1864
288.7409	0.1902
288.9538	0.1858
289.1666	0.1833
289.3794	0.1869
289.5922	0.1861
289.8049	0.1849
290.0177	0.1865
290.2304	0.1851
290.4432	0.1867
290.6559	0.1915
290.8686	0.1823
291.0813	0.1845
291.294	0.1812
291.5067	0.1799
291.7194	0.1788
291.932	0.1813
292.1447	0.1811
292.3573	0.1849
292.5699	0.1839
292.7825	0.1754
292.9951	0.1822
293.2077	0.1796
293.4203	0.1842
293.6328	0.1809
293.8454	0.1866
294.0579	0.1827
294.2704	0.184
294.4829	0.1861
294.6954	0.1814
294.9079	0.1779
295.1204	0.1817
295.3328	0.1888
295.5453	0.183
295.7577	0.1788
295.9701	0.1845
296.1825	0.1771
296.3949	0.1798
296.6073	0.179
296.8197	0.1871
297.0321	0.1819
297.2444	0.1796
297.4567	0.1861
297.6691	0.1866
297.8814	0.1831
298.0937	0.1808
298.306	0.1824
298.5182	0.1862
298.7305	0.1811
298.9428	0.1837
299.155	0.1821
299.3672	0.1815
299.5794	0.1838
299.7916	0.1849
300.0038	0.1829
300.216	0.1845
300.4282	0.1807
300.6403	0.1856
300.8525	0.1822
301.0646	0.1892
301.2767	0.1791
301.4888	0.1836
301.7009	0.1825
301.913	0.1861
302.125	0.18
302.3371	0.1869
302.5491	0.1855
302.7612	0.19
302.9732	0.1865
303.1852	0.186
303.3972	0.1874
303.6092	0.1866
303.8211	0.1836
304.0331	0.1852
304.245	0.1868
304.457	0.1847
304.6689	0.1858
304.8808	0.1789
305.0927	0.1843
305.3046	0.179
305.5164	0.1779
305.7283	0.1771
305.9401	0.1688
306.152	0.1796
306.3638	0.1779
306.5756	0.1797
306.7874	0.1782
306.9992	0.1803
307.2109	0.1706
307.4227	0.1732
307.6344	0.1763
307.8462	0.1673
308.0579	0.1752
308.2696	0.1709
308.4813	0.1683
308.693	0.171
308.9046	0.1671
309.1163	0.1656
309.328	0.1646
309.5396	0.1648
309.7512	0.1629
309.9628	0.1611
310.1744	0.1589
310.386	0.1645
310.5976	0.1591
310.8091	0.1579
311.0207	0.1617
311.2322	0.1572
311.4437	0.1566
311.6552	0.1617
311.8667	0.1584
312.0782	0.1556
312.2897	0.1539
312.5012	0.1488
312.7126	0.1543
312.924	0.1533
313.1355	0.1561
313.3469	0.15
313.5583	0.147
313.7696	0.1483
313.981	0.1561
314.1924	0.1485
314.4037	0.1495
314.6151	0.1508
314.8264	0.1527
315.0377	0.1519
315.249	0.1564
315.4603	0.1461
315.6716	0.1571
315.8828	0.151
316.0941	0.1518
316.3053	0.1396
316.5165	0.1478
316.7277	0.1428
316.9389	0.1534
317.1501	0.1496
317.3613	0.1525
317.5724	0.1496
317.7836	0.1415
317.9947	0.1436
318.2058	0.1491
318.417	0.1482
318.6281	0.1473
318.8391	0.1529
319.0502	0.1488
319.2613	0.1439
319.4723	0.1458
319.6834	0.1466
319.8944	0.1432
320.1054	0.1436
320.3164	0.1413
320.5274	0.1443
320.7383	0.1398
320.9493	0.1472
321.1602	0.1477
321.3712	0.1462
321.5821	0.1373
321.793	0.1571
322.0039	0.1458
322.2148	0.1411
322.4257	0.1473
322.6365	0.1411
322.8474	0.154
323.0582	0.1467
323.269	0.1495
323.4798	0.1477
323.6906	0.1456
323.9014	0.1472
324.1122	0.1461
324.3229	0.1502
324.5337	0.1552
324.7444	0.1502
324.9551	0.15
325.1658	0.1523
325.3765	0.1497
325.5872	0.1503
325.7979	0.1574
326.0085	0.1559
326.2192	0.1517
326.4298	0.1508
326.6404	0.1595
326.851	0.1495
327.0616	0.1568
327.2722	0.1573
327.4828	0.16
327.6933	0.1642
327.9039	0.16
328.1144	0.1638
328.3249	0.1631
328.5354	0.1614
328.7459	0.1607
328.9564	0.1633
329.1669	0.1745
329.3773	0.1663
329.5878	0.1603
329.7982	0.1691
330.0086	0.1681
330.219	0.1673
330.4294	0.1613
330.6398	0.1639
330.8502	0.1697
331.0605	0.1646
331.2708	0.1695
331.4812	0.1688
331.6915	0.1697
331.9018	0.1632
332.1121	0.1759
332.3224	0.1655
332.5326	0.1708
332.7429	0.1737
332.9531	0.1717
333.1633	0.1618
333.3735	0.1636
333.5837	0.1707
333.7939	0.1643
334.0041	0.1664
334.2143	0.1638
334.4244	0.1679
334.6346	0.1644
334.8447	0.168
335.0548	0.1695
335.2649	0.166
335.475	0.1692
335.685	0.1635
335.8951	0.1542
336.1051	0.1612
336.3152	0.1603
336.5252	0.1643
336.7352	0.1647
336.9452	0.1652
337.1552	0.1618
337.3652	0.1578
337.5751	0.1609
337.7851	0.1614
337.995	0.1625
338.2049	0.1625
338.4148	0.1628
338.6247	0.1624
338.8346	0.1557
339.0445	0.1598
339.2543	0.1611
339.4642	0.1618
339.674	0.1579
339.8838	0.1623
340.0936	0.1627
340.3034	0.1634
340.5132	0.155
340.7229	0.1639
340.9327	0.17
341.1424	0.1635
341.3522	0.1573
341.5619	0.1651
341.7716	0.1652
341.9813	0.1692
342.1909	0.1715
342.4006	0.1772
342.6102	0.1631
342.8199	0.1651
343.0295	0.1689
343.2391	0.1741
343.4487	0.1788
343.6583	0.1811
343.8679	0.1698
344.0774	0.1774
344.287	0.1802
344.4965	0.1789
344.706	0.1801
344.9155	0.1745
345.125	0.1755
345.3345	0.1904
345.544	0.1867
345.7534	0.192
345.9629	0.1939
346.1723	0.1874
346.3817	0.1861
346.5911	0.1895
346.8005	0.1931
347.0099	0.1903
347.2193	0.1967
347.4286	0.1966
347.638	0.1888
347.8473	0.1932
348.0566	0.1895
348.2659	0.1907
348.4752	0.1954
348.6845	0.1941
348.8937	0.2013
349.103	0.1976
349.3122	0.189
349.5214	0.2005
349.7306	0.206
349.9398	0.1976
350.149	0.1942
350.3582	0.1981
350.5674	0.1962
350.7765	0.1999
350.9856	0.1953
351.1948	0.2041
351.4039	0.2018
351.613	0.1927
351.822	0.2009
352.0311	0.1948
352.2402	0.1902
352.4492	0.1941
352.6582	0.2005
352.8672	0.2017
353.0762	0.1963
353.2852	0.1913
353.4942	0.1981
353.7032	0.1879
353.9121	0.19
354.1211	0.1905
354.33	0.1943
354.5389	0.1919
354.7478	0.1881
354.9567	0.1933
355.1655	0.1899
355.3744	0.1887
355.5833	0.1863
355.7921	0.1955
356.0009	0.1935
356.2097	0.1822
356.4185	0.1882
356.6273	0.1864
356.8361	0.1867
357.0448	0.1865
357.2536	0.1901
357.4623	0.1892
357.671	0.1886
357.8797	0.1911
358.0884	0.1838
358.2971	0.1927
358.5057	0.1862
358.7144	0.1884
358.923	0.193
359.1316	0.1914
359.3402	0.1925
359.5488	0.1864
359.7574	0.1897
359.966	0.1903
360.1746	0.1846
360.3831	0.1962
360.5916	0.1878
360.8002	0.1967
361.0087	0.19
361.2172	0.1944
361.4256	0.192
361.6341	0.1924
361.8426	0.1927
362.051	0.1912
362.2594	0.1951
362.4678	0.1932
362.6762	0.1956
362.8846	0.1954
363.093	0.2055
363.3014	0.1963
363.5097	0.199
363.718	0.1998
363.9264	0.1994
364.1347	0.1913
364.343	0.2053
364.5513	0.1985
364.7595	0.2036
364.9678	0.1952
365.176	0.2061
365.3842	0.1982
365.5925	0.1972
365.8007	0.2053
366.0089	0.2054
366.217	0.2092
366.4252	0.2023
366.6333	0.2065
366.8415	0.2077
367.0496	0.2045
367.2577	0.2063
367.4658	0.1973
367.6739	0.2096
367.882	0.2111
368.09	0.2035
368.2981	0.2109
368.5061	0.2185
368.7141	0.2088
368.9221	0.2136
369.1301	0.2097
369.3381	0.2188
369.5461	0.2093
369.754	0.2118
369.962	0.2155
370.1699	0.2142
370.3778	0.2259
370.5857	0.2066
370.7936	0.2173
371.0015	0.2238
371.2093	0.2115
371.4172	0.2089
371.625	0.2218
371.8328	0.2075
372.0406	0.2277
372.2484	0.2279
372.4562	0.2212
372.664	0.2245
372.8717	0.2267
373.0795	0.221
373.2872	0.2199
373.4949	0.2277
373.7026	0.2178
373.9103	0.214
374.118	0.2204
374.3256	0.2274
374.5333	0.2273
374.7409	0.2255
374.9485	0.2237
375.1561	0.2233
375.3637	0.2264
375.5713	0.2344
375.7789	0.2227
375.9864	0.2255
376.194	0.233
376.4015	0.224
376.609	0.2244
376.8165	0.2278
377.024	0.2284
377.2315	0.2333
377.4389	0.222
377.6464	0.2238
377.8538	0.2374
378.0612	0.2396
378.2686	0.235
378.476	0.2363
378.6834	0.2338
378.8908	0.2418
379.0981	0.2333
379.3055	0.2396
379.5128	0.2343
379.7201	0.2425
379.9274	0.2382
380.1347	0.2321
380.342	0.2389
380.5492	0.232
380.7565	0.2336
380.9637	0.2383
381.1709	0.2388
381.3781	0.2413
381.5853	0.2328
381.7925	0.2293
381.9997	0.238
382.2068	0.2428
382.4139	0.2408
382.6211	0.2404
382.8282	0.2551
383.0353	0.2429
383.2424	0.2406
383.4494	0.2473
383.6565	0.2426
383.8635	0.2354
384.0706	0.2491
384.2776	0.2344
384.4846	0.2458
384.6916	0.2391
384.8986	0.2484
385.1055	0.2569
385.3125	0.247
385.5194	0.2371
385.7263	0.2358
385.9333	0.244
386.1402	0.2453
386.347	0.2386
386.5539	0.2533
386.7608	0.2386
386.9676	0.2473
387.1744	0.2445
387.3813	0.2406
387.5881	0.2334
387.7948	0.248
388.0016	0.2495
388.2084	0.2378
388.4151	0.2423
388.6219	0.2357
388.8286	0.2384
389.0353	0.2435
389.242	0.2433
389.4487	0.2322
389.6553	0.2388
389.862	0.2367
390.0686	0.242
390.2753	0.2381
390.4819	0.2391
390.6885	0.2371
390.8951	0.239
391.1016	0.2305
391.3082	0.2349
391.5147	0.2222
391.7213	0.2308
391.9278	0.227
392.1343	0.2321
392.3408	0.2289
392.5473	0.2358
392.7537	0.2272
392.9602	0.2194
393.1666	0.2234
393.373	0.2208
393.5794	0.2349
393.7858	0.2256
393.9922	0.2195
394.1986	0.2173
394.4049	0.211
394.6113	0.221
394.8176	0.2212
395.0239	0.2233
395.2302	0.213
395.4365	0.2253
395.6428	0.226
395.8491	0.2095
396.0553	0.2155
396.2615	0.2056
396.4678	0.2152
396.674	0.2142
396.8802	0.2132
397.0863	0.2093
397.2925	0.2119
397.4987	0.2029
397.7048	0.2148
397.9109	0.2049
398.117	0.2079
398.3231	0.2062
398.5292	0.1967
398.7353	0.2059
398.9413	0.2084
399.1474	0.2045
399.3534	0.2088
399.5594	0.2172
399.7654	0.198
399.9714	0.2104
400.1774	0.2112
400.3833	0.1977
400.5893	0.204
400.7952	0.2059
401.0011	0.1942
401.207	0.2028
401.4129	0.2042
401.6188	0.2089
401.8247	0.2084
402.0305	0.1974
402.2364	0.204
402.4422	0.2124
402.648	0.2042
402.8538	0.2046
403.0596	0.2046
403.2654	0.2025
403.4711	0.1922
403.6768	0.1983
403.8826	0.1992
404.0883	0.2003
404.294	0.2009
404.4997	0.2056
404.7054	0.2048
404.911	0.2021
405.1167	0.2012
405.3223	0.199
405.5279	0.1944
405.7335	0.1973
405.9391	0.2
406.1447	0.2025
406.3502	0.1981
406.5558	0.1954
406.7613	0.2031
406.9668	0.1967
407.1724	0.1976
407.3778	0.2097
407.5833	0.1942
407.7888	0.2027
407.9942	0.2019
408.1997	0.1988
408.4051	0.2023
408.6105	0.2148
408.8159	0.1971
409.0213	0.2045
409.2267	0.2088
409.432	0.1981
409.6374	0.2045
409.8427	0.2007
410.048	0.202
410.2533	0.2096
410.4586	0.2028
410.6639	0.2129
410.8691	0.1966
411.0744	0.2054
411.2796	0.2034
411.4848	0.2036
411.69	0.2009
411.8952	0.2107
412.1004	0.2073
412.3056	0.1975
412.5107	0.2011
412.7158	0.2137
412.921	0.201
413.1261	0.2059
413.3312	0.1973
413.5362	0.2032
413.7413	0.1973
413.9464	0.2014
414.1514	0.1922
414.3564	0.2038
414.5614	0.1932
414.7664	0.1864
414.9714	0.1898
415.1764	0.2002
415.3813	0.1917
415.5863	0.1986
415.7912	0.1931
415.9961	0.1956
416.201	0.203
416.4059	0.191
416.6108	0.202
416.8156	0.1944
417.0205	0.1955
417.2253	0.1951
417.4301	0.1963
417.6349	0.1961
417.8397	0.1871
418.0445	0.1953
418.2492	0.189
418.454	0.1975
418.6587	0.193
418.8634	0.1968
419.0681	0.2014
419.2728	0.1872
419.4775	0.1957
419.6822	0.1867
419.8868	0.1891
420.0915	0.1814
420.2961	0.1831
420.5007	0.1835
420.7053	0.1835
420.9099	0.1861
421.1144	0.1835
421.319	0.1748
421.5235	0.1775
421.728	0.1848
421.9325	0.1833
422.137	0.1841
422.3415	0.1756
422.546	0.1794
422.7504	0.1813
422.9549	0.1859
423.1593	0.1701
423.3637	0.172
423.5681	0.1814
423.7725	0.179
423.9769	0.1862
424.1812	0.1774
424.3856	0.1694
424.5899	0.1691
424.7942	0.1776
424.9985	0.177
425.2028	0.1764
425.4071	0.175
425.6113	0.1743
425.8156	0.1701
426.0198	0.1738
426.224	0.1688
426.4282	0.1672
426.6324	0.1689
426.8366	0.1544
427.0407	0.1611
427.2449	0.174
427.449	0.1675
427.6531	0.1723
427.8572	0.1644
428.0613	0.1732
428.2654	0.1633
428.4694	0.147
428.6735	0.1606
428.8775	0.1533
429.0815	0.1532
429.2855	0.151
429.4895	0.1499
429.6935	0.1496
429.8975	0.1463
430.1014	0.1557
430.3053	0.1624
430.5093	0.1493
430.7132	0.1364
430.9171	0.1397
431.1209	0.1521
431.3248	0.1401
431.5286	0.1377
431.7325	0.15
431.9363	0.1382
432.1401	0.136
432.3439	0.1393
432.5477	0.1345
432.7514	0.1274
432.9552	0.135
433.1589	0.1204
433.3627	0.1298
433.5664	0.1252
433.7701	0.135
433.9737	0.1225
434.1774	0.1284
434.3811	0.1212
434.5847	0.1245
434.7883	0.1225
434.9919	0.1171
435.1955	0.1216
435.3991	0.1207
435.6027	0.1148
435.8062	0.1273
436.0098	0.1157
436.2133	0.1105
436.4168	0.1167
436.6203	0.107
436.8238	0.1128
437.0272	0.1081
437.2307	0.1055
437.4341	0.1129
437.6375	0.1056
437.841	0.0957
438.0443	0.1085
438.2477	0.0912
438.4511	0.0952
438.6545	0.0976
438.8578	0.095
439.0611	0.0969
439.2644	0.095
439.4677	0.0899
439.671	0.0934
439.8743	0.0923
440.0775	0.083
440.2808	0.0942
440.484	0.0838
440.6872	0.0951
440.8904	0.0763
441.0936	0.0886
441.2967	0.0722
441.4999	0.072
441.703	0.0718
441.9062	0.0808
442.1093	0.0817
442.3124	0.0735
442.5155	0.0841
442.7185	0.0659
442.9216	0.0781
443.1246	0.0777
443.3276	0.0688
443.5307	0.0697
443.7337	0.0707
443.9366	0.0691
444.1396	0.0641
444.3426	0.0683
444.5455	0.0639
444.7484	0.0653
444.9513	0.0658
445.1542	0.0651
445.3571	0.0636
445.56	0.0572
445.7628	0.0617
445.9657	0.0614
446.1685	0.0684
446.3713	0.0647
446.5741	0.0647
446.7769	0.0649
446.9797	0.0507
447.1824	0.0529
447.3852	0.0474
447.5879	0.0549
447.7906	0.0491
447.9933	0.0476
448.196	0.0451
448.3986	0.0523
448.6013	0.0399
448.8039	0.0494
449.0066	0.0546
449.2092	0.046
449.4118	0.0456
449.6143	0.0461
449.8169	0.0495
450.0195	0.0485
450.222	0.0503
450.4245	0.0424
450.627	0.036
450.8295	0.0408
451.032	0.0447
451.2345	0.0352
451.4369	0.0367
451.6394	0.0336
451.8418	0.0464
452.0442	0.0382
452.2466	0.0333
452.449	0.0386
452.6513	0.0235
452.8537	0.0243
453.056	0.0362
453.2583	0.0288
453.4607	0.0209
453.663	0.0328
453.8652	0.0254
454.0675	0.0359
454.2697	0.0291
454.472	0.0304
454.6742	0.0337
454.8764	0.0334
455.0786	0.0239
455.2808	0.0244
455.4829	0.0315
455.6851	0.0218
455.8872	0.021
456.0893	0.0208
456.2915	0.024
456.4935	0.0368
456.6956	0.0273
456.8977	0.0201
457.0997	0.0324
457.3018	0.0193
457.5038	0.0266
457.7058	0.0323
457.9078	0.0255
458.1098	0.0225
458.3117	0.033
458.5137	0.0157
458.7156	0.026
458.9175	0.0244
459.1194	0.0199
459.3213	0.0262
459.5232	0.0293
459.725	0.0261
459.9269	0.0171
460.1287	0.0152
460.3305	0.0281
460.5323	0.0217
460.7341	0.0236
460.9359	0.0153
461.1376	0.0172
461.3394	0.0253
461.5411	0.0204
461.7428	0.0243
461.9445	0.0148
462.1462	0.0104
462.3479	0.0237
462.5495	0.0183
462.7512	0.0252
462.9528	0.0095
463.1544	0.0162
463.356	0.0091
463.5576	0.0233
463.7592	0.0173
463.9607	0.0125
464.1623	0.0199
464.3638	0.0149
464.5653	0.0187
464.7668	0.0188
464.9683	0.0132
465.1697	0.0153
465.3712	0.0029
465.5726	0.0102
465.7741	0.0189
465.9755	0.0134
466.1769	0.0057
466.3782	0.0147
466.5796	0.0094
466.7809	0.0182
466.9823	0.0125
467.1836	0.0134
467.3849	0.0125
467.5862	0.0086
467.7875	0.0055
467.9887	0.0164
468.19	0.0086
468.3912	0.0144
468.5924	0.0028
468.7936	0.014
468.9948	-0.0019
469.196	0.0052
469.3972	0.0065
469.5983	0.0086
469.7994	0.0134
470.0006	0.0087
470.2017	0.0166
470.4027	0.0226
470.6038	0.0095
470.8049	0.0103
471.0059	0.0086
471.2069	0.009
471.408	0.0136
471.6089	0.0106
471.8099	0.0135
472.0109	0.0015
472.2119	0.0127
472.4128	0.0062
472.6137	0.0156
472.8146	0.0108
473.0155	0.0248
473.2164	0.0114
473.4173	0.0035
473.6181	0.0042
473.819	0.0061
474.0198	-0.0039
474.2206	0.0115
474.4214	0.0131
474.6222	-0.0024
474.8229	0.0082
475.0237	0.0043
475.2244	0.0139
475.4251	0.0082
475.6258	-0.0015
475.8265	0.0162
476.0272	0.0044
476.2278	0.0186
476.4285	0.0105
476.6291	0.0041
476.8297	0.0165
477.0303	-0.0016
477.2309	0.0111
477.4315	0.0078
477.632	0.0028
477.8326	0.0079
478.0331	0.0165
478.2336	0.0097
478.4341	0.0113
478.6346	0.0064
478.8351	0.002
479.0355	0.0093
479.236	0.0114
479.4364	0.0087
479.6368	0.0102
479.8372	0.0109
480.0376	0.0052
480.2379	0.011
480.4383	0.0165
480.6386	-0.0015
480.8389	0.0052
481.0392	0.0136
481.2395	0.0139
481.4398	0.003
481.6401	0.0099
481.8403	0.0074
482.0405	0.0076
482.2408	0.0036
482.441	0.016
482.6411	0.0087
482.8413	0.0033
483.0415	0.0145
483.2416	0.0051
483.4417	0.0103
483.6419	0.0047
483.8419	-0.0009
484.042	0.011
484.2421	0.0034
484.4422	0.0003
484.6422	0.002
484.8422	0.0055
485.0422	0.0071
485.2422	0.0042
485.4422	0.0076
485.6422	0.0054
485.8421	0.0076
486.042	0.0119
486.242	0.0022
486.4419	0.0088
486.6417	0.0056
486.8416	0.0089
487.0415	0.0061
487.2413	0.0046
487.4411	0.0036
487.641	0.0004
487.8408	0.0066
488.0405	0.0119
488.2403	-0.005
488.4401	0.0075
488.6398	0.0069
488.8395	0.0055
489.0392	0.0128
489.2389	0.0036
489.4386	-0.0068
489.6383	0.0085
489.8379	0.0059
490.0376	0
490.2372	-0.0028
490.4368	0.0001
490.6364	-0.0002
490.836	0.0042
491.0355	-0.0023
491.2351	-0
491.4346	0.0093
491.6341	-0.0004
491.8336	0.0055
492.0331	-0.0005
492.2326	0.0061
492.432	0.0025
492.6315	0.0091
492.8309	0.0033
493.0303	0.0064
493.2297	0.0066
493.4291	-0.001
493.6284	0.0161
493.8278	0.0068
494.0271	0.0094
494.2264	-0.0082
494.4257	0.0075
494.625	0.0057
494.8243	-0.0023
495.0236	0.0105
495.2228	0.0094
495.422	0.0087
495.6213	0.0068
495.8205	0.0077
496.0196	0.0046
496.2188	0.009
496.418	0.008
496.6171	-0.0005
496.8162	0.0063
497.0153	0.0098
497.2144	-0.0006
497.4135	0.0027
497.6126	0.0015
497.8116	0.0007
498.0107	0.0037
498.2097	0.0038
498.4087	0.0022
498.6077	-0.0043
498.8067	0.0066
499.0056	-0.0012
499.2046	0.0116
499.4035	0.004
499.6024	0.0005
499.8013	0.0121
500.0002	0.005
500.199	0.0118
500.3979	0.0035
500.5967	-0.0007
500.7956	0.0104
500.9944	-0.0015
501.1932	0.0046
501.3919	0.012
501.5907	0.0025
501.7895	0.0036
501.9882	0.0052
502.1869	0.0074
502.3856	0.0019
502.5843	0.0026
502.783	0.0023
502.9816	0.0061
503.1803	-0.0005
503.3789	0.0054
503.5775	-0.0015
503.7761	-0.0006
503.9747	0.0029
504.1732	-0.013
504.3718	0.017
504.5703	0.0054
504.7689	-0.0037
504.9674	-0.0014
505.1658	-0.0016
505.3643	0.0068
505.5628	0.0044
505.7612	0.0097
505.9597	-0.0014
506.1581	0.0065
506.3565	0.0015
506.5549	0.003
506.7532	-0.0028
506.9516	0.0036
507.1499	0.0056
507.3482	-0.0001
507.5465	0.0063
507.7448	0.005
507.9431	0.007
508.1414	0.0041
508.3396	0.0002
508.5379	-0.0018
508.7361	0.0029
508.9343	0.009
509.1325	0.0119
509.3306	0.0013
509.5288	-0.0085
509.7269	0.0037
509.9251	0.0097
510.1232	0.0025
510.3213	0.005
510.5193	-0.0017
510.7174	0.0031
510.9154	0.0107
511.1135	-0.0023
511.3115	-0.002
511.5095	0.0007
511.7075	0.0053
511.9055	0.0002
512.1034	0.0055
512.3014	0.0013
512.4993	0.0043
512.6972	-0.0023
512.8951	0.0009
513.093	0.0009
513.2908	0.0106
513.4887	0.001
513.6865	0.004
513.8844	0.0075
514.0822	-0.0001
514.2799	-0.0078
514.4777	-0.0042
514.6755	0.0002
514.8732	-0.0031
515.0709	0.005
515.2687	0.0038
515.4664	0.0021
515.664	0.0011
515.8617	0.0076
516.0594	-0.0003
516.257	-0.0003
516.4546	0.0159
516.6522	-0.0029
516.8498	-0.0026
517.0474	0.003
517.2449	-0.0025
517.4425	-0.0025
517.64	0.0029
517.8375	0.0035
518.035	-0.0099
518.2325	-0.0035
518.43	-0.0084
518.6274	-0.002
518.8249	-0.0134
519.0223	0.0131
519.2197	0.0069
519.4171	-0.0058
519.6145	0.0091
519.8118	-0.0036
520.0092	-0.0011
520.2065	0.0079
520.4038	0.0036
520.6011	-0.0028
520.7984	0.0025
520.9956	0.004
521.1929	-0.0002
521.3901	0.0041
521.5874	0.0035
521.7846	-0.0013
521.9818	-0.0012
522.1789	-0.0129
522.3761	0.0104
522.5732	0.007
522.7704	-0.0019
522.9675	-0.0054
523.1646	-0.0002
523.3617	0.0122
523.5587	-0.0017
523.7558	0.0054
523.9528	0.0099
524.1498	-0.0001
524.3468	-0.0036
524.5438	0.0071
524.7408	-0.0066
524.9378	0.0048
525.1347	0.0078
525.3316	-0.004
525.5285	-0.0044
525.7254	0.0075
525.9223	0.01
526.1192	0.0048
526.316	0.0094
526.5129	0.0129
526.7097	-0.0046
526.9065	0.0077
527.1033	-0.01
527.3	-0.0002
527.4968	0.0073
527.6935	-0.0129
527.8903	-0.0001
528.087	0.002
528.2837	0.0108
528.4804	-0.0056
528.677	-0.0018
528.8737	-0.005
529.0703	0.0012
529.2669	0.0062
529.4635	-0.0025
529.6601	0.0032
529.8567	-0.005
530.0532	-0.0041
530.2498	-0.0084
530.4463	-0.0124
530.6428	0.0056
530.8393	0.0086
531.0358	-0.0058
531.2322	-0.0029
531.4287	-0.0012
531.6251	-0.0096
531.8215	-0.0026
532.0179	-0.0041
532.2143	0.0027
532.4107	0.0167
532.607	-0.0089
532.8034	-0.0081
532.9997	-0.0043
533.196	-0.006
533.3923	0.0037
533.5886	0.0082
533.7848	0.0008
533.9811	0.0004
534.1773	-0.0001
534.3735	0.0006
534.5697	0.0036
534.7659	0.0036
534.9621	-0.0055
535.1582	0.003
535.3544	0.0048
535.5505	-0.0021
535.7466	0.007
535.9427	0.0046
536.1387	-0.0044
536.3348	0.0067
536.5308	-0.0007
536.7269	0.0004
536.9229	0.0017
537.1189	0.0062
537.3148	0.0032
537.5108	-0.0046
537.7068	0.0071
537.9027	-0.0109
538.0986	0.0026
538.2945	-0.0017
538.4904	-0.0095
538.6863	-0.0085
538.8821	0.0041
539.078	0.0052
539.2738	0.0063
539.4696	-0.0053
539.6654	-0.0006
539.8611	0.0014
540.0569	0.0063
540.2526	0.0119
540.4484	-0.0108
540.6441	-0.0045
540.8398	0.0129
541.0355	0.0002
541.2311	-0.0018
541.4268	0.0114
541.6224	0.0187
541.818	0.0072
542.0136	0.0093
542.2092	0.0124
542.4048	-0.003
542.6003	0.0034
542.7959	0.0074
542.9914	0.0077
543.1869	0.0029
543.3824	0.0063
543.5779	0.0113
543.7734	0.0132
543.9688	0.0094
544.1642	-0.0101
544.3596	0.0075
544.555	0.0072
544.7504	0.0084
544.9458	0.0004
545.1411	-0.0031
545.3365	0.0114
545.5318	0.0041
545.7271	0.0058
545.9224	-0.0061
546.1177	0.0119
546.3129	0.0082
546.5081	0.0045
546.7034	0.0037
546.8986	-0.0009
547.0938	0.0078
547.289	0.0116
547.4841	0.0017
547.6793	-0.0011
547.8744	0.01
548.0695	-0.0014
548.2646	0.0134
548.4597	0.0002
548.6548	0.0159
548.8498	0.0087
549.0448	0.0054
549.2399	0.0146
549.4349	0.0079
549.6298	0.0123
549.8248	-0.0067
550.0198	0.0072
550.2147	0.0071
550.4096	-0.0002
550.6045	0.008
550.7994	-0.0065
550.9943	0.0102
551.1892	-0.0087
551.384	0.0117
551.5788	0.009
551.7737	0.0069
551.9685	0.0093
552.1632	0.0045
552.358	0.0052
552.5528	0.0043
552.7475	0.005
552.9422	0.0117
553.1369	0.0094
553.3316	0.0077
553.5263	0.0186
553.7209	0.0025
553.9156	-0.0013
554.1102	0.011
554.3048	0.0053
554.4994	0.0056
554.694	0.0039
554.8885	0.0124
555.0831	0.0076
555.2776	-0.0014
555.4721	0.0067
555.6666	0.0008
555.8611	0.0094
556.0555	0.0008
556.25	0.007
556.4444	-0.0005
556.6388	0.0068
556.8332	0.0023
557.0276	0.0078
557.222	-0.0018
557.4163	-0.0003
557.6107	0.0007
557.805	0.0001
557.9993	0.0091
558.1936	-0.0076
558.3879	0.0096
558.5821	0.0023
558.7764	-0.0068
558.9706	0.002
559.1648	0.0022
559.359	0.0028
559.5532	-0.0031
559.7473	-0.0009
559.9415	0
560.1356	0.019
560.3297	0.0028
560.5238	0.0089
560.7179	-0.0021
560.9119	0.0013
561.106	-0.0068
561.3	0.0091
561.494	-0.0051
561.688	-0.0029
561.882	0.0109
562.076	0.0059
562.2699	0.0163
562.4639	0.0174
562.6578	0.0031
562.8517	0.0036
563.0456	0.0063
563.2395	0.0085
563.4333	0.0093
563.6272	0.0067
563.821	-0.0004
564.0148	0.0051
564.2086	0.0071
564.4024	0.0055
564.5961	0.0005
564.7899	0.0131
564.9836	0.0026
565.1773	0.0202
565.371	0.0033
565.5647	0.0081
565.7584	0.0153
565.952	0.0097
566.1456	0.0005
566.3393	0.0024
566.5329	0.0092
566.7264	0.0047
566.92	0.0057
567.1136	-0.0027
567.3071	0.0024
567.5006	0.0134
567.6941	0.0042
567.8876	0.007
568.0811	0.018
568.2745	0.0022
568.468	0.0093
568.6614	0.0139
568.8548	0.0067
569.0482	0.0068
569.2416	0.0078
569.4349	0.0063
569.6283	0.0023
569.8216	0.0121
570.0149	0.0066
570.2082	0.0111
570.4015	0.0084
570.5947	0.0028
570.788	0.0084
570.9812	0.0062
571.1744	0.0057
571.3676	0.0105
571.5608	0.0047
571.754	0.018
571.9471	0.0093
572.1402	0.0048
572.3333	0.005
572.5264	0.0037
572.7195	0.0067
572.9126	0.004
573.1057	0.0116
573.2987	0.0059
573.4917	0.0084
573.6847	0.0027
573.8777	0.009
574.0707	0.006
574.2636	0.0047
574.4566	0.0065
574.6495	0.0044
574.8424	0.0089
575.0353	0.0111
575.2281	0.007
575.421	0.0059
575.6138	0.0043
575.8067	0.0099
575.9995	0.0064
576.1923	0.0092
576.385	0.0097
576.5778	0.0113
576.7706	0.0088
576.9633	0.008
577.156	-0.0009
577.3487	0.0076
577.5414	0.0059
577.734	0.0064
577.9267	0.0094
578.1193	0.0108
578.3119	0.0055
578.5045	0.0069
578.6971	0.0021
578.8897	-0.001
579.0822	0.0121
579.2747	0.0093
579.4673	0.0049
579.6598	0.0085
579.8522	0.0049
580.0447	0.0082
580.2372	0.0091
580.4296	0.0092
580.622	0.0039
580.8144	0.0097
581.0068	0.005
581.1992	0.0068
581.3915	0.0001
581.5839	0.0094
581.7762	0.0064
581.9685	0.009
582.1608	0.0073
582.353	0.0094
582.5453	0.0102
582.7375	0.0081
582.9298	-0.0022
583.122	0.0026
583.3142	0.006
583.5063	0.0047
583.6985	0.0062
583.8906	0.0033
584.0827	0.0079
584.2749	0.0042
584.4669	0.0066
584.659	0.0088
584.8511	0.0092
585.0431	0.0113
585.2352	0.0052
585.4272	0.0058
585.6192	0.0067
585.8111	0.004
586.0031	0.0053
586.195	0.0061
586.387	0.0073
586.5789	0.0106
586.7708	0.0139
586.9627	0.0099
587.1545	0.0067
587.3464	0.0074
587.5382	0.0008
587.73	0.0112
587.9218	0.0064
588.1136	0.0044
588.3053	0.0071
588.4971	0.006
588.6888	0.0066
588.8805	0.0056
589.0722	0.0122
589.2639	0.0012
589.4556	0.009
589.6472	0.0122
589.8389	0.0049
590.0305	0.0077
590.2221	0.0149
590.4137	0.0061
590.6052	0.0033
590.7968	0.0044
590.9883	0.0041
591.1798	0.0107
591.3713	0.0094
591.5628	0.0159
591.7543	0.0049
591.9458	0.0055
592.1372	0.0143
592.3286	0.0016
592.52	0.0075
592.7114	0.0075
592.9028	0.0058
593.0941	0.0069
593.2855	0.0088
593.4768	0.0146
593.6681	0.0088
593.8594	0.0106
594.0506	0.0022
594.2419	0.0054
594.4331	0.0132
594.6244	0.0011
594.8156	0.0063
595.0067	0.004
595.1979	0.0031
595.3891	0.0071
595.5802	0.009
595.7713	0.0081
595.9624	0.0128
596.1535	0.0122
596.3446	-0.0002
596.5357	0.0128
596.7267	0.0049
596.9177	0.0084
597.1087	0.0043
597.2997	0.0072
597.4907	0.0052
597.6817	0.0077
597.8726	0.0134
598.0635	0.0058
598.2544	0.015
598.4453	0.0118
598.6362	0.008
598.827	0.0046
599.0179	0.0065
599.2087	0.013
599.3995	0.0103
599.5903	0.0123
599.7811	0.0113
599.9718	0.0076
600.1626	0.0031
600.3533	0.0085
600.544	0.0078
600.7347	0.0074
600.9254	0.0132
601.116	0.0062
601.3067	0.0067
601.4973	0.01
601.6879	0.0051
601.8785	0.0127
602.0691	0.0062
602.2596	0.0091
602.4502	0.0057
602.6407	0.0075
602.8312	0.0067
603.0217	0.0092
603.2122	0.0089
603.4027	0.0073
603.5931	0.0096
603.7835	0.0096
603.9739	0.0031
604.1643	0.0113
604.3547	0.0142
604.5451	0.012
604.7354	0.004
604.9257	0.0114
605.116	0.0031
605.3063	0.0054
605.4966	0.0062
605.6869	0.0148
605.8771	0.01
606.0673	0.0136
606.2575	0.0051
606.4477	0.0154
606.6379	0.0031
606.8281	0.0104
607.0182	0.0082
607.2083	0.0054
607.3985	0.0105
607.5885	0.0068
607.7786	0.0154
607.9687	0.0108
608.1587	0.0111
608.3488	0.0054
608.5388	0.0027
608.7288	0.0025
608.9187	0.0019
609.1087	0.0056
609.2986	0.0124
609.4886	0.0075
609.6785	0.0095
609.8684	0.0047
610.0582	0.0043
610.2481	0.0038
610.4379	0.0115
610.6278	0.0082
610.8176	0.0128
611.0074	0.0056
611.1971	0.0045
611.3869	0.0063
611.5766	-0.0033
611.7664	0.0126
611.9561	0.007
612.1458	0.0093
612.3354	0.0057
612.5251	0.0039
612.7147	0.0155
612.9044	0.009
613.094	0.0074
613.2836	0.0012
613.4731	0.0089
613.6627	0.0076
613.8522	0.0144
614.0417	0.0134
614.2313	0.0101
614.4207	0.0089
614.6102	0.0138
614.7997	0.0127
614.9891	0.0042
615.1785	0.004
615.3679	0.0155
615.5573	0.0097
615.7467	0.0014
615.9361	0.0078
616.1254	0.0151
616.3147	0.0023
616.504	0.0087
616.6933	0.0059
616.8826	-0.0025
617.0718	0.0087
617.2611	0.0056
617.4503	0.0124
617.6395	0.0095
617.8287	0.0111
618.0179	0.0026
618.207	0.0133
618.3961	-0.0025
618.5853	0.0137
618.7744	0.0088
618.9634	0.0167
619.1525	0.0041
619.3416	0.0007
619.5306	0.0111
619.7196	0.0205
619.9086	0.0091
620.0976	-0.0001
620.2866	0.0196
620.4755	0.0015
620.6645	0.0109
620.8534	0.0038
621.0423	0.0034
621.2312	0.0083
621.42	0.0151
621.6089	0.0159
621.7977	0.014
621.9865	0.0137
622.1753	0.0079
622.3641	0.0038
622.5529	0.0009
622.7416	0.0039
622.9303	-0.0017
623.1191	0.0064
623.3078	0.0066
623.4964	0.0107
623.6851	0.0136
623.8737	-0.0017
624.0624	-0.0116
624.251	0.0108
624.4396	-0.0006
624.6282	0.0124
624.8167	0.0001
625.0053	0.0095
625.1938	-0.0054
625.3823	0.0053
625.5708	0.0069
625.7593	0.0056
625.9477	0.0068
626.1362	0.0019
626.3246	0.0051
626.513	0.0091
626.7014	0.009
626.8898	0.0184
627.0781	0.0052
627.2665	0.0177
627.4548	-0.0046
627.6431	0.017
627.8314	0.0217
628.0197	0.0093
628.2079	-0.0009
628.3962	0.0057
628.5844	0.0065
628.7726	-0.0001
628.9608	0.0055
629.1489	0.0129
629.3371	0.0023
629.5252	0.0026
629.7134	-0.0068
629.9015	0.0205
630.0895	-0.0025
630.2776	0.0143
630.4657	0.0228
630.6537	0.0091
630.8417	-0.0034
631.0297	0.0048
631.2177	-0.001
631.4057	0.0106
631.5936	0
631.7815	-0.0026
631.9695	0.0249
632.1574	0.0073
632.3452	0.0167
632.5331	0.0007
632.7209	0.007
632.9088	0.0104
633.0966	0.0226
633.2844	0.0189
633.4722	0.0195
633.6599	0.022
633.8477	0.0099
634.0354	0.0168
634.2231	-0.001
634.4108	0.0122
634.5985	0.0009
634.7861	0.0109
634.9738	0.01
635.1614	0.0074
635.349	-0.0001
635.5366	0.0183
635.7242	0.002
635.9117	0.0105
636.0993	0.0211
636.2868	0.0029
636.4743	-0.0044
636.6618	-0.0102
636.8492	0.0144
637.0367	0.003
637.2241	-0.0064
637.4115	0.0253
637.5989	0.0071
637.7863	0.032
637.9737	0.0022
638.161	0.0161
638.3484	0.0002
638.5357	-0.0029
638.723	0.0213
638.9103	-0.0054
639.0975	0.0042
639.2848	0.0089
639.472	0.0102
639.6592	0.0112
639.8464	0.0118
640.0336	-0.0037
640.2208	0.0105
640.4079	-0.0031
640.595	-0.0067
640.7821	0.0133
640.9692	0.0127
641.1563	0.0039
641.3434	0.0148
641.5304	0.0141
641.7174	0.021
641.9044	0.0029
642.0914	0.0247
642.2784	0.0039
642.4653	-0.0011
642.6523	0.0044
642.8392	0.0147
643.0261	0.0038
643.213	0.0107
643.3999	0.0188
643.5867	0.02
643.7735	0.0047
643.9604	0.0189
644.1472	0.0246
644.3339	0.0124
644.5207	-0.0041
644.7075	0.0126
644.8942	0.0027
645.0809	-0.0006
645.2676	-0.0141
645.4543	0.0003
645.6409	0.023
645.8276	0.0079
646.0142	0.0074
646.2008	-0.021
646.3874	0.0015
646.574	0.0114
646.7605	-0.0113
646.9471	0.0028
647.1336	-0.0159
647.3201	0.0219
647.5066	0.0032
647.6931	0.007
647.8795	-0.0044
648.0659	0.0092
648.2524	0.0126
648.4388	-0.0082
648.6252	0.012
648.8115	0.0021
648.9979	0.0227
649.1842	0.0202
649.3705	0.0142
649.5568	-0.0026
649.7431	-0.004
649.9294	0.0102
650.1156	-0.0041
650.3018	0.0211
650.488	0.0142
650.6742	0.0122
650.8604	0.0068
651.0466	0.0065
651.2327	0.0079
651.4188	0.0066
651.6049	0.0139
651.791	0.0096
651.9771	-0.0008
652.1632	0.0075
652.3492	-0.0021
652.5352	0.0148
652.7212	0.013
652.9072	0.0064
653.0932	0.0186
653.2791	0.0159
653.465	0.0138
653.651	0.0162
653.8369	0.0165
654.0227	-0.0023
654.2086	0.02
654.3944	0.0181
654.5803	0.0051
654.7661	0.0056
654.9519	-0.0009
655.1377	0.0001
655.3234	0.0001
655.5092	0.0001
655.6949	0.0001
655.8806	0.0001
656.0663	0.0001
656.2519	0.0001
656.4376	0.0001
656.6232	0.0001
656.8088	0.0001
656.9945	0.0001
657.18	0.0001
657.3656	0.0001
657.5511	0.0001
657.7367	0.0001
657.9222	0.0001
658.1077	0.0001
658.2932	0.0001
658.4786	0.0001
658.6641	0.0001
658.8495	0.0001
659.0349	0.0001
659.2203	0.0001
659.4057	0.0161
659.591	0.2931
659.7764	0.0323
659.9617	0.0072
660.147	0.0067
660.3323	0.0205
660.5176	0.0046
660.7028	0.0014
660.888	0.0072
661.0733	0.0023
661.2585	-0.0145
661.4436	0.0274
661.6288	0.0269
661.8139	0.0077
661.9991	-0.017
662.1842	-0.0033
662.3693	0.0095
662.5544	0.0217
662.7394	0.0241
662.9245	-0.0035
663.1095	-0.0199
663.2945	0.0043
663.4795	-0.0157
663.6644	0.0138
663.8494	0.0111
664.0343	0.0318
664.2193	0.0107
664.4042	-0.0078
664.589	0.0379
664.7739	0.0018
664.9587	-0.0019
665.1436	-0.0014
665.3284	0.0336
665.5132	0.0031
665.698	0.0247
665.8827	0.0187
666.0675	0.002
666.2522	0.0332
666.4369	0.002
666.6216	0.0295
666.8063	0.0205
666.9909	0.019
667.1756	0.0001
667.3602	-0.0002
667.5448	0.0024
667.7294	0.036
667.9139	0.0156
668.0985	0.0055
668.283	0.0111
668.4675	0.0373
668.652	0.0155
668.8365	-0.0162
669.0209	0.0165
669.2054	0.0127
669.3898	0.0048
669.5742	0.0257
669.7586	0.0188
669.943	0.0127
670.1273	0.0007
670.3117	0.0118
670.496	0.0118
670.6803	0.0051
670.8646	-0.019
671.0488	0.02
671.2331	-0.0062
671.4173	0.0063
671.6015	0.0142
671.7857	0.0093
671.9699	0.0287
672.1541	0.0052
672.3382	0.008
672.5223	0.0075
672.7064	0.0134
672.8905	0.0074
673.0746	0.0296
673.2587	0.016
673.4427	0.0226
673.6267	0.0041
673.8107	0.0225
673.9947	0.0067
674.1787	0.0177
674.3626	0.009
674.5465	0.0249
674.7304	-0.0177
674.9143	-0.0088
675.0982	0.0135
675.2821	0.0115
675.4659	0.0142
675.6497	0.0291
675.8335	0.034
676.0173	0.01
676.2011	0.0202
676.3849	-0.0151
676.5686	0.0289
676.7523	-0.0074
676.936	0.0051
677.1197	0.0075
677.3034	0.0416
677.487	0.0047
677.6706	0.0179
677.8542	0.0034
678.0378	0.013
678.2214	-0.0029
678.405	-0.0027
678.5885	0.0173
678.772	0.0245
678.9555	0.0028
679.139	0.028
679.3225	0.0096
679.5059	-0.0075
679.6894	0
679.8728	0.0312
680.0562	0.013
680.2395	-0.0095
680.4229	0.0018
680.6062	0.013
680.7896	-0.0029
680.9729	0.0288
681.1562	0.0085
681.3394	0.0037
681.5227	0.011
681.7059	0.0175
681.8891	0.0065
682.0723	0.0253
682.2555	0.0079
682.4387	0.0192
682.6218	0.0178
682.805	0.0006
682.9881	0.0232
683.1712	0.0138
683.3542	0.0227
683.5373	-0.0128
683.7203	0.0198
683.9034	-0.0052
684.0864	0.0052
684.2694	0.0207
684.4523	0.011
684.6353	0.0026
684.8182	-0.0039
685.0011	0.0169
685.184	0.0004
685.3669	0.0288
685.5498	0.0139
685.7326	0.0072
685.9154	0.016
686.0982	0.0331
686.281	0.0029
686.4638	0.0117
686.6465	0.0145
686.8293	-0.0029
687.012	0.0072
687.1947	0.0066
687.3774	0.0118
687.56	0.0087
687.7427	-0.0012
687.9253	-0.0137
688.1079	-0.0184
688.2905	-0.0017
688.4731	0.0123
688.6556	-0.0038
688.8382	-0.0241
689.0207	0.0167
689.2032	0.0215
689.3857	-0.0109
689.5681	-0.0157
689.7506	0.0223
689.933	-0.0015
690.1154	0.0107
690.2978	0.0264
690.4802	0.0279
690.6626	0.0138
690.8449	0.0206
691.0272	-0.0031
691.2095	-0.0156
691.3918	0.0203
691.5741	0.0149
691.7563	0.0058
691.9386	0.0316
692.1208	0.012
692.303	0.017
692.4852	-0.0011
692.6673	0.014
692.8495	-0.0024
693.0316	0.0142
693.2137	0.0171
693.3958	0.0093
693.5778	0.0224
693.7599	0.0077
693.9419	-0.0006
694.1239	0.0247
694.3059	-0.0025
694.4879	-0.0015
694.6699	0.0081
694.8518	0.0257
695.0337	0.026
695.2157	0.024
695.3975	-0.0012
695.5794	-0.017
695.7613	0.0045
695.9431	-0.0027
696.1249	0.0057
696.3067	-0.0233
696.4885	0.039
696.6703	0.0069
696.852	0.0201
697.0337	0.0304
697.2154	0.0253
697.3971	0.0157
697.5788	0.0209
697.7605	-0.0109
697.9421	0.022
698.1237	0.0033
698.3053	0.0274
698.4869	0.0001
698.6685	-0.0032
698.85	0.009
699.0315	-0.0185
699.213	0.0022
699.3945	0.0083
699.576	0.0128
699.7575	0.0248
699.9389	0.0009
700.1203	0.0247
700.3017	0.021
700.4831	0.0252
700.6645	0.0308
700.8458	0.0097
701.0271	0.0435
701.2084	-0.0073
701.3897	0.0095
701.571	-0.022
701.7523	0.0046
701.9335	0.0004
702.1147	0.0045
702.2959	-0.0069
702.4771	0.022
702.6583	0.0068
702.8394	-0.0069
703.0205	0.0067
703.2016	-0.0017
703.3827	0.0098
703.5638	0.0246
703.7449	0.0364
703.9259	0.0258
704.1069	0.0067
704.2879	0.0246
704.4689	0.0126
704.6499	0.0264
704.8308	-0.0013
705.0117	-0.0169
705.1927	0.0136
705.3735	0.0118
705.5544	0.0274
705.7353	0.0005
705.9161	-0.0099
706.0969	0.0141
706.2777	0.0209
706.4585	0.0097
706.6393	0.0145
706.82	0.0143
707.0007	0.002
707.1815	-0.0028
707.3621	0.0215
707.5428	0.0261
707.7235	0.0172
707.9041	0.0014
708.0847	0.0257
708.2653	0.0485
708.4459	0.014
708.6265	-0.0148
708.807	0.0088
708.9875	-0.0017
709.168	0.0065
709.3485	0.0168
709.529	0.0181
709.7095	-0.0243
709.8899	-0.0051
710.0703	0.0038
710.2507	0.013
710.4311	-0.0218
710.6115	0.0171
710.7918	0.0296
710.9721	0.0142
711.1524	0.0155
711.3327	-0.0165
711.513	0.0001
711.6932	0.0095
711.8735	0.0192
712.0537	0.0046
712.2339	0.0212
712.4141	0.0408
712.5942	0.0272
712.7744	-0.0065
712.9545	0.0078
713.1346	0.0169
713.3147	0.0322
713.4947	-0.0119
713.6748	0.0033
713.8548	0.0254
714.0348	0.0359
714.2148	0.0077
714.3948	-0.0042
714.5748	0.0109
714.7547	0.0257
714.9346	0.003
715.1145	0.0048
715.2944	-0.0219
715.4743	0.0311
715.6541	-0.0042
715.834	0.0156
716.0138	0.0196
716.1936	-0.0124
716.3733	0.0154
716.5531	-0.0209
716.7328	0.0425
716.9126	0.0139
717.0923	-0.011
717.2719	0.0336
717.4516	0.0283
717.6312	-0.0166
717.8109	0.0304
717.9905	-0.0006
718.1701	0.036
718.3496	-0.0119
718.5292	0.0096
718.7087	0.0219
718.8882	0.0254
719.0677	-0.0157
719.2472	0.0077
719.4267	0.0179
719.6061	-0.0372
719.7856	0.0199
719.965	0.0086
720.1443	0.0076
720.3237	0.0025
720.5031	-0.0116
720.6824	0.0097
720.8617	0.0192
721.041	0.0151
721.2203	-0.025
721.3995	-0.0138
721.5788	0.006
721.758	-0.0065
721.9372	0.0207
722.1164	0.0018
722.2956	0.001
722.4747	0.0394
722.6538	-0.0129
722.8329	0.0271
723.012	0.0228
723.1911	0.0108
723.3702	0.0413
723.5492	-0.0184
723.7282	0.0128
723.9072	0.0246
724.0862	0.0069
724.2652	0.0061
724.4441	0.005
724.623	0.0103
724.8019	0.0224
724.9808	0.0104
725.1597	0.0146
725.3385	0.0062
725.5174	0.0216
725.6962	0.0073
725.875	0.0128
726.0538	0.0057
726.2325	0.0444
726.4112	-0.0171
726.59	-0.0117
726.7687	-0.0121
726.9474	0.0195
727.126	0.014
727.3047	0.0029
727.4833	0.0142
727.6619	-0.0081
727.8405	0.0098
728.0191	0.0414
728.1976	0.0218
728.3762	0.0143
728.5547	0.0078
728.7332	-0.0128
728.9116	0.0128
729.0901	-0.0226
729.2686	0.0187
729.447	0.0036
729.6254	0.0213
729.8038	0.0151
729.9821	0.0042
730.1605	0.003
730.3388	0.0112
730.5171	0.0187
730.6954	-0.0049
730.8737	-0.0068
731.0519	0.0077
731.2302	0.0272
731.4084	0.0054
731.5866	-0.008
731.7648	0.0061
731.9429	0.0282
732.1211	0.0256
732.2992	-0.0147
732.4773	-0.0056
732.6554	0.013
732.8335	0.0236
733.0115	0.0151
733.1896	-0.0023
733.3676	0.018
733.5456	-0.0011
733.7235	0.0159
733.9015	0.0121
734.0794	0.0075
734.2574	-0.0123
734.4353	0.0152
734.6131	0.0029
734.791	-0.0022
734.9689	-0.0202
735.1467	-0.0041
735.3245	0.0201
735.5023	0.0158
735.68	-0.0078
735.8578	0.0022
736.0355	0.0035
736.2132	0.0057
736.3909	0.0221
736.5686	0.0083
736.7463	-0.0369
736.9239	0.0208
737.1015	0.0178
737.2791	0.032
737.4567	0.0275
737.6343	-0.0077
737.8118	0.0236
737.9894	-0.0013
738.1669	0.0078
738.3444	0.0254
738.5218	-0.0066
738.6993	0.0092
738.8767	0.0195
739.0541	0.0001
739.2315	0.0108
739.4089	0.0395
739.5863	0.0126
739.7636	-0.0162
739.9409	0.0168
740.1182	0.0186
740.2955	0.0282
740.4728	-0.0008
740.65	-0.0008
740.8272	0.0249
741.0044	-0.0144
741.1816	0.016
741.3588	-0.0311
741.5359	0.0123
741.7131	0.0242
741.8902	0.0106
742.0673	-0.0121
742.2444	0.0582
742.4214	0.0116
742.5985	0.0014
742.7755	-0.008
742.9525	-0.0287
743.1295	-0.0205
743.3064	0.007
743.4834	-0.0058
743.6603	0.0514
743.8372	-0.0127
744.0141	0.0323
744.191	0.0062
744.3678	-0.019
744.5446	0.0319
744.7215	0.0352
744.8982	0.0242
745.075	0.0565
745.2518	0.0047
745.4285	0.0335
745.6052	-0.0275
745.7819	0.0231
745.9586	0.0266
746.1353	0.0136
746.3119	0.0323
746.4885	0.0173
746.6651	0.0036
746.8417	0.0169
747.0183	0.046
747.1948	0.0106
747.3714	0.0328
747.5479	0.037
747.7244	-0.0165
747.9008	0.0035
748.0773	0.0147
748.2537	0.0298
748.4301	0.044
748.6065	-0.0097
748.7829	-0.0139
748.9593	-0.0105
749.1356	0.0245
749.3119	0.012
749.4882	0.0401
749.6645	0.0227
749.8408	0.0058
750.017	0.0178
750.1933	-0.0116
750.3695	0.01
750.5457	0.017
750.7218	-0.0018
750.898	0.0038
751.0741	-0.0015
751.2502	0.0066
751.4263	0.0211
751.6024	0.0264
751.7784	0.01
751.9545	0.0136
752.1305	0.0058
752.3065	0.0421
752.4825	0.0082
752.6584	0.0052
752.8344	0.0064
753.0103	-0.0196
753.1862	0.0221
753.3621	0.0103
753.5379	-0.0179
753.7138	0.0107
753.8896	0.0151
754.0654	-0.001
754.2412	0.0228
754.417	0.0196
754.5927	-0.0013
754.7685	0.0136
754.9442	0.0121
755.1199	0.0036
755.2956	-0.0002
755.4712	-0.0008
755.6469	0.0255
755.8225	0.0189
755.9981	0.0139
756.1736	0.004
756.3492	0.0013
756.5248	0.0099
756.7003	0.0078
756.8758	-0.0053
757.0513	-0.0075
757.2267	0.0156
757.4022	-0.0101
757.5776	0.0041
757.753	0.0131
757.9284	-0.0074
758.1038	0.0104
758.2791	0.0012
758.4545	-0.0102
758.6298	0.0025
758.8051	0.0089
758.9803	0.0258
759.1556	-0.009
759.3308	-0.0011
759.506	0.021
759.6812	0.0026
759.8564	0.0105
760.0316	-0.0018
760.2067	0.0266
760.3819	0.0121
760.557	0.0107
760.732	0.0007
760.9071	0.0256
761.0821	-0.0039
761.2572	0.0228
761.4322	0.0191
761.6072	0.0069
761.7821	-0.0211
761.9571	0.0278
762.132	0.0028
762.3069	0.0341
762.4818	0.0244
762.6567	-0.0014
762.8316	0.0199
763.0064	0.0171
763.1812	0.0104
763.356	-0.0093
763.5308	0.027
763.7055	0.0098
763.8803	0.0146
764.055	0.0164
764.2297	0.0093
764.4044	0.0081
764.579	0.0212
764.7537	-0.0078
764.9283	0.0086
765.1029	0.0177
765.2775	0.0095
765.4521	0.025
765.6266	0.0035
765.8011	0.0086
765.9756	0.0074
766.1501	-0.0119
766.3246	0.0139
766.4991	0.0238
766.6735	0.0568
766.8479	0.0225
767.0223	0.0318
767.1967	0.0318
767.371	0.0561
767.5454	0.0326
767.7197	0.0306
767.894	0.0054
768.0683	0.0211
768.2425	0.01
768.4168	0.0081
768.591	-0.0069
768.7652	-0.0151
768.9394	-0.0187
769.1135	0.004
769.2877	0.0167
769.4618	0.0184
769.6359	0.0111
769.81	0.0285
769.984	0.0349
770.1581	0.0169
770.3321	0.0137
770.5061	-0.0143
770.6801	0.0297
770.8541	-0.0071
771.028	0.053
771.202	0.005
771.3759	-0.0007
771.5498	0.0313
771.7236	0.0202
771.8975	0.0221
772.0713	0.0066
772.2451	0.005
772.4189	0.0221
772.5927	-0.0316
772.7665	-0.0068
772.9402	0.0183
773.1139	0.0029
773.2876	-0.0139
773.4613	0.0233
773.635	0.0223
773.8086	0.0256
773.9822	0.0319
774.1558	0.0443
774.3294	0.0189
774.503	0.0325
774.6765	0.0261
774.8501	-0.0066
775.0236	-0.0075
775.1971	-0.0163
775.3705	0.012
775.544	-0.0101
775.7174	0.0413
775.8908	0.0492
776.0642	0.0161
776.2376	0.0514
776.4109	-0.0024
776.5843	-0.036
776.7576	0.0079
776.9309	0.0121
777.1041	-0.0298
777.2774	-0.0232
777.4506	0.0222
777.6238	-0.0161
777.797	0.0189
777.9702	0.0251
778.1434	-0.0072
778.3165	-0.0126
778.4896	0.0008
778.6627	0.0162
778.8358	-0.0327
779.0089	-0.0244
779.1819	0.0336
779.3549	0.0077
779.5279	0.014
779.7009	0.0592
779.8739	0.0566
780.0468	0.0094
780.2197	0.0144
780.3926	-0.0308
780.5655	0.059
780.7384	0.0022
780.9112	0.0159
781.0841	0.0363
781.2569	0.0417
781.4297	0.0192
781.6024	0.0206
781.7752	0.0339
781.9479	0.0231
782.1206	0.0012
782.2933	0.0288
782.466	0.0236
782.6386	0.0111
782.8113	0.0191
782.9839	0.0102
783.1565	0.0118
783.329	0.0143
783.5016	0.0094
783.6741	0.002
783.8466	0.0717
784.0191	0.0078
784.1916	-0.0053
784.3641	-0.0501
784.5365	0.0157
784.7089	0.0095
784.8813	0.0782
785.0537	0.0009
785.2261	0.013
785.3984	-0.0053
785.5707	-0.0256
785.743	-0.0155
785.9153	-0.005
786.0876	-0.0199
786.2598	-0.0231
786.432	0.0573
786.6042	0.0551
786.7764	-0.0254
786.9486	-0.0273
787.1207	0.0589
787.2928	0.0428
787.4649	0.0317
787.637	0.0073
787.8091	0.0096
787.9811	0.0411
788.1532	0.0129
788.3252	0.0001
788.4972	-0.0176
788.6691	0.0261
788.8411	-0.021
789.013	-0.02
789.1849	0.0095
789.3568	0.0162
789.5287	0.0621
789.7005	0.0098
789.8723	0.004
790.0442	-0.0086
790.2159	-0.01
790.3877	0.0612
790.5595	0.0675
790.7312	-0.0398
790.9029	0.03
791.0746	0.026
791.2463	-0.0553
791.4179	-0.0323
791.5896	0.0153
791.7612	0.0802
791.9328	-0.0034
792.1044	0.0249
792.2759	-0.0179
792.4474	0.005
792.619	-0.0142
792.7905	-0.0031
792.9619	0.0204
793.1334	0.0428
793.3048	0.0709
793.4762	0.0596
793.6476	-0.0526
793.819	-0.0012
793.9904	-0.0088
794.1617	0.0278
794.333	0.0389
794.5043	0.0379
794.6756	0.003
794.8469	0.0458
795.0181	0.0221
795.1893	0.0083
795.3605	0.0438
795.5317	0.0042
795.7029	0.0121
795.874	-0.0189
796.0452	0.0531
796.2163	0.0388
796.3873	0.0996
796.5584	-0.0169
796.7294	-0.0368
796.9005	0.055
797.0715	-0.0151
797.2425	0.0798
797.4134	0.027
797.5844	0.0116
797.7553	-0.0675
797.9262	0.0312
798.0971	0.0591
798.2679	-0.0152
798.4388	0.0037
798.6096	-0.0338
798.7804	0.0177
798.9512	0.0305
799.122	0.0029
799.2927	0.0701
799.4635	-0.0311
799.6342	-0.0321
799.8049	-0.0226
799.9755	-0.0384
800.1462	0.0128
800.3168	0.0579
800.4874	-0.0219
800.658	-0.0259
800.8286	0.0495
800.9991	0.0556
801.1696	-0.0182
801.3402	0.0211
801.5106	-0.0711
801.6811	-0.0483
801.8516	-0.029
802.022	0.0043
802.1924	0.0467
802.3628	0.0683
802.5332	0.0848
802.7035	0.0248
802.8739	-0.0525
803.0442	-0.0232
803.2145	0.024
803.3847	0.0019
803.555	0.0737
803.7252	0.0186
803.8954	0.007
804.0656	-0.0274
804.2358	0.0248
804.4059	0.0691
804.5761	-0.0358
804.7462	0.0127
804.9163	0.045
805.0864	-0.0442
805.2564	0.0635
805.4264	0.0511
805.5965	0.1233
805.7665	-0.0057
805.9364	-0.0311
806.1064	0.0268
806.2763	0.0752
806.4462	0.026
806.6161	0.0255
806.786	0.0083
806.9559	-0.0017
807.1257	-0.0088
807.2955	-0.0446
807.4653	0.0389
807.6351	0.0633
807.8048	-0.0078
807.9746	0.0913
808.1443	-0.0335
808.314	0.0219
808.4837	0.0247
808.6533	0.0245
808.8229	0.0996
808.9926	0.1274
809.1622	0.0592
809.3317	-0.039
809.5013	-0.0139
809.6708	0.0332
809.8403	0.0053
810.0098	-0.0402
810.1793	-0.0882
810.3488	0.0063
810.5182	0.0549
810.6876	0.0628
810.857	0.0375
811.0264	0.0347
811.1958	0.1715
811.3651	0.0612
811.5344	0.0236
811.7037	0.0345
811.873	0.0997
812.0422	-0.0619
812.2115	-0.0265
812.3807	-0.0711
812.5499	0.0589
812.7191	-0.0193
812.8882	-0.1071
813.0574	0.0033
813.2265	-0.0742
813.3956	0.0754
813.5646	0.0336
813.7337	0.0206
813.9027	-0.0696
814.0718	0.0623
814.2407	-0.0231
814.4097	-0.0024
814.5787	0.104
814.7476	-0.014
814.9165	0.027
815.0854	-0.0126
815.2543	-0.0544
815.4232	0.1504
815.592	0.0374
815.7608	-0.1154
815.9296	0.0149
816.0984	0.2036
816.2671	-0.2952
816.4359	0.0109
816.6046	0.0069
816.7733	-0.0718
816.942	-0.0253
817.1106	0.2594
817.2793	-0.005
817.4479	-0.0041
817.6165	0.0457
817.785	0.1193
817.9536	-0.0019
818.1221	0.1294
818.2906	-0.1213
818.4591	-0.0211
818.6276	0.1445
818.7961	0.0072
818.9645	0.0435
819.1329	0.0997
819.3013	0.0203
819.4697	0.0069
819.638	0.1316
819.8064	0.0918
819.9747	0.0999
820.143	-0.0917
820.3113	0.1534
820.4795	0.1603
820.6477	0.1571
820.816	0.1375
820.9842	0.0096
821.1523	0.0029
821.3205	0.059
821.4886	0.0942
821.6567	0.0054
821.8248	0.1587
821.9929	-0.1849
822.1609	0.2356
822.329	-0.0778
822.497	0.0339
822.665	0.024
822.833	0.0085
823.0009	0.0735
823.1688	0.0457
823.3367	0.0544
823.5046	0.1049
823.6725	-0.0517
823.8404	-0.0696
824.0082	0.0189
824.176	-0.0232
824.3438	0.1412
824.5116	-0.0241
824.6793	0.141
824.847	0.0575
825.0147	0.1738
825.1824	-0.0625
825.3501	0.129
825.5177	-0.0262
825.6854	0.0166
825.853	-0.0486
826.0206	0.0082
826.1881	0.0762
826.3557	0.0009
826.5232	0.0986
826.6907	0.1822
826.8582	-0.1673
827.0257	0.2398
827.1931	-0.0363
827.3605	-0.113
827.528	-0.1619
827.6953	-0.0647
827.8627	-0.053
828.03	0.0567
828.1974	0.0008
828.3647	0.0648
828.532	-0.0302
828.6992	0.1282
828.8665	-0.2909
829.0337	0.0837
829.2009	-0.0474
829.3681	0.0271
829.5352	-0.2932
829.7024	0.127
829.8695	0.0204
830.0366	0.2084
830.2037	0.1736
830.3707	0.1337
830.5378	0.6564
830.7048	-0.0215
830.8718	0.1086
831.0388	0.1928
831.2057	-0.1092
831.3727	-0.264
831.5396	-0.0178
831.7065	-0
831.8734	0.3902
832.0402	0.167
832.2071	-0.6946
832.3739	-0.168
832.5407	-1.3904
832.7075	-0.4445
832.8742	1.0101
833.041	0.7343
833.2077	0.7757
833.3744	0.2847
833.541	0.2781
833.7077	-0.0937
833.8743	0.0406
834.0409	-0.0351
834.2075	0.243
834.3741	-0.1467
834.5407	-0.0355
834.7072	0.3606
834.8737	0.265
835.0402	0.1884
835.2067	-0.0114
835.3731	-0.0591
835.5395	-0.0578
835.706	-0.0459
835.8723	-0.0793
836.0387	0.7176
836.2051	0.2194
836.3714	0.517
836.5377	-0.0435
836.704	0.1587
836.8703	-0.0056
837.0365	-0.041
837.2027	-0.1732
837.3689	0.0168
837.5351	0.5102
837.7013	-0.1623
837.8674	-0.0436
838.0335	-0.0793
838.1997	0.0268
838.3657	-0
838.5318	-0.4723
838.6978	-0
838.8639	-0.1514
839.0299	-0
839.1958	0.2099
839.3618	0.7114
839.5277	0.0855
839.6937	-0.0915
839.8596	0.141
840.0254	-0.1157
840.1913	-0.2041
840.3571	0.2188
840.523	-0
840.6888	-0.0106
840.8545	-0.4926
841.0203	0.0523
841.186	0.1957
841.3517	-0.2876
841.5174	0.3566
841.6831	0.2071
841.8488	-0.0063
842.0144	-0.1385
842.18	0.2561
842.3456	-0.0566
842.5112	-1.3354
842.6767	0.0805
842.8422	-0.0711
843.0077	0.0846
843.1732	-0.1825
843.3387	-0.23
843.5042	0.7329
843.6696	-0
843.835	-0.3551
844.0004	0.3429
844.1657	-1.3361
844.3311	-0.4442
844.4964	-0
844.6617	0.3384
844.827	-0
844.9923	1.0869
845.1575	-0.3365
845.3227	-0.3501
845.4879	-0.0299
845.6531	-0.1102
845.8183	0.5211
845.9834	-0.005
846.1485	0.2379
846.3136	-0.376
846.4787	-0.1643
846.6438	0.1093
846.8088	0.4004
846.9738	-0.1405
847.1388	1.1514
847.3038	0.3372
847.4687	-0
847.6337	-0.5357
847.7986	0.6202
847.9635	-0.1021
848.1284	-0
848.2932	0.1081
848.458	-0
848.6228	-0.2173
848.7876	-0
848.9524	0.0081
849.1172	-0.359
849.2819	-0
849.4466	0.2281
849.6113	0.0448
849.7759	-0.2574
849.9406	-0.0358
850.1052	-1.3486
850.2698	-0
850.4344	-0
850.599	0.1315
850.7635	0.7832
850.928	0.9855
851.0925	0.2141
851.257	-0.4078
851.4215	0.6202
851.5859	0.0159
851.7503	-0
851.9147	-0
852.0791	-0.1844
852.2434	0.1215
852.4078	-0
852.5721	-0.0329
852.7364	0.1516
852.9007	-0.1518
853.0649	-0
853.2291	0.6139
853.3934	-0
853.5575	-0
853.7217	0.3177
853.8859	-0
854.05	-0.1916
854.2141	0.562
854.3782	0.0789
854.5423	-0.084
854.7063	0.3193
854.8703	0.1235
855.0343	-0.3144
855.1983	-0.0413
855.3623	0.1404
855.5262	-0
855.6901	0.2385
855.854	0.1825
856.0179	0.2276
856.1818	0.1969
856.3456	0.3928
856.5094	-0.5186
856.6732	-0.1096
856.837	-0.896
857.0008	-0.2227
857.1645	0.1355
857.3282	-0.2884
857.4919	0.1846
857.6556	1.7222
857.8192	0.1302
857.9828	-0.172
858.1465	0.1399
858.31	-0
858.4736	-0.5345
858.6372	0.0835
858.8007	-0.0093
858.9642	0.7221
859.1277	-0
859.2911	-0.642
859.4546	-0
859.618	0.3611
859.7814	-0
859.9448	-0.0666
860.1081	-0
860.2715	-1.6203
860.4348	-0.0221
860.5981	0.3546
860.7614	-0.1994
860.9246	-0.0795
861.0879	-0.0795
861.2511	-0.4906
861.4143	-0.6251
861.5774	-0.0767
861.7406	0.4133
861.9037	-0.8536
862.0668	0.1383
862.2299	-0
862.393	-0
862.556	0.6959
862.7191	-0.1935
862.8821	0.1105
863.0451	1.4501
863.208	-0
863.371	-0.3954
863.5339	0.3552
863.6968	1.4834
863.8597	-0.211
864.0225	1.7906
864.1854	-0
864.3482	-0.7442
864.511	-0.0618
864.6737	0.5634
864.8365	0.0897
864.9992	-0
865.1619	0.6698
865.3246	-1.6274
865.4873	0.5119
865.65	0.6767
865.8126	-0
865.9752	0.1776
866.1378	0.3529
866.3004	-0.0921
866.4629	-1.8608
866.6254	-0.0611
866.7879	-0.2468
866.9504	-0
867.1129	-0.6238
867.2753	-0.1129
867.4377	0.1479
867.6001	-0
867.7625	0.0493
867.9249	-0
868.0872	-0.2191
868.2495	0.4412
868.4118	-0
868.5741	-0
868.7363	-0.7375
868.8986	-0.6021
869.0608	-0
869.223	-0
869.3851	-0
869.5473	0.3551
869.7094	1.012
869.8715	-0.3665
870.0336	0.2741
870.1957	-0
870.3577	-0
870.5197	0.2782
870.6817	-0.4448
870.8437	0.5253
871.0057	0.2374
871.1676	-0.0584
871.3295	-0
871.4914	-1.6513
871.6533	-0
871.8151	-0
871.977	0.1383
872.1388	0.4266
872.3006	-0.1391
872.4623	-0.4898
872.6241	0.3586
872.7858	0.8487
872.9475	-0
873.1092	0.38
873.2709	0.0126
873.4325	-2.0357
873.5941	-0.6404
873.7557	-0
873.9173	0.501
874.0789	0.0659
874.2404	-0
874.4019	-0.0279
874.5634	-0
874.7249	-0
874.8863	-0.4463
875.0478	0.2741
875.2092	0.8055
875.3706	-0.1081
875.5319	0.2309
875.6933	0.065
875.8546	-0
876.0159	0.2045
876.1772	0.3447
876.3385	0.3124
876.4997	-0.1374
876.6609	-0
876.8221	-0
876.9833	-0.3791
877.1445	0.1784
877.3056	-0.1107
877.4667	-0.6021
877.6278	-0
877.7889	0.3597
877.9499	-0
878.111	-0.6708
878.272	0.6698
878.433	-0.3026
878.5939	0.5253
878.7549	0.769
878.9158	-0
879.0767	-0
879.2376	-0
879.3984	-0
879.5593	0.2199
879.7201	-0
879.8809	-0.3285
880.0417	0.1878
880.2024	0.1678
880.3632	0.0938
880.5239	0.6342
880.6846	-0.1913
880.8452	-0.1633
881.0059	-1.3066
881.1665	-0
881.3271	0.3016
881.4877	1.1725
881.6483	-0.0706
881.8088	-0
881.9693	-1.1845
882.1298	-1.1845
882.2903	-1.1845
