Data from D4ACN5uM420nmA_Absorbance_14-37-07-376.txt Node
Date: Fri Feb 21 14:37:07 GMT 2025
User: LASERRRRR
Spectrometer: FLMT03099
Trigger mode: 0
Integration Time (sec): 1.500000E-2
Scans to average: 1
Electric dark correction enabled: true
Nonlinearity correction enabled: false
Boxcar width: 0
XAxis mode: Wavelengths
Number of Pixels in Spectrum: 3648
>>>>>Begin Spectral Data<<<<<
179.3399	-0
179.5586	-0
179.7771	-0
179.9957	-0.3379
180.2143	-0
180.4329	-0
180.6514	-0
180.8699	-0.0708
181.0885	-0
181.307	-0.0826
181.5255	0.2961
181.744	-0
181.9625	0.2197
182.181	0.2199
182.3994	-0.1392
182.6179	0.1666
182.8363	0.5872
183.0547	0.9958
183.2732	0.1063
183.4916	0.1689
183.71	0.277
183.9284	0.0994
184.1467	0.3034
184.3651	0.1171
184.5835	0.0858
184.8018	0.0518
185.0201	0.0633
185.2385	0.4766
185.4568	0.3808
185.6751	0.1729
185.8934	0.1915
186.1117	0.1107
186.3299	0.2061
186.5482	0.3411
186.7664	0.6246
186.9847	0.0928
187.2029	0.2661
187.4211	0.034
187.6393	0.257
187.8575	0.1445
188.0757	0.2543
188.2939	0.4023
188.512	0.1782
188.7302	0.4159
188.9483	0.1837
189.1665	0.5326
189.3846	0.2538
189.6027	0.2915
189.8208	0.1853
190.0389	0.155
190.257	0.1297
190.475	0.0666
190.6931	-0.0069
190.9111	-0.0205
191.1292	0.0616
191.3472	0.1922
191.5652	0.2458
191.7832	0.2736
192.0012	0.129
192.2192	0.0524
192.4371	0.0962
192.6551	0.1577
192.873	0.2095
193.091	0.2315
193.3089	0.2073
193.5268	0.2692
193.7447	0.2896
193.9626	0.1222
194.1805	0.2851
194.3984	0.1863
194.6162	0.2158
194.8341	0.2408
195.0519	0.1807
195.2697	0.2554
195.4875	0.3258
195.7054	0.2894
195.9231	0.2314
196.1409	0.3997
196.3587	0.2602
196.5765	0.3616
196.7942	0.3286
197.012	0.2815
197.2297	0.298
197.4474	0.3876
197.6651	0.275
197.8828	0.3218
198.1005	0.4456
198.3182	0.3881
198.5358	0.4117
198.7535	0.3833
198.9711	0.4413
199.1888	0.3502
199.4064	0.4278
199.624	0.4263
199.8416	0.3822
200.0592	0.3689
200.2767	0.3962
200.4943	0.4022
200.7119	0.3571
200.9294	0.4237
201.1469	0.3896
201.3645	0.4471
201.582	0.3778
201.7995	0.3898
202.017	0.395
202.2344	0.4246
202.4519	0.36
202.6694	0.3844
202.8868	0.4068
203.1042	0.4031
203.3217	0.4075
203.5391	0.4066
203.7565	0.3321
203.9739	0.3997
204.1913	0.3177
204.4086	0.3435
204.626	0.3558
204.8433	0.3862
205.0607	0.3642
205.278	0.3845
205.4953	0.3485
205.7126	0.3357
205.9299	0.3227
206.1472	0.3357
206.3644	0.3447
206.5817	0.329
206.7989	0.3469
207.0162	0.3266
207.2334	0.3416
207.4506	0.3336
207.6678	0.3088
207.885	0.3026
208.1022	0.3122
208.3194	0.2831
208.5365	0.307
208.7537	0.2708
208.9708	0.3241
209.1879	0.3005
209.405	0.2838
209.6222	0.2628
209.8392	0.314
210.0563	0.2875
210.2734	0.2791
210.4905	0.2676
210.7075	0.2835
210.9245	0.2627
211.1416	0.2898
211.3586	0.261
211.5756	0.2544
211.7926	0.2802
212.0096	0.2731
212.2265	0.2648
212.4435	0.2535
212.6604	0.2553
212.8774	0.2435
213.0943	0.2781
213.3112	0.2582
213.5281	0.2572
213.745	0.2571
213.9619	0.2531
214.1788	0.26
214.3956	0.2468
214.6125	0.2463
214.8293	0.2328
215.0461	0.2403
215.2629	0.2671
215.4798	0.2419
215.6965	0.2478
215.9133	0.2318
216.1301	0.2449
216.3469	0.2565
216.5636	0.2473
216.7803	0.2511
216.9971	0.2593
217.2138	0.2509
217.4305	0.2498
217.6472	0.2469
217.8639	0.2499
218.0805	0.2714
218.2972	0.2508
218.5138	0.2648
218.7305	0.2736
218.9471	0.2533
219.1637	0.2843
219.3803	0.258
219.5969	0.2466
219.8135	0.2603
220.0301	0.2535
220.2466	0.2687
220.4632	0.2539
220.6797	0.27
220.8962	0.2749
221.1127	0.273
221.3292	0.2661
221.5457	0.2805
221.7622	0.2589
221.9787	0.2837
222.1951	0.2825
222.4116	0.2691
222.628	0.2912
222.8444	0.2697
223.0608	0.2901
223.2772	0.2872
223.4936	0.2777
223.71	0.2844
223.9264	0.2937
224.1427	0.2929
224.3591	0.2929
224.5754	0.2975
224.7917	0.2892
225.008	0.3037
225.2243	0.3091
225.4406	0.2899
225.6569	0.3121
225.8732	0.3008
226.0894	0.3147
226.3057	0.3134
226.5219	0.3198
226.7381	0.3232
226.9543	0.3212
227.1705	0.3177
227.3867	0.3242
227.6029	0.3267
227.8191	0.3414
228.0352	0.3416
228.2513	0.3474
228.4675	0.3421
228.6836	0.3504
228.8997	0.3431
229.1158	0.3601
229.3319	0.3647
229.548	0.3555
229.764	0.3594
229.9801	0.3711
230.1961	0.3668
230.4121	0.3664
230.6282	0.3917
230.8442	0.3925
231.0602	0.3926
231.2761	0.3652
231.4921	0.396
231.7081	0.3906
231.924	0.4034
232.14	0.4163
232.3559	0.419
232.5718	0.4163
232.7877	0.4141
233.0036	0.4078
233.2195	0.4104
233.4353	0.4237
233.6512	0.42
233.867	0.4157
234.0829	0.4292
234.2987	0.432
234.5145	0.4298
234.7303	0.4285
234.9461	0.4362
235.1619	0.4469
235.3776	0.4389
235.5934	0.4445
235.8091	0.4453
236.0249	0.4529
236.2406	0.4463
236.4563	0.4456
236.672	0.4464
236.8877	0.4494
237.1034	0.4464
237.319	0.4593
237.5347	0.455
237.7503	0.4541
237.966	0.4632
238.1816	0.4567
238.3972	0.4628
238.6128	0.4615
238.8284	0.4575
239.0439	0.4656
239.2595	0.4727
239.475	0.4682
239.6906	0.4592
239.9061	0.4639
240.1216	0.4819
240.3371	0.4694
240.5526	0.4646
240.7681	0.454
240.9836	0.4708
241.199	0.4623
241.4145	0.455
241.6299	0.4561
241.8453	0.4424
242.0607	0.4423
242.2761	0.4373
242.4915	0.4314
242.7069	0.4224
242.9223	0.4188
243.1376	0.4105
243.353	0.4058
243.5683	0.4073
243.7836	0.3899
243.9989	0.3794
244.2142	0.3769
244.4295	0.3742
244.6448	0.3696
244.86	0.363
245.0753	0.3525
245.2905	0.3418
245.5057	0.3336
245.721	0.3472
245.9362	0.3276
246.1514	0.3179
246.3665	0.313
246.5817	0.2956
246.7969	0.3072
247.012	0.2932
247.2271	0.29
247.4423	0.2896
247.6574	0.2846
247.8725	0.273
248.0876	0.2737
248.3026	0.2731
248.5177	0.2624
248.7328	0.255
248.9478	0.2529
249.1628	0.25
249.3779	0.2381
249.5929	0.2428
249.8079	0.246
250.0228	0.2352
250.2378	0.2377
250.4528	0.2332
250.6677	0.2242
250.8827	0.2242
251.0976	0.2168
251.3125	0.2233
251.5274	0.2218
251.7423	0.2131
251.9572	0.2129
252.172	0.209
252.3869	0.2113
252.6017	0.2117
252.8166	0.2065
253.0314	0.2051
253.2462	0.1992
253.461	0.2026
253.6758	0.1966
253.8906	0.1959
254.1053	0.2008
254.3201	0.1975
254.5348	0.1868
254.7496	0.1922
254.9643	0.1967
255.179	0.184
255.3937	0.193
255.6083	0.1953
255.823	0.197
256.0377	0.1871
256.2523	0.1892
256.467	0.1871
256.6816	0.1789
256.8962	0.1939
257.1108	0.1912
257.3254	0.1905
257.54	0.1825
257.7545	0.1916
257.9691	0.1849
258.1836	0.1803
258.3981	0.1924
258.6127	0.1787
258.8272	0.1861
259.0417	0.1782
259.2561	0.1806
259.4706	0.1823
259.6851	0.1878
259.8995	0.1807
260.114	0.1805
260.3284	0.1783
260.5428	0.1813
260.7572	0.1764
260.9716	0.1847
261.186	0.1829
261.4003	0.1736
261.6147	0.1797
261.829	0.1797
262.0433	0.1835
262.2577	0.1799
262.472	0.1795
262.6863	0.1851
262.9005	0.1777
263.1148	0.1791
263.3291	0.183
263.5433	0.1845
263.7576	0.1803
263.9718	0.1825
264.186	0.1831
264.4002	0.1869
264.6144	0.1893
264.8286	0.1884
265.0427	0.1853
265.2569	0.1865
265.471	0.1877
265.6851	0.1868
265.8993	0.1824
266.1134	0.1869
266.3275	0.1892
266.5415	0.1852
266.7556	0.1909
266.9697	0.1878
267.1837	0.1871
267.3978	0.1853
267.6118	0.1812
267.8258	0.1865
268.0398	0.1867
268.2538	0.1906
268.4677	0.1812
268.6817	0.1831
268.8957	0.1767
269.1096	0.1802
269.3235	0.1851
269.5374	0.175
269.7514	0.1835
269.9652	0.1806
270.1791	0.1777
270.393	0.1751
270.6068	0.1811
270.8207	0.1724
271.0345	0.1723
271.2483	0.1772
271.4622	0.1711
271.676	0.179
271.8897	0.1754
272.1035	0.178
272.3173	0.1774
272.531	0.1792
272.7448	0.1716
272.9585	0.1699
273.1722	0.1724
273.3859	0.178
273.5996	0.1784
273.8133	0.175
274.0269	0.1751
274.2406	0.1708
274.4542	0.1752
274.6679	0.176
274.8815	0.1839
275.0951	0.1873
275.3087	0.1857
275.5223	0.178
275.7358	0.1843
275.9494	0.1835
276.1629	0.1872
276.3765	0.182
276.59	0.176
276.8035	0.1728
277.017	0.184
277.2305	0.1838
277.444	0.1882
277.6574	0.1834
277.8709	0.1878
278.0843	0.1867
278.2978	0.1828
278.5112	0.1841
278.7246	0.1847
278.938	0.1802
279.1513	0.1847
279.3647	0.1848
279.5781	0.1829
279.7914	0.1804
280.0047	0.1826
280.2181	0.1823
280.4314	0.1881
280.6447	0.1901
280.8579	0.1758
281.0712	0.182
281.2845	0.1836
281.4977	0.1871
281.711	0.1842
281.9242	0.1934
282.1374	0.1849
282.3506	0.1883
282.5638	0.1832
282.7769	0.1821
282.9901	0.1853
283.2033	0.1894
283.4164	0.1902
283.6295	0.1861
283.8426	0.1845
284.0557	0.1903
284.2688	0.1947
284.4819	0.1859
284.695	0.1918
284.908	0.1838
285.1211	0.1896
285.3341	0.1881
285.5471	0.1908
285.7601	0.1909
285.9731	0.1925
286.1861	0.1897
286.3991	0.1933
286.612	0.1899
286.825	0.191
287.0379	0.1954
287.2508	0.1937
287.4637	0.1948
287.6766	0.1887
287.8895	0.1902
288.1024	0.2
288.3152	0.1974
288.5281	0.1891
288.7409	0.2002
288.9538	0.201
289.1666	0.1939
289.3794	0.1948
289.5922	0.1973
289.8049	0.1984
290.0177	0.1918
290.2304	0.195
290.4432	0.1984
290.6559	0.1956
290.8686	0.1971
291.0813	0.1922
291.294	0.1971
291.5067	0.1956
291.7194	0.1959
291.932	0.1922
292.1447	0.2053
292.3573	0.1919
292.5699	0.2019
292.7825	0.1982
292.9951	0.1963
293.2077	0.1983
293.4203	0.1967
293.6328	0.1954
293.8454	0.1994
294.0579	0.1956
294.2704	0.2062
294.4829	0.1994
294.6954	0.1981
294.9079	0.1993
295.1204	0.1957
295.3328	0.2047
295.5453	0.1997
295.7577	0.1973
295.9701	0.2023
296.1825	0.2044
296.3949	0.1956
296.6073	0.1977
296.8197	0.1984
297.0321	0.201
297.2444	0.1944
297.4567	0.205
297.6691	0.1945
297.8814	0.2006
298.0937	0.2015
298.306	0.1963
298.5182	0.195
298.7305	0.1961
298.9428	0.1981
299.155	0.2014
299.3672	0.1996
299.5794	0.201
299.7916	0.1958
300.0038	0.1992
300.216	0.1955
300.4282	0.1985
300.6403	0.199
300.8525	0.1991
301.0646	0.2011
301.2767	0.1995
301.4888	0.1963
301.7009	0.2006
301.913	0.1978
302.125	0.1965
302.3371	0.2035
302.5491	0.1941
302.7612	0.2024
302.9732	0.1972
303.1852	0.2009
303.3972	0.1981
303.6092	0.2011
303.8211	0.1986
304.0331	0.1945
304.245	0.1947
304.457	0.1977
304.6689	0.1906
304.8808	0.195
305.0927	0.1911
305.3046	0.1879
305.5164	0.1907
305.7283	0.1883
305.9401	0.1832
306.152	0.1835
306.3638	0.1899
306.5756	0.1861
306.7874	0.1813
306.9992	0.1785
307.2109	0.1786
307.4227	0.1769
307.6344	0.1844
307.8462	0.1782
308.0579	0.1826
308.2696	0.1739
308.4813	0.1781
308.693	0.1627
308.9046	0.1647
309.1163	0.1699
309.328	0.1645
309.5396	0.1594
309.7512	0.1634
309.9628	0.1568
310.1744	0.1588
310.386	0.1552
310.5976	0.1538
310.8091	0.1613
311.0207	0.1535
311.2322	0.1492
311.4437	0.1475
311.6552	0.1464
311.8667	0.1504
312.0782	0.1497
312.2897	0.1471
312.5012	0.1488
312.7126	0.1425
312.924	0.1465
313.1355	0.1364
313.3469	0.1416
313.5583	0.1459
313.7696	0.1381
313.981	0.1376
314.1924	0.1319
314.4037	0.1402
314.6151	0.1375
314.8264	0.1419
315.0377	0.1331
315.249	0.1349
315.4603	0.1294
315.6716	0.1314
315.8828	0.1358
316.0941	0.1326
316.3053	0.1311
316.5165	0.1347
316.7277	0.1282
316.9389	0.1287
317.1501	0.1382
317.3613	0.1313
317.5724	0.1314
317.7836	0.1273
317.9947	0.13
318.2058	0.1272
318.417	0.1279
318.6281	0.1277
318.8391	0.1285
319.0502	0.1263
319.2613	0.1258
319.4723	0.1267
319.6834	0.1309
319.8944	0.1273
320.1054	0.1332
320.3164	0.1291
320.5274	0.1272
320.7383	0.1266
320.9493	0.1253
321.1602	0.1291
321.3712	0.1268
321.5821	0.124
321.793	0.1266
322.0039	0.128
322.2148	0.1289
322.4257	0.1246
322.6365	0.1252
322.8474	0.1302
323.0582	0.1363
323.269	0.1334
323.4798	0.1307
323.6906	0.1304
323.9014	0.1299
324.1122	0.1269
324.3229	0.1307
324.5337	0.1325
324.7444	0.1274
324.9551	0.13
325.1658	0.1289
325.3765	0.1361
325.5872	0.1366
325.7979	0.1277
326.0085	0.1254
326.2192	0.128
326.4298	0.1354
326.6404	0.1396
326.851	0.1309
327.0616	0.1365
327.2722	0.1352
327.4828	0.1279
327.6933	0.1411
327.9039	0.1271
328.1144	0.1331
328.3249	0.1335
328.5354	0.1411
328.7459	0.1397
328.9564	0.1376
329.1669	0.1432
329.3773	0.1372
329.5878	0.1373
329.7982	0.1368
330.0086	0.1401
330.219	0.1347
330.4294	0.1414
330.6398	0.1398
330.8502	0.1418
331.0605	0.1389
331.2708	0.1369
331.4812	0.1387
331.6915	0.1351
331.9018	0.1384
332.1121	0.1439
332.3224	0.1401
332.5326	0.1394
332.7429	0.1397
332.9531	0.1397
333.1633	0.1367
333.3735	0.1367
333.5837	0.142
333.7939	0.143
334.0041	0.1476
334.2143	0.1368
334.4244	0.1437
334.6346	0.1366
334.8447	0.1453
335.0548	0.1428
335.2649	0.1483
335.475	0.1417
335.685	0.1473
335.8951	0.1406
336.1051	0.1479
336.3152	0.1509
336.5252	0.144
336.7352	0.1402
336.9452	0.1394
337.1552	0.1455
337.3652	0.1398
337.5751	0.1421
337.7851	0.1466
337.995	0.1491
338.2049	0.1437
338.4148	0.1444
338.6247	0.1523
338.8346	0.1466
339.0445	0.147
339.2543	0.1496
339.4642	0.1479
339.674	0.1435
339.8838	0.1497
340.0936	0.1442
340.3034	0.1479
340.5132	0.142
340.7229	0.1471
340.9327	0.1503
341.1424	0.1465
341.3522	0.1486
341.5619	0.1546
341.7716	0.1558
341.9813	0.1582
342.1909	0.1527
342.4006	0.1597
342.6102	0.1513
342.8199	0.1607
343.0295	0.1554
343.2391	0.1581
343.4487	0.1549
343.6583	0.1643
343.8679	0.1552
344.0774	0.1533
344.287	0.1543
344.4965	0.1633
344.706	0.164
344.9155	0.1601
345.125	0.153
345.3345	0.167
345.544	0.1637
345.7534	0.1609
345.9629	0.1665
346.1723	0.1649
346.3817	0.1667
346.5911	0.1702
346.8005	0.1681
347.0099	0.1683
347.2193	0.1751
347.4286	0.1768
347.638	0.1715
347.8473	0.1759
348.0566	0.1698
348.2659	0.1656
348.4752	0.1726
348.6845	0.1726
348.8937	0.174
349.103	0.169
349.3122	0.1752
349.5214	0.176
349.7306	0.1797
349.9398	0.1812
350.149	0.1734
350.3582	0.1849
350.5674	0.183
350.7765	0.1869
350.9856	0.1769
351.1948	0.1819
351.4039	0.1873
351.613	0.1898
351.822	0.1895
352.0311	0.1796
352.2402	0.187
352.4492	0.1867
352.6582	0.1858
352.8672	0.1882
353.0762	0.1868
353.2852	0.1908
353.4942	0.191
353.7032	0.1941
353.9121	0.1876
354.1211	0.1895
354.33	0.1888
354.5389	0.1847
354.7478	0.1838
354.9567	0.1979
355.1655	0.192
355.3744	0.1914
355.5833	0.1975
355.7921	0.1932
356.0009	0.1928
356.2097	0.1895
356.4185	0.1881
356.6273	0.1963
356.8361	0.1937
357.0448	0.2004
357.2536	0.1978
357.4623	0.2032
357.671	0.2054
357.8797	0.203
358.0884	0.1933
358.2971	0.1889
358.5057	0.2017
358.7144	0.2018
358.923	0.201
359.1316	0.2081
359.3402	0.2089
359.5488	0.2084
359.7574	0.2071
359.966	0.2048
360.1746	0.203
360.3831	0.2134
360.5916	0.2166
360.8002	0.2159
361.0087	0.2121
361.2172	0.2163
361.4256	0.2128
361.6341	0.2198
361.8426	0.2128
362.051	0.2209
362.2594	0.2135
362.4678	0.2211
362.6762	0.2216
362.8846	0.2203
363.093	0.2245
363.3014	0.228
363.5097	0.2207
363.718	0.2311
363.9264	0.2292
364.1347	0.2349
364.343	0.2249
364.5513	0.2362
364.7595	0.2346
364.9678	0.2285
365.176	0.2327
365.3842	0.2358
365.5925	0.2335
365.8007	0.239
366.0089	0.2365
366.217	0.2404
366.4252	0.244
366.6333	0.2442
366.8415	0.2398
367.0496	0.2375
367.2577	0.2513
367.4658	0.243
367.6739	0.2417
367.882	0.2459
368.09	0.2409
368.2981	0.2517
368.5061	0.2516
368.7141	0.2461
368.9221	0.2576
369.1301	0.2513
369.3381	0.2615
369.5461	0.2604
369.754	0.2559
369.962	0.2497
370.1699	0.2568
370.3778	0.2593
370.5857	0.2535
370.7936	0.2564
371.0015	0.2621
371.2093	0.2618
371.4172	0.2612
371.625	0.2646
371.8328	0.2562
372.0406	0.2699
372.2484	0.2674
372.4562	0.2655
372.664	0.2651
372.8717	0.2725
373.0795	0.2736
373.2872	0.2698
373.4949	0.2761
373.7026	0.281
373.9103	0.2596
374.118	0.26
374.3256	0.2745
374.5333	0.262
374.7409	0.2753
374.9485	0.2706
375.1561	0.2831
375.3637	0.2766
375.5713	0.2807
375.7789	0.2797
375.9864	0.2791
376.194	0.2827
376.4015	0.2824
376.609	0.2805
376.8165	0.2815
377.024	0.2818
377.2315	0.2913
377.4389	0.276
377.6464	0.2921
377.8538	0.2944
378.0612	0.2863
378.2686	0.2829
378.476	0.2959
378.6834	0.2866
378.8908	0.2977
379.0981	0.2989
379.3055	0.2953
379.5128	0.2909
379.7201	0.2993
379.9274	0.2882
380.1347	0.2995
380.342	0.291
380.5492	0.2997
380.7565	0.299
380.9637	0.3081
381.1709	0.3014
381.3781	0.3069
381.5853	0.3024
381.7925	0.297
381.9997	0.307
382.2068	0.2955
382.4139	0.3092
382.6211	0.2974
382.8282	0.3047
383.0353	0.3115
383.2424	0.3055
383.4494	0.3056
383.6565	0.3054
383.8635	0.3
384.0706	0.3115
384.2776	0.3028
384.4846	0.3206
384.6916	0.3029
384.8986	0.3143
385.1055	0.3165
385.3125	0.3187
385.5194	0.3096
385.7263	0.3052
385.9333	0.311
386.1402	0.3159
386.347	0.3076
386.5539	0.3098
386.7608	0.3128
386.9676	0.3125
387.1744	0.3077
387.3813	0.3146
387.5881	0.3029
387.7948	0.3147
388.0016	0.3235
388.2084	0.3136
388.4151	0.3042
388.6219	0.3029
388.8286	0.3081
389.0353	0.3107
389.242	0.3037
389.4487	0.3082
389.6553	0.2988
389.862	0.2954
390.0686	0.3066
390.2753	0.3077
390.4819	0.306
390.6885	0.2962
390.8951	0.3036
391.1016	0.3003
391.3082	0.3112
391.5147	0.2886
391.7213	0.3007
391.9278	0.2943
392.1343	0.2931
392.3408	0.2972
392.5473	0.2927
392.7537	0.2917
392.9602	0.2872
393.1666	0.2894
393.373	0.2836
393.5794	0.2941
393.7858	0.2897
393.9922	0.2775
394.1986	0.2867
394.4049	0.2875
394.6113	0.2879
394.8176	0.2827
395.0239	0.2787
395.2302	0.2757
395.4365	0.2763
395.6428	0.271
395.8491	0.2727
396.0553	0.2729
396.2615	0.2735
396.4678	0.2742
396.674	0.2792
396.8802	0.2848
397.0863	0.2697
397.2925	0.2687
397.4987	0.2647
397.7048	0.2723
397.9109	0.2763
398.117	0.2645
398.3231	0.2684
398.5292	0.2598
398.7353	0.2634
398.9413	0.2654
399.1474	0.2673
399.3534	0.2716
399.5594	0.262
399.7654	0.2554
399.9714	0.271
400.1774	0.2571
400.3833	0.2707
400.5893	0.2664
400.7952	0.2735
401.0011	0.2631
401.207	0.2748
401.4129	0.259
401.6188	0.2553
401.8247	0.2736
402.0305	0.2651
402.2364	0.2738
402.4422	0.2633
402.648	0.2644
402.8538	0.2606
403.0596	0.2645
403.2654	0.261
403.4711	0.2701
403.6768	0.2567
403.8826	0.2691
404.0883	0.2736
404.294	0.2678
404.4997	0.2683
404.7054	0.2601
404.911	0.2598
405.1167	0.264
405.3223	0.2634
405.5279	0.2644
405.7335	0.2587
405.9391	0.2651
406.1447	0.269
406.3502	0.2552
406.5558	0.2701
406.7613	0.264
406.9668	0.266
407.1724	0.2665
407.3778	0.2687
407.5833	0.2514
407.7888	0.2639
407.9942	0.2581
408.1997	0.2679
408.4051	0.2654
408.6105	0.2716
408.8159	0.2576
409.0213	0.2633
409.2267	0.2743
409.432	0.2618
409.6374	0.2719
409.8427	0.2645
410.048	0.2672
410.2533	0.2681
410.4586	0.2575
410.6639	0.2708
410.8691	0.2579
411.0744	0.2682
411.2796	0.2646
411.4848	0.2746
411.69	0.2601
411.8952	0.2594
412.1004	0.2655
412.3056	0.2532
412.5107	0.2602
412.7158	0.2797
412.921	0.258
413.1261	0.2682
413.3312	0.2586
413.5362	0.273
413.7413	0.2709
413.9464	0.2588
414.1514	0.2664
414.3564	0.2493
414.5614	0.2635
414.7664	0.2546
414.9714	0.2525
415.1764	0.2581
415.3813	0.2457
415.5863	0.2554
415.7912	0.2692
415.9961	0.2495
416.201	0.2639
416.4059	0.2519
416.6108	0.2565
416.8156	0.254
417.0205	0.2545
417.2253	0.2547
417.4301	0.2661
417.6349	0.2519
417.8397	0.2637
418.0445	0.2641
418.2492	0.2594
418.454	0.2564
418.6587	0.2576
418.8634	0.2504
419.0681	0.2616
419.2728	0.258
419.4775	0.2464
419.6822	0.241
419.8868	0.2464
420.0915	0.2435
420.2961	0.2417
420.5007	0.2433
420.7053	0.235
420.9099	0.251
421.1144	0.2417
421.319	0.2387
421.5235	0.2359
421.728	0.2447
421.9325	0.2432
422.137	0.2457
422.3415	0.2405
422.546	0.2348
422.7504	0.2326
422.9549	0.2472
423.1593	0.2269
423.3637	0.2418
423.5681	0.2374
423.7725	0.2408
423.9769	0.2441
424.1812	0.2251
424.3856	0.2353
424.5899	0.2266
424.7942	0.2261
424.9985	0.235
425.2028	0.2307
425.4071	0.2276
425.6113	0.2207
425.8156	0.2167
426.0198	0.2174
426.224	0.2159
426.4282	0.2263
426.6324	0.2203
426.8366	0.2113
427.0407	0.213
427.2449	0.2152
427.449	0.2156
427.6531	0.2221
427.8572	0.2173
428.0613	0.213
428.2654	0.211
428.4694	0.2001
428.6735	0.2061
428.8775	0.1958
429.0815	0.2116
429.2855	0.2076
429.4895	0.2023
429.6935	0.2013
429.8975	0.1978
430.1014	0.1939
430.3053	0.2045
430.5093	0.1948
430.7132	0.1979
430.9171	0.1888
431.1209	0.1951
431.3248	0.1772
431.5286	0.187
431.7325	0.1974
431.9363	0.1851
432.1401	0.1773
432.3439	0.1868
432.5477	0.1771
432.7514	0.1782
432.9552	0.1774
433.1589	0.1708
433.3627	0.1743
433.5664	0.1604
433.7701	0.1721
433.9737	0.1685
434.1774	0.16
434.3811	0.1566
434.5847	0.1582
434.7883	0.1624
434.9919	0.151
435.1955	0.1671
435.3991	0.1617
435.6027	0.1574
435.8062	0.164
436.0098	0.1501
436.2133	0.1518
436.4168	0.1523
436.6203	0.1387
436.8238	0.1389
437.0272	0.1459
437.2307	0.1408
437.4341	0.1442
437.6375	0.14
437.841	0.1256
438.0443	0.1324
438.2477	0.1309
438.4511	0.1216
438.6545	0.1362
438.8578	0.1307
439.0611	0.1354
439.2644	0.126
439.4677	0.1254
439.671	0.1119
439.8743	0.1168
440.0775	0.126
440.2808	0.1117
440.484	0.1123
440.6872	0.1111
440.8904	0.0989
441.0936	0.1115
441.2967	0.0978
441.4999	0.1056
441.703	0.1024
441.9062	0.116
442.1093	0.1153
442.3124	0.1028
442.5155	0.0988
442.7185	0.0964
442.9216	0.0994
443.1246	0.0971
443.3276	0.0919
443.5307	0.0911
443.7337	0.085
443.9366	0.0889
444.1396	0.0848
444.3426	0.086
444.5455	0.0824
444.7484	0.0815
444.9513	0.0857
445.1542	0.0943
445.3571	0.0766
445.56	0.0776
445.7628	0.084
445.9657	0.0773
446.1685	0.0813
446.3713	0.0755
446.5741	0.0762
446.7769	0.0758
446.9797	0.0709
447.1824	0.0694
447.3852	0.0519
447.5879	0.0645
447.7906	0.061
447.9933	0.0636
448.196	0.0607
448.3986	0.0564
448.6013	0.0602
448.8039	0.0664
449.0066	0.0675
449.2092	0.0625
449.4118	0.0572
449.6143	0.0599
449.8169	0.0626
450.0195	0.0523
450.222	0.0633
450.4245	0.052
450.627	0.0484
450.8295	0.0496
451.032	0.0481
451.2345	0.0495
451.4369	0.0516
451.6394	0.0514
451.8418	0.0472
452.0442	0.0445
452.2466	0.0362
452.449	0.049
452.6513	0.0411
452.8537	0.0438
453.056	0.0358
453.2583	0.0363
453.4607	0.0324
453.663	0.0421
453.8652	0.033
454.0675	0.0426
454.2697	0.0403
454.472	0.0331
454.6742	0.0369
454.8764	0.0462
455.0786	0.032
455.2808	0.0367
455.4829	0.0329
455.6851	0.0351
455.8872	0.0297
456.0893	0.0389
456.2915	0.0337
456.4935	0.0434
456.6956	0.0282
456.8977	0.0333
457.0997	0.035
457.3018	0.0228
457.5038	0.0348
457.7058	0.034
457.9078	0.0261
458.1098	0.0285
458.3117	0.037
458.5137	0.0161
458.7156	0.0277
458.9175	0.0226
459.1194	0.0194
459.3213	0.021
459.5232	0.0208
459.725	0.0291
459.9269	0.0187
460.1287	0.0247
460.3305	0.0298
460.5323	0.025
460.7341	0.0232
460.9359	0.0213
461.1376	0.0278
461.3394	0.0242
461.5411	0.0226
461.7428	0.0246
461.9445	0.0256
462.1462	0.0175
462.3479	0.016
462.5495	0.0222
462.7512	0.0251
462.9528	0.0168
463.1544	0.0188
463.356	0.0164
463.5576	0.0193
463.7592	0.017
463.9607	0.0137
464.1623	0.0183
464.3638	0.0126
464.5653	0.0123
464.7668	0.022
464.9683	0.0206
465.1697	0.0148
465.3712	0.0055
465.5726	0.0164
465.7741	0.0161
465.9755	0.0148
466.1769	0.0147
466.3782	0.0169
466.5796	0.0141
466.7809	0.0136
466.9823	0.0096
467.1836	0.0135
467.3849	0.0104
467.5862	0.0069
467.7875	0.0176
467.9887	0.0179
468.19	0.0126
468.3912	0.0206
468.5924	0.0098
468.7936	0.0139
468.9948	0.0034
469.196	0.0125
469.3972	0.0006
469.5983	0.0041
469.7994	0.0212
470.0006	0.0092
470.2017	0.0067
470.4027	0.024
470.6038	0.0122
470.8049	0.0166
471.0059	0.0145
471.2069	0.0071
471.408	0.0126
471.6089	0.0092
471.8099	0.0143
472.0109	0.0051
472.2119	0.0233
472.4128	0.0039
472.6137	0.0108
472.8146	0.0115
473.0155	0.0136
473.2164	0.0063
473.4173	0.0037
473.6181	0.0153
473.819	0.0099
474.0198	0.0023
474.2206	-0.0037
474.4214	0.0082
474.6222	-0.002
474.8229	0.0066
475.0237	0.0143
475.2244	0.0093
475.4251	0.0094
475.6258	0.0023
475.8265	0.0062
476.0272	0.0066
476.2278	0.0145
476.4285	0.0049
476.6291	0.0086
476.8297	0.0114
477.0303	0.0001
477.2309	0.0057
477.4315	0.0159
477.632	0.0054
477.8326	0.0099
478.0331	0.0089
478.2336	0.0102
478.4341	0.0041
478.6346	0.012
478.8351	-0.0004
479.0355	0.0139
479.236	0.0128
479.4364	0.0054
479.6368	0.0043
479.8372	0.004
480.0376	0.0052
480.2379	0.0079
480.4383	0.0154
480.6386	0.0023
480.8389	0.0037
481.0392	0.0102
481.2395	0.014
481.4398	0.0117
481.6401	-0.0026
481.8403	0.0019
482.0405	0.0048
482.2408	0.0108
482.441	0.0104
482.6411	0.0015
482.8413	0.0026
483.0415	0.0107
483.2416	-0.0007
483.4417	0.0071
483.6419	-0.0012
483.8419	0.005
484.042	0.0046
484.2421	0.0008
484.4422	0.0008
484.6422	0.0086
484.8422	0.0057
485.0422	0.0043
485.2422	0.0092
485.4422	0.0083
485.6422	0.0036
485.8421	0.0084
486.042	0.0115
486.242	0.0033
486.4419	0.0067
486.6417	0.0041
486.8416	0.0052
487.0415	0.0093
487.2413	0.0004
487.4411	0.0084
487.641	0.0003
487.8408	0.0048
488.0405	0.0077
488.2403	0.0034
488.4401	-0.0032
488.6398	0.0055
488.8395	0.0122
489.0392	0.0004
489.2389	0.0121
489.4386	-0.006
489.6383	0.0052
489.8379	-0.0027
490.0376	0.0024
490.2372	-0.0017
490.4368	-0.0019
490.6364	-0.0017
490.836	-0.0039
491.0355	-0.0006
491.2351	0.0058
491.4346	0.0083
491.6341	-0.0005
491.8336	0.0041
492.0331	-0.003
492.2326	0.0033
492.432	0.0037
492.6315	0.0066
492.8309	-0.0006
493.0303	0.0012
493.2297	0.0079
493.4291	-0.0041
493.6284	0.0082
493.8278	-0.002
494.0271	0.0019
494.2264	-0.0003
494.4257	0.0065
494.625	-0.0012
494.8243	-0.0018
495.0236	0.0004
495.2228	0.0048
495.422	0.0074
495.6213	0.0081
495.8205	0.0044
496.0196	0.0042
496.2188	0.005
496.418	0.004
496.6171	-0.004
496.8162	-0.0004
497.0153	0.0063
497.2144	0.0032
497.4135	0.0062
497.6126	-0.0073
497.8116	-0.0046
498.0107	-0.0028
498.2097	-0.001
498.4087	-0.0025
498.6077	-0.0076
498.8067	0.0019
499.0056	-0.0048
499.2046	0.0095
499.4035	0.0068
499.6024	-0.0054
499.8013	-0.0009
500.0002	0.0058
500.199	0.007
500.3979	-0.0168
500.5967	-0.0036
500.7956	0.0049
500.9944	0.0052
501.1932	0.009
501.3919	0.0068
501.5907	-0.0046
501.7895	-0.0044
501.9882	0.0017
502.1869	0.0036
502.3856	-0.0009
502.5843	0.0024
502.783	0.0004
502.9816	0.0045
503.1803	0.0033
503.3789	0.0091
503.5775	-0.0001
503.7761	-0.0019
503.9747	-0.0003
504.1732	-0.0142
504.3718	0.0034
504.5703	0.0071
504.7689	-0.014
504.9674	0.001
505.1658	0.0023
505.3643	0.0035
505.5628	0.0059
505.7612	0.004
505.9597	-0.0029
506.1581	0.0015
506.3565	-0.0001
506.5549	-0.0001
506.7532	-0.0052
506.9516	-0.0052
507.1499	0.0045
507.3482	0.0039
507.5465	0.0029
507.7448	-0.0002
507.9431	0.0029
508.1414	-0.0095
508.3396	-0.0017
508.5379	0.0018
508.7361	0.0022
508.9343	0.0068
509.1325	0.0008
509.3306	-0.0074
509.5288	-0.0129
509.7269	0.0063
509.9251	-0.0003
510.1232	0.0012
510.3213	-0.0014
510.5193	0.0047
510.7174	-0.0077
510.9154	-0.001
511.1135	-0.008
511.3115	-0.0118
511.5095	0.0015
511.7075	-0.0046
511.9055	-0.0032
512.1034	-0.0033
512.3014	0.0015
512.4993	-0.0039
512.6972	0.0018
512.8951	0.0004
513.093	-0.0019
513.2908	0.0131
513.4887	-0.0048
513.6865	0.0046
513.8844	0.0098
514.0822	-0.0047
514.2799	-0.0127
514.4777	-0.0074
514.6755	-0.0059
514.8732	-0.0027
515.0709	0.0052
515.2687	-0.0008
515.4664	-0.0003
515.664	0.0011
515.8617	0.0019
516.0594	-0.0061
516.257	-0.0031
516.4546	0.0047
516.6522	0.0036
516.8498	-0.0005
517.0474	-0.0041
517.2449	-0.0068
517.4425	-0.0062
517.64	-0.0005
517.8375	0.002
518.035	-0.0005
518.2325	-0.0104
518.43	-0.0098
518.6274	-0.0058
518.8249	-0.0056
519.0223	0.0084
519.2197	-0.0027
519.4171	-0.0043
519.6145	0.01
519.8118	-0.0168
520.0092	-0.0011
520.2065	0.0052
520.4038	-0.0055
520.6011	0.0001
520.7984	0.0073
520.9956	-0
521.1929	-0.0066
521.3901	0.0086
521.5874	-0.0077
521.7846	-0.0135
521.9818	-0.0063
522.1789	-0.0098
522.3761	0.0096
522.5732	-0.0087
522.7704	-0.0042
522.9675	-0.0148
523.1646	-0.0014
523.3617	0.0015
523.5587	0.002
523.7558	-0.0012
523.9528	-0.0016
524.1498	-0.0038
524.3468	-0.0016
524.5438	-0.0022
524.7408	-0.008
524.9378	-0.0088
525.1347	0.0063
525.3316	-0.0014
525.5285	0.0058
525.7254	-0.0026
525.9223	0.0055
526.1192	0.0047
526.316	0.0118
526.5129	0.0057
526.7097	-0.009
526.9065	-0.0005
527.1033	-0.0033
527.3	-0.0027
527.4968	0.0076
527.6935	-0.0061
527.8903	-0.0058
528.087	-0.0019
528.2837	-0.0023
528.4804	0.0041
528.677	-0.0052
528.8737	-0.009
529.0703	0.0014
529.2669	-0.0022
529.4635	-0.0011
529.6601	-0.0044
529.8567	-0.0024
530.0532	-0.0001
530.2498	0.0022
530.4463	-0.007
530.6428	0.0048
530.8393	-0.0004
531.0358	-0.0091
531.2322	-0.0106
531.4287	-0.0042
531.6251	-0.0149
531.8215	-0.0028
532.0179	-0.0019
532.2143	-0.0017
532.4107	0.0104
532.607	-0.005
532.8034	-0.0079
532.9997	-0.004
533.196	-0.0055
533.3923	0.0028
533.5886	-0.0017
533.7848	-0.0005
533.9811	0.0018
534.1773	0.0007
534.3735	0.0111
534.5697	-0.0087
534.7659	0.0066
534.9621	0.0034
535.1582	-0.0078
535.3544	0.0041
535.5505	-0.0011
535.7466	0.0083
535.9427	-0.0042
536.1387	-0.0046
536.3348	0.013
536.5308	0.0015
536.7269	0.0014
536.9229	0.005
537.1189	0.0107
537.3148	-0.0035
537.5108	-0.0038
537.7068	0.0132
537.9027	-0.0135
538.0986	0.0143
538.2945	0.0032
538.4904	-0.0061
538.6863	-0.0025
538.8821	0.0019
539.078	0.0123
539.2738	0.0048
539.4696	-0.0025
539.6654	-0.0016
539.8611	0.0032
540.0569	0.0081
540.2526	0.0018
540.4484	-0.0116
540.6441	-0.0069
540.8398	0.0061
541.0355	0.0002
541.2311	-0.0035
541.4268	0.0166
541.6224	0.0117
541.818	0.002
542.0136	0.0001
542.2092	0.0038
542.4048	0.0007
542.6003	-0.0027
542.7959	-0.0007
542.9914	-0.0066
543.1869	-0.0039
543.3824	-0.0001
543.5779	0.0018
543.7734	0.0093
543.9688	0.0135
544.1642	-0.0017
544.3596	0.0113
544.555	0.0066
544.7504	0.009
544.9458	0.0016
545.1411	-0.0009
545.3365	0.0016
545.5318	0.0098
545.7271	0.0062
545.9224	-0.007
546.1177	0.0034
546.3129	-0.0049
546.5081	0.0043
546.7034	-0.0003
546.8986	0.008
547.0938	0.0048
547.289	0.0059
547.4841	0.0069
547.6793	0.0055
547.8744	-0.0011
548.0695	-0.001
548.2646	0.0047
548.4597	0.0041
548.6548	0.0111
548.8498	0.0059
549.0448	0.0022
549.2399	0.0064
549.4349	-0.0011
549.6298	0.0096
549.8248	-0.0052
550.0198	0.0156
550.2147	0.0088
550.4096	-0.007
550.6045	0.0089
550.7994	-0.0032
550.9943	-0.0011
551.1892	-0.0095
551.384	0.0148
551.5788	0.0095
551.7737	0.0063
551.9685	0.0082
552.1632	0.0022
552.358	0.0013
552.5528	0.0022
552.7475	0.0003
552.9422	0.0084
553.1369	0.0057
553.3316	0.0065
553.5263	0.0132
553.7209	0.0012
553.9156	-0.01
554.1102	0.0097
554.3048	-0.0034
554.4994	0.0078
554.694	0.004
554.8885	0.0044
555.0831	0.013
555.2776	0.0097
555.4721	0.0018
555.6666	0.0098
555.8611	0.0069
556.0555	0.0042
556.25	0.0086
556.4444	0.0012
556.6388	0.0146
556.8332	0.0033
557.0276	0.0095
557.222	-0.0005
557.4163	0.0075
557.6107	0.0115
557.805	-0
557.9993	0.0002
558.1936	-0.0106
558.3879	-0.0019
558.5821	-0.0104
558.7764	-0.0016
558.9706	-0.0042
559.1648	0.0078
559.359	-0.0045
559.5532	0.0082
559.7473	-0.0066
559.9415	0.0097
560.1356	0.0134
560.3297	0.0014
560.5238	0.0143
560.7179	0.0028
560.9119	0.0002
561.106	-0.0028
561.3	0.0087
561.494	-0.0091
561.688	0.0056
561.882	0.0005
562.076	0.0131
562.2699	0.0047
562.4639	0.0075
562.6578	0.0076
562.8517	0.0047
563.0456	0.0054
563.2395	0.0068
563.4333	0.0055
563.6272	0.0021
563.821	-0.0008
564.0148	0.0066
564.2086	-0.0014
564.4024	0.0111
564.5961	0.0092
564.7899	0.0126
564.9836	0.0016
565.1773	0.012
565.371	0.0012
565.5647	0.0005
565.7584	0.0163
565.952	0.0082
566.1456	0.0018
566.3393	0.0076
566.5329	0.0035
566.7264	0.0085
566.92	0.0033
567.1136	0.0009
567.3071	-0.0023
567.5006	0.007
567.6941	0.0063
567.8876	0.0065
568.0811	0.0226
568.2745	0.0026
568.468	0.0016
568.6614	0.0094
568.8548	0.0098
569.0482	0.0093
569.2416	0.0087
569.4349	0.0085
569.6283	0.0042
569.8216	0.0077
570.0149	0.005
570.2082	0.0119
570.4015	0.0051
570.5947	0.0031
570.788	0.0112
570.9812	0.0061
571.1744	0.0081
571.3676	0.0037
571.5608	0.0061
571.754	0.0136
571.9471	0.0057
572.1402	0.0083
572.3333	0.0108
572.5264	0.0113
572.7195	0.0087
572.9126	0.0093
573.1057	0.009
573.2987	0.0058
573.4917	0.0103
573.6847	0.003
573.8777	0.0103
574.0707	0.0089
574.2636	0.0089
574.4566	0.0034
574.6495	0.0051
574.8424	0.0135
575.0353	0.0115
575.2281	0.0144
575.421	0.0047
575.6138	0.007
575.8067	0.0061
575.9995	0.0057
576.1923	0.009
576.385	0.0072
576.5778	0.0137
576.7706	0.0109
576.9633	0.0112
577.156	0.0044
577.3487	0.0053
577.5414	0.0048
577.734	0.0076
577.9267	0.0074
578.1193	0.0082
578.3119	0.0035
578.5045	0.0091
578.6971	0.0058
578.8897	0.0026
579.0822	0.0145
579.2747	0.0051
579.4673	0.0059
579.6598	0.0063
579.8522	0.0065
580.0447	0.0126
580.2372	0.0118
580.4296	0.01
580.622	0.0079
580.8144	0.0073
581.0068	0.0065
581.1992	0.0081
581.3915	0.0007
581.5839	0.0077
581.7762	0.0066
581.9685	0.0084
582.1608	0.0053
582.353	0.0075
582.5453	0.0133
582.7375	0.0075
582.9298	0.0038
583.122	-0.0006
583.3142	0.0102
583.5063	0.003
583.6985	0.0012
583.8906	0.0032
584.0827	0.0094
584.2749	0.0084
584.4669	0.008
584.659	0.0099
584.8511	0.0105
585.0431	0.0091
585.2352	0.0062
585.4272	0.0084
585.6192	0.0085
585.8111	0.0058
586.0031	0.0026
586.195	0.011
586.387	0.0024
586.5789	0.0091
586.7708	0.0095
586.9627	0.0086
587.1545	0.0114
587.3464	0.0066
587.5382	0.0045
587.73	0.0125
587.9218	0.004
588.1136	0.0051
588.3053	0.0078
588.4971	0.0059
588.6888	0.0027
588.8805	0.0059
589.0722	0.0143
589.2639	0.0111
589.4556	0.0103
589.6472	0.0164
589.8389	0.0071
590.0305	0.0038
590.2221	0.0121
590.4137	0.0117
590.6052	0.0053
590.7968	0.0074
590.9883	0.0086
591.1798	0.0111
591.3713	0.0076
591.5628	0.005
591.7543	0.0099
591.9458	0.005
592.1372	0.0126
592.3286	0.0059
592.52	0.0074
592.7114	0.0075
592.9028	0.0116
593.0941	0.0068
593.2855	0.0038
593.4768	0.0097
593.6681	0.0113
593.8594	0.0101
594.0506	0.0079
594.2419	0.0078
594.4331	0.007
594.6244	0.0054
594.8156	0.011
595.0067	0.0045
595.1979	0.005
595.3891	0.0084
595.5802	0.0129
595.7713	0.0043
595.9624	0.0172
596.1535	0.0094
596.3446	0.0102
596.5357	0.013
596.7267	0.0099
596.9177	0.0036
597.1087	0.0077
597.2997	0.0096
597.4907	-0.0002
597.6817	0.0042
597.8726	0.0105
598.0635	0.0012
598.2544	0.0118
598.4453	0.005
598.6362	0.0072
598.827	0.0087
599.0179	0.0047
599.2087	0.0127
599.3995	0.0116
599.5903	0.0133
599.7811	0.0108
599.9718	0.0086
600.1626	0.0041
600.3533	0.0088
600.544	0.0026
600.7347	0.0088
600.9254	0.0133
601.116	0.006
601.3067	0.0047
601.4973	0.0084
601.6879	0.01
601.8785	0.0086
602.0691	0.0043
602.2596	0.0076
602.4502	0.0114
602.6407	0.0101
602.8312	0.0082
603.0217	0.0076
603.2122	0.0075
603.4027	0.0068
603.5931	0.0011
603.7835	0.013
603.9739	0.0023
604.1643	0.0176
604.3547	0.013
604.5451	0.0054
604.7354	0.0018
604.9257	0.0043
605.116	0.0079
605.3063	0.0051
605.4966	0.0024
605.6869	0.014
605.8771	0.013
606.0673	0.0055
606.2575	0.0059
606.4477	0.0101
606.6379	0.002
606.8281	0.0025
607.0182	0.0081
607.2083	0.0064
607.3985	0.0098
607.5885	0.0061
607.7786	0.0146
607.9687	0.0079
608.1587	0.0111
608.3488	0.0048
608.5388	0.0038
608.7288	0.0009
608.9187	0.005
609.1087	0.0089
609.2986	0.009
609.4886	0.006
609.6785	0.005
609.8684	0.0086
610.0582	0.0032
610.2481	0.0027
610.4379	0.009
610.6278	0.0088
610.8176	0.0186
611.0074	0.0088
611.1971	0.0125
611.3869	0.0039
611.5766	0.0007
611.7664	0.0068
611.9561	0.0053
612.1458	0.0171
612.3354	0.0122
612.5251	0.0034
612.7147	0.0131
612.9044	0.002
613.094	0.012
613.2836	0.0082
613.4731	0.0054
613.6627	0.0088
613.8522	0.0056
614.0417	0.0021
614.2313	0.0079
614.4207	0.0113
614.6102	0.0111
614.7997	0.0143
614.9891	0.0098
615.1785	0.0043
615.3679	0.0121
615.5573	0.0152
615.7467	0.0084
615.9361	0.0017
616.1254	0.0109
616.3147	0.0102
616.504	0.0026
616.6933	0.0116
616.8826	0.009
617.0718	0.0112
617.2611	0.0076
617.4503	0.0122
617.6395	0.0104
617.8287	0.0075
618.0179	0.009
618.207	0.0099
618.3961	-0.0018
618.5853	0.0065
618.7744	0.0095
618.9634	0.0086
619.1525	0.0032
619.3416	0.0051
619.5306	0.0092
619.7196	0.0132
619.9086	0.0086
620.0976	-0.0043
620.2866	0.0231
620.4755	0.0012
620.6645	0.0111
620.8534	0.0067
621.0423	0.0076
621.2312	0.0067
621.42	0.0048
621.6089	0.0059
621.7977	0.018
621.9865	0.0112
622.1753	-0.0031
622.3641	-0.0001
622.5529	0.004
622.7416	0.0158
622.9303	0.0103
623.1191	0.0026
623.3078	0.0092
623.4964	0.0065
623.6851	0.0157
623.8737	0.0073
624.0624	-0.0044
624.251	0.001
624.4396	0.0072
624.6282	0.0154
624.8167	0.0072
625.0053	0.009
625.1938	0.0102
625.3823	0.0183
625.5708	0.0035
625.7593	0.0047
625.9477	0.0161
626.1362	0.0038
626.3246	0.0056
626.513	0.0092
626.7014	0.0123
626.8898	0.0063
627.0781	0.0068
627.2665	0.015
627.4548	-0.0028
627.6431	0.0086
627.8314	0.0102
628.0197	0.0076
628.2079	-0.002
628.3962	0.0103
628.5844	0.0049
628.7726	0.0092
628.9608	0.0144
629.1489	0.008
629.3371	0.0013
629.5252	0.0146
629.7134	0.0018
629.9015	0.0114
630.0895	-0.0108
630.2776	0.0146
630.4657	0.0117
630.6537	0.0097
630.8417	0.0097
631.0297	0.0065
631.2177	0.0001
631.4057	0.0226
631.5936	0.0047
631.7815	0.0161
631.9695	0.0196
632.1574	0.0234
632.3452	0.0009
632.5331	0.0162
632.7209	0.0194
632.9088	0.0051
633.0966	0.0142
633.2844	0.013
633.4722	0.0067
633.6599	0.0193
633.8477	0.0122
634.0354	0.0055
634.2231	-0.0012
634.4108	0.0028
634.5985	-0.002
634.7861	0.004
634.9738	0.0013
635.1614	0.002
635.349	0.0003
635.5366	0.0056
635.7242	0.0094
635.9117	0.0021
636.0993	0.018
636.2868	0.0078
636.4743	0.0165
636.6618	-0.0008
636.8492	0.0104
637.0367	-0.0071
637.2241	-0.0035
637.4115	0.0482
637.5989	0.0099
637.7863	0.0195
637.9737	0.0124
638.161	0.001
638.3484	-0.004
638.5357	0.0102
638.723	-0.0043
638.9103	-0.0115
639.0975	0.0056
639.2848	0.0167
639.472	0.011
639.6592	-0.0135
639.8464	-0.0096
640.0336	0.0102
640.2208	-0.0089
640.4079	-0.0119
640.595	-0.0147
640.7821	0.0178
640.9692	0.005
641.1563	0.0259
641.3434	0.0194
641.5304	0.0276
641.7174	0.024
641.9044	0.0177
642.0914	0.0207
642.2784	0.0128
642.4653	-0.0054
642.6523	0.0068
642.8392	0.0027
643.0261	0.0165
643.213	0.0116
643.3999	0.0128
643.5867	0.0082
643.7735	0.0019
643.9604	0.0217
644.1472	-0
644.3339	-0.0016
644.5207	-0.0053
644.7075	0.0067
644.8942	0.0021
645.0809	0.0188
645.2676	0.0024
645.4543	0.0152
645.6409	0.0207
645.8276	0.0165
646.0142	-0.0062
646.2008	0.0019
646.3874	-0.0036
646.574	0.0128
646.7605	-0.0084
646.9471	-0.0058
647.1336	-0.0096
647.3201	0.0102
647.5066	0.0076
647.6931	0.0006
647.8795	0.0129
648.0659	0.0075
648.2524	0.0138
648.4388	0.006
648.6252	0.0266
648.8115	0.0088
648.9979	0.0175
649.1842	0.0096
649.3705	0.0085
649.5568	-0.011
649.7431	-0.0056
649.9294	-0.0016
650.1156	-0.0141
650.3018	0.0145
650.488	0.0116
650.6742	0.0142
650.8604	-0.0017
651.0466	0.0074
651.2327	0.0177
651.4188	-0.002
651.6049	0.028
651.791	0.0191
651.9771	0.0153
652.1632	0.0143
652.3492	-0.0027
652.5352	0.0306
652.7212	0.0065
652.9072	0.0076
653.0932	0.0322
653.2791	0.0113
653.465	0.0131
653.651	0.0069
653.8369	0.001
654.0227	0.0011
654.2086	0.0308
654.3944	0.0144
654.5803	0.0001
654.7661	0.0022
654.9519	0.0037
655.1377	0.0002
655.3234	0.0002
655.5092	0.0002
655.6949	0.0002
655.8806	0.0002
656.0663	0.0002
656.2519	0.0002
656.4376	0.0002
656.6232	0.0002
656.8088	0.0002
656.9945	0.0002
657.18	0.0002
657.3656	0.0002
657.5511	0.0002
657.7367	0.0002
657.9222	0.0002
658.1077	0.0002
658.2932	0.0002
658.4786	0.0002
658.6641	0.0002
658.8495	0.0002
659.0349	0.0002
659.2203	0.0002
659.4057	0.0184
659.591	0.2824
659.7764	0.0228
659.9617	0.0178
660.147	0.0126
660.3323	0.0207
660.5176	0.007
660.7028	0.0174
660.888	0.0064
661.0733	0.0293
661.2585	0.009
661.4436	0.0054
661.6288	0.0166
661.8139	-0.0114
661.9991	-0.0205
662.1842	-0.0058
662.3693	0.0172
662.5544	0.0197
662.7394	0.0179
662.9245	0.0036
663.1095	-0.0115
663.2945	-0.0053
663.4795	0.0058
663.6644	0.0148
663.8494	0.018
664.0343	0.0217
664.2193	-0.001
664.4042	0.0147
664.589	0.016
664.7739	0.0029
664.9587	-0.011
665.1436	-0.0058
665.3284	-0.004
665.5132	0.0016
665.698	0.0201
665.8827	0.0177
666.0675	-0.0221
666.2522	0.0183
666.4369	0.0176
666.6216	0.0124
666.8063	0.0079
666.9909	0.0186
667.1756	-0.0075
667.3602	-0.0236
667.5448	0.0132
667.7294	-0.007
667.9139	-0.0213
668.0985	0.0187
668.283	0.0079
668.4675	0.0244
668.652	0.0094
668.8365	-0
669.0209	0.0228
669.2054	0.009
669.3898	0.0115
669.5742	0.0303
669.7586	-0.0012
669.943	-0.0042
670.1273	0.0057
670.3117	0.0245
670.496	0.02
670.6803	0.0024
670.8646	0.0047
671.0488	0.0514
671.2331	-0.0122
671.4173	0.0032
671.6015	-0.0031
671.7857	0.0226
671.9699	0.0198
672.1541	-0.0064
672.3382	0.0068
672.5223	0.0044
672.7064	-0.0028
672.8905	-0.0032
673.0746	-0.0013
673.2587	0.017
673.4427	0.0299
673.6267	0.0204
673.8107	0.0286
673.9947	0.0314
674.1787	0.017
674.3626	0.0239
674.5465	0.0244
674.7304	0.0046
674.9143	0.0035
675.0982	0.0241
675.2821	0.0084
675.4659	0.0025
675.6497	0.0207
675.8335	-0.0042
676.0173	0.0074
676.2011	0.0283
676.3849	0.0128
676.5686	0.0233
676.7523	0.011
676.936	0.003
677.1197	0.0168
677.3034	0.0415
677.487	0.0252
677.6706	-0.0024
677.8542	0.0153
678.0378	0.012
678.2214	0.0143
678.405	0.0174
678.5885	0.0198
678.772	0.0334
678.9555	0.0125
679.139	0.0233
679.3225	0.0059
679.5059	-0.0055
679.6894	0.0052
679.8728	0.008
680.0562	0.0282
680.2395	0.004
680.4229	0.0015
680.6062	0.008
680.7896	-0.0085
680.9729	0.0333
681.1562	-0.0032
681.3394	0.0182
681.5227	0.0087
681.7059	0.0227
681.8891	0.0132
682.0723	0.0141
682.2555	0.0126
682.4387	0.0174
682.6218	0.021
682.805	0.0023
682.9881	-0.0029
683.1712	0.014
683.3542	0.0219
683.5373	-0.006
683.7203	0.019
683.9034	-0
684.0864	0.006
684.2694	0.0096
684.4523	0.0137
684.6353	0.0056
684.8182	0.0033
685.0011	0.0207
685.184	-0.0066
685.3669	0.0141
685.5498	0.0115
685.7326	0.0116
685.9154	0.0048
686.0982	0.0088
686.281	0.0108
686.4638	0.0093
686.6465	0.0172
686.8293	-0.0132
687.012	-0.0016
687.1947	0.0276
687.3774	0.0167
687.56	-0.0017
687.7427	0.0058
687.9253	-0.0271
688.1079	-0.0009
688.2905	-0.006
688.4731	0.0317
688.6556	0.0059
688.8382	-0.0346
689.0207	0.0145
689.2032	0.0166
689.3857	0.0161
689.5681	0.0183
689.7506	0.0351
689.933	-0.0055
690.1154	0.0129
690.2978	0.0107
690.4802	0.0225
690.6626	0.0023
690.8449	0.0112
691.0272	0.0042
691.2095	-0.0169
691.3918	0.0242
691.5741	0.0167
691.7563	0.0118
691.9386	0.0318
692.1208	0.001
692.303	0.0005
692.4852	-0.0007
692.6673	-0.0028
692.8495	-0.0053
693.0316	0.0067
693.2137	0.0315
693.3958	0.0081
693.5778	0.0155
693.7599	0.0233
693.9419	0.0049
694.1239	-0.0014
694.3059	0.0261
694.4879	0.0172
694.6699	0.0071
694.8518	0.0223
695.0337	0.0188
695.2157	0.0296
695.3975	0.0061
695.5794	-0.0041
695.7613	0.0486
695.9431	-0.042
696.1249	0.0235
696.3067	-0.0013
696.4885	0.0313
696.6703	0.0164
696.852	0.0046
697.0337	0.0155
697.2154	0.0023
697.3971	0.0158
697.5788	0.0072
697.7605	-0.0193
697.9421	0.0211
698.1237	0.01
698.3053	0.0011
698.4869	0.0032
698.6685	0.0015
698.85	0.0175
699.0315	0.0146
699.213	0.0086
699.3945	0.0089
699.576	0.0291
699.7575	0.0266
699.9389	-0.0012
700.1203	0.0162
700.3017	0.0213
700.4831	0.034
700.6645	0.0251
700.8458	0.0133
701.0271	0.04
701.2084	-0.0004
701.3897	0.0245
701.571	0.0049
701.7523	-0.001
701.9335	0.0348
702.1147	0.0012
702.2959	0.0006
702.4771	0.0373
702.6583	0.0144
702.8394	-0.0034
703.0205	-0.002
703.2016	0.0165
703.3827	0.0078
703.5638	0.0103
703.7449	0.0182
703.9259	0.0173
704.1069	0.0146
704.2879	0.0127
704.4689	0.0244
704.6499	0.0548
704.8308	0.0368
705.0117	0.0301
705.1927	0.0359
705.3735	0.0222
705.5544	0.0292
705.7353	0.0008
705.9161	-0.0161
706.0969	0.0161
706.2777	0.0219
706.4585	0.0019
706.6393	0.0171
706.82	-0.0025
707.0007	0.0031
707.1815	-0
707.3621	0.0478
707.5428	0.021
707.7235	0.006
707.9041	0.0274
708.0847	0.0197
708.2653	0.0409
708.4459	0.016
708.6265	-0.0053
708.807	0.0098
708.9875	0.0221
709.168	-0.0129
709.3485	0.01
709.529	0.0188
709.7095	-0
709.8899	0.0082
710.0703	0.0229
710.2507	0.0426
710.4311	-0.0156
710.6115	0.0235
710.7918	0.0177
710.9721	0.0049
711.1524	0.0056
711.3327	-0.0055
711.513	-0.0044
711.6932	0.012
711.8735	0.0431
712.0537	-0.0101
712.2339	0.0012
712.4141	0.0366
712.5942	-0.0136
712.7744	0.0227
712.9545	0.0196
713.1346	0.0114
713.3147	0.0276
713.4947	0.0217
713.6748	0.0159
713.8548	0.0376
714.0348	0.0264
714.2148	0.0156
714.3948	0.0342
714.5748	0.0294
714.7547	0.0333
714.9346	0.0192
715.1145	0.027
715.2944	-0.0142
715.4743	0.04
715.6541	-0.0181
715.834	0.0376
716.0138	0.0398
716.1936	-0.0202
716.3733	0.0107
716.5531	-0.008
716.7328	0.0147
716.9126	0.0323
717.0923	0.006
717.2719	0.0223
717.4516	0.0173
717.6312	0.0178
717.8109	0.0494
717.9905	0.0124
718.1701	0.0218
718.3496	0.0075
718.5292	-0.0037
718.7087	0.014
718.8882	0.0504
719.0677	0.0176
719.2472	0.0279
719.4267	-0.0033
719.6061	0.006
719.7856	0.0441
719.965	0.0292
720.1443	-0.0093
720.3237	-0.0063
720.5031	-0.0124
720.6824	0.0238
720.8617	0.0019
721.041	0.0382
721.2203	0.0032
721.3995	-0.008
721.5788	0.002
721.758	0.0217
721.9372	-0.0143
722.1164	0.0184
722.2956	0.0234
722.4747	0.0294
722.6538	-0.0013
722.8329	0.0238
723.012	0.0021
723.1911	-0.01
723.3702	0.0113
723.5492	0.0126
723.7282	0.0109
723.9072	0.0345
724.0862	0.021
724.2652	0.0202
724.4441	0.0183
724.623	0.0019
724.8019	0.0054
724.9808	0.0185
725.1597	0.0299
725.3385	-0.0127
725.5174	-0.0017
725.6962	0.0038
725.875	0.005
726.0538	0.0038
726.2325	0.0214
726.4112	-0.0129
726.59	0.009
726.7687	0.0109
726.9474	0.0082
727.126	0.0376
727.3047	0.0008
727.4833	0.0015
727.6619	0.004
727.8405	0.0048
728.0191	0.0267
728.1976	0.0266
728.3762	-0.0021
728.5547	0.007
728.7332	0.0165
728.9116	-0.001
729.0901	0.0154
729.2686	-0.0034
729.447	0.0077
729.6254	0.0245
729.8038	0.0223
729.9821	-0.0155
730.1605	0.0161
730.3388	0.0127
730.5171	0.0181
730.6954	0.0083
730.8737	0.007
731.0519	0.0056
731.2302	0.0333
731.4084	0.0135
731.5866	0.0023
731.7648	0.0121
731.9429	0.0126
732.1211	0.0163
732.2992	0.0141
732.4773	-0.0017
732.6554	0.0046
732.8335	0.0342
733.0115	0.0314
733.1896	0.0011
733.3676	0.0288
733.5456	0.0055
733.7235	0.0158
733.9015	0.0092
734.0794	0.0037
734.2574	-0.0062
734.4353	0.024
734.6131	-0.0107
734.791	0.0088
734.9689	0.0168
735.1467	0.0143
735.3245	0.0167
735.5023	0.0308
735.68	0.0033
735.8578	0.015
736.0355	0.0179
736.2132	0.0239
736.3909	0.016
736.5686	0.0093
736.7463	-0.0146
736.9239	0.0248
737.1015	0.0181
737.2791	0.0188
737.4567	0.0349
737.6343	0.0257
737.8118	0.0103
737.9894	-0.0083
738.1669	-0.0017
738.3444	0.0358
738.5218	-0.0084
738.6993	0.0174
738.8767	-0
739.0541	0.001
739.2315	-0.0011
739.4089	0.0218
739.5863	0.001
739.7636	0.0077
739.9409	0.0029
740.1182	0.0015
740.2955	0.0215
740.4728	0.007
740.65	-0.0097
740.8272	0.013
741.0044	0.0184
741.1816	0.0443
741.3588	0.0033
741.5359	-0.001
741.7131	0.0103
741.8902	-0.0062
742.0673	-0.0126
742.2444	0.0501
742.4214	0.0229
742.5985	-0.0054
742.7755	0.0087
742.9525	-0.0238
743.1295	-0.0226
743.3064	0.026
743.4834	0.0085
743.6603	0.0589
743.8372	-0.0062
744.0141	0.049
744.191	0.0152
744.3678	-0.0058
744.5446	0.0014
744.7215	-0.0035
744.8982	0.0159
745.075	0.0511
745.2518	0.011
745.4285	0.0527
745.6052	-0.0154
745.7819	0.0052
745.9586	0.0068
746.1353	0.001
746.3119	-0.0019
746.4885	0.0261
746.6651	0.0091
746.8417	-0.0214
747.0183	0.0371
747.1948	0.0493
747.3714	-0.0074
747.5479	0.0723
747.7244	-0.0067
747.9008	0.0421
748.0773	0.0388
748.2537	0.0416
748.4301	0.0219
748.6065	-0.0018
748.7829	-0.0091
748.9593	0.0159
749.1356	0.014
749.3119	0.0309
749.4882	0.0298
749.6645	0.0052
749.8408	0.0149
750.017	0.0283
750.1933	-0.0064
750.3695	0.0109
750.5457	-0.005
750.7218	0.0064
750.898	0.0064
751.0741	0.0113
751.2502	0.0112
751.4263	-0.0028
751.6024	0.0226
751.7784	-0.0014
751.9545	0.0158
752.1305	-0
752.3065	0.024
752.4825	0.0121
752.6584	0.0119
752.8344	-0.0069
753.0103	-0.0043
753.1862	0.0274
753.3621	0.0003
753.5379	0.0078
753.7138	0.0183
753.8896	0.032
754.0654	-0.0044
754.2412	0.0084
754.417	0.0374
754.5927	0.0184
754.7685	0.0221
754.9442	0.0167
755.1199	0.0313
755.2956	0.0132
755.4712	0.0081
755.6469	0.02
755.8225	0.0065
755.9981	0.0104
756.1736	0.013
756.3492	0.0209
756.5248	0.0228
756.7003	-0.0072
756.8758	0.0152
757.0513	0.0044
757.2267	-0.0035
757.4022	0.0102
757.5776	0.0194
757.753	0.0217
757.9284	0.0085
758.1038	0.0201
758.2791	0.0348
758.4545	0.0014
758.6298	0.0075
758.8051	0.0176
758.9803	0.0094
759.1556	0.0046
759.3308	-0.0025
759.506	-0.0044
759.6812	-0.0011
759.8564	0.0134
760.0316	-0.0121
760.2067	0.0392
760.3819	0.0061
760.557	0.0231
760.732	0.0105
760.9071	0.0464
761.0821	-0.0024
761.2572	0.0132
761.4322	0.0259
761.6072	0.0149
761.7821	-0.0253
761.9571	0.025
762.132	0.0015
762.3069	0.031
762.4818	0.0214
762.6567	0.0111
762.8316	0.0286
763.0064	0.0361
763.1812	0.0231
763.356	-0.0107
763.5308	0.015
763.7055	0.012
763.8803	-0.0045
764.055	0.002
764.2297	0.0083
764.4044	0.0078
764.579	0.0128
764.7537	0.0109
764.9283	0.0237
765.1029	0.0205
765.2775	0.0081
765.4521	0.0097
765.6266	0.0085
765.8011	0.0176
765.9756	0.0076
766.1501	0.012
766.3246	0.0266
766.4991	0.0068
766.6735	0.0561
766.8479	-0.011
767.0223	0.0212
767.1967	0.025
767.371	0.0216
767.5454	0.0181
767.7197	0.058
767.894	0.0185
768.0683	0.0317
768.2425	-0.0011
768.4168	0.0314
768.591	0.0323
768.7652	0.0011
768.9394	-0.0262
769.1135	-0.0047
769.2877	0.0276
769.4618	0.0242
769.6359	0.0293
769.81	0.0258
769.984	0.0095
770.1581	-0.0007
770.3321	0.0207
770.5061	0.0058
770.6801	0.0261
770.8541	0.0126
771.028	0.0432
771.202	0.0305
771.3759	-0.0046
771.5498	0.0171
771.7236	-0.0088
771.8975	0.0106
772.0713	0.0323
772.2451	-0.0237
772.4189	0.0365
772.5927	-0.0402
772.7665	-0.0005
772.9402	0.0546
773.1139	-0.0027
773.2876	0.0319
773.4613	0.0143
773.635	0.0379
773.8086	0.0309
773.9822	0.0522
774.1558	0.0435
774.3294	0.0303
774.503	0.0014
774.6765	0.0202
774.8501	-0.0101
775.0236	0.0569
775.1971	0.0156
775.3705	0.0215
775.544	-0.015
775.7174	-0.0121
775.8908	0.0215
776.0642	0.0324
776.2376	0.0196
776.4109	0.0302
776.5843	-0.0061
776.7576	0.0085
776.9309	0.0284
777.1041	0.0135
777.2774	0.0318
777.4506	0.0139
777.6238	0.008
777.797	0.0078
777.9702	0.0208
778.1434	0.019
778.3165	-0.0122
778.4896	-0.0054
778.6627	0.0139
778.8358	-0.0057
779.0089	0.0103
779.1819	0.0647
779.3549	0.0287
779.5279	-0.0019
779.7009	0.0938
779.8739	0.0587
780.0468	0.0114
780.2197	0.0204
780.3926	-0.0033
780.5655	0.023
780.7384	0.0348
780.9112	0.0162
781.0841	0.0252
781.2569	0.0086
781.4297	0.0224
781.6024	0.0243
781.7752	0.0139
781.9479	0.0466
782.1206	0.0134
782.2933	0.0233
782.466	0.0021
782.6386	-0.0011
782.8113	0.019
782.9839	-0.0104
783.1565	0.0526
783.329	0.0201
783.5016	0.05
783.6741	0.0061
783.8466	0.054
784.0191	0.0217
784.1916	0.0153
784.3641	-0.0333
784.5365	0.0054
784.7089	-0.0436
784.8813	0.0373
785.0537	0.0538
785.2261	0.0105
785.3984	0.0367
785.5707	0.0196
785.743	0.0454
785.9153	-0.0066
786.0876	-0.0316
786.2598	0.0022
786.432	0.0082
786.6042	0.052
786.7764	-0.0048
786.9486	-0.0216
787.1207	0.0189
787.2928	0.0361
787.4649	-0.0177
787.637	0.044
787.8091	0.0379
787.9811	0.0621
788.1532	0.0523
788.3252	0.013
788.4972	0.0415
788.6691	0.0065
788.8411	0.0006
789.013	0.0455
789.1849	-0.0133
789.3568	0.0536
789.5287	0.0891
789.7005	-0.0167
789.8723	-0.0299
790.0442	-0.0524
790.2159	0.0366
790.3877	0.0439
790.5595	0.0517
790.7312	0.0153
790.9029	0.0104
791.0746	0.0173
791.2463	-0.0442
791.4179	0.0363
791.5896	0.0274
791.7612	0.0611
791.9328	0.027
792.1044	0.0282
792.2759	-0.0253
792.4474	0.0719
792.619	-0.0543
792.7905	0.0623
792.9619	0.0367
793.1334	0.0425
793.3048	0.0648
793.4762	0.0546
793.6476	0.0088
793.819	0.0325
793.9904	0.0098
794.1617	-0.0277
794.333	0.0076
794.5043	0.0134
794.6756	-0.012
794.8469	0.0174
795.0181	0.0199
795.1893	0.0343
795.3605	0.0436
795.5317	0.0203
795.7029	0.0207
795.874	0.0142
796.0452	0.0801
796.2163	0.105
796.3873	0.0243
796.5584	-0.0064
796.7294	-0.0015
796.9005	0.1325
797.0715	-0.0016
797.2425	0.0781
797.4134	0.0996
797.5844	0.0037
797.7553	-0.0857
797.9262	0.0745
798.0971	0.0482
798.2679	0.0236
798.4388	0.0668
798.6096	-0.0041
798.7804	-0.012
798.9512	0.102
799.122	0.0546
799.2927	0.0393
799.4635	-0.1038
799.6342	-0.0015
799.8049	0.0402
799.9755	-0.0461
800.1462	0.0645
800.3168	0.1
800.4874	0.0053
800.658	0.0994
800.8286	0.0174
800.9991	0.016
801.1696	0.0118
801.3402	-0.0234
801.5106	0.0305
801.6811	-0.0258
801.8516	0.1538
802.022	0.0353
802.1924	-0.0762
802.3628	0.0221
802.5332	0.049
802.7035	0.0346
802.8739	0.026
803.0442	0.0114
803.2145	0.0466
803.3847	0.0239
803.555	0.0938
803.7252	0.0237
803.8954	-0.0481
804.0656	0.0138
804.2358	0.0055
804.4059	0.065
804.5761	-0.0345
804.7462	0.0732
804.9163	-0.0199
805.0864	-0.0286
805.2564	0.0652
805.4264	0.0619
805.5965	0.1639
805.7665	0.0315
805.9364	0.0339
806.1064	0.0191
806.2763	0.1222
806.4462	0.069
806.6161	0.0035
806.786	0.0611
806.9559	0.024
807.1257	-0.004
807.2955	0.0172
807.4653	0.1137
807.6351	0.0518
807.8048	0.034
807.9746	0.0363
808.1443	-0.0485
808.314	0.029
808.4837	0.0364
808.6533	0.0192
808.8229	-0.0055
808.9926	0.0788
809.1622	0.0684
809.3317	-0.0068
809.5013	-0.0283
809.6708	0.0204
809.8403	0.025
810.0098	0.0548
810.1793	0.0171
810.3488	-0.0298
810.5182	0.1252
810.6876	0.0469
810.857	-0.05
811.0264	0.0769
811.1958	0.1542
811.3651	0.0498
811.5344	0.1526
811.7037	0.0706
811.873	0.0767
812.0422	0.024
812.2115	0.0817
812.3807	-0.1744
812.5499	-0.0102
812.7191	0.0042
812.8882	-0.1338
813.0574	0.0106
813.2265	0.0195
813.3956	0.0873
813.5646	0.0404
813.7337	0.0277
813.9027	-0.0888
814.0718	-0.0338
814.2407	0.1366
814.4097	-0.0123
814.5787	0.1197
814.7476	0.0831
814.9165	0.0566
815.0854	-0
815.2543	0.0315
815.4232	0.1173
815.592	0.1211
815.7608	-0.174
815.9296	-0
816.0984	0.1116
816.2671	-0.1663
816.4359	0.1253
816.6046	-0.0676
816.7733	-0.0868
816.942	-0.078
817.1106	0.0588
817.2793	-0.0516
817.4479	-0.0047
817.6165	0.0038
817.785	0.0377
817.9536	-0.0656
818.1221	-0.0142
818.2906	0.0385
818.4591	0.0067
818.6276	0.02
818.7961	-0.0481
818.9645	0.0077
819.1329	0.1545
819.3013	0.0195
819.4697	-0.0213
819.638	0.0576
819.8064	0.1287
819.9747	0.3775
820.143	-0.0557
820.3113	0.1479
820.4795	0.0838
820.6477	0.0835
820.816	-0.0177
820.9842	0.1452
821.1523	0.0337
821.3205	-0.012
821.4886	0.0885
821.6567	-0.0142
821.8248	0.1655
821.9929	-0.14
822.1609	0.0313
822.329	-0.0088
822.497	0.0074
822.665	0.1719
822.833	-0.0326
823.0009	0.1596
823.1688	0.282
823.3367	-0.175
823.5046	0.0459
823.6725	-0.0161
823.8404	0.1537
824.0082	0.0366
824.176	-0.0519
824.3438	0.2206
824.5116	-0.0598
824.6793	0.1364
824.847	0.3214
825.0147	-0.0316
825.1824	0.3608
825.3501	0.2334
825.5177	0.0719
825.6854	-0.1366
825.853	-0.1129
826.0206	-0.0728
826.1881	0.0459
826.3557	0.0991
826.5232	0.1602
826.6907	-0.0634
826.8582	0.1706
827.0257	0.2863
827.1931	0.2171
827.3605	0.0485
827.528	-0.1408
827.6953	-0.1453
827.8627	-0.0436
828.03	0.0503
828.1974	0.0206
828.3647	0.1946
828.532	0.0367
828.6992	0.0292
828.8665	-0.1864
829.0337	0.078
829.2009	-0.0267
829.3681	-0.1116
829.5352	0.399
829.7024	0.1141
829.8695	0.0154
830.0366	0.1293
830.2037	0.2102
830.3707	-0.0092
830.5378	-0
830.7048	-0.1674
830.8718	-0.0604
831.0388	-0.0642
831.2057	-0.1332
831.3727	0.4895
831.5396	0.2569
831.7065	-0.1448
831.8734	0.053
832.0402	0.5334
832.2071	-0
832.3739	0.1039
832.5407	-1.526
832.7075	-0.4406
832.8742	0.3645
833.041	0.2024
833.2077	0.2275
833.3744	-0.0314
833.541	0.2422
833.7077	0.0063
833.8743	0.2475
834.0409	0.4018
834.2075	0.2698
834.3741	-0.1724
834.5407	0.013
834.7072	0.219
834.8737	0.1001
835.0402	-0
835.2067	-0.0066
835.3731	-0.0362
835.5395	-0.0286
835.706	0.2386
835.8723	0.1459
836.0387	-0
836.2051	-0.0811
836.3714	0.3323
836.5377	0.8572
836.704	0.0282
836.8703	0.3877
837.0365	-0
837.2027	0.0246
837.3689	0.2115
837.5351	0.1571
837.7013	0.9781
837.8674	0.2382
838.0335	-0.0252
838.1997	-0.2351
838.3657	-0
838.5318	-0.4866
838.6978	-0
838.8639	-0.5273
839.0299	0.2645
839.1958	-0.0046
839.3618	-0
839.5277	-0.0591
839.6937	-0.1101
839.8596	0.4157
840.0254	-0.0839
840.1913	0.5108
840.3571	0.2147
840.523	-0
840.6888	-0.195
840.8545	-0.3874
841.0203	0.0275
841.186	-0.1697
841.3517	-0.1141
841.5174	0.0443
841.6831	0.1369
841.8488	0.5795
842.0144	1.8833
842.18	0.254
842.3456	-0.3248
842.5112	-0
842.6767	0.2074
842.8422	-0
843.0077	0.195
843.1732	-0.399
843.3387	0.4492
843.5042	-0
843.6696	-0.2888
843.835	0.247
844.0004	-0.1385
844.1657	-1.3134
844.3311	-0
844.4964	-0
844.6617	-0
844.827	-0
844.9923	0.5276
845.1575	0.0765
845.3227	-0
845.4879	-0
845.6531	-0.0351
845.8183	1.2653
845.9834	-0
846.1485	0.3588
846.3136	0.0755
846.4787	-0
846.6438	-0.1735
846.8088	-0
846.9738	-0
847.1388	0.3396
847.3038	0.1307
847.4687	0.1082
847.6337	1.2587
847.7986	-0.2354
847.9635	0.5086
848.1284	0.5444
848.2932	0.6119
848.458	-0
848.6228	0.1907
848.7876	-0
848.9524	-0.4182
849.1172	-0.7884
849.2819	-0.5839
849.4466	0.2915
849.6113	0.3211
849.7759	-0
849.9406	0.031
850.1052	-0.9334
850.2698	-0
850.4344	-0
850.599	0.2798
850.7635	0.2045
850.928	-0
851.0925	0.3595
851.257	0.0419
851.4215	0.0294
851.5859	-0.1204
851.7503	-0
851.9147	-0
852.0791	-0.0711
852.2434	0.3239
852.4078	-0.053
852.5721	-0
852.7364	0.211
852.9007	-0.087
853.0649	0.7739
853.2291	0.3763
853.3934	-0
853.5575	0.167
853.7217	0.7568
853.8859	0.2062
854.05	-0.3841
854.2141	0.0074
854.3782	0.5281
854.5423	0.1813
854.7063	0.5044
854.8703	0.2091
855.0343	0.191
855.1983	0.4468
855.3623	0.1995
855.5262	-0
855.6901	0.1866
855.854	0.3279
856.0179	0.1955
856.1818	-0
856.3456	0.6038
856.5094	-0.4005
856.6732	-0
856.837	-1.0873
857.0008	0.3794
857.1645	0.4734
857.3282	-0.3874
857.4919	0.6119
857.6556	-0.2938
857.8192	0.1729
857.9828	0.1958
858.1465	0.4263
858.31	-0.1654
858.4736	-0.6098
858.6372	-0
858.8007	1.3393
858.9642	0.9448
859.1277	0.6008
859.2911	0.4458
859.4546	-0
859.618	0.3949
859.7814	-0.2963
859.9448	-0
860.1081	-0
860.2715	-0
860.4348	-0.1327
860.5981	0.1776
860.7614	0.2454
860.9246	0.3931
861.0879	0.1458
861.2511	-0
861.4143	-0
861.5774	0.7295
861.7406	-0
861.9037	-0
862.0668	-0.9252
862.2299	-0
862.393	-0
862.556	-0
862.7191	-0.3586
862.8821	0.159
863.0451	0.0361
863.208	-0
863.371	-0
863.5339	0.3213
863.6968	-0
863.8597	-0.1611
864.0225	-0
864.1854	0.3158
864.3482	-0.6517
864.511	0.3299
864.6737	0.3203
864.8365	0.6707
864.9992	-0
865.1619	-0.3462
865.3246	-2.1755
865.4873	-0.3652
865.65	-0.0214
865.8126	0.7661
865.9752	0.0771
866.1378	-0.0394
866.3004	-0.2392
866.4629	-1.6067
866.6254	-0.1288
866.7879	-0.3357
866.9504	-0.3328
867.1129	-0.2087
867.2753	-0.0108
867.4377	-0.2304
867.6001	-0.5856
867.7625	-0.0799
867.9249	0.9416
868.0872	-0
868.2495	-0
868.4118	-0
868.5741	-0
868.7363	-0.6544
868.8986	0.0549
869.0608	-0
869.223	-0.4753
869.3851	0.487
869.5473	-0.0168
869.7094	-0
869.8715	-0
870.0336	0.1638
870.1957	-0
870.3577	0.1585
870.5197	0.7065
870.6817	-0.6526
870.8437	0.3268
871.0057	-0
871.1676	0.3284
871.3295	-0
871.4914	-1.3054
871.6533	0.0701
871.8151	1.5607
871.977	-0.2153
872.1388	-0
872.3006	-0.5086
872.4623	-0.859
872.6241	-0
872.7858	-0
872.9475	-0
873.1092	0.0214
873.2709	0.7315
873.4325	-1.5682
873.5941	1.1139
873.7557	-0
873.9173	0.0804
874.0789	-0
874.2404	-0
874.4019	0.0156
874.5634	0.3436
874.7249	-0
874.8863	-0.2276
875.0478	-0.1362
875.2092	1.0282
875.3706	-0
875.5319	0.3652
875.6933	-0
875.8546	0.7517
876.0159	0.0402
876.1772	-0
876.3385	0.6176
876.4997	-0
876.6609	0.3088
876.8221	-0
876.9833	-0
877.1445	0.7986
877.3056	-0
877.4667	-0.9636
877.6278	0.8649
877.7889	-0.0954
877.9499	0.2211
878.111	-0.1703
878.272	-0
878.433	-0.2862
878.5939	-0.0173
878.7549	-0
878.9158	-0.2758
879.0767	0.1286
879.2376	-0
879.3984	1.5682
879.5593	0.0759
879.7201	-1.1677
879.8809	-0
880.0417	-0.3487
880.2024	0.9306
880.3632	-0.6136
880.5239	0.9452
880.6846	-0.507
880.8452	0.0704
881.0059	-0
881.1665	-0.0695
881.3271	0.5859
881.4877	0.6707
881.6483	-1.2183
881.8088	-0.2619
881.9693	-0
882.1298	-0
882.2903	-0
