Data from D4ACN5uM420nmA_Absorbance_14-37-08-172.txt Node
Date: Fri Feb 21 14:37:08 GMT 2025
User: LASERRRRR
Spectrometer: FLMT03099
Trigger mode: 0
Integration Time (sec): 1.500000E-2
Scans to average: 1
Electric dark correction enabled: true
Nonlinearity correction enabled: false
Boxcar width: 0
XAxis mode: Wavelengths
Number of Pixels in Spectrum: 3648
>>>>>Begin Spectral Data<<<<<
179.3399	0.4966
179.5586	0.4966
179.7771	0.4966
179.9957	-0.1621
180.2143	-1.5441
180.4329	-0
180.6514	-0
180.8699	0.3799
181.0885	-0
181.307	0.9697
181.5255	0.1427
181.744	0.8182
181.9625	0.0066
182.181	-0
182.3994	-0.5819
182.6179	-0
182.8363	-0.071
183.0547	1.2567
183.2732	0.1021
183.4916	0.3997
183.71	0.2312
183.9284	-0.0073
184.1467	0.7844
184.3651	0.141
184.5835	0.2803
184.8018	0.3115
185.0201	0.0086
185.2385	0.3064
185.4568	0.3446
185.6751	0.1481
185.8934	0.4337
186.1117	0.0694
186.3299	0.5459
186.5482	0.0853
186.7664	0.1265
186.9847	0.0995
187.2029	0.2158
187.4211	0.1072
187.6393	-0.0026
187.8575	0.2008
188.0757	0.0802
188.2939	0.2227
188.512	0.1097
188.7302	0.0754
188.9483	0.4093
189.1665	0.984
189.3846	0.3657
189.6027	0.0031
189.8208	0.2836
190.0389	0.0895
190.257	-0.0274
190.475	0.0628
190.6931	-0.0164
190.9111	0.0889
191.1292	0.0538
191.3472	0.125
191.5652	0.1913
191.7832	0.1797
192.0012	0.2084
192.2192	0.3604
192.4371	0.2709
192.6551	0.1338
192.873	0.1339
193.091	0.1852
193.3089	0.236
193.5268	0.1932
193.7447	0.1486
193.9626	0.2078
194.1805	0.1999
194.3984	0.1773
194.6162	0.1724
194.8341	0.2553
195.0519	0.1859
195.2697	0.225
195.4875	0.2468
195.7054	0.3052
195.9231	0.2178
196.1409	0.3291
196.3587	0.2678
196.5765	0.3635
196.7942	0.2776
197.012	0.3195
197.2297	0.3253
197.4474	0.3524
197.6651	0.3067
197.8828	0.3064
198.1005	0.3696
198.3182	0.433
198.5358	0.3723
198.7535	0.3706
198.9711	0.3613
199.1888	0.3737
199.4064	0.3737
199.624	0.3822
199.8416	0.392
200.0592	0.3729
200.2767	0.3813
200.4943	0.4053
200.7119	0.3661
200.9294	0.4352
201.1469	0.4016
201.3645	0.4544
201.582	0.3543
201.7995	0.4249
202.017	0.3905
202.2344	0.429
202.4519	0.4141
202.6694	0.4054
202.8868	0.366
203.1042	0.376
203.3217	0.4297
203.5391	0.3762
203.7565	0.3587
203.9739	0.3858
204.1913	0.3429
204.4086	0.3344
204.626	0.3475
204.8433	0.3943
205.0607	0.3547
205.278	0.3541
205.4953	0.3332
205.7126	0.3353
205.9299	0.3386
206.1472	0.3046
206.3644	0.349
206.5817	0.3332
206.7989	0.3499
207.0162	0.2912
207.2334	0.3212
207.4506	0.3047
207.6678	0.3242
207.885	0.3056
208.1022	0.3307
208.3194	0.282
208.5365	0.3152
208.7537	0.3095
208.9708	0.2933
209.1879	0.2813
209.405	0.2857
209.6222	0.2778
209.8392	0.2834
210.0563	0.277
210.2734	0.2898
210.4905	0.2667
210.7075	0.3078
210.9245	0.2731
211.1416	0.2873
211.3586	0.2709
211.5756	0.2402
211.7926	0.2492
212.0096	0.2683
212.2265	0.266
212.4435	0.2615
212.6604	0.2528
212.8774	0.2577
213.0943	0.2698
213.3112	0.2585
213.5281	0.2527
213.745	0.2539
213.9619	0.2349
214.1788	0.2606
214.3956	0.2486
214.6125	0.2473
214.8293	0.2394
215.0461	0.251
215.2629	0.2457
215.4798	0.2451
215.6965	0.2402
215.9133	0.2279
216.1301	0.2335
216.3469	0.2415
216.5636	0.2604
216.7803	0.2562
216.9971	0.2435
217.2138	0.2467
217.4305	0.2432
217.6472	0.2389
217.8639	0.2499
218.0805	0.2446
218.2972	0.2504
218.5138	0.2545
218.7305	0.2536
218.9471	0.2601
219.1637	0.2693
219.3803	0.2678
219.5969	0.2597
219.8135	0.2524
220.0301	0.2707
220.2466	0.274
220.4632	0.2483
220.6797	0.2588
220.8962	0.2448
221.1127	0.2777
221.3292	0.2607
221.5457	0.2845
221.7622	0.2588
221.9787	0.276
222.1951	0.2677
222.4116	0.2743
222.628	0.2833
222.8444	0.2867
223.0608	0.2661
223.2772	0.2731
223.4936	0.2807
223.71	0.2896
223.9264	0.2933
224.1427	0.2907
224.3591	0.284
224.5754	0.2953
224.7917	0.3
225.008	0.2944
225.2243	0.3059
225.4406	0.2938
225.6569	0.3053
225.8732	0.3224
226.0894	0.3139
226.3057	0.3111
226.5219	0.307
226.7381	0.3118
226.9543	0.3132
227.1705	0.3065
227.3867	0.3131
227.6029	0.3349
227.8191	0.3377
228.0352	0.342
228.2513	0.3408
228.4675	0.3483
228.6836	0.3513
228.8997	0.3392
229.1158	0.3498
229.3319	0.3538
229.548	0.3512
229.764	0.3562
229.9801	0.3706
230.1961	0.3696
230.4121	0.3701
230.6282	0.3796
230.8442	0.3847
231.0602	0.3691
231.2761	0.3758
231.4921	0.391
231.7081	0.4009
231.924	0.4034
232.14	0.4093
232.3559	0.4103
232.5718	0.4122
232.7877	0.4111
233.0036	0.4114
233.2195	0.415
233.4353	0.4166
233.6512	0.4136
233.867	0.4268
234.0829	0.4313
234.2987	0.4304
234.5145	0.4308
234.7303	0.4271
234.9461	0.4419
235.1619	0.4439
235.3776	0.4301
235.5934	0.4361
235.8091	0.4489
236.0249	0.4492
236.2406	0.4369
236.4563	0.447
236.672	0.4424
236.8877	0.4467
237.1034	0.4528
237.319	0.4582
237.5347	0.4476
237.7503	0.4567
237.966	0.4494
238.1816	0.4516
238.3972	0.4685
238.6128	0.4594
238.8284	0.4678
239.0439	0.4544
239.2595	0.4648
239.475	0.4676
239.6906	0.4581
239.9061	0.4624
240.1216	0.4643
240.3371	0.4666
240.5526	0.4576
240.7681	0.4578
240.9836	0.4552
241.199	0.4569
241.4145	0.4618
241.6299	0.4537
241.8453	0.453
242.0607	0.4341
242.2761	0.4447
242.4915	0.4446
242.7069	0.428
242.9223	0.4305
243.1376	0.4174
243.353	0.4064
243.5683	0.3927
243.7836	0.4017
243.9989	0.3875
244.2142	0.3854
244.4295	0.3834
244.6448	0.3708
244.86	0.3602
245.0753	0.354
245.2905	0.3504
245.5057	0.3401
245.721	0.3466
245.9362	0.3343
246.1514	0.3227
246.3665	0.3162
246.5817	0.3127
246.7969	0.3021
247.012	0.2979
247.2271	0.2977
247.4423	0.2905
247.6574	0.2926
247.8725	0.2787
248.0876	0.2771
248.3026	0.2691
248.5177	0.2616
248.7328	0.263
248.9478	0.2601
249.1628	0.2509
249.3779	0.2439
249.5929	0.2403
249.8079	0.2409
250.0228	0.2356
250.2378	0.2341
250.4528	0.2388
250.6677	0.2245
250.8827	0.221
251.0976	0.2235
251.3125	0.2207
251.5274	0.2132
251.7423	0.2183
251.9572	0.2135
252.172	0.2095
252.3869	0.2155
252.6017	0.2019
252.8166	0.2021
253.0314	0.2013
253.2462	0.2015
253.461	0.1947
253.6758	0.1988
253.8906	0.2
254.1053	0.1973
254.3201	0.2024
254.5348	0.19
254.7496	0.1891
254.9643	0.1945
255.179	0.1937
255.3937	0.1919
255.6083	0.1932
255.823	0.1929
256.0377	0.1873
256.2523	0.1855
256.467	0.1897
256.6816	0.1865
256.8962	0.1902
257.1108	0.1855
257.3254	0.1824
257.54	0.1809
257.7545	0.1896
257.9691	0.1866
258.1836	0.1794
258.3981	0.1796
258.6127	0.1834
258.8272	0.1862
259.0417	0.1812
259.2561	0.1814
259.4706	0.1795
259.6851	0.1826
259.8995	0.1769
260.114	0.1837
260.3284	0.171
260.5428	0.1827
260.7572	0.1831
260.9716	0.1861
261.186	0.1793
261.4003	0.1826
261.6147	0.18
261.829	0.1848
262.0433	0.1836
262.2577	0.1875
262.472	0.181
262.6863	0.1884
262.9005	0.1845
263.1148	0.1802
263.3291	0.1856
263.5433	0.188
263.7576	0.184
263.9718	0.1854
264.186	0.1859
264.4002	0.1872
264.6144	0.1927
264.8286	0.19
265.0427	0.1929
265.2569	0.1899
265.471	0.1906
265.6851	0.1877
265.8993	0.1846
266.1134	0.1912
266.3275	0.1892
266.5415	0.1966
266.7556	0.1914
266.9697	0.1925
267.1837	0.1873
267.3978	0.1963
267.6118	0.185
267.8258	0.1935
268.0398	0.1893
268.2538	0.1983
268.4677	0.1862
268.6817	0.1917
268.8957	0.1852
269.1096	0.1729
269.3235	0.1881
269.5374	0.1938
269.7514	0.1834
269.9652	0.1929
270.1791	0.1851
270.393	0.1828
270.6068	0.1832
270.8207	0.1863
271.0345	0.1837
271.2483	0.1798
271.4622	0.1875
271.676	0.184
271.8897	0.18
272.1035	0.1887
272.3173	0.1859
272.531	0.1872
272.7448	0.1824
272.9585	0.1751
273.1722	0.1816
273.3859	0.1877
273.5996	0.181
273.8133	0.1904
274.0269	0.1815
274.2406	0.1874
274.4542	0.1842
274.6679	0.1877
274.8815	0.1944
275.0951	0.1968
275.3087	0.1937
275.5223	0.1924
275.7358	0.1938
275.9494	0.1947
276.1629	0.1952
276.3765	0.195
276.59	0.1917
276.8035	0.1948
277.017	0.1988
277.2305	0.199
277.444	0.1963
277.6574	0.1912
277.8709	0.1967
278.0843	0.1989
278.2978	0.2028
278.5112	0.1966
278.7246	0.1903
278.938	0.1977
279.1513	0.1991
279.3647	0.1947
279.5781	0.1969
279.7914	0.1939
280.0047	0.1909
280.2181	0.1909
280.4314	0.1969
280.6447	0.2007
280.8579	0.1894
281.0712	0.1947
281.2845	0.1892
281.4977	0.1913
281.711	0.1966
281.9242	0.1904
282.1374	0.1907
282.3506	0.1914
282.5638	0.1936
282.7769	0.1846
282.9901	0.1972
283.2033	0.189
283.4164	0.1913
283.6295	0.1862
283.8426	0.183
284.0557	0.1892
284.2688	0.1903
284.4819	0.1887
284.695	0.1958
284.908	0.1849
285.1211	0.1959
285.3341	0.1885
285.5471	0.1927
285.7601	0.1914
285.9731	0.1941
286.1861	0.1948
286.3991	0.1968
286.612	0.1854
286.825	0.1959
287.0379	0.192
287.2508	0.1939
287.4637	0.1941
287.6766	0.1919
287.8895	0.1904
288.1024	0.1946
288.3152	0.1955
288.5281	0.1888
288.7409	0.1902
288.9538	0.1898
289.1666	0.1888
289.3794	0.194
289.5922	0.1905
289.8049	0.1961
290.0177	0.1892
290.2304	0.1937
290.4432	0.1986
290.6559	0.1921
290.8686	0.1946
291.0813	0.1942
291.294	0.1898
291.5067	0.1869
291.7194	0.1965
291.932	0.1869
292.1447	0.1917
292.3573	0.1912
292.5699	0.1935
292.7825	0.1884
292.9951	0.194
293.2077	0.1893
293.4203	0.195
293.6328	0.1931
293.8454	0.1913
294.0579	0.189
294.2704	0.1987
294.4829	0.1915
294.6954	0.1947
294.9079	0.1925
295.1204	0.1866
295.3328	0.1958
295.5453	0.196
295.7577	0.1939
295.9701	0.1936
296.1825	0.1962
296.3949	0.1902
296.6073	0.1909
296.8197	0.1966
297.0321	0.1955
297.2444	0.1912
297.4567	0.1979
297.6691	0.195
297.8814	0.1892
298.0937	0.1978
298.306	0.1877
298.5182	0.196
298.7305	0.1913
298.9428	0.1921
299.155	0.1918
299.3672	0.1918
299.5794	0.1945
299.7916	0.1904
300.0038	0.1951
300.216	0.1904
300.4282	0.1955
300.6403	0.1971
300.8525	0.1962
301.0646	0.1932
301.2767	0.1969
301.4888	0.1952
301.7009	0.1924
301.913	0.1922
302.125	0.1897
302.3371	0.1914
302.5491	0.1914
302.7612	0.1999
302.9732	0.1936
303.1852	0.1934
303.3972	0.1886
303.6092	0.1908
303.8211	0.1905
304.0331	0.1918
304.245	0.1869
304.457	0.1894
304.6689	0.1898
304.8808	0.1859
305.0927	0.1897
305.3046	0.1902
305.5164	0.1836
305.7283	0.1832
305.9401	0.1813
306.152	0.1835
306.3638	0.1849
306.5756	0.183
306.7874	0.1773
306.9992	0.1744
307.2109	0.1758
307.4227	0.1794
307.6344	0.1768
307.8462	0.1734
308.0579	0.1756
308.2696	0.1724
308.4813	0.1695
308.693	0.1698
308.9046	0.1715
309.1163	0.1653
309.328	0.1648
309.5396	0.1642
309.7512	0.1585
309.9628	0.1637
310.1744	0.1548
310.386	0.1563
310.5976	0.1547
310.8091	0.1541
311.0207	0.1554
311.2322	0.1486
311.4437	0.149
311.6552	0.1552
311.8667	0.1574
312.0782	0.1495
312.2897	0.1551
312.5012	0.1473
312.7126	0.1492
312.924	0.149
313.1355	0.1367
313.3469	0.1444
313.5583	0.1446
313.7696	0.144
313.981	0.1504
314.1924	0.1423
314.4037	0.1391
314.6151	0.1373
314.8264	0.1416
315.0377	0.1388
315.249	0.141
315.4603	0.1394
315.6716	0.1434
315.8828	0.1428
316.0941	0.1378
316.3053	0.1293
316.5165	0.1365
316.7277	0.1359
316.9389	0.1393
317.1501	0.1379
317.3613	0.1353
317.5724	0.1371
317.7836	0.1322
317.9947	0.1339
318.2058	0.1339
318.417	0.1364
318.6281	0.1359
318.8391	0.1374
319.0502	0.1371
319.2613	0.1308
319.4723	0.1352
319.6834	0.1315
319.8944	0.1288
320.1054	0.1336
320.3164	0.1254
320.5274	0.1328
320.7383	0.1376
320.9493	0.1318
321.1602	0.1313
321.3712	0.1311
321.5821	0.1336
321.793	0.1445
322.0039	0.1359
322.2148	0.1354
322.4257	0.134
322.6365	0.1293
322.8474	0.1367
323.0582	0.1376
323.269	0.1436
323.4798	0.1381
323.6906	0.1275
323.9014	0.1345
324.1122	0.13
324.3229	0.1345
324.5337	0.1428
324.7444	0.1371
324.9551	0.1353
325.1658	0.1351
325.3765	0.1378
325.5872	0.1389
325.7979	0.1396
326.0085	0.1364
326.2192	0.1399
326.4298	0.1411
326.6404	0.1422
326.851	0.1395
327.0616	0.1365
327.2722	0.1466
327.4828	0.1401
327.6933	0.1491
327.9039	0.1403
328.1144	0.1483
328.3249	0.1411
328.5354	0.1431
328.7459	0.1434
328.9564	0.1473
329.1669	0.1515
329.3773	0.1436
329.5878	0.1436
329.7982	0.1458
330.0086	0.145
330.219	0.1441
330.4294	0.1497
330.6398	0.1462
330.8502	0.1515
331.0605	0.1517
331.2708	0.1524
331.4812	0.1479
331.6915	0.1456
331.9018	0.1514
332.1121	0.1574
332.3224	0.1415
332.5326	0.1506
332.7429	0.1495
332.9531	0.1483
333.1633	0.1468
333.3735	0.1471
333.5837	0.1508
333.7939	0.1459
334.0041	0.1511
334.2143	0.1462
334.4244	0.1586
334.6346	0.1463
334.8447	0.1485
335.0548	0.1518
335.2649	0.1473
335.475	0.1498
335.685	0.1516
335.8951	0.1492
336.1051	0.1526
336.3152	0.1575
336.5252	0.1433
336.7352	0.1522
336.9452	0.1508
337.1552	0.1498
337.3652	0.1443
337.5751	0.1503
337.7851	0.1551
337.995	0.1568
338.2049	0.1514
338.4148	0.1488
338.6247	0.1567
338.8346	0.149
339.0445	0.1536
339.2543	0.1498
339.4642	0.1483
339.674	0.1514
339.8838	0.152
340.0936	0.1485
340.3034	0.1484
340.5132	0.1471
340.7229	0.1601
340.9327	0.1668
341.1424	0.155
341.3522	0.1504
341.5619	0.1546
341.7716	0.1615
341.9813	0.1585
342.1909	0.1628
342.4006	0.1642
342.6102	0.1601
342.8199	0.1563
343.0295	0.1601
343.2391	0.1607
343.4487	0.1587
343.6583	0.1702
343.8679	0.1612
344.0774	0.1584
344.287	0.1635
344.4965	0.1733
344.706	0.173
344.9155	0.1599
345.125	0.1674
345.3345	0.1762
345.544	0.1668
345.7534	0.1746
345.9629	0.1669
346.1723	0.177
346.3817	0.1703
346.5911	0.179
346.8005	0.1802
347.0099	0.1746
347.2193	0.1807
347.4286	0.1865
347.638	0.182
347.8473	0.1813
348.0566	0.1808
348.2659	0.1782
348.4752	0.1796
348.6845	0.1725
348.8937	0.1815
349.103	0.1821
349.3122	0.1873
349.5214	0.1843
349.7306	0.1899
349.9398	0.181
350.149	0.1886
350.3582	0.1881
350.5674	0.1855
350.7765	0.1858
350.9856	0.1829
351.1948	0.1819
351.4039	0.1859
351.613	0.1819
351.822	0.1946
352.0311	0.1888
352.2402	0.1848
352.4492	0.1873
352.6582	0.1847
352.8672	0.1842
353.0762	0.1925
353.2852	0.1895
353.4942	0.193
353.7032	0.1808
353.9121	0.1882
354.1211	0.1885
354.33	0.1924
354.5389	0.1908
354.7478	0.1844
354.9567	0.1966
355.1655	0.1939
355.3744	0.1874
355.5833	0.192
355.7921	0.1951
356.0009	0.1813
356.2097	0.1902
356.4185	0.1891
356.6273	0.1925
356.8361	0.1929
357.0448	0.1923
357.2536	0.1958
357.4623	0.1963
357.671	0.1941
357.8797	0.1987
358.0884	0.1904
358.2971	0.1957
358.5057	0.2016
358.7144	0.193
358.923	0.1967
359.1316	0.2019
359.3402	0.2027
359.5488	0.2052
359.7574	0.2024
359.966	0.2003
360.1746	0.2041
360.3831	0.2072
360.5916	0.2019
360.8002	0.2108
361.0087	0.2086
361.2172	0.2075
361.4256	0.2035
361.6341	0.2154
361.8426	0.2095
362.051	0.215
362.2594	0.2046
362.4678	0.2127
362.6762	0.2182
362.8846	0.209
363.093	0.2141
363.3014	0.222
363.5097	0.2107
363.718	0.2149
363.9264	0.219
364.1347	0.2177
364.343	0.221
364.5513	0.2252
364.7595	0.2223
364.9678	0.2202
365.176	0.2277
365.3842	0.2255
365.5925	0.2259
365.8007	0.2156
366.0089	0.2307
366.217	0.2266
366.4252	0.2213
366.6333	0.2272
366.8415	0.2305
367.0496	0.2286
367.2577	0.2361
367.4658	0.2276
367.6739	0.2262
367.882	0.2322
368.09	0.2341
368.2981	0.2311
368.5061	0.2335
368.7141	0.2346
368.9221	0.2465
369.1301	0.2399
369.3381	0.2509
369.5461	0.2462
369.754	0.2423
369.962	0.2433
370.1699	0.2442
370.3778	0.2589
370.5857	0.2335
370.7936	0.2402
371.0015	0.2488
371.2093	0.2431
371.4172	0.2424
371.625	0.2422
371.8328	0.2374
372.0406	0.2427
372.2484	0.2419
372.4562	0.2519
372.664	0.2551
372.8717	0.2504
373.0795	0.2473
373.2872	0.2566
373.4949	0.2601
373.7026	0.2583
373.9103	0.2556
374.118	0.2659
374.3256	0.2537
374.5333	0.2522
374.7409	0.2647
374.9485	0.2504
375.1561	0.2558
375.3637	0.2542
375.5713	0.264
375.7789	0.2653
375.9864	0.2571
376.194	0.2739
376.4015	0.2527
376.609	0.2726
376.8165	0.2662
377.024	0.2688
377.2315	0.2676
377.4389	0.2564
377.6464	0.2697
377.8538	0.2711
378.0612	0.2686
378.2686	0.2685
378.476	0.2884
378.6834	0.269
378.8908	0.2671
379.0981	0.272
379.3055	0.2778
379.5128	0.2639
379.7201	0.2659
379.9274	0.2835
380.1347	0.2748
380.342	0.2769
380.5492	0.2755
380.7565	0.273
380.9637	0.2815
381.1709	0.2748
381.3781	0.2775
381.5853	0.2766
381.7925	0.2784
381.9997	0.2881
382.2068	0.2754
382.4139	0.2823
382.6211	0.2901
382.8282	0.288
383.0353	0.2803
383.2424	0.2797
383.4494	0.2862
383.6565	0.2771
383.8635	0.28
384.0706	0.2922
384.2776	0.2845
384.4846	0.2954
384.6916	0.2766
384.8986	0.2872
385.1055	0.2891
385.3125	0.2916
385.5194	0.2936
385.7263	0.2788
385.9333	0.2874
386.1402	0.2882
386.347	0.2832
386.5539	0.2853
386.7608	0.2918
386.9676	0.2867
387.1744	0.2959
387.3813	0.292
387.5881	0.2722
387.7948	0.2881
388.0016	0.2971
388.2084	0.2955
388.4151	0.2915
388.6219	0.2906
388.8286	0.2796
389.0353	0.2887
389.242	0.2888
389.4487	0.2817
389.6553	0.2741
389.862	0.2774
390.0686	0.2825
390.2753	0.281
390.4819	0.2713
390.6885	0.2731
390.8951	0.2848
391.1016	0.2729
391.3082	0.2769
391.5147	0.2747
391.7213	0.2799
391.9278	0.267
392.1343	0.2773
392.3408	0.2734
392.5473	0.2681
392.7537	0.2686
392.9602	0.2678
393.1666	0.2701
393.373	0.261
393.5794	0.2631
393.7858	0.2665
393.9922	0.2629
394.1986	0.2596
394.4049	0.2627
394.6113	0.2573
394.8176	0.2638
395.0239	0.2586
395.2302	0.2569
395.4365	0.2625
395.6428	0.2546
395.8491	0.257
396.0553	0.2461
396.2615	0.2547
396.4678	0.2551
396.674	0.2415
396.8802	0.2499
397.0863	0.2556
397.2925	0.2486
397.4987	0.2406
397.7048	0.2485
397.9109	0.246
398.117	0.245
398.3231	0.2389
398.5292	0.2288
398.7353	0.2397
398.9413	0.2435
399.1474	0.2445
399.3534	0.2557
399.5594	0.25
399.7654	0.235
399.9714	0.25
400.1774	0.2412
400.3833	0.2395
400.5893	0.2407
400.7952	0.2423
401.0011	0.2388
401.207	0.2472
401.4129	0.2401
401.6188	0.2421
401.8247	0.2534
402.0305	0.2366
402.2364	0.2503
402.4422	0.2395
402.648	0.2389
402.8538	0.2436
403.0596	0.2354
403.2654	0.2466
403.4711	0.2323
403.6768	0.2436
403.8826	0.2465
404.0883	0.2423
404.294	0.2498
404.4997	0.24
404.7054	0.2463
404.911	0.2336
405.1167	0.2482
405.3223	0.2361
405.5279	0.2461
405.7335	0.2452
405.9391	0.233
406.1447	0.2516
406.3502	0.24
406.5558	0.2429
406.7613	0.2435
406.9668	0.2328
407.1724	0.2456
407.3778	0.2413
407.5833	0.2347
407.7888	0.2401
407.9942	0.2392
408.1997	0.2395
408.4051	0.2486
408.6105	0.2477
408.8159	0.2353
409.0213	0.2394
409.2267	0.2408
409.432	0.2435
409.6374	0.2492
409.8427	0.2441
410.048	0.2419
410.2533	0.2367
410.4586	0.2286
410.6639	0.2446
410.8691	0.2367
411.0744	0.2465
411.2796	0.2404
411.4848	0.2368
411.69	0.236
411.8952	0.2388
412.1004	0.2362
412.3056	0.2319
412.5107	0.2426
412.7158	0.2417
412.921	0.2388
413.1261	0.2335
413.3312	0.2322
413.5362	0.2324
413.7413	0.2421
413.9464	0.2341
414.1514	0.2317
414.3564	0.2286
414.5614	0.2314
414.7664	0.235
414.9714	0.2336
415.1764	0.2407
415.3813	0.2366
415.5863	0.2506
415.7912	0.2315
415.9961	0.2306
416.201	0.2404
416.4059	0.2416
416.6108	0.2306
416.8156	0.2351
417.0205	0.2337
417.2253	0.225
417.4301	0.2502
417.6349	0.2443
417.8397	0.2387
418.0445	0.2255
418.2492	0.2297
418.454	0.2237
418.6587	0.2284
418.8634	0.2341
419.0681	0.2353
419.2728	0.2253
419.4775	0.2378
419.6822	0.2192
419.8868	0.2249
420.0915	0.2271
420.2961	0.2152
420.5007	0.2246
420.7053	0.2193
420.9099	0.2229
421.1144	0.2197
421.319	0.2116
421.5235	0.2171
421.728	0.2305
421.9325	0.2178
422.137	0.2166
422.3415	0.2214
422.546	0.2098
422.7504	0.2168
422.9549	0.2183
423.1593	0.2085
423.3637	0.2135
423.5681	0.2144
423.7725	0.2101
423.9769	0.2157
424.1812	0.2014
424.3856	0.2037
424.5899	0.2159
424.7942	0.207
424.9985	0.2128
425.2028	0.2142
425.4071	0.2101
425.6113	0.2018
425.8156	0.211
426.0198	0.2033
426.224	0.2069
426.4282	0.2
426.6324	0.2002
426.8366	0.1862
427.0407	0.1992
427.2449	0.1931
427.449	0.1975
427.6531	0.2023
427.8572	0.2023
428.0613	0.1958
428.2654	0.1914
428.4694	0.1825
428.6735	0.1853
428.8775	0.1911
429.0815	0.1954
429.2855	0.1849
429.4895	0.1967
429.6935	0.181
429.8975	0.1748
430.1014	0.182
430.3053	0.1877
430.5093	0.1818
430.7132	0.173
430.9171	0.1714
431.1209	0.1784
431.3248	0.1686
431.5286	0.1667
431.7325	0.1777
431.9363	0.1695
432.1401	0.1678
432.3439	0.1713
432.5477	0.161
432.7514	0.1628
432.9552	0.1569
433.1589	0.1562
433.3627	0.1555
433.5664	0.1474
433.7701	0.1552
433.9737	0.1576
434.1774	0.1535
434.3811	0.1536
434.5847	0.156
434.7883	0.1441
434.9919	0.1392
435.1955	0.155
435.3991	0.1459
435.6027	0.1325
435.8062	0.1505
436.0098	0.1362
436.2133	0.1285
436.4168	0.1323
436.6203	0.1294
436.8238	0.1328
437.0272	0.1291
437.2307	0.1185
437.4341	0.1289
437.6375	0.1349
437.841	0.1174
438.0443	0.1274
438.2477	0.1199
438.4511	0.113
438.6545	0.1202
438.8578	0.1141
439.0611	0.1186
439.2644	0.1179
439.4677	0.1106
439.671	0.1133
439.8743	0.1142
440.0775	0.1096
440.2808	0.1067
440.484	0.1075
440.6872	0.1045
440.8904	0.1
441.0936	0.1062
441.2967	0.0914
441.4999	0.0966
441.703	0.0951
441.9062	0.1013
442.1093	0.1065
442.3124	0.0883
442.5155	0.0959
442.7185	0.0914
442.9216	0.0843
443.1246	0.0848
443.3276	0.087
443.5307	0.086
443.7337	0.0896
443.9366	0.0797
444.1396	0.0736
444.3426	0.0731
444.5455	0.0736
444.7484	0.0808
444.9513	0.072
445.1542	0.0757
445.3571	0.0789
445.56	0.0681
445.7628	0.0663
445.9657	0.0631
446.1685	0.0609
446.3713	0.0731
446.5741	0.0654
446.7769	0.0717
446.9797	0.0626
447.1824	0.0577
447.3852	0.0508
447.5879	0.0646
447.7906	0.0552
447.9933	0.0596
448.196	0.0521
448.3986	0.0607
448.6013	0.0461
448.8039	0.0649
449.0066	0.0639
449.2092	0.0477
449.4118	0.0522
449.6143	0.0542
449.8169	0.0606
450.0195	0.0566
450.222	0.0519
450.4245	0.0543
450.627	0.0455
450.8295	0.0465
451.032	0.0452
451.2345	0.0469
451.4369	0.0406
451.6394	0.0373
451.8418	0.0413
452.0442	0.0479
452.2466	0.0393
452.449	0.0349
452.6513	0.035
452.8537	0.0364
453.056	0.0311
453.2583	0.0332
453.4607	0.0302
453.663	0.0385
453.8652	0.0294
454.0675	0.0396
454.2697	0.0329
454.472	0.0302
454.6742	0.0378
454.8764	0.0358
455.0786	0.0371
455.2808	0.0222
455.4829	0.036
455.6851	0.0354
455.8872	0.0223
456.0893	0.0289
456.2915	0.0281
456.4935	0.0295
456.6956	0.019
456.8977	0.0205
457.0997	0.0309
457.3018	0.0281
457.5038	0.0291
457.7058	0.0256
457.9078	0.0253
458.1098	0.0269
458.3117	0.0339
458.5137	0.0143
458.7156	0.0231
458.9175	0.0299
459.1194	0.022
459.3213	0.025
459.5232	0.0234
459.725	0.0237
459.9269	0.0272
460.1287	0.0132
460.3305	0.0156
460.5323	0.0221
460.7341	0.0187
460.9359	0.008
461.1376	0.022
461.3394	0.0195
461.5411	0.0237
461.7428	0.0203
461.9445	0.0184
462.1462	0.0172
462.3479	0.0145
462.5495	0.0183
462.7512	0.0252
462.9528	0.0204
463.1544	0.0132
463.356	0.0034
463.5576	0.025
463.7592	0.0178
463.9607	0.0148
464.1623	0.0212
464.3638	0.0128
464.5653	0.0175
464.7668	0.0232
464.9683	0.024
465.1697	0.014
465.3712	0.01
465.5726	0.018
465.7741	0.0229
465.9755	0.014
466.1769	0.0163
466.3782	0.0139
466.5796	0.0187
466.7809	0.0188
466.9823	0.0089
467.1836	0.0077
467.3849	0.0112
467.5862	0.0063
467.7875	0.0058
467.9887	0.0117
468.19	0.0172
468.3912	0.018
468.5924	0.0085
468.7936	0.01
468.9948	0.0023
469.196	0.0155
469.3972	0.0075
469.5983	0.0133
469.7994	0.015
470.0006	0.0106
470.2017	0.0091
470.4027	0.0219
470.6038	0.0139
470.8049	0.0044
471.0059	0.0188
471.2069	0.016
471.408	0.0165
471.6089	0.0184
471.8099	0.0155
472.0109	0.0069
472.2119	0.0239
472.4128	0.0132
472.6137	0.01
472.8146	0.0087
473.0155	0.0156
473.2164	0.0163
473.4173	-0.0011
473.6181	-0.0025
473.819	0.0131
474.0198	0.0103
474.2206	0.0017
474.4214	0.0076
474.6222	-0.0079
474.8229	0.0074
475.0237	0.0095
475.2244	0.0077
475.4251	0.0067
475.6258	0.0011
475.8265	0.0147
476.0272	-0.002
476.2278	0.0071
476.4285	0.0051
476.6291	0.0086
476.8297	0.0038
477.0303	0.0011
477.2309	0.0106
477.4315	0.0039
477.632	-0.0046
477.8326	0.0141
478.0331	0.0209
478.2336	0.002
478.4341	0.0092
478.6346	0.0058
478.8351	-0.0051
479.0355	0.0178
479.236	0.0054
479.4364	0.0036
479.6368	0.0081
479.8372	0.0056
480.0376	0.0033
480.2379	0.0044
480.4383	0.0127
480.6386	0.0002
480.8389	0.0055
481.0392	0.0029
481.2395	0.0113
481.4398	0.0062
481.6401	0.0028
481.8403	0.0026
482.0405	0.0052
482.2408	0.0076
482.441	0.0096
482.6411	0.0013
482.8413	0.0021
483.0415	0.0082
483.2416	0.0007
483.4417	0.0024
483.6419	-0.0035
483.8419	0.0037
484.042	0.0065
484.2421	-0.0042
484.4422	0.003
484.6422	0.0007
484.8422	0.0059
485.0422	0.0059
485.2422	0.0039
485.4422	0.004
485.6422	0.0023
485.8421	0.0079
486.042	0.0133
486.242	0.0053
486.4419	0.0062
486.6417	0.0033
486.8416	0.0122
487.0415	0.0008
487.2413	-0.0055
487.4411	0.002
487.641	0.0057
487.8408	0.0083
488.0405	0.0107
488.2403	0.0048
488.4401	0.0042
488.6398	0.0102
488.8395	-0.0027
489.0392	0.003
489.2389	0.0096
489.4386	-0.0094
489.6383	0.0037
489.8379	0.0005
490.0376	0.0027
490.2372	-0.003
490.4368	-0.0008
490.6364	-0.0054
490.836	0.0021
491.0355	-0.0099
491.2351	-0.0028
491.4346	0.0093
491.6341	0.0007
491.8336	0.0009
492.0331	0.0008
492.2326	0.0005
492.432	0.0024
492.6315	0.0098
492.8309	0.002
493.0303	0.0054
493.2297	0.0072
493.4291	0.0004
493.6284	0.0059
493.8278	0.0021
494.0271	-0.0046
494.2264	-0.0021
494.4257	0.0079
494.625	0.0016
494.8243	-0.0055
495.0236	-0.0025
495.2228	0.0032
495.422	0.0042
495.6213	0.0056
495.8205	0.0091
496.0196	-0.0033
496.2188	0.0022
496.418	0.0097
496.6171	-0.0007
496.8162	0.0066
497.0153	0.0047
497.2144	-0.0008
497.4135	0.0007
497.6126	0.0062
497.8116	-0.0033
498.0107	0.0028
498.2097	0.003
498.4087	-0.0062
498.6077	-0.0084
498.8067	-0.0017
499.0056	-0.0014
499.2046	0.0088
499.4035	0.0023
499.6024	-0.0108
499.8013	0.0091
500.0002	0.0079
500.199	0.0153
500.3979	-0.0051
500.5967	0.0004
500.7956	0.0011
500.9944	0.0025
501.1932	0.0069
501.3919	0.0055
501.5907	0.0081
501.7895	0.0017
501.9882	0.0079
502.1869	0.0043
502.3856	-0.0037
502.5843	0.0012
502.783	-0.002
502.9816	0.009
503.1803	0.0007
503.3789	0.0023
503.5775	-0.0023
503.7761	-0.0104
503.9747	0.0045
504.1732	-0.0125
504.3718	0.0161
504.5703	-0.0007
504.7689	-0.0065
504.9674	0.0019
505.1658	-0.0018
505.3643	0.0001
505.5628	0.0033
505.7612	0.013
505.9597	-0.0059
506.1581	-0.0032
506.3565	-0.0031
506.5549	-0.0031
506.7532	-0.0027
506.9516	-0.0007
507.1499	0.008
507.3482	-0.0009
507.5465	0.0045
507.7448	-0.0005
507.9431	-0.0005
508.1414	-0.0091
508.3396	0.0056
508.5379	-0.0051
508.7361	0.0084
508.9343	0.0091
509.1325	-0.001
509.3306	-0.0053
509.5288	-0.0021
509.7269	0.0088
509.9251	-0.0004
510.1232	0.005
510.3213	0.0001
510.5193	-0.0076
510.7174	-0.0025
510.9154	0.0089
511.1135	0.0004
511.3115	-0.0066
511.5095	0.0035
511.7075	-0.0023
511.9055	-0.0056
512.1034	0.0011
512.3014	-0.0035
512.4993	0.0002
512.6972	-0.0034
512.8951	0.0004
513.093	-0.0063
513.2908	0.0084
513.4887	0.0034
513.6865	-0.0072
513.8844	0.0007
514.0822	-0.0031
514.2799	-0.0085
514.4777	-0.0057
514.6755	0.0086
514.8732	-0.009
515.0709	0.0006
515.2687	-0.0125
515.4664	0.011
515.664	0.0001
515.8617	0.0037
516.0594	0.0003
516.257	0.0018
516.4546	0.0144
516.6522	-0.0055
516.8498	0.0018
517.0474	-0.0087
517.2449	-0.0051
517.4425	-0.0007
517.64	0.0012
517.8375	-0.0031
518.035	-0.0068
518.2325	-0.0104
518.43	-0.0034
518.6274	-0.0055
518.8249	-0.0074
519.0223	0.0019
519.2197	-0.0072
519.4171	-0.0141
519.6145	-0.0008
519.8118	-0.0083
520.0092	-0.0129
520.2065	0.0073
520.4038	-0.0028
520.6011	0.0004
520.7984	0.0068
520.9956	0.0086
521.1929	0.0077
521.3901	0.0023
521.5874	0.0018
521.7846	-0.0196
521.9818	-0.0072
522.1789	-0.0072
522.3761	0.0122
522.5732	-0.0106
522.7704	-0.0146
522.9675	-0.0094
523.1646	-0.001
523.3617	0.0004
523.5587	0.0017
523.7558	0.0096
523.9528	0.0024
524.1498	-0.0085
524.3468	0.0041
524.5438	-0.0027
524.7408	-0.0139
524.9378	0.0061
525.1347	-0.0022
525.3316	0.0012
525.5285	0.0032
525.7254	-0.0012
525.9223	0.0038
526.1192	0.0013
526.316	0.0053
526.5129	0.0013
526.7097	-0.0019
526.9065	-0.0003
527.1033	0.0056
527.3	-0.0015
527.4968	0.0074
527.6935	-0.0139
527.8903	-0.005
528.087	-0.0063
528.2837	0.0085
528.4804	-0.007
528.677	0.0002
528.8737	-0.0037
529.0703	-0.0065
529.2669	0.0035
529.4635	-0.0061
529.6601	0.0039
529.8567	-0.0056
530.0532	0.0002
530.2498	-0.0047
530.4463	-0.0066
530.6428	0.0036
530.8393	0.0088
531.0358	-0.0023
531.2322	-0.007
531.4287	-0.005
531.6251	-0.0066
531.8215	-0.0116
532.0179	-0.0063
532.2143	-0.0016
532.4107	-0.0041
532.607	0.002
532.8034	-0.0155
532.9997	-0.0087
533.196	-0.0122
533.3923	0.0036
533.5886	0.0022
533.7848	-0.0077
533.9811	-0.0024
534.1773	0.007
534.3735	0.0068
534.5697	-0.0064
534.7659	0.0038
534.9621	0.0041
535.1582	-0.0011
535.3544	0.0001
535.5505	-0.0002
535.7466	-0.0047
535.9427	-0.0019
536.1387	-0.0141
536.3348	0.0039
536.5308	-0.0061
536.7269	-0.0104
536.9229	-0.0099
537.1189	0.0133
537.3148	-0.0083
537.5108	0.0005
537.7068	0.0106
537.9027	-0.0171
538.0986	0.0008
538.2945	-0.0064
538.4904	-0.0178
538.6863	-0.0013
538.8821	0.0021
539.078	-0.0035
539.2738	-0.0063
539.4696	-0.0064
539.6654	0.0024
539.8611	0.0041
540.0569	-0.0056
540.2526	0.0094
540.4484	-0.0068
540.6441	-0.0012
540.8398	0.004
541.0355	-0.0103
541.2311	-0.0027
541.4268	0.008
541.6224	0.0035
541.818	0.0082
542.0136	0.0043
542.2092	0.0117
542.4048	0.0016
542.6003	-0.0014
542.7959	0.0084
542.9914	-0.0026
543.1869	0.0036
543.3824	0.0049
543.5779	0.0108
543.7734	0.0154
543.9688	0.0057
544.1642	0.0026
544.3596	0.0054
544.555	-0.003
544.7504	0.0081
544.9458	0.0136
545.1411	-0.0027
545.3365	0.0051
545.5318	-0.0028
545.7271	0.0037
545.9224	-0.0069
546.1177	0.0095
546.3129	0.0022
546.5081	0.0057
546.7034	-0.0046
546.8986	0.0016
547.0938	0.0069
547.289	0.0064
547.4841	0.0055
547.6793	0.0103
547.8744	0.0109
548.0695	0.0004
548.2646	0.012
548.4597	0
548.6548	0.0074
548.8498	0.0025
549.0448	0.0071
549.2399	0.0075
549.4349	-0.0015
549.6298	0.0002
549.8248	-0.0011
550.0198	0.0092
550.2147	0.0069
550.4096	-0.0128
550.6045	-0.0002
550.7994	-0.0011
550.9943	0.0032
551.1892	-0.0099
551.384	0.009
551.5788	0.0074
551.7737	0.0017
551.9685	0.0007
552.1632	-0.003
552.358	-0.0043
552.5528	-0.0008
552.7475	0.0036
552.9422	0.0149
553.1369	0.0145
553.3316	0.0038
553.5263	0.011
553.7209	0.0035
553.9156	0.0098
554.1102	0.0031
554.3048	-0.0045
554.4994	-0.0033
554.694	0.0048
554.8885	-0.001
555.0831	0.0078
555.2776	0.0069
555.4721	0.0017
555.6666	0.0004
555.8611	-0.0025
556.0555	0.0021
556.25	0.0053
556.4444	-0.0081
556.6388	-0.0045
556.8332	-0.0054
557.0276	0.0053
557.222	-0.0039
557.4163	0.0102
557.6107	-0.0039
557.805	-0.0056
557.9993	0.0011
558.1936	-0.0092
558.3879	0.006
558.5821	-0.0041
558.7764	0.0028
558.9706	0.0018
559.1648	0.0101
559.359	0.0019
559.5532	0.0029
559.7473	0.0021
559.9415	0.0074
560.1356	0.0087
560.3297	-0.0047
560.5238	0.0085
560.7179	0.0089
560.9119	0.0119
561.106	-0.0013
561.3	0.004
561.494	-0.0037
561.688	-0.0054
561.882	0.0006
562.076	0.0001
562.2699	0.0072
562.4639	0.0181
562.6578	0.0175
562.8517	0.0038
563.0456	0.0125
563.2395	0.0018
563.4333	-0.0032
563.6272	0.0041
563.821	-0.0024
564.0148	-0.0022
564.2086	0.0003
564.4024	0.0113
564.5961	0.0073
564.7899	0.0126
564.9836	0.0065
565.1773	0.0008
565.371	0.0039
565.5647	0.0053
565.7584	0.0044
565.952	0.0061
566.1456	0.0022
566.3393	0.0037
566.5329	-0.0056
566.7264	0.0074
566.92	0.0029
567.1136	0.0065
567.3071	-0.0075
567.5006	0.0154
567.6941	0.0027
567.8876	0.0062
568.0811	0.017
568.2745	0.0019
568.468	0.0021
568.6614	0.0133
568.8548	0.0058
569.0482	0.0081
569.2416	0.0107
569.4349	0.0086
569.6283	0.0034
569.8216	0.0111
570.0149	-0.0018
570.2082	0.013
570.4015	0.0074
570.5947	0.012
570.788	0.0098
570.9812	0.0053
571.1744	0.0054
571.3676	0.0087
571.5608	0.0047
571.754	0.015
571.9471	0.0106
572.1402	0.0088
572.3333	0.0099
572.5264	0.0092
572.7195	0.0041
572.9126	0.0057
573.1057	0.0082
573.2987	0.0059
573.4917	0.0079
573.6847	0.0073
573.8777	0.013
574.0707	0.0083
574.2636	0.0085
574.4566	0.0065
574.6495	0.0045
574.8424	0.0131
575.0353	0.0102
575.2281	0.0147
575.421	0.0071
575.6138	0.0027
575.8067	0.0101
575.9995	0.0064
576.1923	0.0104
576.385	0.0094
576.5778	0.0107
576.7706	0.0089
576.9633	0.007
577.156	-0.0006
577.3487	0.0065
577.5414	0.0039
577.734	0.0042
577.9267	0.0098
578.1193	0.0068
578.3119	0.0055
578.5045	0.009
578.6971	0.0071
578.8897	0.004
579.0822	0.0047
579.2747	0.0064
579.4673	0.0092
579.6598	0.0074
579.8522	0.0072
580.0447	0.0135
580.2372	0.0141
580.4296	0.0151
580.622	0.008
580.8144	0.0079
581.0068	0.0099
581.1992	0.007
581.3915	0.001
581.5839	0.0072
581.7762	0.006
581.9685	0.0053
582.1608	0.0051
582.353	0.0092
582.5453	0.0079
582.7375	0.0107
582.9298	0.0036
583.122	0.0043
583.3142	0.0124
583.5063	0.0105
583.6985	0.0021
583.8906	0.0033
584.0827	0.0101
584.2749	0.0054
584.4669	0.004
584.659	0.0136
584.8511	0.0066
585.0431	0.01
585.2352	0.0075
585.4272	0.0087
585.6192	0.007
585.8111	0.0042
586.0031	0.0076
586.195	0.0086
586.387	0.0073
586.5789	0.0066
586.7708	0.01
586.9627	0.0094
587.1545	0.0095
587.3464	0.0067
587.5382	0.0103
587.73	0.0103
587.9218	0.0037
588.1136	0.005
588.3053	0.0101
588.4971	0.0064
588.6888	0.0051
588.8805	0.0025
589.0722	0.0128
589.2639	0.0007
589.4556	0.0106
589.6472	0.0126
589.8389	0.0091
590.0305	0.0063
590.2221	0.0116
590.4137	0.0012
590.6052	0.0057
590.7968	0.0057
590.9883	0.001
591.1798	0.007
591.3713	0.0074
591.5628	0.0085
591.7543	0.0081
591.9458	0.0021
592.1372	0.0055
592.3286	0.007
592.52	0.0081
592.7114	0.0075
592.9028	0.0119
593.0941	0.0037
593.2855	0.0103
593.4768	0.0126
593.6681	0.0114
593.8594	0.0074
594.0506	0.0108
594.2419	0.0046
594.4331	0.0093
594.6244	0.0006
594.8156	0.0039
595.0067	0.0046
595.1979	0.0051
595.3891	0.0073
595.5802	0.0031
595.7713	0.0108
595.9624	0.0104
596.1535	0.0083
596.3446	0.0061
596.5357	0.0098
596.7267	0.0013
596.9177	0.0024
597.1087	0.0053
597.2997	0.0086
597.4907	0.0079
597.6817	0.0118
597.8726	0.0133
598.0635	0.0085
598.2544	0.0127
598.4453	0.0081
598.6362	0.0074
598.827	0.0084
599.0179	0.0106
599.2087	0.0119
599.3995	0.0123
599.5903	0.0095
599.7811	0.0148
599.9718	0.0016
600.1626	0.0021
600.3533	0.0038
600.544	0.0117
600.7347	0.0075
600.9254	0.0112
601.116	0.0092
601.3067	0.0064
601.4973	0.0122
601.6879	0.0125
601.8785	0.0126
602.0691	0.0067
602.2596	0.0059
602.4502	0.0084
602.6407	0.0049
602.8312	0.0041
603.0217	0.0089
603.2122	0.0065
603.4027	0.0076
603.5931	0.0087
603.7835	0.007
603.9739	-0.0032
604.1643	0.0142
604.3547	0.0123
604.5451	0.0085
604.7354	0.0059
604.9257	0.0079
605.116	-0.0009
605.3063	0.0072
605.4966	0.0081
605.6869	0.0122
605.8771	0.0089
606.0673	0.0094
606.2575	0.0098
606.4477	0.0202
606.6379	0.0055
606.8281	0.0074
607.0182	0.0086
607.2083	0.0062
607.3985	0.01
607.5885	0.0105
607.7786	0.0052
607.9687	0.0127
608.1587	0.0088
608.3488	0.0131
608.5388	0.001
608.7288	0.0002
608.9187	0.0084
609.1087	0.0093
609.2986	0.0138
609.4886	0.0053
609.6785	0.0053
609.8684	-0.0004
610.0582	0.0009
610.2481	0.0045
610.4379	0.0147
610.6278	0.0025
610.8176	0.0143
611.0074	0.0086
611.1971	0.0133
611.3869	0.0109
611.5766	-0.0012
611.7664	0.0149
611.9561	0.0083
612.1458	0.0123
612.3354	0.0105
612.5251	0.0038
612.7147	0.013
612.9044	0.0032
613.094	0.0021
613.2836	0.005
613.4731	0.0123
613.6627	0.0114
613.8522	0.0126
614.0417	0.0112
614.2313	0.0112
614.4207	0.0053
614.6102	0.0077
614.7997	0.0153
614.9891	0.0064
615.1785	0.0052
615.3679	0.0079
615.5573	0.0081
615.7467	0.0052
615.9361	0.0137
616.1254	0.0144
616.3147	-0.003
616.504	0.0057
616.6933	0.0042
616.8826	-0.0052
617.0718	0.0082
617.2611	0.0014
617.4503	0.0089
617.6395	0.0064
617.8287	0.0165
618.0179	0.0076
618.207	0.0178
618.3961	0.0029
618.5853	0.0029
618.7744	0.009
618.9634	0.0165
619.1525	0.0071
619.3416	0.0165
619.5306	0.0095
619.7196	0.0078
619.9086	0.0044
620.0976	0.0036
620.2866	0.015
620.4755	-0.0008
620.6645	0.0161
620.8534	0.0149
621.0423	0.005
621.2312	0.0007
621.42	0.0096
621.6089	0.012
621.7977	0.0073
621.9865	0.0101
622.1753	-0.0056
622.3641	0.004
622.5529	0.0029
622.7416	0.0059
622.9303	0.0027
623.1191	0.0154
623.3078	0.0052
623.4964	0.0056
623.6851	0.0111
623.8737	0.0015
624.0624	-0.0048
624.251	0.0023
624.4396	0.0049
624.6282	0.0141
624.8167	0.0056
625.0053	0.0194
625.1938	0.0033
625.3823	0.0131
625.5708	0
625.7593	0.0016
625.9477	0.013
626.1362	0.0056
626.3246	0.0081
626.513	0.0145
626.7014	0.0169
626.8898	0.025
627.0781	-0.0047
627.2665	0.0124
627.4548	0.0021
627.6431	0.007
627.8314	0.0082
628.0197	0.0152
628.2079	0.0098
628.3962	0.0097
628.5844	0.0058
628.7726	0.0077
628.9608	0.0026
629.1489	0.0135
629.3371	-0.0049
629.5252	0.01
629.7134	-0.0054
629.9015	0.0146
630.0895	0.0042
630.2776	0.0198
630.4657	0.0089
630.6537	0.0044
630.8417	0.0006
631.0297	0.0125
631.2177	0.0036
631.4057	0.0086
631.5936	0.0036
631.7815	0.0017
631.9695	0.01
632.1574	0.0124
632.3452	0.0073
632.5331	-0.0001
632.7209	0.0202
632.9088	0.0059
633.0966	0.0201
633.2844	0.0194
633.4722	0.0074
633.6599	0.0254
633.8477	0.0153
634.0354	0.0113
634.2231	-0.0118
634.4108	0.0113
634.5985	0.0166
634.7861	-0.0026
634.9738	0.0027
635.1614	0.0128
635.349	-0.0055
635.5366	0.0127
635.7242	0.0037
635.9117	0.0091
636.0993	-0.0021
636.2868	0.0053
636.4743	0.0019
636.6618	-0.0066
636.8492	0.0084
637.0367	0.0188
637.2241	0.0013
637.4115	0.0304
637.5989	0.0103
637.7863	0.0262
637.9737	0.0113
638.161	0.0046
638.3484	-0.0055
638.5357	0.0078
638.723	0.016
638.9103	-0.0142
639.0975	-0.013
639.2848	0.0168
639.472	0.0172
639.6592	-0.0272
639.8464	0.0125
640.0336	0.0021
640.2208	0.0047
640.4079	-0.0068
640.595	-0.0036
640.7821	0.0137
640.9692	0.0071
641.1563	0.0213
641.3434	0.0114
641.5304	0.0342
641.7174	0.0174
641.9044	0.0013
642.0914	0.0196
642.2784	0.0145
642.4653	-0.0022
642.6523	0.0005
642.8392	0.0011
643.0261	0.0211
643.213	0.0212
643.3999	0.0029
643.5867	0.0261
643.7735	0.0047
643.9604	0.0125
644.1472	0.0158
644.3339	-0.002
644.5207	-0.0035
644.7075	0.0039
644.8942	-0.0037
645.0809	-0.0046
645.2676	-0.0091
645.4543	-0.0135
645.6409	0.019
645.8276	0.0191
646.0142	-0.0058
646.2008	0.0136
646.3874	0.0084
646.574	0.0119
646.7605	0.0043
646.9471	0.0051
647.1336	-0.031
647.3201	-0.0108
647.5066	0.0101
647.6931	0.007
647.8795	-0.0003
648.0659	0.0051
648.2524	0.0091
648.4388	0.0113
648.6252	0.0023
648.8115	0.0169
648.9979	0.0106
649.1842	0.0155
649.3705	0.0182
649.5568	-0.0143
649.7431	0.0079
649.9294	0.001
650.1156	0.0005
650.3018	0.0091
650.488	0.001
650.6742	0.0216
650.8604	0.0159
651.0466	-0.007
651.2327	-0.0011
651.4188	0.0021
651.6049	0.0205
651.791	-0.0028
651.9771	0.0071
652.1632	0.0032
652.3492	0.0065
652.5352	0.0219
652.7212	0.0042
652.9072	-0.004
653.0932	0.0087
653.2791	0.0159
653.465	0.0125
653.651	0.0002
653.8369	0.0146
654.0227	-0.0088
654.2086	-0.0018
654.3944	0.0118
654.5803	-0.0015
654.7661	0.0051
654.9519	-0.0014
655.1377	0.0001
655.3234	0.0001
655.5092	0.0001
655.6949	0.0001
655.8806	0.0001
656.0663	0.0001
656.2519	0.0001
656.4376	0.0001
656.6232	0.0001
656.8088	0.0001
656.9945	0.0001
657.18	0.0001
657.3656	0.0001
657.5511	0.0001
657.7367	0.0001
657.9222	0.0001
658.1077	0.0001
658.2932	0.0001
658.4786	0.0001
658.6641	0.0001
658.8495	0.0001
659.0349	0.0001
659.2203	0.0001
659.4057	0.0261
659.591	0.2808
659.7764	0.0365
659.9617	0.0025
660.147	0.0033
660.3323	0.0071
660.5176	0.014
660.7028	-0.0013
660.888	0
661.0733	0.0095
661.2585	0.0133
661.4436	0.0184
661.6288	0.0244
661.8139	-0.0143
661.9991	-0.0158
662.1842	0.0003
662.3693	0.0149
662.5544	0.0149
662.7394	0.0104
662.9245	0.0131
663.1095	-0.0256
663.2945	-0.0047
663.4795	-0.0021
663.6644	0.0273
663.8494	0.0252
664.0343	0.0151
664.2193	0.0123
664.4042	0.0293
664.589	0.0122
664.7739	0.0122
664.9587	-0.0195
665.1436	-0.0089
665.3284	0.001
665.5132	-0.0125
665.698	0.042
665.8827	0.0184
666.0675	-0.0173
666.2522	0.0239
666.4369	-0.0061
666.6216	-0.0006
666.8063	-0.003
666.9909	0.0041
667.1756	-0.0071
667.3602	-0.0035
667.5448	0.018
667.7294	0.0437
667.9139	0.0014
668.0985	0.0065
668.283	0.0004
668.4675	0.0241
668.652	0.0198
668.8365	-0.0032
669.0209	0.0098
669.2054	0.0061
669.3898	0.0064
669.5742	0.0342
669.7586	0.0289
669.943	0.0028
670.1273	-0.0345
670.3117	0.032
670.496	0.0211
670.6803	-0.009
670.8646	-0.0073
671.0488	0.0218
671.2331	-0.0036
671.4173	-0.0009
671.6015	0.0202
671.7857	0.0195
671.9699	0.0255
672.1541	0.0048
672.3382	0.012
672.5223	0.0046
672.7064	-0.0004
672.8905	0.0071
673.0746	0.0067
673.2587	0.0227
673.4427	0.0134
673.6267	0.0313
673.8107	0.0121
673.9947	0.007
674.1787	0.0074
674.3626	-0.0021
674.5465	0.0001
674.7304	-0.0012
674.9143	-0.0009
675.0982	-0.0052
675.2821	0.0162
675.4659	-0.0052
675.6497	-0.0063
675.8335	-0.0008
676.0173	-0.0109
676.2011	0.0202
676.3849	0.009
676.5686	0.0348
676.7523	-0.0009
676.936	0.0342
677.1197	0.0098
677.3034	0.0262
677.487	0.0138
677.6706	0.0156
677.8542	0.0059
678.0378	0.0208
678.2214	-0.0048
678.405	0.0245
678.5885	0.0129
678.772	0.0165
678.9555	-0.0039
679.139	0.0206
679.3225	0.005
679.5059	-0.0024
679.6894	0.0004
679.8728	0.0039
680.0562	0.0161
680.2395	0.0186
680.4229	0.0081
680.6062	0.0249
680.7896	0.0089
680.9729	0.0185
681.1562	-0.0062
681.3394	0.0094
681.5227	-0.0088
681.7059	0.0088
681.8891	0.0125
682.0723	0.0015
682.2555	0.0175
682.4387	0.0118
682.6218	0.0058
682.805	0.0038
682.9881	0.024
683.1712	0.0114
683.3542	0.0164
683.5373	-0.0057
683.7203	0.0065
683.9034	0.0126
684.0864	0.008
684.2694	0.0012
684.4523	0.0012
684.6353	0.0062
684.8182	-0.012
685.0011	0.0275
685.184	0.0057
685.3669	0.0304
685.5498	-0.0041
685.7326	-0.0054
685.9154	0.0008
686.0982	0.0175
686.281	0.0046
686.4638	-0.0043
686.6465	-0.0028
686.8293	0.0066
687.012	-0.0004
687.1947	0.0075
687.3774	0.0162
687.56	0.0052
687.7427	-0.0005
687.9253	-0.0312
688.1079	0.0187
688.2905	-0.0269
688.4731	0.0336
688.6556	0.0267
688.8382	-0.0225
689.0207	0.0159
689.2032	0.0306
689.3857	0.0046
689.5681	-0.0046
689.7506	0.039
689.933	0.0193
690.1154	0.0233
690.2978	0.002
690.4802	0.0053
690.6626	0.0053
690.8449	0.0083
691.0272	0.011
691.2095	-0.0112
691.3918	0.0133
691.5741	0.0045
691.7563	0.014
691.9386	0.0213
692.1208	0
692.303	0.0188
692.4852	0.0022
692.6673	0.0267
692.8495	-0.0091
693.0316	0
693.2137	0.0203
693.3958	0.0172
693.5778	0.0036
693.7599	0.0104
693.9419	-0.0092
694.1239	-0.0074
694.3059	0.0251
694.4879	0.0127
694.6699	0.0162
694.8518	0.0189
695.0337	0.0169
695.2157	0.0355
695.3975	0.0143
695.5794	-0.0263
695.7613	0.0191
695.9431	-0.0158
696.1249	0.0189
696.3067	0.0069
696.4885	0.0036
696.6703	0.0004
696.852	-0.0045
697.0337	0.0097
697.2154	0.0178
697.3971	0.0127
697.5788	0.0333
697.7605	-0.0111
697.9421	0.0189
698.1237	0.0159
698.3053	-0.0042
698.4869	0.013
698.6685	-0.0068
698.85	0.0227
699.0315	-0.0018
699.213	0.0441
699.3945	0.0138
699.576	0.0561
699.7575	0.0333
699.9389	0.0016
700.1203	0.0118
700.3017	0.0072
700.4831	0.0296
700.6645	0.0256
700.8458	-0.0074
701.0271	0.0464
701.2084	0.0225
701.3897	0.0087
701.571	0.0016
701.7523	0.0202
701.9335	0.0107
702.1147	0.0075
702.2959	-0.0084
702.4771	0.017
702.6583	-0.0065
702.8394	-0.0016
703.0205	0.0318
703.2016	0.0151
703.3827	0.0082
703.5638	0.0062
703.7449	0.0171
703.9259	0.0234
704.1069	0.0079
704.2879	-0.0058
704.4689	-0.0012
704.6499	0.0028
704.8308	0.0114
705.0117	0.0021
705.1927	0.0387
705.3735	0.0093
705.5544	0.0128
705.7353	-0.0204
705.9161	-0.0059
706.0969	0.0029
706.2777	0.0091
706.4585	0.0099
706.6393	0.0136
706.82	0.0102
707.0007	0.0031
707.1815	0.0033
707.3621	0.0332
707.5428	0.0152
707.7235	0.0065
707.9041	0.0008
708.0847	0.0079
708.2653	0.0082
708.4459	0.0094
708.6265	0.0014
708.807	-0.0034
708.9875	0.003
709.168	-0.0042
709.3485	0.0111
709.529	-0.0003
709.7095	-0.0227
709.8899	-0.0013
710.0703	0.0136
710.2507	0.0079
710.4311	-0.0097
710.6115	0.0361
710.7918	0.0467
710.9721	0.0099
711.1524	0.0155
711.3327	-0.0123
711.513	0.0069
711.6932	-0.005
711.8735	0.0184
712.0537	-0.0257
712.2339	-0.0154
712.4141	0.0299
712.5942	-0.0061
712.7744	0.0263
712.9545	0.0183
713.1346	0.0229
713.3147	0.0112
713.4947	0.0158
713.6748	0.0192
713.8548	0.0299
714.0348	0.0245
714.2148	0.0361
714.3948	0.022
714.5748	0.01
714.7547	0.019
714.9346	0.025
715.1145	0.0094
715.2944	-0.0375
715.4743	0.0531
715.6541	0.0018
715.834	0.0018
716.0138	0.0394
716.1936	0.0241
716.3733	0.0211
716.5531	0.0182
716.7328	0.009
716.9126	-0.0019
717.0923	-0.0454
717.2719	0.0106
717.4516	0.0333
717.6312	-0.0097
717.8109	0.0246
717.9905	0.0193
718.1701	0.0196
718.3496	-0.0035
718.5292	-0.0014
718.7087	0.0084
718.8882	0.0297
719.0677	-0.0189
719.2472	0.0015
719.4267	0.0038
719.6061	-0.0012
719.7856	0.0463
719.965	0.0155
720.1443	0.0068
720.3237	0.008
720.5031	0.0089
720.6824	0.0046
720.8617	0.0091
721.041	0.0318
721.2203	-0.0099
721.3995	0.0093
721.5788	0.0052
721.758	0.0072
721.9372	0.0074
722.1164	0.0158
722.2956	0.0058
722.4747	0.0535
722.6538	-0.0099
722.8329	0.041
723.012	0.0043
723.1911	0.0022
723.3702	0.0171
723.5492	0.0298
723.7282	0.035
723.9072	0.0161
724.0862	0.0132
724.2652	0.0349
724.4441	-0.0024
724.623	-0.0103
724.8019	-0.0038
724.9808	0.0073
725.1597	0.0174
725.3385	0.0226
725.5174	0.0093
725.6962	0.0135
725.875	0.0125
726.0538	0.012
726.2325	0.0349
726.4112	-0.0175
726.59	-0.0083
726.7687	-0.0053
726.9474	0.0479
727.126	0.0222
727.3047	-0.0015
727.4833	0.0077
727.6619	-0.007
727.8405	0.0154
728.0191	0.0224
728.1976	0.0018
728.3762	0.0344
728.5547	-0.0142
728.7332	0.0234
728.9116	0.0152
729.0901	0.0035
729.2686	0.0236
729.447	0.001
729.6254	0.0154
729.8038	0.021
729.9821	0.0064
730.1605	0.0213
730.3388	-0.0026
730.5171	0.0205
730.6954	-0.01
730.8737	0.008
731.0519	-0.0065
731.2302	0.01
731.4084	-0.0019
731.5866	0
731.7648	0.0231
731.9429	0.0148
732.1211	-0.0047
732.2992	-0.0025
732.4773	0.0204
732.6554	-0.0016
732.8335	0.0045
733.0115	0.0167
733.1896	0.0103
733.3676	0.0281
733.5456	0.0005
733.7235	0.0083
733.9015	0.0026
734.0794	-0.0022
734.2574	-0.0069
734.4353	0.0121
734.6131	0.0003
734.791	0.004
734.9689	-0.0139
735.1467	-0.0087
735.3245	0.0257
735.5023	0.0306
735.68	0.0028
735.8578	0.0126
736.0355	0.0244
736.2132	0.0165
736.3909	0.0171
736.5686	-0.0051
736.7463	0.0009
736.9239	0.0242
737.1015	0.0197
737.2791	0.0276
737.4567	0.0194
737.6343	0.0116
737.8118	0.0047
737.9894	-0.0024
738.1669	0.024
738.3444	0.0331
738.5218	-0.0063
738.6993	0.0082
738.8767	0.0161
739.0541	0.001
739.2315	0.0146
739.4089	0.0313
739.5863	0.0146
739.7636	0.0091
739.9409	0.0183
740.1182	0.0213
740.2955	0.0298
740.4728	-0.0081
740.65	-0.0222
740.8272	0.0055
741.0044	-0.0057
741.1816	0.028
741.3588	-0.0266
741.5359	-0.0059
741.7131	-0.0069
741.8902	0.0105
742.0673	0.0071
742.2444	0.0118
742.4214	0.0194
742.5985	0.0051
742.7755	0.0164
742.9525	-0.0042
743.1295	-0.0118
743.3064	0.023
743.4834	-0.0049
743.6603	0.0334
743.8372	-0.0192
744.0141	0.0577
744.191	0.011
744.3678	-0.011
744.5446	0.0194
744.7215	0.0063
744.8982	0.0271
745.075	0.0503
745.2518	0.0335
745.4285	0.0538
745.6052	-0.038
745.7819	0.0255
745.9586	0.0157
746.1353	0.0001
746.3119	-0.0064
746.4885	0.0343
746.6651	-0.0021
746.8417	0.0103
747.0183	0.0228
747.1948	-0.0034
747.3714	-0.011
747.5479	0.0425
747.7244	0.0227
747.9008	0.0074
748.0773	0.036
748.2537	0.0262
748.4301	0.0235
748.6065	0.0064
748.7829	-0.0012
748.9593	0.0035
749.1356	-0.0088
749.3119	0.0084
749.4882	0.012
749.6645	0.0271
749.8408	0.0288
750.017	0.0112
750.1933	-0.0113
750.3695	0.0177
750.5457	-0.0126
750.7218	-0.0078
750.898	-0.0138
751.0741	-0.0241
751.2502	0.0148
751.4263	0.0287
751.6024	0.0053
751.7784	0.015
751.9545	0.0135
752.1305	0.0054
752.3065	0.0269
752.4825	0.0239
752.6584	0.0217
752.8344	-0.009
753.0103	0.0106
753.1862	0.0268
753.3621	-0.0019
753.5379	0.0007
753.7138	0.0145
753.8896	-0.0031
754.0654	0.0172
754.2412	0.0202
754.417	0.0126
754.5927	-0.0027
754.7685	0.0188
754.9442	0.0292
755.1199	0.0085
755.2956	0.0291
755.4712	0.0003
755.6469	0.0088
755.8225	0.0059
755.9981	0.0008
756.1736	0.0095
756.3492	0.0086
756.5248	0.0249
756.7003	-0.0024
756.8758	0.0188
757.0513	0.0083
757.2267	0.0098
757.4022	-0.0012
757.5776	0.0116
757.753	0.0224
757.9284	0.0081
758.1038	0.0172
758.2791	0.0031
758.4545	0.012
758.6298	0.0225
758.8051	0.0197
758.9803	0.019
759.1556	0.0065
759.3308	0.0003
759.506	0.0027
759.6812	0.0033
759.8564	0.0126
760.0316	-0.0079
760.2067	0.0147
760.3819	-0.0062
760.557	0.0064
760.732	0.0046
760.9071	0.0239
761.0821	-0.0109
761.2572	0.0342
761.4322	0.0099
761.6072	0.0059
761.7821	-0.0286
761.9571	0.0139
762.132	-0.0075
762.3069	0.0268
762.4818	0.0066
762.6567	0.0475
762.8316	0.0228
763.0064	-0.0016
763.1812	-0.0052
763.356	-0.0188
763.5308	0.0104
763.7055	-0.0015
763.8803	-0.0022
764.055	-0.0225
764.2297	0.0017
764.4044	0.0121
764.579	0.0014
764.7537	0.0122
764.9283	0.0171
765.1029	0.0011
765.2775	0.0061
765.4521	0.0297
765.6266	0.0044
765.8011	0.0131
765.9756	-0.0042
766.1501	-0.0083
766.3246	0.0083
766.4991	-0.0094
766.6735	0.042
766.8479	0.0147
767.0223	0.0479
767.1967	0.0466
767.371	0.0063
767.5454	0.0367
767.7197	0.0409
767.894	0.0157
768.0683	0.0459
768.2425	0.0018
768.4168	0.0074
768.591	0.022
768.7652	-0.0007
768.9394	-0.006
769.1135	0.0093
769.2877	0.0077
769.4618	0.0222
769.6359	-0.0139
769.81	0.0147
769.984	0.0042
770.1581	0.0034
770.3321	0.0137
770.5061	-0.0123
770.6801	0.0054
770.8541	-0.0054
771.028	0.0312
771.202	0.0268
771.3759	0.013
771.5498	0.0176
771.7236	-0.0281
771.8975	0.0126
772.0713	0.0001
772.2451	0.0085
772.4189	0.0144
772.5927	-0.0141
772.7665	0.0041
772.9402	0.0134
773.1139	-0.007
773.2876	-0.0016
773.4613	0.0402
773.635	0.0261
773.8086	0.0226
773.9822	0.0416
774.1558	0.0392
774.3294	-0.006
774.503	0.0113
774.6765	0.04
774.8501	-0.0434
775.0236	0.0437
775.1971	-0.0251
775.3705	0.0136
775.544	0.0002
775.7174	0.0368
775.8908	0.0072
776.0642	0.0479
776.2376	0.0523
776.4109	-0.0041
776.5843	-0.0465
776.7576	-0.0124
776.9309	0.0385
777.1041	-0.0138
777.2774	0.04
777.4506	0.0471
777.6238	-0.0344
777.797	0.024
777.9702	-0.0038
778.1434	0.0369
778.3165	-0.0303
778.4896	-0.0291
778.6627	0.0145
778.8358	0.013
779.0089	-0.0306
779.1819	0.0411
779.3549	0.03
779.5279	-0.014
779.7009	0.0456
779.8739	0.035
780.0468	0.0094
780.2197	0.0333
780.3926	-0.0115
780.5655	0.0255
780.7384	0.0255
780.9112	0.0357
781.0841	0.0308
781.2569	0.0362
781.4297	0.0168
781.6024	0.0056
781.7752	0.0452
781.9479	0.0666
782.1206	0.0201
782.2933	0.0386
782.466	0.0466
782.6386	0.0047
782.8113	0.0289
782.9839	0.0042
783.1565	0.0209
783.329	0.0071
783.5016	-0.0056
783.6741	0.0106
783.8466	0.0241
784.0191	0.0364
784.1916	-0.0281
784.3641	-0.0239
784.5365	0.0101
784.7089	-0.0178
784.8813	0.0596
785.0537	0.014
785.2261	-0.0258
785.3984	0.0206
785.5707	-0.0373
785.743	0.0332
785.9153	0.0061
786.0876	-0.0214
786.2598	0.0009
786.432	-0.0145
786.6042	0.055
786.7764	0.0205
786.9486	-0.0395
787.1207	0.0368
787.2928	0.0404
787.4649	-0.0044
787.637	-0.0028
787.8091	0.0108
787.9811	0.0411
788.1532	0.0129
788.3252	0.0435
788.4972	0.0356
788.6691	0.018
788.8411	0.0249
789.013	0.0058
789.1849	-0.0111
789.3568	0.0049
789.5287	0.0628
789.7005	-0.011
789.8723	-0.01
790.0442	-0.0097
790.2159	0.0517
790.3877	0.0591
790.5595	0.0543
790.7312	0.0259
790.9029	-0.0199
791.0746	0.0283
791.2463	-0.0685
791.4179	0.0207
791.5896	0.0693
791.7612	0.0366
791.9328	-0.0264
792.1044	0.026
792.2759	-0.0445
792.4474	-0.0258
792.619	-0.0389
792.7905	0.0284
792.9619	-0.0009
793.1334	0.0674
793.3048	0.0879
793.4762	0.0027
793.6476	-0.0199
793.819	-0.0091
793.9904	-0.0142
794.1617	-0.0036
794.333	0.0301
794.5043	0.0378
794.6756	0.0112
794.8469	0.015
795.0181	0.0314
795.1893	0.0558
795.3605	0.0687
795.5317	-0.0155
795.7029	0.0155
795.874	0.0666
796.0452	0.0318
796.2163	0.1164
796.3873	0.0802
796.5584	0.0117
796.7294	0.0491
796.9005	0.0466
797.0715	-0.0503
797.2425	0.1036
797.4134	0.0577
797.5844	0.0002
797.7553	-0.0431
797.9262	0.0229
798.0971	0.0427
798.2679	-0.0094
798.4388	0.0139
798.6096	0.0183
798.7804	0.0202
798.9512	0.0849
799.122	-0.0137
799.2927	0.0381
799.4635	-0.0354
799.6342	-0.053
799.8049	0.0404
799.9755	-0.0203
800.1462	0.0343
800.3168	-0.0203
800.4874	-0.0711
800.658	-0.014
800.8286	-0.0179
800.9991	0.1045
801.1696	-0.0427
801.3402	-0.0613
801.5106	0.0132
801.6811	-0.0468
801.8516	0.0926
802.022	0.1042
802.1924	-0.047
802.3628	-0.017
802.5332	0.0449
802.7035	0.1094
802.8739	0.0432
803.0442	-0.0071
803.2145	-0.0189
803.3847	0.1108
803.555	0.0453
803.7252	-0.0578
803.8954	-0.0405
804.0656	-0.0483
804.2358	0.0979
804.4059	0.0374
804.5761	-0.0164
804.7462	0.0073
804.9163	0.0502
805.0864	0.0404
805.2564	-0.0531
805.4264	-0.0159
805.5965	0.051
805.7665	0.0221
805.9364	0.0113
806.1064	0.0368
806.2763	0.0576
806.4462	0.0532
806.6161	0.0245
806.786	0.0206
806.9559	0.0262
807.1257	-0.0128
807.2955	0.021
807.4653	-0.0069
807.6351	0.0747
807.8048	-0.0158
807.9746	0.0911
808.1443	0.0369
808.314	0.0523
808.4837	0.0167
808.6533	0.05
808.8229	-0.0495
808.9926	-0.04
809.1622	-0.001
809.3317	-0.0215
809.5013	-0.0872
809.6708	0.0172
809.8403	-0.0172
810.0098	0.0184
810.1793	0.0682
810.3488	0.012
810.5182	0.1341
810.6876	-0.0278
810.857	0.1749
811.0264	0.0804
811.1958	0.0961
811.3651	0.0609
811.5344	0.0737
811.7037	0.0122
811.873	0.075
812.0422	0.0094
812.2115	-0.0223
812.3807	-0.1208
812.5499	-0.0022
812.7191	0.142
812.8882	0.1952
813.0574	-0.0346
813.2265	0.0434
813.3956	0.013
813.5646	0.0458
813.7337	0.0416
813.9027	-0.1161
814.0718	0.0704
814.2407	0.1155
814.4097	0.0888
814.5787	0.1577
814.7476	-0.0084
814.9165	0.12
815.0854	0.0236
815.2543	0.0743
815.4232	0.1502
815.592	0.0714
815.7608	-0.0343
815.9296	0.08
816.0984	0.0335
816.2671	-0.1949
816.4359	0.1028
816.6046	-0.0174
816.7733	-0.0196
816.942	-0.023
817.1106	0.0566
817.2793	-0.1327
817.4479	0.0719
817.6165	0.1351
817.785	0.043
817.9536	-0.0475
818.1221	-0.0119
818.2906	-0.0927
818.4591	-0.0084
818.6276	0.0579
818.7961	-0.1687
818.9645	0.0723
819.1329	0.1436
819.3013	-0.0089
819.4697	0.041
819.638	0.2184
819.8064	-0.0124
819.9747	0.2337
820.143	-0.1433
820.3113	0.0133
820.4795	0.0228
820.6477	-0.0177
820.816	0.0848
820.9842	0.1782
821.1523	0.0391
821.3205	0.1157
821.4886	-0.0217
821.6567	-0.1001
821.8248	0.1278
821.9929	-0.2385
822.1609	0.0177
822.329	-0.068
822.497	-0.0117
822.665	-0.0735
822.833	-0.0214
823.0009	-0.0029
823.1688	0.1057
823.3367	-0.1398
823.5046	0.1639
823.6725	-0.0092
823.8404	-0.018
824.0082	-0.1396
824.176	-0.0283
824.3438	0.2807
824.5116	0.1665
824.6793	0.0587
824.847	0.0987
825.0147	0.4177
825.1824	-0.0227
825.3501	0.0214
825.5177	-0.0199
825.6854	-0.1286
825.853	-0.0362
826.0206	0.1109
826.1881	0.0466
826.3557	-0.0302
826.5232	0.139
826.6907	0.0424
826.8582	0.0753
827.0257	0.1909
827.1931	0.1352
827.3605	-0.1417
827.528	0.0504
827.6953	-0.0822
827.8627	-0.0952
828.03	0.0859
828.1974	0.0247
828.3647	0.0805
828.532	-0.0304
828.6992	-0.0452
828.8665	-0.1213
829.0337	0.0833
829.2009	-0.0912
829.3681	0.1423
829.5352	-0.2087
829.7024	0.1567
829.8695	-0.1094
830.0366	0.0884
830.2037	0.0641
830.3707	0.1549
830.5378	0.0121
830.7048	-0.0599
830.8718	0.0972
831.0388	0.0172
831.2057	0.2441
831.3727	-0.3243
831.5396	0.1432
831.7065	-0.7267
831.8734	0.1148
832.0402	0.3327
832.2071	-0.7101
832.3739	0.1873
832.5407	-2.0006
832.7075	-0.2955
832.8742	0.0345
833.041	0.0058
833.2077	0.0715
833.3744	0.0131
833.541	-0.0517
833.7077	-0.0113
833.8743	0.0688
834.0409	0.0588
834.2075	0.0672
834.3741	-0.1159
834.5407	-0.2132
834.7072	0.1414
834.8737	0.2576
835.0402	0.3359
835.2067	0.0503
835.3731	-0.0734
835.5395	-0.0416
835.706	-0.0558
835.8723	-0.0648
836.0387	0.1486
836.2051	0.1015
836.3714	0.1862
836.5377	0.0704
836.704	0.2367
836.8703	-0.2239
837.0365	-0.3081
837.2027	0.6431
837.3689	0.1887
837.5351	1.0627
837.7013	-0.3264
837.8674	-0
838.0335	-0.0043
838.1997	-0.1361
838.3657	0.0352
838.5318	-0.6197
838.6978	0.2702
838.8639	-0.0409
839.0299	-0.0381
839.1958	0.4027
839.3618	-0.1145
839.5277	0.2517
839.6937	-0.1476
839.8596	-0.3847
840.0254	-0.1592
840.1913	-0.4752
840.3571	-0.1043
840.523	-0
840.6888	0.0748
840.8545	-0
841.0203	0.0959
841.186	0.2847
841.3517	-0.0832
841.5174	0.1504
841.6831	-0.0054
841.8488	-0.0758
842.0144	0.9154
842.18	0.2815
842.3456	-0.6438
842.5112	-0
842.6767	-0.1787
842.8422	-0.0179
843.0077	-0.1127
843.1732	-0.6077
843.3387	-0
843.5042	-0
843.6696	-0.1052
843.835	0.0149
844.0004	0.1321
844.1657	-0
844.3311	-0.1579
844.4964	0.1263
844.6617	-0
844.827	-0
844.9923	0.4836
845.1575	-0.0191
845.3227	-0.5974
845.4879	-0.1333
845.6531	0.1282
845.8183	0.2394
845.9834	-0
846.1485	0.3729
846.3136	-0.2272
846.4787	-0
846.6438	-0.2682
846.8088	-0
846.9738	-0
847.1388	0.1427
847.3038	-0.052
847.4687	0.3278
847.6337	-0
847.7986	-0.2422
847.9635	0.2388
848.1284	1.6382
848.2932	-0.0433
848.458	-0
848.6228	-0.1804
848.7876	0.0241
848.9524	1.5132
849.1172	-1.5441
849.2819	-0
849.4466	0.4329
849.6113	0.0531
849.7759	-0
849.9406	0.424
850.1052	-0
850.2698	0.1412
850.4344	0.3463
850.599	-0.1481
850.7635	-0
850.928	0.3818
851.0925	0.0972
851.257	-0.2753
851.4215	-0.1995
851.5859	0.0528
851.7503	-0
851.9147	-0
852.0791	0.0373
852.2434	0.6081
852.4078	0.9884
852.5721	-0
852.7364	0.1218
852.9007	-0.1705
853.0649	-0
853.2291	0.2987
853.3934	-0
853.5575	0.2244
853.7217	0.0876
853.8859	-0.0329
854.05	-0.5837
854.2141	0.1906
854.3782	-0.116
854.5423	-0.4575
854.7063	0.0617
854.8703	0.3223
855.0343	-0.2275
855.1983	0.0167
855.3623	-0.0897
855.5262	-0
855.6901	0.4853
855.854	0.0191
856.0179	0.1307
856.1818	0.779
856.3456	0.8226
856.5094	-0.0402
856.6732	0.8302
856.837	-1.2904
857.0008	-0.3971
857.1645	-0.1617
857.3282	0.1461
857.4919	0.1493
857.6556	0.1175
857.8192	-0.244
857.9828	-0.0803
858.1465	0.121
858.31	-0
858.4736	-0.4229
858.6372	0.3989
858.8007	-0.2768
858.9642	0.2309
859.1277	0.7677
859.2911	-0.3441
859.4546	-1.0414
859.618	0.4638
859.7814	0.0955
859.9448	-0
860.1081	0.7155
860.2715	0.1461
860.4348	-0.1311
860.5981	0.9678
860.7614	-0
860.9246	-0.3337
861.0879	0.1033
861.2511	-0
861.4143	-0
861.5774	0.263
861.7406	0.1188
861.9037	-0.0847
862.0668	0.278
862.2299	-0
862.393	-0
862.556	-0
862.7191	-0.0226
862.8821	0.5072
863.0451	0.5175
863.208	-0.4242
863.371	-0.6031
863.5339	0.3714
863.6968	1.4571
863.8597	-0.2609
864.0225	0.6684
864.1854	-0
864.3482	-1.2255
864.511	0.051
864.6737	-0
864.8365	-0.0404
864.9992	1.1622
865.1619	-0
865.3246	-1.734
865.4873	-0
865.65	0.4699
865.8126	-0
865.9752	-0.4047
866.1378	0.3703
866.3004	-0.027
866.4629	-1.9536
866.6254	0.0899
866.7879	-0.056
866.9504	-0
867.1129	-0
867.2753	-0
867.4377	0.4384
867.6001	-0.7702
867.7625	-0.122
867.9249	1.2025
868.0872	-0
868.2495	-0
868.4118	-0
868.5741	-0
868.7363	-0
868.8986	-0.7041
869.0608	-0
869.223	-0.0823
869.3851	-0
869.5473	-0.1904
869.7094	0.3382
869.8715	-0
870.0336	-0.1095
870.1957	-0.7799
870.3577	0.1957
870.5197	-0.1075
870.6817	-0.7183
870.8437	-0.4381
871.0057	-0
871.1676	0.5778
871.3295	-0.2889
871.4914	-0
871.6533	-0.263
871.8151	0.0844
871.977	-0
872.1388	-0
872.3006	-0.5669
872.4623	0.0111
872.6241	1.4462
872.7858	0.4279
872.9475	-0
873.1092	-0.1401
873.2709	0.4267
873.4325	-0
873.5941	-0
873.7557	-0.2139
873.9173	0.3434
874.0789	0.3627
874.2404	-0
874.4019	0.1051
874.5634	-0
874.7249	-0
874.8863	-0.5414
875.0478	-0.3347
875.2092	-0
875.3706	0.0942
875.5319	-0
875.6933	-0.1211
875.8546	-0
876.0159	1.1076
876.1772	0.1742
876.3385	0.1461
876.4997	0.3406
876.6609	-0.0151
876.8221	-0
876.9833	-0.2986
877.1445	0.1779
877.3056	-0.9929
877.4667	-0
877.6278	1.3749
877.7889	-0.0684
877.9499	-0
878.111	-0.5798
878.272	-0
878.433	0.3151
878.5939	0.0807
878.7549	0.1039
878.9158	0.2669
879.0767	-0.2987
879.2376	-0
879.3984	0.4578
879.5593	-0
879.7201	-1.3929
879.8809	0.2019
880.0417	-0.0942
880.2024	-0.0891
880.3632	-0
880.5239	-0.1382
880.6846	0.7824
880.8452	0.011
881.0059	-0
881.1665	0.0853
881.3271	0.3029
881.4877	0.0782
881.6483	-0.8302
881.8088	-0
881.9693	-0
882.1298	-0
882.2903	-0
