Data from MonoPyChalIsomerACN10uM420nmA_Absorbance_15-09-55-634.txt Node
Date: Fri Jul 05 15:09:55 BST 2024
User: LASERRRRR
Spectrometer: FLMT03099
Trigger mode: 0
Integration Time (sec): 1.000000E-1
Scans to average: 1
Electric dark correction enabled: true
Nonlinearity correction enabled: false
Boxcar width: 0
XAxis mode: Wavelengths
Number of Pixels in Spectrum: 3648
>>>>>Begin Spectral Data<<<<<
179.3399	-0.1917
179.5586	-0.1917
179.7771	-0.1917
179.9957	0.0407
180.2143	-0
180.4329	0.2925
180.6514	0.2267
180.8699	-0
181.0885	0.1098
181.307	0.8474
181.5255	-0.6706
181.744	-0.6861
181.9625	-0
182.181	-1.2062
182.3994	0.6157
182.6179	-0.1461
182.8363	-0
183.0547	0.005
183.2732	-0.0145
183.4916	0.0196
183.71	0.2409
183.9284	0.0521
184.1467	0.0073
184.3651	-0.0729
184.5835	0.0107
184.8018	-0.0312
185.0201	-0.0268
185.2385	-0.0232
185.4568	0.0309
185.6751	0.0258
185.8934	0.1402
186.1117	0.0487
186.3299	0.0086
186.5482	-0.0074
186.7664	0.2801
186.9847	-0.1702
187.2029	0.1208
187.4211	0.1085
187.6393	0.1096
187.8575	-0.2106
188.0757	0.173
188.2939	0.1206
188.512	0.2892
188.7302	-0.0097
188.9483	0.212
189.1665	0.2242
189.3846	0.0043
189.6027	0.1673
189.8208	0.2751
190.0389	0.1061
190.257	0.1971
190.475	-0.0151
190.6931	0.2478
190.9111	0.7167
191.1292	0.1098
191.3472	0.314
191.5652	0.3152
191.7832	0.2667
192.0012	0.5667
192.2192	0.3159
192.4371	0.4216
192.6551	0.3456
192.873	0.3276
193.091	0.3819
193.3089	0.7785
193.5268	0.4462
193.7447	0.5694
193.9626	0.5171
194.1805	0.562
194.3984	0.7232
194.6162	0.6557
194.8341	0.6641
195.0519	0.6576
195.2697	0.9538
195.4875	0.6391
195.7054	0.5166
195.9231	0.4607
196.1409	0.5815
196.3587	0.6979
196.5765	0.5266
196.7942	0.4186
197.012	0.6864
197.2297	0.596
197.4474	0.5433
197.6651	0.5393
197.8828	0.6004
198.1005	0.6167
198.3182	0.5249
198.5358	0.7378
198.7535	0.6162
198.9711	0.522
199.1888	0.756
199.4064	0.7168
199.624	0.6499
199.8416	0.6706
200.0592	0.5719
200.2767	0.6816
200.4943	0.6361
200.7119	0.7675
200.9294	0.6733
201.1469	0.5885
201.3645	0.5471
201.582	0.5515
201.7995	0.6499
202.017	0.6779
202.2344	0.6512
202.4519	0.6037
202.6694	0.5707
202.8868	0.6151
203.1042	0.7538
203.3217	0.6373
203.5391	0.6358
203.7565	0.5617
203.9739	0.6205
204.1913	0.5558
204.4086	0.6877
204.626	0.7524
204.8433	0.6511
205.0607	0.6933
205.278	0.6569
205.4953	0.6405
205.7126	0.7086
205.9299	0.8818
206.1472	0.7096
206.3644	0.7204
206.5817	0.7015
206.7989	0.7505
207.0162	0.6536
207.2334	0.7532
207.4506	0.5848
207.6678	0.7013
207.885	0.6611
208.1022	0.605
208.3194	0.6634
208.5365	0.6817
208.7537	0.5868
208.9708	0.5728
209.1879	0.6299
209.405	0.7778
209.6222	0.6905
209.8392	0.6696
210.0563	0.5946
210.2734	0.7007
210.4905	0.5997
210.7075	0.6683
210.9245	0.6576
211.1416	0.7094
211.3586	0.6087
211.5756	0.6353
211.7926	0.6363
212.0096	0.6266
212.2265	0.5372
212.4435	0.5836
212.6604	0.6377
212.8774	0.5766
213.0943	0.6056
213.3112	0.5886
213.5281	0.4934
213.745	0.5294
213.9619	0.4661
214.1788	0.4989
214.3956	0.4541
214.6125	0.4614
214.8293	0.4451
215.0461	0.4839
215.2629	0.4574
215.4798	0.4511
215.6965	0.4448
215.9133	0.4492
216.1301	0.4632
216.3469	0.4413
216.5636	0.4231
216.7803	0.4363
216.9971	0.4226
217.2138	0.3749
217.4305	0.3824
217.6472	0.3538
217.8639	0.3831
218.0805	0.3396
218.2972	0.3309
218.5138	0.3138
218.7305	0.3076
218.9471	0.2958
219.1637	0.2785
219.3803	0.2826
219.5969	0.2774
219.8135	0.2607
220.0301	0.3003
220.2466	0.28
220.4632	0.269
220.6797	0.2487
220.8962	0.2408
221.1127	0.2373
221.3292	0.2434
221.5457	0.2559
221.7622	0.244
221.9787	0.2666
222.1951	0.2474
222.4116	0.2645
222.628	0.2528
222.8444	0.2544
223.0608	0.2505
223.2772	0.2417
223.4936	0.2559
223.71	0.2579
223.9264	0.2612
224.1427	0.2512
224.3591	0.2512
224.5754	0.2715
224.7917	0.254
225.008	0.2641
225.2243	0.2537
225.4406	0.2789
225.6569	0.275
225.8732	0.2523
226.0894	0.2518
226.3057	0.2675
226.5219	0.2735
226.7381	0.25
226.9543	0.2683
227.1705	0.2833
227.3867	0.2861
227.6029	0.2897
227.8191	0.294
228.0352	0.2975
228.2513	0.3204
228.4675	0.3109
228.6836	0.2928
228.8997	0.3003
229.1158	0.2916
229.3319	0.3026
229.548	0.304
229.764	0.3424
229.9801	0.3195
230.1961	0.3295
230.4121	0.3322
230.6282	0.3423
230.8442	0.3338
231.0602	0.3414
231.2761	0.3694
231.4921	0.3248
231.7081	0.3541
231.924	0.3389
232.14	0.3555
232.3559	0.3419
232.5718	0.3528
232.7877	0.3631
233.0036	0.3357
233.2195	0.3522
233.4353	0.3611
233.6512	0.3688
233.867	0.3637
234.0829	0.3769
234.2987	0.35
234.5145	0.3545
234.7303	0.3784
234.9461	0.3844
235.1619	0.3697
235.3776	0.3789
235.5934	0.3767
235.8091	0.3817
236.0249	0.3793
236.2406	0.384
236.4563	0.3788
236.672	0.3986
236.8877	0.3828
237.1034	0.3762
237.319	0.4083
237.5347	0.3967
237.7503	0.3746
237.966	0.3852
238.1816	0.3923
238.3972	0.402
238.6128	0.378
238.8284	0.3982
239.0439	0.4181
239.2595	0.383
239.475	0.4205
239.6906	0.4156
239.9061	0.4226
240.1216	0.4017
240.3371	0.3967
240.5526	0.3915
240.7681	0.3896
240.9836	0.3914
241.199	0.4109
241.4145	0.3869
241.6299	0.4066
241.8453	0.4003
242.0607	0.4139
242.2761	0.3679
242.4915	0.3913
242.7069	0.4089
242.9223	0.3767
243.1376	0.3733
243.353	0.3735
243.5683	0.372
243.7836	0.3455
243.9989	0.3663
244.2142	0.3396
244.4295	0.3397
244.6448	0.3338
244.86	0.3186
245.0753	0.3204
245.2905	0.3054
245.5057	0.3014
245.721	0.2889
245.9362	0.2855
246.1514	0.3011
246.3665	0.2815
246.5817	0.2751
246.7969	0.2824
247.012	0.2689
247.2271	0.2516
247.4423	0.2537
247.6574	0.273
247.8725	0.2587
248.0876	0.2389
248.3026	0.2445
248.5177	0.2454
248.7328	0.2502
248.9478	0.2141
249.1628	0.2299
249.3779	0.2246
249.5929	0.2105
249.8079	0.2236
250.0228	0.2249
250.2378	0.2221
250.4528	0.2085
250.6677	0.1974
250.8827	0.2089
251.0976	0.2094
251.3125	0.2094
251.5274	0.1885
251.7423	0.2024
251.9572	0.1867
252.172	0.1924
252.3869	0.1925
252.6017	0.1866
252.8166	0.1723
253.0314	0.1745
253.2462	0.1719
253.461	0.1994
253.6758	0.179
253.8906	0.1912
254.1053	0.1841
254.3201	0.168
254.5348	0.1933
254.7496	0.1807
254.9643	0.1783
255.179	0.1838
255.3937	0.1715
255.6083	0.18
255.823	0.187
256.0377	0.1692
256.2523	0.1745
256.467	0.1643
256.6816	0.1803
256.8962	0.1688
257.1108	0.17
257.3254	0.1682
257.54	0.1739
257.7545	0.1612
257.9691	0.1855
258.1836	0.1801
258.3981	0.1765
258.6127	0.1838
258.8272	0.1615
259.0417	0.1651
259.2561	0.1691
259.4706	0.1821
259.6851	0.158
259.8995	0.1668
260.114	0.1761
260.3284	0.1711
260.5428	0.1677
260.7572	0.1738
260.9716	0.1754
261.186	0.1631
261.4003	0.1727
261.6147	0.1726
261.829	0.161
262.0433	0.1706
262.2577	0.1646
262.472	0.1722
262.6863	0.1739
262.9005	0.17
263.1148	0.1657
263.3291	0.1545
263.5433	0.1759
263.7576	0.1701
263.9718	0.182
264.186	0.1648
264.4002	0.1684
264.6144	0.168
264.8286	0.1728
265.0427	0.1748
265.2569	0.1834
265.471	0.1636
265.6851	0.1735
265.8993	0.1576
266.1134	0.1589
266.3275	0.1692
266.5415	0.173
266.7556	0.1813
266.9697	0.1794
267.1837	0.1755
267.3978	0.1708
267.6118	0.1775
267.8258	0.1799
268.0398	0.1548
268.2538	0.1831
268.4677	0.1776
268.6817	0.1781
268.8957	0.1753
269.1096	0.182
269.3235	0.1888
269.5374	0.1675
269.7514	0.1556
269.9652	0.1656
270.1791	0.1707
270.393	0.1693
270.6068	0.171
270.8207	0.1719
271.0345	0.1711
271.2483	0.1701
271.4622	0.1558
271.676	0.1805
271.8897	0.1585
272.1035	0.1699
272.3173	0.1661
272.531	0.1655
272.7448	0.1681
272.9585	0.1599
273.1722	0.167
273.3859	0.1777
273.5996	0.1555
273.8133	0.1758
274.0269	0.1653
274.2406	0.1564
274.4542	0.1703
274.6679	0.1634
274.8815	0.1717
275.0951	0.1587
275.3087	0.1756
275.5223	0.1722
275.7358	0.1733
275.9494	0.1707
276.1629	0.1581
276.3765	0.1672
276.59	0.1691
276.8035	0.1675
277.017	0.172
277.2305	0.1665
277.444	0.1787
277.6574	0.1588
277.8709	0.1834
278.0843	0.1618
278.2978	0.1602
278.5112	0.1697
278.7246	0.1756
278.938	0.164
279.1513	0.177
279.3647	0.1858
279.5781	0.174
279.7914	0.1624
280.0047	0.176
280.2181	0.1666
280.4314	0.1825
280.6447	0.1748
280.8579	0.1727
281.0712	0.1732
281.2845	0.186
281.4977	0.1786
281.711	0.1625
281.9242	0.1674
282.1374	0.1826
282.3506	0.1654
282.5638	0.1777
282.7769	0.1734
282.9901	0.1771
283.2033	0.1805
283.4164	0.1854
283.6295	0.1606
283.8426	0.1701
284.0557	0.1725
284.2688	0.1796
284.4819	0.1676
284.695	0.16
284.908	0.1781
285.1211	0.1554
285.3341	0.1719
285.5471	0.1763
285.7601	0.1686
285.9731	0.1636
286.1861	0.1627
286.3991	0.1701
286.612	0.1644
286.825	0.1719
287.0379	0.1703
287.2508	0.1563
287.4637	0.1632
287.6766	0.1504
287.8895	0.1839
288.1024	0.1856
288.3152	0.1641
288.5281	0.1663
288.7409	0.1674
288.9538	0.1627
289.1666	0.1622
289.3794	0.1627
289.5922	0.1546
289.8049	0.1575
290.0177	0.1635
290.2304	0.1528
290.4432	0.153
290.6559	0.1592
290.8686	0.1484
291.0813	0.1609
291.294	0.1645
291.5067	0.1638
291.7194	0.1438
291.932	0.1692
292.1447	0.1555
292.3573	0.1446
292.5699	0.1563
292.7825	0.1606
292.9951	0.1468
293.2077	0.1565
293.4203	0.15
293.6328	0.14
293.8454	0.1612
294.0579	0.1524
294.2704	0.153
294.4829	0.144
294.6954	0.1586
294.9079	0.1567
295.1204	0.1516
295.3328	0.1404
295.5453	0.1585
295.7577	0.1553
295.9701	0.1482
296.1825	0.1425
296.3949	0.1429
296.6073	0.1493
296.8197	0.1445
297.0321	0.1588
297.2444	0.1574
297.4567	0.1443
297.6691	0.1482
297.8814	0.1463
298.0937	0.1482
298.306	0.1634
298.5182	0.1467
298.7305	0.1533
298.9428	0.1505
299.155	0.152
299.3672	0.1471
299.5794	0.1442
299.7916	0.1448
300.0038	0.1534
300.216	0.1521
300.4282	0.148
300.6403	0.1401
300.8525	0.1469
301.0646	0.1511
301.2767	0.1465
301.4888	0.1552
301.7009	0.1485
301.913	0.1528
302.125	0.1465
302.3371	0.1411
302.5491	0.1492
302.7612	0.1452
302.9732	0.1605
303.1852	0.1433
303.3972	0.1425
303.6092	0.149
303.8211	0.1521
304.0331	0.138
304.245	0.1363
304.457	0.1393
304.6689	0.138
304.8808	0.1568
305.0927	0.1433
305.3046	0.1548
305.5164	0.15
305.7283	0.1355
305.9401	0.1494
306.152	0.1422
306.3638	0.1408
306.5756	0.138
306.7874	0.1479
306.9992	0.1472
307.2109	0.1357
307.4227	0.1239
307.6344	0.1318
307.8462	0.1319
308.0579	0.1364
308.2696	0.1219
308.4813	0.1253
308.693	0.1241
308.9046	0.1332
309.1163	0.1276
309.328	0.1276
309.5396	0.1303
309.7512	0.1263
309.9628	0.1215
310.1744	0.1269
310.386	0.1218
310.5976	0.1225
310.8091	0.1198
311.0207	0.1191
311.2322	0.1293
311.4437	0.119
311.6552	0.103
311.8667	0.127
312.0782	0.105
312.2897	0.1129
312.5012	0.1171
312.7126	0.1118
312.924	0.1151
313.1355	0.1177
313.3469	0.1103
313.5583	0.1184
313.7696	0.1178
313.981	0.1195
314.1924	0.113
314.4037	0.1084
314.6151	0.1197
314.8264	0.113
315.0377	0.1102
315.249	0.1145
315.4603	0.1219
315.6716	0.1166
315.8828	0.1077
316.0941	0.1096
316.3053	0.0978
316.5165	0.1083
316.7277	0.1059
316.9389	0.1188
317.1501	0.106
317.3613	0.1113
317.5724	0.1035
317.7836	0.104
317.9947	0.1149
318.2058	0.1074
318.417	0.1012
318.6281	0.0916
318.8391	0.1044
319.0502	0.1083
319.2613	0.1101
319.4723	0.1116
319.6834	0.1208
319.8944	0.0951
320.1054	0.1146
320.3164	0.1166
320.5274	0.1046
320.7383	0.1095
320.9493	0.1129
321.1602	0.1255
321.3712	0.0968
321.5821	0.1228
321.793	0.1034
322.0039	0.1097
322.2148	0.107
322.4257	0.1146
322.6365	0.1279
322.8474	0.1192
323.0582	0.1118
323.269	0.1144
323.4798	0.1133
323.6906	0.131
323.9014	0.1217
324.1122	0.1161
324.3229	0.104
324.5337	0.1118
324.7444	0.1085
324.9551	0.1278
325.1658	0.1061
325.3765	0.1221
325.5872	0.114
325.7979	0.1178
326.0085	0.1189
326.2192	0.124
326.4298	0.1253
326.6404	0.1129
326.851	0.1105
327.0616	0.1078
327.2722	0.1157
327.4828	0.1358
327.6933	0.1245
327.9039	0.1289
328.1144	0.1301
328.3249	0.1202
328.5354	0.109
328.7459	0.1076
328.9564	0.1125
329.1669	0.1197
329.3773	0.1039
329.5878	0.1236
329.7982	0.1333
330.0086	0.1194
330.219	0.1286
330.4294	0.1203
330.6398	0.1216
330.8502	0.1123
331.0605	0.1283
331.2708	0.1252
331.4812	0.1286
331.6915	0.1172
331.9018	0.1131
332.1121	0.1245
332.3224	0.1281
332.5326	0.1353
332.7429	0.1187
332.9531	0.1356
333.1633	0.1312
333.3735	0.1225
333.5837	0.117
333.7939	0.1188
334.0041	0.1403
334.2143	0.1212
334.4244	0.1235
334.6346	0.1036
334.8447	0.1291
335.0548	0.1066
335.2649	0.1132
335.475	0.1278
335.685	0.1226
335.8951	0.1236
336.1051	0.1234
336.3152	0.1327
336.5252	0.119
336.7352	0.1223
336.9452	0.1404
337.1552	0.1369
337.3652	0.1338
337.5751	0.1213
337.7851	0.1334
337.995	0.1175
338.2049	0.1418
338.4148	0.1299
338.6247	0.1188
338.8346	0.1241
339.0445	0.135
339.2543	0.1161
339.4642	0.1301
339.674	0.1238
339.8838	0.1256
340.0936	0.1287
340.3034	0.1286
340.5132	0.1387
340.7229	0.1272
340.9327	0.1416
341.1424	0.1294
341.3522	0.1505
341.5619	0.1316
341.7716	0.1381
341.9813	0.1437
342.1909	0.1267
342.4006	0.1333
342.6102	0.1422
342.8199	0.1376
343.0295	0.1434
343.2391	0.145
343.4487	0.1488
343.6583	0.1431
343.8679	0.1404
344.0774	0.1485
344.287	0.1503
344.4965	0.1317
344.706	0.1407
344.9155	0.1439
345.125	0.1281
345.3345	0.143
345.544	0.1343
345.7534	0.1439
345.9629	0.1329
346.1723	0.1395
346.3817	0.1354
346.5911	0.1559
346.8005	0.139
347.0099	0.1455
347.2193	0.1373
347.4286	0.139
347.638	0.1513
347.8473	0.1362
348.0566	0.131
348.2659	0.1378
348.4752	0.1545
348.6845	0.1459
348.8937	0.1458
349.103	0.1565
349.3122	0.1389
349.5214	0.1415
349.7306	0.144
349.9398	0.1542
350.149	0.1403
350.3582	0.1522
350.5674	0.1712
350.7765	0.1458
350.9856	0.1431
351.1948	0.1545
351.4039	0.1334
351.613	0.1427
351.822	0.1521
352.0311	0.1415
352.2402	0.145
352.4492	0.1475
352.6582	0.1624
352.8672	0.1562
353.0762	0.145
353.2852	0.1581
353.4942	0.1522
353.7032	0.1572
353.9121	0.1465
354.1211	0.1676
354.33	0.1592
354.5389	0.146
354.7478	0.151
354.9567	0.1567
355.1655	0.1476
355.3744	0.1586
355.5833	0.1605
355.7921	0.176
356.0009	0.1497
356.2097	0.1769
356.4185	0.1666
356.6273	0.1667
356.8361	0.1587
357.0448	0.1811
357.2536	0.149
357.4623	0.1717
357.671	0.1613
357.8797	0.1697
358.0884	0.168
358.2971	0.1721
358.5057	0.1621
358.7144	0.173
358.923	0.1767
359.1316	0.1666
359.3402	0.1653
359.5488	0.1691
359.7574	0.1573
359.966	0.1632
360.1746	0.1692
360.3831	0.1708
360.5916	0.1652
360.8002	0.1617
361.0087	0.1764
361.2172	0.1819
361.4256	0.1701
361.6341	0.1911
361.8426	0.1763
362.051	0.1761
362.2594	0.1722
362.4678	0.1737
362.6762	0.1928
362.8846	0.1819
363.093	0.1773
363.3014	0.1753
363.5097	0.1528
363.718	0.1828
363.9264	0.1767
364.1347	0.1729
364.343	0.1968
364.5513	0.1927
364.7595	0.1899
364.9678	0.1948
365.176	0.1795
365.3842	0.1859
365.5925	0.1849
365.8007	0.1915
366.0089	0.1834
366.217	0.1776
366.4252	0.1979
366.6333	0.2002
366.8415	0.1986
367.0496	0.1884
367.2577	0.2013
367.4658	0.2011
367.6739	0.2008
367.882	0.1981
368.09	0.1694
368.2981	0.1946
368.5061	0.1805
368.7141	0.1877
368.9221	0.1996
369.1301	0.1897
369.3381	0.1928
369.5461	0.1891
369.754	0.186
369.962	0.1964
370.1699	0.1936
370.3778	0.1965
370.5857	0.199
370.7936	0.1877
371.0015	0.2001
371.2093	0.1924
371.4172	0.2028
371.625	0.1808
371.8328	0.1943
372.0406	0.1938
372.2484	0.1925
372.4562	0.2064
372.664	0.2063
372.8717	0.21
373.0795	0.189
373.2872	0.1992
373.4949	0.1987
373.7026	0.2066
373.9103	0.2103
374.118	0.1813
374.3256	0.1953
374.5333	0.2078
374.7409	0.186
374.9485	0.2071
375.1561	0.2028
375.3637	0.1959
375.5713	0.1943
375.7789	0.1922
375.9864	0.1859
376.194	0.197
376.4015	0.2006
376.609	0.2091
376.8165	0.1992
377.024	0.2039
377.2315	0.1871
377.4389	0.2135
377.6464	0.2091
377.8538	0.2027
378.0612	0.2182
378.2686	0.2153
378.476	0.2202
378.6834	0.2039
378.8908	0.1972
379.0981	0.1957
379.3055	0.206
379.5128	0.1988
379.7201	0.2087
379.9274	0.2102
380.1347	0.2052
380.342	0.2265
380.5492	0.1942
380.7565	0.2171
380.9637	0.2199
381.1709	0.208
381.3781	0.1961
381.5853	0.2196
381.7925	0.2156
381.9997	0.208
382.2068	0.2176
382.4139	0.2125
382.6211	0.2026
382.8282	0.2052
383.0353	0.2099
383.2424	0.1944
383.4494	0.2244
383.6565	0.206
383.8635	0.2031
384.0706	0.2049
384.2776	0.2251
384.4846	0.2093
384.6916	0.2132
384.8986	0.2087
385.1055	0.2265
385.3125	0.2011
385.5194	0.2039
385.7263	0.2038
385.9333	0.2216
386.1402	0.2167
386.347	0.196
386.5539	0.1852
386.7608	0.1983
386.9676	0.2005
387.1744	0.2022
387.3813	0.1962
387.5881	0.205
387.7948	0.2112
388.0016	0.2057
388.2084	0.1959
388.4151	0.1934
388.6219	0.216
388.8286	0.1916
389.0353	0.206
389.242	0.1954
389.4487	0.208
389.6553	0.1976
389.862	0.1941
390.0686	0.2022
390.2753	0.2101
390.4819	0.1938
390.6885	0.1956
390.8951	0.2144
391.1016	0.1873
391.3082	0.1945
391.5147	0.1881
391.7213	0.188
391.9278	0.193
392.1343	0.1808
392.3408	0.1803
392.5473	0.1822
392.7537	0.1902
392.9602	0.1887
393.1666	0.1811
393.373	0.1827
393.5794	0.1955
393.7858	0.1867
393.9922	0.1665
394.1986	0.1852
394.4049	0.1851
394.6113	0.1669
394.8176	0.1718
395.0239	0.1905
395.2302	0.1588
395.4365	0.1716
395.6428	0.1725
395.8491	0.1608
396.0553	0.1649
396.2615	0.1696
396.4678	0.1616
396.674	0.1586
396.8802	0.1862
397.0863	0.196
397.2925	0.1484
397.4987	0.1531
397.7048	0.1684
397.9109	0.1637
398.117	0.1707
398.3231	0.1601
398.5292	0.1732
398.7353	0.1686
398.9413	0.1635
399.1474	0.1734
399.3534	0.1627
399.5594	0.147
399.7654	0.1882
399.9714	0.1795
400.1774	0.1629
400.3833	0.1581
400.5893	0.1829
400.7952	0.1801
401.0011	0.1727
401.207	0.1661
401.4129	0.1601
401.6188	0.1665
401.8247	0.1797
402.0305	0.1611
402.2364	0.174
402.4422	0.1801
402.648	0.1757
402.8538	0.1802
403.0596	0.1487
403.2654	0.1716
403.4711	0.1517
403.6768	0.1739
403.8826	0.1804
404.0883	0.1556
404.294	0.1742
404.4997	0.1607
404.7054	0.1472
404.911	0.1588
405.1167	0.1644
405.3223	0.1725
405.5279	0.1755
405.7335	0.1562
405.9391	0.1857
406.1447	0.1719
406.3502	0.1635
406.5558	0.1503
406.7613	0.1577
406.9668	0.1772
407.1724	0.1545
407.3778	0.1526
407.5833	0.1611
407.7888	0.1547
407.9942	0.1753
408.1997	0.165
408.4051	0.1479
408.6105	0.1538
408.8159	0.1444
409.0213	0.1622
409.2267	0.1639
409.432	0.1562
409.6374	0.1705
409.8427	0.1675
410.048	0.1688
410.2533	0.151
410.4586	0.1699
410.6639	0.1364
410.8691	0.1569
411.0744	0.1653
411.2796	0.1564
411.4848	0.1563
411.69	0.1455
411.8952	0.1736
412.1004	0.1528
412.3056	0.1703
412.5107	0.1607
412.7158	0.1661
412.921	0.1535
413.1261	0.1604
413.3312	0.1562
413.5362	0.1451
413.7413	0.1564
413.9464	0.1262
414.1514	0.1485
414.3564	0.1506
414.5614	0.1375
414.7664	0.1522
414.9714	0.1533
415.1764	0.1454
415.3813	0.1542
415.5863	0.1391
415.7912	0.1484
415.9961	0.1524
416.201	0.1614
416.4059	0.1627
416.6108	0.1307
416.8156	0.1451
417.0205	0.1488
417.2253	0.1485
417.4301	0.1502
417.6349	0.1504
417.8397	0.1631
418.0445	0.1461
418.2492	0.1556
418.454	0.1565
418.6587	0.1569
418.8634	0.1388
419.0681	0.1501
419.2728	0.1489
419.4775	0.1397
419.6822	0.1311
419.8868	0.131
420.0915	0.1504
420.2961	0.139
420.5007	0.1448
420.7053	0.1411
420.9099	0.1366
421.1144	0.1447
421.319	0.1297
421.5235	0.1465
421.728	0.1552
421.9325	0.1442
422.137	0.1515
422.3415	0.1481
422.546	0.1486
422.7504	0.1314
422.9549	0.1453
423.1593	0.1349
423.3637	0.1567
423.5681	0.1394
423.7725	0.1426
423.9769	0.1395
424.1812	0.1382
424.3856	0.1279
424.5899	0.1498
424.7942	0.1468
424.9985	0.1448
425.2028	0.1279
425.4071	0.1432
425.6113	0.1163
425.8156	0.1467
426.0198	0.127
426.224	0.1369
426.4282	0.1294
426.6324	0.1171
426.8366	0.129
427.0407	0.1254
427.2449	0.1345
427.449	0.1133
427.6531	0.0985
427.8572	0.1219
428.0613	0.1177
428.2654	0.1308
428.4694	0.0977
428.6735	0.1211
428.8775	0.1324
429.0815	0.1266
429.2855	0.106
429.4895	0.1118
429.6935	0.1264
429.8975	0.1124
430.1014	0.1163
430.3053	0.1
430.5093	0.0968
430.7132	0.1036
430.9171	0.1061
431.1209	0.1093
431.3248	0.1086
431.5286	0.1175
431.7325	0.0923
431.9363	0.0922
432.1401	0.1007
432.3439	0.0956
432.5477	0.0921
432.7514	0.0901
432.9552	0.1004
433.1589	0.0808
433.3627	0.0929
433.5664	0.0848
433.7701	0.0819
433.9737	0.0709
434.1774	0.092
434.3811	0.0765
434.5847	0.081
434.7883	0.0824
434.9919	0.0809
435.1955	0.0762
435.3991	0.0923
435.6027	0.0739
435.8062	0.0844
436.0098	0.081
436.2133	0.0808
436.4168	0.0806
436.6203	0.0615
436.8238	0.0815
437.0272	0.0677
437.2307	0.0751
437.4341	0.0966
437.6375	0.0735
437.841	0.0638
438.0443	0.0698
438.2477	0.0703
438.4511	0.0472
438.6545	0.0715
438.8578	0.0762
439.0611	0.0687
439.2644	0.0587
439.4677	0.061
439.671	0.0516
439.8743	0.0618
440.0775	0.0648
440.2808	0.054
440.484	0.0535
440.6872	0.0309
440.8904	0.042
441.0936	0.0685
441.2967	0.0564
441.4999	0.0614
441.703	0.0576
441.9062	0.0493
442.1093	0.0592
442.3124	0.062
442.5155	0.0338
442.7185	0.0426
442.9216	0.0403
443.1246	0.0571
443.3276	0.0381
443.5307	0.0379
443.7337	0.048
443.9366	0.0476
444.1396	0.038
444.3426	0.0429
444.5455	0.0311
444.7484	0.0476
444.9513	0.0331
445.1542	0.0508
445.3571	0.0228
445.56	0.0427
445.7628	0.0307
445.9657	0.0316
446.1685	0.0478
446.3713	0.0483
446.5741	0.0339
446.7769	0.0272
446.9797	0.0305
447.1824	0.0494
447.3852	0.0194
447.5879	0.0376
447.7906	0.0343
447.9933	0.0189
448.196	0.0192
448.3986	0.0178
448.6013	0.0151
448.8039	0.0138
449.0066	0.0392
449.2092	0.0321
449.4118	0.0287
449.6143	0.0142
449.8169	0.0201
450.0195	0.0073
450.222	-0.0017
450.4245	0.0306
450.627	0.0297
450.8295	0.0223
451.032	0.0175
451.2345	0.0167
451.4369	0.0311
451.6394	0.0202
451.8418	-0.0094
452.0442	0.0073
452.2466	0.0301
452.449	-0.0127
452.6513	0.012
452.8537	0.0201
453.056	-0.0056
453.2583	0.008
453.4607	0.0068
453.663	0.017
453.8652	0.0297
454.0675	0.0053
454.2697	0.015
454.472	-0.0072
454.6742	0.0059
454.8764	0.0128
455.0786	-0.0028
455.2808	-0.0024
455.4829	0.0186
455.6851	0.0114
455.8872	0.0152
456.0893	0.0156
456.2915	-0.0072
456.4935	0.0151
456.6956	-0.0093
456.8977	0.0092
457.0997	0.0019
457.3018	-0.0065
457.5038	0.0145
457.7058	0.0142
457.9078	-0.0059
458.1098	0.0188
458.3117	0.0146
458.5137	-0.0041
458.7156	0.0153
458.9175	-0.0072
459.1194	-0.0001
459.3213	0.0027
459.5232	0.0055
459.725	-0.0084
459.9269	-0.0094
460.1287	-0.0065
460.3305	0.0054
460.5323	-0.003
460.7341	0.0043
460.9359	0.0145
461.1376	0.0105
461.3394	0.002
461.5411	0.0158
461.7428	0.0032
461.9445	0.0087
462.1462	0.0184
462.3479	-0.0052
462.5495	-0.0006
462.7512	-0.0005
462.9528	-0.0052
463.1544	0.0009
463.356	0.0121
463.5576	-0.0067
463.7592	-0.0048
463.9607	0.0012
464.1623	0.0175
464.3638	0.0088
464.5653	-0.0003
464.7668	-0.0056
464.9683	0.0009
465.1697	0.0055
465.3712	-0.0108
465.5726	-0.0053
465.7741	0.0042
465.9755	-0.0026
466.1769	-0.0009
466.3782	-0.0037
466.5796	-0.0077
466.7809	-0.0047
466.9823	-0.0144
467.1836	-0.0061
467.3849	-0.0037
467.5862	0.0032
467.7875	-0.0163
467.9887	0.0032
468.19	0.0031
468.3912	-0.0103
468.5924	0.0113
468.7936	-0.004
468.9948	-0.0057
469.196	-0.0118
469.3972	-0.0083
469.5983	0.007
469.7994	-0.0074
470.0006	0.0004
470.2017	-0.0071
470.4027	0.0036
470.6038	0.0031
470.8049	-0.0185
471.0059	-0.0076
471.2069	-0.0205
471.408	0.0171
471.6089	0.0097
471.8099	-0.0076
472.0109	-0.0047
472.2119	-0.0142
472.4128	-0.0159
472.6137	-0.0012
472.8146	-0.0125
473.0155	-0.0039
473.2164	-0.0046
473.4173	0.0063
473.6181	-0.0052
473.819	-0.0021
474.0198	-0.0065
474.2206	-0.0044
474.4214	-0.0116
474.6222	-0.0132
474.8229	-0.0043
475.0237	-0.0049
475.2244	-0.0056
475.4251	-0.0058
475.6258	-0.0039
475.8265	0.0098
476.0272	0.0048
476.2278	-0.0122
476.4285	0.0045
476.6291	-0.0153
476.8297	-0.0147
477.0303	-0.0175
477.2309	-0.01
477.4315	-0.0175
477.632	0.002
477.8326	-0.0073
478.0331	0.0054
478.2336	-0.0067
478.4341	-0.0009
478.6346	-0.0037
478.8351	0.0011
479.0355	0.0029
479.236	-0.0057
479.4364	-0.0042
479.6368	-0.0035
479.8372	-0.0126
480.0376	-0.0119
480.2379	-0.0201
480.4383	-0.0109
480.6386	0.0022
480.8389	-0.0058
481.0392	-0.0043
481.2395	-0.0043
481.4398	0.0051
481.6401	0.0021
481.8403	-0.008
482.0405	-0.009
482.2408	-0.0152
482.441	0.0155
482.6411	-0.0073
482.8413	-0.013
483.0415	-0.0146
483.2416	-0.0154
483.4417	-0.01
483.6419	-0.0021
483.8419	-0.0119
484.042	0.0099
484.2421	0.0063
484.4422	-0.0019
484.6422	-0.0063
484.8422	-0.0027
485.0422	-0.013
485.2422	-0.0032
485.4422	-0.0095
485.6422	-0.0055
485.8421	-0.0007
486.042	-0.0024
486.242	-0.0101
486.4419	-0.0179
486.6417	-0.0101
486.8416	-0.0005
487.0415	-0.0055
487.2413	-0.0031
487.4411	0.0002
487.641	-0.0089
487.8408	-0.0028
488.0405	-0.0079
488.2403	-0.001
488.4401	0.0052
488.6398	0.0087
488.8395	-0.0098
489.0392	0.0004
489.2389	-0.0113
489.4386	-0.0171
489.6383	-0.022
489.8379	-0.0069
490.0376	-0.0061
490.2372	-0.0072
490.4368	-0.0039
490.6364	-0.0073
490.836	-0.0058
491.0355	0.0077
491.2351	-0.0171
491.4346	-0.0023
491.6341	-0.0181
491.8336	-0.004
492.0331	-0.0193
492.2326	-0.0128
492.432	-0.0144
492.6315	-0.0102
492.8309	-0.0183
493.0303	-0.0125
493.2297	-0.0041
493.4291	-0.0056
493.6284	-0.0072
493.8278	-0.0084
494.0271	0.0064
494.2264	0.002
494.4257	-0.0215
494.625	-0.0097
494.8243	-0.0216
495.0236	-0.0095
495.2228	-0.0107
495.422	-0.0061
495.6213	-0.011
495.8205	-0.0061
496.0196	-0.0073
496.2188	-0.0013
496.418	-0.0087
496.6171	-0.0187
496.8162	-0.0137
497.0153	0.0091
497.2144	-0.0106
497.4135	-0.0014
497.6126	-0.0165
497.8116	-0.0149
498.0107	-0.0113
498.2097	-0.022
498.4087	-0.0147
498.6077	-0.0098
498.8067	-0.0168
499.0056	0.0051
499.2046	-0.0137
499.4035	-0.0103
499.6024	-0.0007
499.8013	-0.0075
500.0002	-0.0087
500.199	-0.0003
500.3979	0.0009
500.5967	-0.0208
500.7956	0.0031
500.9944	-0.0091
501.1932	-0.0211
501.3919	-0.0096
501.5907	-0.0197
501.7895	-0.0075
501.9882	-0.0162
502.1869	-0.0114
502.3856	-0.0137
502.5843	-0.008
502.783	-0.0088
502.9816	-0.0136
503.1803	-0.0226
503.3789	-0.0163
503.5775	0.0019
503.7761	-0.0144
503.9747	-0.0024
504.1732	0.0007
504.3718	-0.0157
504.5703	0.0026
504.7689	-0.0121
504.9674	-0.0024
505.1658	-0.0167
505.3643	-0.0098
505.5628	-0.0071
505.7612	-0.0078
505.9597	0.0087
506.1581	-0.0061
506.3565	0.0037
506.5549	-0.0136
506.7532	-0.0164
506.9516	-0.0078
507.1499	-0.0082
507.3482	-0.0147
507.5465	-0.0067
507.7448	-0.0051
507.9431	-0.0113
508.1414	-0.0009
508.3396	-0.0134
508.5379	-0.0073
508.7361	-0.0182
508.9343	-0.0083
509.1325	-0.0077
509.3306	-0.0119
509.5288	-0.0101
509.7269	-0.0165
509.9251	-0.0012
510.1232	-0.011
510.3213	-0.0037
510.5193	-0.0048
510.7174	-0.0217
510.9154	-0.0255
511.1135	-0.0089
511.3115	-0.0045
511.5095	-0.0086
511.7075	-0.0074
511.9055	0.0015
512.1034	-0.0101
512.3014	-0.0067
512.4993	-0.0049
512.6972	-0.0108
512.8951	-0.0284
513.093	-0.003
513.2908	-0.0077
513.4887	-0.0081
513.6865	-0.0063
513.8844	-0.004
514.0822	-0.0065
514.2799	-0.0199
514.4777	-0.0139
514.6755	-0.0141
514.8732	-0.0175
515.0709	-0.006
515.2687	-0.0052
515.4664	-0.0011
515.664	-0.0092
515.8617	-0.0037
516.0594	-0.0096
516.257	0.0051
516.4546	-0.0117
516.6522	-0.0082
516.8498	-0.0038
517.0474	-0.0029
517.2449	-0.0011
517.4425	-0.0163
517.64	-0.0125
517.8375	-0.0079
518.035	-0.0021
518.2325	-0.0086
518.43	-0.0191
518.6274	-0.0007
518.8249	-0.016
519.0223	-0.003
519.2197	-0.0042
519.4171	-0.0083
519.6145	-0.0145
519.8118	-0.0044
520.0092	-0.0112
520.2065	-0.0131
520.4038	-0.0105
520.6011	-0.0106
520.7984	-0.0152
520.9956	-0.0053
521.1929	-0.0222
521.3901	-0.0004
521.5874	0.0033
521.7846	0.0015
521.9818	-0.0156
522.1789	-0.0087
522.3761	-0.0096
522.5732	-0.0195
522.7704	-0.0078
522.9675	-0.0097
523.1646	-0.0025
523.3617	-0.0063
523.5587	-0.0157
523.7558	-0.0079
523.9528	-0.0119
524.1498	-0.0049
524.3468	-0.0094
524.5438	-0.006
524.7408	-0.0088
524.9378	-0.0063
525.1347	-0.0082
525.3316	-0.0048
525.5285	-0.0136
525.7254	-0.009
525.9223	-0.0005
526.1192	-0.0033
526.316	-0.0205
526.5129	0.0022
526.7097	0.0061
526.9065	-0.0019
527.1033	-0.013
527.3	-0.0042
527.4968	-0.0067
527.6935	-0.0062
527.8903	-0.015
528.087	-0.0035
528.2837	-0.0044
528.4804	0.0058
528.677	0.0033
528.8737	0.0057
529.0703	-0.0015
529.2669	-0.01
529.4635	-0.0074
529.6601	-0.0024
529.8567	-0.007
530.0532	-0.0163
530.2498	-0.0043
530.4463	0.0058
530.6428	-0.0058
530.8393	0.0095
531.0358	0.0007
531.2322	-0.0124
531.4287	-0.004
531.6251	-0.004
531.8215	0.0142
532.0179	-0.0022
532.2143	0.0002
532.4107	-0.0028
532.607	-0.0075
532.8034	0.0011
532.9997	-0.0045
533.196	-0.0057
533.3923	0.0013
533.5886	-0.0028
533.7848	-0.0035
533.9811	-0.0089
534.1773	-0.0038
534.3735	0.0082
534.5697	-0.0036
534.7659	-0.0026
534.9621	-0.0004
535.1582	-0.0156
535.3544	-0.0079
535.5505	-0.008
535.7466	-0.0059
535.9427	-0.0055
536.1387	-0.0074
536.3348	-0.004
536.5308	0.0004
536.7269	-0.0272
536.9229	0.0032
537.1189	-0.0025
537.3148	-0.004
537.5108	-0.0112
537.7068	-0.0075
537.9027	-0.0019
538.0986	-0.0067
538.2945	-0.0155
538.4904	-0.0023
538.6863	-0.0087
538.8821	-0.005
539.078	-0.0081
539.2738	-0.0068
539.4696	-0.013
539.6654	0.0011
539.8611	0.0036
540.0569	-0.0027
540.2526	-0.0128
540.4484	0.0015
540.6441	0.0032
540.8398	0.0003
541.0355	0.0018
541.2311	-0.008
541.4268	-0.0087
541.6224	0.0039
541.818	-0.0052
542.0136	-0.0107
542.2092	0.0031
542.4048	0.0044
542.6003	0.0012
542.7959	-0.0073
542.9914	-0.0026
543.1869	0.0019
543.3824	-0.0045
543.5779	0.0015
543.7734	-0.0048
543.9688	-0.007
544.1642	-0.0024
544.3596	-0.0021
544.555	-0.0131
544.7504	-0.0038
544.9458	-0.0011
545.1411	-0.0033
545.3365	0.0023
545.5318	-0.0101
545.7271	-0.0003
545.9224	-0.0035
546.1177	0.0134
546.3129	0.0068
546.5081	-0.0083
546.7034	-0.0092
546.8986	-0.0121
547.0938	-0.0029
547.289	-0.0011
547.4841	-0.0043
547.6793	0.0128
547.8744	-0.0059
548.0695	-0.0066
548.2646	-0.0081
548.4597	0.0072
548.6548	0.0028
548.8498	0.0015
549.0448	-0.0012
549.2399	0.0014
549.4349	0.011
549.6298	-0.0004
549.8248	0.004
550.0198	-0.0121
550.2147	-0.0084
550.4096	-0.0057
550.6045	0.0019
550.7994	-0.0021
550.9943	0.0016
551.1892	-0.0022
551.384	-0.0017
551.5788	-0.0154
551.7737	-0.0027
551.9685	0.003
552.1632	0.0064
552.358	-0.0054
552.5528	0.0005
552.7475	-0.0037
552.9422	-0.0041
553.1369	-0.0011
553.3316	0.0022
553.5263	-0.0064
553.7209	0.0088
553.9156	-0.0093
554.1102	-0.006
554.3048	-0.0004
554.4994	0.0029
554.694	0.0007
554.8885	0.0111
555.0831	-0.0067
555.2776	-0.0088
555.4721	-0.0055
555.6666	-0.0065
555.8611	0.0029
556.0555	-0.0008
556.25	-0.0031
556.4444	-0.0155
556.6388	0.0006
556.8332	-0.0015
557.0276	0.0021
557.222	-0.0033
557.4163	-0.0036
557.6107	-0.0121
557.805	0.0056
557.9993	-0.0041
558.1936	0.0002
558.3879	-0.0016
558.5821	0.0019
558.7764	-0.0193
558.9706	-0.0012
559.1648	0.0031
559.359	-0.0027
559.5532	-0.0083
559.7473	0.0026
559.9415	0.0034
560.1356	0.0036
560.3297	-0.006
560.5238	-0.0131
560.7179	-0.0022
560.9119	-0.0051
561.106	-0.0055
561.3	-0.0075
561.494	-0.0029
561.688	-0.0062
561.882	-0.0138
562.076	-0.0126
562.2699	0.0057
562.4639	-0.0006
562.6578	-0.0013
562.8517	0.0036
563.0456	0.0035
563.2395	0.0042
563.4333	0.0039
563.6272	0.007
563.821	0.0045
564.0148	0.0027
564.2086	-0.0137
564.4024	-0.0037
564.5961	-0.006
564.7899	0.0004
564.9836	0.0009
565.1773	-0.0012
565.371	0.0037
565.5647	0.0078
565.7584	0.0142
565.952	0.0051
566.1456	0.0011
566.3393	-0.0025
566.5329	-0.0039
566.7264	0.0016
566.92	-0.0008
567.1136	0.0015
567.3071	-0.0101
567.5006	-0.0057
567.6941	0.0021
567.8876	-0.0004
568.0811	-0.0072
568.2745	0.0016
568.468	0.0112
568.6614	0.0043
568.8548	0.0043
569.0482	-0.0008
569.2416	-0.0016
569.4349	0.0024
569.6283	0.0072
569.8216	-0.0027
570.0149	-0.0043
570.2082	0.0007
570.4015	0.0032
570.5947	0.0074
570.788	0.0012
570.9812	0.0065
571.1744	-0.0034
571.3676	-0.011
571.5608	-0.0044
571.754	-0.0006
571.9471	-0.0009
572.1402	0.0007
572.3333	-0.004
572.5264	-0.004
572.7195	-0.0009
572.9126	-0.0074
573.1057	-0.0065
573.2987	0.0008
573.4917	0.0014
573.6847	-0.0118
573.8777	-0
574.0707	-0.0029
574.2636	-0.0072
574.4566	0.0002
574.6495	-0.0064
574.8424	-0.0046
575.0353	-0.0027
575.2281	0.0037
575.421	-0.0004
575.6138	0.0064
575.8067	-0.0003
575.9995	0.0048
576.1923	-0.004
576.385	-0.0001
576.5778	-0.0037
576.7706	-0.002
576.9633	0.0008
577.156	0.0045
577.3487	-0.0001
577.5414	-0.0064
577.734	0.0004
577.9267	0.0007
578.1193	-0.0176
578.3119	-0.0119
578.5045	-0.0095
578.6971	-0.0013
578.8897	0.0007
579.0822	-0.004
579.2747	0.0025
579.4673	-0.0034
579.6598	-0.005
579.8522	-0.0084
580.0447	-0.0046
580.2372	-0.0031
580.4296	0.0008
580.622	-0.0029
580.8144	-0.004
581.0068	-0.0062
581.1992	-0.0127
581.3915	-0.0071
581.5839	-0.0075
581.7762	-0.0064
581.9685	-0.0012
582.1608	0.0028
582.353	-0.0046
582.5453	0.0013
582.7375	-0.0025
582.9298	-0.0035
583.122	-0.0022
583.3142	-0.0019
583.5063	-0.0052
583.6985	-0.0057
583.8906	-0.007
584.0827	-0.005
584.2749	0.0052
584.4669	0.0014
584.659	-0.0009
584.8511	-0.0015
585.0431	-0.0136
585.2352	-0.0015
585.4272	-0.0051
585.6192	0.0024
585.8111	-0.0027
586.0031	-0.0015
586.195	-0.0009
586.387	0.0004
586.5789	0.0002
586.7708	-0.0008
586.9627	0.0043
587.1545	-0.0004
587.3464	0.0053
587.5382	0.005
587.73	-0.0022
587.9218	0.0078
588.1136	-0.0045
588.3053	-0.0022
588.4971	-0.0041
588.6888	-0.0109
588.8805	-0.0033
589.0722	0.0024
589.2639	0.0027
589.4556	-0.0068
589.6472	0.0012
589.8389	-0.0088
590.0305	-0.0124
590.2221	-0.0029
590.4137	-0.0083
590.6052	0.0035
590.7968	0.002
590.9883	-0.0001
591.1798	0.0051
591.3713	0.0027
591.5628	0.0028
591.7543	0.0029
591.9458	0.0012
592.1372	0.0035
592.3286	0.0068
592.52	0.0074
592.7114	0.0008
592.9028	-0.0025
593.0941	-0.0051
593.2855	0.0035
593.4768	-0.0133
593.6681	-0.01
593.8594	-0.0035
594.0506	-0.0096
594.2419	0.0003
594.4331	-0.0012
594.6244	0.0011
594.8156	-0.0054
595.0067	0.001
595.1979	-0.002
595.3891	0.0027
595.5802	-0.0012
595.7713	0.0014
595.9624	0.0006
596.1535	0.0077
596.3446	0.0023
596.5357	0.0025
596.7267	0.0132
596.9177	0.001
597.1087	-0.0055
597.2997	-0.0042
597.4907	0.0025
597.6817	-0.0024
597.8726	0.0007
598.0635	-0.006
598.2544	0.005
598.4453	-0.0011
598.6362	-0
598.827	0.003
599.0179	0.0034
599.2087	0.0066
599.3995	-0.0013
599.5903	0.004
599.7811	0.008
599.9718	-0.0005
600.1626	-0.0002
600.3533	-0.0077
600.544	0.0009
600.7347	-0.0003
600.9254	0.008
601.116	-0.0098
601.3067	0.0031
601.4973	0.0017
601.6879	0.0066
601.8785	-0.0017
602.0691	0.0037
602.2596	0.004
602.4502	0.0082
602.6407	0.0118
602.8312	0.003
603.0217	-0.0013
603.2122	0.0062
603.4027	0.0026
603.5931	0.003
603.7835	-0.0023
603.9739	-0.0063
604.1643	-0.0002
604.3547	-0.0066
604.5451	0.0013
604.7354	0.0031
604.9257	0.0023
605.116	0.0015
605.3063	0.0053
605.4966	0.0043
605.6869	0.0054
605.8771	0.0041
606.0673	-0.0011
606.2575	0.003
606.4477	0.0088
606.6379	0.0007
606.8281	-0.0008
607.0182	-0.0017
607.2083	0.0073
607.3985	-0.0004
607.5885	0.0009
607.7786	0.0051
607.9687	-0.0106
608.1587	0.0026
608.3488	0.0055
608.5388	-0.0003
608.7288	0.0041
608.9187	-0.0017
609.1087	-0.0078
609.2986	-0.0042
609.4886	0.0005
609.6785	-0.0021
609.8684	0.0037
610.0582	-0.0011
610.2481	0.0045
610.4379	-0.0054
610.6278	-0.0045
610.8176	-0.0026
611.0074	-0.0042
611.1971	-0.012
611.3869	-0.0004
611.5766	-0.0087
611.7664	0.0051
611.9561	0.0078
612.1458	0.0014
612.3354	-0.0094
612.5251	0.0013
612.7147	0.0128
612.9044	0.0029
613.094	-0.0046
613.2836	0.0049
613.4731	-0.0046
613.6627	-0.0083
613.8522	0.0029
614.0417	0.0046
614.2313	0.0018
614.4207	-0.0031
614.6102	0.0031
614.7997	-0.0031
614.9891	-0.0004
615.1785	0.0023
615.3679	-0.0066
615.5573	0.0041
615.7467	-0.0057
615.9361	-0.0041
616.1254	0.0016
616.3147	0.0001
616.504	0.006
616.6933	0.0004
616.8826	0.0056
617.0718	0.0006
617.2611	0.0047
617.4503	0
617.6395	-0.0008
617.8287	-0.0054
618.0179	-0.0006
618.207	0.0011
618.3961	0.0044
618.5853	-0.0099
618.7744	0.0003
618.9634	0.0032
619.1525	0.0083
619.3416	0.0062
619.5306	-0.0016
619.7196	0.0047
619.9086	-0.0001
620.0976	0.0001
620.2866	-0.0039
620.4755	0.0029
620.6645	0.0074
620.8534	0.0027
621.0423	0.007
621.2312	0.0015
621.42	-0.0012
621.6089	-0.0029
621.7977	0.0054
621.9865	-0.0054
622.1753	-0.0001
622.3641	-0.0013
622.5529	0.002
622.7416	0.0012
622.9303	-0.0033
623.1191	-0.0006
623.3078	-0.0064
623.4964	0.0019
623.6851	-0.0029
623.8737	-0
624.0624	0.0071
624.251	-0.0063
624.4396	-0.0032
624.6282	-0.0054
624.8167	0.0029
625.0053	0.0026
625.1938	0.0048
625.3823	0.0027
625.5708	0.0062
625.7593	0.0026
625.9477	-0.0034
626.1362	-0.0023
626.3246	0.0015
626.513	0.0074
626.7014	0.0091
626.8898	-0.0003
627.0781	0.007
627.2665	0.0008
627.4548	0.0087
627.6431	-0.0005
627.8314	0.007
628.0197	0.0108
628.2079	-0.0069
628.3962	-0.0022
628.5844	0.001
628.7726	0.0055
628.9608	0.0051
629.1489	0.0058
629.3371	0.0098
629.5252	-0.0072
629.7134	0.0078
629.9015	0.0043
630.0895	-0.0023
630.2776	0.0016
630.4657	-0.0015
630.6537	0
630.8417	0.0045
631.0297	-0.0032
631.2177	-0.0003
631.4057	-0.0044
631.5936	0.005
631.7815	0.0034
631.9695	0.0013
632.1574	0.007
632.3452	0.0116
632.5331	0.0057
632.7209	-0.0022
632.9088	0.0102
633.0966	0.0092
633.2844	0.0038
633.4722	0.0008
633.6599	0.0138
633.8477	0.0054
634.0354	0.0063
634.2231	0.0009
634.4108	0.0084
634.5985	0.0121
634.7861	-0.0037
634.9738	0.0009
635.1614	0.0053
635.349	-0.0002
635.5366	-0.0031
635.7242	-0.0032
635.9117	0.0048
636.0993	0.0033
636.2868	0.0029
636.4743	-0.0034
636.6618	0.0094
636.8492	0.0072
637.0367	-0.0048
637.2241	-0.0041
637.4115	-0.0014
637.5989	-0.0046
637.7863	0.0002
637.9737	-0.0054
638.161	-0.0015
638.3484	-0.001
638.5357	0.0011
638.723	0.0039
638.9103	0.0014
639.0975	0.0047
639.2848	0.0039
639.472	-0.0009
639.6592	0.0019
639.8464	0.0109
640.0336	0.0066
640.2208	-0.0041
640.4079	0.0042
640.595	0.0033
640.7821	0.0034
640.9692	0.0033
641.1563	0.0057
641.3434	0.0057
641.5304	-0.0004
641.7174	0.0044
641.9044	-0.0006
642.0914	0.001
642.2784	0.0053
642.4653	0.0072
642.6523	0.0001
642.8392	0.0101
643.0261	0.006
643.213	0.008
643.3999	0.0088
643.5867	0.0022
643.7735	0.0016
643.9604	-0.0088
644.1472	0.0079
644.3339	0.0098
644.5207	-0.004
644.7075	0.0007
644.8942	0.0056
645.0809	0.0138
645.2676	0.0056
645.4543	0.0064
645.6409	0.001
645.8276	0.0038
646.0142	0.0065
646.2008	0.0009
646.3874	-0.0001
646.574	0.0004
646.7605	0.0015
646.9471	-0.0046
647.1336	0.0003
647.3201	0.0047
647.5066	-0.0072
647.6931	0.0063
647.8795	0.0001
648.0659	0.0107
648.2524	0.0084
648.4388	-0.0025
648.6252	-0.0007
648.8115	-0.0026
648.9979	-0.0038
649.1842	-0.0003
649.3705	0.007
649.5568	0.0043
649.7431	0.0055
649.9294	0.0013
650.1156	0.0079
650.3018	-0.0071
650.488	0.0028
650.6742	-0.0013
650.8604	0
651.0466	0.0038
651.2327	0.0044
651.4188	0.0029
651.6049	-0.0008
651.791	0.0054
651.9771	0.0089
652.1632	0.0072
652.3492	0.0029
652.5352	0.0042
652.7212	0.0023
652.9072	0.013
653.0932	0.006
653.2791	-0.005
653.465	0.0005
653.651	-0.0037
653.8369	0.0041
654.0227	0.0026
654.2086	0.0066
654.3944	0.0089
654.5803	0.0043
654.7661	-0.0047
654.9519	0.0029
655.1377	-0.0038
655.3234	-0.0065
655.5092	-0.0049
655.6949	-0.0014
655.8806	-0.0148
656.0663	-0.0026
656.2519	-0.0033
656.4376	-0.0011
656.6232	0.0033
656.8088	0.0007
656.9945	0.003
657.18	0.0054
657.3656	0.0078
657.5511	-0.0056
657.7367	-0.005
657.9222	0.0027
658.1077	0.001
658.2932	0.0042
658.4786	0.0018
658.6641	0.0054
658.8495	0.0016
659.0349	0.0082
659.2203	0.0035
659.4057	0.0083
659.591	-0.0023
659.7764	0.0049
659.9617	0.0135
660.147	0.0093
660.3323	0.0093
660.5176	0.0131
660.7028	0.0127
660.888	0.0088
661.0733	0.0063
661.2585	-0.0004
661.4436	0.0013
661.6288	-0.0016
661.8139	0.0074
661.9991	0.0062
662.1842	0.0005
662.3693	0.0024
662.5544	0.0005
662.7394	0.0078
662.9245	-0.0016
663.1095	0.0016
663.2945	0.0009
663.4795	-0.0099
663.6644	0.0019
663.8494	0.0004
664.0343	0.002
664.2193	-0.0065
664.4042	-0.0013
664.589	-0.0075
664.7739	-0.0039
664.9587	-0.0049
665.1436	-0.0029
665.3284	0.0021
665.5132	-0.0082
665.698	-0.0012
665.8827	0.0016
666.0675	0.0052
666.2522	0.0036
666.4369	0.0036
666.6216	0.0103
666.8063	0.0036
666.9909	0.0027
667.1756	0.0052
667.3602	0.001
667.5448	-0.0022
667.7294	0.0093
667.9139	0.0001
668.0985	0.0174
668.283	0.0008
668.4675	-0.0033
668.652	0.004
668.8365	0.0008
669.0209	0.004
669.2054	0.0125
669.3898	-0.0016
669.5742	-0.0014
669.7586	0.0075
669.943	0.0078
670.1273	0.0078
670.3117	0.0079
670.496	0.0146
670.6803	0.0131
670.8646	0.0121
671.0488	-0.0004
671.2331	0.0113
671.4173	0.0068
671.6015	0.0042
671.7857	0.0038
671.9699	0.0073
672.1541	0.0117
672.3382	0.0076
672.5223	0.0096
672.7064	0.0075
672.8905	0.0133
673.0746	0.0078
673.2587	0.0037
673.4427	0.0016
673.6267	0.0085
673.8107	0.0134
673.9947	0.0064
674.1787	0.0032
674.3626	0.004
674.5465	0.0087
674.7304	0.0053
674.9143	0.0094
675.0982	0.0072
675.2821	-0.002
675.4659	0.0104
675.6497	0.0096
675.8335	0.0063
676.0173	0.005
676.2011	0.0043
676.3849	0.0021
676.5686	-0.002
676.7523	0.0032
676.936	-0.0057
677.1197	-0.0038
677.3034	0.0009
677.487	0.006
677.6706	0.0095
677.8542	0.0045
678.0378	0.0055
678.2214	0.0011
678.405	0.0017
678.5885	-0.004
678.772	0.0085
678.9555	0.0005
679.139	0.0061
679.3225	0.0063
679.5059	0.0003
679.6894	0.0079
679.8728	0.0023
680.0562	-0.0073
680.2395	0.0019
680.4229	0.005
680.6062	0.0058
680.7896	0.0094
680.9729	-0.0019
681.1562	-0.0007
681.3394	0.0057
681.5227	-0.0109
681.7059	-0.003
681.8891	0.0005
682.0723	0.0055
682.2555	0.0091
682.4387	0.0014
682.6218	0.005
682.805	0.0081
682.9881	0.0027
683.1712	0.002
683.3542	0.0045
683.5373	0.0056
683.7203	-0.0032
683.9034	0.0026
684.0864	-0.0048
684.2694	0.0008
684.4523	0.0058
684.6353	-0.0002
684.8182	0.0061
685.0011	0.0022
685.184	0.0062
685.3669	0.0079
685.5498	0.0092
685.7326	0.0065
685.9154	0.0006
686.0982	0.015
686.281	0.0128
686.4638	0.0021
686.6465	0.0037
686.8293	-0.004
687.012	0.0043
687.1947	-0.002
687.3774	0.0001
687.56	-0.0017
687.7427	0.0037
687.9253	-0.0019
688.1079	-0.0003
688.2905	0.008
688.4731	0.0025
688.6556	-0.0072
688.8382	0.001
689.0207	0.0004
689.2032	-0.0009
689.3857	0.0005
689.5681	0.0069
689.7506	0
689.933	-0.0007
690.1154	0.0007
690.2978	-0.0048
690.4802	-0.0034
690.6626	-0.0016
690.8449	-0.004
691.0272	0.0052
691.2095	-0.0062
691.3918	-0.0012
691.5741	0.006
691.7563	-0.0022
691.9386	0.0022
692.1208	-0.0027
692.303	0.0032
692.4852	0.001
692.6673	0.0033
692.8495	-0.0012
693.0316	0.0053
693.2137	0.0089
693.3958	0.0053
693.5778	-0.0002
693.7599	0.0047
693.9419	0.0077
694.1239	-0.003
694.3059	0.0006
694.4879	0.0039
694.6699	0.0093
694.8518	0.0063
695.0337	0.0018
695.2157	0.0038
695.3975	0.0017
695.5794	0.0031
695.7613	0.0032
695.9431	-0.0047
696.1249	0.0031
696.3067	-0.0007
696.4885	0.0078
696.6703	-0.0062
696.852	0.0032
697.0337	0.0015
697.2154	-0.0001
697.3971	0.0068
697.5788	-0.0028
697.7605	-0.0002
697.9421	0.0094
698.1237	-0.0036
698.3053	0.0052
698.4869	-0.0049
698.6685	-0.0105
698.85	0.0012
699.0315	0.0054
699.213	-0.0004
699.3945	0.0071
699.576	0.0076
699.7575	0.0011
699.9389	0.0132
700.1203	-0.0039
700.3017	-0.011
700.4831	-0.0069
700.6645	0.0035
700.8458	0.0009
701.0271	-0.0087
701.2084	0.0007
701.3897	-0.0037
701.571	-0.0005
701.7523	-0.0068
701.9335	0.0031
702.1147	0.0028
702.2959	0.0005
702.4771	0.0011
702.6583	0.0017
702.8394	-0.0044
703.0205	0.0064
703.2016	-0.0049
703.3827	0.002
703.5638	0.009
703.7449	0.0016
703.9259	0.0095
704.1069	-0.0041
704.2879	0.0021
704.4689	0.0063
704.6499	-0.0022
704.8308	0.0015
705.0117	0.004
705.1927	0.004
705.3735	0.0055
705.5544	-0.0064
705.7353	0.0038
705.9161	-0.0049
706.0969	-0.0121
706.2777	0
706.4585	-0.0001
706.6393	0.0012
706.82	0.0028
707.0007	-0.0023
707.1815	0.0013
707.3621	0.0078
707.5428	0.0012
707.7235	-0.0032
707.9041	0.0068
708.0847	-0.0007
708.2653	0.0037
708.4459	-0.0104
708.6265	0.0046
708.807	0.0057
708.9875	0.0036
709.168	0.0006
709.3485	0.002
709.529	-0.004
709.7095	-0.0059
709.8899	0.0052
710.0703	-0.0077
710.2507	0.0028
710.4311	-0.0025
710.6115	-0.0082
710.7918	0.0013
710.9721	-0.0063
711.1524	-0.0072
711.3327	0.0006
711.513	0.0054
711.6932	0.0057
711.8735	0.0095
712.0537	-0.0024
712.2339	-0.0017
712.4141	0.0009
712.5942	-0.0026
712.7744	-0.0028
712.9545	-0.0038
713.1346	-0.0028
713.3147	0.0042
713.4947	-0.0025
713.6748	0.0015
713.8548	0.0008
714.0348	0.0012
714.2148	-0.0048
714.3948	0.014
714.5748	-0.0011
714.7547	0.0018
714.9346	0.009
715.1145	-0.0019
715.2944	-0.0027
715.4743	0.0078
715.6541	0.0004
715.834	0.0085
716.0138	0.0082
716.1936	-0.0008
716.3733	0.0019
716.5531	0.016
716.7328	-0.0004
716.9126	-0.0019
717.0923	0.0052
717.2719	0.0067
717.4516	-0.0018
717.6312	0.0039
717.8109	-0.0019
717.9905	0.0038
718.1701	-0.001
718.3496	-0.0019
718.5292	0.0009
718.7087	0.0018
718.8882	0.0038
719.0677	0.0066
719.2472	0.0007
719.4267	0.0022
719.6061	0.0042
719.7856	0.0122
719.965	0.0094
720.1443	0.0027
720.3237	0.0118
720.5031	0.0127
720.6824	0.0116
720.8617	0.0014
721.041	0.003
721.2203	0.0039
721.3995	0.0031
721.5788	0.0109
721.758	0.0099
721.9372	0.0008
722.1164	0.0044
722.2956	0.0037
722.4747	-0.0034
722.6538	-0.0014
722.8329	0.016
723.012	0.0047
723.1911	-0.0019
723.3702	0.0024
723.5492	-0.0028
723.7282	-0.0084
723.9072	-0.0004
724.0862	-0.0107
724.2652	-0.0063
724.4441	-0.0028
724.623	0.01
724.8019	0.0068
724.9808	0.0024
725.1597	-0.0073
725.3385	0.0128
725.5174	-0.0004
725.6962	-0.0014
725.875	0.0006
726.0538	0.0192
726.2325	0.0109
726.4112	0.0066
726.59	0.0004
726.7687	-0.001
726.9474	0.0121
727.126	0.0061
727.3047	0.003
727.4833	-0.003
727.6619	-0.003
727.8405	-0.0025
728.0191	-0.0074
728.1976	0.0015
728.3762	-0.0091
728.5547	0.0003
728.7332	-0.0113
728.9116	0.0012
729.0901	0.0068
729.2686	-0.0068
729.447	0.0012
729.6254	0.0049
729.8038	-0.0066
729.9821	-0.0069
730.1605	-0.0027
730.3388	-0
730.5171	-0.0004
730.6954	-0.01
730.8737	0.0024
731.0519	0.0114
731.2302	0.0007
731.4084	0.0054
731.5866	0.0038
731.7648	-0.0038
731.9429	0.0029
732.1211	-0.0049
732.2992	0.0008
732.4773	-0.0008
732.6554	0.003
732.8335	0.0073
733.0115	0.0029
733.1896	0.0194
733.3676	0.0017
733.5456	0.0039
733.7235	0.0078
733.9015	-0.0029
734.0794	-0.0017
734.2574	0.0022
734.4353	0.0017
734.6131	0.0025
734.791	-0.0009
734.9689	-0.0029
735.1467	-0.0011
735.3245	-0.0068
735.5023	0.0003
735.68	0.0068
735.8578	0.0023
736.0355	-0.02
736.2132	-0.0062
736.3909	0.0011
736.5686	-0.0084
736.7463	0.0022
736.9239	-0.0026
737.1015	-0.0001
737.2791	0.0019
737.4567	-0.0066
737.6343	-0.0115
737.8118	-0.0047
737.9894	-0.0014
738.1669	-0.0086
738.3444	-0.0085
738.5218	0.0002
738.6993	-0.009
738.8767	0.0012
739.0541	0.0086
739.2315	-0.0068
739.4089	0.0042
739.5863	0.0064
739.7636	-0.0048
739.9409	0.0066
740.1182	0.0083
740.2955	0.0106
740.4728	0.0052
740.65	-0.0022
740.8272	0.0022
741.0044	0.002
741.1816	0.0007
741.3588	-0.0065
741.5359	0.0018
741.7131	-0.0094
741.8902	0.0009
742.0673	-0.0005
742.2444	-0.0063
742.4214	-0.0053
742.5985	-0.0036
742.7755	0.0002
742.9525	-0.0177
743.1295	-0.0049
743.3064	-0.0003
743.4834	0.0041
743.6603	0.0023
743.8372	-0.0028
744.0141	0.0119
744.191	0.0088
744.3678	-0.0006
744.5446	0.0009
744.7215	0.0046
744.8982	-0.0036
745.075	-0.0051
745.2518	0.0052
745.4285	-0.0003
745.6052	-0.0081
745.7819	-0.0013
745.9586	-0.003
746.1353	0.0024
746.3119	-0.0103
746.4885	0.0005
746.6651	-0.0085
746.8417	0.0064
747.0183	-0
747.1948	-0.0062
747.3714	0.0098
747.5479	0.0039
747.7244	-0.0043
747.9008	0.0055
748.0773	0.0093
748.2537	0.0008
748.4301	-0.0027
748.6065	0.0137
748.7829	0.0048
748.9593	0.0029
749.1356	-0.0016
749.3119	0.0135
749.4882	-0.0082
749.6645	0.0025
749.8408	-0.0007
750.017	-0.003
750.1933	-0.0025
750.3695	-0.0063
750.5457	0.0029
750.7218	-0.0071
750.898	0.0046
751.0741	-0.0051
751.2502	-0.0072
751.4263	-0.0006
751.6024	-0.0026
751.7784	-0.0041
751.9545	-0.0022
752.1305	-0.0023
752.3065	-0.0021
752.4825	0.0016
752.6584	-0.005
752.8344	-0.0014
753.0103	-0.0077
753.1862	-0.0038
753.3621	-0.0054
753.5379	-0.0087
753.7138	0.0046
753.8896	0
754.0654	-0
754.2412	0.0087
754.417	-0.0052
754.5927	-0.0081
754.7685	0.002
754.9442	-0.0066
755.1199	0.0109
755.2956	-0.0105
755.4712	-0.0012
755.6469	0.0025
755.8225	-0.0042
755.9981	-0.0061
756.1736	0.0037
756.3492	0.003
756.5248	-0.0081
756.7003	-0.0024
756.8758	0.0022
757.0513	-0.0166
757.2267	-0.0033
757.4022	0.0041
757.5776	-0.0125
757.753	0.0018
757.9284	0.0032
758.1038	0.0099
758.2791	0.0036
758.4545	-0.0073
758.6298	0.0083
758.8051	0.0074
758.9803	0.002
759.1556	0.0015
759.3308	-0.0006
759.506	0.0079
759.6812	0.0042
759.8564	0.0084
760.0316	0.0084
760.2067	0.0124
760.3819	0.0062
760.557	0.0112
760.732	0.0034
760.9071	-0.0077
761.0821	-0.0025
761.2572	0.006
761.4322	-0.004
761.6072	0.0038
761.7821	0.0021
761.9571	0.0072
762.132	-0.0002
762.3069	-0.0079
762.4818	-0.006
762.6567	-0.0012
762.8316	0.001
763.0064	-0.0091
763.1812	-0.0064
763.356	-0.0128
763.5308	-0.0001
763.7055	-0.0034
763.8803	-0.0031
764.055	-0.004
764.2297	-0.0091
764.4044	-0.0068
764.579	-0.0219
764.7537	-0.014
764.9283	-0.0027
765.1029	-0.0144
765.2775	-0.0011
765.4521	0.0001
765.6266	-0.0157
765.8011	-0.0045
765.9756	-0.0055
766.1501	0.004
766.3246	-0.0118
766.4991	0.0001
766.6735	0.0031
766.8479	-0.0061
767.0223	0.0125
767.1967	-0.0019
767.371	-0.0014
767.5454	-0.0043
767.7197	0.0008
767.894	-0.0055
768.0683	-0.0148
768.2425	0.0012
768.4168	-0.0046
768.591	-0.0049
768.7652	-0.0004
768.9394	-0.0002
769.1135	-0.0003
769.2877	0.006
769.4618	0.0008
769.6359	-0.0033
769.81	0.0002
769.984	-0.0045
770.1581	-0.0018
770.3321	-0.0064
770.5061	-0.0064
770.6801	-0.0094
770.8541	-0.0023
771.028	0.0032
771.202	-0.0109
771.3759	0.0118
771.5498	-0.0033
771.7236	0.0055
771.8975	-0.0101
772.0713	0.0119
772.2451	0.0083
772.4189	0.0091
772.5927	0.0147
772.7665	0.0005
772.9402	-0.0009
773.1139	0.0077
773.2876	-0.0049
773.4613	0.0122
773.635	0.013
773.8086	-0.0035
773.9822	0.0078
774.1558	0.0036
774.3294	-0.024
774.503	0.0094
774.6765	0.0047
774.8501	0.0005
775.0236	0.0104
775.1971	0.0144
775.3705	-0.0038
775.544	-0.0002
775.7174	0.0012
775.8908	-0.0073
776.0642	-0.0143
776.2376	0.0003
776.4109	-0.0011
776.5843	-0.0087
776.7576	0.0061
776.9309	-0.002
777.1041	0.0076
777.2774	0.0081
777.4506	-0.0028
777.6238	-0.0059
777.797	-0.0068
777.9702	-0.0091
778.1434	-0.0117
778.3165	-0.0015
778.4896	-0.0143
778.6627	0.0047
778.8358	0.0016
779.0089	-0.0046
779.1819	0.0044
779.3549	0.0248
779.5279	0.0156
779.7009	0.0075
779.8739	0.0021
780.0468	0.0088
780.2197	0.0146
780.3926	0.0051
780.5655	-0.003
780.7384	0.005
780.9112	-0.0007
781.0841	0.0057
781.2569	0.0087
781.4297	0.0049
781.6024	0.0123
781.7752	0.0069
781.9479	0.0112
782.1206	0.0005
782.2933	-0.0133
782.466	0.0047
782.6386	0.0009
782.8113	0.0147
782.9839	0.0166
783.1565	0.0149
783.329	-0.0055
783.5016	0.0084
783.6741	0.0112
783.8466	0.0026
784.0191	0.0098
784.1916	0.0067
784.3641	0.0029
784.5365	0.0079
784.7089	-0.001
784.8813	-0.0054
785.0537	-0.007
785.2261	0.0068
785.3984	-0.0107
785.5707	-0.0019
785.743	0.0025
785.9153	-0.0055
786.0876	0.0065
786.2598	-0.0129
786.432	-0.021
786.6042	-0.0037
786.7764	0.0002
786.9486	0.0052
787.1207	-0.0068
787.2928	-0.0005
787.4649	0.0047
787.637	0.0072
787.8091	0.0002
787.9811	-0.0113
788.1532	-0.0162
788.3252	0.0019
788.4972	0.0055
788.6691	-0.0046
788.8411	-0.0023
789.013	-0.0073
789.1849	-0.0019
789.3568	-0.0011
789.5287	0.0037
789.7005	-0.0002
789.8723	-0.0141
790.0442	0.0161
790.2159	0.006
790.3877	0.0072
790.5595	-0.0204
790.7312	0.0029
790.9029	-0.0003
791.0746	-0.0162
791.2463	-0.004
791.4179	-0.0045
791.5896	-0.0128
791.7612	0.001
791.9328	0.0021
792.1044	-0.0075
792.2759	-0.0213
792.4474	-0.0068
792.619	0.0007
792.7905	0.0008
792.9619	0.0015
793.1334	0.0068
793.3048	0.0088
793.4762	0.0124
793.6476	0.0109
793.819	-0.0052
793.9904	0.0145
794.1617	-0.0133
794.333	-0.0009
794.5043	-0.003
794.6756	-0.0029
794.8469	-0.0087
795.0181	0.001
795.1893	-0.0247
795.3605	0.0074
795.5317	-0.0147
795.7029	-0.0013
795.874	0.0001
796.0452	-0.0054
796.2163	-0.0129
796.3873	0.0138
796.5584	-0.0074
796.7294	-0.0096
796.9005	-0.0062
797.0715	0.0069
797.2425	-0.0297
797.4134	-0.0165
797.5844	-0.0048
797.7553	-0.0218
797.9262	0.0001
798.0971	-0.0106
798.2679	-0.0264
798.4388	-0.03
798.6096	-0.0151
798.7804	-0.0092
798.9512	-0.0193
799.122	-0.0082
799.2927	0.0004
799.4635	0.003
799.6342	-0.0151
799.8049	-0.0069
799.9755	-0.0208
800.1462	-0.0063
800.3168	-0.0049
800.4874	-0.0013
800.658	0.0171
800.8286	-0.0071
800.9991	0.0051
801.1696	-0.0023
801.3402	-0.0009
801.5106	-0.0092
801.6811	0.0048
801.8516	0.0033
802.022	-0.0136
802.1924	0.0155
802.3628	0.0137
802.5332	0.0036
802.7035	0.0073
802.8739	-0.0157
803.0442	-0.0129
803.2145	0.012
803.3847	-0.0247
803.555	-0.0031
803.7252	-0.0241
803.8954	-0.0348
804.0656	-0.0176
804.2358	-0.0322
804.4059	-0.0242
804.5761	0.0014
804.7462	0.0036
804.9163	-0.0064
805.0864	-0.0148
805.2564	-0.0006
805.4264	-0.0037
805.5965	-0.0243
805.7665	-0.0099
805.9364	-0.0024
806.1064	-0.0026
806.2763	0.0035
806.4462	0.0079
806.6161	-0.0006
806.786	0.0078
806.9559	-0.0004
807.1257	-0.0059
807.2955	-0.0073
807.4653	-0.0038
807.6351	-0.0116
807.8048	-0.0085
807.9746	-0.0004
808.1443	-0.0161
808.314	-0.0141
808.4837	-0.0104
808.6533	-0.0061
808.8229	0.016
808.9926	-0.0039
809.1622	-0.0061
809.3317	-0.0135
809.5013	0.0013
809.6708	-0.0098
809.8403	0.0006
810.0098	-0.0144
810.1793	0.0085
810.3488	-0.0246
810.5182	-0.0214
810.6876	-0.0049
810.857	-0.0125
811.0264	0.0033
811.1958	-0.0091
811.3651	0.0051
811.5344	0.0057
811.7037	-0.0103
811.873	-0.014
812.0422	0.0022
812.2115	0.0023
812.3807	-0.0059
812.5499	0.0041
812.7191	-0.0015
812.8882	-0.0092
813.0574	-0.0222
813.2265	-0.0058
813.3956	0.0012
813.5646	-0.0057
813.7337	-0.028
813.9027	-0.0034
814.0718	0.0294
814.2407	0.0009
814.4097	-0.0032
814.5787	-0.0281
814.7476	0.0168
814.9165	0.0032
815.0854	-0.0139
815.2543	-0.0087
815.4232	-0.0002
815.592	0.0004
815.7608	0.0176
815.9296	0.0208
816.0984	0.0063
816.2671	0.0055
816.4359	-0.0044
816.6046	0.0017
816.7733	-0.0038
816.942	-0.0126
817.1106	-0.0094
817.2793	-0.0113
817.4479	-0.0188
817.6165	0.0094
817.785	-0.016
817.9536	-0.0235
818.1221	-0.0044
818.2906	0.0017
818.4591	-0.0241
818.6276	-0.0411
818.7961	-0.0113
818.9645	0.0115
819.1329	-0.0242
819.3013	0.0302
819.4697	0.0284
819.638	-0.0229
819.8064	-0.013
819.9747	0.0054
820.143	-0.026
820.3113	-0.0398
820.4795	-0.0116
820.6477	0.0053
820.816	-0.0276
820.9842	-0.0137
821.1523	-0.0002
821.3205	-0.0217
821.4886	-0.0042
821.6567	-0.0084
821.8248	0.0117
821.9929	-0.0006
822.1609	-0.0032
822.329	0.0394
822.497	0.0177
822.665	0.0208
822.833	0.0095
823.0009	0.0069
823.1688	0.0269
823.3367	0.0233
823.5046	0.0001
823.6725	0.0251
823.8404	0.0174
824.0082	0.0197
824.176	0.0286
824.3438	0.011
824.5116	-0.0114
824.6793	-0.0039
824.847	-0.0236
825.0147	0.0019
825.1824	0.0308
825.3501	0.0138
825.5177	-0.0065
825.6854	-0.0318
825.853	0.018
826.0206	-0.0049
826.1881	0.0019
826.3557	-0.0087
826.5232	0.0134
826.6907	-0.0244
826.8582	-0.03
827.0257	-0.0404
827.1931	0.0172
827.3605	-0.0079
827.528	-0.0351
827.6953	-0.0262
827.8627	0.0006
828.03	0.0297
828.1974	-0.0128
828.3647	-0.0283
828.532	-0.0252
828.6992	-0.0354
828.8665	-0.0107
829.0337	-0.0431
829.2009	-0.0068
829.3681	-0.0304
829.5352	0.0006
829.7024	-0.0403
829.8695	-0.0374
830.0366	0.0088
830.2037	-0.0331
830.3707	0.0016
830.5378	-0.0252
830.7048	-0.0025
830.8718	-0.0442
831.0388	-0.0537
831.2057	-0.0155
831.3727	-0.0029
831.5396	-0.042
831.7065	-0.0083
831.8734	0.015
832.0402	-0.0434
832.2071	-0.0433
832.3739	-0.0322
832.5407	0.0068
832.7075	-0.0205
832.8742	-0.0225
833.041	-0.038
833.2077	-0.0106
833.3744	-0.001
833.541	-0.0284
833.7077	-0.0346
833.8743	-0.0101
834.0409	0.0241
834.2075	-0.0292
834.3741	-0.0387
834.5407	-0.0185
834.7072	0.0144
834.8737	-0.018
835.0402	-0.0252
835.2067	0.0046
835.3731	-0.0011
835.5395	-0.0161
835.706	0.0174
835.8723	0.0231
836.0387	-0.0105
836.2051	-0.0128
836.3714	-0.0106
836.5377	0.0093
836.704	-0.067
836.8703	-0.0388
837.0365	0.0313
837.2027	-0.0175
837.3689	0.0135
837.5351	0.004
837.7013	-0.0372
837.8674	-0.0342
838.0335	-0.064
838.1997	-0.0304
838.3657	-0.011
838.5318	-0.0232
838.6978	0.041
838.8639	0.0123
839.0299	0.0206
839.1958	0.0146
839.3618	-0.0231
839.5277	-0.0421
839.6937	-0.0038
839.8596	0.0039
840.0254	-0.0362
840.1913	-0.0047
840.3571	-0.0032
840.523	-0.0729
840.6888	-0.0313
840.8545	-0.0462
841.0203	-0.0177
841.186	0.0046
841.3517	-0.0266
841.5174	-0.0374
841.6831	-0.057
841.8488	-0.0015
842.0144	-0.0061
842.18	0.0083
842.3456	0.0175
842.5112	-0.0136
842.6767	-0.0254
842.8422	-0.0154
843.0077	0.0076
843.1732	-0.0704
843.3387	-0.0041
843.5042	-0.0656
843.6696	-0.0196
843.835	-0.0486
844.0004	0.0131
844.1657	0.0177
844.3311	-0.0577
844.4964	-0.0515
844.6617	-0.0844
844.827	-0.0255
844.9923	-0.0421
845.1575	-0.0437
845.3227	0.0278
845.4879	-0.0173
845.6531	-0.07
845.8183	-0.0411
845.9834	-0.0155
846.1485	-0.0061
846.3136	-0.0133
846.4787	-0.121
846.6438	0.0483
846.8088	-0.0716
846.9738	-0.0692
847.1388	-0.036
847.3038	-0.0344
847.4687	-0.1865
847.6337	0.0043
847.7986	0.0098
847.9635	-0.0068
848.1284	0.0316
848.2932	-0.0206
848.458	-0.0322
848.6228	0.0631
848.7876	0.1049
848.9524	-0.0766
849.1172	-0.0821
849.2819	0.0161
849.4466	-0.0982
849.6113	-0.1265
849.7759	0.0427
849.9406	-0.0587
850.1052	0.0296
850.2698	0.0552
850.4344	0.0376
850.599	-0.1197
850.7635	0.1085
850.928	-0.1238
851.0925	0.0494
851.257	-0.0351
851.4215	-0.0055
851.5859	-0.0058
851.7503	0.0036
851.9147	0.0384
852.0791	-0.1084
852.2434	-0.0269
852.4078	0.0227
852.5721	0.0238
852.7364	-0.0654
852.9007	-0.1331
853.0649	-0.0598
853.2291	-0.0305
853.3934	-0.0261
853.5575	0.0517
853.7217	-0.0233
853.8859	-0.1722
854.05	-0.0044
854.2141	-0.109
854.3782	-0.1469
854.5423	-0.0575
854.7063	0.1074
854.8703	0.0179
855.0343	-0.1334
855.1983	-0.1822
855.3623	0.2317
855.5262	-0.0073
855.6901	-0.0873
855.854	0.0677
856.0179	0.0944
856.1818	-0.0077
856.3456	-0.0821
856.5094	-0.0282
856.6732	-0.1147
856.837	0.2198
857.0008	0.0987
857.1645	-0.1225
857.3282	0.0074
857.4919	0.0591
857.6556	0.1577
857.8192	-0.0054
857.9828	0.1524
858.1465	-0.0934
858.31	-0.0793
858.4736	0.0265
858.6372	-0.2059
858.8007	-0.2432
858.9642	0.0763
859.1277	-0.1203
859.2911	0.251
859.4546	0.059
859.618	-0.4373
859.7814	-0.1006
859.9448	-0.0779
860.1081	-0.0339
860.2715	0.0796
860.4348	-0.1314
860.5981	0.0847
860.7614	0.1486
860.9246	-0.1791
861.0879	-0.0055
861.2511	-0.062
861.4143	-0.0742
861.5774	0.0826
861.7406	-0.1102
861.9037	0.2263
862.0668	-0.2498
862.2299	0.1088
862.393	-0.643
862.556	0.0605
862.7191	-0.0616
862.8821	-0.0062
863.0451	-0.0919
863.208	0.2336
863.371	-0.0246
863.5339	0.1695
863.6968	0.0431
863.8597	-0.1245
864.0225	-0.0643
864.1854	0.1285
864.3482	0.0163
864.511	0.1052
864.6737	-0.0108
864.8365	-0.0977
864.9992	-0.5199
865.1619	-0.5275
865.3246	0.0845
865.4873	0.1612
865.65	0.0912
865.8126	-0.1439
865.9752	0.1271
866.1378	-0.1304
866.3004	0.3854
866.4629	0.3662
866.6254	-0.0089
866.7879	0.2261
866.9504	0.2886
867.1129	-0
867.2753	0.0625
867.4377	0.019
867.6001	-0.3281
867.7625	0.1618
867.9249	-0.6043
868.0872	-0.0306
868.2495	0.2473
868.4118	-0.4244
868.5741	-0.5946
868.7363	-0.3047
868.8986	-0.1358
869.0608	-0.1122
869.223	0.084
869.3851	-0
869.5473	0.5491
869.7094	0.1963
869.8715	1.1644
870.0336	-0
870.1957	-0.219
870.3577	-0
870.5197	-0.1794
870.6817	0.6414
870.8437	-0.2267
871.0057	-0.0894
871.1676	-0
871.3295	-0.3186
871.4914	-0
871.6533	-0.447
871.8151	-0.4975
871.977	-0
872.1388	-0
872.3006	-0
872.4623	-0
872.6241	-0
872.7858	-0
872.9475	-0.0455
873.1092	0.7278
873.2709	-0.2953
873.4325	-0.0649
873.5941	-0.53
873.7557	-0
873.9173	-0
874.0789	-0.5939
874.2404	-0.8334
874.4019	0.7157
874.5634	-0
874.7249	0.3762
874.8863	-0.0587
875.0478	-0.13
875.2092	-0
875.3706	-0.0161
875.5319	-0.7155
875.6933	-0
875.8546	-0.1125
876.0159	0.4421
876.1772	0.2006
876.3385	-0
876.4997	0.2205
876.6609	0.0785
876.8221	0.1794
876.9833	0.1894
877.1445	-0
877.3056	0.8716
877.4667	-0
877.6278	-0.2695
877.7889	-0.8074
877.9499	-0
878.111	-0
878.272	-0.9454
878.433	-0.0945
878.5939	0.577
878.7549	-0
878.9158	-0.0527
879.0767	-0
879.2376	-0
879.3984	-0
879.5593	-0
879.7201	0.2609
879.8809	-0.6143
880.0417	-0.4509
880.2024	-0.3102
880.3632	-0
880.5239	0.2081
880.6846	0.699
880.8452	-1.0414
881.0059	-0
881.1665	0.2717
881.3271	0.0665
881.4877	-0
881.6483	0.4352
881.8088	-0.2286
881.9693	0.194
882.1298	0.194
882.2903	0.194
