Data from MonoPyChalIsomerACN10uM420nmA_Absorbance_15-09-55-934.txt Node
Date: Fri Jul 05 15:09:55 BST 2024
User: LASERRRRR
Spectrometer: FLMT03099
Trigger mode: 0
Integration Time (sec): 1.000000E-1
Scans to average: 1
Electric dark correction enabled: true
Nonlinearity correction enabled: false
Boxcar width: 0
XAxis mode: Wavelengths
Number of Pixels in Spectrum: 3648
>>>>>Begin Spectral Data<<<<<
179.3399	0.0987
179.5586	0.0987
179.7771	0.0987
179.9957	1.7088
180.2143	-0
180.4329	-0.1484
180.6514	-0
180.8699	-0
181.0885	-0.1003
181.307	0.6347
181.5255	-0
181.744	-0
181.9625	-0
182.181	-1.1178
182.3994	-0
182.6179	-0
182.8363	-0.1747
183.0547	-0.2942
183.2732	0.1026
183.4916	0.3444
183.71	0.1353
183.9284	0.273
184.1467	-0.2733
184.3651	-0.1654
184.5835	-0.1153
184.8018	0.1227
185.0201	0.1837
185.2385	-0.0539
185.4568	0.1624
185.6751	0.0473
185.8934	0.5716
186.1117	0.0066
186.3299	0.0371
186.5482	0.1785
186.7664	-0.1454
186.9847	-0.1094
187.2029	-0.0105
187.4211	0.0494
187.6393	0.2388
187.8575	-0.0464
188.0757	0.24
188.2939	-0.0138
188.512	0.0487
188.7302	0.0891
188.9483	0.7396
189.1665	0.0943
189.3846	-0
189.6027	0.2235
189.8208	0.1819
190.0389	0.1676
190.257	0.1298
190.475	0.1601
190.6931	0.3254
190.9111	0.3744
191.1292	0.2727
191.3472	0.5013
191.5652	0.2624
191.7832	0.1683
192.0012	0.7689
192.2192	0.2574
192.4371	0.5868
192.6551	0.381
192.873	0.3045
193.091	0.442
193.3089	0.6506
193.5268	0.3237
193.7447	0.4948
193.9626	0.4126
194.1805	0.3924
194.3984	0.6439
194.6162	0.6351
194.8341	0.5667
195.0519	0.4929
195.2697	0.9042
195.4875	0.6361
195.7054	0.501
195.9231	0.5292
196.1409	0.6228
196.3587	0.455
196.5765	0.5562
196.7942	0.5237
197.012	0.4556
197.2297	0.6696
197.4474	0.628
197.6651	0.4816
197.8828	0.63
198.1005	0.552
198.3182	0.4856
198.5358	0.8055
198.7535	0.6079
198.9711	0.4777
199.1888	0.5309
199.4064	0.6648
199.624	0.6442
199.8416	0.5424
200.0592	0.673
200.2767	0.6863
200.4943	0.6345
200.7119	0.687
200.9294	0.7332
201.1469	0.5332
201.3645	0.6488
201.582	0.5392
201.7995	0.6722
202.017	0.6792
202.2344	0.5989
202.4519	0.8296
202.6694	0.5418
202.8868	0.554
203.1042	0.7273
203.3217	0.7134
203.5391	0.6321
203.7565	0.5812
203.9739	0.6053
204.1913	0.5741
204.4086	0.6581
204.626	0.6184
204.8433	0.6163
205.0607	0.5888
205.278	0.71
205.4953	0.631
205.7126	0.6009
205.9299	0.7355
206.1472	0.7236
206.3644	0.6819
206.5817	0.7521
206.7989	0.7651
207.0162	0.6508
207.2334	0.8411
207.4506	0.6351
207.6678	0.6539
207.885	0.6656
208.1022	0.693
208.3194	0.7086
208.5365	0.611
208.7537	0.7311
208.9708	0.5864
209.1879	0.6446
209.405	0.8217
209.6222	0.6805
209.8392	0.5981
210.0563	0.6241
210.2734	0.5915
210.4905	0.6245
210.7075	0.6174
210.9245	0.6176
211.1416	0.7152
211.3586	0.6791
211.5756	0.5739
211.7926	0.6291
212.0096	0.568
212.2265	0.5807
212.4435	0.5863
212.6604	0.5689
212.8774	0.5621
213.0943	0.5865
213.3112	0.5796
213.5281	0.5691
213.745	0.5032
213.9619	0.501
214.1788	0.4712
214.3956	0.4498
214.6125	0.4903
214.8293	0.4755
215.0461	0.4323
215.2629	0.4384
215.4798	0.4739
215.6965	0.4178
215.9133	0.4337
216.1301	0.3971
216.3469	0.4357
216.5636	0.4508
216.7803	0.4044
216.9971	0.4081
217.2138	0.3607
217.4305	0.3684
217.6472	0.356
217.8639	0.3489
218.0805	0.4001
218.2972	0.3349
218.5138	0.3167
218.7305	0.3305
218.9471	0.3063
219.1637	0.2829
219.3803	0.2824
219.5969	0.2884
219.8135	0.2605
220.0301	0.297
220.2466	0.2779
220.4632	0.2492
220.6797	0.2178
220.8962	0.2518
221.1127	0.2485
221.3292	0.2456
221.5457	0.2338
221.7622	0.2236
221.9787	0.2488
222.1951	0.2248
222.4116	0.281
222.628	0.2548
222.8444	0.2498
223.0608	0.2415
223.2772	0.2484
223.4936	0.256
223.71	0.2562
223.9264	0.2607
224.1427	0.2556
224.3591	0.2329
224.5754	0.2701
224.7917	0.2712
225.008	0.2345
225.2243	0.2555
225.4406	0.2843
225.6569	0.2578
225.8732	0.264
226.0894	0.2735
226.3057	0.2653
226.5219	0.2682
226.7381	0.2742
226.9543	0.2902
227.1705	0.2759
227.3867	0.2711
227.6029	0.2878
227.8191	0.2914
228.0352	0.286
228.2513	0.3141
228.4675	0.3138
228.6836	0.2881
228.8997	0.2926
229.1158	0.2989
229.3319	0.2943
229.548	0.309
229.764	0.3184
229.9801	0.3301
230.1961	0.3124
230.4121	0.334
230.6282	0.3372
230.8442	0.305
231.0602	0.3496
231.2761	0.3477
231.4921	0.3551
231.7081	0.3497
231.924	0.3549
232.14	0.3518
232.3559	0.3428
232.5718	0.3417
232.7877	0.3543
233.0036	0.3484
233.2195	0.3582
233.4353	0.3476
233.6512	0.367
233.867	0.3687
234.0829	0.3618
234.2987	0.3543
234.5145	0.3739
234.7303	0.3534
234.9461	0.3938
235.1619	0.372
235.3776	0.3787
235.5934	0.3865
235.8091	0.3694
236.0249	0.4027
236.2406	0.4003
236.4563	0.38
236.672	0.387
236.8877	0.3808
237.1034	0.3871
237.319	0.3869
237.5347	0.4029
237.7503	0.3999
237.966	0.4031
238.1816	0.3943
238.3972	0.4119
238.6128	0.3877
238.8284	0.4048
239.0439	0.4078
239.2595	0.3891
239.475	0.4309
239.6906	0.3986
239.9061	0.4036
240.1216	0.3934
240.3371	0.4137
240.5526	0.3968
240.7681	0.41
240.9836	0.4027
241.199	0.4027
241.4145	0.3928
241.6299	0.3966
241.8453	0.3987
242.0607	0.3905
242.2761	0.3798
242.4915	0.3793
242.7069	0.3793
242.9223	0.3735
243.1376	0.3823
243.353	0.3767
243.5683	0.3744
243.7836	0.3638
243.9989	0.3619
244.2142	0.3331
244.4295	0.3355
244.6448	0.3406
244.86	0.3151
245.0753	0.3186
245.2905	0.3055
245.5057	0.3037
245.721	0.306
245.9362	0.2837
246.1514	0.2865
246.3665	0.285
246.5817	0.2837
246.7969	0.2685
247.012	0.2729
247.2271	0.2488
247.4423	0.2657
247.6574	0.257
247.8725	0.2598
248.0876	0.2495
248.3026	0.2417
248.5177	0.2394
248.7328	0.2395
248.9478	0.2213
249.1628	0.2168
249.3779	0.2293
249.5929	0.2184
249.8079	0.2424
250.0228	0.2073
250.2378	0.2234
250.4528	0.2135
250.6677	0.1968
250.8827	0.2128
251.0976	0.2115
251.3125	0.1993
251.5274	0.1927
251.7423	0.188
251.9572	0.2196
252.172	0.1922
252.3869	0.2015
252.6017	0.1963
252.8166	0.1768
253.0314	0.1679
253.2462	0.182
253.461	0.1972
253.6758	0.171
253.8906	0.1832
254.1053	0.182
254.3201	0.1814
254.5348	0.1927
254.7496	0.1816
254.9643	0.1818
255.179	0.183
255.3937	0.1748
255.6083	0.1823
255.823	0.1776
256.0377	0.177
256.2523	0.1745
256.467	0.1568
256.6816	0.1849
256.8962	0.1749
257.1108	0.158
257.3254	0.1823
257.54	0.1635
257.7545	0.1711
257.9691	0.18
258.1836	0.1625
258.3981	0.1799
258.6127	0.1771
258.8272	0.1708
259.0417	0.1731
259.2561	0.1661
259.4706	0.1775
259.6851	0.1729
259.8995	0.17
260.114	0.1713
260.3284	0.172
260.5428	0.1753
260.7572	0.1754
260.9716	0.1808
261.186	0.1639
261.4003	0.176
261.6147	0.1855
261.829	0.1761
262.0433	0.179
262.2577	0.1589
262.472	0.1728
262.6863	0.1685
262.9005	0.1669
263.1148	0.1708
263.3291	0.1637
263.5433	0.172
263.7576	0.1654
263.9718	0.1701
264.186	0.1688
264.4002	0.1602
264.6144	0.176
264.8286	0.1783
265.0427	0.171
265.2569	0.1689
265.471	0.1735
265.6851	0.17
265.8993	0.1788
266.1134	0.1658
266.3275	0.1723
266.5415	0.16
266.7556	0.1858
266.9697	0.1699
267.1837	0.1773
267.3978	0.1722
267.6118	0.1772
267.8258	0.1863
268.0398	0.1634
268.2538	0.1778
268.4677	0.1701
268.6817	0.1655
268.8957	0.174
269.1096	0.1775
269.3235	0.177
269.5374	0.1871
269.7514	0.1749
269.9652	0.1626
270.1791	0.1681
270.393	0.1738
270.6068	0.1762
270.8207	0.1763
271.0345	0.1654
271.2483	0.1703
271.4622	0.1632
271.676	0.1697
271.8897	0.1587
272.1035	0.1635
272.3173	0.1582
272.531	0.1591
272.7448	0.1569
272.9585	0.154
273.1722	0.1667
273.3859	0.1782
273.5996	0.1526
273.8133	0.1581
274.0269	0.1641
274.2406	0.1614
274.4542	0.161
274.6679	0.1632
274.8815	0.1614
275.0951	0.1634
275.3087	0.1718
275.5223	0.1746
275.7358	0.1755
275.9494	0.1701
276.1629	0.1616
276.3765	0.1665
276.59	0.1741
276.8035	0.1727
277.017	0.1656
277.2305	0.1725
277.444	0.1791
277.6574	0.1607
277.8709	0.1631
278.0843	0.1684
278.2978	0.1724
278.5112	0.1737
278.7246	0.1726
278.938	0.1704
279.1513	0.1773
279.3647	0.1791
279.5781	0.1668
279.7914	0.1663
280.0047	0.1891
280.2181	0.1811
280.4314	0.1699
280.6447	0.1778
280.8579	0.1722
281.0712	0.1783
281.2845	0.1763
281.4977	0.1688
281.711	0.1595
281.9242	0.1736
282.1374	0.1786
282.3506	0.1718
282.5638	0.1716
282.7769	0.1807
282.9901	0.1701
283.2033	0.1835
283.4164	0.1849
283.6295	0.1676
283.8426	0.1594
284.0557	0.1642
284.2688	0.1756
284.4819	0.1702
284.695	0.1663
284.908	0.1739
285.1211	0.166
285.3341	0.1756
285.5471	0.1772
285.7601	0.1605
285.9731	0.1625
286.1861	0.1553
286.3991	0.1678
286.612	0.1709
286.825	0.1605
287.0379	0.1649
287.2508	0.1662
287.4637	0.1608
287.6766	0.1493
287.8895	0.1683
288.1024	0.1791
288.3152	0.1597
288.5281	0.1392
288.7409	0.1605
288.9538	0.1575
289.1666	0.1545
289.3794	0.1623
289.5922	0.1546
289.8049	0.1618
290.0177	0.1491
290.2304	0.1536
290.4432	0.1477
290.6559	0.1626
290.8686	0.1595
291.0813	0.1687
291.294	0.1603
291.5067	0.1655
291.7194	0.1606
291.932	0.1728
292.1447	0.1494
292.3573	0.1404
292.5699	0.1653
292.7825	0.1617
292.9951	0.154
293.2077	0.1597
293.4203	0.1568
293.6328	0.1332
293.8454	0.1613
294.0579	0.1546
294.2704	0.1467
294.4829	0.1375
294.6954	0.1621
294.9079	0.1557
295.1204	0.1542
295.3328	0.1463
295.5453	0.1497
295.7577	0.1575
295.9701	0.1389
296.1825	0.1566
296.3949	0.1472
296.6073	0.1444
296.8197	0.1474
297.0321	0.1629
297.2444	0.1279
297.4567	0.1501
297.6691	0.148
297.8814	0.1465
298.0937	0.1351
298.306	0.1495
298.5182	0.1562
298.7305	0.1586
298.9428	0.1472
299.155	0.1555
299.3672	0.1522
299.5794	0.1444
299.7916	0.1482
300.0038	0.1433
300.216	0.1532
300.4282	0.1594
300.6403	0.1528
300.8525	0.1603
301.0646	0.139
301.2767	0.1499
301.4888	0.1409
301.7009	0.1559
301.913	0.1408
302.125	0.1574
302.3371	0.1498
302.5491	0.1458
302.7612	0.1504
302.9732	0.1505
303.1852	0.1588
303.3972	0.1499
303.6092	0.1437
303.8211	0.1436
304.0331	0.146
304.245	0.1363
304.457	0.1448
304.6689	0.14
304.8808	0.1545
305.0927	0.1392
305.3046	0.138
305.5164	0.1442
305.7283	0.148
305.9401	0.1351
306.152	0.1379
306.3638	0.1425
306.5756	0.1382
306.7874	0.1426
306.9992	0.1447
307.2109	0.1348
307.4227	0.1224
307.6344	0.1358
307.8462	0.1227
308.0579	0.1236
308.2696	0.1285
308.4813	0.1244
308.693	0.1396
308.9046	0.1403
309.1163	0.1268
309.328	0.1254
309.5396	0.1192
309.7512	0.1296
309.9628	0.1107
310.1744	0.1262
310.386	0.1186
310.5976	0.1235
310.8091	0.1228
311.0207	0.1118
311.2322	0.1376
311.4437	0.1297
311.6552	0.1186
311.8667	0.1263
312.0782	0.1015
312.2897	0.1034
312.5012	0.1163
312.7126	0.1114
312.924	0.1046
313.1355	0.1198
313.3469	0.1104
313.5583	0.119
313.7696	0.1118
313.981	0.1204
314.1924	0.1161
314.4037	0.1083
314.6151	0.1121
314.8264	0.0995
315.0377	0.1063
315.249	0.0981
315.4603	0.1228
315.6716	0.1214
315.8828	0.1057
316.0941	0.1169
316.3053	0.1102
316.5165	0.1033
316.7277	0.0997
316.9389	0.1091
317.1501	0.1066
317.3613	0.1279
317.5724	0.094
317.7836	0.1107
317.9947	0.1066
318.2058	0.1187
318.417	0.0976
318.6281	0.1075
318.8391	0.1094
319.0502	0.1216
319.2613	0.1087
319.4723	0.1223
319.6834	0.1278
319.8944	0.1032
320.1054	0.111
320.3164	0.1118
320.5274	0.1045
320.7383	0.1152
320.9493	0.1135
321.1602	0.136
321.3712	0.1014
321.5821	0.1157
321.793	0.1149
322.0039	0.1188
322.2148	0.1133
322.4257	0.1088
322.6365	0.124
322.8474	0.1164
323.0582	0.1097
323.269	0.1111
323.4798	0.1295
323.6906	0.1232
323.9014	0.1172
324.1122	0.1233
324.3229	0.1147
324.5337	0.1182
324.7444	0.1062
324.9551	0.1308
325.1658	0.1274
325.3765	0.1289
325.5872	0.1176
325.7979	0.1179
326.0085	0.1111
326.2192	0.1259
326.4298	0.1189
326.6404	0.1262
326.851	0.1068
327.0616	0.1187
327.2722	0.12
327.4828	0.1354
327.6933	0.1121
327.9039	0.1246
328.1144	0.1324
328.3249	0.1296
328.5354	0.126
328.7459	0.1165
328.9564	0.1206
329.1669	0.1178
329.3773	0.1184
329.5878	0.1289
329.7982	0.1071
330.0086	0.1226
330.219	0.1223
330.4294	0.124
330.6398	0.1226
330.8502	0.1111
331.0605	0.1279
331.2708	0.1112
331.4812	0.1198
331.6915	0.1229
331.9018	0.116
332.1121	0.1203
332.3224	0.1147
332.5326	0.1263
332.7429	0.1341
332.9531	0.1355
333.1633	0.1322
333.3735	0.1172
333.5837	0.1156
333.7939	0.1208
334.0041	0.1279
334.2143	0.1376
334.4244	0.1261
334.6346	0.1122
334.8447	0.1371
335.0548	0.1143
335.2649	0.1226
335.475	0.1257
335.685	0.1211
335.8951	0.1299
336.1051	0.1195
336.3152	0.1388
336.5252	0.1221
336.7352	0.1312
336.9452	0.1213
337.1552	0.1313
337.3652	0.122
337.5751	0.125
337.7851	0.138
337.995	0.1153
338.2049	0.1364
338.4148	0.1238
338.6247	0.1385
338.8346	0.1237
339.0445	0.1154
339.2543	0.1308
339.4642	0.1334
339.674	0.1179
339.8838	0.1373
340.0936	0.1333
340.3034	0.1357
340.5132	0.1285
340.7229	0.1336
340.9327	0.1292
341.1424	0.1303
341.3522	0.1438
341.5619	0.1302
341.7716	0.138
341.9813	0.1415
342.1909	0.1226
342.4006	0.1425
342.6102	0.1508
342.8199	0.1445
343.0295	0.1491
343.2391	0.1514
343.4487	0.1382
343.6583	0.1396
343.8679	0.1385
344.0774	0.143
344.287	0.145
344.4965	0.1335
344.706	0.1546
344.9155	0.1448
345.125	0.1484
345.3345	0.135
345.544	0.1311
345.7534	0.1404
345.9629	0.1367
346.1723	0.141
346.3817	0.1391
346.5911	0.1324
346.8005	0.1326
347.0099	0.15
347.2193	0.1519
347.4286	0.1363
347.638	0.1403
347.8473	0.1503
348.0566	0.147
348.2659	0.1488
348.4752	0.1459
348.6845	0.1419
348.8937	0.1429
349.103	0.1577
349.3122	0.1367
349.5214	0.1325
349.7306	0.1554
349.9398	0.1427
350.149	0.1466
350.3582	0.1392
350.5674	0.1614
350.7765	0.1499
350.9856	0.1528
351.1948	0.1488
351.4039	0.1448
351.613	0.1411
351.822	0.1601
352.0311	0.1534
352.2402	0.1516
352.4492	0.1533
352.6582	0.1592
352.8672	0.1443
353.0762	0.145
353.2852	0.1524
353.4942	0.1419
353.7032	0.1624
353.9121	0.1732
354.1211	0.1513
354.33	0.1615
354.5389	0.1612
354.7478	0.1569
354.9567	0.156
355.1655	0.1454
355.3744	0.1546
355.5833	0.1601
355.7921	0.1736
356.0009	0.153
356.2097	0.1594
356.4185	0.1633
356.6273	0.1586
356.8361	0.1706
357.0448	0.1547
357.2536	0.1571
357.4623	0.1576
357.671	0.1654
357.8797	0.1621
358.0884	0.1572
358.2971	0.16
358.5057	0.1693
358.7144	0.1746
358.923	0.1811
359.1316	0.1637
359.3402	0.1618
359.5488	0.1725
359.7574	0.1694
359.966	0.1748
360.1746	0.1679
360.3831	0.1652
360.5916	0.1652
360.8002	0.1566
361.0087	0.1807
361.2172	0.1729
361.4256	0.1602
361.6341	0.1913
361.8426	0.1746
362.051	0.1764
362.2594	0.1657
362.4678	0.1802
362.6762	0.1845
362.8846	0.1733
363.093	0.1772
363.3014	0.1755
363.5097	0.1744
363.718	0.1751
363.9264	0.1797
364.1347	0.1753
364.343	0.206
364.5513	0.1853
364.7595	0.1858
364.9678	0.1842
365.176	0.1806
365.3842	0.1808
365.5925	0.1765
365.8007	0.1854
366.0089	0.1915
366.217	0.1749
366.4252	0.1912
366.6333	0.1935
366.8415	0.1786
367.0496	0.1854
367.2577	0.1987
367.4658	0.1875
367.6739	0.1914
367.882	0.2007
368.09	0.1745
368.2981	0.1764
368.5061	0.1833
368.7141	0.1939
368.9221	0.1929
369.1301	0.1814
369.3381	0.1921
369.5461	0.1821
369.754	0.1922
369.962	0.1875
370.1699	0.1899
370.3778	0.198
370.5857	0.1762
370.7936	0.1959
371.0015	0.1901
371.2093	0.1946
371.4172	0.2122
371.625	0.1886
371.8328	0.1971
372.0406	0.2004
372.2484	0.1725
372.4562	0.1913
372.664	0.1964
372.8717	0.2175
373.0795	0.1695
373.2872	0.198
373.4949	0.1923
373.7026	0.2016
373.9103	0.194
374.118	0.2013
374.3256	0.2033
374.5333	0.1883
374.7409	0.1914
374.9485	0.1985
375.1561	0.1896
375.3637	0.2046
375.5713	0.2029
375.7789	0.1883
375.9864	0.206
376.194	0.1951
376.4015	0.2114
376.609	0.204
376.8165	0.2018
377.024	0.195
377.2315	0.1852
377.4389	0.2081
377.6464	0.2048
377.8538	0.2008
378.0612	0.2041
378.2686	0.1968
378.476	0.2291
378.6834	0.2029
378.8908	0.2107
379.0981	0.2064
379.3055	0.2149
379.5128	0.2099
379.7201	0.2072
379.9274	0.1961
380.1347	0.2062
380.342	0.2249
380.5492	0.2103
380.7565	0.197
380.9637	0.2179
381.1709	0.2027
381.3781	0.2029
381.5853	0.2104
381.7925	0.2176
381.9997	0.2076
382.2068	0.2222
382.4139	0.2138
382.6211	0.1975
382.8282	0.1953
383.0353	0.2029
383.2424	0.1983
383.4494	0.2287
383.6565	0.2069
383.8635	0.2087
384.0706	0.1942
384.2776	0.2096
384.4846	0.1964
384.6916	0.2152
384.8986	0.2018
385.1055	0.2107
385.3125	0.2178
385.5194	0.1953
385.7263	0.221
385.9333	0.1988
386.1402	0.195
386.347	0.189
386.5539	0.2087
386.7608	0.2137
386.9676	0.1897
387.1744	0.2064
387.3813	0.1908
387.5881	0.197
387.7948	0.2049
388.0016	0.2025
388.2084	0.1968
388.4151	0.1963
388.6219	0.2082
388.8286	0.2013
389.0353	0.2143
389.242	0.2031
389.4487	0.194
389.6553	0.189
389.862	0.1847
390.0686	0.1706
390.2753	0.1898
390.4819	0.1968
390.6885	0.1857
390.8951	0.1946
391.1016	0.1946
391.3082	0.1847
391.5147	0.192
391.7213	0.1885
391.9278	0.1695
392.1343	0.1776
392.3408	0.1851
392.5473	0.1838
392.7537	0.1753
392.9602	0.1874
393.1666	0.1864
393.373	0.1785
393.5794	0.1812
393.7858	0.1886
393.9922	0.1723
394.1986	0.1854
394.4049	0.1809
394.6113	0.1756
394.8176	0.1563
395.0239	0.176
395.2302	0.1645
395.4365	0.1652
395.6428	0.1684
395.8491	0.1748
396.0553	0.1716
396.2615	0.1741
396.4678	0.1675
396.674	0.1611
396.8802	0.1647
397.0863	0.1934
397.2925	0.1786
397.4987	0.1695
397.7048	0.1628
397.9109	0.1631
398.117	0.1516
398.3231	0.17
398.5292	0.1821
398.7353	0.1785
398.9413	0.1498
399.1474	0.1607
399.3534	0.167
399.5594	0.1645
399.7654	0.181
399.9714	0.17
400.1774	0.15
400.3833	0.1622
400.5893	0.1677
400.7952	0.1723
401.0011	0.1687
401.207	0.172
401.4129	0.1777
401.6188	0.1724
401.8247	0.1604
402.0305	0.1522
402.2364	0.1644
402.4422	0.1804
402.648	0.1664
402.8538	0.1647
403.0596	0.1722
403.2654	0.1659
403.4711	0.1704
403.6768	0.1697
403.8826	0.1665
404.0883	0.18
404.294	0.1649
404.4997	0.1508
404.7054	0.1532
404.911	0.1545
405.1167	0.1617
405.3223	0.158
405.5279	0.1727
405.7335	0.1541
405.9391	0.1789
406.1447	0.1671
406.3502	0.1786
406.5558	0.163
406.7613	0.1749
406.9668	0.1628
407.1724	0.1594
407.3778	0.1567
407.5833	0.1566
407.7888	0.1524
407.9942	0.1726
408.1997	0.1634
408.4051	0.1553
408.6105	0.1513
408.8159	0.1491
409.0213	0.1566
409.2267	0.1869
409.432	0.1537
409.6374	0.1704
409.8427	0.1417
410.048	0.1781
410.2533	0.154
410.4586	0.1603
410.6639	0.1557
410.8691	0.1473
411.0744	0.1513
411.2796	0.1412
411.4848	0.1679
411.69	0.1588
411.8952	0.1744
412.1004	0.1538
412.3056	0.165
412.5107	0.1368
412.7158	0.1668
412.921	0.1459
413.1261	0.1501
413.3312	0.1425
413.5362	0.1543
413.7413	0.1489
413.9464	0.1667
414.1514	0.1575
414.3564	0.1485
414.5614	0.1441
414.7664	0.1453
414.9714	0.1565
415.1764	0.1531
415.3813	0.1704
415.5863	0.153
415.7912	0.165
415.9961	0.1635
416.201	0.1547
416.4059	0.1642
416.6108	0.1547
416.8156	0.1546
417.0205	0.145
417.2253	0.1437
417.4301	0.1703
417.6349	0.1408
417.8397	0.1396
418.0445	0.159
418.2492	0.1347
418.454	0.1515
418.6587	0.1387
418.8634	0.1533
419.0681	0.1274
419.2728	0.134
419.4775	0.1419
419.6822	0.1346
419.8868	0.138
420.0915	0.1323
420.2961	0.1254
420.5007	0.1429
420.7053	0.1274
420.9099	0.1406
421.1144	0.1597
421.319	0.1319
421.5235	0.1416
421.728	0.151
421.9325	0.1471
422.137	0.1378
422.3415	0.1377
422.546	0.1373
422.7504	0.1354
422.9549	0.1431
423.1593	0.144
423.3637	0.1517
423.5681	0.1408
423.7725	0.1224
423.9769	0.1309
424.1812	0.1203
424.3856	0.1222
424.5899	0.128
424.7942	0.1241
424.9985	0.1465
425.2028	0.1186
425.4071	0.154
425.6113	0.1195
425.8156	0.1318
426.0198	0.1314
426.224	0.1199
426.4282	0.1199
426.6324	0.1156
426.8366	0.125
427.0407	0.121
427.2449	0.1172
427.449	0.1221
427.6531	0.1093
427.8572	0.1124
428.0613	0.1287
428.2654	0.1214
428.4694	0.1112
428.6735	0.1076
428.8775	0.1211
429.0815	0.1277
429.2855	0.1013
429.4895	0.1143
429.6935	0.1122
429.8975	0.1093
430.1014	0.1117
430.3053	0.1032
430.5093	0.104
430.7132	0.0897
430.9171	0.0982
431.1209	0.124
431.3248	0.0892
431.5286	0.1107
431.7325	0.097
431.9363	0.0883
432.1401	0.1027
432.3439	0.0963
432.5477	0.0876
432.7514	0.0865
432.9552	0.0899
433.1589	0.0979
433.3627	0.0834
433.5664	0.0884
433.7701	0.082
433.9737	0.0708
434.1774	0.0814
434.3811	0.0728
434.5847	0.0926
434.7883	0.0823
434.9919	0.073
435.1955	0.0847
435.3991	0.0866
435.6027	0.0862
435.8062	0.0745
436.0098	0.0607
436.2133	0.0656
436.4168	0.0759
436.6203	0.0737
436.8238	0.0758
437.0272	0.0656
437.2307	0.0655
437.4341	0.0655
437.6375	0.0766
437.841	0.0602
438.0443	0.0817
438.2477	0.0767
438.4511	0.049
438.6545	0.0756
438.8578	0.0652
439.0611	0.0543
439.2644	0.0572
439.4677	0.0563
439.671	0.0615
439.8743	0.053
440.0775	0.0616
440.2808	0.0593
440.484	0.0486
440.6872	0.0268
440.8904	0.0493
441.0936	0.0601
441.2967	0.0586
441.4999	0.0589
441.703	0.0526
441.9062	0.0382
442.1093	0.0469
442.3124	0.0433
442.5155	0.0383
442.7185	0.0335
442.9216	0.0289
443.1246	0.0636
443.3276	0.0383
443.5307	0.0441
443.7337	0.0467
443.9366	0.0478
444.1396	0.0352
444.3426	0.0509
444.5455	0.0504
444.7484	0.0424
444.9513	0.0426
445.1542	0.0469
445.3571	0.0354
445.56	0.0428
445.7628	0.0249
445.9657	0.0287
446.1685	0.0503
446.3713	0.0322
446.5741	0.0306
446.7769	0.0321
446.9797	0.0224
447.1824	0.0458
447.3852	0.0353
447.5879	0.0381
447.7906	0.0457
447.9933	0.0461
448.196	0.0083
448.3986	0.0153
448.6013	0.0179
448.8039	0.0056
449.0066	0.0017
449.2092	0.0311
449.4118	0.0272
449.6143	0.0188
449.8169	0.0306
450.0195	0.0147
450.222	0.0009
450.4245	0.0169
450.627	0.0296
450.8295	0.0193
451.032	0.0154
451.2345	0.0134
451.4369	0.0188
451.6394	0.0237
451.8418	0.0019
452.0442	0.0134
452.2466	0.0273
452.449	-0.0026
452.6513	0.0256
452.8537	0.0132
453.056	-0.0022
453.2583	0.0162
453.4607	0.006
453.663	0.0075
453.8652	0.006
454.0675	0.0034
454.2697	0.018
454.472	-0.0047
454.6742	0.0197
454.8764	0.0114
455.0786	0.018
455.2808	0.0073
455.4829	0.0177
455.6851	0.0014
455.8872	0.0062
456.0893	0.0216
456.2915	0.0028
456.4935	0.0361
456.6956	0.0057
456.8977	-0.0033
457.0997	0.0013
457.3018	-0.0056
457.5038	0.0228
457.7058	-0.0047
457.9078	-0.005
458.1098	0.0183
458.3117	-0.0007
458.5137	0.0056
458.7156	0.0147
458.9175	-0.0073
459.1194	0.008
459.3213	0.0104
459.5232	0.0059
459.725	-0.0259
459.9269	-0.0022
460.1287	-0.0052
460.3305	0.002
460.5323	-0.0062
460.7341	-0.0072
460.9359	-0.0079
461.1376	-0.0021
461.3394	-0.0093
461.5411	0.0121
461.7428	-0.003
461.9445	0.0059
462.1462	0.0139
462.3479	-0.0094
462.5495	0.0029
462.7512	0.0001
462.9528	0.0074
463.1544	-0.016
463.356	0.0036
463.5576	-0.0048
463.7592	-0.0069
463.9607	0.0011
464.1623	0.0172
464.3638	0.0026
464.5653	-0.0015
464.7668	-0.0081
464.9683	0.0054
465.1697	0.0101
465.3712	-0.003
465.5726	-0.0139
465.7741	-0.0077
465.9755	-0.0072
466.1769	-0.0143
466.3782	0.0009
466.5796	-0.0091
466.7809	0.01
466.9823	-0.0142
467.1836	0.0051
467.3849	-0.0077
467.5862	0.0092
467.7875	-0.0097
467.9887	0.0209
468.19	0.0006
468.3912	-0.0153
468.5924	-0.0034
468.7936	0.0036
468.9948	-0.0033
469.196	0.0019
469.3972	-0.0035
469.5983	-0.0011
469.7994	-0.0211
470.0006	-0.007
470.2017	-0.0278
470.4027	-0.0125
470.6038	0.0134
470.8049	-0.0176
471.0059	-0.0169
471.2069	-0.0297
471.408	0.0032
471.6089	-0.0013
471.8099	-0.0038
472.0109	0.0127
472.2119	-0.0145
472.4128	-0.0116
472.6137	-0.0034
472.8146	-0.0202
473.0155	-0.0079
473.2164	-0.0057
473.4173	0.0037
473.6181	0.0051
473.819	0.0009
474.0198	0.0015
474.2206	-0.0019
474.4214	-0.0118
474.6222	-0.0115
474.8229	-0.0058
475.0237	-0.0125
475.2244	-0.0121
475.4251	-0.0065
475.6258	-0.004
475.8265	-0.0063
476.0272	0.0075
476.2278	-0.0141
476.4285	-0.0048
476.6291	-0.0207
476.8297	-0.0076
477.0303	-0.0162
477.2309	-0.0058
477.4315	-0.0056
477.632	-0.0119
477.8326	-0.0058
478.0331	-0.0085
478.2336	-0.0078
478.4341	0.0002
478.6346	-0.0119
478.8351	-0.0089
479.0355	-0.0078
479.236	-0.0209
479.4364	-0.0071
479.6368	-0.007
479.8372	-0.0235
480.0376	-0.0067
480.2379	-0.0248
480.4383	-0.0005
480.6386	-0.0033
480.8389	-0.0051
481.0392	-0.0163
481.2395	-0.0183
481.4398	-0.0057
481.6401	0.0041
481.8403	-0.0001
482.0405	0.004
482.2408	0.006
482.441	0.0069
482.6411	-0.0166
482.8413	-0.0079
483.0415	-0.0081
483.2416	-0.0193
483.4417	0.002
483.6419	-0.0144
483.8419	-0.0063
484.042	-0.001
484.2421	-0.0002
484.4422	-0.0057
484.6422	0.003
484.8422	-0.0061
485.0422	-0.0094
485.2422	0.0034
485.4422	-0.0069
485.6422	-0.0163
485.8421	-0.008
486.042	0.0017
486.242	-0.0102
486.4419	-0.0135
486.6417	-0.0155
486.8416	-0.0015
487.0415	-0.0017
487.2413	-0.0021
487.4411	-0.0104
487.641	-0.0172
487.8408	0.0008
488.0405	-0.0183
488.2403	-0.0068
488.4401	-0.0003
488.6398	0.0029
488.8395	-0.006
489.0392	-0.0037
489.2389	-0.0088
489.4386	-0.0096
489.6383	-0.01
489.8379	-0.0077
490.0376	-0.0002
490.2372	-0.0134
490.4368	-0.0047
490.6364	-0.0118
490.836	-0.0057
491.0355	-0.0039
491.2351	-0.0047
491.4346	-0.0011
491.6341	-0.0304
491.8336	-0.0068
492.0331	-0.0205
492.2326	-0.0119
492.432	-0.0106
492.6315	-0.0073
492.8309	-0.0207
493.0303	-0.0172
493.2297	-0.0034
493.4291	-0.0034
493.6284	0.0016
493.8278	-0.0007
494.0271	-0.0061
494.2264	0.0023
494.4257	-0.0115
494.625	0.0032
494.8243	-0.0132
495.0236	-0.0072
495.2228	-0.025
495.422	-0.005
495.6213	-0.0148
495.8205	-0.0082
496.0196	-0.0132
496.2188	0.0026
496.418	-0.0149
496.6171	-0.0096
496.8162	-0.01
497.0153	-0.0071
497.2144	-0.0086
497.4135	-0.0116
497.6126	-0.0166
497.8116	-0.0136
498.0107	-0.0026
498.2097	-0.0064
498.4087	-0.0121
498.6077	-0.0085
498.8067	-0.0078
499.0056	-0.0036
499.2046	0.0015
499.4035	-0.0159
499.6024	-0.015
499.8013	-0.0144
500.0002	-0.005
500.199	-0.002
500.3979	-0.008
500.5967	-0.0263
500.7956	-0.0053
500.9944	-0.0085
501.1932	-0.0223
501.3919	-0.0194
501.5907	-0.0139
501.7895	-0.0039
501.9882	-0.0198
502.1869	-0.0081
502.3856	-0.0129
502.5843	-0.0094
502.783	-0.0194
502.9816	-0.0077
503.1803	-0.0202
503.3789	-0.0146
503.5775	0.0004
503.7761	-0.0072
503.9747	-0.0053
504.1732	-0.0087
504.3718	-0.0084
504.5703	-0.0116
504.7689	-0.0152
504.9674	-0.0076
505.1658	-0.0172
505.3643	-0.0119
505.5628	-0.0142
505.7612	-0.014
505.9597	0.0052
506.1581	-0.0144
506.3565	0.003
506.5549	-0.0037
506.7532	-0.013
506.9516	-0.0131
507.1499	-0.0048
507.3482	-0.0135
507.5465	-0.009
507.7448	-0.0111
507.9431	-0.0115
508.1414	0.0003
508.3396	-0.0124
508.5379	-0.0118
508.7361	-0.0117
508.9343	-0.0105
509.1325	0.002
509.3306	-0.0137
509.5288	-0.0066
509.7269	-0.0148
509.9251	-0.0051
510.1232	-0.0114
510.3213	-0.0021
510.5193	-0.0015
510.7174	-0.0128
510.9154	-0.0195
511.1135	-0.0103
511.3115	-0.0146
511.5095	-0.0074
511.7075	-0.0088
511.9055	-0.0116
512.1034	-0.0106
512.3014	-0.004
512.4993	-0.0107
512.6972	-0.0099
512.8951	-0.0138
513.093	-0.0072
513.2908	-0.0037
513.4887	-0.0106
513.6865	-0.0048
513.8844	-0.0228
514.0822	-0.0091
514.2799	-0.0155
514.4777	-0.0152
514.6755	-0.0147
514.8732	-0.0126
515.0709	-0.009
515.2687	-0.0088
515.4664	-0.0069
515.664	-0.0085
515.8617	-0.0085
516.0594	-0.0192
516.257	-0.0051
516.4546	-0.0191
516.6522	-0.0051
516.8498	-0.0111
517.0474	-0.0017
517.2449	-0.003
517.4425	-0.0279
517.64	-0.0101
517.8375	0.0066
518.035	-0.0007
518.2325	-0.0168
518.43	0.003
518.6274	-0.005
518.8249	-0.0186
519.0223	-0.0025
519.2197	-0.0036
519.4171	-0.0088
519.6145	-0.0178
519.8118	0.0041
520.0092	-0.0103
520.2065	-0.0183
520.4038	-0.0236
520.6011	0.001
520.7984	-0.0136
520.9956	-0.0057
521.1929	-0.0133
521.3901	0.0033
521.5874	0.001
521.7846	-0.0102
521.9818	-0.016
522.1789	-0.014
522.3761	-0.008
522.5732	-0.017
522.7704	-0.0107
522.9675	-0.0084
523.1646	-0.0177
523.3617	-0.006
523.5587	0.0023
523.7558	-0.0021
523.9528	-0.0144
524.1498	-0.013
524.3468	-0.0023
524.5438	-0.0072
524.7408	-0.0005
524.9378	0.0025
525.1347	-0.0108
525.3316	0.0018
525.5285	-0.0162
525.7254	-0.0138
525.9223	-0.0102
526.1192	-0.0061
526.316	-0.013
526.5129	0.0101
526.7097	-0.0083
526.9065	-0.0015
527.1033	-0.0114
527.3	-0.0014
527.4968	-0.0072
527.6935	-0.0072
527.8903	-0.0129
528.087	-0.0004
528.2837	-0.0028
528.4804	-0.011
528.677	-0.0162
528.8737	0.0109
529.0703	-0.0044
529.2669	-0.0049
529.4635	-0.0099
529.6601	-0.0086
529.8567	0.0034
530.0532	-0.0174
530.2498	0.0025
530.4463	0.005
530.6428	-0.014
530.8393	0.0065
531.0358	-0.0125
531.2322	-0.0072
531.4287	-0.0051
531.6251	-0.0063
531.8215	0.0041
532.0179	-0.0048
532.2143	-0.0003
532.4107	-0.0068
532.607	-0.0018
532.8034	-0.0046
532.9997	0.0001
533.196	-0.0061
533.3923	-0.0087
533.5886	-0.0046
533.7848	-0.0021
533.9811	0.0041
534.1773	-0.0046
534.3735	0.0042
534.5697	-0.006
534.7659	-0.0069
534.9621	-0.0021
535.1582	-0.0172
535.3544	-0.0063
535.5505	-0.0093
535.7466	-0.0064
535.9427	-0.0128
536.1387	-0.0153
536.3348	-0.0112
536.5308	0.001
536.7269	-0.0216
536.9229	0.0021
537.1189	0.0022
537.3148	-0.0093
537.5108	-0.0069
537.7068	-0.0057
537.9027	0.0006
538.0986	-0.0039
538.2945	-0.0059
538.4904	-0.012
538.6863	-0.0179
538.8821	0.0011
539.078	-0.0083
539.2738	0.0021
539.4696	-0.0093
539.6654	0.0073
539.8611	0.0128
540.0569	-0.0119
540.2526	-0.0092
540.4484	-0.0046
540.6441	0.0082
540.8398	-0.0065
541.0355	0.0056
541.2311	-0.0063
541.4268	-0.0101
541.6224	0.0014
541.818	0.0026
542.0136	-0.0039
542.2092	-0.0018
542.4048	0.0019
542.6003	0.0027
542.7959	-0.0042
542.9914	-0.0051
543.1869	-0.0059
543.3824	-0.0011
543.5779	-0.0035
543.7734	-0.0006
543.9688	-0.01
544.1642	0.0049
544.3596	-0.001
544.555	0.0042
544.7504	-0.0042
544.9458	-0.0139
545.1411	-0.0028
545.3365	-0.0022
545.5318	0.0064
545.7271	-0.0035
545.9224	-0.0056
546.1177	0.003
546.3129	-0.0038
546.5081	-0.0059
546.7034	0.0001
546.8986	-0.0077
547.0938	-0.0065
547.289	-0.0042
547.4841	-0.0054
547.6793	0.0115
547.8744	-0.0079
548.0695	-0.004
548.2646	-0.0094
548.4597	0.0038
548.6548	-0.0021
548.8498	-0.0064
549.0448	0.0115
549.2399	0.0027
549.4349	0.0072
549.6298	0.0026
549.8248	0.0068
550.0198	0.0051
550.2147	-0.0044
550.4096	0.001
550.6045	-0.0053
550.7994	0.0025
550.9943	0.001
551.1892	-0
551.384	0.0048
551.5788	-0.0043
551.7737	-0.0028
551.9685	-0.0005
552.1632	0.0008
552.358	-0.0029
552.5528	0.0043
552.7475	-0.0025
552.9422	0.0032
553.1369	0.0011
553.3316	0.0036
553.5263	-0.0149
553.7209	0.0072
553.9156	-0.0094
554.1102	-0.0052
554.3048	-0.0043
554.4994	0.0118
554.694	-0.0004
554.8885	0.0001
555.0831	-0.0072
555.2776	-0.0073
555.4721	-0.0104
555.6666	-0.0046
555.8611	0.012
556.0555	-0.0061
556.25	-0.006
556.4444	-0.0075
556.6388	-0.0056
556.8332	-0.0028
557.0276	0.0062
557.222	-0.0085
557.4163	-0.0121
557.6107	-0.0113
557.805	0.0017
557.9993	-0.0069
558.1936	0.001
558.3879	0.005
558.5821	-0.0017
558.7764	-0.0005
558.9706	-0.0021
559.1648	0.0049
559.359	0.0048
559.5532	-0.0064
559.7473	-0.0064
559.9415	-0.0025
560.1356	-0.0026
560.3297	-0.0065
560.5238	-0.0077
560.7179	-0.0053
560.9119	-0.0084
561.106	-0.0023
561.3	-0.0068
561.494	-0.0042
561.688	0.0018
561.882	-0.0108
562.076	-0.0029
562.2699	0.0051
562.4639	-0.0054
562.6578	-0.0069
562.8517	-0.0041
563.0456	-0.0016
563.2395	-0.0071
563.4333	0.0007
563.6272	0.014
563.821	0.0026
564.0148	-0.0046
564.2086	-0.0096
564.4024	-0.002
564.5961	-0.0044
564.7899	0.0017
564.9836	-0.0082
565.1773	0.001
565.371	0.002
565.5647	0.0119
565.7584	0.0004
565.952	0.0031
566.1456	0.0068
566.3393	-0.0017
566.5329	-0.0059
566.7264	-0.0035
566.92	-0.0041
567.1136	0.0062
567.3071	0.004
567.5006	0.0016
567.6941	0.0044
567.8876	0.0044
568.0811	-0.0049
568.2745	0.0034
568.468	0.011
568.6614	0.0047
568.8548	-0.0041
569.0482	0.0011
569.2416	-0.0007
569.4349	0.0007
569.6283	0.0019
569.8216	-0.0031
570.0149	-0.0024
570.2082	0.0081
570.4015	0.0057
570.5947	-0.0044
570.788	0.006
570.9812	0.008
571.1744	0.0022
571.3676	-0.0079
571.5608	-0.0087
571.754	0.0036
571.9471	0.0015
572.1402	-0.0009
572.3333	-0.0032
572.5264	-0.0051
572.7195	-0.0053
572.9126	0.0015
573.1057	-0.0041
573.2987	-0.0036
573.4917	-0.0035
573.6847	-0.012
573.8777	0.0042
574.0707	0.0051
574.2636	-0.0093
574.4566	-0.0029
574.6495	0.0024
574.8424	-0.0035
575.0353	0.001
575.2281	0.0146
575.421	0.0023
575.6138	0.0086
575.8067	-0.0012
575.9995	0.0033
576.1923	0.0037
576.385	-0.0007
576.5778	-0.0011
576.7706	-0.0074
576.9633	-0.0079
577.156	0.0051
577.3487	0.0013
577.5414	0.0016
577.734	-0.0067
577.9267	-0.0017
578.1193	-0.0093
578.3119	-0.0101
578.5045	-0.0024
578.6971	-0.0024
578.8897	0.004
579.0822	-0.0053
579.2747	-0.0001
579.4673	-0.0017
579.6598	-0.0017
579.8522	0.0065
580.0447	-0.0068
580.2372	-0.0033
580.4296	-0.0012
580.622	-0.0008
580.8144	-0.0019
581.0068	-0.0068
581.1992	-0.0107
581.3915	-0.0119
581.5839	-0.0082
581.7762	-0.0133
581.9685	-0.0061
582.1608	-0.0019
582.353	-0.0028
582.5453	-0.0011
582.7375	0.0012
582.9298	0.001
583.122	-0.0037
583.3142	-0.0058
583.5063	-0.0063
583.6985	-0.0145
583.8906	-0.0002
584.0827	-0.0118
584.2749	-0.0024
584.4669	0.0017
584.659	-0.004
584.8511	0.0007
585.0431	-0.0066
585.2352	0.0007
585.4272	-0.0037
585.6192	0.0089
585.8111	-0.0004
586.0031	0.0034
586.195	0.004
586.387	-0.0003
586.5789	-0.0035
586.7708	0.0061
586.9627	0.0017
587.1545	-0.0062
587.3464	0.0054
587.5382	0.0078
587.73	0.0019
587.9218	-0.0006
588.1136	0.0002
588.3053	-0.0013
588.4971	-0.0105
588.6888	-0.0097
588.8805	0.0034
589.0722	0.0054
589.2639	0.0004
589.4556	-0.0021
589.6472	-0.0023
589.8389	0
590.0305	-0.0174
590.2221	0.0031
590.4137	-0.0123
590.6052	-0.001
590.7968	-0.0026
590.9883	0.002
591.1798	-0.0013
591.3713	0.0011
591.5628	0.0001
591.7543	0.001
591.9458	0.0024
592.1372	0.0101
592.3286	0.0027
592.52	0.0012
592.7114	-0.0011
592.9028	-0.0014
593.0941	-0.005
593.2855	0.0024
593.4768	-0.0058
593.6681	-0.0102
593.8594	-0.0044
594.0506	-0.0066
594.2419	0.004
594.4331	0.0034
594.6244	0.001
594.8156	-0.0035
595.0067	0.0056
595.1979	-0.006
595.3891	-0.0036
595.5802	-0.0014
595.7713	-0.0011
595.9624	-0.0002
596.1535	0.0046
596.3446	-0.0061
596.5357	0.0053
596.7267	0.0065
596.9177	0.0021
597.1087	-0.0031
597.2997	0.0001
597.4907	0.0058
597.6817	-0.0045
597.8726	-0.0027
598.0635	-0.0027
598.2544	0.0033
598.4453	-0
598.6362	0.0019
598.827	-0.0024
599.0179	0.0051
599.2087	0.0095
599.3995	0.0027
599.5903	0.0047
599.7811	0.004
599.9718	0.002
600.1626	-0.0071
600.3533	-0.0014
600.544	-0.0039
600.7347	0.0031
600.9254	0.0069
601.116	-0.0046
601.3067	0.0037
601.4973	0.0033
601.6879	0.0083
601.8785	-0.0015
602.0691	-0.0017
602.2596	0.0028
602.4502	0.0081
602.6407	0.0059
602.8312	0.0076
603.0217	-0.0034
603.2122	0.0001
603.4027	0.0055
603.5931	0.0046
603.7835	-0.0051
603.9739	-0.0065
604.1643	-0.0013
604.3547	-0.0013
604.5451	0.0029
604.7354	0.003
604.9257	0.0055
605.116	-0.0019
605.3063	0.0079
605.4966	0.0043
605.6869	0.0013
605.8771	0.008
606.0673	0.0054
606.2575	0.0035
606.4477	0.0024
606.6379	0.001
606.8281	-0.0009
607.0182	0.0036
607.2083	0.0036
607.3985	-0.0033
607.5885	0.0003
607.7786	0.01
607.9687	-0.0026
608.1587	0.0022
608.3488	0.0094
608.5388	-0.0013
608.7288	-0.0021
608.9187	-0.0029
609.1087	0.0003
609.2986	-0.005
609.4886	0.0007
609.6785	0.0001
609.8684	-0.002
610.0582	-0.0024
610.2481	-0.0063
610.4379	-0.0073
610.6278	-0.005
610.8176	-0.0011
611.0074	0.0029
611.1971	-0.0067
611.3869	-0.005
611.5766	-0.0105
611.7664	0.0038
611.9561	0.0004
612.1458	0.0006
612.3354	-0.0035
612.5251	-0.0025
612.7147	0.0005
612.9044	0.0056
613.094	-0.0066
613.2836	0.0028
613.4731	-0.0001
613.6627	-0.0046
613.8522	0.0033
614.0417	0.0063
614.2313	0.0049
614.4207	-0.0002
614.6102	0.0051
614.7997	-0.0021
614.9891	-0.0049
615.1785	0.0009
615.3679	-0.0096
615.5573	0.0097
615.7467	-0.0069
615.9361	-0.0035
616.1254	-0.0035
616.3147	0.0034
616.504	0.0016
616.6933	0.0023
616.8826	0.0021
617.0718	0.0008
617.2611	0.0034
617.4503	-0.0007
617.6395	-0.0029
617.8287	-0.0028
618.0179	-0.0032
618.207	0.0087
618.3961	0.0008
618.5853	-0.0058
618.7744	0.0071
618.9634	-0.0005
619.1525	0.0077
619.3416	0.006
619.5306	-0.0004
619.7196	0.0009
619.9086	-0.0022
620.0976	0.0022
620.2866	-0.0039
620.4755	-0.0055
620.6645	0.0066
620.8534	-0.001
621.0423	0.0035
621.2312	0.0038
621.42	0.0033
621.6089	-0.0052
621.7977	0.0008
621.9865	-0.007
622.1753	-0.0015
622.3641	-0.0064
622.5529	0.0023
622.7416	0.0032
622.9303	0.003
623.1191	0.0043
623.3078	-0.0067
623.4964	-0.001
623.6851	-0.0045
623.8737	0.0029
624.0624	0.0067
624.251	-0.0025
624.4396	0.0073
624.6282	-0.0042
624.8167	0.0004
625.0053	0.0078
625.1938	0.0085
625.3823	0.0026
625.5708	0.0041
625.7593	0.0015
625.9477	-0.0001
626.1362	0.0037
626.3246	0.0001
626.513	0.0039
626.7014	0.0094
626.8898	-0.0005
627.0781	0.0028
627.2665	-0.0122
627.4548	0.0079
627.6431	0.0031
627.8314	0.0054
628.0197	0.0081
628.2079	-0.0057
628.3962	-0.0035
628.5844	0.0035
628.7726	0.0047
628.9608	0.007
629.1489	0.0063
629.3371	0.0035
629.5252	0.0043
629.7134	0.0127
629.9015	0.0032
630.0895	0.0029
630.2776	0.0072
630.4657	0
630.6537	0.008
630.8417	0.0035
631.0297	0.0026
631.2177	0.0053
631.4057	-0.0023
631.5936	-0.0009
631.7815	0.0097
631.9695	-0.0011
632.1574	0.0106
632.3452	0.0081
632.5331	0.0079
632.7209	-0.0031
632.9088	0.0125
633.0966	0.0079
633.2844	-0.0026
633.4722	0.0064
633.6599	0.0076
633.8477	0.0041
634.0354	0.0092
634.2231	-0.0005
634.4108	-0.0002
634.5985	0.0076
634.7861	0.0023
634.9738	-0.0044
635.1614	-0.0026
635.349	0.0013
635.5366	-0.0034
635.7242	0.0004
635.9117	0.0052
636.0993	-0.0018
636.2868	0.0046
636.4743	-0.006
636.6618	0.0071
636.8492	-0.001
637.0367	-0.0028
637.2241	-0
637.4115	-0.0052
637.5989	0.0008
637.7863	-0.0012
637.9737	-0.0038
638.161	0.0009
638.3484	-0.0005
638.5357	-0.002
638.723	0.0001
638.9103	0.0035
639.0975	0.0074
639.2848	0.0076
639.472	0.0095
639.6592	-0.001
639.8464	0.0041
640.0336	0.0065
640.2208	-0.0008
640.4079	0.0003
640.595	0.0016
640.7821	0.0051
640.9692	0.0057
641.1563	0.0098
641.3434	0.004
641.5304	0.0008
641.7174	0.0013
641.9044	0.0033
642.0914	0.0028
642.2784	0.0086
642.4653	0.0052
642.6523	0.0058
642.8392	0.0013
643.0261	0.0089
643.213	0.0048
643.3999	0.0053
643.5867	-0.0012
643.7735	0.0039
643.9604	-0.0034
644.1472	-0.0006
644.3339	-0.0003
644.5207	0.0072
644.7075	-0.0006
644.8942	0.0085
645.0809	0.0088
645.2676	0.0114
645.4543	0.0044
645.6409	0.0077
645.8276	0.0063
646.0142	0.0075
646.2008	0.0004
646.3874	-0
646.574	0.0065
646.7605	-0.0014
646.9471	-0.0111
647.1336	0.0026
647.3201	0.0053
647.5066	0.0017
647.6931	0.0058
647.8795	-0.0016
648.0659	0.0066
648.2524	0.0099
648.4388	-0.0009
648.6252	0.0015
648.8115	0.0042
648.9979	-0
649.1842	-0.0008
649.3705	0.0047
649.5568	-0.0035
649.7431	0.0059
649.9294	0.0017
650.1156	0.0038
650.3018	-0.0025
650.488	0.0046
650.6742	0.0038
650.8604	0.0013
651.0466	-0.0104
651.2327	0.0011
651.4188	0.0075
651.6049	0.0041
651.791	-0.0009
651.9771	0.0062
652.1632	0.007
652.3492	-0.001
652.5352	0.0031
652.7212	0.0012
652.9072	0.0099
653.0932	-0.0007
653.2791	-0.0056
653.465	0.0008
653.651	-0.0026
653.8369	0
654.0227	0.0029
654.2086	0.008
654.3944	0.0031
654.5803	0.001
654.7661	0.0015
654.9519	0.0048
655.1377	-0.0009
655.3234	-0.0053
655.5092	-0.0042
655.6949	-0.0068
655.8806	-0.0028
656.0663	-0.0008
656.2519	-0.0033
656.4376	-0.0076
656.6232	-0.0011
656.8088	0.0004
656.9945	0.0043
657.18	0.003
657.3656	0.0012
657.5511	0.0078
657.7367	-0.0053
657.9222	0.0071
658.1077	0.0059
658.2932	0.0075
658.4786	-0.0028
658.6641	-0.0062
658.8495	0.0044
659.0349	-0.0002
659.2203	0.0076
659.4057	0.0073
659.591	0.0079
659.7764	0.0011
659.9617	0.0052
660.147	-0.0008
660.3323	0.0082
660.5176	0.016
660.7028	0.0107
660.888	0.0078
661.0733	0.0046
661.2585	0.0019
661.4436	0.0063
661.6288	0.0032
661.8139	-0.0005
661.9991	0.0081
662.1842	-0.0011
662.3693	-0.0013
662.5544	-0.004
662.7394	0.0041
662.9245	-0.0014
663.1095	-0.0011
663.2945	0.0001
663.4795	-0.0047
663.6644	0.0051
663.8494	-0.001
664.0343	0.002
664.2193	-0.0099
664.4042	-0.0081
664.589	-0.0044
664.7739	-0.0023
664.9587	-0.0042
665.1436	-0.0036
665.3284	0.0013
665.5132	0.0003
665.698	0.0008
665.8827	0.0009
666.0675	0.0046
666.2522	-0.005
666.4369	0.0078
666.6216	0.0177
666.8063	0.0055
666.9909	0.0031
667.1756	0.0062
667.3602	0.0001
667.5448	-0.0007
667.7294	0.0079
667.9139	0.0078
668.0985	0.008
668.283	0.0026
668.4675	-0.0042
668.652	-0.0005
668.8365	-0.0028
669.0209	0.0097
669.2054	0.0089
669.3898	0.003
669.5742	0.0071
669.7586	0.0122
669.943	0.0156
670.1273	0.0105
670.3117	0.0121
670.496	0.0041
670.6803	0.0122
670.8646	0.0113
671.0488	0.0003
671.2331	0.0144
671.4173	0.0065
671.6015	0.0041
671.7857	0.0055
671.9699	0.0095
672.1541	0.014
672.3382	0.0045
672.5223	0.0089
672.7064	0.002
672.8905	0.0148
673.0746	0.0043
673.2587	0.0016
673.4427	0.0094
673.6267	0.0034
673.8107	0.0145
673.9947	0.0093
674.1787	0.0069
674.3626	0.0024
674.5465	0.0039
674.7304	0.0099
674.9143	0.0011
675.0982	0.0086
675.2821	0.002
675.4659	0.0118
675.6497	-0.001
675.8335	0.0102
676.0173	0.0035
676.2011	0.0011
676.3849	0.006
676.5686	-0.0012
676.7523	0.0012
676.936	-0.0005
677.1197	0.0014
677.3034	-0.0004
677.487	0.0075
677.6706	0.0042
677.8542	0.0038
678.0378	0.0048
678.2214	0.0009
678.405	0.0116
678.5885	-0.006
678.772	0.0066
678.9555	0.002
679.139	0.0031
679.3225	0.0037
679.5059	0.0013
679.6894	0.0046
679.8728	0.0044
680.0562	-0.002
680.2395	0.002
680.4229	0.0031
680.6062	0.0019
680.7896	0.0011
680.9729	0.0002
681.1562	0.0113
681.3394	0.0037
681.5227	-0.002
681.7059	0.0016
681.8891	0.0046
682.0723	0.0039
682.2555	0.0003
682.4387	-0.0044
682.6218	0.0004
682.805	0.0073
682.9881	0.0044
683.1712	-0.0001
683.3542	0.0036
683.5373	0.0095
683.7203	-0.0048
683.9034	0.0028
684.0864	-0.0027
684.2694	0.0021
684.4523	0.0108
684.6353	-0.001
684.8182	0.0107
685.0011	0.0026
685.184	0.0046
685.3669	0.0084
685.5498	0.0044
685.7326	0.0044
685.9154	-0.0002
686.0982	0.01
686.281	0.017
686.4638	0.0032
686.6465	0.0076
686.8293	0.0026
687.012	0.0103
687.1947	-0.0007
687.3774	0.0145
687.56	-0.0009
687.7427	0.0009
687.9253	0.0009
688.1079	-0.004
688.2905	0.0106
688.4731	0.0031
688.6556	-0
688.8382	0.0004
689.0207	0.0029
689.2032	0.0011
689.3857	-0.0035
689.5681	0.0117
689.7506	0.0051
689.933	0.001
690.1154	0.0071
690.2978	0.0008
690.4802	0.0099
690.6626	-0.0073
690.8449	-0.0067
691.0272	-0.0001
691.2095	-0.0019
691.3918	-0.0002
691.5741	0.0003
691.7563	0.0032
691.9386	-0.0072
692.1208	-0.0019
692.303	-0.0042
692.4852	-0.0039
692.6673	-0.0049
692.8495	-0.0012
693.0316	0.005
693.2137	-0.0035
693.3958	0.0114
693.5778	0.0027
693.7599	0.0008
693.9419	0.0039
694.1239	0.0048
694.3059	0.0003
694.4879	0.0053
694.6699	0.0097
694.8518	0.0009
695.0337	-0.0068
695.2157	0.0015
695.3975	-0.0004
695.5794	0.0012
695.7613	0.008
695.9431	-0.0039
696.1249	0.001
696.3067	-0.0017
696.4885	0.0028
696.6703	-0.0056
696.852	0.0014
697.0337	0.0042
697.2154	-0
697.3971	-0.0012
697.5788	-0.0006
697.7605	0.0051
697.9421	0.004
698.1237	-0.0017
698.3053	0.0032
698.4869	0.0054
698.6685	0.0064
698.85	0.0012
699.0315	0.0087
699.213	0.0056
699.3945	-0.0014
699.576	0.0019
699.7575	0.0097
699.9389	0.0022
700.1203	-0.0018
700.3017	-0.0072
700.4831	-0.0084
700.6645	-0.0094
700.8458	-0.0019
701.0271	-0.0069
701.2084	0.0011
701.3897	-0.0037
701.571	0
701.7523	-0.0105
701.9335	-0.0036
702.1147	0.0003
702.2959	0.0053
702.4771	0.0066
702.6583	0.0041
702.8394	-0.0015
703.0205	0.0045
703.2016	-0.0043
703.3827	0.0025
703.5638	0.0089
703.7449	0.004
703.9259	0.012
704.1069	-0.0042
704.2879	0.0014
704.4689	-0.002
704.6499	0.0006
704.8308	0.0049
705.0117	-0.0015
705.1927	0.007
705.3735	-0.0057
705.5544	-0.001
705.7353	0.008
705.9161	-0.0018
706.0969	-0.0063
706.2777	0.0012
706.4585	-0.0054
706.6393	0.0047
706.82	-0.0016
707.0007	-0.0047
707.1815	-0.0031
707.3621	0.0105
707.5428	0.0046
707.7235	0.0063
707.9041	0.0073
708.0847	-0.0076
708.2653	-0.0029
708.4459	-0.0137
708.6265	0
708.807	0.0011
708.9875	-0.0079
709.168	-0.004
709.3485	-0.0047
709.529	0.0021
709.7095	-0.0065
709.8899	-0.0025
710.0703	-0.0079
710.2507	0.0049
710.4311	0.0012
710.6115	-0.0102
710.7918	-0.0088
710.9721	-0.0014
711.1524	-0.009
711.3327	0.0014
711.513	0.0009
711.6932	0.0057
711.8735	0.0132
712.0537	0.0015
712.2339	0.0019
712.4141	-0.0079
712.5942	-0.0022
712.7744	0.0032
712.9545	-0.004
713.1346	-0.0053
713.3147	-0.0028
713.4947	-0.0085
713.6748	0.004
713.8548	0.0025
714.0348	0.0028
714.2148	-0.0058
714.3948	0.0147
714.5748	0.0049
714.7547	0.0032
714.9346	0.0114
715.1145	0.0063
715.2944	-0.0008
715.4743	0.0083
715.6541	0.0029
715.834	0.0126
716.0138	0.0112
716.1936	-0.0096
716.3733	0.0012
716.5531	0.0076
716.7328	-0.0056
716.9126	-0.0033
717.0923	0.0112
717.2719	-0.0044
717.4516	-0.0027
717.6312	0.002
717.8109	-0.0058
717.9905	0.0013
718.1701	-0.0006
718.3496	-0.0014
718.5292	0.0017
718.7087	0.0045
718.8882	0.0004
719.0677	0.0082
719.2472	0.0088
719.4267	0.0055
719.6061	0.0057
719.7856	0.0125
719.965	0.013
720.1443	0.0056
720.3237	0.0114
720.5031	0.0018
720.6824	0.0102
720.8617	-0.0008
721.041	0.0016
721.2203	0.0111
721.3995	0.005
721.5788	0.006
721.758	0.0064
721.9372	0.0026
722.1164	0.0002
722.2956	0.0069
722.4747	-0.002
722.6538	0.0022
722.8329	0.011
723.012	0.0045
723.1911	-0.0013
723.3702	-0.0009
723.5492	-0.0022
723.7282	0.005
723.9072	-0.0022
724.0862	-0.0077
724.2652	0.0006
724.4441	0.0022
724.623	-0.004
724.8019	-0.003
724.9808	0.0042
725.1597	-0.0087
725.3385	0.0056
725.5174	0.0044
725.6962	0.0008
725.875	0.0074
726.0538	0.0053
726.2325	0.0014
726.4112	0.0103
726.59	-0.0051
726.7687	-0.0053
726.9474	0.0034
727.126	-0.0074
727.3047	-0.0046
727.4833	0.005
727.6619	0.0006
727.8405	-0.0108
728.0191	-0.0004
728.1976	-0.0026
728.3762	0.0019
728.5547	0.0061
728.7332	-0.0094
728.9116	-0.0016
729.0901	0.004
729.2686	-0.0008
729.447	0.0092
729.6254	-0.0041
729.8038	-0.0011
729.9821	-0.0087
730.1605	-0.0003
730.3388	-0.0057
730.5171	0.0054
730.6954	0.0018
730.8737	0.0054
731.0519	0.0041
731.2302	0.0008
731.4084	0.0113
731.5866	0.0076
731.7648	-0.0028
731.9429	0.0052
732.1211	-0.0087
732.2992	0.009
732.4773	-0.0006
732.6554	0.0049
732.8335	0.0046
733.0115	0.0063
733.1896	0.008
733.3676	0.0034
733.5456	0.007
733.7235	0.0095
733.9015	0.002
734.0794	0.0025
734.2574	-0.0014
734.4353	0.0057
734.6131	0.0027
734.791	0.0029
734.9689	0.0058
735.1467	0.008
735.3245	-0.0031
735.5023	-0.0078
735.68	-0.0002
735.8578	0.0012
736.0355	-0.0182
736.2132	0.0031
736.3909	-0.0051
736.5686	-0.0051
736.7463	-0.0002
736.9239	-0.0126
737.1015	-0.0107
737.2791	-0.0016
737.4567	-0.0027
737.6343	-0.0062
737.8118	-0.006
737.9894	0.0042
738.1669	-0.0082
738.3444	0.0003
738.5218	-0.0003
738.6993	0.0059
738.8767	-0.0043
739.0541	0.0128
739.2315	-0.0077
739.4089	-0.0035
739.5863	0.0089
739.7636	-0.0017
739.9409	0.0092
740.1182	0.0107
740.2955	0.0086
740.4728	0.004
740.65	0.0006
740.8272	-0.0054
741.0044	-0.0034
741.1816	-0.0053
741.3588	0.0058
741.5359	0.0014
741.7131	-0.0098
741.8902	-0.0089
742.0673	-0.0036
742.2444	-0.0059
742.4214	-0.0136
742.5985	0.0004
742.7755	-0.0034
742.9525	-0.0144
743.1295	0.0002
743.3064	0.0052
743.4834	0.0061
743.6603	-0.0017
743.8372	0.0041
744.0141	-0.0001
744.191	0.0038
744.3678	0.0001
744.5446	-0.0068
744.7215	0.0095
744.8982	-0.0016
745.075	-0.0102
745.2518	0.0062
745.4285	0.0098
745.6052	-0.0048
745.7819	0.001
745.9586	-0.0082
746.1353	-0.0062
746.3119	-0.0025
746.4885	-0.0064
746.6651	-0.0033
746.8417	-0.0078
747.0183	0.007
747.1948	-0.0047
747.3714	-0.0015
747.5479	-0.0002
747.7244	-0.0071
747.9008	0.0094
748.0773	0.0101
748.2537	0.0025
748.4301	-0.0054
748.6065	0.0082
748.7829	0.0127
748.9593	-0.0055
749.1356	0.0107
749.3119	0.0054
749.4882	-0.0032
749.6645	0.0031
749.8408	-0.0084
750.017	-0.0124
750.1933	-0.0023
750.3695	-0.0089
750.5457	0.004
750.7218	-0.0039
750.898	-0.0045
751.0741	-0.0061
751.2502	-0.0077
751.4263	-0.0066
751.6024	-0.0047
751.7784	-0.0094
751.9545	-0.0084
752.1305	-0.0034
752.3065	-0.0087
752.4825	-0.0053
752.6584	-0.0115
752.8344	-0.0089
753.0103	-0.009
753.1862	-0.0055
753.3621	0.0079
753.5379	-0.0101
753.7138	-0.0036
753.8896	-0.0036
754.0654	0.0044
754.2412	0.0035
754.417	0.0016
754.5927	-0.0078
754.7685	-0.007
754.9442	-0.0058
755.1199	0.002
755.2956	-0.0046
755.4712	0.0061
755.6469	-0.0055
755.8225	-0.0045
755.9981	-0.0001
756.1736	-0.0026
756.3492	-0.0002
756.5248	-0.0089
756.7003	0.0013
756.8758	-0.0019
757.0513	-0.0162
757.2267	-0.0029
757.4022	0.0045
757.5776	-0.0147
757.753	-0.0059
757.9284	0.0113
758.1038	0.0145
758.2791	0.0035
758.4545	-0.0039
758.6298	0.0055
758.8051	0.0004
758.9803	0.0024
759.1556	0.0053
759.3308	0.0096
759.506	0.0114
759.6812	0.006
759.8564	0.0068
760.0316	0.0042
760.2067	0.0085
760.3819	0.0093
760.557	0.0059
760.732	0.0036
760.9071	-0.0042
761.0821	0.006
761.2572	0.0043
761.4322	0.0062
761.6072	-0.0037
761.7821	0.0045
761.9571	0.0047
762.132	-0.0004
762.3069	-0.0078
762.4818	-0.0059
762.6567	0.0002
762.8316	-0.0021
763.0064	0.0015
763.1812	0.0022
763.356	-0.0143
763.5308	-0.012
763.7055	-0.0064
763.8803	-0.0094
764.055	-0.0072
764.2297	-0.0007
764.4044	-0.0126
764.579	-0.0072
764.7537	-0.0181
764.9283	0.0007
765.1029	-0.0004
765.2775	-0.0081
765.4521	-0.014
765.6266	-0.0029
765.8011	-0.0204
765.9756	-0.0026
766.1501	0.0049
766.3246	-0.0082
766.4991	0.0028
766.6735	-0.006
766.8479	-0.0075
767.0223	0.0051
767.1967	0.0068
767.371	0.0018
767.5454	-0.0006
767.7197	-0.0007
767.894	-0.0024
768.0683	-0.0056
768.2425	-0.0035
768.4168	-0.0033
768.591	0.001
768.7652	0.002
768.9394	-0.0004
769.1135	-0.0015
769.2877	0.0035
769.4618	0.0043
769.6359	0.0008
769.81	-0.0057
769.984	-0.001
770.1581	0.0068
770.3321	0.0037
770.5061	-0.0065
770.6801	0.0023
770.8541	-0.0033
771.028	-0.0039
771.202	-0.0125
771.3759	0.0059
771.5498	-0.0075
771.7236	-0.0042
771.8975	0.0043
772.0713	0.0028
772.2451	0.0143
772.4189	0.0174
772.5927	0.006
772.7665	0.0107
772.9402	-0.0042
773.1139	0.0032
773.2876	-0.0005
773.4613	0.0181
773.635	0.0155
773.8086	-0.0128
773.9822	-0.0001
774.1558	0.0144
774.3294	-0.0068
774.503	0.0002
774.6765	-0.001
774.8501	0.0028
775.0236	0.0114
775.1971	-0.0022
775.3705	-0.0008
775.544	0.0127
775.7174	-0.006
775.8908	-0.0062
776.0642	-0.0123
776.2376	0.0123
776.4109	-0.0077
776.5843	0.0039
776.7576	0.0062
776.9309	0.0064
777.1041	0.0024
777.2774	0.0232
777.4506	-0.0013
777.6238	-0.0059
777.797	0.0004
777.9702	-0.005
778.1434	-0.0041
778.3165	-0.0098
778.4896	-0.003
778.6627	0.0174
778.8358	0.0115
779.0089	0.0037
779.1819	-0.0054
779.3549	0.0203
779.5279	0.0138
779.7009	0.0034
779.8739	0.0024
780.0468	0.0046
780.2197	0.0089
780.3926	0.0036
780.5655	0.013
780.7384	0.0055
780.9112	0.0097
781.0841	0.0065
781.2569	0.0071
781.4297	-0.0042
781.6024	0.0147
781.7752	0.0115
781.9479	0.0068
782.1206	-0.0063
782.2933	-0.019
782.466	0.008
782.6386	0.0092
782.8113	0.0072
782.9839	0.0044
783.1565	0.0161
783.329	0.0015
783.5016	-0.0043
783.6741	-0.0013
783.8466	-0.0018
784.0191	0.0144
784.1916	-0.0109
784.3641	0.0037
784.5365	0.002
784.7089	-0.0071
784.8813	-0.0056
785.0537	0.0028
785.2261	-0.0049
785.3984	-0.0105
785.5707	-0.012
785.743	-0.0031
785.9153	-0.0036
786.0876	0.0008
786.2598	-0.0199
786.432	-0.0051
786.6042	0.0106
786.7764	-0.0059
786.9486	0.0015
787.1207	-0.0103
787.2928	0.014
787.4649	0.005
787.637	0.0088
787.8091	-0.0068
787.9811	-0.0085
788.1532	-0.0033
788.3252	-0.0025
788.4972	-0.0036
788.6691	0.0048
788.8411	0.0008
789.013	-0.0168
789.1849	-0.0019
789.3568	-0.0123
789.5287	-0.0044
789.7005	0.0083
789.8723	-0.0017
790.0442	0.0138
790.2159	0.0082
790.3877	-0.0058
790.5595	-0.0064
790.7312	-0.0074
790.9029	0.0006
791.0746	-0.0111
791.2463	-0.0223
791.4179	-0.0105
791.5896	-0.0042
791.7612	-0.0087
791.9328	-0.0056
792.1044	-0.0163
792.2759	-0.0133
792.4474	-0.0189
792.619	-0.007
792.7905	-0.0004
792.9619	-0.0018
793.1334	-0.009
793.3048	0.0183
793.4762	0.011
793.6476	0.0029
793.819	0.0109
793.9904	-0.002
794.1617	0.0027
794.333	-0.0041
794.5043	-0.0072
794.6756	-0.0049
794.8469	-0.001
795.0181	0.0092
795.1893	0.0008
795.3605	-0.0005
795.5317	0.0045
795.7029	0.0008
795.874	0.0048
796.0452	-0.0088
796.2163	-0.0034
796.3873	-0.0011
796.5584	0.0079
796.7294	-0.0092
796.9005	0.0003
797.0715	-0.0014
797.2425	-0.0275
797.4134	-0.0208
797.5844	-0.009
797.7553	-0.0237
797.9262	-0.0183
798.0971	-0.0026
798.2679	-0.0129
798.4388	-0.0207
798.6096	-0.0031
798.7804	-0.0124
798.9512	-0.0127
799.122	-0.0155
799.2927	0.0102
799.4635	0.0066
799.6342	-0.0293
799.8049	-0.0161
799.9755	-0.009
800.1462	-0.0104
800.3168	0.005
800.4874	-0.0056
800.658	0.0116
800.8286	-0.0152
800.9991	-0.0094
801.1696	0.0037
801.3402	0.0081
801.5106	-0.0184
801.6811	-0.0077
801.8516	-0.0025
802.022	-0.0059
802.1924	-0.0015
802.3628	0.0044
802.5332	-0.0015
802.7035	-0.0012
802.8739	0.0006
803.0442	-0.0272
803.2145	0.0114
803.3847	-0.0192
803.555	-0.0153
803.7252	-0.0219
803.8954	-0.029
804.0656	-0.0322
804.2358	-0.0305
804.4059	-0.0038
804.5761	-0.0151
804.7462	-0.0147
804.9163	-0.0055
805.0864	-0.0226
805.2564	-0.0052
805.4264	-0.0044
805.5965	-0.0172
805.7665	0.001
805.9364	-0.0076
806.1064	0.014
806.2763	-0.0039
806.4462	0.0044
806.6161	-0.0101
806.786	0.001
806.9559	0.0034
807.1257	-0.0269
807.2955	-0.0205
807.4653	0.0015
807.6351	-0.0031
807.8048	-0.0082
807.9746	0.0054
808.1443	-0.0076
808.314	-0.0317
808.4837	-0.0214
808.6533	0.0011
808.8229	-0.002
808.9926	-0.0154
809.1622	-0.0195
809.3317	-0.0067
809.5013	-0.0143
809.6708	0.0053
809.8403	-0.002
810.0098	-0.0162
810.1793	0.0063
810.3488	-0.0013
810.5182	-0.0297
810.6876	-0.0021
810.857	-0.0229
811.0264	0.0089
811.1958	0.0051
811.3651	-0.0022
811.5344	0.0052
811.7037	-0.019
811.873	-0.017
812.0422	-0.0125
812.2115	-0.0091
812.3807	-0.0097
812.5499	-0.0183
812.7191	-0.0164
812.8882	-0.0151
813.0574	-0.0192
813.2265	-0.0231
813.3956	-0.0057
813.5646	-0.0091
813.7337	-0.0084
813.9027	0.0219
814.0718	0.0127
814.2407	0.0097
814.4097	-0.0221
814.5787	-0.0119
814.7476	-0.0088
814.9165	0.0044
815.0854	-0.0059
815.2543	-0.0001
815.4232	-0.0031
815.592	0.0081
815.7608	0.018
815.9296	0.0094
816.0984	-0.0065
816.2671	-0.0033
816.4359	-0.0247
816.6046	-0.0136
816.7733	-0.0097
816.942	-0.0152
817.1106	-0.0192
817.2793	-0.0013
817.4479	-0.0001
817.6165	0.0092
817.785	-0.0107
817.9536	-0.0095
818.1221	-0.0033
818.2906	0.0142
818.4591	-0.0239
818.6276	-0.0196
818.7961	0.0042
818.9645	-0.0243
819.1329	0.0169
819.3013	0.0221
819.4697	-0.0051
819.638	-0.0247
819.8064	0.0006
819.9747	-0.0066
820.143	-0.0503
820.3113	-0.0343
820.4795	0.001
820.6477	0.0058
820.816	-0.008
820.9842	0.0028
821.1523	-0.0276
821.3205	-0.0226
821.4886	-0.0178
821.6567	-0.0247
821.8248	-0.0137
821.9929	0.0062
822.1609	-0.0156
822.329	-0.0012
822.497	0.0095
822.665	0.0079
822.833	-0.0186
823.0009	0.0125
823.1688	0.0203
823.3367	0.0251
823.5046	0.0358
823.6725	0.0276
823.8404	-0.0102
824.0082	0.0443
824.176	0.0031
824.3438	0.0011
824.5116	-0.0113
824.6793	0.0094
824.847	-0.0034
825.0147	-0.029
825.1824	0.0024
825.3501	0.0285
825.5177	0.0157
825.6854	0.0104
825.853	-0.0055
826.0206	-0.0034
826.1881	-0.0124
826.3557	-0.0231
826.5232	0.0176
826.6907	-0.0445
826.8582	-0.0104
827.0257	-0.0402
827.1931	0.0058
827.3605	-0.0221
827.528	-0.0349
827.6953	-0.039
827.8627	-0.0061
828.03	0.0402
828.1974	-0.0089
828.3647	-0.0158
828.532	-0.0161
828.6992	-0.0401
828.8665	0.0249
829.0337	-0.0323
829.2009	0.0208
829.3681	-0.0268
829.5352	0.007
829.7024	-0.0517
829.8695	-0.0433
830.0366	0.0443
830.2037	-0.0047
830.3707	-0.0171
830.5378	-0.007
830.7048	0.0126
830.8718	-0.0381
831.0388	-0.0348
831.2057	-0.0204
831.3727	0.0195
831.5396	-0.0185
831.7065	-0.0087
831.8734	-0.0082
832.0402	-0.0662
832.2071	0.001
832.3739	-0.0511
832.5407	-0.0108
832.7075	0.0383
832.8742	-0.0355
833.041	-0.0557
833.2077	-0.0056
833.3744	-0.0237
833.541	-0.031
833.7077	-0.0338
833.8743	-0.0047
834.0409	-0.0122
834.2075	-0.0102
834.3741	-0.0026
834.5407	-0.046
834.7072	-0.0002
834.8737	-0.037
835.0402	-0.0448
835.2067	0.043
835.3731	0.0025
835.5395	-0.009
835.706	-0.0097
835.8723	-0.0314
836.0387	0.0101
836.2051	-0.0205
836.3714	-0.0182
836.5377	0.0012
836.704	-0.0351
836.8703	0.0368
837.0365	-0.0081
837.2027	-0.0223
837.3689	-0.0233
837.5351	-0.032
837.7013	-0.0321
837.8674	-0.056
838.0335	-0.0629
838.1997	-0.0255
838.3657	-0.0208
838.5318	-0.0131
838.6978	-0.0073
838.8639	0.0013
839.0299	-0.0121
839.1958	-0.0504
839.3618	-0.0211
839.5277	-0.0526
839.6937	-0.014
839.8596	-0.0065
840.0254	-0.0243
840.1913	-0.014
840.3571	0.0648
840.523	-0.0482
840.6888	-0.0388
840.8545	-0.0144
841.0203	0.0042
841.186	-0.0011
841.3517	0.0153
841.5174	0.0149
841.6831	-0.0159
841.8488	0.0116
842.0144	-0.0111
842.18	-0.015
842.3456	0.0054
842.5112	0.01
842.6767	-0.0378
842.8422	0.0106
843.0077	-0.0252
843.1732	-0.0559
843.3387	-0.0702
843.5042	-0.0488
843.6696	0.0107
843.835	-0.0213
844.0004	0.032
844.1657	-0.0092
844.3311	-0.0351
844.4964	-0.077
844.6617	-0.0262
844.827	-0.0338
844.9923	-0.0519
845.1575	0.0021
845.3227	0.0044
845.4879	0.0348
845.6531	-0.0729
845.8183	-0.0969
845.9834	-0.0509
846.1485	-0.0067
846.3136	-0.0066
846.4787	-0.1049
846.6438	0.0542
846.8088	-0.1329
846.9738	-0.0857
847.1388	-0.057
847.3038	-0.0352
847.4687	-0.2126
847.6337	0.0264
847.7986	0.0503
847.9635	-0.0658
848.1284	-0.0164
848.2932	0.0716
848.458	0.0099
848.6228	0.0526
848.7876	0.0968
848.9524	-0.0553
849.1172	-0.1243
849.2819	0.0182
849.4466	-0.0854
849.6113	-0.1571
849.7759	-0.0369
849.9406	-0.035
850.1052	0.0585
850.2698	-0.0845
850.4344	-0.0759
850.599	-0.0624
850.7635	0.0079
850.928	-0.0607
851.0925	-0.0679
851.257	-0.0675
851.4215	0.0308
851.5859	-0.0821
851.7503	0.0314
851.9147	0.105
852.0791	-0.1132
852.2434	-0.0505
852.4078	0.0773
852.5721	-0.0131
852.7364	-0.0126
852.9007	-0.0666
853.0649	0.0074
853.2291	-0.0963
853.3934	-0.0186
853.5575	0.0733
853.7217	-0.1605
853.8859	-0.1214
854.05	0.0966
854.2141	-0.0058
854.3782	0.0377
854.5423	-0.0874
854.7063	0.0683
854.8703	0.0367
855.0343	-0.0281
855.1983	-0.1812
855.3623	0.0763
855.5262	-0.0349
855.6901	-0.0446
855.854	-0.0474
856.0179	0.127
856.1818	-0.0178
856.3456	-0.1029
856.5094	-0.0067
856.6732	-0.0665
856.837	-0.1554
857.0008	0.0136
857.1645	-0.0654
857.3282	-0.1523
857.4919	0.2181
857.6556	-0.0474
857.8192	0.0404
857.9828	0.0698
858.1465	0.0149
858.31	-0.1954
858.4736	-0.1985
858.6372	-0.2739
858.8007	-0.0998
858.9642	-0.0101
859.1277	0.1037
859.2911	0.0579
859.4546	0.098
859.618	-0.4974
859.7814	-0.0485
859.9448	-0.1011
860.1081	0.2121
860.2715	0.2867
860.4348	-0.0289
860.5981	-0.0583
860.7614	0.1505
860.9246	-0.0857
861.0879	-0.3523
861.2511	-0.0501
861.4143	-0.3417
861.5774	0.2682
861.7406	-0.2021
861.9037	0.0193
862.0668	-0.0576
862.2299	-0.1151
862.393	-0.5616
862.556	-0.1849
862.7191	-0.4768
862.8821	-0.1168
863.0451	0.1174
863.208	0.1403
863.371	-0.0785
863.5339	0.1131
863.6968	0.0241
863.8597	-0.146
864.0225	0.042
864.1854	0.1588
864.3482	-0.3416
864.511	-0.0054
864.6737	0.0849
864.8365	0.1371
864.9992	-0.3266
865.1619	-0.493
865.3246	-0.1162
865.4873	0.2258
865.65	-0.3168
865.8126	0.014
865.9752	0.0323
866.1378	-0.23
866.3004	0.6235
866.4629	0.0529
866.6254	-0.1865
866.7879	0.5608
866.9504	0.4274
867.1129	0.0401
867.2753	-0.1815
867.4377	0.2028
867.6001	-0.4318
867.7625	0.209
867.9249	-0.4756
868.0872	-0.1828
868.2495	0.0426
868.4118	-0.2075
868.5741	-0.0737
868.7363	-0.1523
868.8986	-0.4346
869.0608	-0.211
869.223	0.3673
869.3851	-0
869.5473	-0
869.7094	0.1197
869.8715	-0
870.0336	-0.7928
870.1957	-0.4464
870.3577	-0
870.5197	-0.0353
870.6817	0.0157
870.8437	0.0626
871.0057	-0
871.1676	-0.3805
871.3295	-0.2775
871.4914	-0
871.6533	-0.3681
871.8151	-0.535
871.977	0.0316
872.1388	0.3102
872.3006	-0
872.4623	-0
872.6241	1.3258
872.7858	0.4897
872.9475	-0.2229
873.1092	-0.1539
873.2709	-0
873.4325	0.5284
873.5941	-0.0461
873.7557	-0.5937
873.9173	-0
874.0789	-0.6188
874.2404	-0.4953
874.4019	1.957
874.5634	-0.3552
874.7249	0.1369
874.8863	-0.1585
875.0478	-0.0546
875.2092	-0
875.3706	-0.0826
875.5319	-0.552
875.6933	-0.3097
875.8546	-0.087
876.0159	-0
876.1772	-0
876.3385	-0.2984
876.4997	-0.0015
876.6609	-0.5786
876.8221	0.0532
876.9833	-0
877.1445	0.4527
877.3056	0.2071
877.4667	-0.0961
877.6278	-0
877.7889	-0.2788
877.9499	-0
878.111	-0.8108
878.272	-0
878.433	-0
878.5939	-0
878.7549	-0.1694
878.9158	-0.7248
879.0767	-0
879.2376	0.0279
879.3984	-0
879.5593	-0
879.7201	0.4307
879.8809	-0.4308
880.0417	-0.0344
880.2024	1.1629
880.3632	-0
880.5239	0.5747
880.6846	-0
880.8452	-2.3953
881.0059	-1.5198
881.1665	-0.3465
881.3271	0.1671
881.4877	-0.0504
881.6483	-0.5916
881.8088	-0.4334
881.9693	0.209
882.1298	0.209
882.2903	0.209
