Data from MonoPyChalIsomerACN10uM420nmA_Absorbance_15-09-54-134.txt Node
Date: Fri Jul 05 15:09:54 BST 2024
User: LASERRRRR
Spectrometer: FLMT03099
Trigger mode: 0
Integration Time (sec): 1.000000E-1
Scans to average: 1
Electric dark correction enabled: true
Nonlinearity correction enabled: false
Boxcar width: 0
XAxis mode: Wavelengths
Number of Pixels in Spectrum: 3648
>>>>>Begin Spectral Data<<<<<
179.3399	-0.3424
179.5586	-0.3424
179.7771	-0.3424
179.9957	-0
180.2143	-0
180.4329	-0.0787
180.6514	0.3213
180.8699	-0
181.0885	-0.2482
181.307	0.179
181.5255	-0
181.744	-0.2001
181.9625	-0
182.181	-0.9899
182.3994	0.075
182.6179	-0
182.8363	-0
183.0547	0.417
183.2732	-0.0804
183.4916	0.1277
183.71	0.2319
183.9284	0.2286
184.1467	0.1469
184.3651	0.0781
184.5835	0.0377
184.8018	0.0175
185.0201	0.3357
185.2385	-0.1531
185.4568	0.2229
185.6751	0.0117
185.8934	0.414
186.1117	-0.056
186.3299	0.0886
186.5482	-0.0302
186.7664	-0.0232
186.9847	-0.0266
187.2029	0.0066
187.4211	0.0648
187.6393	0.1007
187.8575	-0.1407
188.0757	0.1891
188.2939	0.1412
188.512	0.1088
188.7302	0.0562
188.9483	0.0263
189.1665	0.2026
189.3846	-0.4067
189.6027	0.1862
189.8208	0.1192
190.0389	0.12
190.257	0.1641
190.475	0.3874
190.6931	0.1183
190.9111	0.4194
191.1292	0.1416
191.3472	0.3127
191.5652	0.24
191.7832	0.1355
192.0012	0.5801
192.2192	0.4371
192.4371	0.7934
192.6551	0.3218
192.873	0.5607
193.091	0.2973
193.3089	0.5074
193.5268	0.5979
193.7447	0.5543
193.9626	0.6172
194.1805	0.8352
194.3984	0.9175
194.6162	0.7167
194.8341	0.3045
195.0519	0.4972
195.2697	0.6918
195.4875	0.8708
195.7054	0.7144
195.9231	0.4627
196.1409	0.4801
196.3587	0.4893
196.5765	0.5874
196.7942	0.5936
197.012	0.4212
197.2297	0.6269
197.4474	0.6656
197.6651	0.6486
197.8828	0.5904
198.1005	0.6754
198.3182	0.6008
198.5358	0.7973
198.7535	0.7367
198.9711	0.5035
199.1888	0.5291
199.4064	0.8365
199.624	0.6207
199.8416	0.5236
200.0592	0.8281
200.2767	0.5923
200.4943	0.6551
200.7119	0.6695
200.9294	0.7136
201.1469	0.5806
201.3645	0.6006
201.582	0.5022
201.7995	0.5862
202.017	0.7783
202.2344	0.5927
202.4519	0.677
202.6694	0.5744
202.8868	0.6013
203.1042	0.7559
203.3217	0.8974
203.5391	0.6471
203.7565	0.6732
203.9739	0.672
204.1913	0.5873
204.4086	0.5706
204.626	0.7162
204.8433	0.7291
205.0607	0.5765
205.278	0.5752
205.4953	0.693
205.7126	0.7518
205.9299	0.6842
206.1472	0.7662
206.3644	0.6824
206.5817	0.7072
206.7989	0.792
207.0162	0.7463
207.2334	0.7003
207.4506	0.6225
207.6678	0.6834
207.885	0.6605
208.1022	0.6509
208.3194	0.7333
208.5365	0.6399
208.7537	0.6682
208.9708	0.5775
209.1879	0.7609
209.405	0.7121
209.6222	0.6517
209.8392	0.6977
210.0563	0.6127
210.2734	0.714
210.4905	0.6858
210.7075	0.6775
210.9245	0.6154
211.1416	0.673
211.3586	0.6887
211.5756	0.6166
211.7926	0.6206
212.0096	0.5829
212.2265	0.5867
212.4435	0.5993
212.6604	0.6143
212.8774	0.5928
213.0943	0.6256
213.3112	0.5508
213.5281	0.5415
213.745	0.5282
213.9619	0.5369
214.1788	0.5099
214.3956	0.4735
214.6125	0.4845
214.8293	0.4327
215.0461	0.4909
215.2629	0.4642
215.4798	0.462
215.6965	0.4192
215.9133	0.4483
216.1301	0.4202
216.3469	0.4497
216.5636	0.4065
216.7803	0.3798
216.9971	0.4143
217.2138	0.3764
217.4305	0.3935
217.6472	0.3741
217.8639	0.3654
218.0805	0.3639
218.2972	0.3562
218.5138	0.3346
218.7305	0.307
218.9471	0.3251
219.1637	0.2788
219.3803	0.2785
219.5969	0.2716
219.8135	0.2632
220.0301	0.2936
220.2466	0.2753
220.4632	0.2775
220.6797	0.2388
220.8962	0.2512
221.1127	0.2755
221.3292	0.2807
221.5457	0.2541
221.7622	0.2209
221.9787	0.2831
222.1951	0.2414
222.4116	0.2543
222.628	0.2524
222.8444	0.2568
223.0608	0.2641
223.2772	0.258
223.4936	0.2832
223.71	0.2557
223.9264	0.2847
224.1427	0.2392
224.3591	0.26
224.5754	0.2742
224.7917	0.268
225.008	0.2754
225.2243	0.2567
225.4406	0.2782
225.6569	0.2702
225.8732	0.2596
226.0894	0.2747
226.3057	0.2683
226.5219	0.3032
226.7381	0.2763
226.9543	0.2729
227.1705	0.2861
227.3867	0.2817
227.6029	0.3109
227.8191	0.292
228.0352	0.2896
228.2513	0.3276
228.4675	0.3042
228.6836	0.3061
228.8997	0.3007
229.1158	0.3079
229.3319	0.3245
229.548	0.3168
229.764	0.325
229.9801	0.3391
230.1961	0.3383
230.4121	0.3494
230.6282	0.3548
230.8442	0.3453
231.0602	0.3462
231.2761	0.3511
231.4921	0.3537
231.7081	0.3345
231.924	0.346
232.14	0.3418
232.3559	0.3249
232.5718	0.3543
232.7877	0.3485
233.0036	0.3716
233.2195	0.3586
233.4353	0.3785
233.6512	0.3645
233.867	0.3514
234.0829	0.3668
234.2987	0.3652
234.5145	0.3876
234.7303	0.38
234.9461	0.3701
235.1619	0.3638
235.3776	0.3726
235.5934	0.3813
235.8091	0.374
236.0249	0.3871
236.2406	0.3762
236.4563	0.3704
236.672	0.4193
236.8877	0.3885
237.1034	0.3953
237.319	0.3833
237.5347	0.3882
237.7503	0.3803
237.966	0.3967
238.1816	0.4313
238.3972	0.4006
238.6128	0.4136
238.8284	0.3895
239.0439	0.4164
239.2595	0.3948
239.475	0.4039
239.6906	0.4206
239.9061	0.4002
240.1216	0.4047
240.3371	0.3928
240.5526	0.3973
240.7681	0.4282
240.9836	0.3928
241.199	0.4137
241.4145	0.3829
241.6299	0.3759
241.8453	0.4005
242.0607	0.3891
242.2761	0.3621
242.4915	0.3793
242.7069	0.3696
242.9223	0.358
243.1376	0.3653
243.353	0.3695
243.5683	0.3708
243.7836	0.3415
243.9989	0.346
244.2142	0.334
244.4295	0.339
244.6448	0.3441
244.86	0.3253
245.0753	0.3207
245.2905	0.2979
245.5057	0.299
245.721	0.3053
245.9362	0.2876
246.1514	0.2988
246.3665	0.2724
246.5817	0.2688
246.7969	0.2696
247.012	0.2672
247.2271	0.2511
247.4423	0.257
247.6574	0.2635
247.8725	0.254
248.0876	0.23
248.3026	0.2448
248.5177	0.2442
248.7328	0.243
248.9478	0.2108
249.1628	0.2312
249.3779	0.2357
249.5929	0.2266
249.8079	0.2284
250.0228	0.2266
250.2378	0.2123
250.4528	0.2133
250.6677	0.206
250.8827	0.2147
251.0976	0.2048
251.3125	0.2052
251.5274	0.183
251.7423	0.1964
251.9572	0.1832
252.172	0.2016
252.3869	0.1883
252.6017	0.1903
252.8166	0.1799
253.0314	0.1869
253.2462	0.1787
253.461	0.1773
253.6758	0.1795
253.8906	0.1873
254.1053	0.173
254.3201	0.1734
254.5348	0.1863
254.7496	0.1794
254.9643	0.1715
255.179	0.1698
255.3937	0.1794
255.6083	0.1831
255.823	0.1743
256.0377	0.1701
256.2523	0.1807
256.467	0.1563
256.6816	0.1967
256.8962	0.1714
257.1108	0.169
257.3254	0.1812
257.54	0.1677
257.7545	0.1745
257.9691	0.1876
258.1836	0.1726
258.3981	0.183
258.6127	0.1853
258.8272	0.1769
259.0417	0.1579
259.2561	0.1707
259.4706	0.1637
259.6851	0.1716
259.8995	0.1633
260.114	0.1691
260.3284	0.1829
260.5428	0.1663
260.7572	0.1865
260.9716	0.1854
261.186	0.1769
261.4003	0.1627
261.6147	0.1675
261.829	0.1739
262.0433	0.1695
262.2577	0.166
262.472	0.1864
262.6863	0.1714
262.9005	0.1626
263.1148	0.1742
263.3291	0.1582
263.5433	0.1855
263.7576	0.1789
263.9718	0.1759
264.186	0.1762
264.4002	0.1616
264.6144	0.1689
264.8286	0.1826
265.0427	0.1795
265.2569	0.1649
265.471	0.1721
265.6851	0.1621
265.8993	0.1688
266.1134	0.1674
266.3275	0.169
266.5415	0.1649
266.7556	0.176
266.9697	0.1671
267.1837	0.166
267.3978	0.177
267.6118	0.181
267.8258	0.1787
268.0398	0.1727
268.2538	0.171
268.4677	0.1731
268.6817	0.1653
268.8957	0.1685
269.1096	0.1797
269.3235	0.1818
269.5374	0.1795
269.7514	0.1638
269.9652	0.1547
270.1791	0.1673
270.393	0.165
270.6068	0.1716
270.8207	0.1622
271.0345	0.1544
271.2483	0.1621
271.4622	0.1635
271.676	0.1751
271.8897	0.1596
272.1035	0.158
272.3173	0.1468
272.531	0.1621
272.7448	0.1581
272.9585	0.1543
273.1722	0.1698
273.3859	0.169
273.5996	0.1552
273.8133	0.1596
274.0269	0.1489
274.2406	0.1501
274.4542	0.167
274.6679	0.1492
274.8815	0.1496
275.0951	0.1765
275.3087	0.171
275.5223	0.1689
275.7358	0.1617
275.9494	0.1661
276.1629	0.1514
276.3765	0.1661
276.59	0.1676
276.8035	0.1639
277.017	0.163
277.2305	0.1535
277.444	0.1651
277.6574	0.1612
277.8709	0.1686
278.0843	0.1623
278.2978	0.1562
278.5112	0.1542
278.7246	0.1621
278.938	0.1631
279.1513	0.1684
279.3647	0.1753
279.5781	0.1578
279.7914	0.1756
280.0047	0.1717
280.2181	0.1695
280.4314	0.1612
280.6447	0.1762
280.8579	0.1717
281.0712	0.1611
281.2845	0.1697
281.4977	0.173
281.711	0.1682
281.9242	0.1641
282.1374	0.1698
282.3506	0.1784
282.5638	0.178
282.7769	0.1622
282.9901	0.1716
283.2033	0.1772
283.4164	0.1777
283.6295	0.1644
283.8426	0.1572
284.0557	0.1637
284.2688	0.1816
284.4819	0.1721
284.695	0.168
284.908	0.1791
285.1211	0.1624
285.3341	0.1625
285.5471	0.1697
285.7601	0.1762
285.9731	0.1586
286.1861	0.1569
286.3991	0.1677
286.612	0.1715
286.825	0.1668
287.0379	0.1599
287.2508	0.1519
287.4637	0.1781
287.6766	0.164
287.8895	0.1693
288.1024	0.1733
288.3152	0.1692
288.5281	0.1525
288.7409	0.1593
288.9538	0.1701
289.1666	0.1538
289.3794	0.1567
289.5922	0.1532
289.8049	0.1629
290.0177	0.1506
290.2304	0.1629
290.4432	0.1549
290.6559	0.1555
290.8686	0.1587
291.0813	0.1606
291.294	0.1677
291.5067	0.1771
291.7194	0.1645
291.932	0.1691
292.1447	0.1612
292.3573	0.1394
292.5699	0.1513
292.7825	0.1584
292.9951	0.1448
293.2077	0.1486
293.4203	0.1591
293.6328	0.1505
293.8454	0.172
294.0579	0.155
294.2704	0.1563
294.4829	0.1405
294.6954	0.1551
294.9079	0.1548
295.1204	0.1582
295.3328	0.1456
295.5453	0.1519
295.7577	0.1611
295.9701	0.1483
296.1825	0.1568
296.3949	0.1537
296.6073	0.1553
296.8197	0.1487
297.0321	0.1648
297.2444	0.1514
297.4567	0.1537
297.6691	0.1574
297.8814	0.1597
298.0937	0.1565
298.306	0.1622
298.5182	0.1538
298.7305	0.1566
298.9428	0.1509
299.155	0.1579
299.3672	0.1485
299.5794	0.1528
299.7916	0.1494
300.0038	0.1613
300.216	0.1591
300.4282	0.1551
300.6403	0.1522
300.8525	0.1444
301.0646	0.1509
301.2767	0.1428
301.4888	0.1457
301.7009	0.1678
301.913	0.1576
302.125	0.1547
302.3371	0.1529
302.5491	0.1599
302.7612	0.1589
302.9732	0.1552
303.1852	0.1542
303.3972	0.1484
303.6092	0.1425
303.8211	0.1466
304.0331	0.1514
304.245	0.1504
304.457	0.1454
304.6689	0.1437
304.8808	0.162
305.0927	0.1397
305.3046	0.1441
305.5164	0.155
305.7283	0.1438
305.9401	0.1557
306.152	0.1397
306.3638	0.1522
306.5756	0.1381
306.7874	0.1363
306.9992	0.1449
307.2109	0.1386
307.4227	0.1222
307.6344	0.1424
307.8462	0.1277
308.0579	0.134
308.2696	0.1375
308.4813	0.1298
308.693	0.1334
308.9046	0.1317
309.1163	0.1296
309.328	0.1292
309.5396	0.1245
309.7512	0.1192
309.9628	0.1273
310.1744	0.1274
310.386	0.126
310.5976	0.1237
310.8091	0.1146
311.0207	0.1278
311.2322	0.122
311.4437	0.1138
311.6552	0.1173
311.8667	0.1114
312.0782	0.1014
312.2897	0.1083
312.5012	0.1142
312.7126	0.1144
312.924	0.1102
313.1355	0.1087
313.3469	0.1112
313.5583	0.1163
313.7696	0.1223
313.981	0.1069
314.1924	0.1197
314.4037	0.1033
314.6151	0.1264
314.8264	0.1022
315.0377	0.1082
315.249	0.1139
315.4603	0.1192
315.6716	0.1041
315.8828	0.0994
316.0941	0.1172
316.3053	0.1129
316.5165	0.1129
316.7277	0.1009
316.9389	0.1145
317.1501	0.1156
317.3613	0.1033
317.5724	0.1027
317.7836	0.1122
317.9947	0.109
318.2058	0.1147
318.417	0.0958
318.6281	0.1034
318.8391	0.1029
319.0502	0.1117
319.2613	0.1111
319.4723	0.1143
319.6834	0.1126
319.8944	0.0962
320.1054	0.1162
320.3164	0.1149
320.5274	0.1026
320.7383	0.1093
320.9493	0.1033
321.1602	0.1137
321.3712	0.0954
321.5821	0.1194
321.793	0.1133
322.0039	0.1119
322.2148	0.1169
322.4257	0.1158
322.6365	0.1245
322.8474	0.1182
323.0582	0.0988
323.269	0.1214
323.4798	0.1271
323.6906	0.1077
323.9014	0.1147
324.1122	0.1263
324.3229	0.1113
324.5337	0.1105
324.7444	0.1082
324.9551	0.117
325.1658	0.1067
325.3765	0.1141
325.5872	0.1148
325.7979	0.1042
326.0085	0.118
326.2192	0.1216
326.4298	0.1189
326.6404	0.1211
326.851	0.1142
327.0616	0.1085
327.2722	0.1149
327.4828	0.1183
327.6933	0.1125
327.9039	0.1275
328.1144	0.1312
328.3249	0.1209
328.5354	0.1242
328.7459	0.1245
328.9564	0.1191
329.1669	0.1165
329.3773	0.1192
329.5878	0.1066
329.7982	0.1223
330.0086	0.1104
330.219	0.1207
330.4294	0.1223
330.6398	0.1158
330.8502	0.1214
331.0605	0.1224
331.2708	0.1202
331.4812	0.1159
331.6915	0.1205
331.9018	0.1134
332.1121	0.1128
332.3224	0.1272
332.5326	0.1206
332.7429	0.1173
332.9531	0.1295
333.1633	0.1219
333.3735	0.1287
333.5837	0.1168
333.7939	0.1159
334.0041	0.1303
334.2143	0.1236
334.4244	0.1087
334.6346	0.1021
334.8447	0.1272
335.0548	0.1061
335.2649	0.1132
335.475	0.1286
335.685	0.12
335.8951	0.1393
336.1051	0.1154
336.3152	0.1274
336.5252	0.1078
336.7352	0.1229
336.9452	0.1295
337.1552	0.1462
337.3652	0.1211
337.5751	0.1143
337.7851	0.1202
337.995	0.1204
338.2049	0.1226
338.4148	0.1224
338.6247	0.128
338.8346	0.1225
339.0445	0.1051
339.2543	0.1233
339.4642	0.1245
339.674	0.123
339.8838	0.131
340.0936	0.1238
340.3034	0.1454
340.5132	0.1476
340.7229	0.1287
340.9327	0.1392
341.1424	0.1068
341.3522	0.1501
341.5619	0.1399
341.7716	0.1379
341.9813	0.13
342.1909	0.1226
342.4006	0.1268
342.6102	0.1412
342.8199	0.132
343.0295	0.1469
343.2391	0.14
343.4487	0.1484
343.6583	0.1431
343.8679	0.1289
344.0774	0.1395
344.287	0.1341
344.4965	0.1221
344.706	0.1432
344.9155	0.1305
345.125	0.1267
345.3345	0.1515
345.544	0.1415
345.7534	0.1376
345.9629	0.1233
346.1723	0.138
346.3817	0.1325
346.5911	0.1418
346.8005	0.1419
347.0099	0.14
347.2193	0.1408
347.4286	0.1322
347.638	0.1399
347.8473	0.1521
348.0566	0.1356
348.2659	0.1509
348.4752	0.1487
348.6845	0.1515
348.8937	0.1374
349.103	0.1399
349.3122	0.1293
349.5214	0.1382
349.7306	0.1463
349.9398	0.1522
350.149	0.133
350.3582	0.1368
350.5674	0.1582
350.7765	0.1576
350.9856	0.1438
351.1948	0.1462
351.4039	0.1271
351.613	0.1422
351.822	0.1574
352.0311	0.1536
352.2402	0.151
352.4492	0.1518
352.6582	0.1543
352.8672	0.1567
353.0762	0.1548
353.2852	0.1474
353.4942	0.1477
353.7032	0.1488
353.9121	0.1623
354.1211	0.1606
354.33	0.1552
354.5389	0.1674
354.7478	0.1456
354.9567	0.1557
355.1655	0.1507
355.3744	0.161
355.5833	0.1676
355.7921	0.174
356.0009	0.1573
356.2097	0.1632
356.4185	0.1759
356.6273	0.1603
356.8361	0.1669
357.0448	0.1488
357.2536	0.1453
357.4623	0.1498
357.671	0.167
357.8797	0.1728
358.0884	0.1607
358.2971	0.1676
358.5057	0.1761
358.7144	0.1754
358.923	0.1728
359.1316	0.1805
359.3402	0.1849
359.5488	0.1757
359.7574	0.1647
359.966	0.175
360.1746	0.1835
360.3831	0.1788
360.5916	0.1692
360.8002	0.1703
361.0087	0.1825
361.2172	0.1791
361.4256	0.1878
361.6341	0.1819
361.8426	0.1816
362.051	0.1804
362.2594	0.1803
362.4678	0.1787
362.6762	0.1956
362.8846	0.1852
363.093	0.1809
363.3014	0.1938
363.5097	0.1688
363.718	0.182
363.9264	0.1892
364.1347	0.1782
364.343	0.1887
364.5513	0.1831
364.7595	0.199
364.9678	0.194
365.176	0.1796
365.3842	0.1881
365.5925	0.1776
365.8007	0.191
366.0089	0.1857
366.217	0.1727
366.4252	0.1949
366.6333	0.1909
366.8415	0.1975
367.0496	0.1865
367.2577	0.1973
367.4658	0.1993
367.6739	0.1927
367.882	0.2015
368.09	0.1784
368.2981	0.2037
368.5061	0.2146
368.7141	0.18
368.9221	0.1945
369.1301	0.2046
369.3381	0.1904
369.5461	0.19
369.754	0.2075
369.962	0.2044
370.1699	0.2017
370.3778	0.219
370.5857	0.1849
370.7936	0.2187
371.0015	0.2046
371.2093	0.2153
371.4172	0.1994
371.625	0.1937
371.8328	0.1966
372.0406	0.1931
372.2484	0.2074
372.4562	0.2069
372.664	0.1955
372.8717	0.2165
373.0795	0.1943
373.2872	0.2139
373.4949	0.2084
373.7026	0.1901
373.9103	0.2208
374.118	0.2167
374.3256	0.2013
374.5333	0.2004
374.7409	0.2061
374.9485	0.2168
375.1561	0.2074
375.3637	0.2146
375.5713	0.2154
375.7789	0.1973
375.9864	0.2164
376.194	0.2147
376.4015	0.2164
376.609	0.2142
376.8165	0.208
377.024	0.2031
377.2315	0.2033
377.4389	0.218
377.6464	0.2327
377.8538	0.2269
378.0612	0.202
378.2686	0.2093
378.476	0.2287
378.6834	0.2075
378.8908	0.2257
379.0981	0.2175
379.3055	0.2169
379.5128	0.1971
379.7201	0.2217
379.9274	0.2269
380.1347	0.2295
380.342	0.2315
380.5492	0.2141
380.7565	0.2175
380.9637	0.2244
381.1709	0.2102
381.3781	0.2262
381.5853	0.2321
381.7925	0.2212
381.9997	0.2312
382.2068	0.2412
382.4139	0.2104
382.6211	0.2103
382.8282	0.2164
383.0353	0.2217
383.2424	0.2185
383.4494	0.2315
383.6565	0.2325
383.8635	0.2135
384.0706	0.2031
384.2776	0.2315
384.4846	0.2127
384.6916	0.2325
384.8986	0.2153
385.1055	0.2218
385.3125	0.2257
385.5194	0.1977
385.7263	0.2294
385.9333	0.2229
386.1402	0.2223
386.347	0.2185
386.5539	0.2097
386.7608	0.2264
386.9676	0.2074
387.1744	0.2205
387.3813	0.2067
387.5881	0.2107
387.7948	0.2009
388.0016	0.2137
388.2084	0.217
388.4151	0.1991
388.6219	0.2182
388.8286	0.2133
389.0353	0.2167
389.242	0.2207
389.4487	0.2043
389.6553	0.2022
389.862	0.1854
390.0686	0.2182
390.2753	0.2081
390.4819	0.2163
390.6885	0.1934
390.8951	0.199
391.1016	0.1982
391.3082	0.1848
391.5147	0.2237
391.7213	0.1985
391.9278	0.2024
392.1343	0.1954
392.3408	0.194
392.5473	0.2166
392.7537	0.2079
392.9602	0.2006
393.1666	0.1969
393.373	0.2023
393.5794	0.1954
393.7858	0.2011
393.9922	0.1811
394.1986	0.204
394.4049	0.1904
394.6113	0.1856
394.8176	0.1814
395.0239	0.1881
395.2302	0.1718
395.4365	0.1871
395.6428	0.1898
395.8491	0.1765
396.0553	0.1967
396.2615	0.1832
396.4678	0.186
396.674	0.1791
396.8802	0.1901
397.0863	0.1971
397.2925	0.1746
397.4987	0.1641
397.7048	0.1819
397.9109	0.2018
398.117	0.1822
398.3231	0.1999
398.5292	0.1855
398.7353	0.1873
398.9413	0.1775
399.1474	0.1769
399.3534	0.174
399.5594	0.1632
399.7654	0.1803
399.9714	0.2021
400.1774	0.172
400.3833	0.1618
400.5893	0.1841
400.7952	0.1803
401.0011	0.2014
401.207	0.1868
401.4129	0.1937
401.6188	0.1777
401.8247	0.171
402.0305	0.1764
402.2364	0.1785
402.4422	0.1893
402.648	0.196
402.8538	0.1776
403.0596	0.1662
403.2654	0.1853
403.4711	0.1711
403.6768	0.1728
403.8826	0.1979
404.0883	0.1831
404.294	0.1828
404.4997	0.1758
404.7054	0.1697
404.911	0.1736
405.1167	0.1787
405.3223	0.1944
405.5279	0.1832
405.7335	0.1795
405.9391	0.1914
406.1447	0.1891
406.3502	0.1919
406.5558	0.1699
406.7613	0.1841
406.9668	0.1797
407.1724	0.1662
407.3778	0.1754
407.5833	0.1814
407.7888	0.1658
407.9942	0.193
408.1997	0.1647
408.4051	0.1569
408.6105	0.1847
408.8159	0.1645
409.0213	0.1596
409.2267	0.1805
409.432	0.1737
409.6374	0.1905
409.8427	0.1689
410.048	0.2057
410.2533	0.1645
410.4586	0.1899
410.6639	0.156
410.8691	0.1699
411.0744	0.1765
411.2796	0.1579
411.4848	0.1921
411.69	0.1622
411.8952	0.1961
412.1004	0.1605
412.3056	0.1801
412.5107	0.1648
412.7158	0.1857
412.921	0.1733
413.1261	0.176
413.3312	0.1544
413.5362	0.1663
413.7413	0.1603
413.9464	0.1597
414.1514	0.1486
414.3564	0.1667
414.5614	0.1614
414.7664	0.1595
414.9714	0.1722
415.1764	0.1821
415.3813	0.1885
415.5863	0.1737
415.7912	0.1848
415.9961	0.1671
416.201	0.1657
416.4059	0.1679
416.6108	0.1609
416.8156	0.1857
417.0205	0.1494
417.2253	0.1588
417.4301	0.1762
417.6349	0.157
417.8397	0.1614
418.0445	0.1714
418.2492	0.1599
418.454	0.1469
418.6587	0.1533
418.8634	0.1759
419.0681	0.1532
419.2728	0.1636
419.4775	0.1363
419.6822	0.1537
419.8868	0.1318
420.0915	0.1514
420.2961	0.1447
420.5007	0.1371
420.7053	0.1757
420.9099	0.1522
421.1144	0.1572
421.319	0.1502
421.5235	0.1569
421.728	0.1711
421.9325	0.1404
422.137	0.1768
422.3415	0.1324
422.546	0.1528
422.7504	0.1464
422.9549	0.1562
423.1593	0.1608
423.3637	0.1636
423.5681	0.1273
423.7725	0.1575
423.9769	0.1439
424.1812	0.1375
424.3856	0.137
424.5899	0.1416
424.7942	0.13
424.9985	0.1441
425.2028	0.1327
425.4071	0.1609
425.6113	0.1435
425.8156	0.1343
426.0198	0.1431
426.224	0.141
426.4282	0.1228
426.6324	0.1409
426.8366	0.1341
427.0407	0.1354
427.2449	0.1334
427.449	0.1421
427.6531	0.1133
427.8572	0.1253
428.0613	0.1553
428.2654	0.1293
428.4694	0.1116
428.6735	0.1442
428.8775	0.1331
429.0815	0.1289
429.2855	0.117
429.4895	0.1344
429.6935	0.1288
429.8975	0.1262
430.1014	0.1302
430.3053	0.1132
430.5093	0.1267
430.7132	0.0962
430.9171	0.1069
431.1209	0.1216
431.3248	0.1224
431.5286	0.1177
431.7325	0.1423
431.9363	0.1024
432.1401	0.1103
432.3439	0.1077
432.5477	0.0974
432.7514	0.0914
432.9552	0.1083
433.1589	0.0971
433.3627	0.0916
433.5664	0.0954
433.7701	0.0851
433.9737	0.1025
434.1774	0.1001
434.3811	0.0985
434.5847	0.1092
434.7883	0.0997
434.9919	0.0869
435.1955	0.092
435.3991	0.0836
435.6027	0.0977
435.8062	0.0747
436.0098	0.0801
436.2133	0.0717
436.4168	0.0812
436.6203	0.0728
436.8238	0.0875
437.0272	0.0713
437.2307	0.0663
437.4341	0.105
437.6375	0.0908
437.841	0.0537
438.0443	0.0751
438.2477	0.0718
438.4511	0.0738
438.6545	0.0795
438.8578	0.0695
439.0611	0.0594
439.2644	0.0565
439.4677	0.0635
439.671	0.0534
439.8743	0.0695
440.0775	0.0642
440.2808	0.0608
440.484	0.0441
440.6872	0.0514
440.8904	0.0518
441.0936	0.082
441.2967	0.0446
441.4999	0.065
441.703	0.0494
441.9062	0.0553
442.1093	0.0564
442.3124	0.0682
442.5155	0.0324
442.7185	0.0478
442.9216	0.0192
443.1246	0.0543
443.3276	0.0461
443.5307	0.0418
443.7337	0.055
443.9366	0.0477
444.1396	0.0343
444.3426	0.0336
444.5455	0.0526
444.7484	0.0362
444.9513	0.0406
445.1542	0.0508
445.3571	0.0468
445.56	0.044
445.7628	0.0335
445.9657	0.031
446.1685	0.05
446.3713	0.0372
446.5741	0.039
446.7769	0.0177
446.9797	0.0413
447.1824	0.0358
447.3852	0.0201
447.5879	0.0442
447.7906	0.0291
447.9933	0.027
448.196	0.0306
448.3986	0.027
448.6013	0.0312
448.8039	0.0136
449.0066	0.0133
449.2092	0.0274
449.4118	0.0336
449.6143	0.0283
449.8169	0.034
450.0195	0.0121
450.222	0.0041
450.4245	0.0199
450.627	0.0285
450.8295	0.0182
451.032	0.0089
451.2345	0.0242
451.4369	0.0284
451.6394	0.0189
451.8418	0.0078
452.0442	0.0051
452.2466	0.0319
452.449	-0.0043
452.6513	0.0265
452.8537	0.0107
453.056	0.0046
453.2583	0.0126
453.4607	0.0069
453.663	0.0315
453.8652	0.03
454.0675	0.0112
454.2697	0.0218
454.472	0.0016
454.6742	0.0116
454.8764	0.0071
455.0786	0.0325
455.2808	0.0117
455.4829	0.0189
455.6851	0.0202
455.8872	0.0214
456.0893	0.0176
456.2915	0.0091
456.4935	0.0169
456.6956	0.0106
456.8977	-0.002
457.0997	0.0156
457.3018	-0.0222
457.5038	0.0084
457.7058	0.0102
457.9078	0.0177
458.1098	0.0061
458.3117	0.0119
458.5137	0.0121
458.7156	0.0104
458.9175	-0.0036
459.1194	0.0024
459.3213	-0.0007
459.5232	-0.0044
459.725	-0.0007
459.9269	-0.0086
460.1287	-0.0057
460.3305	0.0019
460.5323	0.0045
460.7341	-0.0009
460.9359	-0.0031
461.1376	0.008
461.3394	-0.0049
461.5411	0.0032
461.7428	0.003
461.9445	0.0126
462.1462	0.0156
462.3479	-0.0044
462.5495	0.0047
462.7512	0.0045
462.9528	0.0076
463.1544	-0.0065
463.356	-0.006
463.5576	0.0132
463.7592	-0.0022
463.9607	0.0081
464.1623	0.0162
464.3638	0.0053
464.5653	-0.008
464.7668	0.003
464.9683	0.0054
465.1697	0.0182
465.3712	-0.0062
465.5726	-0.0115
465.7741	0.0018
465.9755	0.0086
466.1769	-0.0067
466.3782	-0.0062
466.5796	-0.0106
466.7809	0.0123
466.9823	-0.0014
467.1836	-0.0024
467.3849	-0.0046
467.5862	-0.0017
467.7875	-0.0082
467.9887	0.004
468.19	-0.0131
468.3912	-0.0108
468.5924	0.0054
468.7936	-0.0097
468.9948	-0.015
469.196	-0.0114
469.3972	-0.0031
469.5983	0.0002
469.7994	-0.0188
470.0006	-0.0018
470.2017	-0.0093
470.4027	0.0015
470.6038	0.009
470.8049	-0.0119
471.0059	-0.0123
471.2069	-0.0255
471.408	0.0034
471.6089	-0.0137
471.8099	-0.0082
472.0109	0.0033
472.2119	-0.0056
472.4128	-0.025
472.6137	-0.0066
472.8146	-0.0125
473.0155	-0.0154
473.2164	-0.0082
473.4173	0.0015
473.6181	-0.0055
473.819	-0.0063
474.0198	-0.0138
474.2206	-0.009
474.4214	-0.0059
474.6222	-0.0097
474.8229	-0.0126
475.0237	-0.0107
475.2244	0.0008
475.4251	-0.0019
475.6258	-0.0162
475.8265	-0.0068
476.0272	0.0005
476.2278	-0.0067
476.4285	-0.0107
476.6291	-0.0111
476.8297	-0.0073
477.0303	-0.0196
477.2309	-0.0064
477.4315	-0.0099
477.632	-0.001
477.8326	-0.0106
478.0331	-0.0038
478.2336	-0.004
478.4341	0.0031
478.6346	-0.0015
478.8351	-0.0113
479.0355	-0.0062
479.236	-0.0023
479.4364	0.0058
479.6368	-0.0106
479.8372	-0.0169
480.0376	-0.0082
480.2379	-0.0154
480.4383	-0.015
480.6386	-0.0006
480.8389	-0.001
481.0392	-0.0151
481.2395	-0.0183
481.4398	0.0061
481.6401	0.0032
481.8403	-0.0119
482.0405	-0.0086
482.2408	-0.0064
482.441	0.0104
482.6411	-0.0113
482.8413	-0.0077
483.0415	-0.0135
483.2416	-0.0128
483.4417	-0.0086
483.6419	-0.0118
483.8419	-0.0098
484.042	-0.0045
484.2421	0.0005
484.4422	-0.0073
484.6422	-0.0052
484.8422	-0.004
485.0422	-0.0136
485.2422	0.0074
485.4422	-0.0112
485.6422	-0.0148
485.8421	-0.0058
486.042	-0.0083
486.242	-0
486.4419	-0.0092
486.6417	-0.021
486.8416	-0.0069
487.0415	-0.0023
487.2413	-0.006
487.4411	-0.0109
487.641	-0.0175
487.8408	0.0043
488.0405	-0.0104
488.2403	-0.0113
488.4401	0.0069
488.6398	-0.0051
488.8395	-0.0077
489.0392	-0.0062
489.2389	-0.0108
489.4386	-0.0082
489.6383	-0.003
489.8379	0.0031
490.0376	-0.006
490.2372	-0.0097
490.4368	-0.0099
490.6364	-0.0011
490.836	-0.0163
491.0355	-0.0078
491.2351	-0.0036
491.4346	-0.0116
491.6341	-0.0143
491.8336	0.0028
492.0331	-0.0124
492.2326	-0.0089
492.432	-0.0052
492.6315	-0.0147
492.8309	-0.0187
493.0303	0.0008
493.2297	-0.0132
493.4291	-0.0131
493.6284	-0.0098
493.8278	-0.0104
494.0271	-0.001
494.2264	0.003
494.4257	-0.0192
494.625	-0.0091
494.8243	-0.0178
495.0236	-0.0127
495.2228	-0.0217
495.422	-0.0102
495.6213	-0.0047
495.8205	-0.0074
496.0196	-0.0035
496.2188	-0.005
496.418	-0.0113
496.6171	-0.0162
496.8162	-0.0126
497.0153	0.0037
497.2144	-0.0178
497.4135	-0.0086
497.6126	-0.0035
497.8116	-0.013
498.0107	-0.0017
498.2097	-0.0187
498.4087	-0.0111
498.6077	0.0012
498.8067	-0.0154
499.0056	-0.0014
499.2046	-0.0087
499.4035	-0.0244
499.6024	-0.0163
499.8013	0.0005
500.0002	-0.0159
500.199	-0.0118
500.3979	-0.0083
500.5967	-0.0249
500.7956	-0.0032
500.9944	-0.0104
501.1932	-0.0231
501.3919	-0.016
501.5907	-0.0133
501.7895	-0.0016
501.9882	-0.0236
502.1869	-0.0098
502.3856	-0.0058
502.5843	-0.0161
502.783	-0.0177
502.9816	-0.0174
503.1803	-0.0224
503.3789	-0.0238
503.5775	-0.0012
503.7761	-0.007
503.9747	-0.0086
504.1732	-0.0133
504.3718	-0.0143
504.5703	-0.0109
504.7689	-0.0088
504.9674	-0.0073
505.1658	-0.0219
505.3643	-0.0112
505.5628	-0.0049
505.7612	-0.0176
505.9597	0.0003
506.1581	-0.0096
506.3565	0.0013
506.5549	-0.0152
506.7532	-0.0265
506.9516	-0.0107
507.1499	-0.0104
507.3482	-0.0121
507.5465	-0.0119
507.7448	-0.0076
507.9431	-0.0081
508.1414	-0.0058
508.3396	-0.0049
508.5379	-0.0151
508.7361	-0.0112
508.9343	-0.0019
509.1325	-0.0067
509.3306	-0.0136
509.5288	-0.0079
509.7269	-0.0108
509.9251	-0.0088
510.1232	-0.0097
510.3213	-0.0058
510.5193	-0.0017
510.7174	-0.0117
510.9154	-0.0141
511.1135	-0.0103
511.3115	-0.0127
511.5095	-0.0024
511.7075	-0.0073
511.9055	-0.0033
512.1034	-0.0116
512.3014	-0.0031
512.4993	0.006
512.6972	-0.0068
512.8951	-0.0131
513.093	0.0005
513.2908	-0.0065
513.4887	-0.0031
513.6865	-0.013
513.8844	-0.0137
514.0822	-0.0066
514.2799	-0.0148
514.4777	-0.0205
514.6755	-0.0145
514.8732	-0.0111
515.0709	-0.0039
515.2687	-0.0101
515.4664	-0.0045
515.664	-0.0111
515.8617	-0.0076
516.0594	-0.0134
516.257	-0.0059
516.4546	-0.0153
516.6522	0.0003
516.8498	-0.0085
517.0474	0.0004
517.2449	0.0031
517.4425	-0.0206
517.64	-0.0106
517.8375	-0.0052
518.035	-0.0042
518.2325	-0.0166
518.43	-0.0153
518.6274	-0.0097
518.8249	-0.0201
519.0223	-0.006
519.2197	-0.0157
519.4171	-0.0119
519.6145	-0.0112
519.8118	-0.0034
520.0092	-0.014
520.2065	-0.0172
520.4038	-0.0186
520.6011	-0.0003
520.7984	-0.0203
520.9956	-0.0153
521.1929	-0.0125
521.3901	-0.0052
521.5874	-0.0131
521.7846	-0.0082
521.9818	-0.011
522.1789	-0.0117
522.3761	-0.0117
522.5732	-0.019
522.7704	-0.0096
522.9675	-0.0063
523.1646	-0.0136
523.3617	0.0018
523.5587	-0.0066
523.7558	-0.0147
523.9528	-0.0104
524.1498	-0.0067
524.3468	-0.0164
524.5438	-0.0065
524.7408	0.0033
524.9378	-0.009
525.1347	-0.0148
525.3316	-0.0085
525.5285	-0.0174
525.7254	-0.0037
525.9223	-0.0163
526.1192	-0.0067
526.316	-0.0109
526.5129	0.0065
526.7097	-0.0109
526.9065	0.0082
527.1033	-0.0071
527.3	-0.0128
527.4968	-0.0081
527.6935	-0.0134
527.8903	-0.0059
528.087	-0.0069
528.2837	-0.0176
528.4804	-0.005
528.677	-0.0065
528.8737	0.003
529.0703	-0.0048
529.2669	-0.0052
529.4635	-0.007
529.6601	-0.0061
529.8567	-0.0096
530.0532	-0.0181
530.2498	0.0039
530.4463	0.0022
530.6428	-0.0109
530.8393	-0.0017
531.0358	-0.0051
531.2322	-0.0102
531.4287	-0.0071
531.6251	-0.0022
531.8215	0.0041
532.0179	-0.0019
532.2143	0.0086
532.4107	-0.0172
532.607	-0.0057
532.8034	0.0023
532.9997	-0.0031
533.196	-0.0075
533.3923	-0.0098
533.5886	-0.0063
533.7848	-0.0014
533.9811	0.0003
534.1773	-0.0023
534.3735	-0.0042
534.5697	-0.0135
534.7659	-0.0092
534.9621	-0.0011
535.1582	-0.0003
535.3544	-0.0033
535.5505	-0.0071
535.7466	-0.013
535.9427	-0.0068
536.1387	-0.0134
536.3348	-0.0094
536.5308	0.0008
536.7269	-0.013
536.9229	-0.0079
537.1189	-0.005
537.3148	-0.004
537.5108	-0.0171
537.7068	-0.0047
537.9027	0.0023
538.0986	-0.0064
538.2945	-0.0142
538.4904	-0.0092
538.6863	-0.008
538.8821	-0.01
539.078	-0.0079
539.2738	0.0045
539.4696	-0.0099
539.6654	-0.0032
539.8611	0.0117
540.0569	-0.0016
540.2526	0.0024
540.4484	-0.0083
540.6441	0.0052
540.8398	-0.0067
541.0355	0.0005
541.2311	-0.0024
541.4268	-0.0183
541.6224	-0.0001
541.818	-0.0037
542.0136	-0.0091
542.2092	0.0014
542.4048	0.0012
542.6003	-0.0053
542.7959	-0.0025
542.9914	-0.0153
543.1869	-0.0057
543.3824	0.0015
543.5779	-0.002
543.7734	-0.0009
543.9688	-0.0088
544.1642	0.007
544.3596	-0.0017
544.555	-0.0015
544.7504	-0.0043
544.9458	-0.0084
545.1411	-0.0014
545.3365	0.003
545.5318	-0.0155
545.7271	-0.0025
545.9224	-0.0015
546.1177	-0.0054
546.3129	0.004
546.5081	-0.0109
546.7034	-0.0054
546.8986	-0.0045
547.0938	-0.0058
547.289	-0.0091
547.4841	-0.0034
547.6793	0.011
547.8744	-0.0028
548.0695	-0.0027
548.2646	-0.0058
548.4597	0.0001
548.6548	-0.0117
548.8498	-0.0047
549.0448	0.0086
549.2399	-0.0022
549.4349	0.0024
549.6298	-0.0024
549.8248	0.0002
550.0198	0.0005
550.2147	-0
550.4096	-0.0066
550.6045	0.0025
550.7994	0.0046
550.9943	-0.0007
551.1892	-0.0009
551.384	0.001
551.5788	-0.004
551.7737	0.0009
551.9685	-0.0036
552.1632	0.0044
552.358	-0.006
552.5528	-0.0025
552.7475	-0.0038
552.9422	-0.0027
553.1369	0.0029
553.3316	0.0047
553.5263	-0.0114
553.7209	0.0088
553.9156	0.0033
554.1102	-0.0066
554.3048	-0.0014
554.4994	0.0068
554.694	-0.0129
554.8885	-0.0024
555.0831	-0.0069
555.2776	-0.0034
555.4721	-0.0031
555.6666	-0.0025
555.8611	0.0107
556.0555	0.0029
556.25	0.0017
556.4444	-0.0122
556.6388	-0.0057
556.8332	-0.0024
557.0276	-0
557.222	0.0067
557.4163	-0.0093
557.6107	-0.0095
557.805	0.0011
557.9993	0.0014
558.1936	-0.0014
558.3879	0.003
558.5821	0.0069
558.7764	-0.0031
558.9706	0.0029
559.1648	0.002
559.359	-0.0069
559.5532	-0.0107
559.7473	-0.0041
559.9415	0.0052
560.1356	-0.0019
560.3297	-0.0075
560.5238	-0.0078
560.7179	-0.0052
560.9119	0.0002
561.106	-0.0071
561.3	-0.0068
561.494	0.0005
561.688	-0.0075
561.882	-0.0019
562.076	-0.0109
562.2699	0.0056
562.4639	-0.0005
562.6578	0.0033
562.8517	-0.0025
563.0456	0.0069
563.2395	0.0046
563.4333	-0.0011
563.6272	0.014
563.821	-0.0034
564.0148	-0.0025
564.2086	-0.0125
564.4024	-0.0011
564.5961	-0.0032
564.7899	0.0028
564.9836	-0.0015
565.1773	0.0022
565.371	0.008
565.5647	0.0039
565.7584	0.0029
565.952	-0.0006
566.1456	-0.0012
566.3393	0.0003
566.5329	-0.0023
566.7264	0.0012
566.92	-0.0028
567.1136	0.0046
567.3071	-0.0012
567.5006	0.0038
567.6941	0.0015
567.8876	0.0017
568.0811	-0.0036
568.2745	0.0093
568.468	0.0105
568.6614	-0.0021
568.8548	0.0048
569.0482	0.006
569.2416	0.0032
569.4349	0.0009
569.6283	0.0047
569.8216	0.0009
570.0149	-0.0062
570.2082	-0.0004
570.4015	0.0003
570.5947	0.0014
570.788	0.0062
570.9812	0.0043
571.1744	-0.0068
571.3676	-0.0079
571.5608	-0.0094
571.754	0.0054
571.9471	-0.0112
572.1402	0.0062
572.3333	-0.006
572.5264	-0.0046
572.7195	-0.0045
572.9126	0.0014
573.1057	-0.0011
573.2987	-0.0056
573.4917	-0.0021
573.6847	-0.0053
573.8777	0.0024
574.0707	-0.0014
574.2636	-0.0064
574.4566	-0.005
574.6495	-0.0014
574.8424	-0.0064
575.0353	-0.0024
575.2281	0.0025
575.421	0.0053
575.6138	0.0052
575.8067	-0.005
575.9995	-0.0018
576.1923	-0.0045
576.385	0.0013
576.5778	-0.0054
576.7706	-0.0019
576.9633	-0.0034
577.156	0.005
577.3487	-0.0078
577.5414	-0.004
577.734	-0.0011
577.9267	0.0008
578.1193	-0.0159
578.3119	-0.0083
578.5045	0.0021
578.6971	-0.005
578.8897	-0
579.0822	0.0002
579.2747	-0.0024
579.4673	-0.0044
579.6598	-0.0029
579.8522	-0.0033
580.0447	-0.0079
580.2372	-0.0001
580.4296	-0.0035
580.622	-0.0043
580.8144	-0.0021
581.0068	-0.0038
581.1992	-0.0156
581.3915	-0.0083
581.5839	-0.005
581.7762	-0.0098
581.9685	-0.0086
582.1608	-0.0012
582.353	-0.0068
582.5453	0.0027
582.7375	-0.004
582.9298	-0.0039
583.122	-0.0083
583.3142	-0.0037
583.5063	-0.0047
583.6985	0.0008
583.8906	-0.0081
584.0827	-0.0034
584.2749	0.0033
584.4669	0.0011
584.659	-0.0029
584.8511	-0.0114
585.0431	-0.0085
585.2352	0.0012
585.4272	-0.0054
585.6192	0.0016
585.8111	-0.0015
586.0031	0.0014
586.195	-0.0038
586.387	0.0036
586.5789	-0.0028
586.7708	0.0096
586.9627	0.0045
587.1545	-0.0072
587.3464	0.0009
587.5382	0.0009
587.73	-0.0027
587.9218	0.0045
588.1136	0.0004
588.3053	0.0002
588.4971	-0.0005
588.6888	-0.0075
588.8805	-0.002
589.0722	0.0025
589.2639	0.0034
589.4556	0.0058
589.6472	-0.0042
589.8389	-0.0065
590.0305	-0.007
590.2221	0.0027
590.4137	-0.0087
590.6052	0.0008
590.7968	-0.0057
590.9883	-0.0002
591.1798	0.001
591.3713	0.0002
591.5628	0.0017
591.7543	0.0088
591.9458	-0.0007
592.1372	0.0035
592.3286	0.0106
592.52	-0.0027
592.7114	0.0002
592.9028	-0.0002
593.0941	-0.006
593.2855	-0.0006
593.4768	-0.0062
593.6681	-0.0031
593.8594	-0.0113
594.0506	-0.0044
594.2419	0.008
594.4331	0.0067
594.6244	0.0019
594.8156	0.0025
595.0067	-0.0003
595.1979	0.0042
595.3891	0.0007
595.5802	-0.0017
595.7713	-0.0037
595.9624	-0.0039
596.1535	0.0038
596.3446	0.0052
596.5357	-0.0005
596.7267	0.0128
596.9177	0.0005
597.1087	-0.0042
597.2997	-0.0024
597.4907	0.0027
597.6817	-0.0066
597.8726	-0.0005
598.0635	-0.0031
598.2544	0.0011
598.4453	0.0007
598.6362	-0.0019
598.827	-0.002
599.0179	0.0076
599.2087	0.0026
599.3995	0.0074
599.5903	0.0008
599.7811	0.0024
599.9718	0.0066
600.1626	-0.0011
600.3533	-0.0084
600.544	0.0078
600.7347	-0.0013
600.9254	0.0017
601.116	-0.0099
601.3067	0.0018
601.4973	-0.0024
601.6879	0.0039
601.8785	0.0019
602.0691	0.0006
602.2596	0.0106
602.4502	0.003
602.6407	0.0062
602.8312	0.0003
603.0217	-0.0011
603.2122	0.0009
603.4027	0.0062
603.5931	0.0049
603.7835	0
603.9739	-0.001
604.1643	0.0004
604.3547	0.0027
604.5451	0.0036
604.7354	0.0046
604.9257	0.005
605.116	-0.0062
605.3063	0.003
605.4966	-0.0013
605.6869	0.003
605.8771	0.0021
606.0673	0.0066
606.2575	0.0101
606.4477	0.0008
606.6379	0.0017
606.8281	0.002
607.0182	-0.0042
607.2083	0.0101
607.3985	-0.0027
607.5885	0.0063
607.7786	0.0017
607.9687	-0.0063
608.1587	0.0071
608.3488	0.0048
608.5388	-0.001
608.7288	0.0003
608.9187	0.0013
609.1087	-0.0033
609.2986	-0.0078
609.4886	-0.0012
609.6785	0.0022
609.8684	-0.004
610.0582	-0.0044
610.2481	-0.0003
610.4379	-0.0038
610.6278	0.0014
610.8176	-0.0025
611.0074	-0.0086
611.1971	-0.0019
611.3869	0.001
611.5766	-0.0049
611.7664	-0.0001
611.9561	-0.0013
612.1458	-0.0021
612.3354	-0.0125
612.5251	0.0004
612.7147	0.0074
612.9044	0.0025
613.094	-0.0052
613.2836	0.0005
613.4731	-0.0058
613.6627	0.0018
613.8522	0.0039
614.0417	0.0049
614.2313	0.0002
614.4207	-0.0037
614.6102	0.0029
614.7997	-0.0068
614.9891	-0.0062
615.1785	0.0011
615.3679	-0.0077
615.5573	0.0069
615.7467	-0.0014
615.9361	-0.0013
616.1254	-0.0009
616.3147	-0
616.504	-0.004
616.6933	-0.0021
616.8826	0.0107
617.0718	0.0029
617.2611	0.0053
617.4503	0.005
617.6395	-0.0059
617.8287	-0.0004
618.0179	-0.0044
618.207	0.0061
618.3961	-0.0005
618.5853	-0.0021
618.7744	0.0063
618.9634	0.0009
619.1525	-0.0023
619.3416	0.0083
619.5306	0.0022
619.7196	0.0037
619.9086	-0.0019
620.0976	0.0032
620.2866	-0.0015
620.4755	0.0003
620.6645	0.0032
620.8534	0.0109
621.0423	-0.0009
621.2312	0.0065
621.42	0.0005
621.6089	-0.0031
621.7977	0.0044
621.9865	-0.0056
622.1753	0.0017
622.3641	0.0003
622.5529	0.0096
622.7416	0.0046
622.9303	0.0008
623.1191	0.0077
623.3078	-0.0023
623.4964	0.0064
623.6851	-0.0016
623.8737	-0.0026
624.0624	0.0036
624.251	-0.0066
624.4396	-0.0006
624.6282	-0.0067
624.8167	-0.0022
625.0053	-0.0001
625.1938	0.0012
625.3823	0.01
625.5708	-0.0036
625.7593	-0.0001
625.9477	-0.0032
626.1362	0.0042
626.3246	0.0056
626.513	0.0077
626.7014	0.0081
626.8898	0.0018
627.0781	0.0001
627.2665	-0.0021
627.4548	0.0063
627.6431	0.0078
627.8314	0.003
628.0197	0.0064
628.2079	-0.0064
628.3962	-0.0027
628.5844	0.0036
628.7726	0.0065
628.9608	0.0068
629.1489	0.0053
629.3371	0.0106
629.5252	0.0064
629.7134	0.0118
629.9015	0.0077
630.0895	-0.0069
630.2776	0.0008
630.4657	-0.0024
630.6537	0.0069
630.8417	-0.0014
631.0297	-0.0039
631.2177	0.0061
631.4057	-0.0077
631.5936	0.0032
631.7815	-0.0026
631.9695	0.0012
632.1574	0.0045
632.3452	0.0068
632.5331	0.0072
632.7209	-0.0012
632.9088	0.0111
633.0966	0.0084
633.2844	-0.0017
633.4722	0.0008
633.6599	0.0137
633.8477	0.007
634.0354	-0.0022
634.2231	0.001
634.4108	0.0035
634.5985	0.0082
634.7861	0.0005
634.9738	0.0016
635.1614	-0.0023
635.349	0.0008
635.5366	-0.0101
635.7242	0.0021
635.9117	0.0068
636.0993	-0.0075
636.2868	0.007
636.4743	-0.0054
636.6618	0.0111
636.8492	0.0042
637.0367	0.0014
637.2241	0.0025
637.4115	-0.0063
637.5989	-0.0026
637.7863	0.0064
637.9737	-0.0022
638.161	-0.0063
638.3484	0.0005
638.5357	0.0079
638.723	-0.0016
638.9103	0.0067
639.0975	0.0036
639.2848	0.0061
639.472	0.0031
639.6592	0.0046
639.8464	0.0053
640.0336	0.0079
640.2208	0.0012
640.4079	0.0021
640.595	0.0003
640.7821	0.0038
640.9692	0.0049
641.1563	0.0125
641.3434	0.008
641.5304	0.0072
641.7174	0.003
641.9044	0.0039
642.0914	0.0003
642.2784	0.0028
642.4653	0.0109
642.6523	0.0071
642.8392	-0.0014
643.0261	0.0088
643.213	0.0003
643.3999	0.0028
643.5867	0.0022
643.7735	0.0016
643.9604	-0.0036
644.1472	0.0049
644.3339	-0.0002
644.5207	0.0033
644.7075	-0.0001
644.8942	0.0035
645.0809	0.0056
645.2676	0.0118
645.4543	0.0032
645.6409	0.0098
645.8276	0.0027
646.0142	0.0083
646.2008	-0.0009
646.3874	-0.0015
646.574	0.0018
646.7605	-0.0046
646.9471	-0.0092
647.1336	0.0001
647.3201	0.0028
647.5066	0.0025
647.6931	0.0048
647.8795	0.0069
648.0659	0.0023
648.2524	0.0011
648.4388	-0.0013
648.6252	0.0037
648.8115	-0.0011
648.9979	0.0004
649.1842	0.002
649.3705	0.0083
649.5568	-0.0011
649.7431	0.0016
649.9294	0.0034
650.1156	0.0026
650.3018	-0.0022
650.488	0.0034
650.6742	0.0053
650.8604	-0.0007
651.0466	-0.0032
651.2327	0.0066
651.4188	0.0094
651.6049	0.0009
651.791	0.0013
651.9771	0.0054
652.1632	0.0076
652.3492	0.0029
652.5352	0.0024
652.7212	-0.0047
652.9072	0.0081
653.0932	0.0018
653.2791	-0.004
653.465	0.0048
653.651	-0.0023
653.8369	-0.0061
654.0227	-0.0032
654.2086	0.0019
654.3944	0.0058
654.5803	0.0056
654.7661	0.0037
654.9519	0.0056
655.1377	-0.0018
655.3234	-0.0004
655.5092	-0.0048
655.6949	-0.0084
655.8806	-0.0052
656.0663	-0.0003
656.2519	-0.0042
656.4376	-0.0062
656.6232	0.0027
656.8088	-0.0019
656.9945	0.001
657.18	0.0032
657.3656	-0.0008
657.5511	0.0012
657.7367	0.0026
657.9222	0.0049
658.1077	-0.0011
658.2932	0.0035
658.4786	-0.0033
658.6641	-0.0029
658.8495	-0.0013
659.0349	0.0008
659.2203	0.0109
659.4057	0.0052
659.591	0.0024
659.7764	0.0024
659.9617	0.008
660.147	0.0096
660.3323	0.0091
660.5176	0.0143
660.7028	0.0059
660.888	0.0076
661.0733	0.0085
661.2585	-0.0026
661.4436	0.0075
661.6288	0.011
661.8139	0.0047
661.9991	0.0072
662.1842	0.0011
662.3693	0.0115
662.5544	0.007
662.7394	-0.0008
662.9245	-0.0058
663.1095	-0.0049
663.2945	0.0003
663.4795	-0.0022
663.6644	0.0072
663.8494	-0.0037
664.0343	-0.002
664.2193	-0.0132
664.4042	0.0009
664.589	-0.0076
664.7739	-0.004
664.9587	-0.0096
665.1436	-0.0026
665.3284	0.0029
665.5132	-0.0017
665.698	0.0058
665.8827	0.0074
666.0675	-0.0001
666.2522	-0.0048
666.4369	0.0071
666.6216	0.0099
666.8063	0.0056
666.9909	0.0058
667.1756	0.0004
667.3602	0.0131
667.5448	-0.0039
667.7294	0.0142
667.9139	0.0078
668.0985	0.0173
668.283	-0.0032
668.4675	0.001
668.652	0.0004
668.8365	0.0041
669.0209	0.0097
669.2054	0.0078
669.3898	0.0025
669.5742	0.0011
669.7586	0.0071
669.943	0.0089
670.1273	0.0102
670.3117	0.0029
670.496	0.0096
670.6803	0.0151
670.8646	0.0043
671.0488	0.0008
671.2331	0.0142
671.4173	0.0107
671.6015	0.0008
671.7857	0.0054
671.9699	0.0082
672.1541	0.0104
672.3382	0.0009
672.5223	0.0022
672.7064	0.0089
672.8905	0.0085
673.0746	0.006
673.2587	0.0074
673.4427	0.0107
673.6267	0.0065
673.8107	0.0107
673.9947	0.0034
674.1787	0.0108
674.3626	-0.0016
674.5465	0.012
674.7304	0.0059
674.9143	0.007
675.0982	0.0125
675.2821	-0.0036
675.4659	0.0113
675.6497	0.0103
675.8335	0.0009
676.0173	-0.0023
676.2011	0.0046
676.3849	0.0057
676.5686	-0.0063
676.7523	0.0045
676.936	0.0045
677.1197	-0.0019
677.3034	-0.0002
677.487	0.0085
677.6706	-0.0025
677.8542	0.0078
678.0378	0.0011
678.2214	-0.0004
678.405	0.0047
678.5885	0.0018
678.772	0.0082
678.9555	0.0019
679.139	0.0036
679.3225	0.0044
679.5059	0.0031
679.6894	0.0048
679.8728	0.0008
680.0562	-0.0068
680.2395	-0.0047
680.4229	0.0047
680.6062	0.0096
680.7896	0.001
680.9729	0.002
681.1562	0.0022
681.3394	0.0068
681.5227	-0.0057
681.7059	0.0021
681.8891	0.0026
682.0723	0.0074
682.2555	0.0052
682.4387	0.0018
682.6218	-0.0069
682.805	0.0104
682.9881	0.0092
683.1712	-0.0005
683.3542	0.0095
683.5373	0.008
683.7203	0.0036
683.9034	0.0021
684.0864	-0.005
684.2694	0.0048
684.4523	0.0108
684.6353	-0.0058
684.8182	0.0056
685.0011	0.0013
685.184	0.0061
685.3669	0.0037
685.5498	0.0098
685.7326	0.0107
685.9154	0.003
686.0982	0.0155
686.281	0.011
686.4638	0.0097
686.6465	0.0051
686.8293	0.0068
687.012	0.0047
687.1947	-0.0053
687.3774	0.0073
687.56	0.0024
687.7427	0.0081
687.9253	-0.0005
688.1079	0.0054
688.2905	0.0068
688.4731	-0.0043
688.6556	-0.0042
688.8382	-0.0048
689.0207	0.0055
689.2032	-0.0045
689.3857	-0.002
689.5681	0.0053
689.7506	0.0011
689.933	-0.0072
690.1154	0.0008
690.2978	-0.0003
690.4802	-0.0001
690.6626	-0.0075
690.8449	-0.0038
691.0272	0.01
691.2095	-0.0033
691.3918	-0.0121
691.5741	-0.0046
691.7563	-0.0019
691.9386	0.0001
692.1208	-0.0032
692.303	0.0051
692.4852	0.0017
692.6673	0.0023
692.8495	0.001
693.0316	-0.0043
693.2137	0.0025
693.3958	0.0043
693.5778	-0.0002
693.7599	0.0052
693.9419	-0.0029
694.1239	0.0028
694.3059	-0.0044
694.4879	0.006
694.6699	0.0087
694.8518	0.0048
695.0337	0.004
695.2157	0.0065
695.3975	-0.0017
695.5794	0.0042
695.7613	0.0036
695.9431	-0.0032
696.1249	0.0081
696.3067	0.005
696.4885	0.0048
696.6703	-0.0099
696.852	-0.002
697.0337	0.0033
697.2154	0.0001
697.3971	-0.0031
697.5788	0.0006
697.7605	0.0015
697.9421	-0.0013
698.1237	0.0032
698.3053	-0.0031
698.4869	0.0016
698.6685	-0.0053
698.85	-0.0027
699.0315	0.004
699.213	0.0011
699.3945	0.0025
699.576	0.0157
699.7575	0.0086
699.9389	0.0084
700.1203	-0.0091
700.3017	-0.0055
700.4831	0.0012
700.6645	0.0011
700.8458	-0.0033
701.0271	-0.0092
701.2084	0.004
701.3897	-0.0023
701.571	-0.0029
701.7523	-0.0117
701.9335	-0.0011
702.1147	-0.006
702.2959	0.0041
702.4771	-0.0024
702.6583	-0.0009
702.8394	-0.0012
703.0205	-0.0001
703.2016	-0.0067
703.3827	0.0035
703.5638	0.0102
703.7449	0.0023
703.9259	0.0118
704.1069	-0.0048
704.2879	0.0046
704.4689	0.0031
704.6499	-0.0023
704.8308	0.002
705.0117	0.0017
705.1927	0.0064
705.3735	-0.0084
705.5544	0.0018
705.7353	0.0006
705.9161	-0.0015
706.0969	0.0024
706.2777	0.0004
706.4585	-0.0024
706.6393	-0.0003
706.82	-0.0022
707.0007	0.003
707.1815	-0.0016
707.3621	0.0067
707.5428	-0.0035
707.7235	0.0092
707.9041	0.0027
708.0847	-0.0078
708.2653	-0.006
708.4459	-0.0058
708.6265	0.0026
708.807	-0.0001
708.9875	-0.0059
709.168	0.0001
709.3485	-0.0052
709.529	-0.0023
709.7095	-0.0097
709.8899	0.0044
710.0703	-0.0118
710.2507	0.0073
710.4311	-0.0023
710.6115	-0.0076
710.7918	-0.0024
710.9721	-0.0019
711.1524	-0.0106
711.3327	0.0004
711.513	0.008
711.6932	0.0058
711.8735	0.008
712.0537	-0.0002
712.2339	-0.0015
712.4141	-0.0044
712.5942	-0.0047
712.7744	-0.0049
712.9545	-0.0024
713.1346	-0.0005
713.3147	0.0015
713.4947	-0.0031
713.6748	-0.0052
713.8548	-0.0005
714.0348	0.0017
714.2148	0.001
714.3948	0.0104
714.5748	0.0086
714.7547	0.0024
714.9346	0.012
715.1145	-0.0007
715.2944	-0.0001
715.4743	0.0052
715.6541	0.0028
715.834	0.0128
716.0138	0.0003
716.1936	-0.0058
716.3733	-0.005
716.5531	0.0015
716.7328	-0.0018
716.9126	-0.0046
717.0923	0.002
717.2719	0.0077
717.4516	0.009
717.6312	0.008
717.8109	-0.002
717.9905	0.0069
718.1701	0.0014
718.3496	-0.0116
718.5292	0.004
718.7087	0.0029
718.8882	0.0094
719.0677	0.0125
719.2472	-0.0019
719.4267	0.0095
719.6061	0.0053
719.7856	0.0101
719.965	0.0104
720.1443	-0.0018
720.3237	0.0154
720.5031	0.0041
720.6824	0.0125
720.8617	0.0004
721.041	0.0003
721.2203	0.0132
721.3995	0.0014
721.5788	0.0042
721.758	0.0045
721.9372	0.0018
722.1164	0.0155
722.2956	0.0029
722.4747	0.0109
722.6538	-0.0023
722.8329	0.0084
723.012	0.0026
723.1911	-0.0062
723.3702	0.0042
723.5492	0.0014
723.7282	-0.0069
723.9072	0.0035
724.0862	-0.0083
724.2652	-0.0033
724.4441	-0.0048
724.623	-0.0026
724.8019	0.007
724.9808	0.0037
725.1597	-0.0097
725.3385	0.0055
725.5174	0.0051
725.6962	-0.0005
725.875	0.0071
726.0538	0.01
726.2325	0.0008
726.4112	0.005
726.59	-0.0003
726.7687	0.0074
726.9474	0.0034
727.126	0.0011
727.3047	-0.0019
727.4833	-0.0019
727.6619	0.0005
727.8405	-0.004
728.0191	-0.0048
728.1976	-0.0031
728.3762	0.0046
728.5547	-0.0018
728.7332	-0.0069
728.9116	-0.0005
729.0901	0.0076
729.2686	-0.0066
729.447	0.0025
729.6254	-0.003
729.8038	0.0028
729.9821	-0.006
730.1605	-0.0011
730.3388	-0.0031
730.5171	-0.0018
730.6954	-0.0032
730.8737	-0.0018
731.0519	0.0074
731.2302	-0.0005
731.4084	0.0083
731.5866	0.007
731.7648	0.0053
731.9429	-0.002
732.1211	0.0001
732.2992	-0.0054
732.4773	0.0037
732.6554	0.0059
732.8335	0.0082
733.0115	0.0079
733.1896	0.0059
733.3676	-0.0001
733.5456	0.0134
733.7235	0.0057
733.9015	0.0034
734.0794	0.0016
734.2574	0.0017
734.4353	0.0019
734.6131	-0.0008
734.791	0.002
734.9689	-0.0003
735.1467	0.0011
735.3245	-0.0067
735.5023	-0.0041
735.68	-0.0006
735.8578	0.0108
736.0355	-0.02
736.2132	-0.0014
736.3909	-0.0018
736.5686	-0.0033
736.7463	0.0059
736.9239	-0.0033
737.1015	-0.0106
737.2791	0.0039
737.4567	0.005
737.6343	-0.0106
737.8118	-0.0006
737.9894	0.0025
738.1669	-0.0039
738.3444	-0.0016
738.5218	0.0038
738.6993	0.0075
738.8767	-0.0059
739.0541	0.0128
739.2315	-0.0036
739.4089	-0.0001
739.5863	0.0099
739.7636	-0.0049
739.9409	0.0053
740.1182	0.0069
740.2955	0.0072
740.4728	-0.0038
740.65	0.0068
740.8272	-0.0047
741.0044	0.0008
741.1816	0.0019
741.3588	-0.0025
741.5359	0.0055
741.7131	-0.0129
741.8902	-0.0006
742.0673	0.0059
742.2444	-0.0067
742.4214	-0.0048
742.5985	-0.0074
742.7755	-0.0034
742.9525	-0.0026
743.1295	0.008
743.3064	0.0011
743.4834	0.0107
743.6603	0.0026
743.8372	-0.0049
744.0141	0.0046
744.191	0.0101
744.3678	-0.0008
744.5446	0.011
744.7215	0.001
744.8982	0.0028
745.075	-0.0079
745.2518	0.0033
745.4285	-0.0024
745.6052	0.0015
745.7819	0.0111
745.9586	-0.0007
746.1353	0.0053
746.3119	-0.0006
746.4885	-0.0032
746.6651	0.0034
746.8417	-0.0014
747.0183	-0.0019
747.1948	-0.0101
747.3714	0.0076
747.5479	-0.0036
747.7244	-0.0033
747.9008	0.016
748.0773	0.0085
748.2537	0.0103
748.4301	-0.0019
748.6065	0.0102
748.7829	0.0059
748.9593	-0.0008
749.1356	-0.0031
749.3119	0.0077
749.4882	-0.0022
749.6645	0.0115
749.8408	-0.0052
750.017	-0.0059
750.1933	0.008
750.3695	-0.0139
750.5457	0.0007
750.7218	0.005
750.898	0.009
751.0741	-0.011
751.2502	-0.0032
751.4263	-0.0001
751.6024	-0.0047
751.7784	-0.0044
751.9545	-0.0102
752.1305	0.0004
752.3065	-0.012
752.4825	0.0004
752.6584	-0.0078
752.8344	-0.0041
753.0103	-0.0143
753.1862	-0.0076
753.3621	-0.0011
753.5379	-0.0059
753.7138	-0.0022
753.8896	-0.0079
754.0654	0.0007
754.2412	0.0117
754.417	-0.0061
754.5927	-0.0031
754.7685	-0.0065
754.9442	-0.0015
755.1199	0.0024
755.2956	-0.0002
755.4712	0.0035
755.6469	0.0011
755.8225	-0.0078
755.9981	-0.0049
756.1736	0.0028
756.3492	0.0058
756.5248	-0.0036
756.7003	-0.0044
756.8758	0.0038
757.0513	-0.0121
757.2267	-0.0144
757.4022	-0.0009
757.5776	-0.0005
757.753	0.0118
757.9284	0.0005
758.1038	0.009
758.2791	0.0126
758.4545	-0.0073
758.6298	-0.0026
758.8051	0.0138
758.9803	0.005
759.1556	0.0002
759.3308	0.0098
759.506	0.0144
759.6812	0.0016
759.8564	0.0044
760.0316	-0.0043
760.2067	0.0089
760.3819	0.0066
760.557	0.0145
760.732	0.0009
760.9071	-0.0113
761.0821	0.004
761.2572	0.0098
761.4322	-0.0069
761.6072	-0.0036
761.7821	-0.0022
761.9571	0.0026
762.132	-0.0027
762.3069	-0.0046
762.4818	-0.0126
762.6567	-0.0021
762.8316	0.0028
763.0064	-0.002
763.1812	-0.0056
763.356	-0.0097
763.5308	-0.0122
763.7055	0.0056
763.8803	-0.0065
764.055	-0.003
764.2297	-0.0004
764.4044	-0.0189
764.579	-0.0121
764.7537	-0.0085
764.9283	-0.0019
765.1029	-0.0015
765.2775	-0.0143
765.4521	-0.0084
765.6266	-0.0153
765.8011	-0.0057
765.9756	-0.0052
766.1501	0.0084
766.3246	-0.0031
766.4991	-0.0074
766.6735	-0.0068
766.8479	-0.0119
767.0223	0.0118
767.1967	0.002
767.371	0.0037
767.5454	-0.0044
767.7197	0.0048
767.894	-0.0062
768.0683	-0.0115
768.2425	0.0033
768.4168	0.0036
768.591	-0.0059
768.7652	-0.0087
768.9394	-0.0065
769.1135	0.0015
769.2877	0.0042
769.4618	0.0065
769.6359	-0.0059
769.81	0.0018
769.984	-0.0047
770.1581	-0.0012
770.3321	-0.0011
770.5061	0.0021
770.6801	-0.0017
770.8541	0.0029
771.028	0.0107
771.202	-0.0139
771.3759	-0.0031
771.5498	-0.0127
771.7236	0.0078
771.8975	0.009
772.0713	0.0066
772.2451	0.0039
772.4189	0.0057
772.5927	0.0195
772.7665	0.0076
772.9402	-0.0066
773.1139	-0.0066
773.2876	-0.0157
773.4613	0.0094
773.635	0.0183
773.8086	0.0014
773.9822	-0.0012
774.1558	0.0044
774.3294	-0.0148
774.503	0.0081
774.6765	0.0029
774.8501	0.0151
775.0236	0.0125
775.1971	0.0089
775.3705	-0.0126
775.544	0.0078
775.7174	-0.0013
775.8908	0.0009
776.0642	-0.0012
776.2376	-0.0019
776.4109	-0.011
776.5843	0.0041
776.7576	0.0087
776.9309	0.001
777.1041	-0.0049
777.2774	-0.0049
777.4506	-0.0062
777.6238	-0.0069
777.797	0.0006
777.9702	-0.0085
778.1434	-0.0001
778.3165	-0.0044
778.4896	-0.0065
778.6627	0.012
778.8358	0.0039
779.0089	0.0104
779.1819	0.0058
779.3549	0.0173
779.5279	0.0205
779.7009	-0.003
779.8739	0.0075
780.0468	0.0084
780.2197	0.0097
780.3926	-0.0035
780.5655	0.0129
780.7384	0.0122
780.9112	-0.0005
781.0841	-0.0036
781.2569	0.0075
781.4297	0.0039
781.6024	0.0068
781.7752	0.0171
781.9479	0.01
782.1206	0.0031
782.2933	-0.0015
782.466	0.0094
782.6386	0.0067
782.8113	0.0053
782.9839	-0.0041
783.1565	0.0248
783.329	0.0022
783.5016	0.0074
783.6741	0.0044
783.8466	-0.0081
784.0191	0.0207
784.1916	-0.0016
784.3641	0.0184
784.5365	-0.0033
784.7089	-0.0156
784.8813	0.0087
785.0537	-0.0045
785.2261	-0.0113
785.3984	-0.0077
785.5707	-0.0043
785.743	0.0062
785.9153	-0.0109
786.0876	0.0063
786.2598	-0.0101
786.432	-0.0123
786.6042	0.0049
786.7764	-0.0004
786.9486	0.0047
787.1207	-0.0165
787.2928	0.0011
787.4649	0.0065
787.637	0.0076
787.8091	-0.011
787.9811	-0.0014
788.1532	0.0003
788.3252	0.0083
788.4972	-0.0063
788.6691	0.0018
788.8411	-0.0091
789.013	-0.0107
789.1849	0.0084
789.3568	-0.0091
789.5287	-0.0009
789.7005	-0.0068
789.8723	-0.0132
790.0442	0.017
790.2159	0.015
790.3877	0.0069
790.5595	-0.0061
790.7312	0.0044
790.9029	0.0029
791.0746	-0.0134
791.2463	-0.0036
791.4179	-0.01
791.5896	-0.0146
791.7612	0.0006
791.9328	0.0031
792.1044	-0.0184
792.2759	-0.0338
792.4474	-0.0024
792.619	-0.001
792.7905	-0.0037
792.9619	-0
793.1334	0.0014
793.3048	0.0178
793.4762	-0.0032
793.6476	0.0069
793.819	-0.0038
793.9904	0.014
794.1617	-0.0138
794.333	-0.0052
794.5043	-0.0089
794.6756	-0.0048
794.8469	-0.0052
795.0181	-0.0036
795.1893	-0.009
795.3605	0.0095
795.5317	-0.0128
795.7029	-0.0165
795.874	0.0015
796.0452	-0.007
796.2163	-0.0099
796.3873	0.0073
796.5584	-0.0033
796.7294	-0.0104
796.9005	0.0068
797.0715	-0.0057
797.2425	-0.0091
797.4134	-0.0099
797.5844	-0.0027
797.7553	-0.0202
797.9262	-0.0099
798.0971	-0.0137
798.2679	-0.0227
798.4388	-0.0236
798.6096	-0.0081
798.7804	-0.0085
798.9512	-0.009
799.122	-0.0071
799.2927	-0.0063
799.4635	0.0002
799.6342	-0.0267
799.8049	-0.0141
799.9755	-0.0134
800.1462	-0.015
800.3168	-0.0152
800.4874	-0.0152
800.658	0.0122
800.8286	-0.0092
800.9991	0.0102
801.1696	-0.0058
801.3402	0.0125
801.5106	-0.001
801.6811	-0.0098
801.8516	-0.0048
802.022	-0.0002
802.1924	0.0029
802.3628	-0.004
802.5332	-0.0026
802.7035	0.015
802.8739	-0.0144
803.0442	-0.0037
803.2145	-0.0057
803.3847	-0.028
803.555	-0.007
803.7252	-0.0181
803.8954	-0.0148
804.0656	-0.0305
804.2358	-0.0325
804.4059	-0.0104
804.5761	0.0069
804.7462	-0.0052
804.9163	-0.0227
805.0864	-0.0194
805.2564	-0.0268
805.4264	-0.0044
805.5965	-0.0115
805.7665	-0.0038
805.9364	-0.0123
806.1064	0.0321
806.2763	-0.0143
806.4462	0.0242
806.6161	-0.0054
806.786	0.0182
806.9559	-0.0147
807.1257	0.0099
807.2955	-0.0009
807.4653	-0.0135
807.6351	-0.0115
807.8048	-0.0127
807.9746	-0.0205
808.1443	-0.0077
808.314	-0.0043
808.4837	-0.0035
808.6533	-0.0143
808.8229	-0.0009
808.9926	-0.0076
809.1622	-0.0208
809.3317	-0.0296
809.5013	-0.0306
809.6708	0.002
809.8403	-0.0193
810.0098	-0.0035
810.1793	-0.011
810.3488	0.0089
810.5182	-0.0259
810.6876	0.0035
810.857	-0.0191
811.0264	0.0125
811.1958	0.0046
811.3651	-0.0003
811.5344	-0.005
811.7037	-0.0086
811.873	-0.0239
812.0422	-0.0137
812.2115	0
812.3807	-0.0132
812.5499	-0.0195
812.7191	-0.0075
812.8882	-0.0333
813.0574	-0.0215
813.2265	-0.0113
813.3956	-0.0088
813.5646	-0.0077
813.7337	-0.0235
813.9027	0.0044
814.0718	0.0203
814.2407	0.0131
814.4097	-0.0126
814.5787	-0.021
814.7476	-0.0067
814.9165	0.0113
815.0854	0.0102
815.2543	0.0073
815.4232	-0.0116
815.592	0.0105
815.7608	0.0006
815.9296	0.0294
816.0984	-0.0058
816.2671	0.0039
816.4359	0.0024
816.6046	-0.0034
816.7733	0.008
816.942	-0.0227
817.1106	-0.0063
817.2793	-0.0148
817.4479	0.0127
817.6165	0.0046
817.785	0.0028
817.9536	-0.0239
818.1221	-0.007
818.2906	0.0146
818.4591	-0.0116
818.6276	-0.023
818.7961	-0.0013
818.9645	0.0084
819.1329	-0.0043
819.3013	-0.0192
819.4697	-0.0029
819.638	-0.002
819.8064	-0.0173
819.9747	0.0067
820.143	-0.0241
820.3113	-0.0439
820.4795	-0.0228
820.6477	-0.0061
820.816	-0.0271
820.9842	-0.0176
821.1523	-0.0289
821.3205	-0.0334
821.4886	-0.027
821.6567	-0.0161
821.8248	0.0109
821.9929	0.0234
822.1609	-0.0086
822.329	0.0043
822.497	0.0132
822.665	0.002
822.833	-0.0252
823.0009	-0.0037
823.1688	0.0208
823.3367	0.0413
823.5046	-0.0008
823.6725	0.0203
823.8404	0.006
824.0082	0.0075
824.176	0.0144
824.3438	0.0216
824.5116	-0.0087
824.6793	0.0232
824.847	-0.007
825.0147	-0.0208
825.1824	0.0418
825.3501	0.01
825.5177	-0.0144
825.6854	-0.009
825.853	0.0072
826.0206	-0.0106
826.1881	0.0056
826.3557	-0.0149
826.5232	-0.0208
826.6907	-0.0561
826.8582	-0.0147
827.0257	-0.0163
827.1931	-0.0142
827.3605	-0.0177
827.528	-0.0209
827.6953	-0.0301
827.8627	-0.0192
828.03	0.0169
828.1974	0.0019
828.3647	-0.0275
828.532	0.006
828.6992	-0.0282
828.8665	-0.0366
829.0337	-0.0198
829.2009	0.0086
829.3681	0.0062
829.5352	0.0392
829.7024	-0.0497
829.8695	-0.0576
830.0366	0.0279
830.2037	0.0113
830.3707	0.01
830.5378	0.0169
830.7048	-0.0059
830.8718	-0.0546
831.0388	-0.0283
831.2057	0.039
831.3727	0.0352
831.5396	-0.0034
831.7065	-0.0447
831.8734	0.0148
832.0402	-0.0215
832.2071	-0.0089
832.3739	-0.0273
832.5407	-0.0238
832.7075	-0.0313
832.8742	-0.0342
833.041	-0.0643
833.2077	-0.0073
833.3744	0.0162
833.541	0.0135
833.7077	-0.0117
833.8743	-0.0303
834.0409	-0.0295
834.2075	-0.01
834.3741	-0.0079
834.5407	0.0175
834.7072	0.0051
834.8737	-0.0188
835.0402	0.0027
835.2067	-0.0189
835.3731	0.0273
835.5395	-0.0026
835.706	0.0072
835.8723	-0.0155
836.0387	0.0109
836.2051	-0.0177
836.3714	-0.0054
836.5377	0.0351
836.704	-0.0388
836.8703	-0.0181
837.0365	0.0111
837.2027	-0.0221
837.3689	0.0116
837.5351	-0.0212
837.7013	0.0034
837.8674	-0.0409
838.0335	-0.0143
838.1997	-0.0556
838.3657	-0.0561
838.5318	-0.0623
838.6978	0.0022
838.8639	0.0113
839.0299	-0.0496
839.1958	-0.0031
839.3618	0.0265
839.5277	-0.0217
839.6937	-0.0225
839.8596	-0.0357
840.0254	-0.021
840.1913	0.037
840.3571	0.0318
840.523	-0.0629
840.6888	-0.0849
840.8545	-0.0198
841.0203	-0.0197
841.186	0.0527
841.3517	0.0354
841.5174	0.0215
841.6831	-0.0309
841.8488	0.01
842.0144	-0.0257
842.18	0.0557
842.3456	-0.0093
842.5112	-0.013
842.6767	-0.0126
842.8422	0.0231
843.0077	-0.0346
843.1732	0.0059
843.3387	-0.0513
843.5042	0.0106
843.6696	0.0197
843.835	0.0033
844.0004	-0.0077
844.1657	-0.0365
844.3311	-0.0431
844.4964	-0.0633
844.6617	-0.0782
844.827	-0.0504
844.9923	-0.0057
845.1575	-0.0036
845.3227	-0.0312
845.4879	-0.0479
845.6531	-0.0066
845.8183	-0.087
845.9834	0.0038
846.1485	0.0532
846.3136	-0.0247
846.4787	-0.0884
846.6438	0.022
846.8088	0.0359
846.9738	-0.0349
847.1388	-0.0378
847.3038	0.0015
847.4687	-0.1539
847.6337	0.0508
847.7986	-0.0182
847.9635	-0.0654
848.1284	0.0775
848.2932	0.1182
848.458	-0.0528
848.6228	0.0839
848.7876	0.1079
848.9524	-0.0299
849.1172	-0.1187
849.2819	-0.0574
849.4466	-0.0835
849.6113	-0.1139
849.7759	-0.0948
849.9406	-0.0217
850.1052	0.0753
850.2698	0.048
850.4344	-0.0412
850.599	-0.0837
850.7635	0.0941
850.928	-0.0639
851.0925	0.0618
851.257	0.0467
851.4215	0.0015
851.5859	-0.0193
851.7503	0.0401
851.9147	0.0396
852.0791	-0.092
852.2434	-0.0904
852.4078	0.0221
852.5721	0.0016
852.7364	-0.0101
852.9007	-0.0289
853.0649	-0.0059
853.2291	-0.0336
853.3934	-0.0247
853.5575	0.1861
853.7217	-0.0163
853.8859	-0.1592
854.05	-0.101
854.2141	-0.0583
854.3782	-0.0583
854.5423	-0.0994
854.7063	0.1647
854.8703	0.0084
855.0343	-0.1295
855.1983	-0.0242
855.3623	0.1223
855.5262	0.0982
855.6901	-0.0144
855.854	0.0083
856.0179	0.0517
856.1818	0.0693
856.3456	-0.045
856.5094	-0.1134
856.6732	-0.0173
856.837	0.1116
857.0008	0.1499
857.1645	-0.0433
857.3282	-0.1628
857.4919	0.0842
857.6556	0.0758
857.8192	0.0066
857.9828	-0.0608
858.1465	-0.0374
858.31	-0.2109
858.4736	-0.075
858.6372	-0.2522
858.8007	-0.2498
858.9642	-0.1013
859.1277	0.1365
859.2911	-0.0874
859.4546	0.0357
859.618	-0.2526
859.7814	-0.0507
859.9448	-0.0862
860.1081	-0.0053
860.2715	0.1522
860.4348	-0.1337
860.5981	0.131
860.7614	-0.0873
860.9246	0.0078
861.0879	0.0822
861.2511	0.1116
861.4143	-0.399
861.5774	0.2203
861.7406	-0.2312
861.9037	0.0596
862.0668	0.0275
862.2299	-0.1899
862.393	-0.5705
862.556	-0.0289
862.7191	-0.2234
862.8821	-0.1692
863.0451	0.1981
863.208	0.103
863.371	-0.0923
863.5339	-0.2519
863.6968	0.015
863.8597	0.2771
864.0225	-0.081
864.1854	-0.0744
864.3482	-0.0346
864.511	0.3818
864.6737	-0.0887
864.8365	1.0515
864.9992	0.6149
865.1619	-0.4743
865.3246	1.4126
865.4873	-0.1345
865.65	0.3303
865.8126	0.1715
865.9752	0.1469
866.1378	0.1406
866.3004	0.7805
866.4629	0.2666
866.6254	-0.1277
866.7879	0.5036
866.9504	-0.0246
867.1129	-0
867.2753	0.6127
867.4377	-0.021
867.6001	-0.4121
867.7625	0.4889
867.9249	-0.5528
868.0872	-0.1001
868.2495	0.2767
868.4118	-0.3964
868.5741	1.0182
868.7363	-0.0934
868.8986	-0.3446
869.0608	-0.0679
869.223	0.2576
869.3851	-0.1078
869.5473	-0
869.7094	0.071
869.8715	-0
870.0336	-0
870.1957	-0.4865
870.3577	-0.9629
870.5197	-0.1813
870.6817	-0.3292
870.8437	-0.1162
871.0057	-0
871.1676	-0
871.3295	-0.1056
871.4914	-0
871.6533	-0.4096
871.8151	-0.5088
871.977	-0.4004
872.1388	-0
872.3006	-0
872.4623	-0
872.6241	0.1883
872.7858	-0
872.9475	0.2614
873.1092	-0.2319
873.2709	-0.3104
873.4325	0.0125
873.5941	0.7121
873.7557	-0
873.9173	-0
874.0789	-0.2777
874.2404	-0
874.4019	0.0811
874.5634	-0.0703
874.7249	-0.1404
874.8863	0.2097
875.0478	-0.0619
875.2092	-0
875.3706	0.0099
875.5319	-0.8685
875.6933	-0.3643
875.8546	-0.6528
876.0159	0.2626
876.1772	0.2337
876.3385	-0
876.4997	0.045
876.6609	-0.4128
876.8221	-0
876.9833	0.7884
877.1445	-0
877.3056	0.1726
877.4667	0.3794
877.6278	-0
877.7889	-0.4875
877.9499	-0
878.111	-0
878.272	-0
878.433	-0
878.5939	-0
878.7549	0.1086
878.9158	-1.1008
879.0767	-0
879.2376	-0
879.3984	0.6124
879.5593	-0
879.7201	-0.1421
879.8809	-0.8001
880.0417	-0
880.2024	-0
880.3632	-0
880.5239	0.1225
880.6846	-0
880.8452	-1.7853
881.0059	-0
881.1665	-0.1603
881.3271	-0.1298
881.4877	-0.2014
881.6483	-0.4844
881.8088	-0.0392
881.9693	-0
882.1298	-0
882.2903	-0
