Data from MonoPyChalIsomerACN10uM420nmA_Absorbance_15-09-58-134.txt Node
Date: Fri Jul 05 15:09:58 BST 2024
User: LASERRRRR
Spectrometer: FLMT03099
Trigger mode: 0
Integration Time (sec): 1.000000E-1
Scans to average: 1
Electric dark correction enabled: true
Nonlinearity correction enabled: false
Boxcar width: 0
XAxis mode: Wavelengths
Number of Pixels in Spectrum: 3648
>>>>>Begin Spectral Data<<<<<
179.3399	-0.0363
179.5586	-0.0363
179.7771	-0.0363
179.9957	-0
180.2143	-0
180.4329	1.4386
180.6514	-0
180.8699	-0
181.0885	-0.1982
181.307	0.1712
181.5255	-0.9605
181.744	-0.5471
181.9625	-0.0432
182.181	-0
182.3994	0.6703
182.6179	-0
182.8363	0.4126
183.0547	-0.2246
183.2732	-0.0225
183.4916	0.1412
183.71	0.117
183.9284	-0.0634
184.1467	-0.213
184.3651	-0.0441
184.5835	-0.0337
184.8018	-0.1046
185.0201	0.0422
185.2385	-0.0947
185.4568	-0.0479
185.6751	-0.0874
185.8934	0.0648
186.1117	-0.0028
186.3299	-0.0135
186.5482	0.1072
186.7664	-0.1154
186.9847	-0.0819
187.2029	0.0873
187.4211	0.0884
187.6393	0.2252
187.8575	-0.0798
188.0757	0.3848
188.2939	0.061
188.512	-0.051
188.7302	-0.0979
188.9483	-0.0293
189.1665	0.132
189.3846	-0.2652
189.6027	0.0406
189.8208	-0.0397
190.0389	0.1612
190.257	0.2257
190.475	0.088
190.6931	0.225
190.9111	0.2794
191.1292	0.099
191.3472	0.3345
191.5652	0.2781
191.7832	0.0663
192.0012	0.4489
192.2192	0.2621
192.4371	0.4779
192.6551	0.3592
192.873	0.3336
193.091	0.3157
193.3089	0.516
193.5268	0.4745
193.7447	0.5928
193.9626	0.6276
194.1805	0.485
194.3984	0.7511
194.6162	0.7116
194.8341	0.5345
195.0519	0.6049
195.2697	0.7127
195.4875	0.6491
195.7054	0.4518
195.9231	0.5379
196.1409	0.5608
196.3587	0.4536
196.5765	0.6025
196.7942	0.4992
197.012	0.4952
197.2297	0.5842
197.4474	0.6046
197.6651	0.5584
197.8828	0.6252
198.1005	0.5702
198.3182	0.6404
198.5358	0.5936
198.7535	0.6001
198.9711	0.5085
199.1888	0.7214
199.4064	0.7089
199.624	0.5498
199.8416	0.6413
200.0592	0.5232
200.2767	0.698
200.4943	0.8079
200.7119	0.6497
200.9294	0.5273
201.1469	0.7094
201.3645	0.5787
201.582	0.5274
201.7995	0.6555
202.017	0.6319
202.2344	0.6211
202.4519	0.7416
202.6694	0.6393
202.8868	0.6495
203.1042	0.7112
203.3217	0.7421
203.5391	0.5493
203.7565	0.6374
203.9739	0.6307
204.1913	0.6578
204.4086	0.6899
204.626	0.6332
204.8433	0.6097
205.0607	0.6363
205.278	0.5907
205.4953	0.6508
205.7126	0.7226
205.9299	0.6304
206.1472	0.6823
206.3644	0.5975
206.5817	0.6646
206.7989	0.6349
207.0162	0.6731
207.2334	0.7305
207.4506	0.6527
207.6678	0.6375
207.885	0.6023
208.1022	0.6348
208.3194	0.6488
208.5365	0.6338
208.7537	0.6133
208.9708	0.5951
209.1879	0.6632
209.405	0.5911
209.6222	0.6139
209.8392	0.6334
210.0563	0.6479
210.2734	0.6904
210.4905	0.6436
210.7075	0.6124
210.9245	0.5641
211.1416	0.6959
211.3586	0.6954
211.5756	0.5898
211.7926	0.5837
212.0096	0.5832
212.2265	0.5712
212.4435	0.5835
212.6604	0.5952
212.8774	0.5875
213.0943	0.5755
213.3112	0.5949
213.5281	0.5564
213.745	0.4994
213.9619	0.4961
214.1788	0.4871
214.3956	0.4952
214.6125	0.4613
214.8293	0.4517
215.0461	0.4838
215.2629	0.4538
215.4798	0.5059
215.6965	0.4408
215.9133	0.4247
216.1301	0.4346
216.3469	0.4158
216.5636	0.3789
216.7803	0.4072
216.9971	0.4276
217.2138	0.3835
217.4305	0.4147
217.6472	0.3528
217.8639	0.3787
218.0805	0.3286
218.2972	0.3281
218.5138	0.3291
218.7305	0.3168
218.9471	0.2949
219.1637	0.3011
219.3803	0.2585
219.5969	0.265
219.8135	0.2397
220.0301	0.2713
220.2466	0.2792
220.4632	0.2466
220.6797	0.2256
220.8962	0.2451
221.1127	0.2366
221.3292	0.2403
221.5457	0.2412
221.7622	0.2308
221.9787	0.2521
222.1951	0.2184
222.4116	0.2513
222.628	0.2379
222.8444	0.2388
223.0608	0.2175
223.2772	0.2556
223.4936	0.2423
223.71	0.2579
223.9264	0.2367
224.1427	0.2341
224.3591	0.2187
224.5754	0.2721
224.7917	0.2517
225.008	0.2739
225.2243	0.2423
225.4406	0.2754
225.6569	0.27
225.8732	0.2415
226.0894	0.2724
226.3057	0.2521
226.5219	0.2874
226.7381	0.2492
226.9543	0.2744
227.1705	0.2683
227.3867	0.2783
227.6029	0.2855
227.8191	0.2699
228.0352	0.2743
228.2513	0.3004
228.4675	0.2797
228.6836	0.3118
228.8997	0.2851
229.1158	0.3023
229.3319	0.3045
229.548	0.3046
229.764	0.3205
229.9801	0.3368
230.1961	0.3117
230.4121	0.3339
230.6282	0.3339
230.8442	0.3238
231.0602	0.3359
231.2761	0.3348
231.4921	0.3321
231.7081	0.343
231.924	0.3346
232.14	0.3458
232.3559	0.3399
232.5718	0.3561
232.7877	0.3648
233.0036	0.3537
233.2195	0.3625
233.4353	0.3561
233.6512	0.3523
233.867	0.3711
234.0829	0.3592
234.2987	0.3518
234.5145	0.3681
234.7303	0.3564
234.9461	0.372
235.1619	0.3778
235.3776	0.3666
235.5934	0.3856
235.8091	0.3472
236.0249	0.3684
236.2406	0.3922
236.4563	0.363
236.672	0.3776
236.8877	0.392
237.1034	0.3817
237.319	0.3785
237.5347	0.3951
237.7503	0.3837
237.966	0.4012
238.1816	0.3799
238.3972	0.3988
238.6128	0.3868
238.8284	0.4039
239.0439	0.4259
239.2595	0.389
239.475	0.4005
239.6906	0.4072
239.9061	0.3972
240.1216	0.3956
240.3371	0.4181
240.5526	0.3912
240.7681	0.4038
240.9836	0.3768
241.199	0.4001
241.4145	0.3922
241.6299	0.4045
241.8453	0.3877
242.0607	0.3901
242.2761	0.3906
242.4915	0.3854
242.7069	0.3892
242.9223	0.3937
243.1376	0.3767
243.353	0.3728
243.5683	0.3827
243.7836	0.3379
243.9989	0.3527
244.2142	0.353
244.4295	0.3544
244.6448	0.3407
244.86	0.315
245.0753	0.3132
245.2905	0.315
245.5057	0.3046
245.721	0.3074
245.9362	0.2887
246.1514	0.3063
246.3665	0.2802
246.5817	0.2827
246.7969	0.27
247.012	0.2762
247.2271	0.2664
247.4423	0.2695
247.6574	0.2603
247.8725	0.2378
248.0876	0.2486
248.3026	0.2541
248.5177	0.2441
248.7328	0.2373
248.9478	0.2334
249.1628	0.2348
249.3779	0.2353
249.5929	0.2292
249.8079	0.2406
250.0228	0.2197
250.2378	0.2241
250.4528	0.2253
250.6677	0.1966
250.8827	0.2144
251.0976	0.2126
251.3125	0.1956
251.5274	0.1925
251.7423	0.1904
251.9572	0.1973
252.172	0.1795
252.3869	0.1951
252.6017	0.2043
252.8166	0.1893
253.0314	0.1696
253.2462	0.182
253.461	0.1913
253.6758	0.182
253.8906	0.1821
254.1053	0.1676
254.3201	0.1866
254.5348	0.1985
254.7496	0.1765
254.9643	0.1745
255.179	0.1768
255.3937	0.1798
255.6083	0.1825
255.823	0.1711
256.0377	0.1741
256.2523	0.1769
256.467	0.1518
256.6816	0.1849
256.8962	0.1623
257.1108	0.1762
257.3254	0.1726
257.54	0.1629
257.7545	0.1777
257.9691	0.1855
258.1836	0.1693
258.3981	0.1856
258.6127	0.1742
258.8272	0.1681
259.0417	0.1583
259.2561	0.1758
259.4706	0.1663
259.6851	0.1751
259.8995	0.1745
260.114	0.1713
260.3284	0.1664
260.5428	0.1623
260.7572	0.1825
260.9716	0.171
261.186	0.1626
261.4003	0.1602
261.6147	0.1799
261.829	0.1626
262.0433	0.1806
262.2577	0.1618
262.472	0.1794
262.6863	0.171
262.9005	0.1653
263.1148	0.1749
263.3291	0.1586
263.5433	0.1628
263.7576	0.1813
263.9718	0.1612
264.186	0.173
264.4002	0.1694
264.6144	0.1767
264.8286	0.1847
265.0427	0.1751
265.2569	0.1684
265.471	0.1699
265.6851	0.1712
265.8993	0.1649
266.1134	0.1671
266.3275	0.1728
266.5415	0.1703
266.7556	0.168
266.9697	0.1704
267.1837	0.184
267.3978	0.1818
267.6118	0.1714
267.8258	0.18
268.0398	0.1731
268.2538	0.1793
268.4677	0.1937
268.6817	0.1797
268.8957	0.178
269.1096	0.1762
269.3235	0.1949
269.5374	0.1757
269.7514	0.1755
269.9652	0.1729
270.1791	0.1647
270.393	0.1747
270.6068	0.1768
270.8207	0.1663
271.0345	0.1574
271.2483	0.181
271.4622	0.163
271.676	0.1662
271.8897	0.1626
272.1035	0.1656
272.3173	0.1591
272.531	0.1645
272.7448	0.1651
272.9585	0.164
273.1722	0.1782
273.3859	0.1689
273.5996	0.1616
273.8133	0.1686
274.0269	0.169
274.2406	0.1668
274.4542	0.1791
274.6679	0.1606
274.8815	0.1716
275.0951	0.1748
275.3087	0.1776
275.5223	0.1888
275.7358	0.176
275.9494	0.1766
276.1629	0.1672
276.3765	0.171
276.59	0.1736
276.8035	0.1754
277.017	0.1693
277.2305	0.1689
277.444	0.1801
277.6574	0.1677
277.8709	0.1712
278.0843	0.1608
278.2978	0.1737
278.5112	0.1674
278.7246	0.1759
278.938	0.1759
279.1513	0.1823
279.3647	0.1867
279.5781	0.1822
279.7914	0.168
280.0047	0.1869
280.2181	0.1707
280.4314	0.1665
280.6447	0.1728
280.8579	0.1785
281.0712	0.1887
281.2845	0.1766
281.4977	0.1677
281.711	0.1604
281.9242	0.17
282.1374	0.1808
282.3506	0.1727
282.5638	0.1821
282.7769	0.1752
282.9901	0.1747
283.2033	0.1824
283.4164	0.1713
283.6295	0.1762
283.8426	0.1702
284.0557	0.1638
284.2688	0.1756
284.4819	0.1728
284.695	0.1692
284.908	0.1834
285.1211	0.1687
285.3341	0.172
285.5471	0.1771
285.7601	0.1707
285.9731	0.1532
286.1861	0.1591
286.3991	0.1788
286.612	0.1721
286.825	0.1671
287.0379	0.1789
287.2508	0.1534
287.4637	0.1698
287.6766	0.1606
287.8895	0.1648
288.1024	0.1767
288.3152	0.1669
288.5281	0.1565
288.7409	0.1544
288.9538	0.159
289.1666	0.1638
289.3794	0.1531
289.5922	0.1559
289.8049	0.153
290.0177	0.1492
290.2304	0.1506
290.4432	0.1638
290.6559	0.1564
290.8686	0.1596
291.0813	0.1462
291.294	0.1391
291.5067	0.1578
291.7194	0.1483
291.932	0.1624
292.1447	0.1564
292.3573	0.1483
292.5699	0.1365
292.7825	0.1515
292.9951	0.1538
293.2077	0.1485
293.4203	0.1405
293.6328	0.1377
293.8454	0.1468
294.0579	0.147
294.2704	0.1446
294.4829	0.1498
294.6954	0.1447
294.9079	0.1469
295.1204	0.1501
295.3328	0.1402
295.5453	0.1468
295.7577	0.1448
295.9701	0.137
296.1825	0.1513
296.3949	0.1428
296.6073	0.1535
296.8197	0.1372
297.0321	0.1471
297.2444	0.1446
297.4567	0.1447
297.6691	0.1385
297.8814	0.1274
298.0937	0.1409
298.306	0.1407
298.5182	0.1446
298.7305	0.1566
298.9428	0.1443
299.155	0.1408
299.3672	0.1438
299.5794	0.1416
299.7916	0.1477
300.0038	0.1471
300.216	0.1398
300.4282	0.1481
300.6403	0.1451
300.8525	0.1452
301.0646	0.1373
301.2767	0.1374
301.4888	0.1528
301.7009	0.1374
301.913	0.1424
302.125	0.1479
302.3371	0.1361
302.5491	0.1389
302.7612	0.1403
302.9732	0.1508
303.1852	0.1498
303.3972	0.1413
303.6092	0.1401
303.8211	0.136
304.0331	0.1368
304.245	0.1372
304.457	0.1305
304.6689	0.1323
304.8808	0.1546
305.0927	0.1393
305.3046	0.1385
305.5164	0.1416
305.7283	0.1276
305.9401	0.1304
306.152	0.1407
306.3638	0.1317
306.5756	0.1314
306.7874	0.1257
306.9992	0.1324
307.2109	0.136
307.4227	0.1276
307.6344	0.1442
307.8462	0.121
308.0579	0.1326
308.2696	0.1228
308.4813	0.1212
308.693	0.1296
308.9046	0.1263
309.1163	0.1166
309.328	0.1238
309.5396	0.1125
309.7512	0.1343
309.9628	0.121
310.1744	0.1151
310.386	0.1225
310.5976	0.1107
310.8091	0.1265
311.0207	0.1142
311.2322	0.1297
311.4437	0.1177
311.6552	0.1118
311.8667	0.1114
312.0782	0.1086
312.2897	0.1042
312.5012	0.1181
312.7126	0.1097
312.924	0.1062
313.1355	0.1192
313.3469	0.1138
313.5583	0.12
313.7696	0.1166
313.981	0.1118
314.1924	0.1206
314.4037	0.1221
314.6151	0.1242
314.8264	0.1083
315.0377	0.1034
315.249	0.1082
315.4603	0.1192
315.6716	0.1128
315.8828	0.1004
316.0941	0.1277
316.3053	0.1067
316.5165	0.1053
316.7277	0.1091
316.9389	0.1219
317.1501	0.105
317.3613	0.1189
317.5724	0.1014
317.7836	0.1165
317.9947	0.1177
318.2058	0.1174
318.417	0.1049
318.6281	0.105
318.8391	0.097
319.0502	0.1102
319.2613	0.1173
319.4723	0.1192
319.6834	0.1179
319.8944	0.1018
320.1054	0.1256
320.3164	0.1096
320.5274	0.1115
320.7383	0.1101
320.9493	0.1128
321.1602	0.1198
321.3712	0.1023
321.5821	0.1218
321.793	0.1178
322.0039	0.1109
322.2148	0.1146
322.4257	0.1166
322.6365	0.1219
322.8474	0.1146
323.0582	0.1121
323.269	0.1133
323.4798	0.1407
323.6906	0.1307
323.9014	0.1149
324.1122	0.1209
324.3229	0.1107
324.5337	0.1265
324.7444	0.1161
324.9551	0.1265
325.1658	0.1164
325.3765	0.1327
325.5872	0.1185
325.7979	0.1188
326.0085	0.1269
326.2192	0.1289
326.4298	0.1207
326.6404	0.1168
326.851	0.119
327.0616	0.1172
327.2722	0.1314
327.4828	0.1229
327.6933	0.1297
327.9039	0.1302
328.1144	0.1292
328.3249	0.1263
328.5354	0.1159
328.7459	0.1258
328.9564	0.1306
329.1669	0.1327
329.3773	0.1359
329.5878	0.1313
329.7982	0.1167
330.0086	0.1239
330.219	0.1322
330.4294	0.128
330.6398	0.1275
330.8502	0.1124
331.0605	0.1336
331.2708	0.1193
331.4812	0.1371
331.6915	0.1424
331.9018	0.1233
332.1121	0.1178
332.3224	0.1227
332.5326	0.1302
332.7429	0.1352
332.9531	0.1393
333.1633	0.1317
333.3735	0.1272
333.5837	0.1263
333.7939	0.1265
334.0041	0.1353
334.2143	0.1332
334.4244	0.1337
334.6346	0.1079
334.8447	0.1368
335.0548	0.1222
335.2649	0.1196
335.475	0.1311
335.685	0.1111
335.8951	0.1291
336.1051	0.1424
336.3152	0.1433
336.5252	0.1173
336.7352	0.1434
336.9452	0.1304
337.1552	0.1359
337.3652	0.1371
337.5751	0.1415
337.7851	0.128
337.995	0.1181
338.2049	0.1323
338.4148	0.1348
338.6247	0.1324
338.8346	0.1248
339.0445	0.1277
339.2543	0.1375
339.4642	0.1325
339.674	0.1322
339.8838	0.1306
340.0936	0.1244
340.3034	0.1466
340.5132	0.1396
340.7229	0.1322
340.9327	0.1413
341.1424	0.1365
341.3522	0.1501
341.5619	0.1342
341.7716	0.1438
341.9813	0.132
342.1909	0.1276
342.4006	0.1471
342.6102	0.1442
342.8199	0.1456
343.0295	0.1415
343.2391	0.1348
343.4487	0.1489
343.6583	0.1482
343.8679	0.1433
344.0774	0.1382
344.287	0.142
344.4965	0.145
344.706	0.1426
344.9155	0.1387
345.125	0.134
345.3345	0.1446
345.544	0.1418
345.7534	0.1392
345.9629	0.1445
346.1723	0.1368
346.3817	0.1413
346.5911	0.1452
346.8005	0.1599
347.0099	0.1478
347.2193	0.1522
347.4286	0.1511
347.638	0.149
347.8473	0.1543
348.0566	0.1617
348.2659	0.1584
348.4752	0.1471
348.6845	0.1348
348.8937	0.1383
349.103	0.1567
349.3122	0.1299
349.5214	0.1573
349.7306	0.1552
349.9398	0.1359
350.149	0.1477
350.3582	0.1354
350.5674	0.1654
350.7765	0.1539
350.9856	0.1437
351.1948	0.1476
351.4039	0.1329
351.613	0.1472
351.822	0.1498
352.0311	0.1552
352.2402	0.1438
352.4492	0.1446
352.6582	0.154
352.8672	0.151
353.0762	0.1596
353.2852	0.154
353.4942	0.1613
353.7032	0.1591
353.9121	0.1494
354.1211	0.1544
354.33	0.1489
354.5389	0.1627
354.7478	0.1477
354.9567	0.1525
355.1655	0.1467
355.3744	0.1663
355.5833	0.1679
355.7921	0.1765
356.0009	0.1691
356.2097	0.1587
356.4185	0.1718
356.6273	0.1709
356.8361	0.1742
357.0448	0.1685
357.2536	0.1621
357.4623	0.172
357.671	0.1633
357.8797	0.171
358.0884	0.1705
358.2971	0.1501
358.5057	0.1616
358.7144	0.1716
358.923	0.1734
359.1316	0.1668
359.3402	0.1582
359.5488	0.161
359.7574	0.1526
359.966	0.1726
360.1746	0.1802
360.3831	0.1703
360.5916	0.1595
360.8002	0.1648
361.0087	0.1753
361.2172	0.1713
361.4256	0.1749
361.6341	0.1813
361.8426	0.179
362.051	0.1766
362.2594	0.1647
362.4678	0.1655
362.6762	0.1912
362.8846	0.1791
363.093	0.1761
363.3014	0.1716
363.5097	0.1577
363.718	0.1784
363.9264	0.1664
364.1347	0.1706
364.343	0.174
364.5513	0.1854
364.7595	0.1761
364.9678	0.1934
365.176	0.1899
365.3842	0.1787
365.5925	0.1818
365.8007	0.1714
366.0089	0.1773
366.217	0.1617
366.4252	0.1903
366.6333	0.1862
366.8415	0.1801
367.0496	0.1612
367.2577	0.1937
367.4658	0.1957
367.6739	0.1818
367.882	0.1842
368.09	0.187
368.2981	0.1854
368.5061	0.1708
368.7141	0.1886
368.9221	0.193
369.1301	0.1896
369.3381	0.1763
369.5461	0.1726
369.754	0.1889
369.962	0.183
370.1699	0.194
370.3778	0.1849
370.5857	0.1828
370.7936	0.1636
371.0015	0.1918
371.2093	0.1725
371.4172	0.1926
371.625	0.1688
371.8328	0.1847
372.0406	0.1695
372.2484	0.1852
372.4562	0.2017
372.664	0.1969
372.8717	0.1932
373.0795	0.1676
373.2872	0.1859
373.4949	0.197
373.7026	0.1822
373.9103	0.1968
374.118	0.1886
374.3256	0.1844
374.5333	0.186
374.7409	0.1875
374.9485	0.1953
375.1561	0.196
375.3637	0.1889
375.5713	0.1984
375.7789	0.1915
375.9864	0.1816
376.194	0.1904
376.4015	0.2054
376.609	0.1833
376.8165	0.1965
377.024	0.1797
377.2315	0.1806
377.4389	0.1838
377.6464	0.1973
377.8538	0.1773
378.0612	0.1812
378.2686	0.1913
378.476	0.2129
378.6834	0.2003
378.8908	0.1988
379.0981	0.1901
379.3055	0.1778
379.5128	0.1876
379.7201	0.1812
379.9274	0.1901
380.1347	0.1994
380.342	0.2017
380.5492	0.1922
380.7565	0.1979
380.9637	0.1951
381.1709	0.2008
381.3781	0.1992
381.5853	0.1998
381.7925	0.1932
381.9997	0.204
382.2068	0.2148
382.4139	0.2032
382.6211	0.1718
382.8282	0.2022
383.0353	0.1938
383.2424	0.1942
383.4494	0.1884
383.6565	0.1764
383.8635	0.181
384.0706	0.1813
384.2776	0.1956
384.4846	0.1879
384.6916	0.1777
384.8986	0.1858
385.1055	0.2002
385.3125	0.1932
385.5194	0.1905
385.7263	0.2082
385.9333	0.1929
386.1402	0.1907
386.347	0.1889
386.5539	0.1841
386.7608	0.2036
386.9676	0.1828
387.1744	0.1891
387.3813	0.1867
387.5881	0.1816
387.7948	0.1927
388.0016	0.1865
388.2084	0.1882
388.4151	0.1823
388.6219	0.1863
388.8286	0.1788
389.0353	0.2062
389.242	0.189
389.4487	0.1859
389.6553	0.1725
389.862	0.1667
390.0686	0.1696
390.2753	0.1934
390.4819	0.1745
390.6885	0.17
390.8951	0.1744
391.1016	0.1704
391.3082	0.1654
391.5147	0.1725
391.7213	0.1745
391.9278	0.1629
392.1343	0.1639
392.3408	0.1617
392.5473	0.1746
392.7537	0.167
392.9602	0.1635
393.1666	0.1818
393.373	0.1652
393.5794	0.1836
393.7858	0.171
393.9922	0.1483
394.1986	0.173
394.4049	0.1662
394.6113	0.1554
394.8176	0.1484
395.0239	0.1515
395.2302	0.1524
395.4365	0.1612
395.6428	0.1521
395.8491	0.1465
396.0553	0.1599
396.2615	0.15
396.4678	0.1525
396.674	0.1419
396.8802	0.1506
397.0863	0.1769
397.2925	0.1537
397.4987	0.1507
397.7048	0.1531
397.9109	0.1646
398.117	0.1438
398.3231	0.1468
398.5292	0.1554
398.7353	0.1593
398.9413	0.1442
399.1474	0.1438
399.3534	0.1455
399.5594	0.1433
399.7654	0.1694
399.9714	0.1661
400.1774	0.1488
400.3833	0.145
400.5893	0.1498
400.7952	0.1506
401.0011	0.1395
401.207	0.1442
401.4129	0.13
401.6188	0.1548
401.8247	0.1525
402.0305	0.1226
402.2364	0.1465
402.4422	0.1589
402.648	0.1633
402.8538	0.1459
403.0596	0.1587
403.2654	0.1395
403.4711	0.1596
403.6768	0.1391
403.8826	0.1494
404.0883	0.1584
404.294	0.1517
404.4997	0.1629
404.7054	0.1472
404.911	0.1398
405.1167	0.1356
405.3223	0.1643
405.5279	0.1431
405.7335	0.1638
405.9391	0.1586
406.1447	0.147
406.3502	0.1523
406.5558	0.1421
406.7613	0.1478
406.9668	0.1603
407.1724	0.1377
407.3778	0.1355
407.5833	0.1297
407.7888	0.1369
407.9942	0.1529
408.1997	0.1256
408.4051	0.1309
408.6105	0.1445
408.8159	0.1205
409.0213	0.1465
409.2267	0.161
409.432	0.1233
409.6374	0.1422
409.8427	0.149
410.048	0.1539
410.2533	0.1446
410.4586	0.132
410.6639	0.1233
410.8691	0.1257
411.0744	0.1363
411.2796	0.1269
411.4848	0.1423
411.69	0.1472
411.8952	0.1575
412.1004	0.1234
412.3056	0.1415
412.5107	0.1227
412.7158	0.1619
412.921	0.1437
413.1261	0.128
413.3312	0.1405
413.5362	0.1208
413.7413	0.1337
413.9464	0.1477
414.1514	0.1192
414.3564	0.1185
414.5614	0.1233
414.7664	0.1317
414.9714	0.1427
415.1764	0.1374
415.3813	0.1463
415.5863	0.1406
415.7912	0.1409
415.9961	0.1396
416.201	0.126
416.4059	0.1379
416.6108	0.1129
416.8156	0.1385
417.0205	0.1383
417.2253	0.1203
417.4301	0.1479
417.6349	0.144
417.8397	0.1184
418.0445	0.1452
418.2492	0.1383
418.454	0.1392
418.6587	0.1357
418.8634	0.1266
419.0681	0.1273
419.2728	0.119
419.4775	0.1421
419.6822	0.1197
419.8868	0.1104
420.0915	0.1231
420.2961	0.1162
420.5007	0.1135
420.7053	0.1284
420.9099	0.1334
421.1144	0.1203
421.319	0.117
421.5235	0.1217
421.728	0.1269
421.9325	0.1193
422.137	0.1474
422.3415	0.1257
422.546	0.1256
422.7504	0.1176
422.9549	0.1305
423.1593	0.1209
423.3637	0.1199
423.5681	0.1208
423.7725	0.1164
423.9769	0.1107
424.1812	0.1021
424.3856	0.1205
424.5899	0.1059
424.7942	0.1211
424.9985	0.1152
425.2028	0.1104
425.4071	0.1222
425.6113	0.0996
425.8156	0.1068
426.0198	0.1106
426.224	0.089
426.4282	0.1103
426.6324	0.1011
426.8366	0.0857
427.0407	0.1205
427.2449	0.0939
427.449	0.1435
427.6531	0.0824
427.8572	0.0954
428.0613	0.0944
428.2654	0.0923
428.4694	0.0996
428.6735	0.0981
428.8775	0.1152
429.0815	0.1166
429.2855	0.0806
429.4895	0.1076
429.6935	0.0976
429.8975	0.1063
430.1014	0.0933
430.3053	0.0886
430.5093	0.0937
430.7132	0.0757
430.9171	0.0834
431.1209	0.0915
431.3248	0.0832
431.5286	0.0998
431.7325	0.0894
431.9363	0.0884
432.1401	0.0887
432.3439	0.0807
432.5477	0.064
432.7514	0.0705
432.9552	0.074
433.1589	0.0786
433.3627	0.0704
433.5664	0.0725
433.7701	0.07
433.9737	0.0649
434.1774	0.0825
434.3811	0.0702
434.5847	0.0824
434.7883	0.0927
434.9919	0.0768
435.1955	0.0658
435.3991	0.0611
435.6027	0.0783
435.8062	0.0767
436.0098	0.066
436.2133	0.0572
436.4168	0.0609
436.6203	0.0419
436.8238	0.0575
437.0272	0.0616
437.2307	0.0633
437.4341	0.0847
437.6375	0.0786
437.841	0.0523
438.0443	0.0734
438.2477	0.0553
438.4511	0.0459
438.6545	0.0681
438.8578	0.066
439.0611	0.0619
439.2644	0.0573
439.4677	0.0482
439.671	0.0372
439.8743	0.0502
440.0775	0.0504
440.2808	0.0347
440.484	0.0342
440.6872	0.0276
440.8904	0.0423
441.0936	0.0646
441.2967	0.0333
441.4999	0.0512
441.703	0.0281
441.9062	0.0381
442.1093	0.0421
442.3124	0.0494
442.5155	0.0303
442.7185	0.0363
442.9216	0.0107
443.1246	0.048
443.3276	0.0335
443.5307	0.0377
443.7337	0.0454
443.9366	0.039
444.1396	0.0286
444.3426	0.0351
444.5455	0.0324
444.7484	0.026
444.9513	0.0146
445.1542	0.0402
445.3571	0.0314
445.56	0.0359
445.7628	0.0221
445.9657	0.0147
446.1685	0.0462
446.3713	0.022
446.5741	0.0431
446.7769	0.0124
446.9797	0.0337
447.1824	0.0287
447.3852	0.0092
447.5879	0.0394
447.7906	0.0261
447.9933	0.0303
448.196	0.0191
448.3986	0.0273
448.6013	0.03
448.8039	0.0144
449.0066	0.017
449.2092	0.0257
449.4118	0.0039
449.6143	0.0117
449.8169	0.0268
450.0195	0.0069
450.222	0.0046
450.4245	0.0262
450.627	0.0199
450.8295	0.0127
451.032	0.0172
451.2345	0.003
451.4369	0.0311
451.6394	0.0186
451.8418	-0.0087
452.0442	0.0081
452.2466	0.0292
452.449	-0.0006
452.6513	0.0069
452.8537	0.0073
453.056	0.0036
453.2583	0.0026
453.4607	0.0015
453.663	-0.002
453.8652	0.0219
454.0675	0.0103
454.2697	0.0142
454.472	0.0119
454.6742	0.0215
454.8764	0.0098
455.0786	0.0191
455.2808	-0.0003
455.4829	0.0033
455.6851	0.0104
455.8872	0.0097
456.0893	0.0149
456.2915	-0.0122
456.4935	-0.0008
456.6956	0.0115
456.8977	0.0095
457.0997	-0.0001
457.3018	-0.0182
457.5038	0.0047
457.7058	0.0094
457.9078	-0.0021
458.1098	0.0116
458.3117	0.007
458.5137	0.0024
458.7156	0.0041
458.9175	-0.014
459.1194	0.0007
459.3213	-0.0074
459.5232	0.0046
459.725	-0.0084
459.9269	-0.0065
460.1287	-0.0157
460.3305	0.0053
460.5323	-0.0087
460.7341	0.0049
460.9359	0.003
461.1376	0.0019
461.3394	-0.0123
461.5411	0.0029
461.7428	-0.0107
461.9445	0.0007
462.1462	0.0252
462.3479	0.0112
462.5495	0.0006
462.7512	0.0016
462.9528	0.0101
463.1544	-0.0187
463.356	-0.0056
463.5576	-0.0053
463.7592	-0.0153
463.9607	-0.0067
464.1623	0.005
464.3638	0.0077
464.5653	-0.0121
464.7668	-0.0056
464.9683	0.0085
465.1697	0.0064
465.3712	-0.0146
465.5726	-0.0065
465.7741	-0.0109
465.9755	-0.0038
466.1769	-0.0091
466.3782	-0.0014
466.5796	-0.014
466.7809	0.0064
466.9823	-0.0138
467.1836	0.0029
467.3849	-0.0003
467.5862	0.0083
467.7875	-0.0021
467.9887	0.0155
468.19	-0.0038
468.3912	-0.0234
468.5924	-0.0109
468.7936	-0.0068
468.9948	-0.008
469.196	-0.0059
469.3972	-0.0134
469.5983	0.005
469.7994	-0.0203
470.0006	-0.0087
470.2017	0.0039
470.4027	-0.001
470.6038	0.0063
470.8049	-0.0208
471.0059	-0.0141
471.2069	-0.0271
471.408	-0.0102
471.6089	-0.0024
471.8099	0.007
472.0109	0.0025
472.2119	-0.0208
472.4128	-0.0148
472.6137	-0.0004
472.8146	-0.0188
473.0155	-0.0103
473.2164	-0.0016
473.4173	0.0053
473.6181	-0.0056
473.819	0.011
474.0198	-0.0123
474.2206	-0.0089
474.4214	-0.0139
474.6222	-0.0077
474.8229	-0.02
475.0237	-0.0135
475.2244	-0.012
475.4251	-0.0117
475.6258	-0.006
475.8265	-0.0012
476.0272	0.0222
476.2278	-0.0022
476.4285	-0.0106
476.6291	-0.0041
476.8297	-0.0179
477.0303	-0.0092
477.2309	-0.0008
477.4315	-0.0217
477.632	-0.0112
477.8326	-0.0079
478.0331	0.0014
478.2336	-0.0037
478.4341	-0.0016
478.6346	-0.0203
478.8351	-0.0049
479.0355	0.008
479.236	-0.0138
479.4364	-0.0051
479.6368	-0.0156
479.8372	-0.0088
480.0376	-0.0107
480.2379	-0.0221
480.4383	-0.0005
480.6386	-0.0023
480.8389	-0.008
481.0392	-0.0136
481.2395	-0.0164
481.4398	-0.0036
481.6401	-0.0031
481.8403	-0.0059
482.0405	-0.0053
482.2408	-0.0084
482.441	0.0032
482.6411	-0.0153
482.8413	-0.0093
483.0415	-0.005
483.2416	0.0005
483.4417	0.0046
483.6419	-0.0104
483.8419	0.0001
484.042	0.0037
484.2421	0.0032
484.4422	0.0023
484.6422	-0.0099
484.8422	-0.0162
485.0422	-0.0083
485.2422	-0.0036
485.4422	-0.0139
485.6422	-0.0052
485.8421	-0.0073
486.042	-0.0017
486.242	-0.0057
486.4419	-0.0133
486.6417	-0.01
486.8416	-0.0072
487.0415	-0.0133
487.2413	-0.0084
487.4411	-0.0078
487.641	-0.0195
487.8408	-0.0067
488.0405	-0.0044
488.2403	-0.0127
488.4401	-0.002
488.6398	-0.0002
488.8395	-0.0049
489.0392	-0.0031
489.2389	-0.008
489.4386	-0.0067
489.6383	-0.0065
489.8379	-0.0067
490.0376	-0.0155
490.2372	-0.0142
490.4368	-0.0122
490.6364	-0.0043
490.836	-0.0074
491.0355	-0.0055
491.2351	-0.0063
491.4346	-0.0092
491.6341	-0.0187
491.8336	-0.0014
492.0331	-0.0129
492.2326	-0.0224
492.432	0.004
492.6315	-0.0123
492.8309	-0.0108
493.0303	-0.012
493.2297	-0.0086
493.4291	-0.0149
493.6284	-0.0022
493.8278	-0.0138
494.0271	0.007
494.2264	0.0038
494.4257	-0.0167
494.625	-0.0077
494.8243	-0.0217
495.0236	-0.0068
495.2228	-0.012
495.422	-0.0086
495.6213	-0.0024
495.8205	-0.0096
496.0196	-0.0058
496.2188	-0.0005
496.418	-0.0215
496.6171	-0.0123
496.8162	-0.0207
497.0153	-0.0053
497.2144	-0.0109
497.4135	-0.0151
497.6126	-0.0139
497.8116	-0.0138
498.0107	-0.0008
498.2097	-0.0124
498.4087	-0.02
498.6077	-0.0037
498.8067	-0.0122
499.0056	-0.0093
499.2046	-0.0138
499.4035	-0.021
499.6024	-0.0022
499.8013	-0.0033
500.0002	-0.02
500.199	-0.0168
500.3979	-0.0142
500.5967	-0.0151
500.7956	-0.0121
500.9944	-0.0002
501.1932	-0.0072
501.3919	-0.0127
501.5907	-0.0186
501.7895	-0.0141
501.9882	-0.0168
502.1869	-0.0139
502.3856	-0.0155
502.5843	-0.0104
502.783	-0.0189
502.9816	-0.019
503.1803	-0.0284
503.3789	-0.0135
503.5775	-0.0038
503.7761	-0.0071
503.9747	-0.0041
504.1732	-0.0109
504.3718	-0.016
504.5703	-0.0082
504.7689	-0.0088
504.9674	-0.004
505.1658	-0.014
505.3643	-0.0021
505.5628	-0.0137
505.7612	-0.0087
505.9597	-0.0016
506.1581	-0.0166
506.3565	0.0023
506.5549	-0.0049
506.7532	-0.0202
506.9516	-0.0112
507.1499	-0.0126
507.3482	-0.0136
507.5465	-0.0083
507.7448	-0.0041
507.9431	-0.0187
508.1414	-0.0093
508.3396	-0.0159
508.5379	-0.0179
508.7361	-0.014
508.9343	-0.0072
509.1325	-0.0079
509.3306	-0.0054
509.5288	-0.0083
509.7269	-0.018
509.9251	-0.0026
510.1232	-0.0142
510.3213	-0.0068
510.5193	-0.0008
510.7174	-0.0155
510.9154	-0.0159
511.1135	-0.0129
511.3115	-0.0184
511.5095	-0.0093
511.7075	-0.0081
511.9055	-0.0129
512.1034	-0.0136
512.3014	0.0008
512.4993	-0.0074
512.6972	-0.0198
512.8951	-0.016
513.093	-0.0116
513.2908	-0.0069
513.4887	-0.0083
513.6865	-0.0099
513.8844	-0.0127
514.0822	-0.0066
514.2799	-0.0148
514.4777	-0.0106
514.6755	-0.0148
514.8732	-0.014
515.0709	-0.0123
515.2687	-0.0012
515.4664	-0.006
515.664	-0.0128
515.8617	-0.0086
516.0594	-0.0175
516.257	-0.0066
516.4546	-0.0159
516.6522	0.0091
516.8498	-0.0089
517.0474	-0.003
517.2449	-0.0078
517.4425	-0.0258
517.64	-0.0175
517.8375	-0.0016
518.035	-0.0071
518.2325	-0.0202
518.43	-0.0093
518.6274	-0.0121
518.8249	-0.0184
519.0223	-0.0054
519.2197	-0.0083
519.4171	-0.0154
519.6145	-0.0139
519.8118	0.0009
520.0092	-0.0093
520.2065	-0.0115
520.4038	-0.0156
520.6011	-0.0087
520.7984	-0.0157
520.9956	-0.0113
521.1929	-0.0126
521.3901	-0.0013
521.5874	-0.0001
521.7846	-0.0157
521.9818	-0.0065
522.1789	-0.0147
522.3761	-0.0074
522.5732	-0.015
522.7704	-0.0144
522.9675	-0.013
523.1646	-0.0143
523.3617	-0.0095
523.5587	-0.0117
523.7558	-0.0109
523.9528	-0.0146
524.1498	-0.0031
524.3468	-0.0229
524.5438	-0.0068
524.7408	-0.0061
524.9378	0.0033
525.1347	-0.0131
525.3316	-0.008
525.5285	-0.0167
525.7254	-0.0149
525.9223	0.001
526.1192	-0.002
526.316	-0.0119
526.5129	-0.0066
526.7097	0
526.9065	0
527.1033	-0.0045
527.3	0.003
527.4968	-0.0129
527.6935	-0.0045
527.8903	-0.023
528.087	-0.0158
528.2837	0.0017
528.4804	-0.014
528.677	-0.012
528.8737	-0.0023
529.0703	-0.004
529.2669	-0.0044
529.4635	-0.0074
529.6601	-0.0103
529.8567	0.008
530.0532	-0.0095
530.2498	0.0041
530.4463	0.0029
530.6428	-0.0079
530.8393	-0.0041
531.0358	-0.0088
531.2322	-0.0094
531.4287	-0.009
531.6251	-0.0138
531.8215	0.0062
532.0179	-0.0041
532.2143	0.0031
532.4107	-0.0081
532.607	-0.0061
532.8034	-0.0047
532.9997	-0.0014
533.196	-0.0008
533.3923	-0.008
533.5886	-0.0067
533.7848	-0.0006
533.9811	0.0002
534.1773	-0.0016
534.3735	0.007
534.5697	-0.0029
534.7659	-0.0078
534.9621	-0.005
535.1582	-0.0134
535.3544	-0.0208
535.5505	-0.0084
535.7466	-0.0049
535.9427	-0.004
536.1387	-0.0148
536.3348	-0.0128
536.5308	-0.0008
536.7269	-0.0187
536.9229	-0.0104
537.1189	-0.0063
537.3148	0.0067
537.5108	-0.0078
537.7068	-0.001
537.9027	-0.0069
538.0986	-0.0054
538.2945	-0.0052
538.4904	-0.0038
538.6863	-0.0059
538.8821	-0.0032
539.078	-0.0068
539.2738	0.0021
539.4696	-0.0018
539.6654	-0.0034
539.8611	0.0027
540.0569	-0.0046
540.2526	-0.0104
540.4484	-0.0029
540.6441	0.0007
540.8398	-0.0163
541.0355	-0.0007
541.2311	-0.005
541.4268	-0.0168
541.6224	0.0097
541.818	-0.0001
542.0136	-0.0078
542.2092	0.0067
542.4048	-0.0024
542.6003	0.0002
542.7959	-0.0038
542.9914	-0.0108
543.1869	0.0091
543.3824	-0.0064
543.5779	-0.0198
543.7734	-0.0077
543.9688	-0.0126
544.1642	0.0027
544.3596	0.0001
544.555	-0.0155
544.7504	-0.0069
544.9458	-0.0127
545.1411	-0.0003
545.3365	-0.0033
545.5318	-0.0024
545.7271	-0.0102
545.9224	-0.0015
546.1177	-0.0003
546.3129	0.0045
546.5081	-0.0138
546.7034	0.0011
546.8986	-0.0128
547.0938	-0.0132
547.289	-0.0128
547.4841	-0.0029
547.6793	0.0042
547.8744	-0.0075
548.0695	-0.0003
548.2646	-0.0057
548.4597	0.0056
548.6548	0.0035
548.8498	-0.0005
549.0448	0.0054
549.2399	-0.0036
549.4349	0.0005
549.6298	-0.0021
549.8248	-0.0033
550.0198	-0.0069
550.2147	-0.0067
550.4096	-0.0106
550.6045	0.011
550.7994	0.0038
550.9943	0.0007
551.1892	-0.0034
551.384	0.0013
551.5788	-0.0164
551.7737	0.0064
551.9685	-0.0058
552.1632	-0.0008
552.358	0.0033
552.5528	-0.0009
552.7475	-0.0116
552.9422	-0.0063
553.1369	-0.0102
553.3316	-0.0011
553.5263	-0.0117
553.7209	0.0002
553.9156	-0.0042
554.1102	-0.0099
554.3048	-0.007
554.4994	0.0093
554.694	-0.0021
554.8885	-0.0076
555.0831	-0.0072
555.2776	-0.0045
555.4721	-0.0038
555.6666	-0.007
555.8611	0.0084
556.0555	0.0038
556.25	0.0026
556.4444	-0.0111
556.6388	0.0023
556.8332	0.0019
557.0276	-0.0024
557.222	0.0022
557.4163	0.0031
557.6107	-0.0125
557.805	0.0043
557.9993	-0.0106
558.1936	0.002
558.3879	-0.0046
558.5821	0.0013
558.7764	-0.0024
558.9706	0.0049
559.1648	0.0012
559.359	-0.007
559.5532	-0.0039
559.7473	0.0022
559.9415	-0.0025
560.1356	-0.0026
560.3297	-0.013
560.5238	0.0013
560.7179	-0.0068
560.9119	-0.0009
561.106	-0.0073
561.3	-0.0015
561.494	-0.0058
561.688	-0.0053
561.882	-0.0026
562.076	-0.0055
562.2699	0.0127
562.4639	0.0041
562.6578	-0.0005
562.8517	-0.0025
563.0456	0.0027
563.2395	0.0022
563.4333	0.0144
563.6272	0.0141
563.821	-0.0072
564.0148	0
564.2086	-0.0038
564.4024	-0.0016
564.5961	0.0014
564.7899	0.0071
564.9836	-0.0046
565.1773	-0.0018
565.371	0.0083
565.5647	0.0091
565.7584	-0.0058
565.952	-0.0021
566.1456	-0.0012
566.3393	0.002
566.5329	-0.0053
566.7264	-0.001
566.92	-0.0101
567.1136	0.0017
567.3071	-0.0138
567.5006	0.0042
567.6941	0.0052
567.8876	-0.0029
568.0811	0.0023
568.2745	0.0114
568.468	0.0147
568.6614	0.005
568.8548	0.0042
569.0482	-0.0018
569.2416	0.0035
569.4349	0.0005
569.6283	-0.0066
569.8216	-0.0003
570.0149	-0.007
570.2082	0.0048
570.4015	0.0056
570.5947	0.0032
570.788	0.0011
570.9812	-0.0044
571.1744	0.0008
571.3676	-0.0037
571.5608	-0.0024
571.754	0.0048
571.9471	-0.0036
572.1402	-0.0001
572.3333	-0.0034
572.5264	-0.0052
572.7195	-0.0007
572.9126	0.0038
573.1057	-0.0064
573.2987	-0.009
573.4917	-0.0059
573.6847	-0.0129
573.8777	0.0048
574.0707	0.0074
574.2636	-0.0054
574.4566	-0.0051
574.6495	0.0035
574.8424	-0.004
575.0353	0.0028
575.2281	0.01
575.421	0.0026
575.6138	0.0002
575.8067	-0.0002
575.9995	-0.0003
576.1923	0
576.385	-0.0002
576.5778	-0.0044
576.7706	0.0026
576.9633	0.0002
577.156	0.001
577.3487	-0.0008
577.5414	-0.0022
577.734	-0.0101
577.9267	0.0034
578.1193	-0.0167
578.3119	-0.01
578.5045	-0.0055
578.6971	-0.0001
578.8897	0.0071
579.0822	-0.0054
579.2747	0.0028
579.4673	-0.004
579.6598	-0.0036
579.8522	-0.0012
580.0447	-0.0098
580.2372	-0.0075
580.4296	0.0011
580.622	-0.0016
580.8144	-0.0063
581.0068	-0.0079
581.1992	-0.0108
581.3915	-0.0065
581.5839	-0.0116
581.7762	-0.0149
581.9685	-0.0072
582.1608	0.004
582.353	-0.0027
582.5453	-0.0034
582.7375	-0.0008
582.9298	-0.0081
583.122	-0.0075
583.3142	-0.0071
583.5063	-0.0084
583.6985	-0.0058
583.8906	-0.0076
584.0827	-0.0049
584.2749	-0.0086
584.4669	-0.0011
584.659	-0.0036
584.8511	-0.0042
585.0431	-0.0087
585.2352	0.003
585.4272	-0.0039
585.6192	0.0012
585.8111	0.0017
586.0031	0.0014
586.195	-0.0034
586.387	0.0025
586.5789	0.0001
586.7708	0.0009
586.9627	-0.0022
587.1545	-0.0074
587.3464	0.0011
587.5382	0.0103
587.73	0.0088
587.9218	0.0057
588.1136	-0.0008
588.3053	0.0028
588.4971	-0.0016
588.6888	-0.0031
588.8805	-0.0048
589.0722	0.0026
589.2639	-0.0042
589.4556	-0.0014
589.6472	-0.0005
589.8389	-0.0101
590.0305	-0.0134
590.2221	-0.0034
590.4137	-0.002
590.6052	0.0032
590.7968	0.0041
590.9883	0.001
591.1798	0.0012
591.3713	0.0022
591.5628	0.0003
591.7543	0.0054
591.9458	0.0044
592.1372	0.0036
592.3286	0.0077
592.52	0.0068
592.7114	-0.0024
592.9028	-0.0029
593.0941	-0.0035
593.2855	-0.0058
593.4768	-0.0076
593.6681	-0.0043
593.8594	-0.0042
594.0506	-0.0016
594.2419	0.0039
594.4331	0.0024
594.6244	-0.0061
594.8156	-0.0077
595.0067	0.0057
595.1979	-0.0005
595.3891	-0.0021
595.5802	-0.0107
595.7713	-0.0033
595.9624	0.0023
596.1535	0.0127
596.3446	0.0003
596.5357	-0.0026
596.7267	0.0106
596.9177	0.0045
597.1087	-0.0028
597.2997	-0.0018
597.4907	0.0076
597.6817	-0.0036
597.8726	0.0043
598.0635	-0.0054
598.2544	-0.0005
598.4453	-0.0011
598.6362	-0.0005
598.827	-0.0024
599.0179	0.0033
599.2087	0.0042
599.3995	0.0012
599.5903	0.0059
599.7811	0.0034
599.9718	-0.0011
600.1626	-0.005
600.3533	-0.0055
600.544	0.0036
600.7347	-0.0011
600.9254	0.0067
601.116	-0.012
601.3067	0.003
601.4973	-0.0014
601.6879	0.0068
601.8785	-0.0025
602.0691	0.0022
602.2596	0.0022
602.4502	0.0031
602.6407	0.0025
602.8312	0.0089
603.0217	-0.0014
603.2122	0.0033
603.4027	0.0016
603.5931	-0.0001
603.7835	-0.0038
603.9739	-0.0034
604.1643	-0.0024
604.3547	-0.0039
604.5451	0.0024
604.7354	-0.0039
604.9257	-0.0004
605.116	-0.0049
605.3063	0.0039
605.4966	0.0002
605.6869	0.0033
605.8771	0.0094
606.0673	0.006
606.2575	0.0017
606.4477	0.0026
606.6379	0.0016
606.8281	0.0003
607.0182	-0.0036
607.2083	0.0053
607.3985	-0.0038
607.5885	-0.0028
607.7786	0.0037
607.9687	-0.0072
608.1587	0.0056
608.3488	0.0047
608.5388	-0.0003
608.7288	-0.0018
608.9187	-0.0054
609.1087	0.0028
609.2986	-0.0056
609.4886	0.0033
609.6785	-0.0012
609.8684	0.0037
610.0582	-0.0014
610.2481	-0.0043
610.4379	-0.0025
610.6278	-0.0026
610.8176	-0.006
611.0074	-0.0033
611.1971	-0.0038
611.3869	-0.0006
611.5766	-0.0076
611.7664	0.005
611.9561	-0.0002
612.1458	0.0002
612.3354	-0.0065
612.5251	0.0013
612.7147	0.0055
612.9044	0.004
613.094	-0.0085
613.2836	0.0002
613.4731	-0.0006
613.6627	-0.0001
613.8522	0.0083
614.0417	-0.0031
614.2313	-0.0072
614.4207	-0.0013
614.6102	-0.0013
614.7997	-0.0058
614.9891	-0.0105
615.1785	0.0004
615.3679	-0.0006
615.5573	0.0089
615.7467	-0.0073
615.9361	-0.0033
616.1254	-0.0011
616.3147	0.003
616.504	0.0015
616.6933	0.0037
616.8826	0.0038
617.0718	0.002
617.2611	0.003
617.4503	-0.0064
617.6395	0.0013
617.8287	0.0002
618.0179	-0.005
618.207	0.0044
618.3961	-0.0047
618.5853	-0.008
618.7744	0.0028
618.9634	0.0046
619.1525	0.0069
619.3416	0.0012
619.5306	-0.0012
619.7196	-0.0015
619.9086	-0.0047
620.0976	0.006
620.2866	-0.0046
620.4755	0.0044
620.6645	0.0047
620.8534	0.0042
621.0423	0.001
621.2312	0.0018
621.42	0.0031
621.6089	0.0019
621.7977	0.0021
621.9865	-0.0038
622.1753	-0.001
622.3641	-0.0075
622.5529	-0.0006
622.7416	0.0006
622.9303	-0.0053
623.1191	0.0015
623.3078	-0.004
623.4964	-0.0008
623.6851	-0.0025
623.8737	-0.0006
624.0624	0.0063
624.251	-0.0057
624.4396	0.0053
624.6282	-0.0071
624.8167	0.0025
625.0053	0.0003
625.1938	0.0117
625.3823	0.007
625.5708	0.0029
625.7593	-0.0015
625.9477	0.0013
626.1362	0.0011
626.3246	0.0094
626.513	0.0065
626.7014	0.0092
626.8898	0.0054
627.0781	0.0041
627.2665	-0.0022
627.4548	0.0107
627.6431	0.0056
627.8314	0.0013
628.0197	0.0016
628.2079	-0.0075
628.3962	-0.004
628.5844	0.0083
628.7726	0.0032
628.9608	0.0084
629.1489	0.0018
629.3371	-0.0014
629.5252	-0.002
629.7134	0.0099
629.9015	0.0019
630.0895	0.0037
630.2776	0.0073
630.4657	0.0002
630.6537	0.0023
630.8417	0.0015
631.0297	-0.0049
631.2177	0.0035
631.4057	-0.0079
631.5936	0.0054
631.7815	0.0062
631.9695	0.0009
632.1574	0.0047
632.3452	0.0151
632.5331	0.0003
632.7209	0.0042
632.9088	0.0028
633.0966	0.0087
633.2844	-0.0013
633.4722	-0.0045
633.6599	0.0087
633.8477	0.0018
634.0354	0.0045
634.2231	0.0002
634.4108	0.0085
634.5985	0.0031
634.7861	0.0047
634.9738	-0.0013
635.1614	0.003
635.349	-0.0023
635.5366	-0.0067
635.7242	-0.0005
635.9117	0.0081
636.0993	-0.0011
636.2868	0.0027
636.4743	-0.0022
636.6618	0.0135
636.8492	0.0008
637.0367	0.0006
637.2241	-0.0056
637.4115	-0.0053
637.5989	-0.0013
637.7863	-0.0098
637.9737	-0.0042
638.161	0.0044
638.3484	0.0028
638.5357	0.0082
638.723	-0.0063
638.9103	0.004
639.0975	0.008
639.2848	0.009
639.472	-0.0044
639.6592	0.008
639.8464	0.0034
640.0336	0.002
640.2208	0.0011
640.4079	0.0023
640.595	0.0088
640.7821	0.0071
640.9692	-0.0006
641.1563	0.0034
641.3434	0.0069
641.5304	-0.0038
641.7174	-0.0012
641.9044	0.0025
642.0914	0.0006
642.2784	0.0049
642.4653	0.0083
642.6523	0.0017
642.8392	0.0024
643.0261	0.0106
643.213	0.0069
643.3999	0.001
643.5867	-0.0023
643.7735	-0.0019
643.9604	0.0019
644.1472	0.0027
644.3339	0.0052
644.5207	0.003
644.7075	-0.0082
644.8942	0.0075
645.0809	0.0061
645.2676	0.0075
645.4543	0.0065
645.6409	0.0038
645.8276	0.0028
646.0142	0.0041
646.2008	-0.001
646.3874	0.0014
646.574	-0.0014
646.7605	-0.0035
646.9471	-0.014
647.1336	-0.0046
647.3201	0.0026
647.5066	-0.0027
647.6931	0.0042
647.8795	0.0056
648.0659	0.002
648.2524	0.0073
648.4388	-0.0052
648.6252	-0.0005
648.8115	0.0002
648.9979	0.0012
649.1842	0.0009
649.3705	0.0043
649.5568	0.0015
649.7431	0.0033
649.9294	0.0048
650.1156	0.0093
650.3018	-0.0059
650.488	0.0028
650.6742	0.0088
650.8604	0.0045
651.0466	-0.003
651.2327	0.0023
651.4188	0.0028
651.6049	0.001
651.791	0.001
651.9771	-0.0012
652.1632	0.0096
652.3492	0.0025
652.5352	0.0038
652.7212	0.0028
652.9072	0.0019
653.0932	-0.001
653.2791	-0.0067
653.465	-0.0041
653.651	-0.0044
653.8369	0.0028
654.0227	-0.0033
654.2086	0.0007
654.3944	0.0071
654.5803	0.0058
654.7661	-0.0028
654.9519	0.0015
655.1377	-0.0014
655.3234	-0.0013
655.5092	-0.0069
655.6949	-0.0065
655.8806	-0.0094
656.0663	-0.0042
656.2519	-0.0037
656.4376	-0.0055
656.6232	0.0016
656.8088	-0.0006
656.9945	0.0028
657.18	-0.0023
657.3656	0.0034
657.5511	0.0024
657.7367	0.004
657.9222	0.0062
658.1077	0.0034
658.2932	0.0139
658.4786	-0.0073
658.6641	-0.0007
658.8495	0.003
659.0349	0.0021
659.2203	0.0027
659.4057	0.005
659.591	0.0027
659.7764	-0.0035
659.9617	0.0047
660.147	0.0003
660.3323	0.0104
660.5176	0.0097
660.7028	0.0066
660.888	0.0063
661.0733	0.003
661.2585	-0.0009
661.4436	0.0068
661.6288	0.0042
661.8139	0.0033
661.9991	0.0062
662.1842	-0.0024
662.3693	-0.001
662.5544	-0.0052
662.7394	0.0038
662.9245	-0.0005
663.1095	-0.0047
663.2945	-0.0025
663.4795	-0.0013
663.6644	-0.0001
663.8494	-0.0023
664.0343	-0.0058
664.2193	-0.0078
664.4042	-0.0026
664.589	-0.0073
664.7739	-0.0041
664.9587	-0.0039
665.1436	0.0023
665.3284	0.0024
665.5132	-0.0034
665.698	0.0063
665.8827	0.0034
666.0675	0.002
666.2522	-0.0092
666.4369	0.0039
666.6216	0.0067
666.8063	0.0043
666.9909	0.0054
667.1756	0.0043
667.3602	0.0068
667.5448	0.0012
667.7294	0.0134
667.9139	0.0081
668.0985	0.0122
668.283	-0.0072
668.4675	0.001
668.652	0.0003
668.8365	0.0025
669.0209	0.005
669.2054	0.007
669.3898	-0.0026
669.5742	0.0068
669.7586	0.0112
669.943	0.0126
670.1273	0.0086
670.3117	0.0048
670.496	0.0121
670.6803	0.0094
670.8646	0.0064
671.0488	0.0039
671.2331	0.0095
671.4173	0.0048
671.6015	0.0039
671.7857	0.0033
671.9699	0.0007
672.1541	0.0106
672.3382	0.0032
672.5223	0.0114
672.7064	0.0092
672.8905	0.0079
673.0746	0.001
673.2587	0.0063
673.4427	0.0019
673.6267	0.0073
673.8107	0.0127
673.9947	0.0092
674.1787	0.0071
674.3626	-0.0053
674.5465	0.0042
674.7304	0.0041
674.9143	0.0075
675.0982	0.0016
675.2821	-0.0054
675.4659	0.0057
675.6497	0.004
675.8335	0.0099
676.0173	0.0033
676.2011	0.0022
676.3849	0.01
676.5686	-0.0002
676.7523	-0.0033
676.936	0.0074
677.1197	-0.0045
677.3034	-0.0019
677.487	0.0045
677.6706	0.0073
677.8542	-0.0002
678.0378	0.002
678.2214	0.0008
678.405	0.0016
678.5885	-0.0073
678.772	0.0024
678.9555	-0.0001
679.139	0.0091
679.3225	0.0026
679.5059	0.0017
679.6894	0.0088
679.8728	0.0002
680.0562	-0.0113
680.2395	0.0002
680.4229	-0.0033
680.6062	0.0116
680.7896	-0.0013
680.9729	0.0051
681.1562	0.0066
681.3394	0.0109
681.5227	-0.0016
681.7059	0.0027
681.8891	0.0052
682.0723	0.006
682.2555	0.0057
682.4387	-0.001
682.6218	-0.0029
682.805	0.0099
682.9881	-0.0008
683.1712	-0.0039
683.3542	0.0001
683.5373	0.0047
683.7203	0.0044
683.9034	0.004
684.0864	-0.0062
684.2694	0.0025
684.4523	0.0057
684.6353	0.0035
684.8182	0.0067
685.0011	0.0012
685.184	0.0014
685.3669	0.0059
685.5498	0.0079
685.7326	0.0057
685.9154	-0.0026
686.0982	0.0119
686.281	0.0067
686.4638	0.0104
686.6465	0.0019
686.8293	0.0065
687.012	0.0048
687.1947	-0.0016
687.3774	0.0035
687.56	-0.0024
687.7427	0.0084
687.9253	0.0012
688.1079	-0.0018
688.2905	0.003
688.4731	0.001
688.6556	-0.002
688.8382	0.0078
689.0207	-0.007
689.2032	-0.0028
689.3857	-0.0025
689.5681	0.0015
689.7506	-0.0019
689.933	-0.001
690.1154	0.0006
690.2978	0.0023
690.4802	0.0027
690.6626	-0.0054
690.8449	-0.0077
691.0272	0.0046
691.2095	-0.0086
691.3918	-0.0007
691.5741	0.0048
691.7563	0.0019
691.9386	0.0018
692.1208	-0.0026
692.303	0.0069
692.4852	-0.0064
692.6673	-0.0005
692.8495	0.004
693.0316	0.0003
693.2137	0.0018
693.3958	0.0027
693.5778	0.0064
693.7599	0.0044
693.9419	-0.0002
694.1239	-0.0002
694.3059	0.0015
694.4879	0.0057
694.6699	0.0067
694.8518	0.0114
695.0337	-0.0106
695.2157	0.0073
695.3975	-0.0012
695.5794	0.0092
695.7613	0.0005
695.9431	-0.0003
696.1249	0.0029
696.3067	0.0005
696.4885	0.0026
696.6703	-0.0035
696.852	0.001
697.0337	0.0054
697.2154	-0.0026
697.3971	0.0019
697.5788	-0.0005
697.7605	0.0041
697.9421	0.0103
698.1237	0.0091
698.3053	0.003
698.4869	-0.0018
698.6685	-0.0068
698.85	-0.0025
699.0315	0.0083
699.213	-0.0039
699.3945	-0.0005
699.576	0.0083
699.7575	0.0109
699.9389	0.0024
700.1203	-0.0058
700.3017	-0.0166
700.4831	-0.008
700.6645	-0.009
700.8458	0.0003
701.0271	0.0013
701.2084	-0.0009
701.3897	-0.0065
701.571	0.0072
701.7523	-0.0141
701.9335	-0.0011
702.1147	-0.0045
702.2959	-0
702.4771	-0.0022
702.6583	0.0019
702.8394	-0.0055
703.0205	0.001
703.2016	-0.009
703.3827	-0.004
703.5638	0.0054
703.7449	-0.0045
703.9259	0.0124
704.1069	0.0033
704.2879	0.0053
704.4689	-0.0006
704.6499	-0.0001
704.8308	0.0043
705.0117	0.0018
705.1927	-0.0023
705.3735	0.0003
705.5544	-0.0055
705.7353	0.0034
705.9161	-0.0054
706.0969	-0.0016
706.2777	-0.0016
706.4585	-0.0068
706.6393	0.0045
706.82	-0.0148
707.0007	0.0004
707.1815	0.0014
707.3621	0.0087
707.5428	-0.0018
707.7235	0.0087
707.9041	0.0037
708.0847	-0.0053
708.2653	0.0041
708.4459	-0.0093
708.6265	0.0007
708.807	-0.0017
708.9875	-0.0017
709.168	-0.0061
709.3485	-0.0066
709.529	0.003
709.7095	-0.009
709.8899	0.0057
710.0703	-0.0121
710.2507	-0.0037
710.4311	-0.0002
710.6115	-0.0111
710.7918	-0.0039
710.9721	0.0017
711.1524	-0.004
711.3327	-0.0054
711.513	0.0005
711.6932	-0.0003
711.8735	0.0073
712.0537	-0.0016
712.2339	0.0016
712.4141	-0.004
712.5942	-0.0036
712.7744	0.0014
712.9545	-0.0101
713.1346	0.0011
713.3147	-0.0095
713.4947	0.0015
713.6748	-0.003
713.8548	-0.0035
714.0348	0.0007
714.2148	0.0035
714.3948	0.0111
714.5748	-0.0005
714.7547	0.0026
714.9346	0.0132
715.1145	-0.002
715.2944	0.0003
715.4743	0.0105
715.6541	0.0049
715.834	0.001
716.0138	0.0078
716.1936	-0.0062
716.3733	-0.0057
716.5531	0.0065
716.7328	-0.0051
716.9126	-0.0037
717.0923	0.0054
717.2719	-0.0003
717.4516	0.0048
717.6312	0.001
717.8109	0.0011
717.9905	0.0042
718.1701	-0.0047
718.3496	-0.0035
718.5292	0.0001
718.7087	-0
718.8882	-0.0009
719.0677	0.0024
719.2472	-0.0022
719.4267	0.0022
719.6061	0.0074
719.7856	-0.0011
719.965	0.0034
720.1443	0.0035
720.3237	0.0141
720.5031	0.004
720.6824	0.0137
720.8617	0.0016
721.041	0.0048
721.2203	0.0049
721.3995	0.0044
721.5788	0.0011
721.758	0.0053
721.9372	0.0031
722.1164	0.0036
722.2956	0.0049
722.4747	0.0037
722.6538	0.0024
722.8329	0.0143
723.012	0.0083
723.1911	-0.0039
723.3702	-0.0034
723.5492	0.0015
723.7282	-0.0113
723.9072	0.0009
724.0862	-0.0073
724.2652	-0.0045
724.4441	0.0014
724.623	-0.0018
724.8019	0.0003
724.9808	0.0035
725.1597	-0.0102
725.3385	0.0079
725.5174	0.0073
725.6962	-0.002
725.875	0.002
726.0538	0.0058
726.2325	0.0063
726.4112	0.0089
726.59	0.0027
726.7687	0.0001
726.9474	0.0042
727.126	0.0022
727.3047	-0.0101
727.4833	-0.0037
727.6619	0.0017
727.8405	-0.0102
728.0191	0.001
728.1976	0.0082
728.3762	-0.0053
728.5547	0.0006
728.7332	-0.0145
728.9116	0.0008
729.0901	0.0076
729.2686	-0.002
729.447	-0.0041
729.6254	-0.0016
729.8038	0.0022
729.9821	-0.0134
730.1605	0.0016
730.3388	0.0037
730.5171	0.0007
730.6954	-0.0091
730.8737	0.0041
731.0519	0.0019
731.2302	-0.0031
731.4084	0.0066
731.5866	0.0064
731.7648	0.0031
731.9429	0.0064
732.1211	-0.0002
732.2992	-0.0023
732.4773	0.0047
732.6554	0.0008
732.8335	0.004
733.0115	0.0066
733.1896	0.0176
733.3676	-0.0014
733.5456	0.0074
733.7235	0.012
733.9015	-0.0009
734.0794	0.0015
734.2574	-0.0016
734.4353	0.0011
734.6131	0.0092
734.791	-0.0029
734.9689	0.0019
735.1467	-0.0026
735.3245	-0.0115
735.5023	-0.0025
735.68	-0.0026
735.8578	0.0057
736.0355	-0.0184
736.2132	-0.0024
736.3909	-0.001
736.5686	-0.0054
736.7463	0.0064
736.9239	-0.0086
737.1015	-0.0082
737.2791	-0.0015
737.4567	-0.0036
737.6343	-0.0118
737.8118	-0.0004
737.9894	0.0092
738.1669	-0.0117
738.3444	-0.0067
738.5218	-0.0011
738.6993	-0.0009
738.8767	-0.0045
739.0541	0.0058
739.2315	-0.0105
739.4089	-0.0026
739.5863	0.0093
739.7636	-0.0027
739.9409	0.0077
740.1182	0.0066
740.2955	0.0081
740.4728	0.0011
740.65	0.0029
740.8272	0.0056
741.0044	-0.0094
741.1816	0.0041
741.3588	-0.0029
741.5359	-0.0036
741.7131	-0.0152
741.8902	-0.0111
742.0673	-0.0055
742.2444	-0.0028
742.4214	-0.0045
742.5985	-0.0074
742.7755	-0.0028
742.9525	-0.02
743.1295	-0.0022
743.3064	0.0029
743.4834	0.0005
743.6603	0.0037
743.8372	-0.0001
744.0141	0.0024
744.191	0.0092
744.3678	-0.0032
744.5446	-0.0001
744.7215	0.0093
744.8982	0.0014
745.075	-0.0071
745.2518	0.0074
745.4285	0.0044
745.6052	-0.001
745.7819	0
745.9586	0.0012
746.1353	-0.0006
746.3119	-0.0011
746.4885	-0.0031
746.6651	-0.0141
746.8417	-0.0019
747.0183	0.0027
747.1948	-0.0024
747.3714	-0.0015
747.5479	-0.003
747.7244	-0.0052
747.9008	0.019
748.0773	-0.0007
748.2537	-0.0036
748.4301	0.0002
748.6065	-0.0015
748.7829	0.0012
748.9593	-0.0022
749.1356	-0.0003
749.3119	0.009
749.4882	-0.0124
749.6645	0.0124
749.8408	-0.0051
750.017	-0.0022
750.1933	0.0002
750.3695	-0.0158
750.5457	0.0038
750.7218	-0.0037
750.898	-0.0043
751.0741	-0.0027
751.2502	0.0056
751.4263	-0.0074
751.6024	-0.0018
751.7784	-0.0094
751.9545	-0.0114
752.1305	-0.0035
752.3065	-0.0149
752.4825	0.003
752.6584	-0.0061
752.8344	-0.0101
753.0103	-0.0052
753.1862	-0.0124
753.3621	-0.0075
753.5379	-0.0096
753.7138	0.0009
753.8896	-0.0093
754.0654	0.003
754.2412	0.0038
754.417	0.0011
754.5927	-0.0052
754.7685	-0.0053
754.9442	-0.006
755.1199	-0.0001
755.2956	-0.0136
755.4712	-0.0062
755.6469	-0.0141
755.8225	-0.0093
755.9981	-0.0084
756.1736	-0.0022
756.3492	-0.0043
756.5248	-0.0139
756.7003	-0.0046
756.8758	0.0051
757.0513	-0.0171
757.2267	-0.0037
757.4022	0.0016
757.5776	-0.0091
757.753	0.0006
757.9284	-0.0036
758.1038	0.0112
758.2791	0.0037
758.4545	-0.0165
758.6298	0.0004
758.8051	0.0056
758.9803	0.0024
759.1556	-0.0003
759.3308	-0.0033
759.506	0.0149
759.6812	0.008
759.8564	0.0104
760.0316	-0.005
760.2067	0.0148
760.3819	0.0009
760.557	0.0176
760.732	-0.0019
760.9071	-0.0154
761.0821	-0.0066
761.2572	0.0032
761.4322	-0.0011
761.6072	-0.0036
761.7821	-0.0017
761.9571	0.0018
762.132	0.0009
762.3069	-0.0071
762.4818	-0.0025
762.6567	-0.0009
762.8316	0.0053
763.0064	-0.011
763.1812	0.0014
763.356	-0.0063
763.5308	-0.0055
763.7055	0.0003
763.8803	-0.0013
764.055	-0.0004
764.2297	-0.0098
764.4044	-0.0117
764.579	-0.0156
764.7537	-0.0149
764.9283	0.0012
765.1029	-0.0116
765.2775	-0.0142
765.4521	-0.0086
765.6266	-0.0055
765.8011	-0.007
765.9756	0.0048
766.1501	-0.0033
766.3246	-0.0086
766.4991	0.0067
766.6735	-0.0004
766.8479	-0.0143
767.0223	0.0067
767.1967	-0.0088
767.371	-0.0013
767.5454	-0.0036
767.7197	0.0012
767.894	0.0043
768.0683	-0.0175
768.2425	-0.0019
768.4168	0.0073
768.591	-0.0034
768.7652	-0.0052
768.9394	0.0059
769.1135	-0.0117
769.2877	0.0083
769.4618	0.0024
769.6359	-0.0028
769.81	-0.0018
769.984	-0.0018
770.1581	-0.0177
770.3321	-0.0062
770.5061	-0.0055
770.6801	-0.0048
770.8541	-0.0057
771.028	0.0033
771.202	-0.0072
771.3759	0.0088
771.5498	-0.0069
771.7236	-0.0016
771.8975	-0.0005
772.0713	0.002
772.2451	0.0046
772.4189	0.0097
772.5927	0.0066
772.7665	-0.0012
772.9402	-0.0027
773.1139	-0.0048
773.2876	-0.0048
773.4613	0.0137
773.635	0.0103
773.8086	-0.0043
773.9822	0.0037
774.1558	0.0055
774.3294	-0.0054
774.503	0.0091
774.6765	0.0047
774.8501	0.0101
775.0236	-0.0049
775.1971	0.0182
775.3705	-0.0084
775.544	-0.0049
775.7174	-0.0053
775.8908	-0.008
776.0642	-0.0115
776.2376	-0.0061
776.4109	-0.0132
776.5843	0.0081
776.7576	0.0119
776.9309	0.0196
777.1041	-0.0012
777.2774	0.0178
777.4506	-0.0096
777.6238	-0.0083
777.797	0.0073
777.9702	0.0108
778.1434	-0.002
778.3165	-0.0171
778.4896	-0.003
778.6627	0.0173
778.8358	-0.0103
779.0089	0.0012
779.1819	-0.0053
779.3549	0.0199
779.5279	0.0146
779.7009	0.0053
779.8739	-0.0009
780.0468	0.0045
780.2197	0.0106
780.3926	0.0024
780.5655	0.0008
780.7384	-0.0026
780.9112	0.0002
781.0841	-0.0062
781.2569	0.0066
781.4297	0.0094
781.6024	0.0069
781.7752	0.0072
781.9479	0.0004
782.1206	0.0036
782.2933	-0.0183
782.466	0.0049
782.6386	0.0107
782.8113	0.0113
782.9839	-0.0081
783.1565	0.0111
783.329	0.0047
783.5016	0.0234
783.6741	0.0079
783.8466	-0.0056
784.0191	0.0132
784.1916	-0.0037
784.3641	0.0012
784.5365	0.0083
784.7089	-0.0022
784.8813	-0.0048
785.0537	-0.0009
785.2261	-0.009
785.3984	-0.0128
785.5707	-0.0024
785.743	-0.0017
785.9153	-0.0004
786.0876	-0.0076
786.2598	-0.0121
786.432	-0.0159
786.6042	0.0095
786.7764	-0.0122
786.9486	-0.0042
787.1207	-0.0064
787.2928	-0.0029
787.4649	-0.0007
787.637	-0.0078
787.8091	-0.0114
787.9811	-0.0188
788.1532	-0.0028
788.3252	0.0017
788.4972	-0.0202
788.6691	-0.0098
788.8411	-0.0022
789.013	-0.0159
789.1849	0.0098
789.3568	0.0021
789.5287	0.0041
789.7005	-0.0122
789.8723	0.019
790.0442	0.0052
790.2159	0.0061
790.3877	-0.0003
790.5595	-0.0159
790.7312	0.0035
790.9029	-0.0046
791.0746	-0.0116
791.2463	-0.0015
791.4179	0.0039
791.5896	-0.0208
791.7612	-0.0077
791.9328	-0.0076
792.1044	-0.0195
792.2759	-0.0197
792.4474	-0.0055
792.619	0.0064
792.7905	-0.0034
792.9619	0.0021
793.1334	0.0104
793.3048	0.0046
793.4762	0.0028
793.6476	0.0055
793.819	-0.0098
793.9904	0.0148
794.1617	-0.0159
794.333	-0.0001
794.5043	-0.0038
794.6756	-0.0043
794.8469	-0.0021
795.0181	-0.0119
795.1893	-0.0075
795.3605	-0.0041
795.5317	-0.0042
795.7029	-0.0098
795.874	-0.0006
796.0452	-0.0092
796.2163	-0.0027
796.3873	0.0067
796.5584	0.0082
796.7294	-0.026
796.9005	0.0009
797.0715	-0.012
797.2425	-0.018
797.4134	-0.0079
797.5844	-0.0019
797.7553	-0.016
797.9262	-0.012
798.0971	-0.0233
798.2679	-0.0269
798.4388	-0.0206
798.6096	-0.0206
798.7804	-0.0174
798.9512	-0.0128
799.122	-0.0026
799.2927	-0.0256
799.4635	0.0017
799.6342	-0.0299
799.8049	-0.0245
799.9755	-0.0053
800.1462	-0.0234
800.3168	0.0006
800.4874	-0.0125
800.658	0.0181
800.8286	0.0022
800.9991	-0.0023
801.1696	0.0028
801.3402	-0.0015
801.5106	-0.0136
801.6811	-0.0086
801.8516	-0.0018
802.022	-0.0099
802.1924	-0.0002
802.3628	0.0023
802.5332	-0.0122
802.7035	0.0097
802.8739	-0.0083
803.0442	-0.0135
803.2145	0.0021
803.3847	-0.0367
803.555	-0.0077
803.7252	-0.0401
803.8954	-0.0314
804.0656	-0.0313
804.2358	-0.0261
804.4059	-0.0004
804.5761	-0.0191
804.7462	-0.0207
804.9163	-0.0147
805.0864	-0.0219
805.2564	-0.0069
805.4264	-0.0187
805.5965	-0.0136
805.7665	-0.0072
805.9364	-0.0057
806.1064	0.0199
806.2763	-0.019
806.4462	-0.0054
806.6161	-0.0021
806.786	-0.0073
806.9559	-0.0171
807.1257	-0.0066
807.2955	-0.0071
807.4653	-0.0099
807.6351	-0.0194
807.8048	-0.0169
807.9746	0.0062
808.1443	-0.004
808.314	0.0083
808.4837	-0.0079
808.6533	-0.024
808.8229	-0.0103
808.9926	-0.0224
809.1622	0.0154
809.3317	-0.0152
809.5013	-0.0228
809.6708	-0.0096
809.8403	0.0035
810.0098	-0.0193
810.1793	-0.0204
810.3488	-0.0239
810.5182	-0.0308
810.6876	0.0021
810.857	-0.0293
811.0264	0.0033
811.1958	-0.0166
811.3651	-0.002
811.5344	-0.0203
811.7037	-0.0359
811.873	-0.0161
812.0422	-0.0136
812.2115	-0.0202
812.3807	-0.0126
812.5499	-0.0056
812.7191	-0.0137
812.8882	-0.0188
813.0574	-0.0354
813.2265	-0.017
813.3956	-0.0159
813.5646	-0.0098
813.7337	-0.0256
813.9027	0.0077
814.0718	0.0118
814.2407	0.0213
814.4097	0.0046
814.5787	-0.0196
814.7476	-0.0078
814.9165	-0.003
815.0854	-0.009
815.2543	-0.0121
815.4232	-0.0071
815.592	-0.0039
815.7608	0.0118
815.9296	-0.0026
816.0984	0.0087
816.2671	-0.0204
816.4359	-0.0083
816.6046	-0.0141
816.7733	-0.0084
816.942	-0.0199
817.1106	0.0126
817.2793	-0.018
817.4479	-0.0084
817.6165	0.0109
817.785	-0.0111
817.9536	-0.0385
818.1221	-0.0104
818.2906	-0.0178
818.4591	-0.0128
818.6276	-0.0242
818.7961	0.0011
818.9645	-0.0026
819.1329	0.0088
819.3013	-0.0013
819.4697	-0.004
819.638	-0.0233
819.8064	-0.0006
819.9747	0.0096
820.143	-0.0106
820.3113	-0.0247
820.4795	-0.0157
820.6477	0.0015
820.816	-0.017
820.9842	-0.0162
821.1523	-0.0372
821.3205	-0.0291
821.4886	-0.019
821.6567	-0.0056
821.8248	-0.0051
821.9929	0.0127
822.1609	-0.0161
822.329	0.0289
822.497	0.0047
822.665	-0.0089
822.833	-0.0117
823.0009	-0.0168
823.1688	0.0054
823.3367	0.0482
823.5046	0.0145
823.6725	0.0262
823.8404	-0.0042
824.0082	0.0068
824.176	0.0186
824.3438	0.0021
824.5116	-0.0255
824.6793	-0.0011
824.847	-0.0314
825.0147	-0.0142
825.1824	0.0164
825.3501	0.0093
825.5177	-0.0393
825.6854	-0.0414
825.853	-0.0036
826.0206	-0.0467
826.1881	-0.0193
826.3557	-0.0465
826.5232	-0.0076
826.6907	-0.0227
826.8582	-0.0044
827.0257	-0.0491
827.1931	-0.0088
827.3605	0.0037
827.528	-0.0168
827.6953	-0.0258
827.8627	-0.0146
828.03	0.0055
828.1974	-0.0142
828.3647	-0.0477
828.532	-0.013
828.6992	-0.0106
828.8665	-0.0299
829.0337	-0.0278
829.2009	-0.0068
829.3681	-0.029
829.5352	-0.0032
829.7024	-0.0239
829.8695	-0.0682
830.0366	0.0215
830.2037	-0.0232
830.3707	0.0046
830.5378	-0.0192
830.7048	-0.018
830.8718	-0.0206
831.0388	-0.026
831.2057	-0.0015
831.3727	0.0182
831.5396	-0.016
831.7065	-0.0095
831.8734	0.0007
832.0402	-0.0509
832.2071	-0.0256
832.3739	-0.0676
832.5407	0.016
832.7075	-0.0387
832.8742	-0.0357
833.041	-0.0849
833.2077	-0.0077
833.3744	-0.0051
833.541	-0.0176
833.7077	-0.0449
833.8743	-0.0411
834.0409	-0.0225
834.2075	-0.0304
834.3741	-0.0156
834.5407	-0.0167
834.7072	0.023
834.8737	-0.0439
835.0402	-0.0118
835.2067	-0.0152
835.3731	0.0075
835.5395	0.0002
835.706	-0.0231
835.8723	-0.0416
836.0387	-0.0131
836.2051	-0.0345
836.3714	-0.0059
836.5377	-0.0226
836.704	-0.0509
836.8703	-0.0142
837.0365	-0.0247
837.2027	-0.0319
837.3689	-0.0059
837.5351	-0.0274
837.7013	-0.0503
837.8674	-0.047
838.0335	-0.0506
838.1997	-0.0251
838.3657	-0.0636
838.5318	-0.0691
838.6978	0.0031
838.8639	0.0069
839.0299	-0.0424
839.1958	-0.0052
839.3618	-0.0125
839.5277	-0.0537
839.6937	-0.0691
839.8596	-0.0684
840.0254	-0.0309
840.1913	0.0162
840.3571	0.01
840.523	-0.0566
840.6888	-0.0984
840.8545	-0.0304
841.0203	-0.022
841.186	-0.0312
841.3517	0.0038
841.5174	-0.057
841.6831	-0.0546
841.8488	-0.0069
842.0144	0.0266
842.18	0.0047
842.3456	-0.0007
842.5112	-0.0638
842.6767	-0.019
842.8422	-0.0347
843.0077	-0.0267
843.1732	-0.0312
843.3387	-0.062
843.5042	-0.0862
843.6696	-0.0859
843.835	0.0079
844.0004	0.0431
844.1657	0.0197
844.3311	-0.0624
844.4964	-0.1331
844.6617	-0.015
844.827	-0.0633
844.9923	-0.022
845.1575	-0.0459
845.3227	-0.0384
845.4879	-0.0436
845.6531	-0.0219
845.8183	-0.117
845.9834	-0.0144
846.1485	-0.0051
846.3136	-0.0742
846.4787	-0.0659
846.6438	0.1112
846.8088	-0.0568
846.9738	-0.1072
847.1388	0.0004
847.3038	-0.0871
847.4687	-0.1311
847.6337	0.0425
847.7986	0.0152
847.9635	-0.0198
848.1284	-0.0236
848.2932	0.0781
848.458	-0.0745
848.6228	-0.0052
848.7876	0.0447
848.9524	0.0091
849.1172	-0.1103
849.2819	-0.0093
849.4466	-0.137
849.6113	-0.0787
849.7759	-0.0912
849.9406	-0.0736
850.1052	0.0042
850.2698	-0.0915
850.4344	0.0417
850.599	-0.0762
850.7635	0.0389
850.928	-0.0394
851.0925	-0.0832
851.257	-0.0529
851.4215	-0.0399
851.5859	-0.083
851.7503	0.0355
851.9147	0.0241
852.0791	-0.0798
852.2434	0.014
852.4078	0.0156
852.5721	-0.0186
852.7364	-0.0894
852.9007	-0.2528
853.0649	-0.0034
853.2291	-0.0913
853.3934	0.0626
853.5575	-0.0191
853.7217	-0.1194
853.8859	-0.1008
854.05	-0.1309
854.2141	-0.0271
854.3782	-0.0911
854.5423	-0.0172
854.7063	0.0239
854.8703	-0.0753
855.0343	-0.0608
855.1983	-0.1559
855.3623	0.0729
855.5262	-0.0075
855.6901	-0.1182
855.854	-0.0539
856.0179	-0.0294
856.1818	0.1446
856.3456	-0.0934
856.5094	-0.1673
856.6732	-0.2408
856.837	-0.0507
857.0008	0.0121
857.1645	-0.1227
857.3282	-0.1386
857.4919	0.0552
857.6556	-0.0565
857.8192	0.0351
857.9828	-0.0552
858.1465	-0.127
858.31	-0.029
858.4736	-0.0223
858.6372	-0.3289
858.8007	-0.2519
858.9642	-0.0506
859.1277	-0.205
859.2911	0.0936
859.4546	0.0822
859.618	-0.4631
859.7814	-0.0589
859.9448	-0.1129
860.1081	-0.2023
860.2715	0.0217
860.4348	-0.1182
860.5981	0.0255
860.7614	0.0232
860.9246	-0.2233
861.0879	-0.2599
861.2511	-0.1053
861.4143	-0.2542
861.5774	0.0301
861.7406	-0.2174
861.9037	-0.055
862.0668	-0.13
862.2299	-0.1745
862.393	-0.684
862.556	-0.0967
862.7191	-0.3102
862.8821	-0.4109
863.0451	-0.0455
863.208	0.0269
863.371	0.0385
863.5339	-0.337
863.6968	0.0766
863.8597	-0.2987
864.0225	-0.1728
864.1854	-0.2253
864.3482	0.003
864.511	0.0573
864.6737	-0.0177
864.8365	0.1745
864.9992	-0.4722
865.1619	-0.5206
865.3246	-0.4121
865.4873	-0.2276
865.65	-0.2122
865.8126	-0.0059
865.9752	-0.0824
866.1378	-0.1222
866.3004	0.4556
866.4629	0.1772
866.6254	0.9145
866.7879	-0.0346
866.9504	-0.5356
867.1129	-0
867.2753	-0.0693
867.4377	0.1024
867.6001	-0.5246
867.7625	0.2147
867.9249	-0.3163
868.0872	0.0678
868.2495	-0.0707
868.4118	-0.0543
868.5741	-0.2353
868.7363	-0.147
868.8986	-0.439
869.0608	-0.2696
869.223	-0.0324
869.3851	0.906
869.5473	-0
869.7094	0.0608
869.8715	-0
870.0336	-0
870.1957	-0.353
870.3577	-0
870.5197	-0.0771
870.6817	-0.4446
870.8437	-0.2068
871.0057	-0
871.1676	-0.594
871.3295	-0.439
871.4914	-0
871.6533	-0.5001
871.8151	-0.2673
871.977	-0
872.1388	-0
872.3006	-0
872.4623	-0
872.6241	-0
872.7858	0.1666
872.9475	-0.0805
873.1092	-0.0493
873.2709	-0.0962
873.4325	-0.3107
873.5941	-0
873.7557	-0
873.9173	-0
874.0789	-0.3821
874.2404	-0.8683
874.4019	0.1537
874.5634	-0.0783
874.7249	-0.229
874.8863	-0.0876
875.0478	0.1629
875.2092	-0
875.3706	-0.1101
875.5319	-0.7168
875.6933	0.126
875.8546	-0.4492
876.0159	0.1487
876.1772	-0
876.3385	-0
876.4997	0.4387
876.6609	-0.6244
876.8221	-0
876.9833	-0
877.1445	-0
877.3056	0.1015
877.4667	0.7698
877.6278	-0
877.7889	-0.4989
877.9499	-0
878.111	-0
878.272	-0
878.433	-0
878.5939	-0
878.7549	-0.1814
878.9158	-0.8421
879.0767	0.2962
879.2376	-0
879.3984	-0.3363
879.5593	-0
879.7201	0.5202
879.8809	-0.8184
880.0417	-0.096
880.2024	0.085
880.3632	-0.5628
880.5239	0.0771
880.6846	0.7615
880.8452	-2.1569
881.0059	-0
881.1665	0.0092
881.3271	-0.0941
881.4877	-0.5717
881.6483	-0.7251
881.8088	-0.5877
881.9693	-0
882.1298	-0
882.2903	-0
