Data from MonoPyChalIsomerACN10uM420nmA_Absorbance_15-09-51-535.txt Node
Date: Fri Jul 05 15:09:51 BST 2024
User: LASERRRRR
Spectrometer: FLMT03099
Trigger mode: 0
Integration Time (sec): 1.000000E-1
Scans to average: 1
Electric dark correction enabled: true
Nonlinearity correction enabled: false
Boxcar width: 0
XAxis mode: Wavelengths
Number of Pixels in Spectrum: 3648
>>>>>Begin Spectral Data<<<<<
179.3399	-0.1441
179.5586	-0.1441
179.7771	-0.1441
179.9957	0.1737
180.2143	0.2632
180.4329	-0.0616
180.6514	-0
180.8699	-0
181.0885	-0.1785
181.307	-0.0325
181.5255	-0
181.744	-0
181.9625	-0
182.181	-0
182.3994	-0
182.6179	-0
182.8363	0.2283
183.0547	-0.1883
183.2732	0.1256
183.4916	-0.1049
183.71	-0.1002
183.9284	-0.0205
184.1467	0.1258
184.3651	0.1338
184.5835	0.0692
184.8018	-0.0773
185.0201	0.202
185.2385	-0.0475
185.4568	0.1195
185.6751	0.0309
185.8934	0.3364
186.1117	-0.1196
186.3299	0.1219
186.5482	0.0844
186.7664	-0.1265
186.9847	-0.1738
187.2029	-0.0091
187.4211	0.03
187.6393	0.1438
187.8575	-0.1527
188.0757	0.0182
188.2939	0.1888
188.512	0.2152
188.7302	0.0921
188.9483	-0.0958
189.1665	0.2337
189.3846	0.1022
189.6027	0.0881
189.8208	0.2012
190.0389	0.0631
190.257	0.1605
190.475	0.4399
190.6931	0.6091
190.9111	0.3772
191.1292	0.0852
191.3472	0.5102
191.5652	0.2849
191.7832	0.3461
192.0012	0.643
192.2192	0.4572
192.4371	0.3376
192.6551	0.3494
192.873	0.4287
193.091	0.319
193.3089	0.6003
193.5268	0.4454
193.7447	0.5875
193.9626	0.4558
194.1805	0.5826
194.3984	0.5869
194.6162	0.6547
194.8341	0.53
195.0519	0.6468
195.2697	0.7056
195.4875	0.4354
195.7054	0.4859
195.9231	0.494
196.1409	0.5297
196.3587	0.7573
196.5765	0.5674
196.7942	0.7783
197.012	0.7178
197.2297	0.6856
197.4474	0.7117
197.6651	0.4638
197.8828	0.5999
198.1005	0.5502
198.3182	0.5133
198.5358	0.8857
198.7535	0.5613
198.9711	0.5331
199.1888	0.5872
199.4064	0.7199
199.624	0.5793
199.8416	0.5587
200.0592	0.774
200.2767	0.7186
200.4943	0.6952
200.7119	0.8819
200.9294	0.7599
201.1469	0.6363
201.3645	0.5741
201.582	0.6321
201.7995	0.6704
202.017	0.629
202.2344	0.6331
202.4519	0.717
202.6694	0.6417
202.8868	0.674
203.1042	0.6646
203.3217	0.6781
203.5391	0.6077
203.7565	0.7293
203.9739	0.7317
204.1913	0.6469
204.4086	0.6613
204.626	0.734
204.8433	0.7472
205.0607	0.6465
205.278	0.6499
205.4953	0.7127
205.7126	0.7082
205.9299	0.7098
206.1472	0.6781
206.3644	0.6259
206.5817	0.6824
206.7989	0.6781
207.0162	0.6804
207.2334	0.6691
207.4506	0.6826
207.6678	0.6763
207.885	0.7035
208.1022	0.7013
208.3194	0.6664
208.5365	0.6434
208.7537	0.662
208.9708	0.6258
209.1879	0.6358
209.405	0.6698
209.6222	0.6848
209.8392	0.5931
210.0563	0.7527
210.2734	0.7021
210.4905	0.6128
210.7075	0.6648
210.9245	0.6206
211.1416	0.7537
211.3586	0.6296
211.5756	0.6284
211.7926	0.6133
212.0096	0.5877
212.2265	0.5869
212.4435	0.5913
212.6604	0.567
212.8774	0.6547
213.0943	0.6099
213.3112	0.5874
213.5281	0.5534
213.745	0.4959
213.9619	0.4925
214.1788	0.5437
214.3956	0.5359
214.6125	0.4713
214.8293	0.4494
215.0461	0.4612
215.2629	0.4629
215.4798	0.475
215.6965	0.446
215.9133	0.4491
216.1301	0.4695
216.3469	0.4532
216.5636	0.4432
216.7803	0.3936
216.9971	0.4102
217.2138	0.3771
217.4305	0.3617
217.6472	0.3674
217.8639	0.3929
218.0805	0.336
218.2972	0.3234
218.5138	0.3445
218.7305	0.3339
218.9471	0.3238
219.1637	0.3095
219.3803	0.306
219.5969	0.2862
219.8135	0.2795
220.0301	0.2683
220.2466	0.2826
220.4632	0.2594
220.6797	0.27
220.8962	0.2394
221.1127	0.2663
221.3292	0.2356
221.5457	0.2419
221.7622	0.2456
221.9787	0.2722
222.1951	0.2455
222.4116	0.2709
222.628	0.2391
222.8444	0.2659
223.0608	0.2554
223.2772	0.2476
223.4936	0.2723
223.71	0.2411
223.9264	0.2545
224.1427	0.2591
224.3591	0.2648
224.5754	0.277
224.7917	0.2698
225.008	0.2625
225.2243	0.2639
225.4406	0.2977
225.6569	0.2543
225.8732	0.2639
226.0894	0.2623
226.3057	0.2646
226.5219	0.2888
226.7381	0.2798
226.9543	0.2827
227.1705	0.285
227.3867	0.2945
227.6029	0.2916
227.8191	0.2812
228.0352	0.2869
228.2513	0.3104
228.4675	0.321
228.6836	0.2995
228.8997	0.3019
229.1158	0.3398
229.3319	0.3185
229.548	0.3213
229.764	0.3149
229.9801	0.3071
230.1961	0.341
230.4121	0.3278
230.6282	0.3396
230.8442	0.3285
231.0602	0.3574
231.2761	0.3497
231.4921	0.3393
231.7081	0.3432
231.924	0.3578
232.14	0.3689
232.3559	0.338
232.5718	0.3633
232.7877	0.3544
233.0036	0.3382
233.2195	0.3608
233.4353	0.3688
233.6512	0.3844
233.867	0.3596
234.0829	0.3834
234.2987	0.3557
234.5145	0.3954
234.7303	0.3875
234.9461	0.3631
235.1619	0.3824
235.3776	0.3818
235.5934	0.3816
235.8091	0.3822
236.0249	0.3776
236.2406	0.4018
236.4563	0.3801
236.672	0.3982
236.8877	0.3995
237.1034	0.3987
237.319	0.3998
237.5347	0.4122
237.7503	0.3927
237.966	0.4126
238.1816	0.4123
238.3972	0.4136
238.6128	0.3932
238.8284	0.4028
239.0439	0.4148
239.2595	0.3907
239.475	0.4141
239.6906	0.4027
239.9061	0.4114
240.1216	0.4091
240.3371	0.4264
240.5526	0.3992
240.7681	0.403
240.9836	0.3903
241.199	0.4062
241.4145	0.3995
241.6299	0.3949
241.8453	0.3858
242.0607	0.3754
242.2761	0.3678
242.4915	0.3815
242.7069	0.3682
242.9223	0.3714
243.1376	0.3658
243.353	0.3601
243.5683	0.3501
243.7836	0.3366
243.9989	0.3476
244.2142	0.3252
244.4295	0.3352
244.6448	0.3215
244.86	0.3207
245.0753	0.3008
245.2905	0.2959
245.5057	0.2848
245.721	0.2863
245.9362	0.2694
246.1514	0.2784
246.3665	0.2786
246.5817	0.2657
246.7969	0.2611
247.012	0.2576
247.2271	0.2521
247.4423	0.2426
247.6574	0.2489
247.8725	0.2459
248.0876	0.2264
248.3026	0.2434
248.5177	0.2315
248.7328	0.228
248.9478	0.2117
249.1628	0.2184
249.3779	0.2245
249.5929	0.2161
249.8079	0.2144
250.0228	0.2066
250.2378	0.2122
250.4528	0.2211
250.6677	0.1881
250.8827	0.1994
251.0976	0.2142
251.3125	0.1974
251.5274	0.1833
251.7423	0.1937
251.9572	0.198
252.172	0.1939
252.3869	0.1927
252.6017	0.1835
252.8166	0.1773
253.0314	0.1769
253.2462	0.1652
253.461	0.1814
253.6758	0.185
253.8906	0.1866
254.1053	0.1731
254.3201	0.1783
254.5348	0.1914
254.7496	0.1852
254.9643	0.1689
255.179	0.1716
255.3937	0.178
255.6083	0.1804
255.823	0.1689
256.0377	0.1648
256.2523	0.1798
256.467	0.1647
256.6816	0.1706
256.8962	0.1711
257.1108	0.1659
257.3254	0.1861
257.54	0.178
257.7545	0.1702
257.9691	0.1815
258.1836	0.1716
258.3981	0.1815
258.6127	0.188
258.8272	0.1609
259.0417	0.1694
259.2561	0.1689
259.4706	0.1848
259.6851	0.178
259.8995	0.1624
260.114	0.1773
260.3284	0.1664
260.5428	0.1649
260.7572	0.1679
260.9716	0.1709
261.186	0.1546
261.4003	0.1762
261.6147	0.1733
261.829	0.1753
262.0433	0.1718
262.2577	0.1563
262.472	0.1725
262.6863	0.1643
262.9005	0.1712
263.1148	0.1746
263.3291	0.1543
263.5433	0.1774
263.7576	0.1693
263.9718	0.1809
264.186	0.1711
264.4002	0.1669
264.6144	0.1734
264.8286	0.1775
265.0427	0.1673
265.2569	0.1761
265.471	0.1601
265.6851	0.1583
265.8993	0.1601
266.1134	0.1754
266.3275	0.1699
266.5415	0.1561
266.7556	0.1689
266.9697	0.1718
267.1837	0.173
267.3978	0.162
267.6118	0.1836
267.8258	0.1844
268.0398	0.1645
268.2538	0.1843
268.4677	0.1746
268.6817	0.162
268.8957	0.157
269.1096	0.1742
269.3235	0.1677
269.5374	0.1624
269.7514	0.1524
269.9652	0.1561
270.1791	0.1594
270.393	0.1565
270.6068	0.1616
270.8207	0.1605
271.0345	0.1579
271.2483	0.1631
271.4622	0.1535
271.676	0.1568
271.8897	0.1378
272.1035	0.1436
272.3173	0.1526
272.531	0.1578
272.7448	0.1497
272.9585	0.1503
273.1722	0.1476
273.3859	0.1674
273.5996	0.1424
273.8133	0.1671
274.0269	0.1413
274.2406	0.1491
274.4542	0.1521
274.6679	0.1458
274.8815	0.1539
275.0951	0.152
275.3087	0.1606
275.5223	0.1555
275.7358	0.1528
275.9494	0.1626
276.1629	0.1425
276.3765	0.1547
276.59	0.1551
276.8035	0.1455
277.017	0.1476
277.2305	0.1528
277.444	0.1546
277.6574	0.1535
277.8709	0.1542
278.0843	0.1493
278.2978	0.1425
278.5112	0.1417
278.7246	0.1561
278.938	0.1559
279.1513	0.1599
279.3647	0.1739
279.5781	0.1545
279.7914	0.163
280.0047	0.1641
280.2181	0.1518
280.4314	0.1543
280.6447	0.1688
280.8579	0.1629
281.0712	0.1654
281.2845	0.1682
281.4977	0.164
281.711	0.1515
281.9242	0.162
282.1374	0.1644
282.3506	0.1528
282.5638	0.1697
282.7769	0.168
282.9901	0.1614
283.2033	0.1767
283.4164	0.1698
283.6295	0.1523
283.8426	0.1562
284.0557	0.1558
284.2688	0.1715
284.4819	0.171
284.695	0.1589
284.908	0.1643
285.1211	0.1663
285.3341	0.1716
285.5471	0.1703
285.7601	0.1622
285.9731	0.1564
286.1861	0.1513
286.3991	0.1696
286.612	0.1784
286.825	0.1759
287.0379	0.1692
287.2508	0.1605
287.4637	0.1662
287.6766	0.1546
287.8895	0.1676
288.1024	0.1836
288.3152	0.17
288.5281	0.1654
288.7409	0.1634
288.9538	0.1661
289.1666	0.1672
289.3794	0.1537
289.5922	0.1576
289.8049	0.1687
290.0177	0.1571
290.2304	0.169
290.4432	0.1666
290.6559	0.1653
290.8686	0.1701
291.0813	0.1645
291.294	0.17
291.5067	0.1704
291.7194	0.1651
291.932	0.1716
292.1447	0.1618
292.3573	0.1618
292.5699	0.168
292.7825	0.163
292.9951	0.1587
293.2077	0.1665
293.4203	0.1695
293.6328	0.1467
293.8454	0.1777
294.0579	0.1762
294.2704	0.1707
294.4829	0.1645
294.6954	0.1649
294.9079	0.1549
295.1204	0.1591
295.3328	0.1667
295.5453	0.1644
295.7577	0.1646
295.9701	0.1536
296.1825	0.1605
296.3949	0.1588
296.6073	0.1651
296.8197	0.1412
297.0321	0.1773
297.2444	0.1473
297.4567	0.1643
297.6691	0.1528
297.8814	0.1536
298.0937	0.1747
298.306	0.1615
298.5182	0.154
298.7305	0.1652
298.9428	0.1586
299.155	0.1668
299.3672	0.1573
299.5794	0.1567
299.7916	0.1641
300.0038	0.1657
300.216	0.1716
300.4282	0.1586
300.6403	0.1626
300.8525	0.1754
301.0646	0.1516
301.2767	0.1634
301.4888	0.158
301.7009	0.1636
301.913	0.1547
302.125	0.1683
302.3371	0.165
302.5491	0.163
302.7612	0.1731
302.9732	0.17
303.1852	0.1736
303.3972	0.1715
303.6092	0.1558
303.8211	0.1472
304.0331	0.1582
304.245	0.1561
304.457	0.1619
304.6689	0.1508
304.8808	0.1628
305.0927	0.1507
305.3046	0.1538
305.5164	0.1593
305.7283	0.1527
305.9401	0.1471
306.152	0.1413
306.3638	0.1505
306.5756	0.1505
306.7874	0.1491
306.9992	0.1492
307.2109	0.1473
307.4227	0.1266
307.6344	0.1374
307.8462	0.1379
308.0579	0.14
308.2696	0.1346
308.4813	0.1223
308.693	0.134
308.9046	0.1402
309.1163	0.1316
309.328	0.1285
309.5396	0.1243
309.7512	0.1126
309.9628	0.1229
310.1744	0.1272
310.386	0.1233
310.5976	0.1298
310.8091	0.1215
311.0207	0.1199
311.2322	0.1256
311.4437	0.1241
311.6552	0.1264
311.8667	0.1263
312.0782	0.1007
312.2897	0.1062
312.5012	0.1101
312.7126	0.1058
312.924	0.1073
313.1355	0.1178
313.3469	0.1136
313.5583	0.1089
313.7696	0.1071
313.981	0.1098
314.1924	0.1103
314.4037	0.1054
314.6151	0.1142
314.8264	0.103
315.0377	0.1053
315.249	0.1189
315.4603	0.1152
315.6716	0.0961
315.8828	0.1031
316.0941	0.0989
316.3053	0.099
316.5165	0.0968
316.7277	0.0937
316.9389	0.1124
317.1501	0.0928
317.3613	0.1036
317.5724	0.0936
317.7836	0.1012
317.9947	0.1026
318.2058	0.1028
318.417	0.0963
318.6281	0.0887
318.8391	0.1031
319.0502	0.0999
319.2613	0.1027
319.4723	0.106
319.6834	0.1109
319.8944	0.0981
320.1054	0.1099
320.3164	0.1108
320.5274	0.105
320.7383	0.1022
320.9493	0.1038
321.1602	0.1099
321.3712	0.0978
321.5821	0.0991
321.793	0.0952
322.0039	0.1025
322.2148	0.1069
322.4257	0.1157
322.6365	0.114
322.8474	0.1158
323.0582	0.0986
323.269	0.1166
323.4798	0.116
323.6906	0.106
323.9014	0.1141
324.1122	0.1074
324.3229	0.1026
324.5337	0.1088
324.7444	0.0949
324.9551	0.1091
325.1658	0.1009
325.3765	0.1081
325.5872	0.1179
325.7979	0.1042
326.0085	0.1086
326.2192	0.1113
326.4298	0.1159
326.6404	0.0932
326.851	0.0966
327.0616	0.101
327.2722	0.1148
327.4828	0.1221
327.6933	0.1156
327.9039	0.1266
328.1144	0.1226
328.3249	0.1184
328.5354	0.0921
328.7459	0.1034
328.9564	0.1103
329.1669	0.1157
329.3773	0.1046
329.5878	0.1102
329.7982	0.1095
330.0086	0.1027
330.219	0.1123
330.4294	0.1041
330.6398	0.1138
330.8502	0.1011
331.0605	0.1064
331.2708	0.1149
331.4812	0.112
331.6915	0.1025
331.9018	0.1083
332.1121	0.1104
332.3224	0.1146
332.5326	0.1153
332.7429	0.1171
332.9531	0.1214
333.1633	0.11
333.3735	0.1114
333.5837	0.1197
333.7939	0.105
334.0041	0.1342
334.2143	0.1171
334.4244	0.1243
334.6346	0.1036
334.8447	0.1301
335.0548	0.1005
335.2649	0.108
335.475	0.1186
335.685	0.1095
335.8951	0.128
336.1051	0.1153
336.3152	0.1184
336.5252	0.1079
336.7352	0.1098
336.9452	0.1134
337.1552	0.1246
337.3652	0.108
337.5751	0.1161
337.7851	0.111
337.995	0.1067
338.2049	0.1185
338.4148	0.1141
338.6247	0.1225
338.8346	0.1096
339.0445	0.1076
339.2543	0.119
339.4642	0.1228
339.674	0.1206
339.8838	0.1158
340.0936	0.1123
340.3034	0.1385
340.5132	0.1213
340.7229	0.1219
340.9327	0.1277
341.1424	0.1117
341.3522	0.1234
341.5619	0.1215
341.7716	0.1365
341.9813	0.117
342.1909	0.1262
342.4006	0.1292
342.6102	0.1237
342.8199	0.1229
343.0295	0.1341
343.2391	0.121
343.4487	0.1446
343.6583	0.1259
343.8679	0.1299
344.0774	0.1264
344.287	0.1398
344.4965	0.1296
344.706	0.1322
344.9155	0.1244
345.125	0.1273
345.3345	0.1283
345.544	0.1169
345.7534	0.1437
345.9629	0.142
346.1723	0.1307
346.3817	0.1334
346.5911	0.1373
346.8005	0.1339
347.0099	0.1405
347.2193	0.1391
347.4286	0.1315
347.638	0.1504
347.8473	0.1368
348.0566	0.1353
348.2659	0.1399
348.4752	0.1387
348.6845	0.1247
348.8937	0.1276
349.103	0.1454
349.3122	0.1279
349.5214	0.1453
349.7306	0.1384
349.9398	0.14
350.149	0.1386
350.3582	0.141
350.5674	0.1506
350.7765	0.1483
350.9856	0.1487
351.1948	0.1369
351.4039	0.1421
351.613	0.1282
351.822	0.1576
352.0311	0.1435
352.2402	0.1397
352.4492	0.1563
352.6582	0.1477
352.8672	0.1492
353.0762	0.149
353.2852	0.1416
353.4942	0.1526
353.7032	0.1475
353.9121	0.1556
354.1211	0.1591
354.33	0.1591
354.5389	0.1508
354.7478	0.1494
354.9567	0.1621
355.1655	0.1359
355.3744	0.1553
355.5833	0.1685
355.7921	0.1747
356.0009	0.151
356.2097	0.1832
356.4185	0.173
356.6273	0.1669
356.8361	0.1614
357.0448	0.1504
357.2536	0.1581
357.4623	0.1703
357.671	0.1527
357.8797	0.1683
358.0884	0.1678
358.2971	0.1636
358.5057	0.172
358.7144	0.1714
358.923	0.1663
359.1316	0.176
359.3402	0.1775
359.5488	0.1626
359.7574	0.1625
359.966	0.173
360.1746	0.1809
360.3831	0.1688
360.5916	0.1712
360.8002	0.1682
361.0087	0.1753
361.2172	0.1695
361.4256	0.1865
361.6341	0.1798
361.8426	0.1895
362.051	0.1699
362.2594	0.1761
362.4678	0.1808
362.6762	0.2035
362.8846	0.182
363.093	0.1789
363.3014	0.187
363.5097	0.1673
363.718	0.1824
363.9264	0.1843
364.1347	0.1725
364.343	0.19
364.5513	0.2084
364.7595	0.2057
364.9678	0.1836
365.176	0.1861
365.3842	0.1857
365.5925	0.1953
365.8007	0.2007
366.0089	0.1998
366.217	0.1907
366.4252	0.2003
366.6333	0.2129
366.8415	0.2019
367.0496	0.1801
367.2577	0.2074
367.4658	0.2099
367.6739	0.1977
367.882	0.2168
368.09	0.1984
368.2981	0.2024
368.5061	0.183
368.7141	0.2034
368.9221	0.2283
369.1301	0.196
369.3381	0.2141
369.5461	0.2063
369.754	0.2181
369.962	0.2172
370.1699	0.2046
370.3778	0.2221
370.5857	0.1843
370.7936	0.194
371.0015	0.207
371.2093	0.2238
371.4172	0.2319
371.625	0.2087
371.8328	0.2094
372.0406	0.2096
372.2484	0.2006
372.4562	0.229
372.664	0.2169
372.8717	0.2228
373.0795	0.1896
373.2872	0.2251
373.4949	0.2105
373.7026	0.2009
373.9103	0.2256
374.118	0.2301
374.3256	0.2237
374.5333	0.2154
374.7409	0.2173
374.9485	0.2355
375.1561	0.2218
375.3637	0.2336
375.5713	0.2264
375.7789	0.2266
375.9864	0.2488
376.194	0.2293
376.4015	0.236
376.609	0.2373
376.8165	0.2402
377.024	0.2163
377.2315	0.224
377.4389	0.2408
377.6464	0.2268
377.8538	0.2376
378.0612	0.2222
378.2686	0.2349
378.476	0.236
378.6834	0.2254
378.8908	0.2395
379.0981	0.2353
379.3055	0.2398
379.5128	0.2206
379.7201	0.2546
379.9274	0.2339
380.1347	0.2291
380.342	0.2624
380.5492	0.2214
380.7565	0.2385
380.9637	0.2449
381.1709	0.2252
381.3781	0.2463
381.5853	0.2448
381.7925	0.2551
381.9997	0.2503
382.2068	0.2627
382.4139	0.2572
382.6211	0.2361
382.8282	0.2441
383.0353	0.2329
383.2424	0.2393
383.4494	0.2427
383.6565	0.2417
383.8635	0.2537
384.0706	0.2356
384.2776	0.2457
384.4846	0.2469
384.6916	0.246
384.8986	0.2411
385.1055	0.2446
385.3125	0.2381
385.5194	0.2262
385.7263	0.2565
385.9333	0.247
386.1402	0.2365
386.347	0.2451
386.5539	0.2462
386.7608	0.2527
386.9676	0.2248
387.1744	0.2388
387.3813	0.2245
387.5881	0.25
387.7948	0.2389
388.0016	0.2304
388.2084	0.2372
388.4151	0.2304
388.6219	0.2428
388.8286	0.2381
389.0353	0.2474
389.242	0.2386
389.4487	0.2213
389.6553	0.2413
389.862	0.2073
390.0686	0.2254
390.2753	0.2395
390.4819	0.2314
390.6885	0.247
390.8951	0.2413
391.1016	0.2263
391.3082	0.2265
391.5147	0.2222
391.7213	0.2231
391.9278	0.2134
392.1343	0.2185
392.3408	0.2188
392.5473	0.2276
392.7537	0.2086
392.9602	0.217
393.1666	0.2301
393.373	0.2116
393.5794	0.2358
393.7858	0.2214
393.9922	0.2176
394.1986	0.2239
394.4049	0.2136
394.6113	0.2202
394.8176	0.2049
395.0239	0.2234
395.2302	0.2106
395.4365	0.2165
395.6428	0.223
395.8491	0.1976
396.0553	0.2116
396.2615	0.2126
396.4678	0.2114
396.674	0.1931
396.8802	0.2199
397.0863	0.23
397.2925	0.1913
397.4987	0.1894
397.7048	0.2126
397.9109	0.2063
398.117	0.2019
398.3231	0.2004
398.5292	0.2043
398.7353	0.2039
398.9413	0.1966
399.1474	0.21
399.3534	0.2045
399.5594	0.1989
399.7654	0.2191
399.9714	0.2225
400.1774	0.2018
400.3833	0.1849
400.5893	0.1952
400.7952	0.207
401.0011	0.1949
401.207	0.2171
401.4129	0.1947
401.6188	0.2033
401.8247	0.2095
402.0305	0.189
402.2364	0.1978
402.4422	0.2054
402.648	0.208
402.8538	0.2102
403.0596	0.2072
403.2654	0.1984
403.4711	0.1845
403.6768	0.201
403.8826	0.2125
404.0883	0.2012
404.294	0.198
404.4997	0.1964
404.7054	0.2057
404.911	0.183
405.1167	0.2034
405.3223	0.2038
405.5279	0.2069
405.7335	0.2106
405.9391	0.2096
406.1447	0.2015
406.3502	0.2028
406.5558	0.1901
406.7613	0.2224
406.9668	0.1969
407.1724	0.2137
407.3778	0.2042
407.5833	0.1924
407.7888	0.2046
407.9942	0.2043
408.1997	0.1881
408.4051	0.1926
408.6105	0.1964
408.8159	0.194
409.0213	0.1927
409.2267	0.2079
409.432	0.1892
409.6374	0.2081
409.8427	0.1961
410.048	0.2019
410.2533	0.2083
410.4586	0.1845
410.6639	0.1849
410.8691	0.1763
411.0744	0.1941
411.2796	0.1815
411.4848	0.2049
411.69	0.1967
411.8952	0.2226
412.1004	0.184
412.3056	0.2137
412.5107	0.1954
412.7158	0.2037
412.921	0.203
413.1261	0.1969
413.3312	0.1803
413.5362	0.1966
413.7413	0.2006
413.9464	0.1908
414.1514	0.2003
414.3564	0.2028
414.5614	0.1811
414.7664	0.1891
414.9714	0.1962
415.1764	0.1989
415.3813	0.1851
415.5863	0.1995
415.7912	0.1905
415.9961	0.1949
416.201	0.1873
416.4059	0.1931
416.6108	0.1807
416.8156	0.1857
417.0205	0.1827
417.2253	0.1761
417.4301	0.1975
417.6349	0.1806
417.8397	0.178
418.0445	0.1957
418.2492	0.1931
418.454	0.1898
418.6587	0.1806
418.8634	0.1729
419.0681	0.1886
419.2728	0.1731
419.4775	0.1764
419.6822	0.1676
419.8868	0.1718
420.0915	0.1752
420.2961	0.1606
420.5007	0.1726
420.7053	0.1778
420.9099	0.1898
421.1144	0.1796
421.319	0.1739
421.5235	0.181
421.728	0.1823
421.9325	0.1684
422.137	0.201
422.3415	0.1763
422.546	0.1752
422.7504	0.1782
422.9549	0.1806
423.1593	0.1865
423.3637	0.1838
423.5681	0.1712
423.7725	0.1551
423.9769	0.151
424.1812	0.1567
424.3856	0.1756
424.5899	0.1656
424.7942	0.1594
424.9985	0.1664
425.2028	0.1621
425.4071	0.2128
425.6113	0.1477
425.8156	0.1804
426.0198	0.1836
426.224	0.1446
426.4282	0.1579
426.6324	0.1477
426.8366	0.1521
427.0407	0.1623
427.2449	0.1478
427.449	0.1577
427.6531	0.136
427.8572	0.1409
428.0613	0.1426
428.2654	0.1507
428.4694	0.1366
428.6735	0.1495
428.8775	0.1591
429.0815	0.1489
429.2855	0.1418
429.4895	0.1447
429.6935	0.1408
429.8975	0.1506
430.1014	0.1404
430.3053	0.1214
430.5093	0.1329
430.7132	0.1288
430.9171	0.1357
431.1209	0.1407
431.3248	0.1238
431.5286	0.1313
431.7325	0.1286
431.9363	0.1246
432.1401	0.1319
432.3439	0.1227
432.5477	0.1019
432.7514	0.1193
432.9552	0.1282
433.1589	0.1029
433.3627	0.1146
433.5664	0.1061
433.7701	0.1221
433.9737	0.1087
434.1774	0.1012
434.3811	0.0996
434.5847	0.121
434.7883	0.1004
434.9919	0.0931
435.1955	0.1044
435.3991	0.106
435.6027	0.1077
435.8062	0.1069
436.0098	0.0983
436.2133	0.0904
436.4168	0.0806
436.6203	0.1049
436.8238	0.0979
437.0272	0.0886
437.2307	0.0783
437.4341	0.1007
437.6375	0.0951
437.841	0.0709
438.0443	0.0807
438.2477	0.0791
438.4511	0.0716
438.6545	0.0991
438.8578	0.0955
439.0611	0.08
439.2644	0.0713
439.4677	0.0705
439.671	0.0743
439.8743	0.091
440.0775	0.0969
440.2808	0.0799
440.484	0.0739
440.6872	0.0564
440.8904	0.075
441.0936	0.0843
441.2967	0.0727
441.4999	0.0558
441.703	0.0583
441.9062	0.0465
442.1093	0.0657
442.3124	0.0601
442.5155	0.0399
442.7185	0.0591
442.9216	0.0316
443.1246	0.0617
443.3276	0.0451
443.5307	0.0546
443.7337	0.0587
443.9366	0.0532
444.1396	0.0662
444.3426	0.0478
444.5455	0.0587
444.7484	0.0347
444.9513	0.0379
445.1542	0.0549
445.3571	0.0423
445.56	0.0513
445.7628	0.0408
445.9657	0.0325
446.1685	0.0575
446.3713	0.0586
446.5741	0.0453
446.7769	0.0336
446.9797	0.0382
447.1824	0.0478
447.3852	0.0328
447.5879	0.0441
447.7906	0.0514
447.9933	0.0486
448.196	0.0256
448.3986	0.0229
448.6013	0.0303
448.8039	0.0154
449.0066	0.0262
449.2092	0.0279
449.4118	0.0335
449.6143	0.0285
449.8169	0.0389
450.0195	0.026
450.222	0.0191
450.4245	0.0158
450.627	0.0321
450.8295	0.0214
451.032	0.024
451.2345	0.0208
451.4369	0.0276
451.6394	0.0312
451.8418	0.0095
452.0442	0.0149
452.2466	0.0344
452.449	0.0121
452.6513	0.0317
452.8537	0.0352
453.056	0.0038
453.2583	0.0217
453.4607	0.0088
453.663	0.0115
453.8652	0.0093
454.0675	0.0058
454.2697	0.0262
454.472	0.0015
454.6742	0.0087
454.8764	0.0161
455.0786	0.0181
455.2808	0.01
455.4829	0.0186
455.6851	0.0143
455.8872	0.0241
456.0893	0.0294
456.2915	-0.0038
456.4935	0.0144
456.6956	0.0044
456.8977	0.0127
457.0997	0.0135
457.3018	-0.0052
457.5038	0.0264
457.7058	0.0002
457.9078	-0.0076
458.1098	0.0189
458.3117	0.011
458.5137	0.0125
458.7156	0.0043
458.9175	0.0048
459.1194	-0.0005
459.3213	0.012
459.5232	0.0069
459.725	0.0042
459.9269	-0.0052
460.1287	-0.0014
460.3305	-0.0011
460.5323	0.0011
460.7341	0.0073
460.9359	0.0029
461.1376	0.0082
461.3394	-0.0041
461.5411	0.0061
461.7428	0.0002
461.9445	0.0152
462.1462	0.0119
462.3479	-0.0103
462.5495	-0.0076
462.7512	0.006
462.9528	0.0062
463.1544	0.0023
463.356	0.0031
463.5576	0.0037
463.7592	-0.0179
463.9607	-0.0039
464.1623	0.0199
464.3638	0.022
464.5653	-0.0208
464.7668	0.0027
464.9683	0.0007
465.1697	0.0084
465.3712	-0.0147
465.5726	-0.0072
465.7741	-0.0001
465.9755	-0.0027
466.1769	-0.0045
466.3782	0.0038
466.5796	-0.0008
466.7809	0.0132
466.9823	-0.0065
467.1836	-0.0058
467.3849	0.0037
467.5862	-0.0027
467.7875	0
467.9887	0.0111
468.19	-0.0064
468.3912	-0.0216
468.5924	-0.0089
468.7936	-0.001
468.9948	0.0016
469.196	0.0026
469.3972	-0.0141
469.5983	-0.0042
469.7994	-0.0128
470.0006	-0.0051
470.2017	-0.0205
470.4027	-0.0136
470.6038	-0.0105
470.8049	-0.0165
471.0059	-0.0011
471.2069	-0.0219
471.408	-0.005
471.6089	0.005
471.8099	-0.0003
472.0109	-0.0062
472.2119	-0.0015
472.4128	-0.0247
472.6137	-0.0041
472.8146	-0.0191
473.0155	-0.008
473.2164	-0.0127
473.4173	0.0014
473.6181	-0.0035
473.819	0.0099
474.0198	0.0003
474.2206	-0.0064
474.4214	-0.013
474.6222	0.0063
474.8229	-0.0117
475.0237	-0.0244
475.2244	-0.0118
475.4251	-0.0029
475.6258	-0.0056
475.8265	0.0025
476.0272	-0.0031
476.2278	-0.0071
476.4285	-0.0125
476.6291	-0.0051
476.8297	-0.0135
477.0303	-0.0184
477.2309	-0.001
477.4315	-0.0019
477.632	-0.0058
477.8326	-0.0149
478.0331	-0.0084
478.2336	-0.0008
478.4341	-0.0104
478.6346	-0.0141
478.8351	-0.0105
479.0355	0.0055
479.236	-0.0147
479.4364	-0.0013
479.6368	-0.0026
479.8372	-0.013
480.0376	-0.0066
480.2379	-0.0309
480.4383	-0.0171
480.6386	0.0012
480.8389	0.0108
481.0392	-0.0091
481.2395	-0.0082
481.4398	0.0072
481.6401	-0.0038
481.8403	-0.0068
482.0405	-0.0014
482.2408	-0.0034
482.441	-0.0026
482.6411	-0.0043
482.8413	-0.01
483.0415	-0.0057
483.2416	-0.0044
483.4417	0.0049
483.6419	-0.0119
483.8419	-0.015
484.042	-0.0011
484.2421	0.0057
484.4422	0.0022
484.6422	-0.0031
484.8422	-0.0013
485.0422	-0.0085
485.2422	-0.0014
485.4422	-0.0122
485.6422	-0.0128
485.8421	-0.005
486.042	-0.002
486.242	-0.0034
486.4419	-0.0162
486.6417	-0.0074
486.8416	-0.0103
487.0415	-0.0019
487.2413	-0.0104
487.4411	-0.0116
487.641	-0.0122
487.8408	-0.0004
488.0405	-0.0006
488.2403	-0.018
488.4401	-0.0056
488.6398	-0.0001
488.8395	-0.0021
489.0392	-0.0058
489.2389	-0.0159
489.4386	-0.0095
489.6383	-0.0116
489.8379	-0.0092
490.0376	0.0021
490.2372	-0.0127
490.4368	-0.0182
490.6364	-0.0036
490.836	-0.0054
491.0355	-0.0129
491.2351	-0.0097
491.4346	-0.0179
491.6341	-0.0233
491.8336	0.0035
492.0331	-0.0205
492.2326	-0.0144
492.432	-0.0102
492.6315	-0.0051
492.8309	-0.0148
493.0303	-0.0158
493.2297	-0.0048
493.4291	-0.0047
493.6284	-0.0124
493.8278	-0.0083
494.0271	-0.0135
494.2264	-0.0082
494.4257	-0.0221
494.625	-0.0178
494.8243	-0.0166
495.0236	-0.0069
495.2228	-0.0117
495.422	-0.0105
495.6213	-0.0197
495.8205	-0.0164
496.0196	0.0009
496.2188	-0.0038
496.418	-0.0152
496.6171	-0.0149
496.8162	-0.0112
497.0153	-0.0035
497.2144	-0.0127
497.4135	-0.0152
497.6126	-0.0169
497.8116	-0.0052
498.0107	0.0039
498.2097	-0.0126
498.4087	-0.0227
498.6077	0.0007
498.8067	-0.0135
499.0056	0.0015
499.2046	-0.0092
499.4035	-0.0278
499.6024	-0.0091
499.8013	0.0028
500.0002	-0.0165
500.199	-0.0115
500.3979	-0.014
500.5967	-0.0251
500.7956	-0.0089
500.9944	-0.0058
501.1932	-0.022
501.3919	-0.0192
501.5907	-0.0123
501.7895	0.0017
501.9882	-0.0139
502.1869	-0.0048
502.3856	-0.0116
502.5843	-0.0172
502.783	-0.0073
502.9816	-0.0054
503.1803	-0.0237
503.3789	-0.015
503.5775	0.0001
503.7761	-0.006
503.9747	-0.002
504.1732	-0.0131
504.3718	-0.0052
504.5703	-0.0081
504.7689	-0.0146
504.9674	-0.0088
505.1658	-0.0211
505.3643	-0.0089
505.5628	-0.0178
505.7612	-0.0069
505.9597	-0.0029
506.1581	-0.0041
506.3565	-0.0005
506.5549	-0.0059
506.7532	-0.0168
506.9516	-0.0066
507.1499	-0.0078
507.3482	-0.0231
507.5465	-0.0126
507.7448	0.0001
507.9431	-0.0077
508.1414	0.006
508.3396	-0.0079
508.5379	-0.0138
508.7361	-0.0233
508.9343	-0.0039
509.1325	-0.0098
509.3306	-0.0127
509.5288	-0.0063
509.7269	-0.0106
509.9251	-0.0016
510.1232	-0.0074
510.3213	-0.0027
510.5193	0.0006
510.7174	-0.0125
510.9154	-0.0142
511.1135	-0.0149
511.3115	-0.014
511.5095	0.0005
511.7075	-0.0081
511.9055	-0.0077
512.1034	-0.0127
512.3014	-0.0001
512.4993	-0.0075
512.6972	-0.0086
512.8951	-0.0249
513.093	-0.014
513.2908	-0.0008
513.4887	-0.0107
513.6865	-0.0139
513.8844	-0.0084
514.0822	-0.0122
514.2799	-0.0188
514.4777	-0.0222
514.6755	-0.006
514.8732	-0.0126
515.0709	-0.0115
515.2687	-0.014
515.4664	-0.0033
515.664	-0.0121
515.8617	-0.0117
516.0594	-0.0228
516.257	-0.0162
516.4546	-0.0216
516.6522	-0.009
516.8498	-0.0099
517.0474	-0.0056
517.2449	-0.0019
517.4425	-0.0247
517.64	-0.007
517.8375	-0.0002
518.035	-0.0124
518.2325	-0.0127
518.43	-0.0146
518.6274	-0.0092
518.8249	-0.0215
519.0223	-0.0025
519.2197	-0.009
519.4171	-0.0106
519.6145	-0.006
519.8118	-0.0046
520.0092	-0.0119
520.2065	-0.0125
520.4038	-0.0231
520.6011	-0.0074
520.7984	-0.0207
520.9956	-0.0138
521.1929	-0.0135
521.3901	-0.0075
521.5874	-0.0077
521.7846	-0.0081
521.9818	-0.0116
522.1789	-0.0135
522.3761	-0.0041
522.5732	-0.0101
522.7704	-0.0109
522.9675	-0.0084
523.1646	-0.0143
523.3617	-0.0099
523.5587	-0.0176
523.7558	-0.0152
523.9528	-0.0156
524.1498	0.0046
524.3468	-0.0083
524.5438	-0.0157
524.7408	0.0091
524.9378	0
525.1347	-0.0037
525.3316	-0.0012
525.5285	-0.0125
525.7254	-0.0109
525.9223	-0.004
526.1192	-0.0116
526.316	-0.0097
526.5129	0.0011
526.7097	-0.005
526.9065	-0.0072
527.1033	-0.0107
527.3	-0.0001
527.4968	-0.0075
527.6935	-0.0108
527.8903	-0.0133
528.087	-0.01
528.2837	-0.0103
528.4804	-0.0085
528.677	-0.0075
528.8737	0.0054
529.0703	-0.006
529.2669	-0.0019
529.4635	-0.0011
529.6601	-0.0066
529.8567	0
530.0532	-0.0144
530.2498	-0.0029
530.4463	0.0136
530.6428	-0.0242
530.8393	0.0014
531.0358	-0.0124
531.2322	0.0004
531.4287	-0.0081
531.6251	-0.0042
531.8215	0.0053
532.0179	-0.0037
532.2143	0.0068
532.4107	-0.0093
532.607	0.0012
532.8034	-0.0031
532.9997	-0.0058
533.196	0.0033
533.3923	-0.0048
533.5886	-0.0045
533.7848	-0.005
533.9811	-0.0066
534.1773	-0.0037
534.3735	0.0076
534.5697	-0.0044
534.7659	0.005
534.9621	0.0074
535.1582	-0.0116
535.3544	-0.0135
535.5505	-0.0127
535.7466	-0.0133
535.9427	-0.0088
536.1387	-0.0075
536.3348	-0.008
536.5308	0.0038
536.7269	-0.0118
536.9229	-0.0016
537.1189	-0.0028
537.3148	-0.0095
537.5108	-0.0136
537.7068	-0.0032
537.9027	-0.0008
538.0986	-0.011
538.2945	-0.0128
538.4904	-0.015
538.6863	-0.0001
538.8821	0.0062
539.078	-0.0103
539.2738	-0.0104
539.4696	-0.0088
539.6654	0.0074
539.8611	0.0041
540.0569	-0.0057
540.2526	-0.0127
540.4484	0.0002
540.6441	0.0043
540.8398	-0.0133
541.0355	-0.0011
541.2311	-0.0055
541.4268	-0.0085
541.6224	0.002
541.818	0.0014
542.0136	-0.0071
542.2092	-0.0004
542.4048	-0.0023
542.6003	-0.0062
542.7959	-0.0017
542.9914	-0.0066
543.1869	0.0043
543.3824	-0.0101
543.5779	-0.0061
543.7734	-0.007
543.9688	-0.0049
544.1642	0.0074
544.3596	0.0018
544.555	-0.0069
544.7504	-0.0029
544.9458	-0.0103
545.1411	0.0047
545.3365	0.0006
545.5318	-0.0081
545.7271	-0.0013
545.9224	-0.0066
546.1177	-0.0027
546.3129	-0.0081
546.5081	-0.0148
546.7034	-0.0052
546.8986	-0.0073
547.0938	-0.0147
547.289	-0.0065
547.4841	-0.0007
547.6793	0.0104
547.8744	-0.0114
548.0695	-0.0015
548.2646	-0.0069
548.4597	0.0044
548.6548	0.0085
548.8498	-0.001
549.0448	0.0074
549.2399	0.0011
549.4349	0.0063
549.6298	0.0005
549.8248	-0.0025
550.0198	-0.0018
550.2147	0.0001
550.4096	-0.0035
550.6045	-0.0131
550.7994	0.0032
550.9943	0.0009
551.1892	-0.0034
551.384	0.0034
551.5788	-0.0145
551.7737	0.0067
551.9685	0.0054
552.1632	0.0038
552.358	-0.0021
552.5528	-0.0069
552.7475	-0.0058
552.9422	0.0018
553.1369	0.0074
553.3316	0.0003
553.5263	-0.0109
553.7209	0.0108
553.9156	-0.0021
554.1102	-0.0032
554.3048	-0.0048
554.4994	0.0056
554.694	-0.0041
554.8885	0.0041
555.0831	-0.0053
555.2776	-0.0039
555.4721	0.0027
555.6666	-0.0035
555.8611	0.0145
556.0555	-0.0013
556.25	0.005
556.4444	-0.0027
556.6388	-0.0025
556.8332	0.0014
557.0276	-0.0015
557.222	-0.0051
557.4163	-0.0023
557.6107	-0.0038
557.805	0.0056
557.9993	-0.0041
558.1936	0.0021
558.3879	-0.002
558.5821	-0.0039
558.7764	-0.0031
558.9706	0.0036
559.1648	0.008
559.359	-0.0058
559.5532	-0.0056
559.7473	-0.009
559.9415	0.0011
560.1356	-0.0067
560.3297	-0.0133
560.5238	0.0043
560.7179	-0.0043
560.9119	0.0019
561.106	-0.0041
561.3	-0.0099
561.494	-0.0048
561.688	-0.0062
561.882	-0.0144
562.076	0.0027
562.2699	0.0079
562.4639	-0.0049
562.6578	-0.0017
562.8517	-0.005
563.0456	0.0022
563.2395	0.0051
563.4333	0.0039
563.6272	0.0062
563.821	-0.0005
564.0148	-0.0061
564.2086	-0.0013
564.4024	-0.0056
564.5961	-0.0055
564.7899	-0.0024
564.9836	-0.0051
565.1773	0.0034
565.371	0.0126
565.5647	0.0091
565.7584	-0.0044
565.952	0.0062
566.1456	0.0011
566.3393	-0.0005
566.5329	-0.0052
566.7264	-0.0046
566.92	-0.0096
567.1136	0.0061
567.3071	-0.0073
567.5006	0.003
567.6941	0.0045
567.8876	0.0014
568.0811	-0.0071
568.2745	-0.0004
568.468	0.0056
568.6614	0.011
568.8548	-0.0021
569.0482	-0.0045
569.2416	-0.0021
569.4349	-0.004
569.6283	0.0029
569.8216	-0.0003
570.0149	-0.0075
570.2082	0.01
570.4015	0.0057
570.5947	-0.0003
570.788	0.0023
570.9812	-0.0006
571.1744	-0.0007
571.3676	-0.0097
571.5608	-0.0039
571.754	-0.0023
571.9471	-0.0031
572.1402	0.0029
572.3333	-0.0048
572.5264	0.0031
572.7195	-0.0026
572.9126	-0.0011
573.1057	-0.0047
573.2987	-0.0032
573.4917	0.0011
573.6847	-0.0108
573.8777	0.003
574.0707	0.0071
574.2636	-0.0075
574.4566	-0.0016
574.6495	0.0047
574.8424	-0.0032
575.0353	-0.0035
575.2281	0.0141
575.421	-0.004
575.6138	-0.0008
575.8067	-0.0002
575.9995	0.0025
576.1923	0.0022
576.385	-0.009
576.5778	-0.0033
576.7706	-0.0053
576.9633	0.0017
577.156	0.0018
577.3487	-0.0076
577.5414	-0.0043
577.734	-0.0039
577.9267	0.0037
578.1193	-0.0114
578.3119	-0.0069
578.5045	-0.006
578.6971	-0.0001
578.8897	0.0038
579.0822	-0.0063
579.2747	0.0005
579.4673	-0.0027
579.6598	-0.0016
579.8522	0.0002
580.0447	-0.0025
580.2372	0.0002
580.4296	0.0006
580.622	-0.0046
580.8144	0.0011
581.0068	-0.001
581.1992	-0.0154
581.3915	-0.0121
581.5839	-0.0122
581.7762	-0.0108
581.9685	-0.0064
582.1608	0.003
582.353	-0.0065
582.5453	0.0012
582.7375	-0.0093
582.9298	0.0034
583.122	-0.0045
583.3142	-0.0038
583.5063	-0.0057
583.6985	-0.0026
583.8906	-0.0004
584.0827	-0.0142
584.2749	0.0008
584.4669	-0.0002
584.659	-0.0061
584.8511	-0.0066
585.0431	-0.0061
585.2352	0.0041
585.4272	-0.0032
585.6192	0.0028
585.8111	-0.0007
586.0031	-0.0034
586.195	0.0012
586.387	0.0038
586.5789	-0.0025
586.7708	0.0041
586.9627	0.0056
587.1545	-0.0027
587.3464	0.0064
587.5382	-0
587.73	0.0034
587.9218	0.0083
588.1136	-0.0015
588.3053	0.0061
588.4971	-0.0054
588.6888	-0.007
588.8805	-0.005
589.0722	0.0052
589.2639	0.0023
589.4556	-0.0007
589.6472	-0.0037
589.8389	-0.0019
590.0305	-0.0052
590.2221	0.0026
590.4137	-0.009
590.6052	0.0037
590.7968	-0.007
590.9883	0.005
591.1798	-0.0033
591.3713	0.0049
591.5628	0.0063
591.7543	0.0061
591.9458	0.0017
592.1372	0.0031
592.3286	0.0076
592.52	0.0087
592.7114	0
592.9028	0.002
593.0941	0.0016
593.2855	-0.0035
593.4768	-0.0087
593.6681	-0.0061
593.8594	-0.0047
594.0506	-0.0032
594.2419	0.006
594.4331	0.0007
594.6244	0.0093
594.8156	-0.0075
595.0067	0.0008
595.1979	-0.0007
595.3891	0.0038
595.5802	-0.0019
595.7713	-0.0123
595.9624	0.0015
596.1535	0.0115
596.3446	0.0011
596.5357	0.0024
596.7267	0.0052
596.9177	0.0045
597.1087	-0.0026
597.2997	0.0012
597.4907	0.0051
597.6817	0.0001
597.8726	0.0069
598.0635	0.0033
598.2544	0.0033
598.4453	-0.0017
598.6362	-0.0051
598.827	-0.0009
599.0179	0.0126
599.2087	0.0014
599.3995	0.0013
599.5903	-0.0008
599.7811	0.0026
599.9718	-0.0002
600.1626	-0.0023
600.3533	-0.0059
600.544	0.0043
600.7347	0.0041
600.9254	0.0087
601.116	-0.0055
601.3067	0.0026
601.4973	-0.0003
601.6879	0.0097
601.8785	-0.0056
602.0691	0.0097
602.2596	0.0103
602.4502	0.0079
602.6407	0.0029
602.8312	0.0038
603.0217	-0.0036
603.2122	-0.0006
603.4027	-0.0016
603.5931	0.0043
603.7835	-0.006
603.9739	0.0039
604.1643	0.0045
604.3547	-0.0087
604.5451	-0.0027
604.7354	-0.0005
604.9257	0.0068
605.116	-0.0003
605.3063	0.0032
605.4966	0.0029
605.6869	0.0031
605.8771	0.0038
606.0673	0.0018
606.2575	0.0069
606.4477	0.0047
606.6379	0.0054
606.8281	0.0004
607.0182	-0.0052
607.2083	0.0092
607.3985	-0.0038
607.5885	-0.002
607.7786	0
607.9687	-0.0078
608.1587	0.0054
608.3488	0.0016
608.5388	-0.0039
608.7288	-0.0007
608.9187	-0.0064
609.1087	-0.0062
609.2986	-0.0052
609.4886	-0.0054
609.6785	-0.0032
609.8684	0.0048
610.0582	0.0009
610.2481	0.0006
610.4379	-0.0027
610.6278	-0.0064
610.8176	-0.0022
611.0074	-0.0055
611.1971	-0.0088
611.3869	-0.0031
611.5766	-0.0113
611.7664	0.0057
611.9561	0.0054
612.1458	-0.0018
612.3354	-0.0079
612.5251	0.0009
612.7147	0.0067
612.9044	0.0079
613.094	-0.0079
613.2836	0.0025
613.4731	-0.0003
613.6627	-0.0019
613.8522	0.0099
614.0417	0.0022
614.2313	-0.0028
614.4207	-0.0077
614.6102	0.0001
614.7997	-0.0017
614.9891	-0.0085
615.1785	0.0001
615.3679	-0.0029
615.5573	0.0042
615.7467	-0.0041
615.9361	-0.0101
616.1254	-0.0043
616.3147	0.0029
616.504	0.0016
616.6933	0.0033
616.8826	-0.0019
617.0718	0.0086
617.2611	0.005
617.4503	0.006
617.6395	-0.0029
617.8287	-0.0053
618.0179	-0.0009
618.207	0.0106
618.3961	-0.0007
618.5853	0.0004
618.7744	0.0028
618.9634	0.0091
619.1525	0.0046
619.3416	0.0049
619.5306	0.0074
619.7196	0.0032
619.9086	-0.0024
620.0976	0.0041
620.2866	0.0055
620.4755	0.0004
620.6645	-0.0018
620.8534	0.0062
621.0423	0.0123
621.2312	0.0059
621.42	0.0038
621.6089	0.0017
621.7977	0.0053
621.9865	-0.0068
622.1753	0.0053
622.3641	0.0003
622.5529	0.0031
622.7416	0.0069
622.9303	-0.0024
623.1191	0.0074
623.3078	-0.0057
623.4964	0.0068
623.6851	-0.0006
623.8737	-0.003
624.0624	0.0088
624.251	0.0022
624.4396	-0.007
624.6282	-0.0073
624.8167	-0.0016
625.0053	-0.0009
625.1938	0.0043
625.3823	0.001
625.5708	0.0019
625.7593	-0.0034
625.9477	-0.0004
626.1362	0.0002
626.3246	0.0045
626.513	0.0053
626.7014	0.0082
626.8898	0.0014
627.0781	0.0046
627.2665	-0.0058
627.4548	0.0111
627.6431	0.0066
627.8314	0.0023
628.0197	0.0075
628.2079	-0.0054
628.3962	0.0012
628.5844	0.005
628.7726	0.0096
628.9608	0.0038
629.1489	0.0002
629.3371	0.0103
629.5252	0.0035
629.7134	0.0053
629.9015	0.0025
630.0895	-0.0049
630.2776	0.0031
630.4657	0.0044
630.6537	0.001
630.8417	0.0046
631.0297	0.0066
631.2177	-0.0005
631.4057	-0.0048
631.5936	-0.0022
631.7815	-0.0026
631.9695	0.002
632.1574	0.0031
632.3452	0.0087
632.5331	-0.0008
632.7209	-0.0055
632.9088	0.0084
633.0966	0.01
633.2844	-0.004
633.4722	0.0056
633.6599	0.0076
633.8477	0.004
634.0354	-0.0001
634.2231	0.0039
634.4108	0.0013
634.5985	0.0093
634.7861	0.0003
634.9738	0.0009
635.1614	-0.0045
635.349	-0.0035
635.5366	0.0049
635.7242	-0.0025
635.9117	0.0032
636.0993	0.0031
636.2868	0.0038
636.4743	0.0013
636.6618	0.0046
636.8492	0.0091
637.0367	0.0012
637.2241	0.0011
637.4115	-0.0018
637.5989	-0.0023
637.7863	-0.0051
637.9737	-0.0018
638.161	0.0001
638.3484	0.0054
638.5357	0.0035
638.723	-0.0002
638.9103	0.0045
639.0975	0.0029
639.2848	0.0061
639.472	0.0036
639.6592	0.0002
639.8464	0.0076
640.0336	0.0122
640.2208	0.0015
640.4079	0.0013
640.595	0.0032
640.7821	0.0087
640.9692	-0.0014
641.1563	0.0045
641.3434	0.0113
641.5304	0.0034
641.7174	0.0044
641.9044	0.0038
642.0914	0.0063
642.2784	0.003
642.4653	0.007
642.6523	0.0031
642.8392	0.0008
643.0261	0.0054
643.213	-0.0017
643.3999	0.0024
643.5867	0.001
643.7735	0.0048
643.9604	-0.0011
644.1472	0.0016
644.3339	0.0036
644.5207	0.0096
644.7075	0.0053
644.8942	0.0069
645.0809	0.0131
645.2676	0.0167
645.4543	0.0076
645.6409	0.012
645.8276	0.005
646.0142	0.0098
646.2008	-0.0012
646.3874	0.0013
646.574	0.006
646.7605	0.0005
646.9471	-0.009
647.1336	0.0008
647.3201	0.0083
647.5066	-0.0003
647.6931	0.0039
647.8795	0.0015
648.0659	0.0018
648.2524	0.0092
648.4388	-0.005
648.6252	-0.0008
648.8115	0.0003
648.9979	-0.0031
649.1842	-0.0019
649.3705	0.0092
649.5568	0.0029
649.7431	0.0117
649.9294	-0.0015
650.1156	0.0023
650.3018	-0.0046
650.488	0.0065
650.6742	0.0029
650.8604	0.0008
651.0466	-0.005
651.2327	0.0018
651.4188	0.0027
651.6049	-0.006
651.791	0.0072
651.9771	0.0021
652.1632	0.0065
652.3492	0.0051
652.5352	0.0005
652.7212	-0.0025
652.9072	0.007
653.0932	0.005
653.2791	0.0027
653.465	0.006
653.651	-0.0028
653.8369	0.0034
654.0227	-0.0092
654.2086	0.0041
654.3944	0.0088
654.5803	-0.0027
654.7661	-0.0046
654.9519	0.0019
655.1377	-0.0018
655.3234	-0.0011
655.5092	-0.0058
655.6949	-0.0032
655.8806	-0.0086
656.0663	-0.005
656.2519	-0.0097
656.4376	0.0005
656.6232	0.0062
656.8088	-0.0024
656.9945	-0.0002
657.18	-0.0004
657.3656	0.005
657.5511	0.0041
657.7367	-0.0023
657.9222	0.0122
658.1077	-0.0029
658.2932	0.0085
658.4786	-0.0029
658.6641	-0.0013
658.8495	-0.002
659.0349	-0.0004
659.2203	0.0058
659.4057	0.0129
659.591	0.0071
659.7764	0.0077
659.9617	0.0032
660.147	0.0058
660.3323	0.0102
660.5176	0.0182
660.7028	0.008
660.888	0.0089
661.0733	0.0054
661.2585	0.0002
661.4436	0.0003
661.6288	-0.0005
661.8139	0.0024
661.9991	0.0039
662.1842	-0.0025
662.3693	0.0034
662.5544	0.0022
662.7394	0.0095
662.9245	-0.0015
663.1095	-0.0003
663.2945	-0.0031
663.4795	-0.003
663.6644	0.0028
663.8494	0.0001
664.0343	0.0043
664.2193	-0.0083
664.4042	-0.0049
664.589	-0.0053
664.7739	0.0003
664.9587	-0.0056
665.1436	-0.0014
665.3284	0.0036
665.5132	-0.0026
665.698	-0.0006
665.8827	0.0042
666.0675	0.0105
666.2522	-0.0078
666.4369	0.0095
666.6216	0.0089
666.8063	0.0022
666.9909	0.0089
667.1756	-0.0002
667.3602	0.0109
667.5448	0.0055
667.7294	0.0097
667.9139	0.0037
668.0985	0.0125
668.283	0.0036
668.4675	0.0028
668.652	0.0036
668.8365	0.0023
669.0209	0.0073
669.2054	0.0083
669.3898	-0.0064
669.5742	0.0045
669.7586	0.009
669.943	0.0162
670.1273	0.0144
670.3117	0.0052
670.496	0.0035
670.6803	0.0161
670.8646	0.0101
671.0488	0.0054
671.2331	0.0067
671.4173	0.0134
671.6015	0.0044
671.7857	0.0064
671.9699	0.0023
672.1541	0.0098
672.3382	0.0164
672.5223	0.0177
672.7064	0.0058
672.8905	0.0072
673.0746	0.0107
673.2587	-0.0008
673.4427	0.0061
673.6267	0.0109
673.8107	0.0124
673.9947	0.0057
674.1787	0.0068
674.3626	-0.0011
674.5465	0.0082
674.7304	0.0108
674.9143	0.0086
675.0982	0.0047
675.2821	-0.0028
675.4659	0.0048
675.6497	0.0102
675.8335	0.0023
676.0173	0.0068
676.2011	0.0123
676.3849	0.0045
676.5686	0.0025
676.7523	0
676.936	0.0011
677.1197	0.0007
677.3034	-0.0073
677.487	0.01
677.6706	-0.0017
677.8542	0.0014
678.0378	0.006
678.2214	0.0032
678.405	0.0039
678.5885	-0.0026
678.772	0.0069
678.9555	0.0041
679.139	0.0014
679.3225	0.0058
679.5059	0.0068
679.6894	0.0023
679.8728	0.0034
680.0562	-0.0094
680.2395	-0.0029
680.4229	-0.0003
680.6062	0.0103
680.7896	0.0009
680.9729	-0.0011
681.1562	0.0081
681.3394	0.0101
681.5227	-0.0019
681.7059	0.0002
681.8891	0.0012
682.0723	0.0067
682.2555	0.0057
682.4387	-0.0037
682.6218	-0.0015
682.805	0.0085
682.9881	0.013
683.1712	-0.0017
683.3542	0.0013
683.5373	0.0074
683.7203	-0.0026
683.9034	0.0018
684.0864	-0.0081
684.2694	-0.0015
684.4523	0.0063
684.6353	0.0022
684.8182	0.0086
685.0011	0.0021
685.184	0.0125
685.3669	-0.0037
685.5498	0.0055
685.7326	0.0095
685.9154	-0.002
686.0982	0.0164
686.281	0.0055
686.4638	0.0072
686.6465	0.0052
686.8293	0.0037
687.012	0.0102
687.1947	0.0011
687.3774	0.0044
687.56	0.0012
687.7427	0.0065
687.9253	0.0036
688.1079	0.0039
688.2905	0.0047
688.4731	0.0052
688.6556	-0.0042
688.8382	-0.0039
689.0207	0.005
689.2032	-0.0038
689.3857	0.0015
689.5681	0.002
689.7506	0.0035
689.933	0.0007
690.1154	0.0059
690.2978	0.0012
690.4802	0.0084
690.6626	-0.0042
690.8449	0.0036
691.0272	0.0095
691.2095	-0.0079
691.3918	-0.0045
691.5741	0.0014
691.7563	0.0003
691.9386	-0.0006
692.1208	-0.0049
692.303	0.0009
692.4852	-0.0043
692.6673	0.0022
692.8495	0.005
693.0316	-0.0001
693.2137	0.0021
693.3958	0.0049
693.5778	-0.0047
693.7599	-0.0015
693.9419	-0.001
694.1239	0.0011
694.3059	-0.0032
694.4879	0.0115
694.6699	0.0141
694.8518	0.0083
695.0337	0.0028
695.2157	0.0043
695.3975	0.002
695.5794	-0.0069
695.7613	0.0074
695.9431	-0.0002
696.1249	0.0015
696.3067	0.0027
696.4885	0.0099
696.6703	0.0009
696.852	0.0069
697.0337	0.0038
697.2154	0.0016
697.3971	0.0036
697.5788	0.0042
697.7605	0.0014
697.9421	0.006
698.1237	-0.0058
698.3053	0.0042
698.4869	0.0033
698.6685	-0.0001
698.85	-0.0033
699.0315	0.0154
699.213	0.0035
699.3945	0.0086
699.576	0.0163
699.7575	0.0039
699.9389	0.0119
700.1203	0.0059
700.3017	-0.0096
700.4831	-0.0035
700.6645	-0.0047
700.8458	0.009
701.0271	-0.003
701.2084	0.0055
701.3897	-0.0039
701.571	-0.003
701.7523	-0.0019
701.9335	0.0044
702.1147	-0.0023
702.2959	-0.0005
702.4771	0.007
702.6583	0.0057
702.8394	-0.0028
703.0205	-0.0014
703.2016	-0.0028
703.3827	-0.0003
703.5638	0.0127
703.7449	0.0006
703.9259	0.0103
704.1069	-0.0027
704.2879	0.0066
704.4689	0.0026
704.6499	0.0002
704.8308	-0.0017
705.0117	0.0054
705.1927	0.0049
705.3735	0.0035
705.5544	-0.0027
705.7353	-0.0017
705.9161	0.0025
706.0969	-0.0027
706.2777	0.0005
706.4585	0.0018
706.6393	-0.0006
706.82	-0.0001
707.0007	0.0008
707.1815	-0.0009
707.3621	0.0095
707.5428	0.0104
707.7235	0.006
707.9041	0.0108
708.0847	-0.0029
708.2653	-0.0028
708.4459	-0.0095
708.6265	0.0009
708.807	-0.0018
708.9875	-0.0029
709.168	-0.0053
709.3485	-0.0025
709.529	-0.0008
709.7095	-0.0073
709.8899	0.003
710.0703	-0.0054
710.2507	0.0004
710.4311	0.003
710.6115	-0.0129
710.7918	-0.0037
710.9721	-0.0019
711.1524	-0.0074
711.3327	-0.0023
711.513	0.0024
711.6932	0.0026
711.8735	0.0094
712.0537	-0.0037
712.2339	0.0014
712.4141	-0.0039
712.5942	0.0001
712.7744	0.0033
712.9545	-0.0092
713.1346	-0.0025
713.3147	0.0005
713.4947	-0.003
713.6748	0.0019
713.8548	-0.0011
714.0348	0.0048
714.2148	0.0003
714.3948	0.0144
714.5748	0.0045
714.7547	-0.0036
714.9346	0.0109
715.1145	0.0103
715.2944	-0.0007
715.4743	-0.0012
715.6541	-0.0025
715.834	0.0073
716.0138	0.0108
716.1936	-0.0074
716.3733	-0.0011
716.5531	0.0168
716.7328	-0.0045
716.9126	-0.0049
717.0923	0.0025
717.2719	0.0002
717.4516	0.0078
717.6312	0.0031
717.8109	-0.0012
717.9905	0.011
718.1701	0.0023
718.3496	-0.0043
718.5292	0.0102
718.7087	-0.0069
718.8882	0.0051
719.0677	0.0066
719.2472	-0.0066
719.4267	0.0072
719.6061	0.0144
719.7856	0.0106
719.965	0.0079
720.1443	-0.0075
720.3237	0.0087
720.5031	0.0062
720.6824	0.0118
720.8617	-0.0064
721.041	0.0022
721.2203	0.0088
721.3995	0.003
721.5788	-0.0004
721.758	0.005
721.9372	0.0107
722.1164	0.0016
722.2956	0.0039
722.4747	0.0074
722.6538	0.0007
722.8329	0.0118
723.012	0.007
723.1911	0.0001
723.3702	0.0017
723.5492	0.0007
723.7282	-0.0008
723.9072	0.0017
724.0862	-0.0019
724.2652	-0.004
724.4441	-0.0035
724.623	-0.0068
724.8019	0.0018
724.9808	-0.0033
725.1597	-0.0065
725.3385	0.0081
725.5174	0.0093
725.6962	0.0066
725.875	-0.0005
726.0538	0.0162
726.2325	0.0034
726.4112	-0.0013
726.59	-0.0052
726.7687	-0.0112
726.9474	0.0021
727.126	0.0072
727.3047	-0.0087
727.4833	0.0009
727.6619	-0.009
727.8405	0.0006
728.0191	-0.0032
728.1976	-0.0029
728.3762	-0.0089
728.5547	-0.0006
728.7332	-0.0202
728.9116	0.0054
729.0901	0.0007
729.2686	-0.0055
729.447	-0.0051
729.6254	0.0024
729.8038	-0.0001
729.9821	-0.0041
730.1605	-0.0008
730.3388	0.0018
730.5171	-0.0039
730.6954	-0.0036
730.8737	0.0021
731.0519	0.0001
731.2302	-0.0001
731.4084	0.0061
731.5866	0.0091
731.7648	0.0054
731.9429	-0.0044
732.1211	-0.002
732.2992	0.0073
732.4773	0.0002
732.6554	0.0045
732.8335	0.0093
733.0115	0.0092
733.1896	0.0119
733.3676	-0.0055
733.5456	0.0064
733.7235	0.0032
733.9015	0.0017
734.0794	0.0111
734.2574	0.0043
734.4353	-0.0029
734.6131	0.0056
734.791	-0.0052
734.9689	-0.0091
735.1467	0
735.3245	-0.0103
735.5023	-0.0104
735.68	0.0074
735.8578	0.0038
736.0355	-0.015
736.2132	-0.0016
736.3909	-0.0071
736.5686	-0.0126
736.7463	0.012
736.9239	-0.0064
737.1015	-0.0103
737.2791	0.0038
737.4567	-0.005
737.6343	-0.0057
737.8118	0.0041
737.9894	-0.0048
738.1669	-0.0077
738.3444	-0.0002
738.5218	0.0045
738.6993	0.0005
738.8767	-0.0014
739.0541	0.0078
739.2315	-0.015
739.4089	-0.0001
739.5863	0.0076
739.7636	-0.0054
739.9409	-0.0018
740.1182	0.0095
740.2955	0.0052
740.4728	0.0004
740.65	0.0029
740.8272	-0.0006
741.0044	-0.009
741.1816	0.0056
741.3588	-0.0034
741.5359	0.0031
741.7131	-0.0146
741.8902	-0.0029
742.0673	-0.0008
742.2444	-0.0094
742.4214	-0.0046
742.5985	-0.0059
742.7755	0.0014
742.9525	-0.0129
743.1295	0.0075
743.3064	0.0004
743.4834	0.0079
743.6603	-0.0022
743.8372	-0.0062
744.0141	0.0014
744.191	0.0068
744.3678	-0.0087
744.5446	0.0007
744.7215	-0.0053
744.8982	-0.0018
745.075	-0.0043
745.2518	0.0031
745.4285	0.0027
745.6052	0.0024
745.7819	-0.0066
745.9586	-0.0062
746.1353	-0.0016
746.3119	-0.0028
746.4885	-0.0025
746.6651	-0.0039
746.8417	0.0038
747.0183	0.0014
747.1948	-0.0004
747.3714	0.0108
747.5479	0.01
747.7244	-0.0001
747.9008	0.008
748.0773	0.0055
748.2537	-0.0003
748.4301	-0.007
748.6065	0.0043
748.7829	0.0126
748.9593	-0.008
749.1356	0.0019
749.3119	0.0085
749.4882	-0.0028
749.6645	0.0069
749.8408	-0.0054
750.017	-0.0054
750.1933	0.0076
750.3695	-0.0015
750.5457	-0.002
750.7218	0.0015
750.898	0.0011
751.0741	0.0025
751.2502	-0.0074
751.4263	-0.0059
751.6024	0.002
751.7784	0.0007
751.9545	-0.0069
752.1305	-0.0069
752.3065	-0.005
752.4825	0.0002
752.6584	-0.0117
752.8344	-0.0051
753.0103	-0.0054
753.1862	-0.0061
753.3621	-0.0055
753.5379	-0.0065
753.7138	-0.0036
753.8896	-0.0075
754.0654	-0.0022
754.2412	0.0058
754.417	-0.0007
754.5927	0.004
754.7685	-0.0067
754.9442	-0.0067
755.1199	0.0052
755.2956	-0.0004
755.4712	0.0057
755.6469	0.0011
755.8225	-0.0085
755.9981	-0.0038
756.1736	-0.0011
756.3492	0.0025
756.5248	-0.0091
756.7003	-0.0114
756.8758	0.0012
757.0513	-0.0235
757.2267	-0.0091
757.4022	0.0008
757.5776	0.0035
757.753	0.0023
757.9284	0.0045
758.1038	0.011
758.2791	0.0109
758.4545	-0.0091
758.6298	0.0026
758.8051	0.0097
758.9803	-0.0027
759.1556	-0.005
759.3308	0.0004
759.506	0.0171
759.6812	0.0123
759.8564	0.0209
760.0316	-0.0004
760.2067	0.0164
760.3819	0.0105
760.557	0.0163
760.732	0.0024
760.9071	-0.0041
761.0821	0.001
761.2572	0.0135
761.4322	-0.0073
761.6072	-0.0027
761.7821	-0.0018
761.9571	0.0122
762.132	0.0071
762.3069	-0.0083
762.4818	-0.0038
762.6567	0.007
762.8316	0.0084
763.0064	-0.0015
763.1812	-0.0064
763.356	-0.0101
763.5308	0.0068
763.7055	-0.0069
763.8803	-0.0041
764.055	-0.0001
764.2297	-0.0024
764.4044	-0.0124
764.579	-0.0065
764.7537	-0.0095
764.9283	0.0002
765.1029	-0.0057
765.2775	-0.0084
765.4521	-0.0129
765.6266	-0.0073
765.8011	-0.014
765.9756	-0.0033
766.1501	0.0044
766.3246	-0.0114
766.4991	-0.0024
766.6735	0.0018
766.8479	-0.0117
767.0223	0.0071
767.1967	0.0005
767.371	-0.0018
767.5454	-0.0008
767.7197	0.0033
767.894	0.004
768.0683	-0.0081
768.2425	-0.0024
768.4168	0.0032
768.591	0.0008
768.7652	-0.002
768.9394	-0.0002
769.1135	0.0038
769.2877	0.0005
769.4618	-0.0078
769.6359	-0.0013
769.81	0.0011
769.984	-0.0038
770.1581	-0.0065
770.3321	0.0002
770.5061	0.0009
770.6801	-0.0036
770.8541	-0.0094
771.028	-0.0062
771.202	-0.0131
771.3759	-0.0003
771.5498	-0.0035
771.7236	0.0018
771.8975	-0.0062
772.0713	-0.0059
772.2451	0.0066
772.4189	0.0011
772.5927	0.0072
772.7665	0.0008
772.9402	0.0061
773.1139	0.0073
773.2876	-0.007
773.4613	0.0141
773.635	0.0214
773.8086	-0.0099
773.9822	0.0033
774.1558	-0.0018
774.3294	-0.0176
774.503	0.0048
774.6765	0.0058
774.8501	0.0066
775.0236	0.0052
775.1971	0.003
775.3705	-0.0156
775.544	0.0063
775.7174	-0.0074
775.8908	-0.0055
776.0642	-0.0072
776.2376	0.0056
776.4109	-0.003
776.5843	0.0066
776.7576	-0.0021
776.9309	0.0022
777.1041	0.0124
777.2774	0.0121
777.4506	0.0036
777.6238	-0.0088
777.797	0.0026
777.9702	-0.005
778.1434	0.0103
778.3165	-0.0112
778.4896	-0.0075
778.6627	-0.0006
778.8358	-0.0059
779.0089	-0.0037
779.1819	0.0067
779.3549	0.0082
779.5279	0.0187
779.7009	0.0078
779.8739	0.0113
780.0468	0.0134
780.2197	0.0187
780.3926	0.0046
780.5655	0.0048
780.7384	0.0033
780.9112	0.0136
781.0841	-0.0011
781.2569	0.0062
781.4297	0.0084
781.6024	0.0094
781.7752	0.0011
781.9479	-0.0019
782.1206	-0.0065
782.2933	-0.0018
782.466	0.0033
782.6386	-0.0001
782.8113	0.0021
782.9839	0.0071
783.1565	0.0108
783.329	0.0043
783.5016	0.0091
783.6741	0.0062
783.8466	-0.0124
784.0191	0.0063
784.1916	0.0033
784.3641	0.0002
784.5365	0.006
784.7089	-0.0004
784.8813	-0.0056
785.0537	0.0033
785.2261	-0.0106
785.3984	-0.0081
785.5707	-0.0059
785.743	-0.0004
785.9153	-0.0099
786.0876	0.0029
786.2598	-0.0098
786.432	-0.0167
786.6042	0.0042
786.7764	-0.0065
786.9486	-0.0011
787.1207	-0.0084
787.2928	0.0003
787.4649	0.0112
787.637	0.0004
787.8091	-0.013
787.9811	-0.0017
788.1532	-0.0107
788.3252	-0.0011
788.4972	-0.0029
788.6691	-0.0082
788.8411	-0.0087
789.013	-0.012
789.1849	0.0092
789.3568	-0.0035
789.5287	0.0021
789.7005	-0.0018
789.8723	0.0108
790.0442	0.0196
790.2159	-0.009
790.3877	0.0063
790.5595	-0.016
790.7312	-0.0012
790.9029	-0.0072
791.0746	-0.0061
791.2463	0.0052
791.4179	-0.0045
791.5896	-0.0094
791.7612	-0.0026
791.9328	0.0047
792.1044	-0.0187
792.2759	-0.0235
792.4474	-0.0144
792.619	0.0007
792.7905	0.003
792.9619	0.0069
793.1334	-0.0086
793.3048	0.0044
793.4762	0.0003
793.6476	0.0065
793.819	-0.0108
793.9904	0.0073
794.1617	-0.0041
794.333	0.0049
794.5043	-0.0032
794.6756	0
794.8469	-0.0135
795.0181	-0.0021
795.1893	-0.0106
795.3605	0.0192
795.5317	-0.0093
795.7029	-0.0034
795.874	-0.0044
796.0452	-0.0143
796.2163	0.0004
796.3873	-0.0072
796.5584	0.0046
796.7294	-0.0062
796.9005	0.0071
797.0715	-0.0139
797.2425	-0.0138
797.4134	-0.0088
797.5844	-0.0101
797.7553	-0.0209
797.9262	-0.0278
798.0971	-0.0092
798.2679	-0.0254
798.4388	-0.0244
798.6096	-0.0058
798.7804	0.0036
798.9512	-0.0177
799.122	-0.0112
799.2927	-0.0051
799.4635	0.0054
799.6342	-0.0264
799.8049	-0.0023
799.9755	-0.0174
800.1462	-0.003
800.3168	-0.0034
800.4874	-0.0116
800.658	0.0004
800.8286	0.0006
800.9991	-0.0004
801.1696	0.0026
801.3402	0.0027
801.5106	0.0002
801.6811	0.0076
801.8516	0.0039
802.022	0.0155
802.1924	0.0135
802.3628	0.0002
802.5332	0.0052
802.7035	0.0132
802.8739	0.0019
803.0442	-0.0127
803.2145	-0.0073
803.3847	-0.0274
803.555	-0.0069
803.7252	-0.0204
803.8954	-0.0262
804.0656	-0.0153
804.2358	-0.0113
804.4059	0.0064
804.5761	-0.0095
804.7462	-0.0131
804.9163	-0.0045
805.0864	-0.0117
805.2564	-0.0234
805.4264	0.0038
805.5965	-0.0046
805.7665	0.0146
805.9364	0.0075
806.1064	0.021
806.2763	-0.0169
806.4462	0.0159
806.6161	0.0039
806.786	0.0095
806.9559	-0.0153
807.1257	-0.0002
807.2955	-0.0042
807.4653	-0.0092
807.6351	-0.0112
807.8048	-0.0016
807.9746	0.0057
808.1443	0.0093
808.314	-0.0111
808.4837	-0.0184
808.6533	-0.0035
808.8229	0.0116
808.9926	-0.0169
809.1622	-0.0057
809.3317	0.0055
809.5013	-0.0147
809.6708	0.001
809.8403	0.0053
810.0098	-0.0105
810.1793	-0.0204
810.3488	-0.0069
810.5182	-0.0118
810.6876	-0.0072
810.857	-0.0221
811.0264	0.0161
811.1958	-0.0091
811.3651	-0.0054
811.5344	-0.0099
811.7037	-0.0232
811.873	-0.0148
812.0422	-0.017
812.2115	-0.0021
812.3807	-0.0109
812.5499	0.0057
812.7191	-0.0058
812.8882	-0.0125
813.0574	0.0039
813.2265	-0.0102
813.3956	0.0066
813.5646	-0.0008
813.7337	-0.0243
813.9027	-0.0008
814.0718	0.0307
814.2407	0.0054
814.4097	-0.0066
814.5787	-0.0146
814.7476	0.0052
814.9165	0.0054
815.0854	-0.0052
815.2543	-0.004
815.4232	0.0089
815.592	0.021
815.7608	-0.007
815.9296	0.0129
816.0984	0.0134
816.2671	-0.0067
816.4359	-0.0089
816.6046	0.0064
816.7733	-0.0093
816.942	-0.0184
817.1106	0.0016
817.2793	-0.0071
817.4479	-0.0012
817.6165	-0.0075
817.785	-0.0056
817.9536	-0.0358
818.1221	0.0023
818.2906	-0.0163
818.4591	-0.0333
818.6276	-0.0207
818.7961	-0.024
818.9645	-0.0169
819.1329	-0.0059
819.3013	0.0135
819.4697	0.0033
819.638	-0.004
819.8064	0.0055
819.9747	-0.0106
820.143	-0.006
820.3113	-0.0132
820.4795	0.0043
820.6477	-0.0155
820.816	-0.0058
820.9842	-0.0141
821.1523	-0.0224
821.3205	-0.0248
821.4886	-0.0003
821.6567	-0.0105
821.8248	0.0155
821.9929	0.0205
822.1609	-0.0029
822.329	0.0058
822.497	0.0213
822.665	-0.0208
822.833	-0.0287
823.0009	0.0038
823.1688	0.0008
823.3367	0.0444
823.5046	0.0145
823.6725	0.0429
823.8404	0.0084
824.0082	0.0329
824.176	0.0052
824.3438	0.015
824.5116	-0.0212
824.6793	-0.0016
824.847	-0.0248
825.0147	-0.0163
825.1824	0.0338
825.3501	0.027
825.5177	-0.019
825.6854	-0.0089
825.853	0.006
826.0206	-0.0322
826.1881	0.0119
826.3557	-0.0336
826.5232	0.0182
826.6907	-0.0274
826.8582	0.0019
827.0257	-0.0255
827.1931	-0.0093
827.3605	-0.0102
827.528	0.0043
827.6953	-0.0405
827.8627	-0.0082
828.03	0.023
828.1974	-0.0124
828.3647	-0.0176
828.532	0.0075
828.6992	-0.0206
828.8665	-0.0209
829.0337	-0.0404
829.2009	-0.0122
829.3681	-0.0189
829.5352	0.0134
829.7024	-0.0582
829.8695	-0.0066
830.0366	0.0097
830.2037	0.0078
830.3707	0.0415
830.5378	-0.0177
830.7048	-0.0075
830.8718	-0.0263
831.0388	-0.0388
831.2057	-0.0073
831.3727	0.0144
831.5396	-0.0005
831.7065	-0.0239
831.8734	0.0094
832.0402	-0.0326
832.2071	-0.0116
832.3739	-0.0278
832.5407	-0.0035
832.7075	0.0032
832.8742	-0.0464
833.041	-0.0849
833.2077	-0.0023
833.3744	-0.0121
833.541	-0.0313
833.7077	0.0051
833.8743	-0.0284
834.0409	-0.0143
834.2075	-0.0136
834.3741	-0.0393
834.5407	-0.0062
834.7072	-0.0179
834.8737	-0.0078
835.0402	-0.0403
835.2067	0.0461
835.3731	-0.0212
835.5395	0.0131
835.706	-0.0176
835.8723	-0.0042
836.0387	0.0035
836.2051	-0.0491
836.3714	-0.0225
836.5377	-0.0161
836.704	-0.0604
836.8703	-0.0006
837.0365	-0.0329
837.2027	-0.0125
837.3689	-0.0179
837.5351	-0.0413
837.7013	-0.0496
837.8674	-0.0541
838.0335	-0.0468
838.1997	-0.0417
838.3657	-0.0345
838.5318	-0.0107
838.6978	0.0307
838.8639	0.0099
839.0299	-0.0176
839.1958	-0.0279
839.3618	-0.0344
839.5277	0.001
839.6937	-0.0385
839.8596	-0.0202
840.0254	-0.0129
840.1913	-0.02
840.3571	0.0162
840.523	-0.0334
840.6888	-0.0367
840.8545	-0.0037
841.0203	-0.0343
841.186	0.0368
841.3517	-0.0025
841.5174	0.0054
841.6831	0.0002
841.8488	-0.0243
842.0144	0.0122
842.18	0.0028
842.3456	-0.0367
842.5112	-0.0743
842.6767	0.0101
842.8422	-0.0187
843.0077	-0.013
843.1732	-0.0461
843.3387	-0.0241
843.5042	-0.041
843.6696	0.0014
843.835	-0.0449
844.0004	-0.0066
844.1657	-0.0107
844.3311	-0.0735
844.4964	-0.047
844.6617	-0.0278
844.827	-0.0376
844.9923	-0.01
845.1575	0.0362
845.3227	-0.0234
845.4879	-0.0537
845.6531	-0.0117
845.8183	-0.0484
845.9834	-0.0299
846.1485	-0.0801
846.3136	-0.0602
846.4787	-0.1128
846.6438	0.0311
846.8088	-0.006
846.9738	-0.0491
847.1388	-0.0427
847.3038	-0.0132
847.4687	-0.1644
847.6337	0.0325
847.7986	0.0029
847.9635	-0.0364
848.1284	0.0448
848.2932	-0.0253
848.458	0.1168
848.6228	0.0486
848.7876	0.0854
848.9524	-0.0798
849.1172	-0.1367
849.2819	0.0291
849.4466	-0.094
849.6113	-0.0527
849.7759	-0.0343
849.9406	-0.0031
850.1052	0.1072
850.2698	0.057
850.4344	-0.0208
850.599	-0.0706
850.7635	0.0794
850.928	-0.0915
851.0925	-0.047
851.257	0.0777
851.4215	0.0172
851.5859	0.0466
851.7503	-0.0104
851.9147	0.0257
852.0791	-0.0975
852.2434	-0.0182
852.4078	0.0206
852.5721	0.0683
852.7364	-0.033
852.9007	-0.1878
853.0649	-0.0391
853.2291	-0.0601
853.3934	-0.0796
853.5575	0.0837
853.7217	-0.1401
853.8859	-0.1781
854.05	-0.0657
854.2141	-0.0556
854.3782	-0.1533
854.5423	-0.0713
854.7063	0.0887
854.8703	0.11
855.0343	-0.0414
855.1983	-0.1279
855.3623	0.1851
855.5262	-0.0562
855.6901	-0.0233
855.854	-0.0099
856.0179	0.0447
856.1818	0.0401
856.3456	-0.0936
856.5094	-0.0639
856.6732	-0.0333
856.837	-0.1057
857.0008	-0.055
857.1645	-0.1042
857.3282	-0.1226
857.4919	0.1703
857.6556	0.0304
857.8192	-0.0803
857.9828	0.0646
858.1465	0.1015
858.31	-0.0196
858.4736	-0.1453
858.6372	-0.3796
858.8007	-0.255
858.9642	-0.1043
859.1277	0.0507
859.2911	0.0601
859.4546	0.03
859.618	-0.3216
859.7814	-0.016
859.9448	0.0869
860.1081	-0.0096
860.2715	0.1349
860.4348	-0.1257
860.5981	0.145
860.7614	0.2297
860.9246	-0.1999
861.0879	-0.212
861.2511	-0.0292
861.4143	-0.1336
861.5774	0.156
861.7406	-0.2347
861.9037	-0.0264
862.0668	0.0359
862.2299	-0.266
862.393	-0.4133
862.556	0.0319
862.7191	-0.2932
862.8821	-0.3651
863.0451	0.2264
863.208	-0.1061
863.371	-0.0988
863.5339	-0.1817
863.6968	0.0262
863.8597	-0.1665
864.0225	-0.0333
864.1854	-0
864.3482	0.4791
864.511	0.1768
864.6737	-0.0182
864.8365	-0.0347
864.9992	-0.3094
865.1619	-0.4555
865.3246	-0.2687
865.4873	-0.0633
865.65	-0.1523
865.8126	0.0427
865.9752	-0.0305
866.1378	0.0669
866.3004	-0.1084
866.4629	0.5019
866.6254	-0.0724
866.7879	0.1497
866.9504	-0.3564
867.1129	-0
867.2753	0.0776
867.4377	0.2269
867.6001	0.2036
867.7625	-0.0929
867.9249	-0.2341
868.0872	0.3025
868.2495	-0.1545
868.4118	-0.2405
868.5741	-0.483
868.7363	-0.4043
868.8986	0.5603
869.0608	-0.0873
869.223	0.1695
869.3851	14.0486
869.5473	-0
869.7094	0.1795
869.8715	-0.5583
870.0336	-0
870.1957	-0.2233
870.3577	-0
870.5197	0.0192
870.6817	-0.0361
870.8437	-0.1591
871.0057	-0
871.1676	0.4051
871.3295	-0.4128
871.4914	-0
871.6533	-0.4138
871.8151	-0.3712
871.977	-0
872.1388	-0
872.3006	-0.1221
872.4623	-0
872.6241	0.1775
872.7858	-0.0367
872.9475	-0.1325
873.1092	-0.0504
873.2709	-0
873.4325	-0.0771
873.5941	-0.1825
873.7557	-0
873.9173	0.2919
874.0789	-0.2308
874.2404	0.2533
874.4019	0.1431
874.5634	-0.2517
874.7249	0.0826
874.8863	0.2707
875.0478	0.2312
875.2092	-0
875.3706	0.4146
875.5319	-0.9203
875.6933	-0
875.8546	-0.0397
876.0159	0.4523
876.1772	-0
876.3385	-0
876.4997	0.1621
876.6609	-0.2864
876.8221	-0.5987
876.9833	0.0629
877.1445	-0.1429
877.3056	0.0192
877.4667	-0.2125
877.6278	-0
877.7889	-0.3802
877.9499	-0
878.111	-0
878.272	-0
878.433	0.4061
878.5939	-0
878.7549	-0
878.9158	-0.91
879.0767	0.8726
879.2376	0.4497
879.3984	-0
879.5593	-0
879.7201	-0.2868
879.8809	-0.7487
880.0417	0.1017
880.2024	1.069
880.3632	-0
880.5239	0.1771
880.6846	0.5794
880.8452	-2.6042
881.0059	-0
881.1665	0.1071
881.3271	-0.1676
881.4877	-0.2481
881.6483	-0.6287
881.8088	-0.3819
881.9693	0.1065
882.1298	0.1065
882.2903	0.1065
