Data from MonoPyChalIsomerACN10uM420nmA_Absorbance_15-09-55-135.txt Node
Date: Fri Jul 05 15:09:55 BST 2024
User: LASERRRRR
Spectrometer: FLMT03099
Trigger mode: 0
Integration Time (sec): 1.000000E-1
Scans to average: 1
Electric dark correction enabled: true
Nonlinearity correction enabled: false
Boxcar width: 0
XAxis mode: Wavelengths
Number of Pixels in Spectrum: 3648
>>>>>Begin Spectral Data<<<<<
179.3399	-0.1063
179.5586	-0.1063
179.7771	-0.1063
179.9957	-0
180.2143	-0
180.4329	-0.179
180.6514	0.4577
180.8699	0.3545
181.0885	0.0433
181.307	0.0154
181.5255	-0
181.744	-0
181.9625	-0
182.181	-0
182.3994	0.8789
182.6179	-0
182.8363	-0.0727
183.0547	-0.2164
183.2732	-0.1912
183.4916	0.1926
183.71	0.1166
183.9284	0.2154
184.1467	-0.2066
184.3651	-0.0695
184.5835	-0.0544
184.8018	0.5595
185.0201	-0.1362
185.2385	-0.0382
185.4568	0.1864
185.6751	0.1357
185.8934	0.0394
186.1117	-0.0141
186.3299	0.1366
186.5482	0.3343
186.7664	-0.053
186.9847	-0.0784
187.2029	-0.0429
187.4211	-0.0417
187.6393	0.0574
187.8575	-0.1569
188.0757	0.1853
188.2939	0.0196
188.512	-0.0371
188.7302	0.0314
188.9483	-0.0357
189.1665	0.0322
189.3846	-0.2445
189.6027	0.0923
189.8208	0.1924
190.0389	0.0733
190.257	0.1437
190.475	0.0173
190.6931	0.1454
190.9111	0.2845
191.1292	0.0592
191.3472	0.2564
191.5652	0.3146
191.7832	0.1184
192.0012	0.5276
192.2192	0.3013
192.4371	0.4508
192.6551	0.3403
192.873	0.3732
193.091	0.4587
193.3089	0.6089
193.5268	0.6192
193.7447	0.7029
193.9626	0.411
194.1805	0.5718
194.3984	0.7579
194.6162	0.4558
194.8341	0.698
195.0519	0.5701
195.2697	0.4983
195.4875	1.0062
195.7054	0.6539
195.9231	0.4602
196.1409	0.5334
196.3587	0.4712
196.5765	0.5845
196.7942	0.5021
197.012	0.5663
197.2297	0.4893
197.4474	0.6169
197.6651	0.5173
197.8828	0.6446
198.1005	0.6013
198.3182	0.655
198.5358	0.646
198.7535	0.603
198.9711	0.4953
199.1888	0.6537
199.4064	0.6905
199.624	0.5553
199.8416	0.605
200.0592	0.5824
200.2767	0.6406
200.4943	0.7284
200.7119	0.676
200.9294	0.7142
201.1469	0.4917
201.3645	0.5613
201.582	0.5789
201.7995	0.7057
202.017	0.5805
202.2344	0.6745
202.4519	0.6695
202.6694	0.5366
202.8868	0.6421
203.1042	0.6672
203.3217	0.7176
203.5391	0.5712
203.7565	0.5937
203.9739	0.6521
204.1913	0.5659
204.4086	0.6158
204.626	0.6907
204.8433	0.6467
205.0607	0.5841
205.278	0.6264
205.4953	0.6443
205.7126	0.6662
205.9299	0.9332
206.1472	0.7028
206.3644	0.6078
206.5817	0.7507
206.7989	0.823
207.0162	0.5883
207.2334	0.6846
207.4506	0.6424
207.6678	0.5971
207.885	0.6392
208.1022	0.6938
208.3194	0.6697
208.5365	0.6116
208.7537	0.6477
208.9708	0.5549
209.1879	0.6116
209.405	0.631
209.6222	0.6812
209.8392	0.6056
210.0563	0.6086
210.2734	0.6919
210.4905	0.6627
210.7075	0.6729
210.9245	0.6439
211.1416	0.6796
211.3586	0.6504
211.5756	0.5779
211.7926	0.5953
212.0096	0.6201
212.2265	0.6407
212.4435	0.5539
212.6604	0.5989
212.8774	0.6067
213.0943	0.5683
213.3112	0.5608
213.5281	0.5293
213.745	0.5193
213.9619	0.5332
214.1788	0.4971
214.3956	0.4745
214.6125	0.4853
214.8293	0.4958
215.0461	0.4704
215.2629	0.4503
215.4798	0.4692
215.6965	0.4276
215.9133	0.4477
216.1301	0.4248
216.3469	0.4432
216.5636	0.4292
216.7803	0.4046
216.9971	0.4144
217.2138	0.4059
217.4305	0.3601
217.6472	0.3399
217.8639	0.4024
218.0805	0.3545
218.2972	0.3135
218.5138	0.3151
218.7305	0.3385
218.9471	0.3082
219.1637	0.2903
219.3803	0.2608
219.5969	0.2709
219.8135	0.2584
220.0301	0.253
220.2466	0.2796
220.4632	0.2565
220.6797	0.2371
220.8962	0.2241
221.1127	0.2527
221.3292	0.2506
221.5457	0.2313
221.7622	0.2266
221.9787	0.2553
222.1951	0.231
222.4116	0.2556
222.628	0.2421
222.8444	0.2471
223.0608	0.2405
223.2772	0.2522
223.4936	0.2629
223.71	0.2385
223.9264	0.2841
224.1427	0.2367
224.3591	0.249
224.5754	0.2597
224.7917	0.2716
225.008	0.2661
225.2243	0.2495
225.4406	0.2628
225.6569	0.246
225.8732	0.2642
226.0894	0.2634
226.3057	0.2459
226.5219	0.2931
226.7381	0.2625
226.9543	0.2938
227.1705	0.2867
227.3867	0.2855
227.6029	0.3095
227.8191	0.2901
228.0352	0.291
228.2513	0.3206
228.4675	0.3238
228.6836	0.2993
228.8997	0.29
229.1158	0.2976
229.3319	0.3182
229.548	0.304
229.764	0.3299
229.9801	0.342
230.1961	0.3033
230.4121	0.3327
230.6282	0.3333
230.8442	0.313
231.0602	0.3709
231.2761	0.3481
231.4921	0.3286
231.7081	0.3568
231.924	0.3268
232.14	0.3595
232.3559	0.3301
232.5718	0.3728
232.7877	0.3631
233.0036	0.3406
233.2195	0.3589
233.4353	0.3442
233.6512	0.3724
233.867	0.364
234.0829	0.3477
234.2987	0.3663
234.5145	0.364
234.7303	0.3471
234.9461	0.3876
235.1619	0.3838
235.3776	0.3889
235.5934	0.38
235.8091	0.3572
236.0249	0.3495
236.2406	0.3921
236.4563	0.3746
236.672	0.3887
236.8877	0.4091
237.1034	0.3954
237.319	0.3907
237.5347	0.3862
237.7503	0.3853
237.966	0.4072
238.1816	0.4085
238.3972	0.4043
238.6128	0.3919
238.8284	0.3976
239.0439	0.4059
239.2595	0.391
239.475	0.4079
239.6906	0.4137
239.9061	0.4135
240.1216	0.4078
240.3371	0.4141
240.5526	0.4137
240.7681	0.4096
240.9836	0.3939
241.199	0.4065
241.4145	0.3972
241.6299	0.3752
241.8453	0.3832
242.0607	0.4026
242.2761	0.3853
242.4915	0.3834
242.7069	0.3918
242.9223	0.3696
243.1376	0.3748
243.353	0.3709
243.5683	0.3647
243.7836	0.3472
243.9989	0.3618
244.2142	0.312
244.4295	0.338
244.6448	0.3279
244.86	0.3176
245.0753	0.3197
245.2905	0.3208
245.5057	0.2936
245.721	0.2892
245.9362	0.2865
246.1514	0.2882
246.3665	0.2802
246.5817	0.2782
246.7969	0.2762
247.012	0.2699
247.2271	0.2523
247.4423	0.2636
247.6574	0.2544
247.8725	0.251
248.0876	0.2368
248.3026	0.2437
248.5177	0.2355
248.7328	0.2237
248.9478	0.2241
249.1628	0.2361
249.3779	0.2266
249.5929	0.2185
249.8079	0.243
250.0228	0.2306
250.2378	0.2153
250.4528	0.2286
250.6677	0.2042
250.8827	0.1904
251.0976	0.2117
251.3125	0.2068
251.5274	0.1866
251.7423	0.1901
251.9572	0.2005
252.172	0.194
252.3869	0.192
252.6017	0.1966
252.8166	0.1816
253.0314	0.1725
253.2462	0.1789
253.461	0.1897
253.6758	0.1759
253.8906	0.178
254.1053	0.1765
254.3201	0.1791
254.5348	0.1784
254.7496	0.1939
254.9643	0.189
255.179	0.1767
255.3937	0.1798
255.6083	0.1827
255.823	0.188
256.0377	0.1736
256.2523	0.1747
256.467	0.1519
256.6816	0.1742
256.8962	0.1741
257.1108	0.1561
257.3254	0.1793
257.54	0.1567
257.7545	0.1789
257.9691	0.1774
258.1836	0.1711
258.3981	0.1828
258.6127	0.1869
258.8272	0.1769
259.0417	0.1666
259.2561	0.1703
259.4706	0.1676
259.6851	0.1747
259.8995	0.1738
260.114	0.1657
260.3284	0.1679
260.5428	0.1558
260.7572	0.1717
260.9716	0.1758
261.186	0.1594
261.4003	0.1802
261.6147	0.186
261.829	0.1683
262.0433	0.1653
262.2577	0.1792
262.472	0.1747
262.6863	0.1706
262.9005	0.1813
263.1148	0.1662
263.3291	0.149
263.5433	0.1744
263.7576	0.1705
263.9718	0.179
264.186	0.1655
264.4002	0.1681
264.6144	0.1798
264.8286	0.1837
265.0427	0.1642
265.2569	0.1643
265.471	0.1695
265.6851	0.1579
265.8993	0.1543
266.1134	0.1726
266.3275	0.1659
266.5415	0.1575
266.7556	0.1777
266.9697	0.1859
267.1837	0.181
267.3978	0.1817
267.6118	0.1955
267.8258	0.1909
268.0398	0.1635
268.2538	0.18
268.4677	0.1753
268.6817	0.1719
268.8957	0.1724
269.1096	0.1773
269.3235	0.174
269.5374	0.1613
269.7514	0.1567
269.9652	0.1568
270.1791	0.1672
270.393	0.1629
270.6068	0.1819
270.8207	0.166
271.0345	0.1584
271.2483	0.1814
271.4622	0.1674
271.676	0.1773
271.8897	0.1613
272.1035	0.1616
272.3173	0.1606
272.531	0.1584
272.7448	0.1592
272.9585	0.1554
273.1722	0.1578
273.3859	0.1754
273.5996	0.1533
273.8133	0.1776
274.0269	0.1546
274.2406	0.1602
274.4542	0.157
274.6679	0.163
274.8815	0.1719
275.0951	0.1747
275.3087	0.1822
275.5223	0.1697
275.7358	0.1704
275.9494	0.1614
276.1629	0.1689
276.3765	0.1612
276.59	0.1641
276.8035	0.1714
277.017	0.1651
277.2305	0.1596
277.444	0.1696
277.6574	0.1497
277.8709	0.1737
278.0843	0.1623
278.2978	0.1677
278.5112	0.1507
278.7246	0.1813
278.938	0.1668
279.1513	0.1744
279.3647	0.1817
279.5781	0.1761
279.7914	0.1697
280.0047	0.1838
280.2181	0.162
280.4314	0.1744
280.6447	0.1782
280.8579	0.1708
281.0712	0.1781
281.2845	0.1791
281.4977	0.1715
281.711	0.1599
281.9242	0.1681
282.1374	0.1877
282.3506	0.1738
282.5638	0.1778
282.7769	0.1748
282.9901	0.1643
283.2033	0.1723
283.4164	0.1723
283.6295	0.1656
283.8426	0.1644
284.0557	0.1741
284.2688	0.18
284.4819	0.1701
284.695	0.1559
284.908	0.1759
285.1211	0.1607
285.3341	0.1649
285.5471	0.1768
285.7601	0.1742
285.9731	0.1644
286.1861	0.1642
286.3991	0.1642
286.612	0.175
286.825	0.168
287.0379	0.1713
287.2508	0.1697
287.4637	0.156
287.6766	0.1515
287.8895	0.1666
288.1024	0.1847
288.3152	0.1708
288.5281	0.1515
288.7409	0.1583
288.9538	0.1615
289.1666	0.1632
289.3794	0.1581
289.5922	0.1596
289.8049	0.1691
290.0177	0.1604
290.2304	0.1559
290.4432	0.1505
290.6559	0.1495
290.8686	0.164
291.0813	0.1504
291.294	0.1534
291.5067	0.1557
291.7194	0.1589
291.932	0.1667
292.1447	0.1561
292.3573	0.1521
292.5699	0.1583
292.7825	0.1499
292.9951	0.1479
293.2077	0.1433
293.4203	0.1532
293.6328	0.1411
293.8454	0.1609
294.0579	0.1626
294.2704	0.1588
294.4829	0.1457
294.6954	0.1556
294.9079	0.1573
295.1204	0.1417
295.3328	0.1509
295.5453	0.1524
295.7577	0.1555
295.9701	0.1488
296.1825	0.1547
296.3949	0.1556
296.6073	0.1525
296.8197	0.1515
297.0321	0.1495
297.2444	0.1431
297.4567	0.1551
297.6691	0.1532
297.8814	0.1418
298.0937	0.143
298.306	0.1578
298.5182	0.1567
298.7305	0.1474
298.9428	0.1402
299.155	0.1576
299.3672	0.1378
299.5794	0.1486
299.7916	0.1482
300.0038	0.1666
300.216	0.1547
300.4282	0.1564
300.6403	0.1437
300.8525	0.158
301.0646	0.1456
301.2767	0.1492
301.4888	0.1541
301.7009	0.1532
301.913	0.1504
302.125	0.1492
302.3371	0.1535
302.5491	0.1511
302.7612	0.1599
302.9732	0.1526
303.1852	0.1619
303.3972	0.1453
303.6092	0.1436
303.8211	0.1441
304.0331	0.1442
304.245	0.1325
304.457	0.1428
304.6689	0.1323
304.8808	0.147
305.0927	0.1509
305.3046	0.1471
305.5164	0.1567
305.7283	0.1493
305.9401	0.1473
306.152	0.1365
306.3638	0.1432
306.5756	0.1351
306.7874	0.1513
306.9992	0.1415
307.2109	0.1301
307.4227	0.1178
307.6344	0.1405
307.8462	0.1428
308.0579	0.1388
308.2696	0.1164
308.4813	0.1236
308.693	0.1331
308.9046	0.1337
309.1163	0.1199
309.328	0.1356
309.5396	0.1256
309.7512	0.1197
309.9628	0.1202
310.1744	0.1189
310.386	0.1254
310.5976	0.1157
310.8091	0.1247
311.0207	0.1251
311.2322	0.1221
311.4437	0.1078
311.6552	0.1219
311.8667	0.1238
312.0782	0.1098
312.2897	0.1105
312.5012	0.1195
312.7126	0.1091
312.924	0.1084
313.1355	0.1107
313.3469	0.1037
313.5583	0.1208
313.7696	0.1163
313.981	0.1179
314.1924	0.104
314.4037	0.1177
314.6151	0.1162
314.8264	0.1091
315.0377	0.1073
315.249	0.1084
315.4603	0.1141
315.6716	0.1147
315.8828	0.1053
316.0941	0.1081
316.3053	0.1086
316.5165	0.1066
316.7277	0.1105
316.9389	0.1173
317.1501	0.0951
317.3613	0.1116
317.5724	0.0959
317.7836	0.1073
317.9947	0.1066
318.2058	0.114
318.417	0.0988
318.6281	0.0946
318.8391	0.1045
319.0502	0.1057
319.2613	0.1026
319.4723	0.1141
319.6834	0.1174
319.8944	0.1004
320.1054	0.1132
320.3164	0.113
320.5274	0.1046
320.7383	0.1149
320.9493	0.1147
321.1602	0.1281
321.3712	0.0963
321.5821	0.1044
321.793	0.1165
322.0039	0.115
322.2148	0.115
322.4257	0.1254
322.6365	0.1234
322.8474	0.1134
323.0582	0.1133
323.269	0.1131
323.4798	0.1142
323.6906	0.1146
323.9014	0.1151
324.1122	0.1119
324.3229	0.1027
324.5337	0.114
324.7444	0.1024
324.9551	0.1255
325.1658	0.1212
325.3765	0.119
325.5872	0.1141
325.7979	0.1132
326.0085	0.115
326.2192	0.1165
326.4298	0.1286
326.6404	0.1198
326.851	0.1193
327.0616	0.1079
327.2722	0.1173
327.4828	0.1266
327.6933	0.1144
327.9039	0.1303
328.1144	0.1308
328.3249	0.1174
328.5354	0.115
328.7459	0.1244
328.9564	0.1183
329.1669	0.1226
329.3773	0.1278
329.5878	0.1167
329.7982	0.1184
330.0086	0.1224
330.219	0.1268
330.4294	0.1101
330.6398	0.1215
330.8502	0.1181
331.0605	0.116
331.2708	0.1191
331.4812	0.1231
331.6915	0.1187
331.9018	0.1238
332.1121	0.1162
332.3224	0.1233
332.5326	0.1251
332.7429	0.1256
332.9531	0.1325
333.1633	0.1098
333.3735	0.1315
333.5837	0.1286
333.7939	0.113
334.0041	0.1306
334.2143	0.1157
334.4244	0.1201
334.6346	0.107
334.8447	0.1278
335.0548	0.1158
335.2649	0.1098
335.475	0.131
335.685	0.1211
335.8951	0.132
336.1051	0.1307
336.3152	0.1193
336.5252	0.1214
336.7352	0.1326
336.9452	0.1253
337.1552	0.1245
337.3652	0.1218
337.5751	0.1411
337.7851	0.1262
337.995	0.1258
338.2049	0.1305
338.4148	0.1168
338.6247	0.1357
338.8346	0.1194
339.0445	0.1193
339.2543	0.1234
339.4642	0.1204
339.674	0.1086
339.8838	0.1313
340.0936	0.135
340.3034	0.138
340.5132	0.1384
340.7229	0.1387
340.9327	0.1427
341.1424	0.1284
341.3522	0.1381
341.5619	0.1386
341.7716	0.1476
341.9813	0.1387
342.1909	0.1193
342.4006	0.1449
342.6102	0.1439
342.8199	0.1405
343.0295	0.1371
343.2391	0.1417
343.4487	0.147
343.6583	0.1394
343.8679	0.1343
344.0774	0.1466
344.287	0.1352
344.4965	0.125
344.706	0.1539
344.9155	0.1439
345.125	0.1313
345.3345	0.1398
345.544	0.1363
345.7534	0.1312
345.9629	0.1274
346.1723	0.1472
346.3817	0.1383
346.5911	0.1282
346.8005	0.1462
347.0099	0.1256
347.2193	0.1435
347.4286	0.1406
347.638	0.1567
347.8473	0.1496
348.0566	0.1439
348.2659	0.1573
348.4752	0.1532
348.6845	0.1471
348.8937	0.1483
349.103	0.1579
349.3122	0.1308
349.5214	0.1408
349.7306	0.1505
349.9398	0.1494
350.149	0.1495
350.3582	0.149
350.5674	0.1545
350.7765	0.1491
350.9856	0.1393
351.1948	0.1431
351.4039	0.1407
351.613	0.1401
351.822	0.151
352.0311	0.144
352.2402	0.1505
352.4492	0.1602
352.6582	0.1429
352.8672	0.1497
353.0762	0.1464
353.2852	0.1543
353.4942	0.1568
353.7032	0.1496
353.9121	0.1443
354.1211	0.155
354.33	0.1599
354.5389	0.1608
354.7478	0.1547
354.9567	0.1661
355.1655	0.1489
355.3744	0.1631
355.5833	0.1661
355.7921	0.1672
356.0009	0.165
356.2097	0.1693
356.4185	0.1756
356.6273	0.1696
356.8361	0.1692
357.0448	0.152
357.2536	0.1553
357.4623	0.1429
357.671	0.1633
357.8797	0.1626
358.0884	0.166
358.2971	0.1671
358.5057	0.1773
358.7144	0.1542
358.923	0.1727
359.1316	0.1715
359.3402	0.1682
359.5488	0.1648
359.7574	0.169
359.966	0.1823
360.1746	0.1804
360.3831	0.1681
360.5916	0.1623
360.8002	0.1683
361.0087	0.1745
361.2172	0.1758
361.4256	0.1696
361.6341	0.1858
361.8426	0.173
362.051	0.1696
362.2594	0.1757
362.4678	0.1621
362.6762	0.199
362.8846	0.1722
363.093	0.1883
363.3014	0.1759
363.5097	0.1626
363.718	0.1852
363.9264	0.1755
364.1347	0.1865
364.343	0.1814
364.5513	0.1959
364.7595	0.1822
364.9678	0.1796
365.176	0.1788
365.3842	0.1635
365.5925	0.1948
365.8007	0.1963
366.0089	0.1885
366.217	0.1834
366.4252	0.1872
366.6333	0.1828
366.8415	0.1817
367.0496	0.1928
367.2577	0.182
367.4658	0.2071
367.6739	0.1846
367.882	0.1992
368.09	0.171
368.2981	0.1964
368.5061	0.1838
368.7141	0.1912
368.9221	0.2005
369.1301	0.201
369.3381	0.1712
369.5461	0.1913
369.754	0.2064
369.962	0.1944
370.1699	0.1949
370.3778	0.1982
370.5857	0.188
370.7936	0.1944
371.0015	0.2066
371.2093	0.1973
371.4172	0.1891
371.625	0.1806
371.8328	0.1984
372.0406	0.1833
372.2484	0.1803
372.4562	0.2058
372.664	0.1907
372.8717	0.1944
373.0795	0.1859
373.2872	0.2018
373.4949	0.204
373.7026	0.2036
373.9103	0.2052
374.118	0.2069
374.3256	0.1886
374.5333	0.1904
374.7409	0.1883
374.9485	0.2191
375.1561	0.2075
375.3637	0.1932
375.5713	0.2091
375.7789	0.1876
375.9864	0.2043
376.194	0.1955
376.4015	0.2052
376.609	0.2113
376.8165	0.2027
377.024	0.1966
377.2315	0.2011
377.4389	0.2183
377.6464	0.2279
377.8538	0.211
378.0612	0.207
378.2686	0.2159
378.476	0.1968
378.6834	0.2018
378.8908	0.2098
379.0981	0.2136
379.3055	0.1971
379.5128	0.2089
379.7201	0.2227
379.9274	0.1902
380.1347	0.2064
380.342	0.2186
380.5492	0.2115
380.7565	0.2224
380.9637	0.2115
381.1709	0.202
381.3781	0.2108
381.5853	0.207
381.7925	0.2028
381.9997	0.2071
382.2068	0.2174
382.4139	0.2194
382.6211	0.2044
382.8282	0.2082
383.0353	0.208
383.2424	0.2113
383.4494	0.2123
383.6565	0.229
383.8635	0.2004
384.0706	0.2068
384.2776	0.2055
384.4846	0.2049
384.6916	0.1958
384.8986	0.2147
385.1055	0.2212
385.3125	0.2287
385.5194	0.2019
385.7263	0.2222
385.9333	0.1944
386.1402	0.2235
386.347	0.2227
386.5539	0.1879
386.7608	0.2171
386.9676	0.2041
387.1744	0.2078
387.3813	0.1968
387.5881	0.2084
387.7948	0.204
388.0016	0.2053
388.2084	0.1947
388.4151	0.2106
388.6219	0.2202
388.8286	0.2011
389.0353	0.2049
389.242	0.2151
389.4487	0.2021
389.6553	0.1893
389.862	0.1919
390.0686	0.1918
390.2753	0.2001
390.4819	0.1851
390.6885	0.1888
390.8951	0.1933
391.1016	0.1981
391.3082	0.1799
391.5147	0.1994
391.7213	0.1786
391.9278	0.1825
392.1343	0.1871
392.3408	0.1872
392.5473	0.1933
392.7537	0.1795
392.9602	0.1755
393.1666	0.1925
393.373	0.1895
393.5794	0.1787
393.7858	0.1853
393.9922	0.183
394.1986	0.1895
394.4049	0.1802
394.6113	0.1792
394.8176	0.1769
395.0239	0.1665
395.2302	0.1718
395.4365	0.1701
395.6428	0.1714
395.8491	0.1797
396.0553	0.1849
396.2615	0.1681
396.4678	0.1807
396.674	0.1691
396.8802	0.1801
397.0863	0.1846
397.2925	0.1589
397.4987	0.1624
397.7048	0.1699
397.9109	0.1777
398.117	0.1723
398.3231	0.1742
398.5292	0.1905
398.7353	0.1921
398.9413	0.1764
399.1474	0.1693
399.3534	0.1768
399.5594	0.1586
399.7654	0.1788
399.9714	0.1775
400.1774	0.1623
400.3833	0.1625
400.5893	0.1741
400.7952	0.1646
401.0011	0.1698
401.207	0.1669
401.4129	0.1688
401.6188	0.1775
401.8247	0.1753
402.0305	0.1614
402.2364	0.153
402.4422	0.1906
402.648	0.1797
402.8538	0.1768
403.0596	0.1721
403.2654	0.1703
403.4711	0.1645
403.6768	0.1745
403.8826	0.1738
404.0883	0.161
404.294	0.1684
404.4997	0.1631
404.7054	0.1649
404.911	0.1627
405.1167	0.1733
405.3223	0.169
405.5279	0.1684
405.7335	0.1704
405.9391	0.1738
406.1447	0.1657
406.3502	0.1817
406.5558	0.1629
406.7613	0.1713
406.9668	0.1663
407.1724	0.1547
407.3778	0.1724
407.5833	0.1479
407.7888	0.1687
407.9942	0.1765
408.1997	0.1654
408.4051	0.1606
408.6105	0.1652
408.8159	0.1673
409.0213	0.1619
409.2267	0.1784
409.432	0.1675
409.6374	0.1648
409.8427	0.1595
410.048	0.1646
410.2533	0.1557
410.4586	0.1615
410.6639	0.1488
410.8691	0.1677
411.0744	0.1453
411.2796	0.1559
411.4848	0.1534
411.69	0.1507
411.8952	0.1885
412.1004	0.1744
412.3056	0.1627
412.5107	0.1675
412.7158	0.1698
412.921	0.1608
413.1261	0.1574
413.3312	0.1536
413.5362	0.1399
413.7413	0.1402
413.9464	0.1608
414.1514	0.1605
414.3564	0.1512
414.5614	0.147
414.7664	0.162
414.9714	0.1648
415.1764	0.1625
415.3813	0.1677
415.5863	0.1429
415.7912	0.1658
415.9961	0.1457
416.201	0.1572
416.4059	0.1543
416.6108	0.1399
416.8156	0.1699
417.0205	0.1479
417.2253	0.1494
417.4301	0.1596
417.6349	0.1459
417.8397	0.1527
418.0445	0.1646
418.2492	0.1625
418.454	0.1636
418.6587	0.1531
418.8634	0.1678
419.0681	0.1394
419.2728	0.1519
419.4775	0.1377
419.6822	0.1519
419.8868	0.1237
420.0915	0.1568
420.2961	0.1281
420.5007	0.1369
420.7053	0.1539
420.9099	0.149
421.1144	0.1459
421.319	0.1337
421.5235	0.1495
421.728	0.14
421.9325	0.1498
422.137	0.1455
422.3415	0.1393
422.546	0.1315
422.7504	0.1379
422.9549	0.1514
423.1593	0.1461
423.3637	0.1442
423.5681	0.1514
423.7725	0.139
423.9769	0.1388
424.1812	0.1326
424.3856	0.1413
424.5899	0.1526
424.7942	0.127
424.9985	0.142
425.2028	0.1362
425.4071	0.1536
425.6113	0.1214
425.8156	0.1465
426.0198	0.129
426.224	0.1234
426.4282	0.1334
426.6324	0.1295
426.8366	0.1317
427.0407	0.116
427.2449	0.1386
427.449	0.124
427.6531	0.0973
427.8572	0.1202
428.0613	0.1297
428.2654	0.113
428.4694	0.1221
428.6735	0.1197
428.8775	0.1271
429.0815	0.1155
429.2855	0.1059
429.4895	0.115
429.6935	0.1187
429.8975	0.1094
430.1014	0.102
430.3053	0.1008
430.5093	0.1024
430.7132	0.1113
430.9171	0.0942
431.1209	0.1069
431.3248	0.1115
431.5286	0.1
431.7325	0.1227
431.9363	0.0935
432.1401	0.1066
432.3439	0.0783
432.5477	0.0935
432.7514	0.0855
432.9552	0.1133
433.1589	0.0863
433.3627	0.0886
433.5664	0.101
433.7701	0.0946
433.9737	0.0656
434.1774	0.0787
434.3811	0.0802
434.5847	0.0923
434.7883	0.09
434.9919	0.0915
435.1955	0.0905
435.3991	0.0749
435.6027	0.0895
435.8062	0.0757
436.0098	0.0686
436.2133	0.0718
436.4168	0.0702
436.6203	0.0641
436.8238	0.0787
437.0272	0.0668
437.2307	0.0652
437.4341	0.0856
437.6375	0.0725
437.841	0.0778
438.0443	0.0742
438.2477	0.0664
438.4511	0.0666
438.6545	0.0731
438.8578	0.0703
439.0611	0.0742
439.2644	0.0655
439.4677	0.0459
439.671	0.057
439.8743	0.0717
440.0775	0.0727
440.2808	0.0702
440.484	0.0436
440.6872	0.0529
440.8904	0.0519
441.0936	0.0629
441.2967	0.0571
441.4999	0.0677
441.703	0.0488
441.9062	0.0543
442.1093	0.0494
442.3124	0.0611
442.5155	0.0437
442.7185	0.0601
442.9216	0.0225
443.1246	0.0428
443.3276	0.0418
443.5307	0.0452
443.7337	0.044
443.9366	0.0422
444.1396	0.0442
444.3426	0.0424
444.5455	0.0344
444.7484	0.0303
444.9513	0.0363
445.1542	0.0374
445.3571	0.0415
445.56	0.0407
445.7628	0.017
445.9657	0.0241
446.1685	0.0473
446.3713	0.0241
446.5741	0.0294
446.7769	0.0224
446.9797	0.04
447.1824	0.0382
447.3852	0.0347
447.5879	0.0379
447.7906	0.0337
447.9933	0.0317
448.196	0.0269
448.3986	0.0209
448.6013	0.0272
448.8039	0.0201
449.0066	0.017
449.2092	0.0203
449.4118	0.0151
449.6143	0.0274
449.8169	0.0291
450.0195	0.0126
450.222	0.0082
450.4245	0.0203
450.627	0.0316
450.8295	0.0269
451.032	0.015
451.2345	0.0204
451.4369	0.024
451.6394	0.0162
451.8418	-0.0003
452.0442	0.0162
452.2466	0.0265
452.449	0.0048
452.6513	0.0138
452.8537	0.0121
453.056	0.001
453.2583	0.0165
453.4607	0.0035
453.663	0.0032
453.8652	0.0038
454.0675	-0.0053
454.2697	0.0086
454.472	0.0078
454.6742	0.011
454.8764	0.0089
455.0786	0.0115
455.2808	0.0168
455.4829	0.022
455.6851	0.009
455.8872	0.0034
456.0893	0.0118
456.2915	-0.0043
456.4935	0.0127
456.6956	-0.0001
456.8977	0.0134
457.0997	0.0183
457.3018	-0.0038
457.5038	-0.0006
457.7058	0.0026
457.9078	-0.0112
458.1098	0.0106
458.3117	0.0207
458.5137	0.0155
458.7156	0.0079
458.9175	-0.0122
459.1194	0.0092
459.3213	0.0079
459.5232	0.0091
459.725	-0.0151
459.9269	0.0053
460.1287	-0.0091
460.3305	-0.0044
460.5323	-0.0016
460.7341	0.0044
460.9359	-0.0056
461.1376	0.0088
461.3394	-0.0042
461.5411	0.0063
461.7428	0.0132
461.9445	0.0054
462.1462	0.017
462.3479	-0.0127
462.5495	-0.013
462.7512	0.0086
462.9528	0.0074
463.1544	-0.0013
463.356	-0.0005
463.5576	-0.0036
463.7592	-0.0045
463.9607	0.0018
464.1623	0.0087
464.3638	0.015
464.5653	-0.0148
464.7668	0.0017
464.9683	0.0066
465.1697	0.0089
465.3712	-0.0047
465.5726	-0.0154
465.7741	0.0044
465.9755	0.0033
466.1769	-0.0046
466.3782	0.0112
466.5796	-0.0184
466.7809	0.0014
466.9823	-0.0236
467.1836	-0.0104
467.3849	-0.021
467.5862	0.0038
467.7875	-0.0058
467.9887	0.0148
468.19	-0.003
468.3912	-0.0102
468.5924	-0.0022
468.7936	0
468.9948	-0.0086
469.196	0.0147
469.3972	-0.0178
469.5983	0.0009
469.7994	-0.0174
470.0006	-0.0044
470.2017	-0.0205
470.4027	-0.0124
470.6038	-0.0061
470.8049	-0.0282
471.0059	-0.0097
471.2069	-0.0309
471.408	0.0004
471.6089	-0.0106
471.8099	-0.0123
472.0109	-0.0033
472.2119	-0.0069
472.4128	-0.0151
472.6137	0.0072
472.8146	-0.0202
473.0155	-0.0033
473.2164	-0.0046
473.4173	0.0097
473.6181	0.0055
473.819	-0.003
474.0198	-0.0143
474.2206	-0.0129
474.4214	0.0061
474.6222	-0.0021
474.8229	-0.0122
475.0237	-0.0142
475.2244	-0.0209
475.4251	-0.0112
475.6258	-0.0171
475.8265	-0.0008
476.0272	-0.0052
476.2278	-0.0005
476.4285	-0.0134
476.6291	-0.0126
476.8297	-0.0059
477.0303	-0.01
477.2309	-0.0081
477.4315	-0.025
477.632	-0.007
477.8326	-0.0174
478.0331	0.0007
478.2336	-0.0099
478.4341	-0.0179
478.6346	-0.0087
478.8351	-0.0072
479.0355	0.0008
479.236	-0.0079
479.4364	-0.0034
479.6368	-0.0048
479.8372	-0.0245
480.0376	-0.0018
480.2379	-0.0313
480.4383	-0.0072
480.6386	0.0008
480.8389	-0.0071
481.0392	-0.0164
481.2395	-0.0041
481.4398	0.0022
481.6401	-0.0002
481.8403	-0.008
482.0405	-0.0118
482.2408	-0.0105
482.441	-0.0002
482.6411	-0.0008
482.8413	-0.0031
483.0415	-0.0072
483.2416	-0.0081
483.4417	-0.0119
483.6419	-0.0068
483.8419	-0.005
484.042	-0.0051
484.2421	0.008
484.4422	-0.0027
484.6422	-0.0097
484.8422	0.0003
485.0422	-0.009
485.2422	-0.0005
485.4422	-0.0125
485.6422	-0.0112
485.8421	-0.0097
486.042	-0.0047
486.242	-0.0068
486.4419	-0.0075
486.6417	-0.0139
486.8416	-0.0039
487.0415	-0.0051
487.2413	-0.0119
487.4411	-0.0143
487.641	-0.0207
487.8408	0.0068
488.0405	-0.0073
488.2403	0.0015
488.4401	0.0008
488.6398	0.0038
488.8395	-0.0066
489.0392	-0.002
489.2389	-0.0156
489.4386	-0.0095
489.6383	-0.0083
489.8379	-0.0014
490.0376	-0.0064
490.2372	-0.0104
490.4368	-0.0055
490.6364	-0.012
490.836	-0.0046
491.0355	-0.0122
491.2351	-0.0179
491.4346	-0.016
491.6341	-0.0144
491.8336	0.0047
492.0331	-0.018
492.2326	-0.0197
492.432	-0.0116
492.6315	-0.0154
492.8309	-0.0287
493.0303	-0.0125
493.2297	-0.0154
493.4291	-0.0048
493.6284	-0.0111
493.8278	-0.0099
494.0271	0.0033
494.2264	0.0045
494.4257	-0.0156
494.625	-0.0087
494.8243	-0.0119
495.0236	-0.0109
495.2228	-0.0174
495.422	-0.0003
495.6213	-0.0033
495.8205	-0.0084
496.0196	-0.0072
496.2188	-0.003
496.418	-0.0081
496.6171	-0.0152
496.8162	-0.0049
497.0153	-0.0036
497.2144	-0.0142
497.4135	-0.009
497.6126	-0.0244
497.8116	-0.0082
498.0107	0.0019
498.2097	-0.0193
498.4087	-0.0202
498.6077	-0.0158
498.8067	-0.0111
499.0056	-0.0033
499.2046	-0.0152
499.4035	-0.0219
499.6024	-0.0155
499.8013	-0.0022
500.0002	-0.0111
500.199	-0.0158
500.3979	-0.0128
500.5967	-0.0188
500.7956	-0.0089
500.9944	-0.0069
501.1932	-0.0216
501.3919	-0.0162
501.5907	-0.017
501.7895	-0.0164
501.9882	-0.0205
502.1869	-0.0146
502.3856	-0.0173
502.5843	-0.0196
502.783	-0.0136
502.9816	-0.0171
503.1803	-0.0138
503.3789	-0.019
503.5775	-0.0009
503.7761	-0.0177
503.9747	-0.0128
504.1732	-0.0136
504.3718	-0.0005
504.5703	-0.0082
504.7689	-0.0096
504.9674	-0.0091
505.1658	-0.011
505.3643	-0.0042
505.5628	-0.0128
505.7612	-0.0078
505.9597	0.0012
506.1581	-0.0069
506.3565	-0.0012
506.5549	-0.009
506.7532	-0.0243
506.9516	-0.0089
507.1499	-0.0035
507.3482	-0.0144
507.5465	-0.0147
507.7448	-0.0048
507.9431	-0.0044
508.1414	-0.0079
508.3396	-0.0101
508.5379	-0.0097
508.7361	-0.0201
508.9343	-0.0105
509.1325	0.0015
509.3306	-0.002
509.5288	-0.0077
509.7269	-0.015
509.9251	-0.0078
510.1232	-0.0129
510.3213	-0.0003
510.5193	-0.0125
510.7174	-0.0174
510.9154	-0.0106
511.1135	-0.0054
511.3115	-0.0089
511.5095	-0.0146
511.7075	-0.0169
511.9055	-0.0112
512.1034	-0.0029
512.3014	-0.0037
512.4993	0.0026
512.6972	-0.0081
512.8951	-0.0167
513.093	-0.0103
513.2908	-0.0001
513.4887	-0.0164
513.6865	-0.0093
513.8844	-0.0159
514.0822	-0.0164
514.2799	-0.0211
514.4777	-0.0166
514.6755	-0.0142
514.8732	-0.0139
515.0709	-0.0204
515.2687	-0.0172
515.4664	-0.0022
515.664	-0.0129
515.8617	-0.018
516.0594	-0.0176
516.257	-0.0045
516.4546	-0.0205
516.6522	-0.0119
516.8498	-0.0145
517.0474	0.0031
517.2449	0.0016
517.4425	-0.0117
517.64	-0.0139
517.8375	-0.0048
518.035	-0.0088
518.2325	-0.0204
518.43	-0.0141
518.6274	-0.0102
518.8249	-0.016
519.0223	-0.0136
519.2197	-0.0052
519.4171	-0.0129
519.6145	-0.0159
519.8118	-0.0041
520.0092	-0.0082
520.2065	-0.0156
520.4038	-0.0159
520.6011	-0.0033
520.7984	-0.0101
520.9956	-0.0081
521.1929	-0.017
521.3901	-0.0007
521.5874	-0.0007
521.7846	0.0014
521.9818	-0.0113
522.1789	-0.011
522.3761	-0.0091
522.5732	-0.0074
522.7704	-0.0179
522.9675	-0.0044
523.1646	-0.0205
523.3617	-0.0062
523.5587	-0.0076
523.7558	-0.0114
523.9528	-0.011
524.1498	-0.012
524.3468	-0.0152
524.5438	-0.0072
524.7408	0.0004
524.9378	-0.0051
525.1347	-0.0082
525.3316	-0.0047
525.5285	-0.0083
525.7254	-0.0168
525.9223	-0.0091
526.1192	-0.0043
526.316	-0.0044
526.5129	-0.0001
526.7097	-0.014
526.9065	-0.0009
527.1033	-0.0161
527.3	-0.0049
527.4968	-0.0104
527.6935	-0.0033
527.8903	-0.0203
528.087	-0.0116
528.2837	-0.0006
528.4804	0.0036
528.677	-0.0087
528.8737	0.0014
529.0703	-0.0029
529.2669	-0.0038
529.4635	-0.0111
529.6601	-0.0104
529.8567	-0.0124
530.0532	-0.0106
530.2498	0
530.4463	-0.0088
530.6428	0.002
530.8393	0.0017
531.0358	-0.0053
531.2322	-0.0051
531.4287	-0.0001
531.6251	-0.0116
531.8215	-0.0006
532.0179	-0.0014
532.2143	0.0001
532.4107	-0.0107
532.607	-0.0095
532.8034	-0.0121
532.9997	-0.0062
533.196	-0.0086
533.3923	-0.0118
533.5886	-0.007
533.7848	-0.0035
533.9811	-0.006
534.1773	-0.0009
534.3735	-0.0014
534.5697	-0.0036
534.7659	-0.0053
534.9621	-0.0001
535.1582	-0.014
535.3544	-0.0114
535.5505	-0.0106
535.7466	-0.013
535.9427	-0.0096
536.1387	-0.0074
536.3348	-0.0062
536.5308	-0.0007
536.7269	-0.0209
536.9229	-0.0026
537.1189	-0.0058
537.3148	-0.0042
537.5108	-0.0075
537.7068	-0.0078
537.9027	-0.0035
538.0986	-0.0069
538.2945	-0.012
538.4904	-0.0086
538.6863	-0.0135
538.8821	-0.0147
539.078	-0.0112
539.2738	-0.0093
539.4696	-0.0148
539.6654	0.0008
539.8611	0.0049
540.0569	0.0039
540.2526	-0.0064
540.4484	-0.0075
540.6441	0.0024
540.8398	-0.0029
541.0355	-0.003
541.2311	-0.011
541.4268	-0.0156
541.6224	-0.0024
541.818	-0.0093
542.0136	0.0024
542.2092	0.0015
542.4048	0.0051
542.6003	-0.0047
542.7959	-0.0153
542.9914	-0.0048
543.1869	0.0033
543.3824	-0.0074
543.5779	-0.0031
543.7734	-0.0063
543.9688	-0.0094
544.1642	-0.0007
544.3596	0.0056
544.555	-0.0078
544.7504	-0.0045
544.9458	-0.0128
545.1411	0.0015
545.3365	-0.0112
545.5318	-0.0056
545.7271	0.0013
545.9224	-0.0019
546.1177	-0.0022
546.3129	-0.0027
546.5081	-0.0093
546.7034	-0.0155
546.8986	-0.002
547.0938	-0.0079
547.289	-0.0003
547.4841	-0.0029
547.6793	0.0054
547.8744	-0.0079
548.0695	-0.0092
548.2646	-0.011
548.4597	-0.0048
548.6548	-0.0049
548.8498	-0.0034
549.0448	-0.0011
549.2399	-0.008
549.4349	0.0047
549.6298	-0.008
549.8248	-0.0046
550.0198	-0.0086
550.2147	-0.0052
550.4096	-0.0046
550.6045	-0.0002
550.7994	0.0035
550.9943	0.0012
551.1892	-0.0055
551.384	0.0047
551.5788	-0.0154
551.7737	-0.0018
551.9685	-0.0022
552.1632	0.0036
552.358	-0.0137
552.5528	0.0021
552.7475	-0.0029
552.9422	0.0023
553.1369	0.0048
553.3316	0.0027
553.5263	-0.0057
553.7209	0.0072
553.9156	-0.0001
554.1102	-0.0054
554.3048	-0.0064
554.4994	0.0133
554.694	-0.0016
554.8885	0.0075
555.0831	-0.0046
555.2776	-0.0067
555.4721	0.0043
555.6666	-0.0016
555.8611	0.0026
556.0555	-0.006
556.25	-0.007
556.4444	-0.0007
556.6388	-0.0067
556.8332	-0.0006
557.0276	-0.0062
557.222	-0.0009
557.4163	-0.0057
557.6107	-0.0069
557.805	0.0058
557.9993	0.0002
558.1936	-0.0021
558.3879	-0.004
558.5821	-0.0006
558.7764	-0.0007
558.9706	-0.0023
559.1648	0.0065
559.359	0.0003
559.5532	-0.0036
559.7473	-0.0131
559.9415	-0.0039
560.1356	0.0024
560.3297	-0.0026
560.5238	-0.0084
560.7179	-0.0078
560.9119	-0.0019
561.106	-0.008
561.3	-0.0111
561.494	-0.0009
561.688	-0.0166
561.882	-0.0177
562.076	-0.0011
562.2699	0.0067
562.4639	-0.0045
562.6578	0.0037
562.8517	0.0053
563.0456	0.0035
563.2395	-0.0028
563.4333	0.004
563.6272	0.0047
563.821	-0.0026
564.0148	-0.0035
564.2086	-0.0024
564.4024	-0.0005
564.5961	-0.0021
564.7899	0.0044
564.9836	-0.0024
565.1773	0.0018
565.371	0.0019
565.5647	0.003
565.7584	0.0029
565.952	0.0005
566.1456	-0.0054
566.3393	-0.0021
566.5329	-0.0042
566.7264	-0.0026
566.92	-0.006
567.1136	0.0067
567.3071	-0.0015
567.5006	0.0016
567.6941	0.0119
567.8876	-0.002
568.0811	-0.0023
568.2745	0.0048
568.468	0.0055
568.6614	0.0023
568.8548	-0.004
569.0482	0.0039
569.2416	0.0034
569.4349	0.0016
569.6283	-0
569.8216	-0.0056
570.0149	-0.0043
570.2082	0.0036
570.4015	0.0006
570.5947	-0.0002
570.788	-0.0005
570.9812	0.0059
571.1744	0.0014
571.3676	-0.007
571.5608	-0.0034
571.754	0.004
571.9471	-0.0054
572.1402	-0.0019
572.3333	-0.0049
572.5264	-0.0059
572.7195	-0.0034
572.9126	-0.0039
573.1057	0.0029
573.2987	-0.0036
573.4917	-0.001
573.6847	-0.0117
573.8777	-0.0017
574.0707	0.0039
574.2636	-0.0032
574.4566	-0.0098
574.6495	0.0048
574.8424	0.0038
575.0353	-0.0005
575.2281	0.0113
575.421	0.0004
575.6138	0.0028
575.8067	0.0045
575.9995	-0.0016
576.1923	-0.0021
576.385	-0.0035
576.5778	-0.0023
576.7706	-0.0067
576.9633	0.0016
577.156	0.001
577.3487	-0.0024
577.5414	0
577.734	-0.0095
577.9267	-0.0005
578.1193	-0.011
578.3119	-0.007
578.5045	-0.0022
578.6971	-0.0031
578.8897	-0.0011
579.0822	-0.0051
579.2747	-0.0021
579.4673	-0.0056
579.6598	-0.0058
579.8522	-0.0032
580.0447	-0.0106
580.2372	-0.0048
580.4296	-0.0001
580.622	-0.0011
580.8144	-0.0048
581.0068	0.0008
581.1992	-0.0138
581.3915	-0.0033
581.5839	-0.0076
581.7762	-0.0101
581.9685	-0.0081
582.1608	0
582.353	-0.0069
582.5453	0.0009
582.7375	0.0012
582.9298	0.0021
583.122	-0.0002
583.3142	-0.0042
583.5063	-0.003
583.6985	-0.006
583.8906	-0.0085
584.0827	-0.0061
584.2749	0.0021
584.4669	0.0028
584.659	-0.0087
584.8511	-0.0025
585.0431	-0.0067
585.2352	-0.0008
585.4272	-0.0072
585.6192	0.0058
585.8111	-0.0035
586.0031	-0.007
586.195	0.0011
586.387	0.0063
586.5789	-0.0007
586.7708	0.0012
586.9627	-0.0047
587.1545	-0.0009
587.3464	0.0015
587.5382	0.0037
587.73	-0.0004
587.9218	0.004
588.1136	-0.0046
588.3053	0.0028
588.4971	-0.007
588.6888	-0.0114
588.8805	-0.004
589.0722	0.001
589.2639	0.0042
589.4556	0.0034
589.6472	-0.005
589.8389	-0.008
590.0305	-0.0081
590.2221	-0.0022
590.4137	-0.009
590.6052	0.0003
590.7968	-0.0009
590.9883	-0.0012
591.1798	-0.0017
591.3713	0.0014
591.5628	0.0088
591.7543	0.0066
591.9458	-0.0016
592.1372	0.0071
592.3286	0.0046
592.52	0.0109
592.7114	-0.0014
592.9028	-0.0059
593.0941	-0.003
593.2855	0.0003
593.4768	-0.0067
593.6681	-0.0088
593.8594	-0.0117
594.0506	0.0023
594.2419	0.0091
594.4331	0.005
594.6244	-0.0057
594.8156	-0.002
595.0067	-0.0041
595.1979	0.0012
595.3891	-0.0008
595.5802	-0.0037
595.7713	-0.0047
595.9624	0.0036
596.1535	0.0021
596.3446	0.0041
596.5357	-0.0026
596.7267	0.0025
596.9177	-0.0004
597.1087	-0.005
597.2997	-0.0069
597.4907	0.0074
597.6817	-0.0026
597.8726	-0.0022
598.0635	-0.0042
598.2544	0.0018
598.4453	0.0035
598.6362	0.0033
598.827	-0.0031
599.0179	0.0097
599.2087	0.0029
599.3995	0.0006
599.5903	0.0022
599.7811	0.0002
599.9718	0.0034
600.1626	-0.0051
600.3533	-0.0035
600.544	0.0011
600.7347	0.0054
600.9254	0.011
601.116	-0.0013
601.3067	0.0016
601.4973	-0.0036
601.6879	0.0038
601.8785	-0.0004
602.0691	0.0103
602.2596	0.0039
602.4502	0.0081
602.6407	0.0059
602.8312	0.0033
603.0217	-0.0036
603.2122	0.0065
603.4027	-0.0009
603.5931	0.0055
603.7835	-0.0011
603.9739	0.0025
604.1643	-0.0011
604.3547	-0.0092
604.5451	0.0059
604.7354	0.0001
604.9257	0.0028
605.116	-0.0008
605.3063	0.0055
605.4966	0.0049
605.6869	0.0075
605.8771	0.003
606.0673	0.0029
606.2575	0.0033
606.4477	0.0059
606.6379	0.0003
606.8281	-0.0032
607.0182	-0.0018
607.2083	0.0085
607.3985	-0.0015
607.5885	0.0022
607.7786	0.0066
607.9687	0.0039
608.1587	0.0053
608.3488	0.0053
608.5388	-0
608.7288	-0.0027
608.9187	-0.0076
609.1087	-0.0025
609.2986	-0.0092
609.4886	-0.0018
609.6785	-0.0029
609.8684	0.0021
610.0582	-0.0005
610.2481	0.0016
610.4379	-0.002
610.6278	-0.0018
610.8176	-0.0086
611.0074	-0.011
611.1971	-0.0038
611.3869	-0.0051
611.5766	-0.0067
611.7664	0.0044
611.9561	0.0032
612.1458	0.0009
612.3354	-0.0031
612.5251	0.0063
612.7147	0.0046
612.9044	0.006
613.094	-0.0065
613.2836	0.002
613.4731	-0.0009
613.6627	-0.0019
613.8522	0.0011
614.0417	0.001
614.2313	-0.0048
614.4207	0.0006
614.6102	-0.0027
614.7997	0.0016
614.9891	-0.0069
615.1785	-0.0005
615.3679	-0.0047
615.5573	0.0049
615.7467	-0.01
615.9361	-0.0077
616.1254	-0.0002
616.3147	-0.0022
616.504	0.0049
616.6933	-0
616.8826	-0.0045
617.0718	0.005
617.2611	0.0058
617.4503	0.0007
617.6395	-0.0036
617.8287	-0.0036
618.0179	-0.011
618.207	0.0096
618.3961	-0.0033
618.5853	-0.0026
618.7744	0.0023
618.9634	0.0025
619.1525	0.0033
619.3416	0.0072
619.5306	0.0068
619.7196	0.0033
619.9086	-0.0019
620.0976	-0.0012
620.2866	-0.0022
620.4755	0.0046
620.6645	0.0011
620.8534	0.0017
621.0423	-0.0027
621.2312	0.0074
621.42	0.0004
621.6089	0.0016
621.7977	0.0066
621.9865	-0.0016
622.1753	0.004
622.3641	-0.0008
622.5529	0.0047
622.7416	0.0034
622.9303	-0.0012
623.1191	0.0043
623.3078	-0.0064
623.4964	-0.0032
623.6851	-0.004
623.8737	-0.0002
624.0624	0.0066
624.251	-0.0025
624.4396	0.0001
624.6282	-0.0038
624.8167	-0.002
625.0053	0.0066
625.1938	0.0076
625.3823	0.0044
625.5708	0.0009
625.7593	0.0029
625.9477	0
626.1362	-0.0051
626.3246	0.0042
626.513	0.0086
626.7014	0.0094
626.8898	-0.0019
627.0781	0.004
627.2665	-0.0029
627.4548	0.0065
627.6431	0.0009
627.8314	0.0018
628.0197	0.0056
628.2079	0.0035
628.3962	-0.0009
628.5844	0.0089
628.7726	0.002
628.9608	0.0083
629.1489	-0.0059
629.3371	0.0018
629.5252	0.0019
629.7134	0.0124
629.9015	-0.0042
630.0895	-0.0002
630.2776	0.0006
630.4657	0.0018
630.6537	0.0061
630.8417	-0.0031
631.0297	0.0014
631.2177	0.0004
631.4057	-0.0128
631.5936	0.0052
631.7815	0.0007
631.9695	0.0066
632.1574	0.0057
632.3452	0.0117
632.5331	0.004
632.7209	0.0017
632.9088	0.0052
633.0966	0.0025
633.2844	-0.0057
633.4722	0.0049
633.6599	0.0119
633.8477	0.0084
634.0354	0.003
634.2231	-0.0032
634.4108	0.0055
634.5985	0.0151
634.7861	-0.0012
634.9738	0.0003
635.1614	0.0021
635.349	-0.0037
635.5366	0.0001
635.7242	-0.0036
635.9117	0.0037
636.0993	0.0005
636.2868	0.01
636.4743	-0.0058
636.6618	0.002
636.8492	0.0025
637.0367	-0.0006
637.2241	-0.0021
637.4115	-0.0064
637.5989	-0.0003
637.7863	-0.0062
637.9737	-0.0032
638.161	0.0037
638.3484	-0.0017
638.5357	0.0034
638.723	0.0014
638.9103	0.0106
639.0975	0.0034
639.2848	0.0095
639.472	0.0032
639.6592	0.0091
639.8464	0.0125
640.0336	0.0124
640.2208	0.0034
640.4079	0.0018
640.595	0.0013
640.7821	0.0039
640.9692	0.0057
641.1563	0.0021
641.3434	0.0007
641.5304	0.0031
641.7174	0.0031
641.9044	0.0061
642.0914	0.0037
642.2784	0.0106
642.4653	0.0084
642.6523	0.0006
642.8392	0.0031
643.0261	0.0025
643.213	0.0058
643.3999	0.0018
643.5867	-0.001
643.7735	0.0019
643.9604	-0.0024
644.1472	0.0038
644.3339	-0.0016
644.5207	0.0034
644.7075	0.0001
644.8942	0.0009
645.0809	0.007
645.2676	0.0137
645.4543	0.0024
645.6409	0.0072
645.8276	0.006
646.0142	0.0123
646.2008	0.0013
646.3874	-0.0027
646.574	-0.001
646.7605	-0.002
646.9471	-0.012
647.1336	0.0019
647.3201	0.0058
647.5066	-0.0073
647.6931	0.003
647.8795	0.0047
648.0659	0.0074
648.2524	0.011
648.4388	-0.0009
648.6252	0.0055
648.8115	0.0034
648.9979	0.0045
649.1842	0.0091
649.3705	0.002
649.5568	0.0017
649.7431	0.0088
649.9294	-0.0038
650.1156	0.0066
650.3018	0.0033
650.488	0.0051
650.6742	0.0062
650.8604	0.0016
651.0466	-0.0017
651.2327	0.0032
651.4188	0.0001
651.6049	0.0037
651.791	0.0018
651.9771	0.0083
652.1632	0.0042
652.3492	0.0074
652.5352	0.0021
652.7212	0.0059
652.9072	0.006
653.0932	-0.0012
653.2791	-0.0036
653.465	0.009
653.651	-0.0097
653.8369	0.001
654.0227	0.0009
654.2086	0.0073
654.3944	0.0009
654.5803	0.0056
654.7661	-0.0027
654.9519	0.0025
655.1377	0.0015
655.3234	-0.0012
655.5092	-0.0033
655.6949	-0.001
655.8806	-0.0076
656.0663	-0.0039
656.2519	-0.0033
656.4376	0.003
656.6232	0.0047
656.8088	0.0023
656.9945	0.0012
657.18	0.0003
657.3656	0.0013
657.5511	0.0029
657.7367	-0.0008
657.9222	0.0068
658.1077	0.001
658.2932	0.0084
658.4786	-0.0036
658.6641	-0.003
658.8495	0.001
659.0349	-0.0042
659.2203	0.01
659.4057	0.007
659.591	0.0042
659.7764	0.0011
659.9617	0.0044
660.147	0.0076
660.3323	0.0088
660.5176	0.014
660.7028	0.0055
660.888	0.0041
661.0733	0.0052
661.2585	-0.0034
661.4436	0.0011
661.6288	0.0045
661.8139	0.0068
661.9991	0.0084
662.1842	0.0011
662.3693	0.0068
662.5544	-0.0001
662.7394	0.0056
662.9245	-0.0012
663.1095	0.0001
663.2945	0.0034
663.4795	-0.0009
663.6644	-0.0024
663.8494	0.0001
664.0343	-0.0002
664.2193	-0.009
664.4042	0.0046
664.589	-0.0101
664.7739	-0.0034
664.9587	-0.0064
665.1436	0.0003
665.3284	0.0016
665.5132	-0.0002
665.698	-0.003
665.8827	0.0067
666.0675	-0.0029
666.2522	-0.0081
666.4369	0.002
666.6216	0.0049
666.8063	0.0078
666.9909	0.0047
667.1756	0.0018
667.3602	0.0015
667.5448	-0.0029
667.7294	0.0132
667.9139	0.0014
668.0985	0.0115
668.283	0.0019
668.4675	0.0014
668.652	-0.0012
668.8365	0.0007
669.0209	0.0068
669.2054	0.0152
669.3898	-0.0013
669.5742	0.0007
669.7586	0.0078
669.943	0.0155
670.1273	0.0097
670.3117	0.0068
670.496	0.0047
670.6803	0.0062
670.8646	0.0054
671.0488	0.0027
671.2331	0.0122
671.4173	0.0027
671.6015	-0.0045
671.7857	0.0095
671.9699	0.0081
672.1541	0.0098
672.3382	0.0113
672.5223	0.0122
672.7064	0.0056
672.8905	0.0156
673.0746	0.0072
673.2587	-0.0029
673.4427	0.0111
673.6267	0.0027
673.8107	0.01
673.9947	0.0061
674.1787	0.0021
674.3626	-0.0074
674.5465	0.0075
674.7304	0.0055
674.9143	0.0028
675.0982	0.0115
675.2821	-0.0027
675.4659	0.0088
675.6497	0.0062
675.8335	0.0093
676.0173	-0.0006
676.2011	-0.0018
676.3849	0.0046
676.5686	-0.0027
676.7523	0.0023
676.936	-0.0049
677.1197	-0.0039
677.3034	-0.005
677.487	0.007
677.6706	0.0013
677.8542	0.0044
678.0378	0.0031
678.2214	0.0037
678.405	0.0069
678.5885	-0.0055
678.772	0.0025
678.9555	0.0054
679.139	0.0037
679.3225	0.0045
679.5059	0.0067
679.6894	-0.0003
679.8728	0.0003
680.0562	-0.0047
680.2395	-0.0035
680.4229	-0.0054
680.6062	0.0008
680.7896	0.0056
680.9729	-0.0002
681.1562	0.0035
681.3394	0.0005
681.5227	-0.0026
681.7059	0.0028
681.8891	-0.0021
682.0723	0.0085
682.2555	0.0008
682.4387	0.0034
682.6218	0.001
682.805	0.0036
682.9881	0.0051
683.1712	-0.0013
683.3542	0.0019
683.5373	0.0096
683.7203	-0.0048
683.9034	0.0056
684.0864	-0.0063
684.2694	0.0052
684.4523	0.0108
684.6353	0.0036
684.8182	0.0103
685.0011	0.0036
685.184	0.0042
685.3669	0.0092
685.5498	0.0132
685.7326	0.0052
685.9154	-0.0038
686.0982	0.0121
686.281	0.0079
686.4638	0.0095
686.6465	0.0042
686.8293	0.0031
687.012	0.0083
687.1947	-0.0063
687.3774	0.0047
687.56	0.0026
687.7427	0.0046
687.9253	-0.0052
688.1079	-0.0019
688.2905	0.0051
688.4731	-0.0025
688.6556	-0.0084
688.8382	0.003
689.0207	0.0048
689.2032	-0.0057
689.3857	-0.0052
689.5681	-0.0045
689.7506	-0.002
689.933	-0.0022
690.1154	0.0019
690.2978	0.0019
690.4802	0.003
690.6626	-0.0062
690.8449	-0.0018
691.0272	0.006
691.2095	-0.0036
691.3918	-0.0043
691.5741	-0.0014
691.7563	-0.0051
691.9386	-0.0027
692.1208	-0.0047
692.303	-0.0028
692.4852	-0.0049
692.6673	0.0006
692.8495	-0.003
693.0316	-0.0031
693.2137	0.0016
693.3958	-0.0012
693.5778	0.0037
693.7599	0.0066
693.9419	-0.001
694.1239	0.0012
694.3059	0.0007
694.4879	0.0082
694.6699	0.0072
694.8518	-0.002
695.0337	-0.0001
695.2157	0.0051
695.3975	0.0024
695.5794	0.0021
695.7613	0.0038
695.9431	-0.004
696.1249	0.0072
696.3067	0.0008
696.4885	-0.0018
696.6703	-0.0069
696.852	0.0075
697.0337	0.0022
697.2154	0.0052
697.3971	0.0057
697.5788	0.0097
697.7605	-0.0016
697.9421	0.0048
698.1237	0.0016
698.3053	0.0019
698.4869	-0
698.6685	-0.0039
698.85	-0.0022
699.0315	0.0066
699.213	0.0003
699.3945	0.006
699.576	0.0033
699.7575	0.0054
699.9389	0.0074
700.1203	-0.0072
700.3017	-0.0098
700.4831	-0.0086
700.6645	-0.0043
700.8458	0.0042
701.0271	-0.0085
701.2084	0.0018
701.3897	-0.0021
701.571	0.0032
701.7523	-0.0072
701.9335	0.0007
702.1147	-0.0029
702.2959	-0.0008
702.4771	0.0057
702.6583	0.007
702.8394	-0.006
703.0205	0.0003
703.2016	-0.0029
703.3827	0.0006
703.5638	0.0123
703.7449	0.0016
703.9259	0.0118
704.1069	-0.0013
704.2879	0.0071
704.4689	0.003
704.6499	0.0004
704.8308	0.004
705.0117	0.0045
705.1927	0.0011
705.3735	-0.007
705.5544	-0.007
705.7353	-0.0008
705.9161	-0.0024
706.0969	0.0002
706.2777	0.0011
706.4585	-0.0025
706.6393	0.0038
706.82	-0.0008
707.0007	0.0037
707.1815	0.0086
707.3621	0.0076
707.5428	0.0012
707.7235	0.0016
707.9041	0.006
708.0847	-0.0011
708.2653	-0.0017
708.4459	-0.0104
708.6265	-0.0005
708.807	-0.0031
708.9875	-0.0033
709.168	-0.0046
709.3485	-0.0066
709.529	-0.0036
709.7095	-0.0062
709.8899	-0.0019
710.0703	-0.0093
710.2507	-0.0038
710.4311	-0.0006
710.6115	-0.0084
710.7918	-0.008
710.9721	0.0009
711.1524	-0.0043
711.3327	0.0054
711.513	0.0055
711.6932	-0.0023
711.8735	0.0049
712.0537	0.0073
712.2339	0.0037
712.4141	-0.0066
712.5942	-0.0026
712.7744	0.0055
712.9545	-0.0037
713.1346	-0.003
713.3147	-0.0003
713.4947	-0.0023
713.6748	0.0014
713.8548	0.003
714.0348	-0.0017
714.2148	-0.0032
714.3948	0.013
714.5748	0.0051
714.7547	0.0014
714.9346	0.0122
715.1145	0.0007
715.2944	-0.0003
715.4743	0.0077
715.6541	0.0041
715.834	0.0046
716.0138	-0.0038
716.1936	-0.0032
716.3733	-0.004
716.5531	0.0069
716.7328	-0.0058
716.9126	-0.0077
717.0923	0.0103
717.2719	0.0038
717.4516	0.0003
717.6312	0.0059
717.8109	-0.0063
717.9905	0.0067
718.1701	-0.0035
718.3496	-0.0058
718.5292	0.0057
718.7087	0.0006
718.8882	-0.0016
719.0677	0.0071
719.2472	0.005
719.4267	0.0003
719.6061	0.0017
719.7856	0.008
719.965	0.0096
720.1443	0.0013
720.3237	0.0137
720.5031	0.0008
720.6824	0.0166
720.8617	0.0045
721.041	0.0014
721.2203	0.0067
721.3995	0.004
721.5788	0.0099
721.758	0.0078
721.9372	0.0041
722.1164	0.0111
722.2956	0.0052
722.4747	0.0054
722.6538	-0.0008
722.8329	0.0098
723.012	-0.0002
723.1911	-0.004
723.3702	0.001
723.5492	-0.0019
723.7282	-0.0052
723.9072	-0.0034
724.0862	-0.0069
724.2652	-0.0064
724.4441	-0.0019
724.623	0.0005
724.8019	-0.0052
724.9808	0.0033
725.1597	0.0024
725.3385	0.0029
725.5174	-0.0007
725.6962	0.0123
725.875	0.0029
726.0538	0.0049
726.2325	0.0055
726.4112	0.0011
726.59	0.0001
726.7687	0.0061
726.9474	0.0015
727.126	-0.0001
727.3047	-0.0053
727.4833	-0.0001
727.6619	-0.0029
727.8405	-0.007
728.0191	0.0023
728.1976	0.0055
728.3762	-0.0048
728.5547	-0.0039
728.7332	-0.0135
728.9116	-0.0018
729.0901	0.012
729.2686	0.0049
729.447	-0.0065
729.6254	0.002
729.8038	0.0011
729.9821	-0.0076
730.1605	0.002
730.3388	0.0003
730.5171	-0.0072
730.6954	-0.0045
730.8737	0.0051
731.0519	0.0065
731.2302	0.0091
731.4084	-0.0024
731.5866	0.0056
731.7648	-0.0009
731.9429	0.0029
732.1211	-0.006
732.2992	0.0017
732.4773	0.0031
732.6554	-0.0043
732.8335	0.0099
733.0115	0.0112
733.1896	0.0062
733.3676	-0.0165
733.5456	-0.0017
733.7235	0.0095
733.9015	0.0097
734.0794	0.0094
734.2574	-0.0064
734.4353	0.0055
734.6131	0.0054
734.791	0.0001
734.9689	-0.0046
735.1467	0.0095
735.3245	-0.006
735.5023	-0.0099
735.68	-0.0026
735.8578	0.0015
736.0355	-0.0156
736.2132	-0.0084
736.3909	0.0013
736.5686	0.0004
736.7463	0.0013
736.9239	-0.0124
737.1015	-0.0105
737.2791	0.0049
737.4567	-0.0005
737.6343	-0.0049
737.8118	0
737.9894	0.0039
738.1669	-0.0065
738.3444	-0.0031
738.5218	-0.0021
738.6993	0.0031
738.8767	0.0025
739.0541	0.0101
739.2315	-0.0142
739.4089	0.0049
739.5863	0.003
739.7636	-0.0043
739.9409	-0.0018
740.1182	-0.0018
740.2955	0.0112
740.4728	-0.005
740.65	-0.004
740.8272	0.0026
741.0044	-0.0156
741.1816	-0.0014
741.3588	-0.0051
741.5359	-0.0036
741.7131	-0.0138
741.8902	-0.0018
742.0673	-0.0041
742.2444	0.0042
742.4214	-0.0096
742.5985	0.0031
742.7755	-0.0005
742.9525	-0.0098
743.1295	0.0084
743.3064	0.0042
743.4834	0.0038
743.6603	0.0009
743.8372	-0.0015
744.0141	0.0077
744.191	0.0001
744.3678	-0.0052
744.5446	0.0019
744.7215	0.0039
744.8982	-0.0055
745.075	-0.0053
745.2518	0.0077
745.4285	-0.0029
745.6052	-0.004
745.7819	-0.0047
745.9586	-0.0114
746.1353	0.0006
746.3119	-0.0042
746.4885	-0.011
746.6651	-0.0067
746.8417	-0.0057
747.0183	-0.0046
747.1948	-0.0008
747.3714	-0.0029
747.5479	-0.0022
747.7244	-0.0069
747.9008	0.0147
748.0773	0.0044
748.2537	0.0074
748.4301	-0.0068
748.6065	0.0046
748.7829	-0.0021
748.9593	-0.0042
749.1356	-0.0038
749.3119	0.0082
749.4882	0.0011
749.6645	0.0093
749.8408	-0.0053
750.017	0.0002
750.1933	-0.0087
750.3695	-0.0051
750.5457	0.0052
750.7218	-0.0025
750.898	0.0009
751.0741	-0.0076
751.2502	-0.0068
751.4263	-0.0022
751.6024	-0.004
751.7784	-0.0064
751.9545	-0.0045
752.1305	-0.0048
752.3065	-0.005
752.4825	0.0034
752.6584	-0.013
752.8344	-0.0023
753.0103	-0.0081
753.1862	-0.0095
753.3621	0.004
753.5379	-0.0128
753.7138	-0.0074
753.8896	-0.0006
754.0654	-0.0001
754.2412	0.0052
754.417	0.0019
754.5927	-0.0034
754.7685	-0.0047
754.9442	-0.0073
755.1199	0.0019
755.2956	-0.0038
755.4712	0.0041
755.6469	0.0026
755.8225	-0.0086
755.9981	-0.0104
756.1736	0.0001
756.3492	-0.0056
756.5248	-0.0038
756.7003	0.0026
756.8758	-0.0029
757.0513	-0.015
757.2267	-0.0147
757.4022	0.0019
757.5776	-0.0138
757.753	0.001
757.9284	-0.0019
758.1038	0.0045
758.2791	0.0085
758.4545	-0.0106
758.6298	0.0031
758.8051	0.0064
758.9803	0.0005
759.1556	-0.0028
759.3308	-0.001
759.506	0.007
759.6812	0.0053
759.8564	0.0135
760.0316	0.0129
760.2067	0.0099
760.3819	0.0092
760.557	0.0159
760.732	-0.0027
760.9071	-0.0148
761.0821	0.0042
761.2572	0.0049
761.4322	-0.0044
761.6072	0.0051
761.7821	-0.0069
761.9571	0.0056
762.132	-0.0085
762.3069	-0.0112
762.4818	-0.0039
762.6567	0.0026
762.8316	-0.0061
763.0064	-0.0108
763.1812	-0.0057
763.356	-0.0095
763.5308	-0.0065
763.7055	-0.0034
763.8803	-0.0067
764.055	-0.0184
764.2297	-0.0004
764.4044	-0.0077
764.579	-0.0002
764.7537	-0.0083
764.9283	-0.003
765.1029	-0.0104
765.2775	-0.0008
765.4521	-0.0158
765.6266	-0.0085
765.8011	-0.0016
765.9756	-0.0021
766.1501	0.0044
766.3246	-0.002
766.4991	-0.0057
766.6735	-0.0027
766.8479	-0.0119
767.0223	0.0093
767.1967	0.0054
767.371	0.006
767.5454	-0.0014
767.7197	0.0052
767.894	-0.0081
768.0683	-0.0068
768.2425	-0.0048
768.4168	-0.0019
768.591	-0.0017
768.7652	-0.0047
768.9394	-0.0073
769.1135	-0.0081
769.2877	-0.0028
769.4618	0.0025
769.6359	-0.0001
769.81	-0.0006
769.984	0.0069
770.1581	-0.0116
770.3321	-0.0023
770.5061	0.0029
770.6801	-0.0029
770.8541	0.0107
771.028	0.0063
771.202	-0.0173
771.3759	0.0039
771.5498	-0.0115
771.7236	-0.0024
771.8975	-0.0025
772.0713	0.0016
772.2451	0.0113
772.4189	0.0032
772.5927	0.0228
772.7665	0.0138
772.9402	0.0028
773.1139	0.0004
773.2876	0.0013
773.4613	-0.003
773.635	0.0111
773.8086	-0.0032
773.9822	0.0063
774.1558	-0.0015
774.3294	-0.01
774.503	0.0091
774.6765	0.0008
774.8501	0.0057
775.0236	0.0034
775.1971	0.0101
775.3705	-0.0117
775.544	0.0023
775.7174	-0.0116
775.8908	-0.0035
776.0642	-0.0006
776.2376	-0.0039
776.4109	-0.0049
776.5843	-0.0095
776.7576	-0.0111
776.9309	0.0062
777.1041	-0.0014
777.2774	0.0091
777.4506	0.0071
777.6238	-0.0111
777.797	-0.0109
777.9702	-0.0058
778.1434	0.005
778.3165	-0.0068
778.4896	-0.0079
778.6627	0.0179
778.8358	-0.0048
779.0089	0.0001
779.1819	-0.0005
779.3549	0.0164
779.5279	0.0085
779.7009	0.0089
779.8739	0.0016
780.0468	0.0012
780.2197	0.0159
780.3926	0.0069
780.5655	-0.0031
780.7384	-0.0033
780.9112	0.0068
781.0841	-0.0081
781.2569	-0.0045
781.4297	0.0126
781.6024	0.0073
781.7752	0.0076
781.9479	-0.0023
782.1206	0.0029
782.2933	-0.0092
782.466	0.0015
782.6386	0.009
782.8113	0.0021
782.9839	0.0115
783.1565	0.012
783.329	0.0024
783.5016	0.0073
783.6741	0.008
783.8466	-0.0097
784.0191	0.0117
784.1916	-0.0107
784.3641	0.0059
784.5365	0.0166
784.7089	0.0002
784.8813	-0.0016
785.0537	0.0046
785.2261	-0.0078
785.3984	-0.0201
785.5707	0.0044
785.743	0.0008
785.9153	-0.0213
786.0876	0.0092
786.2598	-0.0181
786.432	-0.0034
786.6042	-0.0012
786.7764	-0.0031
786.9486	0.0047
787.1207	-0.0094
787.2928	0.0106
787.4649	-0.0072
787.637	-0.0004
787.8091	-0.0129
787.9811	-0.0047
788.1532	-0.0071
788.3252	0.0068
788.4972	0.0012
788.6691	-0.0106
788.8411	-0.0048
789.013	-0.0087
789.1849	0.0062
789.3568	-0.0067
789.5287	-0.0048
789.7005	-0.0108
789.8723	0.0008
790.0442	0.0064
790.2159	0.0011
790.3877	-0.0057
790.5595	-0.0192
790.7312	0.0099
790.9029	0.0052
791.0746	-0.015
791.2463	-0.013
791.4179	-0.002
791.5896	-0.0108
791.7612	-0.0103
791.9328	0.0078
792.1044	-0.0085
792.2759	-0.02
792.4474	-0.0112
792.619	-0.0102
792.7905	-0.0148
792.9619	-0.019
793.1334	0.0163
793.3048	-0.0076
793.4762	0.0008
793.6476	0.0046
793.819	-0.008
793.9904	0.0164
794.1617	-0.0119
794.333	0.0038
794.5043	-0.0185
794.6756	-0.003
794.8469	0.0022
795.0181	-0.0026
795.1893	-0.0026
795.3605	0.01
795.5317	-0.01
795.7029	-0.0116
795.874	0.0004
796.0452	-0.0143
796.2163	-0.0081
796.3873	0.0138
796.5584	-0.0028
796.7294	-0.0141
796.9005	0.0067
797.0715	0.0021
797.2425	-0.0249
797.4134	-0.0171
797.5844	-0.005
797.7553	-0.0175
797.9262	-0.0051
798.0971	-0.0187
798.2679	-0.0392
798.4388	-0.0144
798.6096	0.001
798.7804	-0.0078
798.9512	-0.0198
799.122	-0.0037
799.2927	-0.012
799.4635	0.0039
799.6342	-0.0281
799.8049	-0.0137
799.9755	-0.017
800.1462	-0.024
800.3168	-0.0099
800.4874	-0.0038
800.658	0.0133
800.8286	0
800.9991	-0.0004
801.1696	0.0028
801.3402	0.0062
801.5106	-0.0144
801.6811	-0.0015
801.8516	-0.0026
802.022	-0.0067
802.1924	-0.0105
802.3628	0.0033
802.5332	0.012
802.7035	0.0038
802.8739	-0.0147
803.0442	-0.0312
803.2145	-0.0041
803.3847	-0.0135
803.555	-0.0248
803.7252	-0.0241
803.8954	-0.0339
804.0656	-0.035
804.2358	-0.022
804.4059	-0.0164
804.5761	-0.0051
804.7462	-0.0234
804.9163	-0.0183
805.0864	-0.0193
805.2564	-0.0206
805.4264	-0.0117
805.5965	-0.0164
805.7665	-0.0124
805.9364	0.0027
806.1064	0.0125
806.2763	-0.0032
806.4462	0.0092
806.6161	-0.0208
806.786	0.0097
806.9559	-0.0069
807.1257	-0.0096
807.2955	0.0059
807.4653	-0.0167
807.6351	-0.014
807.8048	0.0019
807.9746	-0.0214
808.1443	-0.0052
808.314	-0.0047
808.4837	-0.007
808.6533	0.0005
808.8229	0.0116
808.9926	0.001
809.1622	-0.0094
809.3317	-0.0284
809.5013	0.0038
809.6708	-0.0269
809.8403	-0.0058
810.0098	-0.0144
810.1793	-0.0146
810.3488	-0.0079
810.5182	-0.0296
810.6876	-0.006
810.857	-0.0266
811.0264	0.0207
811.1958	0.0021
811.3651	-0.0046
811.5344	-0.014
811.7037	-0.0103
811.873	-0.0135
812.0422	-0.0052
812.2115	0.0079
812.3807	-0.0268
812.5499	0.0011
812.7191	-0.0173
812.8882	-0.029
813.0574	-0.0254
813.2265	-0.0046
813.3956	-0.0069
813.5646	-0.0111
813.7337	-0.0184
813.9027	0.0063
814.0718	0.0063
814.2407	0.0009
814.4097	-0.0166
814.5787	-0.0002
814.7476	-0.019
814.9165	-0.0011
815.0854	-0.002
815.2543	-0.0102
815.4232	-0.0059
815.592	0.0038
815.7608	-0.0064
815.9296	0.0141
816.0984	-0.0132
816.2671	-0.0162
816.4359	-0.0145
816.6046	0.0022
816.7733	-0.0234
816.942	-0.0205
817.1106	-0.0035
817.2793	-0.0024
817.4479	-0.0054
817.6165	-0.0111
817.785	0.0138
817.9536	-0.0116
818.1221	-0.0304
818.2906	-0.0215
818.4591	-0.0128
818.6276	0.0114
818.7961	-0.0032
818.9645	-0.0159
819.1329	-0.0066
819.3013	-0.0172
819.4697	0.0189
819.638	-0.0197
819.8064	0.0052
819.9747	-0.0034
820.143	-0.0298
820.3113	-0.0359
820.4795	0.0039
820.6477	-0.0088
820.816	-0.014
820.9842	-0.0308
821.1523	-0.0275
821.3205	-0.0264
821.4886	-0.0138
821.6567	-0.0283
821.8248	0.0109
821.9929	0.0162
822.1609	-0.0074
822.329	0.0062
822.497	-0.0024
822.665	-0.0158
822.833	-0.0118
823.0009	0.0192
823.1688	0.022
823.3367	0.0176
823.5046	0.009
823.6725	0.0227
823.8404	0.002
824.0082	0.0334
824.176	0.006
824.3438	0.0049
824.5116	0.0146
824.6793	0.01
824.847	-0.0276
825.0147	0.007
825.1824	0.0034
825.3501	0.0249
825.5177	-0.0233
825.6854	-0.008
825.853	-0.0057
826.0206	-0.0182
826.1881	-0.0029
826.3557	-0.0349
826.5232	-0.0008
826.6907	-0.0638
826.8582	-0.0115
827.0257	-0.0294
827.1931	-0.0292
827.3605	0.0143
827.528	0.0181
827.6953	-0.0258
827.8627	-0.0124
828.03	0.0114
828.1974	-0.0237
828.3647	-0.0322
828.532	-0.0299
828.6992	-0.0313
828.8665	-0.0149
829.0337	-0.0273
829.2009	0.0216
829.3681	-0.0065
829.5352	0.0081
829.7024	-0.0572
829.8695	-0.0175
830.0366	-0.0004
830.2037	-0.0208
830.3707	0.0162
830.5378	-0.0162
830.7048	0.0023
830.8718	-0.0303
831.0388	-0.0173
831.2057	0.0065
831.3727	0.0214
831.5396	-0.0155
831.7065	-0.0207
831.8734	0.0228
832.0402	-0.0451
832.2071	-0.0335
832.3739	-0.0444
832.5407	-0.0226
832.7075	-0.0176
832.8742	-0.033
833.041	-0.0496
833.2077	-0.0125
833.3744	0.0121
833.541	-0.0262
833.7077	-0.0404
833.8743	-0.0351
834.0409	-0.0119
834.2075	-0.0149
834.3741	-0.0227
834.5407	-0.0112
834.7072	-0.0062
834.8737	-0.0281
835.0402	0.0124
835.2067	0.0121
835.3731	0.0101
835.5395	-0.0266
835.706	-0.0226
835.8723	-0.0216
836.0387	-0.0033
836.2051	0.0022
836.3714	-0.0508
836.5377	-0.0148
836.704	-0.0248
836.8703	-0.0311
837.0365	0.015
837.2027	-0.0375
837.3689	-0.0373
837.5351	-0.0289
837.7013	-0.0412
837.8674	-0.0368
838.0335	-0.0499
838.1997	-0.0267
838.3657	-0.0321
838.5318	-0.0322
838.6978	0.0001
838.8639	0.0054
839.0299	-0.0041
839.1958	-0.025
839.3618	0.0349
839.5277	0.0123
839.6937	-0.0363
839.8596	0.0065
840.0254	0.0205
840.1913	-0.0534
840.3571	-0.0111
840.523	-0.037
840.6888	-0.0054
840.8545	-0.0608
841.0203	-0.0162
841.186	0.0105
841.3517	-0.0351
841.5174	-0.0195
841.6831	-0.0128
841.8488	-0.0286
842.0144	0.0169
842.18	-0.024
842.3456	0.002
842.5112	-0.0869
842.6767	-0.0679
842.8422	-0.0238
843.0077	-0.006
843.1732	-0.0345
843.3387	-0.0336
843.5042	-0.0707
843.6696	-0.007
843.835	0.0013
844.0004	-0.0151
844.1657	-0.0299
844.3311	-0.1182
844.4964	-0.1053
844.6617	-0.0771
844.827	-0.0376
844.9923	0.0106
845.1575	-0.0069
845.3227	-0.0067
845.4879	-0.0065
845.6531	-0.0419
845.8183	-0.0279
845.9834	-0.0299
846.1485	-0.0462
846.3136	-0.0328
846.4787	-0.0982
846.6438	0.063
846.8088	-0.0638
846.9738	-0.0669
847.1388	-0.0578
847.3038	-0.103
847.4687	-0.1996
847.6337	0.0242
847.7986	-0.0011
847.9635	-0.0227
848.1284	-0.0145
848.2932	-0.0044
848.458	0.0159
848.6228	0.0471
848.7876	0.0088
848.9524	-0.0392
849.1172	-0.0924
849.2819	-0.0229
849.4466	-0.094
849.6113	-0.1017
849.7759	-0.0416
849.9406	-0.0438
850.1052	0.0294
850.2698	-0.0498
850.4344	-0.0497
850.599	-0.0436
850.7635	0.0729
850.928	-0.0708
851.0925	-0.0504
851.257	-0.0499
851.4215	-0.0146
851.5859	-0.0532
851.7503	0.0018
851.9147	0.0103
852.0791	-0.047
852.2434	-0.0615
852.4078	0.0294
852.5721	0.1037
852.7364	-0.0657
852.9007	-0.2021
853.0649	-0.0226
853.2291	-0.0894
853.3934	-0.0372
853.5575	-0.0021
853.7217	-0.0492
853.8859	-0.0946
854.05	-0.0351
854.2141	0.019
854.3782	-0.0936
854.5423	-0.0624
854.7063	0.036
854.8703	-0.0185
855.0343	-0.0026
855.1983	-0.1683
855.3623	-0.0201
855.5262	-0.021
855.6901	-0.1454
855.854	-0.0354
856.0179	0.1434
856.1818	0.0498
856.3456	0.0214
856.5094	-0.0817
856.6732	-0.0687
856.837	0.0427
857.0008	0.0119
857.1645	-0.0746
857.3282	-0.2598
857.4919	0.0734
857.6556	-0.0639
857.8192	0.0492
857.9828	0.0033
858.1465	0.0166
858.31	-0.2414
858.4736	-0.2805
858.6372	-0.1237
858.8007	-0.2077
858.9642	-0.0083
859.1277	-0.1672
859.2911	0.1226
859.4546	-0.0299
859.618	-0.4345
859.7814	-0.016
859.9448	0.0764
860.1081	-0.0896
860.2715	0.003
860.4348	-0.0746
860.5981	0.0508
860.7614	0.1845
860.9246	-0.1426
861.0879	-0.3433
861.2511	-0.0517
861.4143	-0.2885
861.5774	0.182
861.7406	-0.2779
861.9037	-0.0725
862.0668	-0.0998
862.2299	-0.1071
862.393	-0.6604
862.556	-0.089
862.7191	-0.0209
862.8821	-0.3269
863.0451	0.079
863.208	0.1485
863.371	-0.1798
863.5339	0.1193
863.6968	0.0761
863.8597	-0.0204
864.0225	0.0448
864.1854	-0.0731
864.3482	0.0398
864.511	0.139
864.6737	0.3893
864.8365	-0.0415
864.9992	-0.3216
865.1619	-0.4813
865.3246	-0.1539
865.4873	0.0477
865.65	-0.4136
865.8126	-0.0142
865.9752	-0.1088
866.1378	-0.2125
866.3004	-0.0626
866.4629	0.8998
866.6254	-0.2485
866.7879	-0.1581
866.9504	-0
867.1129	-0
867.2753	-0.0757
867.4377	0.0756
867.6001	-0.5344
867.7625	0.086
867.9249	-0.264
868.0872	-0.1321
868.2495	0.0258
868.4118	-0.2405
868.5741	-0.4946
868.7363	-0.5219
868.8986	-0.0195
869.0608	-0.1256
869.223	0.0213
869.3851	-0
869.5473	-0.108
869.7094	0.0111
869.8715	-0
870.0336	-0
870.1957	-0.6918
870.3577	-0
870.5197	-0.1861
870.6817	-0.4378
870.8437	-0.0945
871.0057	-0
871.1676	-0.5243
871.3295	0.2179
871.4914	-0
871.6533	-0.4087
871.8151	-0.4446
871.977	-0
872.1388	-0
872.3006	-0
872.4623	-0
872.6241	0.1649
872.7858	-0.0489
872.9475	0.1228
873.1092	-0.1784
873.2709	1.2825
873.4325	0.2239
873.5941	-0.6053
873.7557	-0.0865
873.9173	-0.3613
874.0789	-0.4836
874.2404	-0
874.4019	-0
874.5634	-0.3177
874.7249	-0.1188
874.8863	0.6898
875.0478	-0
875.2092	-0
875.3706	0.1399
875.5319	-0.5878
875.6933	-0
875.8546	-0
876.0159	0.6953
876.1772	0.7609
876.3385	-0
876.4997	0.1802
876.6609	-0.2517
876.8221	-0
876.9833	0.4082
877.1445	-0
877.3056	0.0255
877.4667	-0.1633
877.6278	0.4061
877.7889	-0.5429
877.9499	-0
878.111	-0.7182
878.272	-0
878.433	-0
878.5939	-0
878.7549	0.5169
878.9158	-0.8183
879.0767	-0
879.2376	0.2456
879.3984	-0
879.5593	-0
879.7201	0.1781
879.8809	-0.8441
880.0417	-0.3632
880.2024	-0.2532
880.3632	-0
880.5239	0.2488
880.6846	0.3295
880.8452	-2.5977
881.0059	-0
881.1665	0.6
881.3271	-0
881.4877	-0.0342
881.6483	-0.412
881.8088	-0.6188
881.9693	-0
882.1298	-0
882.2903	-0
