Data from MonoPyChalIsomerACN10uM420nmA_Absorbance_15-09-58-334.txt Node
Date: Fri Jul 05 15:09:58 BST 2024
User: LASERRRRR
Spectrometer: FLMT03099
Trigger mode: 0
Integration Time (sec): 1.000000E-1
Scans to average: 1
Electric dark correction enabled: true
Nonlinearity correction enabled: false
Boxcar width: 0
XAxis mode: Wavelengths
Number of Pixels in Spectrum: 3648
>>>>>Begin Spectral Data<<<<<
179.3399	-0.3456
179.5586	-0.3456
179.7771	-0.3456
179.9957	0.5086
180.2143	-0
180.4329	-0.4301
180.6514	0.116
180.8699	0.8474
181.0885	-0.1613
181.307	0.0029
181.5255	-0
181.744	-0
181.9625	-0
182.181	-0.7697
182.3994	0.0561
182.6179	0.0774
182.8363	-0.1263
183.0547	-0.166
183.2732	-0.0689
183.4916	0.1484
183.71	0.03
183.9284	0.4855
184.1467	0.1424
184.3651	0.0317
184.5835	0.0448
184.8018	-0.0307
185.0201	0.0884
185.2385	0.0231
185.4568	-0.0914
185.6751	-0.0521
185.8934	0.1305
186.1117	0.0978
186.3299	0.095
186.5482	-0.0568
186.7664	-0.1292
186.9847	-0.0417
187.2029	-0.0362
187.4211	-0.0018
187.6393	0.0838
187.8575	-0.1346
188.0757	0.2046
188.2939	0.1281
188.512	0.6282
188.7302	-0.073
188.9483	-0.0222
189.1665	0.195
189.3846	0.6443
189.6027	0.0374
189.8208	0.216
190.0389	0.0742
190.257	0.2855
190.475	0.2902
190.6931	0.3661
190.9111	0.2484
191.1292	0.1627
191.3472	0.3023
191.5652	0.2161
191.7832	0.2871
192.0012	0.3337
192.2192	0.3056
192.4371	0.5014
192.6551	0.4607
192.873	0.3775
193.091	0.4805
193.3089	0.6199
193.5268	0.5279
193.7447	0.6035
193.9626	0.4503
194.1805	0.5785
194.3984	0.7169
194.6162	0.4956
194.8341	0.5478
195.0519	0.4715
195.2697	1.0582
195.4875	0.3814
195.7054	0.5765
195.9231	0.5911
196.1409	0.5819
196.3587	0.5519
196.5765	0.5178
196.7942	0.5574
197.012	0.6485
197.2297	0.5521
197.4474	0.6872
197.6651	0.5491
197.8828	0.5857
198.1005	0.7473
198.3182	0.7995
198.5358	0.674
198.7535	0.6295
198.9711	0.475
199.1888	0.5799
199.4064	0.7567
199.624	0.5894
199.8416	0.6387
200.0592	0.636
200.2767	0.6296
200.4943	0.6928
200.7119	0.6252
200.9294	0.7498
201.1469	0.5241
201.3645	0.5083
201.582	0.5941
201.7995	0.656
202.017	0.6604
202.2344	0.5847
202.4519	0.6061
202.6694	0.9044
202.8868	0.6175
203.1042	0.6576
203.3217	0.6707
203.5391	0.606
203.7565	0.6356
203.9739	0.7297
204.1913	0.5611
204.4086	0.7367
204.626	0.7172
204.8433	0.6878
205.0607	0.5827
205.278	0.6847
205.4953	0.6007
205.7126	0.7303
205.9299	0.7525
206.1472	0.6806
206.3644	0.571
206.5817	0.6768
206.7989	0.7309
207.0162	0.6315
207.2334	0.6192
207.4506	0.6014
207.6678	0.6568
207.885	0.6258
208.1022	0.6082
208.3194	0.6956
208.5365	0.6406
208.7537	0.689
208.9708	0.635
209.1879	0.6736
209.405	0.6396
209.6222	0.7595
209.8392	0.6004
210.0563	0.5878
210.2734	0.6554
210.4905	0.5769
210.7075	0.6374
210.9245	0.6073
211.1416	0.6613
211.3586	0.6246
211.5756	0.59
211.7926	0.6312
212.0096	0.5732
212.2265	0.5466
212.4435	0.6546
212.6604	0.5398
212.8774	0.5921
213.0943	0.6169
213.3112	0.565
213.5281	0.522
213.745	0.4869
213.9619	0.5604
214.1788	0.4774
214.3956	0.4755
214.6125	0.4878
214.8293	0.4525
215.0461	0.492
215.2629	0.471
215.4798	0.4899
215.6965	0.3907
215.9133	0.4656
216.1301	0.4237
216.3469	0.4323
216.5636	0.448
216.7803	0.3883
216.9971	0.3925
217.2138	0.3643
217.4305	0.3909
217.6472	0.364
217.8639	0.3584
218.0805	0.3546
218.2972	0.3149
218.5138	0.3192
218.7305	0.3299
218.9471	0.311
219.1637	0.2994
219.3803	0.264
219.5969	0.2672
219.8135	0.2637
220.0301	0.249
220.2466	0.2945
220.4632	0.2512
220.6797	0.2407
220.8962	0.2483
221.1127	0.2573
221.3292	0.2264
221.5457	0.2278
221.7622	0.216
221.9787	0.2404
222.1951	0.2193
222.4116	0.2554
222.628	0.2618
222.8444	0.2404
223.0608	0.2238
223.2772	0.2334
223.4936	0.2627
223.71	0.2382
223.9264	0.2773
224.1427	0.2585
224.3591	0.2425
224.5754	0.2583
224.7917	0.2593
225.008	0.2656
225.2243	0.2628
225.4406	0.2872
225.6569	0.2516
225.8732	0.2592
226.0894	0.2658
226.3057	0.2655
226.5219	0.2732
226.7381	0.2707
226.9543	0.2725
227.1705	0.2589
227.3867	0.2633
227.6029	0.2775
227.8191	0.2832
228.0352	0.3163
228.2513	0.311
228.4675	0.3048
228.6836	0.2985
228.8997	0.2873
229.1158	0.2974
229.3319	0.2969
229.548	0.3147
229.764	0.3049
229.9801	0.317
230.1961	0.3276
230.4121	0.3418
230.6282	0.3219
230.8442	0.3212
231.0602	0.3578
231.2761	0.3439
231.4921	0.341
231.7081	0.3416
231.924	0.348
232.14	0.3557
232.3559	0.3397
232.5718	0.3657
232.7877	0.3524
233.0036	0.3339
233.2195	0.3633
233.4353	0.3496
233.6512	0.3666
233.867	0.3541
234.0829	0.3579
234.2987	0.3581
234.5145	0.3736
234.7303	0.3604
234.9461	0.3691
235.1619	0.3582
235.3776	0.3757
235.5934	0.3834
235.8091	0.3606
236.0249	0.3562
236.2406	0.393
236.4563	0.3618
236.672	0.3896
236.8877	0.3774
237.1034	0.3788
237.319	0.3664
237.5347	0.402
237.7503	0.3985
237.966	0.406
238.1816	0.3963
238.3972	0.376
238.6128	0.399
238.8284	0.418
239.0439	0.4013
239.2595	0.3941
239.475	0.4202
239.6906	0.4169
239.9061	0.4122
240.1216	0.3996
240.3371	0.424
240.5526	0.4045
240.7681	0.4267
240.9836	0.4033
241.199	0.4078
241.4145	0.3935
241.6299	0.3937
241.8453	0.3827
242.0607	0.4042
242.2761	0.3856
242.4915	0.4
242.7069	0.3928
242.9223	0.3791
243.1376	0.3703
243.353	0.365
243.5683	0.3841
243.7836	0.3585
243.9989	0.3652
244.2142	0.3436
244.4295	0.3447
244.6448	0.3481
244.86	0.3242
245.0753	0.3179
245.2905	0.3106
245.5057	0.2999
245.721	0.3004
245.9362	0.2873
246.1514	0.2948
246.3665	0.2859
246.5817	0.2831
246.7969	0.2811
247.012	0.2755
247.2271	0.2702
247.4423	0.265
247.6574	0.2732
247.8725	0.2582
248.0876	0.246
248.3026	0.2447
248.5177	0.2482
248.7328	0.245
248.9478	0.2404
249.1628	0.2411
249.3779	0.2406
249.5929	0.2182
249.8079	0.2366
250.0228	0.2163
250.2378	0.222
250.4528	0.2136
250.6677	0.2101
250.8827	0.2142
251.0976	0.2011
251.3125	0.214
251.5274	0.1894
251.7423	0.2009
251.9572	0.193
252.172	0.1957
252.3869	0.1874
252.6017	0.2013
252.8166	0.1819
253.0314	0.189
253.2462	0.1699
253.461	0.1922
253.6758	0.1791
253.8906	0.1928
254.1053	0.182
254.3201	0.1746
254.5348	0.1868
254.7496	0.1874
254.9643	0.1827
255.179	0.1887
255.3937	0.1786
255.6083	0.1768
255.823	0.1658
256.0377	0.1625
256.2523	0.1734
256.467	0.1638
256.6816	0.1838
256.8962	0.1668
257.1108	0.1703
257.3254	0.1791
257.54	0.1601
257.7545	0.1661
257.9691	0.176
258.1836	0.1715
258.3981	0.1666
258.6127	0.1742
258.8272	0.1789
259.0417	0.1757
259.2561	0.1649
259.4706	0.1586
259.6851	0.1658
259.8995	0.1739
260.114	0.1705
260.3284	0.1865
260.5428	0.167
260.7572	0.1695
260.9716	0.1713
261.186	0.1604
261.4003	0.175
261.6147	0.1753
261.829	0.1746
262.0433	0.1764
262.2577	0.1677
262.472	0.1828
262.6863	0.1753
262.9005	0.1727
263.1148	0.1801
263.3291	0.1539
263.5433	0.1811
263.7576	0.1724
263.9718	0.1656
264.186	0.1647
264.4002	0.1661
264.6144	0.1801
264.8286	0.1788
265.0427	0.1596
265.2569	0.1736
265.471	0.166
265.6851	0.1596
265.8993	0.1605
266.1134	0.1669
266.3275	0.1699
266.5415	0.1629
266.7556	0.1751
266.9697	0.1786
267.1837	0.1805
267.3978	0.181
267.6118	0.181
267.8258	0.1915
268.0398	0.1718
268.2538	0.1855
268.4677	0.1817
268.6817	0.1686
268.8957	0.1759
269.1096	0.1774
269.3235	0.1904
269.5374	0.1788
269.7514	0.1744
269.9652	0.1709
270.1791	0.164
270.393	0.1683
270.6068	0.1698
270.8207	0.1755
271.0345	0.1629
271.2483	0.1751
271.4622	0.1748
271.676	0.1778
271.8897	0.1696
272.1035	0.1654
272.3173	0.1784
272.531	0.1814
272.7448	0.1742
272.9585	0.1663
273.1722	0.1711
273.3859	0.1811
273.5996	0.1654
273.8133	0.1735
274.0269	0.1711
274.2406	0.152
274.4542	0.171
274.6679	0.1647
274.8815	0.1754
275.0951	0.1749
275.3087	0.189
275.5223	0.1824
275.7358	0.1751
275.9494	0.1856
276.1629	0.1712
276.3765	0.1721
276.59	0.1823
276.8035	0.156
277.017	0.1736
277.2305	0.1661
277.444	0.1797
277.6574	0.1749
277.8709	0.1829
278.0843	0.1749
278.2978	0.1843
278.5112	0.1729
278.7246	0.1667
278.938	0.1795
279.1513	0.1721
279.3647	0.1921
279.5781	0.1805
279.7914	0.1825
280.0047	0.1832
280.2181	0.1837
280.4314	0.1841
280.6447	0.1863
280.8579	0.1764
281.0712	0.1799
281.2845	0.1826
281.4977	0.1889
281.711	0.1716
281.9242	0.1743
282.1374	0.1838
282.3506	0.1697
282.5638	0.1802
282.7769	0.1748
282.9901	0.1804
283.2033	0.1842
283.4164	0.1823
283.6295	0.1714
283.8426	0.1711
284.0557	0.1777
284.2688	0.1752
284.4819	0.1767
284.695	0.1584
284.908	0.1753
285.1211	0.1692
285.3341	0.1659
285.5471	0.1725
285.7601	0.172
285.9731	0.1573
286.1861	0.1543
286.3991	0.1629
286.612	0.1719
286.825	0.1585
287.0379	0.1799
287.2508	0.1633
287.4637	0.1569
287.6766	0.1619
287.8895	0.1698
288.1024	0.1721
288.3152	0.165
288.5281	0.1624
288.7409	0.1596
288.9538	0.1434
289.1666	0.1589
289.3794	0.1526
289.5922	0.1457
289.8049	0.1611
290.0177	0.1631
290.2304	0.1599
290.4432	0.1541
290.6559	0.1621
290.8686	0.1518
291.0813	0.1476
291.294	0.1451
291.5067	0.1512
291.7194	0.1471
291.932	0.1632
292.1447	0.1636
292.3573	0.1447
292.5699	0.1509
292.7825	0.1527
292.9951	0.141
293.2077	0.1488
293.4203	0.1553
293.6328	0.137
293.8454	0.154
294.0579	0.149
294.2704	0.1494
294.4829	0.1378
294.6954	0.1479
294.9079	0.1428
295.1204	0.137
295.3328	0.1418
295.5453	0.1427
295.7577	0.1293
295.9701	0.1369
296.1825	0.1338
296.3949	0.1416
296.6073	0.1451
296.8197	0.1351
297.0321	0.1564
297.2444	0.1363
297.4567	0.139
297.6691	0.1416
297.8814	0.1261
298.0937	0.1433
298.306	0.1527
298.5182	0.1427
298.7305	0.1474
298.9428	0.1369
299.155	0.1498
299.3672	0.1374
299.5794	0.1505
299.7916	0.1374
300.0038	0.1315
300.216	0.1559
300.4282	0.1436
300.6403	0.1207
300.8525	0.1403
301.0646	0.1365
301.2767	0.143
301.4888	0.1487
301.7009	0.1492
301.913	0.1432
302.125	0.1415
302.3371	0.1328
302.5491	0.1423
302.7612	0.1432
302.9732	0.1478
303.1852	0.1513
303.3972	0.1381
303.6092	0.1367
303.8211	0.1344
304.0331	0.1398
304.245	0.1373
304.457	0.1319
304.6689	0.1302
304.8808	0.1504
305.0927	0.1252
305.3046	0.1207
305.5164	0.1463
305.7283	0.1323
305.9401	0.1361
306.152	0.1398
306.3638	0.1446
306.5756	0.1429
306.7874	0.1304
306.9992	0.1279
307.2109	0.1313
307.4227	0.1192
307.6344	0.131
307.8462	0.1295
308.0579	0.1358
308.2696	0.1197
308.4813	0.1191
308.693	0.1342
308.9046	0.127
309.1163	0.1254
309.328	0.1206
309.5396	0.1265
309.7512	0.1213
309.9628	0.116
310.1744	0.1277
310.386	0.1234
310.5976	0.1209
310.8091	0.1211
311.0207	0.1117
311.2322	0.1238
311.4437	0.1081
311.6552	0.1291
311.8667	0.1204
312.0782	0.103
312.2897	0.1133
312.5012	0.1187
312.7126	0.1133
312.924	0.1074
313.1355	0.1246
313.3469	0.1196
313.5583	0.1097
313.7696	0.1171
313.981	0.1215
314.1924	0.1172
314.4037	0.1123
314.6151	0.1234
314.8264	0.108
315.0377	0.1216
315.249	0.1159
315.4603	0.1138
315.6716	0.1131
315.8828	0.105
316.0941	0.114
316.3053	0.1131
316.5165	0.1037
316.7277	0.1113
316.9389	0.1155
317.1501	0.1174
317.3613	0.1201
317.5724	0.1009
317.7836	0.1224
317.9947	0.1174
318.2058	0.1006
318.417	0.1058
318.6281	0.1136
318.8391	0.1184
319.0502	0.1196
319.2613	0.1119
319.4723	0.1234
319.6834	0.1205
319.8944	0.1154
320.1054	0.1168
320.3164	0.1123
320.5274	0.1065
320.7383	0.1257
320.9493	0.1109
321.1602	0.114
321.3712	0.1018
321.5821	0.1209
321.793	0.1223
322.0039	0.1188
322.2148	0.1083
322.4257	0.1157
322.6365	0.1268
322.8474	0.1336
323.0582	0.1183
323.269	0.1264
323.4798	0.1269
323.6906	0.123
323.9014	0.116
324.1122	0.1224
324.3229	0.1246
324.5337	0.116
324.7444	0.1271
324.9551	0.1279
325.1658	0.1336
325.3765	0.1302
325.5872	0.1262
325.7979	0.1242
326.0085	0.1136
326.2192	0.1269
326.4298	0.1204
326.6404	0.1156
326.851	0.1248
327.0616	0.1223
327.2722	0.1293
327.4828	0.1354
327.6933	0.1245
327.9039	0.1238
328.1144	0.1406
328.3249	0.1274
328.5354	0.1159
328.7459	0.1259
328.9564	0.1163
329.1669	0.1263
329.3773	0.1311
329.5878	0.1299
329.7982	0.1249
330.0086	0.1265
330.219	0.1299
330.4294	0.124
330.6398	0.1216
330.8502	0.1192
331.0605	0.1266
331.2708	0.1322
331.4812	0.1245
331.6915	0.1407
331.9018	0.1318
332.1121	0.1331
332.3224	0.1404
332.5326	0.1292
332.7429	0.125
332.9531	0.1372
333.1633	0.1276
333.3735	0.1387
333.5837	0.1288
333.7939	0.1246
334.0041	0.1363
334.2143	0.1461
334.4244	0.129
334.6346	0.1144
334.8447	0.1343
335.0548	0.1213
335.2649	0.1232
335.475	0.1404
335.685	0.1254
335.8951	0.1346
336.1051	0.1322
336.3152	0.1385
336.5252	0.109
336.7352	0.1354
336.9452	0.1299
337.1552	0.1384
337.3652	0.1224
337.5751	0.1239
337.7851	0.1308
337.995	0.1196
338.2049	0.1335
338.4148	0.1391
338.6247	0.1345
338.8346	0.1254
339.0445	0.1202
339.2543	0.1387
339.4642	0.1386
339.674	0.1278
339.8838	0.1382
340.0936	0.1392
340.3034	0.1428
340.5132	0.147
340.7229	0.1385
340.9327	0.1271
341.1424	0.1369
341.3522	0.1425
341.5619	0.1441
341.7716	0.1437
341.9813	0.1434
342.1909	0.1268
342.4006	0.1487
342.6102	0.1532
342.8199	0.1355
343.0295	0.1518
343.2391	0.1526
343.4487	0.157
343.6583	0.1404
343.8679	0.1442
344.0774	0.1423
344.287	0.1537
344.4965	0.1497
344.706	0.1577
344.9155	0.1419
345.125	0.1436
345.3345	0.1542
345.544	0.1407
345.7534	0.1459
345.9629	0.1495
346.1723	0.1498
346.3817	0.1479
346.5911	0.1525
346.8005	0.1423
347.0099	0.1411
347.2193	0.1568
347.4286	0.138
347.638	0.1623
347.8473	0.1513
348.0566	0.154
348.2659	0.1587
348.4752	0.1445
348.6845	0.151
348.8937	0.1534
349.103	0.1494
349.3122	0.1411
349.5214	0.1386
349.7306	0.1537
349.9398	0.1533
350.149	0.1423
350.3582	0.1402
350.5674	0.1786
350.7765	0.1474
350.9856	0.1548
351.1948	0.1573
351.4039	0.1406
351.613	0.14
351.822	0.1546
352.0311	0.1593
352.2402	0.1529
352.4492	0.157
352.6582	0.1472
352.8672	0.1485
353.0762	0.1575
353.2852	0.1452
353.4942	0.156
353.7032	0.1567
353.9121	0.1432
354.1211	0.1487
354.33	0.1584
354.5389	0.1542
354.7478	0.1632
354.9567	0.147
355.1655	0.1403
355.3744	0.1539
355.5833	0.1678
355.7921	0.1727
356.0009	0.1647
356.2097	0.1685
356.4185	0.1696
356.6273	0.1626
356.8361	0.1717
357.0448	0.1572
357.2536	0.1588
357.4623	0.1503
357.671	0.163
357.8797	0.1514
358.0884	0.158
358.2971	0.1625
358.5057	0.1706
358.7144	0.1676
358.923	0.1719
359.1316	0.17
359.3402	0.1754
359.5488	0.1772
359.7574	0.1629
359.966	0.1727
360.1746	0.1677
360.3831	0.1744
360.5916	0.1694
360.8002	0.1602
361.0087	0.1878
361.2172	0.1665
361.4256	0.1782
361.6341	0.1698
361.8426	0.1704
362.051	0.177
362.2594	0.1616
362.4678	0.1696
362.6762	0.2003
362.8846	0.1882
363.093	0.1686
363.3014	0.1821
363.5097	0.1622
363.718	0.1593
363.9264	0.1764
364.1347	0.1747
364.343	0.176
364.5513	0.187
364.7595	0.1841
364.9678	0.1838
365.176	0.1852
365.3842	0.1876
365.5925	0.1766
365.8007	0.1711
366.0089	0.1822
366.217	0.169
366.4252	0.1834
366.6333	0.1956
366.8415	0.1807
367.0496	0.1691
367.2577	0.1789
367.4658	0.1938
367.6739	0.182
367.882	0.1883
368.09	0.1859
368.2981	0.1809
368.5061	0.1713
368.7141	0.1803
368.9221	0.1853
369.1301	0.1822
369.3381	0.1724
369.5461	0.1914
369.754	0.1842
369.962	0.1809
370.1699	0.1814
370.3778	0.1905
370.5857	0.179
370.7936	0.2011
371.0015	0.1889
371.2093	0.1922
371.4172	0.1905
371.625	0.1938
371.8328	0.1669
372.0406	0.1791
372.2484	0.1837
372.4562	0.1862
372.664	0.1835
372.8717	0.1962
373.0795	0.1704
373.2872	0.181
373.4949	0.1786
373.7026	0.1943
373.9103	0.191
374.118	0.1924
374.3256	0.1796
374.5333	0.1856
374.7409	0.1708
374.9485	0.1941
375.1561	0.1874
375.3637	0.1971
375.5713	0.1863
375.7789	0.1944
375.9864	0.201
376.194	0.1809
376.4015	0.192
376.609	0.1878
376.8165	0.1927
377.024	0.1841
377.2315	0.1787
377.4389	0.1846
377.6464	0.2021
377.8538	0.184
378.0612	0.1974
378.2686	0.2079
378.476	0.2053
378.6834	0.1951
378.8908	0.1919
379.0981	0.1936
379.3055	0.1929
379.5128	0.1814
379.7201	0.1881
379.9274	0.1767
380.1347	0.1991
380.342	0.2121
380.5492	0.1911
380.7565	0.1809
380.9637	0.1841
381.1709	0.2023
381.3781	0.1764
381.5853	0.193
381.7925	0.2008
381.9997	0.2058
382.2068	0.187
382.4139	0.1931
382.6211	0.1806
382.8282	0.1853
383.0353	0.1916
383.2424	0.1953
383.4494	0.2057
383.6565	0.1876
383.8635	0.1657
384.0706	0.1839
384.2776	0.2126
384.4846	0.1907
384.6916	0.1768
384.8986	0.1838
385.1055	0.1913
385.3125	0.1854
385.5194	0.182
385.7263	0.1994
385.9333	0.1938
386.1402	0.2012
386.347	0.195
386.5539	0.1884
386.7608	0.192
386.9676	0.1668
387.1744	0.1811
387.3813	0.1841
387.5881	0.1978
387.7948	0.1787
388.0016	0.1725
388.2084	0.1715
388.4151	0.1795
388.6219	0.1931
388.8286	0.1819
389.0353	0.1969
389.242	0.1939
389.4487	0.1884
389.6553	0.187
389.862	0.1635
390.0686	0.1784
390.2753	0.1951
390.4819	0.1849
390.6885	0.1659
390.8951	0.1738
391.1016	0.1631
391.3082	0.1797
391.5147	0.1718
391.7213	0.1643
391.9278	0.1672
392.1343	0.1617
392.3408	0.1619
392.5473	0.17
392.7537	0.1605
392.9602	0.1805
393.1666	0.1679
393.373	0.1673
393.5794	0.1786
393.7858	0.1593
393.9922	0.1606
394.1986	0.1707
394.4049	0.1769
394.6113	0.1437
394.8176	0.1502
395.0239	0.1599
395.2302	0.1624
395.4365	0.1693
395.6428	0.1576
395.8491	0.1543
396.0553	0.1544
396.2615	0.1604
396.4678	0.1586
396.674	0.1491
396.8802	0.1514
397.0863	0.1595
397.2925	0.1547
397.4987	0.1489
397.7048	0.1402
397.9109	0.1566
398.117	0.1471
398.3231	0.1634
398.5292	0.1537
398.7353	0.1518
398.9413	0.1391
399.1474	0.1558
399.3534	0.1559
399.5594	0.1224
399.7654	0.1622
399.9714	0.1549
400.1774	0.1411
400.3833	0.1497
400.5893	0.153
400.7952	0.1494
401.0011	0.152
401.207	0.1619
401.4129	0.1427
401.6188	0.153
401.8247	0.1507
402.0305	0.1402
402.2364	0.1319
402.4422	0.1472
402.648	0.1569
402.8538	0.1554
403.0596	0.1342
403.2654	0.1499
403.4711	0.1377
403.6768	0.161
403.8826	0.1521
404.0883	0.137
404.294	0.1652
404.4997	0.1498
404.7054	0.146
404.911	0.1293
405.1167	0.1313
405.3223	0.1533
405.5279	0.1535
405.7335	0.1395
405.9391	0.1599
406.1447	0.1297
406.3502	0.1639
406.5558	0.1411
406.7613	0.1579
406.9668	0.1359
407.1724	0.1606
407.3778	0.1337
407.5833	0.1434
407.7888	0.1335
407.9942	0.1537
408.1997	0.1499
408.4051	0.1425
408.6105	0.1519
408.8159	0.143
409.0213	0.1215
409.2267	0.158
409.432	0.1363
409.6374	0.1555
409.8427	0.136
410.048	0.1462
410.2533	0.1157
410.4586	0.1498
410.6639	0.1302
410.8691	0.1272
411.0744	0.1449
411.2796	0.1198
411.4848	0.1447
411.69	0.1399
411.8952	0.1499
412.1004	0.1267
412.3056	0.1475
412.5107	0.1276
412.7158	0.1461
412.921	0.1375
413.1261	0.1402
413.3312	0.1252
413.5362	0.1376
413.7413	0.1309
413.9464	0.1295
414.1514	0.1503
414.3564	0.1344
414.5614	0.1241
414.7664	0.1551
414.9714	0.1309
415.1764	0.1419
415.3813	0.1361
415.5863	0.1408
415.7912	0.1468
415.9961	0.1407
416.201	0.134
416.4059	0.1382
416.6108	0.1149
416.8156	0.1458
417.0205	0.13
417.2253	0.1294
417.4301	0.1313
417.6349	0.1262
417.8397	0.1197
418.0445	0.145
418.2492	0.1286
418.454	0.1305
418.6587	0.1337
418.8634	0.1335
419.0681	0.1222
419.2728	0.1076
419.4775	0.1268
419.6822	0.1067
419.8868	0.0919
420.0915	0.1306
420.2961	0.1081
420.5007	0.1115
420.7053	0.1267
420.9099	0.1377
421.1144	0.1226
421.319	0.1093
421.5235	0.1298
421.728	0.1244
421.9325	0.1268
422.137	0.137
422.3415	0.1212
422.546	0.1394
422.7504	0.1107
422.9549	0.1251
423.1593	0.1181
423.3637	0.1256
423.5681	0.1216
423.7725	0.1145
423.9769	0.1111
424.1812	0.1227
424.3856	0.1055
424.5899	0.1112
424.7942	0.1286
424.9985	0.116
425.2028	0.1126
425.4071	0.1385
425.6113	0.107
425.8156	0.1259
426.0198	0.1128
426.224	0.11
426.4282	0.1031
426.6324	0.1006
426.8366	0.1113
427.0407	0.1029
427.2449	0.0969
427.449	0.1119
427.6531	0.0815
427.8572	0.1017
428.0613	0.1045
428.2654	0.1101
428.4694	0.1025
428.6735	0.0853
428.8775	0.1006
429.0815	0.1152
429.2855	0.0986
429.4895	0.11
429.6935	0.1047
429.8975	0.1011
430.1014	0.0846
430.3053	0.0794
430.5093	0.1038
430.7132	0.0845
430.9171	0.0968
431.1209	0.088
431.3248	0.0858
431.5286	0.1032
431.7325	0.0766
431.9363	0.0678
432.1401	0.1047
432.3439	0.0751
432.5477	0.0667
432.7514	0.0728
432.9552	0.0872
433.1589	0.079
433.3627	0.0691
433.5664	0.0837
433.7701	0.0855
433.9737	0.0757
434.1774	0.0785
434.3811	0.0674
434.5847	0.0727
434.7883	0.0708
434.9919	0.0768
435.1955	0.0615
435.3991	0.0505
435.6027	0.0656
435.8062	0.0611
436.0098	0.0461
436.2133	0.0574
436.4168	0.054
436.6203	0.0544
436.8238	0.0819
437.0272	0.0626
437.2307	0.0602
437.4341	0.0699
437.6375	0.0729
437.841	0.066
438.0443	0.0651
438.2477	0.0649
438.4511	0.0458
438.6545	0.0527
438.8578	0.0658
439.0611	0.0513
439.2644	0.0607
439.4677	0.0451
439.671	0.0395
439.8743	0.0662
440.0775	0.0582
440.2808	0.0434
440.484	0.0375
440.6872	0.0271
440.8904	0.0473
441.0936	0.0604
441.2967	0.0443
441.4999	0.0441
441.703	0.0398
441.9062	0.0445
442.1093	0.0439
442.3124	0.0494
442.5155	0.0238
442.7185	0.0454
442.9216	0.019
443.1246	0.0425
443.3276	0.0386
443.5307	0.0205
443.7337	0.0394
443.9366	0.0355
444.1396	0.0297
444.3426	0.0435
444.5455	0.0307
444.7484	0.0244
444.9513	0.0255
445.1542	0.0422
445.3571	0.0379
445.56	0.0393
445.7628	0.0133
445.9657	0.0098
446.1685	0.0222
446.3713	0.0358
446.5741	0.0272
446.7769	0.0188
446.9797	0.0289
447.1824	0.0282
447.3852	0.0144
447.5879	0.0382
447.7906	0.0336
447.9933	0.0177
448.196	0.0242
448.3986	0.0289
448.6013	0.0248
448.8039	0.0101
449.0066	-0.0097
449.2092	0.0289
449.4118	0.0234
449.6143	0.0158
449.8169	0.0228
450.0195	0.0206
450.222	0.0076
450.4245	0.0146
450.627	0.0253
450.8295	0.0078
451.032	0.0158
451.2345	0.0229
451.4369	0.0292
451.6394	0.0207
451.8418	-0.0009
452.0442	0.0032
452.2466	0.0165
452.449	0.002
452.6513	0.0127
452.8537	-0.0003
453.056	-0.0004
453.2583	0.0276
453.4607	0.0073
453.663	0.0018
453.8652	0.0216
454.0675	-0.0037
454.2697	0.005
454.472	-0.0065
454.6742	0.0039
454.8764	0.0137
455.0786	0.0136
455.2808	0.0056
455.4829	0.0092
455.6851	0.0131
455.8872	0.0092
456.0893	0.0127
456.2915	-0.0028
456.4935	0.0114
456.6956	-0.0003
456.8977	0.0014
457.0997	0.005
457.3018	-0.0206
457.5038	0.0052
457.7058	0.0104
457.9078	0.0211
458.1098	0.0149
458.3117	0.0037
458.5137	-0.0013
458.7156	0.0108
458.9175	-0.0154
459.1194	-0.0048
459.3213	-0.0067
459.5232	-0.0017
459.725	0.0001
459.9269	0.0044
460.1287	-0.0093
460.3305	-0.0036
460.5323	-0.0054
460.7341	0.0031
460.9359	0.0058
461.1376	0.0092
461.3394	-0.0027
461.5411	0.008
461.7428	-0.0163
461.9445	0.0251
462.1462	0.0321
462.3479	-0.0038
462.5495	0.0142
462.7512	0.0151
462.9528	0.0011
463.1544	-0.0236
463.356	-0.0067
463.5576	0.0022
463.7592	-0.0023
463.9607	0.0026
464.1623	0.0126
464.3638	0.0094
464.5653	-0.0138
464.7668	0.0058
464.9683	0.0125
465.1697	0.0105
465.3712	-0.0076
465.5726	-0.0117
465.7741	-0.0063
465.9755	-0.0244
466.1769	-0.0044
466.3782	0.0061
466.5796	-0.0175
466.7809	0.0052
466.9823	-0.0074
467.1836	-0.0085
467.3849	0.0037
467.5862	-0.0006
467.7875	-0.0056
467.9887	0.0079
468.19	0.001
468.3912	-0.0204
468.5924	-0.01
468.7936	-0.0149
468.9948	-0.0081
469.196	0.0046
469.3972	-0.0157
469.5983	0.0033
469.7994	-0.0074
470.0006	-0.0027
470.2017	-0.0229
470.4027	-0.0074
470.6038	0.0112
470.8049	-0.0091
471.0059	-0.0136
471.2069	-0.0334
471.408	0.0084
471.6089	0.0011
471.8099	0.0016
472.0109	0.0036
472.2119	-0.0234
472.4128	-0.0138
472.6137	-0.0066
472.8146	-0.0215
473.0155	-0.0054
473.2164	-0.0016
473.4173	0.003
473.6181	-0.0001
473.819	0.0042
474.0198	-0.0143
474.2206	-0.0051
474.4214	-0.0029
474.6222	-0.0091
474.8229	-0.0134
475.0237	-0.0143
475.2244	-0.0141
475.4251	-0.0149
475.6258	-0.014
475.8265	-0.0003
476.0272	0.0065
476.2278	-0.009
476.4285	-0.0026
476.6291	-0.0113
476.8297	-0.0035
477.0303	-0.0055
477.2309	-0.0007
477.4315	-0.0126
477.632	-0.0109
477.8326	-0.0039
478.0331	0.0032
478.2336	0.0053
478.4341	-0.0149
478.6346	-0.0046
478.8351	-0.0041
479.0355	0.0061
479.236	-0.0112
479.4364	-0.001
479.6368	-0.0024
479.8372	-0.0067
480.0376	0.0018
480.2379	-0.018
480.4383	-0.0013
480.6386	0.0081
480.8389	-0.0081
481.0392	-0.0116
481.2395	-0.0025
481.4398	0.0108
481.6401	0.0011
481.8403	-0.0003
482.0405	-0.0044
482.2408	-0.0103
482.441	0.0054
482.6411	-0.0045
482.8413	-0.0145
483.0415	-0.0164
483.2416	-0.0155
483.4417	-0.0069
483.6419	-0.0191
483.8419	-0.0102
484.042	-0.0041
484.2421	-0.0004
484.4422	-0.0086
484.6422	-0.0098
484.8422	-0.0013
485.0422	-0.0112
485.2422	-0.0002
485.4422	-0.0168
485.6422	-0.0113
485.8421	-0.0064
486.042	-0.0004
486.242	-0.0071
486.4419	-0.0166
486.6417	-0.0154
486.8416	0.0007
487.0415	-0.0064
487.2413	-0.011
487.4411	0.0018
487.641	-0.016
487.8408	0.0099
488.0405	-0.0104
488.2403	-0.0158
488.4401	-0.0048
488.6398	-0.0121
488.8395	-0.0033
489.0392	-0.0115
489.2389	-0.0181
489.4386	-0.015
489.6383	-0.005
489.8379	-0.0029
490.0376	-0.0105
490.2372	-0.0116
490.4368	-0.012
490.6364	-0.0062
490.836	-0.0043
491.0355	-0.0022
491.2351	-0.0064
491.4346	-0.0077
491.6341	-0.0066
491.8336	-0.0025
492.0331	-0.0142
492.2326	-0.02
492.432	0.0053
492.6315	-0.0054
492.8309	-0.0103
493.0303	-0.014
493.2297	-0.0108
493.4291	-0.0056
493.6284	-0.0093
493.8278	-0.0025
494.0271	0.0021
494.2264	-0.0012
494.4257	-0.0139
494.625	-0.0042
494.8243	-0.0219
495.0236	-0.0076
495.2228	-0.0134
495.422	-0.0039
495.6213	-0.0144
495.8205	-0.0019
496.0196	-0.003
496.2188	-0.0049
496.418	-0.0078
496.6171	-0.004
496.8162	-0.0175
497.0153	0.0059
497.2144	-0.0133
497.4135	-0.0118
497.6126	-0.0085
497.8116	-0.006
498.0107	0.0028
498.2097	-0.0117
498.4087	-0.0086
498.6077	-0.005
498.8067	-0.0177
499.0056	-0.0029
499.2046	-0.0145
499.4035	-0.0163
499.6024	-0.0128
499.8013	-0.0068
500.0002	-0.0118
500.199	-0.004
500.3979	-0.011
500.5967	-0.0253
500.7956	-0.0102
500.9944	-0.0098
501.1932	-0.013
501.3919	-0.019
501.5907	-0.0103
501.7895	-0.0077
501.9882	-0.0193
502.1869	-0.0165
502.3856	-0.0045
502.5843	-0.0131
502.783	-0.0106
502.9816	-0.007
503.1803	-0.0162
503.3789	-0.0155
503.5775	-0.0025
503.7761	-0.0231
503.9747	0.0026
504.1732	-0.0042
504.3718	-0.0046
504.5703	-0.0086
504.7689	-0.0063
504.9674	-0.0031
505.1658	-0.0139
505.3643	-0.0082
505.5628	-0.0102
505.7612	-0.0164
505.9597	-0.0026
506.1581	-0.0165
506.3565	0.0035
506.5549	-0.0082
506.7532	-0.0201
506.9516	-0.0061
507.1499	-0.0052
507.3482	-0.0182
507.5465	-0.0083
507.7448	-0.0113
507.9431	-0.0071
508.1414	-0.0029
508.3396	-0.0086
508.5379	-0.0048
508.7361	-0.011
508.9343	-0.0064
509.1325	-0.0032
509.3306	-0.0087
509.5288	-0.0083
509.7269	-0.0086
509.9251	-0.0056
510.1232	-0.0053
510.3213	-0.0007
510.5193	0.0064
510.7174	-0.019
510.9154	-0.0161
511.1135	-0.0139
511.3115	-0.0145
511.5095	-0.0099
511.7075	-0.005
511.9055	-0.0135
512.1034	-0.013
512.3014	-0.0017
512.4993	0.0044
512.6972	-0.0104
512.8951	-0.0152
513.093	-0.0049
513.2908	-0.0112
513.4887	-0.0027
513.6865	-0.0134
513.8844	-0.0161
514.0822	-0.0141
514.2799	-0.012
514.4777	-0.003
514.6755	-0.0119
514.8732	-0.014
515.0709	-0.0049
515.2687	-0.0132
515.4664	0.0006
515.664	-0.0124
515.8617	-0.0163
516.0594	-0.019
516.257	-0.0144
516.4546	-0.0185
516.6522	-0.0025
516.8498	-0.0092
517.0474	0.001
517.2449	-0.001
517.4425	-0.0167
517.64	-0.0107
517.8375	-0.0026
518.035	-0.0109
518.2325	-0.012
518.43	-0.009
518.6274	-0.0095
518.8249	-0.0132
519.0223	-0.0124
519.2197	-0.0121
519.4171	-0.0039
519.6145	-0.0174
519.8118	-0.0057
520.0092	-0.0116
520.2065	-0.0187
520.4038	-0.0101
520.6011	-0.0024
520.7984	-0.0091
520.9956	-0.0053
521.1929	-0.0203
521.3901	-0.0084
521.5874	0.0023
521.7846	-0.0155
521.9818	-0.0089
522.1789	-0.0013
522.3761	-0.0088
522.5732	-0.0087
522.7704	-0.0152
522.9675	-0.0068
523.1646	-0.0028
523.3617	-0.0099
523.5587	-0.0131
523.7558	-0.0046
523.9528	-0.0131
524.1498	-0.0046
524.3468	-0.0155
524.5438	-0.0084
524.7408	-0.0017
524.9378	-0.0037
525.1347	-0.0087
525.3316	-0.0001
525.5285	-0.0127
525.7254	-0.01
525.9223	-0.0044
526.1192	-0.0001
526.316	-0.0112
526.5129	0.0008
526.7097	-0.0066
526.9065	0.0021
527.1033	-0.0028
527.3	-0.0002
527.4968	-0.0008
527.6935	-0.0095
527.8903	-0.0146
528.087	-0.0091
528.2837	0.0013
528.4804	-0.0007
528.677	-0.0128
528.8737	0.0037
529.0703	-0.0008
529.2669	0.0013
529.4635	-0.0011
529.6601	-0.0044
529.8567	-0.0025
530.0532	0.0033
530.2498	-0.0049
530.4463	-0.0057
530.6428	-0.0073
530.8393	0.0072
531.0358	-0.0066
531.2322	-0.0032
531.4287	-0.0021
531.6251	-0.0037
531.8215	0.0001
532.0179	-0.0031
532.2143	0.0066
532.4107	-0.009
532.607	-0.015
532.8034	-0.0083
532.9997	-0.0007
533.196	-0.0034
533.3923	0.0032
533.5886	0.0035
533.7848	-0.0098
533.9811	-0.0014
534.1773	-0.0023
534.3735	0.0075
534.5697	-0.0126
534.7659	-0.0098
534.9621	-0.0086
535.1582	-0.015
535.3544	-0.011
535.5505	-0.0041
535.7466	-0.0084
535.9427	-0.0105
536.1387	-0.0118
536.3348	-0.0039
536.5308	0.0058
536.7269	-0.0164
536.9229	0.0002
537.1189	-0.0063
537.3148	-0.0003
537.5108	-0.0142
537.7068	-0.0039
537.9027	-0.0079
538.0986	-0.0088
538.2945	-0.0071
538.4904	0.0021
538.6863	-0.0106
538.8821	-0.0079
539.078	-0.008
539.2738	-0.0121
539.4696	-0.0093
539.6654	0.0023
539.8611	0.0085
540.0569	-0.0079
540.2526	-0.0107
540.4484	-0.0065
540.6441	0.0098
540.8398	-0.0069
541.0355	-0.0003
541.2311	-0.009
541.4268	-0.013
541.6224	0.0069
541.818	-0.0012
542.0136	-0.0057
542.2092	-0.0028
542.4048	0.006
542.6003	-0.0097
542.7959	-0.0033
542.9914	-0.0025
543.1869	-0.004
543.3824	-0.0005
543.5779	-0.01
543.7734	-0.007
543.9688	-0.0024
544.1642	0.0075
544.3596	-0.0017
544.555	-0.0009
544.7504	-0
544.9458	-0.0033
545.1411	-0.016
545.3365	-0.0047
545.5318	0.002
545.7271	-0.0027
545.9224	-0.0036
546.1177	-0.0034
546.3129	-0.0047
546.5081	-0.0059
546.7034	0.0027
546.8986	-0.0018
547.0938	-0.0149
547.289	-0.001
547.4841	-0.0027
547.6793	0.0137
547.8744	-0.0079
548.0695	-0.0063
548.2646	-0.0095
548.4597	-0.0036
548.6548	-0.0044
548.8498	-0.0033
549.0448	0.0061
549.2399	-0.0028
549.4349	0.0063
549.6298	-0.009
549.8248	0.0017
550.0198	-0.0061
550.2147	-0.0063
550.4096	-0.0014
550.6045	-0.0005
550.7994	0.003
550.9943	0.0025
551.1892	0.0049
551.384	0.0048
551.5788	-0.0126
551.7737	-0.0003
551.9685	-0.0042
552.1632	-0.0019
552.358	-0.0083
552.5528	-0.0002
552.7475	-0.0008
552.9422	0.0032
553.1369	0.0043
553.3316	0.0181
553.5263	-0.0105
553.7209	0.0014
553.9156	-0.0045
554.1102	-0.0062
554.3048	0.0023
554.4994	0.0077
554.694	-0.0001
554.8885	0.0093
555.0831	-0.0102
555.2776	-0.005
555.4721	-0.0035
555.6666	0.0015
555.8611	0.0064
556.0555	0.0059
556.25	-0.0066
556.4444	-0.0034
556.6388	0.0035
556.8332	-0.0016
557.0276	0.0028
557.222	-0.0055
557.4163	-0.0022
557.6107	-0.0056
557.805	0.0117
557.9993	-0.0084
558.1936	0.0035
558.3879	0.0015
558.5821	-0.001
558.7764	-0.0062
558.9706	-0.0031
559.1648	0.0048
559.359	0.0023
559.5532	-0.004
559.7473	0.0014
559.9415	0.0034
560.1356	-0.0098
560.3297	-0.0078
560.5238	-0.014
560.7179	-0.0018
560.9119	-0.0032
561.106	-0.0052
561.3	-0.0089
561.494	-0.0013
561.688	-0.0053
561.882	-0.0129
562.076	-0.0005
562.2699	-0.0043
562.4639	0.0006
562.6578	-0.0019
562.8517	-0.0024
563.0456	0.0002
563.2395	0.0046
563.4333	0.0044
563.6272	0.0018
563.821	-0.0029
564.0148	-0.0063
564.2086	-0.0006
564.4024	0.0011
564.5961	-0.0027
564.7899	0.0021
564.9836	0.0023
565.1773	-0.0033
565.371	0.0086
565.5647	-0.0078
565.7584	0.0096
565.952	0.0082
566.1456	-0.0037
566.3393	0.005
566.5329	-0.0063
566.7264	-0.0017
566.92	-0.0133
567.1136	0.0017
567.3071	-0.0109
567.5006	-0.0007
567.6941	0.0029
567.8876	-0.0014
568.0811	-0.0054
568.2745	-0.0008
568.468	-0.0001
568.6614	-0.001
568.8548	0.0067
569.0482	-0.0034
569.2416	0.0017
569.4349	0.0013
569.6283	0.0057
569.8216	-0.0019
570.0149	-0.0044
570.2082	0.001
570.4015	0.0041
570.5947	0.0057
570.788	-0.0022
570.9812	-0.0008
571.1744	0.0017
571.3676	-0.0084
571.5608	-0.0019
571.754	0.001
571.9471	0.0017
572.1402	-0.0069
572.3333	-0.0079
572.5264	-0.0056
572.7195	-0.0035
572.9126	-0.0055
573.1057	-0.0037
573.2987	-0.0005
573.4917	-0.0052
573.6847	-0.017
573.8777	0.0058
574.0707	0.0014
574.2636	-0.0048
574.4566	-0.0065
574.6495	0.0035
574.8424	-0.0013
575.0353	0.0042
575.2281	0.0065
575.421	0.003
575.6138	0.0015
575.8067	0.0004
575.9995	0.001
576.1923	0.0029
576.385	-0.001
576.5778	-0.0022
576.7706	0.0021
576.9633	-0.0005
577.156	0.0013
577.3487	0.0014
577.5414	0.0004
577.734	-0.0006
577.9267	-0.0059
578.1193	-0.0145
578.3119	-0.0101
578.5045	-0.0048
578.6971	0.0017
578.8897	-0.0037
579.0822	-0.0012
579.2747	-0.0023
579.4673	-0.0083
579.6598	-0.0002
579.8522	-0.0057
580.0447	-0.0146
580.2372	-0.0088
580.4296	0.0012
580.622	-0.0068
580.8144	-0.0048
581.0068	-0.0099
581.1992	-0.0109
581.3915	-0.0101
581.5839	-0.011
581.7762	-0.0146
581.9685	-0.006
582.1608	0.0021
582.353	-0.0005
582.5453	-0.0065
582.7375	-0.0035
582.9298	0.0042
583.122	-0.0044
583.3142	-0.0013
583.5063	0.0012
583.6985	-0.0078
583.8906	-0.0032
584.0827	-0.0058
584.2749	-0.0078
584.4669	-0.0024
584.659	0.0004
584.8511	-0.0054
585.0431	-0.0041
585.2352	-0.0052
585.4272	-0.0067
585.6192	-0.0021
585.8111	-0.0041
586.0031	-0.0025
586.195	0.0027
586.387	0.0037
586.5789	-0.0026
586.7708	0.0023
586.9627	-0.003
587.1545	-0.0026
587.3464	0.0006
587.5382	0.0048
587.73	0.0035
587.9218	0.0033
588.1136	-0.0047
588.3053	0.0061
588.4971	-0.0025
588.6888	-0.0096
588.8805	0.0016
589.0722	-0.0001
589.2639	0.001
589.4556	-0.0016
589.6472	-0.0015
589.8389	-0.0026
590.0305	-0.0136
590.2221	0.0018
590.4137	-0.0029
590.6052	0.0041
590.7968	0.0083
590.9883	-0.0013
591.1798	-0.0075
591.3713	-0.0015
591.5628	0.0022
591.7543	0.0076
591.9458	0.0013
592.1372	0.0082
592.3286	0.005
592.52	-0.0004
592.7114	-0.0014
592.9028	-0.0065
593.0941	-0.0075
593.2855	0.0014
593.4768	-0.0107
593.6681	-0.0119
593.8594	-0.005
594.0506	-0.0064
594.2419	0.0054
594.4331	-0.0049
594.6244	0.0009
594.8156	-0.0067
595.0067	0.0006
595.1979	-0.0006
595.3891	-0.0015
595.5802	-0.0011
595.7713	-0.0101
595.9624	-0.0043
596.1535	0.0123
596.3446	0.001
596.5357	-0.0029
596.7267	0.007
596.9177	0.0009
597.1087	-0.0032
597.2997	-0.0074
597.4907	0.003
597.6817	-0.002
597.8726	0.0038
598.0635	-0.0031
598.2544	-0.0043
598.4453	0.0034
598.6362	0
598.827	0.0021
599.0179	0.0017
599.2087	0.0046
599.3995	0.0029
599.5903	0.005
599.7811	0.0075
599.9718	0.0059
600.1626	-0.0039
600.3533	-0.0013
600.544	0.0022
600.7347	0.0002
600.9254	0.003
601.116	-0.0074
601.3067	0.004
601.4973	-0.0027
601.6879	0.0083
601.8785	-0.0021
602.0691	0.0112
602.2596	0.0066
602.4502	0.0045
602.6407	0.0068
602.8312	0.0032
603.0217	-0.0046
603.2122	0.0028
603.4027	-0.0038
603.5931	0.0043
603.7835	0.0038
603.9739	0.0053
604.1643	-0.0011
604.3547	-0.0046
604.5451	0.0033
604.7354	-0.0046
604.9257	0.0024
605.116	-0.0066
605.3063	0.0042
605.4966	-0.0017
605.6869	0.0011
605.8771	0.0023
606.0673	0.0036
606.2575	0.0058
606.4477	0.0072
606.6379	0.0011
606.8281	-0.0013
607.0182	0.0024
607.2083	0.01
607.3985	-0.0047
607.5885	0.0024
607.7786	0.0019
607.9687	-0.0101
608.1587	0.0039
608.3488	0.0074
608.5388	-0.0026
608.7288	-0.006
608.9187	-0.0021
609.1087	-0.0027
609.2986	-0.006
609.4886	0.0022
609.6785	-0.005
609.8684	0.0023
610.0582	-0.0011
610.2481	-0.0028
610.4379	-0.0007
610.6278	-0.0043
610.8176	-0.0062
611.0074	-0.0126
611.1971	-0.0021
611.3869	-0.0032
611.5766	-0.0093
611.7664	0.0029
611.9561	0.0003
612.1458	0.0002
612.3354	-0.0073
612.5251	-0.0081
612.7147	0.0055
612.9044	0.0088
613.094	-0.0047
613.2836	0.0038
613.4731	-0.0015
613.6627	0.0015
613.8522	0.0002
614.0417	-0.0001
614.2313	-0.0085
614.4207	-0.0079
614.6102	0.0053
614.7997	-0.0059
614.9891	-0.0066
615.1785	-0.0002
615.3679	-0.0006
615.5573	0.0128
615.7467	0.0038
615.9361	0.0005
616.1254	-0.0049
616.3147	-0.0006
616.504	0.0072
616.6933	0.0011
616.8826	0.005
617.0718	0.0028
617.2611	0.0009
617.4503	-0.001
617.6395	-0.0041
617.8287	-0.0068
618.0179	0.002
618.207	0.0108
618.3961	-0.0056
618.5853	-0.0064
618.7744	0.0015
618.9634	0.0015
619.1525	0.0056
619.3416	-0.0033
619.5306	0.0003
619.7196	0.0082
619.9086	-0.007
620.0976	0.0089
620.2866	-0.0062
620.4755	0.0081
620.6645	-0.0025
620.8534	0.0066
621.0423	0.0038
621.2312	0.0043
621.42	0.0019
621.6089	-0.0046
621.7977	0.0027
621.9865	-0.0074
622.1753	-0.0019
622.3641	-0.0034
622.5529	0.0032
622.7416	-0.0006
622.9303	-0.0031
623.1191	-0.0008
623.3078	-0.0063
623.4964	0.0003
623.6851	-0.003
623.8737	-0.0095
624.0624	0.0054
624.251	-0.0027
624.4396	0.0013
624.6282	0.0036
624.8167	-0.0071
625.0053	0.0021
625.1938	0.0069
625.3823	0.0017
625.5708	-0.0012
625.7593	-0.0032
625.9477	0.0006
626.1362	0.0056
626.3246	0.005
626.513	0.0063
626.7014	0.0109
626.8898	-0.0024
627.0781	0.0065
627.2665	-0.0052
627.4548	0.0128
627.6431	0.0026
627.8314	0.0043
628.0197	0.0082
628.2079	-0.0055
628.3962	0.0081
628.5844	0.0067
628.7726	0.0082
628.9608	0.0042
629.1489	0.0018
629.3371	0.0026
629.5252	-0.0003
629.7134	0.01
629.9015	0.006
630.0895	0.0059
630.2776	0.0005
630.4657	-0.0058
630.6537	0.0037
630.8417	-0.0035
631.0297	-0.0048
631.2177	-0.0028
631.4057	-0.0043
631.5936	-0.0009
631.7815	-0.0015
631.9695	-0.0015
632.1574	0.0016
632.3452	0.0128
632.5331	-0.0045
632.7209	0.0018
632.9088	0.0061
633.0966	0.0136
633.2844	-0.0046
633.4722	0.0055
633.6599	0.0152
633.8477	-0.005
634.0354	0.0028
634.2231	0.004
634.4108	0.0031
634.5985	0.01
634.7861	0.0091
634.9738	-0.0033
635.1614	-0.0043
635.349	0.001
635.5366	-0.0021
635.7242	-0.0013
635.9117	-0.0005
636.0993	-0.0082
636.2868	0.0037
636.4743	-0.0005
636.6618	0.0108
636.8492	0.0001
637.0367	0.0013
637.2241	-0.0047
637.4115	-0.0046
637.5989	-0.0018
637.7863	-0.001
637.9737	-0.0016
638.161	0.0018
638.3484	-0.0025
638.5357	-0.002
638.723	-0.0003
638.9103	0.0087
639.0975	0.0088
639.2848	0.0098
639.472	0.0006
639.6592	0.0045
639.8464	0.0117
640.0336	0.0063
640.2208	0.0001
640.4079	0.0017
640.595	0.0036
640.7821	0.0024
640.9692	0.0057
641.1563	0.012
641.3434	0.0083
641.5304	-0.0048
641.7174	0.0059
641.9044	0.0047
642.0914	0.0102
642.2784	0.0068
642.4653	0.0096
642.6523	0.0039
642.8392	-0.0009
643.0261	0.0041
643.213	0.0026
643.3999	0.0002
643.5867	0.0046
643.7735	-0.0004
643.9604	0.0039
644.1472	0.008
644.3339	0.003
644.5207	0.0003
644.7075	0.0093
644.8942	0.0108
645.0809	0.0062
645.2676	0.0146
645.4543	0.0042
645.6409	0.0093
645.8276	0.0028
646.0142	0.0007
646.2008	0.0023
646.3874	0.004
646.574	-0.0005
646.7605	-0.0033
646.9471	-0.0102
647.1336	0.0073
647.3201	-0.0001
647.5066	0
647.6931	0.0033
647.8795	-0.0001
648.0659	0.0061
648.2524	0.0063
648.4388	0.0011
648.6252	0.0029
648.8115	-0.0036
648.9979	-0.0019
649.1842	0.006
649.3705	0.0042
649.5568	0.0047
649.7431	0.0062
649.9294	0.0004
650.1156	0.0081
650.3018	0.0022
650.488	0.0018
650.6742	0.0003
650.8604	-0.0024
651.0466	0.0005
651.2327	0.0033
651.4188	0.0073
651.6049	-0.0052
651.791	0.0051
651.9771	0.005
652.1632	0.0135
652.3492	0.0031
652.5352	-0.0014
652.7212	0.0005
652.9072	0.0136
653.0932	0.0003
653.2791	-0.0065
653.465	-0.0008
653.651	0.0007
653.8369	-0.0058
654.0227	0.0055
654.2086	0.007
654.3944	0.01
654.5803	-0.0017
654.7661	-0
654.9519	0.0019
655.1377	-0.0018
655.3234	-0.0016
655.5092	-0.0028
655.6949	-0.0065
655.8806	-0.0062
656.0663	-0.0055
656.2519	-0.0037
656.4376	-0.007
656.6232	0.0011
656.8088	-0.0012
656.9945	-0.002
657.18	0.001
657.3656	-0.0012
657.5511	-0.0014
657.7367	-0.0048
657.9222	0.0048
658.1077	0.0017
658.2932	0.0067
658.4786	-0.0108
658.6641	0.0035
658.8495	0.0036
659.0349	-0.0011
659.2203	0.0046
659.4057	0.0024
659.591	0.0071
659.7764	-0.003
659.9617	0.0069
660.147	0.0033
660.3323	0.01
660.5176	0.0133
660.7028	0.0121
660.888	0.0003
661.0733	-0.0022
661.2585	0.0021
661.4436	0.0105
661.6288	0
661.8139	0.0024
661.9991	0.0099
662.1842	0.0041
662.3693	0.0037
662.5544	0.0022
662.7394	0.0028
662.9245	-0.0029
663.1095	-0.0023
663.2945	-0.0003
663.4795	-0.0059
663.6644	0.0006
663.8494	0.0004
664.0343	-0.0022
664.2193	-0.0049
664.4042	-0.003
664.589	-0.0095
664.7739	-0.0022
664.9587	-0.0075
665.1436	0.0058
665.3284	-0.003
665.5132	-0.0032
665.698	-0.0003
665.8827	0.0061
666.0675	0.0011
666.2522	-0.0071
666.4369	0.006
666.6216	0.0166
666.8063	0.0009
666.9909	-0
667.1756	0.0026
667.3602	0.0035
667.5448	0.0044
667.7294	0.0047
667.9139	0.0016
668.0985	0.0082
668.283	0.0043
668.4675	0.0005
668.652	0.0063
668.8365	-0.0016
669.0209	0.0051
669.2054	0.0144
669.3898	0.0051
669.5742	0.0034
669.7586	0.0031
669.943	0.014
670.1273	0.0117
670.3117	0.0045
670.496	0.0056
670.6803	0.0134
670.8646	0.007
671.0488	0.0039
671.2331	0.0039
671.4173	-0.0012
671.6015	0.0026
671.7857	0.0068
671.9699	0.0041
672.1541	0.0123
672.3382	0.0038
672.5223	0.0132
672.7064	0.013
672.8905	0.0105
673.0746	0.0056
673.2587	0.0032
673.4427	0.0034
673.6267	0.0073
673.8107	0.0157
673.9947	0.0057
674.1787	0.0038
674.3626	-0.0042
674.5465	0.0049
674.7304	0.0114
674.9143	0.0032
675.0982	0.0138
675.2821	-0.0004
675.4659	0.0111
675.6497	0.0043
675.8335	0.0018
676.0173	0.0079
676.2011	0.0038
676.3849	0.0056
676.5686	-0.0056
676.7523	0.0026
676.936	-0.0032
677.1197	-0.0009
677.3034	-0.0036
677.487	0.0025
677.6706	0.0026
677.8542	0.0036
678.0378	0.0033
678.2214	0.002
678.405	0.0056
678.5885	-0.0002
678.772	0.0037
678.9555	-0.0031
679.139	0.0014
679.3225	0.0074
679.5059	0.0036
679.6894	0.0067
679.8728	0.0013
680.0562	-0.008
680.2395	0.0011
680.4229	0.0038
680.6062	0.0078
680.7896	0.001
680.9729	-0.0018
681.1562	0.01
681.3394	0.0034
681.5227	-0.0068
681.7059	-0.0033
681.8891	0.0041
682.0723	0.0123
682.2555	0.0068
682.4387	-0.002
682.6218	-0.0027
682.805	0.0098
682.9881	0.0068
683.1712	0.0011
683.3542	0.0072
683.5373	0.0021
683.7203	0.0042
683.9034	0.0044
684.0864	0.0004
684.2694	-0.005
684.4523	0.0054
684.6353	-0.0007
684.8182	0.0039
685.0011	-0.0025
685.184	0.0033
685.3669	0.0004
685.5498	0.0088
685.7326	0.0098
685.9154	0.0041
686.0982	0.0088
686.281	0.0034
686.4638	0.0076
686.6465	0.002
686.8293	-0.0024
687.012	0.0088
687.1947	-0.0042
687.3774	0.0057
687.56	-0.0009
687.7427	0.0073
687.9253	0.0012
688.1079	-0.0024
688.2905	0.0123
688.4731	-0.0004
688.6556	0.0094
688.8382	0.0091
689.0207	-0.0003
689.2032	-0.0076
689.3857	-0.0044
689.5681	0.0022
689.7506	-0.0121
689.933	-0.0045
690.1154	0.0051
690.2978	0.0036
690.4802	0.0103
690.6626	0.0023
690.8449	-0.0046
691.0272	0.0062
691.2095	0.0023
691.3918	-0.0099
691.5741	-0.0003
691.7563	-0.0077
691.9386	0.0041
692.1208	-0.0011
692.303	-0.0012
692.4852	0.0013
692.6673	0.0091
692.8495	-0.0063
693.0316	0.0009
693.2137	0.0008
693.3958	0.0029
693.5778	0.0047
693.7599	-0.0048
693.9419	0.0018
694.1239	0.0013
694.3059	0.0009
694.4879	0.0114
694.6699	0.0098
694.8518	0.0019
695.0337	-0.0055
695.2157	0.0042
695.3975	-0.0043
695.5794	-0.002
695.7613	-0.0027
695.9431	-0.0036
696.1249	-0.0015
696.3067	0.0097
696.4885	0.0088
696.6703	-0.0066
696.852	-0.003
697.0337	-0.0025
697.2154	0.0051
697.3971	0.0037
697.5788	0.0064
697.7605	0.0038
697.9421	0.0045
698.1237	-0.0035
698.3053	0.0015
698.4869	0.0009
698.6685	-0.0044
698.85	-0.0038
699.0315	0.0074
699.213	-0.001
699.3945	0.0001
699.576	0.011
699.7575	0.004
699.9389	0.005
700.1203	-0.0069
700.3017	-0.0136
700.4831	-0.0116
700.6645	-0.0069
700.8458	0.0012
701.0271	-0.0088
701.2084	0.0022
701.3897	-0.0075
701.571	0.0038
701.7523	-0.0181
701.9335	-0.0064
702.1147	-0.0096
702.2959	-0.0024
702.4771	0.0023
702.6583	-0.0005
702.8394	-0.0043
703.0205	0.0033
703.2016	0.0009
703.3827	-0.0004
703.5638	0.0048
703.7449	0.0014
703.9259	0.0091
704.1069	-0.0026
704.2879	0.004
704.4689	0.0046
704.6499	-0.0001
704.8308	-0.0011
705.0117	-0.0006
705.1927	0.0012
705.3735	0.0031
705.5544	-0.0057
705.7353	-0.0066
705.9161	0.0012
706.0969	-0.0061
706.2777	0.0001
706.4585	0.0017
706.6393	-0.005
706.82	-0.0015
707.0007	0.0018
707.1815	0.0011
707.3621	0.0043
707.5428	0.0071
707.7235	0.009
707.9041	0.0073
708.0847	-0.0091
708.2653	0.0066
708.4459	-0.0089
708.6265	0.005
708.807	-0.0051
708.9875	-0.0129
709.168	-0.002
709.3485	-0.0015
709.529	-0.0047
709.7095	-0.0062
709.8899	0.0036
710.0703	-0.0135
710.2507	0.0045
710.4311	0.0026
710.6115	-0.0036
710.7918	-0.0158
710.9721	0
711.1524	-0.012
711.3327	-0.001
711.513	0.0042
711.6932	-0.001
711.8735	0.0083
712.0537	-0.0034
712.2339	-0.0063
712.4141	-0.0164
712.5942	-0.0027
712.7744	0.0058
712.9545	-0.0049
713.1346	-0.0014
713.3147	-0.0016
713.4947	-0.0074
713.6748	0.0017
713.8548	0.0023
714.0348	-0.0004
714.2148	0.0021
714.3948	0.0116
714.5748	0.0001
714.7547	0.0001
714.9346	0.0095
715.1145	0.0004
715.2944	0.0032
715.4743	-0.0002
715.6541	0.0066
715.834	0.0144
716.0138	0.0047
716.1936	-0.002
716.3733	-0.0108
716.5531	0.0166
716.7328	-0.0008
716.9126	-0.0052
717.0923	-0.0051
717.2719	0.0016
717.4516	0.0057
717.6312	0.0114
717.8109	-0.0047
717.9905	0.0014
718.1701	-0.0029
718.3496	-0.0094
718.5292	0.0011
718.7087	0.0021
718.8882	-0.0034
719.0677	0.0111
719.2472	0.0023
719.4267	0.0046
719.6061	0.0015
719.7856	0.008
719.965	0.0087
720.1443	-0.0017
720.3237	0.0163
720.5031	0.0104
720.6824	0.0087
720.8617	-0.0009
721.041	-0.0009
721.2203	0.0064
721.3995	0.0036
721.5788	0.0018
721.758	0.0097
721.9372	0.0077
722.1164	0.0026
722.2956	0.0076
722.4747	0.0034
722.6538	0.0008
722.8329	0.0057
723.012	-0.0027
723.1911	-0.0045
723.3702	-0.0058
723.5492	0.0011
723.7282	-0.0061
723.9072	-0.0056
724.0862	-0.0041
724.2652	-0.0002
724.4441	-0.0068
724.623	0.0002
724.8019	-0.0045
724.9808	0.0127
725.1597	-0.0094
725.3385	0.0064
725.5174	0.0116
725.6962	0.004
725.875	-0.0023
726.0538	0.002
726.2325	0.0044
726.4112	0.0077
726.59	0.0008
726.7687	-0.0046
726.9474	0.0034
727.126	-0.0019
727.3047	-0.0009
727.4833	0.0003
727.6619	0.0005
727.8405	-0.0074
728.0191	0.0014
728.1976	-0.0004
728.3762	-0.0073
728.5547	-0.0001
728.7332	-0.0085
728.9116	-0.0057
729.0901	0.0045
729.2686	0.0036
729.447	-0.0013
729.6254	0.0042
729.8038	-0.0024
729.9821	-0.0039
730.1605	-0.0037
730.3388	-0.0024
730.5171	0.0031
730.6954	-0.0043
730.8737	0.0086
731.0519	-0.0043
731.2302	0.0021
731.4084	0.0089
731.5866	0.0078
731.7648	-0.0015
731.9429	0.0007
732.1211	-0.0022
732.2992	-0.0043
732.4773	-0.0036
732.6554	0.0041
732.8335	0.0019
733.0115	0.0034
733.1896	0.0142
733.3676	-0.0064
733.5456	-0.0019
733.7235	0.011
733.9015	-0.0011
734.0794	0.0056
734.2574	-0.0039
734.4353	-0.0065
734.6131	0.0072
734.791	0.0024
734.9689	0.0002
735.1467	0.0028
735.3245	-0.0003
735.5023	-0.0064
735.68	-0.0027
735.8578	0.0053
736.0355	-0.0146
736.2132	0.0022
736.3909	-0.0016
736.5686	-0.0118
736.7463	0.0018
736.9239	-0.0099
737.1015	-0.0083
737.2791	-0.0045
737.4567	-0.0077
737.6343	-0.0063
737.8118	-0.0099
737.9894	-0.0084
738.1669	-0.0081
738.3444	-0.008
738.5218	-0.0016
738.6993	-0.0024
738.8767	-0.0105
739.0541	0.0046
739.2315	-0.0058
739.4089	-0.0051
739.5863	0.0099
739.7636	0.0002
739.9409	0.0085
740.1182	0.011
740.2955	0.0044
740.4728	0
740.65	0.0032
740.8272	0.001
741.0044	-0.0083
741.1816	0.0027
741.3588	-0.0019
741.5359	0.0027
741.7131	-0.0122
741.8902	-0.0075
742.0673	-0.0048
742.2444	-0.0106
742.4214	-0.0079
742.5985	0.0005
742.7755	0.0021
742.9525	-0.0128
743.1295	-0.0025
743.3064	-0.0042
743.4834	0.0087
743.6603	0.0001
743.8372	-0.0016
744.0141	0.0011
744.191	0.0008
744.3678	0.0023
744.5446	-0.0003
744.7215	0.0074
744.8982	0.0058
745.075	-0.0026
745.2518	0.0061
745.4285	0.0066
745.6052	0.0028
745.7819	-0.004
745.9586	0.0014
746.1353	0.0056
746.3119	-0.004
746.4885	-0.0029
746.6651	-0.0116
746.8417	-0.0019
747.0183	-0.0012
747.1948	-0.0037
747.3714	0.0037
747.5479	0.0015
747.7244	-0.0061
747.9008	0.0123
748.0773	-0.0022
748.2537	0.0077
748.4301	0.0026
748.6065	0.0019
748.7829	0.0073
748.9593	-0.0085
749.1356	0.0033
749.3119	0.0004
749.4882	-0.0086
749.6645	-0.0005
749.8408	-0.0053
750.017	-0.0069
750.1933	-0.0019
750.3695	-0.0042
750.5457	0.0031
750.7218	-0.0052
750.898	-0.0003
751.0741	-0.012
751.2502	-0.0051
751.4263	-0.0033
751.6024	-0.0034
751.7784	-0.004
751.9545	-0.0076
752.1305	-0.0003
752.3065	-0.0171
752.4825	0.0054
752.6584	-0.0115
752.8344	-0.0057
753.0103	-0.0114
753.1862	-0.0034
753.3621	-0.0077
753.5379	-0.0084
753.7138	-0.0035
753.8896	0.0005
754.0654	-0.0034
754.2412	0.0024
754.417	-0.0003
754.5927	-0.0057
754.7685	0.0005
754.9442	-0.0019
755.1199	0.0063
755.2956	-0.0095
755.4712	0.0074
755.6469	-0.0019
755.8225	-0.0081
755.9981	-0.0092
756.1736	0.0043
756.3492	-0.0038
756.5248	-0.0058
756.7003	0.0033
756.8758	-0.0021
757.0513	-0.0051
757.2267	-0.0108
757.4022	0.0074
757.5776	-0.0122
757.753	0.0018
757.9284	-0.0021
758.1038	0.004
758.2791	0.0084
758.4545	-0.0034
758.6298	0.0015
758.8051	0.0028
758.9803	0.0028
759.1556	0.0071
759.3308	0.0069
759.506	0.0145
759.6812	0.0028
759.8564	0.0111
760.0316	0.0018
760.2067	-0.0004
760.3819	0.0049
760.557	0.0099
760.732	-0.0084
760.9071	-0.0138
761.0821	0.0065
761.2572	0.0056
761.4322	-0.001
761.6072	-0.0027
761.7821	-0.0019
761.9571	0.0066
762.132	0.003
762.3069	-0.0002
762.4818	-0.0095
762.6567	-0.013
762.8316	-0.0057
763.0064	-0.0014
763.1812	-0.0094
763.356	-0.0155
763.5308	-0.0013
763.7055	-0.0038
763.8803	-0.0063
764.055	-0.0079
764.2297	-0.0121
764.4044	-0.0085
764.579	-0.0054
764.7537	-0.0152
764.9283	0.003
765.1029	-0.0135
765.2775	0.0015
765.4521	-0.0186
765.6266	-0.0129
765.8011	-0.0105
765.9756	-0.0049
766.1501	0.0037
766.3246	-0.0108
766.4991	-0.0008
766.6735	-0.0031
766.8479	-0.0099
767.0223	0.0102
767.1967	-0.0061
767.371	0.0062
767.5454	-0.0047
767.7197	0.0011
767.894	-0.0094
768.0683	-0.0051
768.2425	0.0079
768.4168	-0.0031
768.591	-0.0004
768.7652	0.0012
768.9394	-0.0095
769.1135	-0.0033
769.2877	0.0068
769.4618	-0.0034
769.6359	-0.008
769.81	-0.0018
769.984	-0.0044
770.1581	-0.019
770.3321	0.0047
770.5061	-0.002
770.6801	-0.0033
770.8541	-0.004
771.028	0.0075
771.202	-0.0126
771.3759	-0.0076
771.5498	0.0011
771.7236	-0.0113
771.8975	-0.0009
772.0713	-0.01
772.2451	0.0027
772.4189	-0.0054
772.5927	0.0175
772.7665	0.0174
772.9402	0.0072
773.1139	0.0103
773.2876	0.005
773.4613	0.0052
773.635	0.011
773.8086	-0.0012
773.9822	0.0118
774.1558	0.0083
774.3294	-0.0055
774.503	-0.0019
774.6765	0.0096
774.8501	0.0106
775.0236	0.0057
775.1971	-0.0016
775.3705	-0.0158
775.544	0.0014
775.7174	-0.0095
775.8908	-0.0018
776.0642	-0.006
776.2376	-0.0062
776.4109	-0.0114
776.5843	-0.0031
776.7576	0.0025
776.9309	0.0075
777.1041	0.0074
777.2774	0.0049
777.4506	-0.0112
777.6238	-0.0005
777.797	-0.0115
777.9702	-0.0073
778.1434	-0.003
778.3165	-0.0037
778.4896	-0.002
778.6627	0.0005
778.8358	0.0054
779.0089	0.0044
779.1819	-0.001
779.3549	0.0205
779.5279	0.0112
779.7009	-0.0002
779.8739	0.0154
780.0468	0.0021
780.2197	0.0075
780.3926	0.0067
780.5655	-0.0026
780.7384	0.0051
780.9112	0.0003
781.0841	-0.0035
781.2569	0.0049
781.4297	0.0061
781.6024	0.0017
781.7752	0.0081
781.9479	0.005
782.1206	0.0069
782.2933	-0.0108
782.466	0.0001
782.6386	0.0031
782.8113	-0.0021
782.9839	0.0096
783.1565	-0.0044
783.329	0.0023
783.5016	0.0004
783.6741	0.0083
783.8466	-0.0113
784.0191	0.0059
784.1916	-0.0003
784.3641	-0.0083
784.5365	0.0116
784.7089	-0.0061
784.8813	-0.0107
785.0537	-0.0074
785.2261	0.0036
785.3984	-0.0114
785.5707	-0.0043
785.743	-0.0014
785.9153	-0.0062
786.0876	-0.0109
786.2598	-0.0129
786.432	-0.0091
786.6042	0.0046
786.7764	-0.0043
786.9486	-0.0097
787.1207	-0.0119
787.2928	0.0023
787.4649	-0.008
787.637	-0.0075
787.8091	-0.0064
787.9811	-0.0061
788.1532	-0.0021
788.3252	0.0117
788.4972	0.0008
788.6691	0.004
788.8411	-0.0036
789.013	-0.0026
789.1849	0.0069
789.3568	0.0021
789.5287	-0.0067
789.7005	0.0022
789.8723	0.0031
790.0442	0.0229
790.2159	0.0056
790.3877	0.0069
790.5595	-0.0117
790.7312	0.0112
790.9029	0.0024
791.0746	-0.0137
791.2463	-0.0101
791.4179	-0.0104
791.5896	-0.0144
791.7612	-0.0099
791.9328	-0.0042
792.1044	-0.0067
792.2759	-0.0169
792.4474	-0.0139
792.619	-0.0001
792.7905	0.0049
792.9619	-0.0143
793.1334	-0.0041
793.3048	0.0015
793.4762	-0.0027
793.6476	0.0032
793.819	-0.0184
793.9904	0.0086
794.1617	-0.0112
794.333	0.0125
794.5043	-0.0011
794.6756	0.002
794.8469	-0.0155
795.0181	-0.0004
795.1893	-0.0078
795.3605	0.0031
795.5317	-0.0101
795.7029	-0.0267
795.874	-0.002
796.0452	-0.0211
796.2163	-0.0098
796.3873	-0.0025
796.5584	-0.0036
796.7294	-0.0019
796.9005	0.0075
797.0715	0.0015
797.2425	-0.0183
797.4134	-0.0102
797.5844	-0.0092
797.7553	-0.0111
797.9262	-0.0138
798.0971	-0.0306
798.2679	-0.0166
798.4388	-0.022
798.6096	-0.0144
798.7804	-0.0059
798.9512	-0.0199
799.122	-0.0217
799.2927	-0.0215
799.4635	0.0014
799.6342	-0.0401
799.8049	-0.0174
799.9755	-0.0108
800.1462	-0.0157
800.3168	0.0024
800.4874	0.0036
800.658	0.0139
800.8286	0.005
800.9991	0.0124
801.1696	0.009
801.3402	0.0005
801.5106	-0.0092
801.6811	0.0081
801.8516	0.0085
802.022	-0.003
802.1924	0.0096
802.3628	0.005
802.5332	-0.0062
802.7035	0.0003
802.8739	-0.0159
803.0442	-0.0148
803.2145	0.0028
803.3847	-0.0336
803.555	-0.0129
803.7252	-0.0123
803.8954	-0.0241
804.0656	-0.0483
804.2358	-0.0253
804.4059	-0.0123
804.5761	-0.0082
804.7462	-0.0109
804.9163	-0.0236
805.0864	-0.0152
805.2564	-0.0208
805.4264	-0.0023
805.5965	-0.0055
805.7665	-0.0111
805.9364	-0.0052
806.1064	0.0032
806.2763	-0.0121
806.4462	0.0123
806.6161	-0.0074
806.786	-0.0001
806.9559	-0.0022
807.1257	-0.01
807.2955	-0.0057
807.4653	-0.0044
807.6351	-0.0034
807.8048	0.0043
807.9746	0.0032
808.1443	0.0024
808.314	-0.012
808.4837	-0.0195
808.6533	-0.0135
808.8229	0.001
808.9926	-0.0014
809.1622	-0.0124
809.3317	-0.0097
809.5013	-0.0141
809.6708	-0.0045
809.8403	-0.0173
810.0098	-0.0082
810.1793	-0.0175
810.3488	0.0087
810.5182	-0.0334
810.6876	-0.0067
810.857	-0.006
811.0264	0.0078
811.1958	-0.014
811.3651	-0.0069
811.5344	-0.0036
811.7037	-0.0115
811.873	-0.005
812.0422	-0.0126
812.2115	-0.0036
812.3807	-0.0237
812.5499	-0.0333
812.7191	-0.0118
812.8882	-0.0298
813.0574	-0.007
813.2265	-0.0143
813.3956	0.0083
813.5646	-0.0167
813.7337	-0.0245
813.9027	0.0017
814.0718	0.0042
814.2407	0.0104
814.4097	-0.0054
814.5787	-0.0207
814.7476	-0.0105
814.9165	0.01
815.0854	-0.0115
815.2543	-0.0007
815.4232	-0.0162
815.592	0.0024
815.7608	0.0004
815.9296	-0.0089
816.0984	0.0016
816.2671	-0.0058
816.4359	-0.0208
816.6046	0.019
816.7733	-0.014
816.942	-0.0426
817.1106	0.0004
817.2793	-0.014
817.4479	-0.0158
817.6165	-0.0102
817.785	-0.0123
817.9536	-0.015
818.1221	-0.0212
818.2906	-0.0171
818.4591	-0.0044
818.6276	-0.0264
818.7961	-0.032
818.9645	-0.0087
819.1329	-0.0065
819.3013	0.0063
819.4697	0.0085
819.638	-0.0238
819.8064	-0.0036
819.9747	-0.0119
820.143	-0.0195
820.3113	-0.0287
820.4795	-0.0279
820.6477	-0.0154
820.816	-0.0006
820.9842	-0.0088
821.1523	0.0133
821.3205	-0.021
821.4886	-0.0305
821.6567	-0.0174
821.8248	0.0015
821.9929	-0.0217
822.1609	-0.0128
822.329	0.0263
822.497	-0.0006
822.665	-0.015
822.833	0.0147
823.0009	-0.0017
823.1688	0.0051
823.3367	0.0214
823.5046	0.0021
823.6725	0.031
823.8404	-0.0176
824.0082	-0.0064
824.176	0.0295
824.3438	0.018
824.5116	-0.0073
824.6793	0.0169
824.847	-0.0224
825.0147	-0.0291
825.1824	0.0131
825.3501	0.0065
825.5177	-0.0029
825.6854	-0.0334
825.853	-0.0166
826.0206	-0.0229
826.1881	-0.0096
826.3557	-0.0352
826.5232	0.0081
826.6907	-0.0239
826.8582	-0.0061
827.0257	-0.0374
827.1931	-0.0025
827.3605	-0.0123
827.528	-0.0153
827.6953	-0.0079
827.8627	0.0025
828.03	0.0085
828.1974	-0.0363
828.3647	-0.042
828.532	-0.0027
828.6992	-0.0205
828.8665	-0.0107
829.0337	-0.0205
829.2009	0.0186
829.3681	-0.0332
829.5352	0.0228
829.7024	-0.0114
829.8695	-0.0642
830.0366	0.0478
830.2037	-0.0221
830.3707	0.0246
830.5378	-0.0511
830.7048	0.003
830.8718	-0.0153
831.0388	-0.035
831.2057	0.0272
831.3727	0.0097
831.5396	-0.0342
831.7065	-0.0222
831.8734	0.0008
832.0402	-0.0098
832.2071	-0.026
832.3739	-0.0209
832.5407	-0.0051
832.7075	-0.0392
832.8742	-0.0322
833.041	-0.0611
833.2077	0.0133
833.3744	-0.0045
833.541	-0.0221
833.7077	-0.0072
833.8743	-0.0133
834.0409	-0.0224
834.2075	-0.0153
834.3741	-0.0397
834.5407	-0.0104
834.7072	-0.0455
834.8737	0.0016
835.0402	-0.011
835.2067	0.0059
835.3731	-0.0407
835.5395	-0.0288
835.706	0.0269
835.8723	-0.0422
836.0387	-0.0266
836.2051	-0.0569
836.3714	-0.0158
836.5377	-0.0113
836.704	-0.0608
836.8703	-0.023
837.0365	-0.0077
837.2027	-0.0649
837.3689	0.0231
837.5351	-0.0266
837.7013	-0.0047
837.8674	-0.0654
838.0335	-0.0381
838.1997	-0.0363
838.3657	-0.044
838.5318	-0.0466
838.6978	0.009
838.8639	0.0515
839.0299	-0.0431
839.1958	-0.04
839.3618	-0.0206
839.5277	-0.0005
839.6937	0.007
839.8596	-0.062
840.0254	-0.0127
840.1913	-0.0361
840.3571	0.0128
840.523	-0.0459
840.6888	-0.0126
840.8545	0.0092
841.0203	-0.0333
841.186	0.0125
841.3517	-0.0076
841.5174	-0.0134
841.6831	-0.0375
841.8488	-0.0023
842.0144	-0.0051
842.18	-0.0378
842.3456	0.0051
842.5112	-0.0056
842.6767	-0.0327
842.8422	0.0047
843.0077	0.0369
843.1732	-0.0782
843.3387	0.0096
843.5042	-0.0076
843.6696	-0.0655
843.835	0.0226
844.0004	0.0698
844.1657	-0.0259
844.3311	-0.0222
844.4964	-0.0903
844.6617	-0.0307
844.827	-0.0287
844.9923	-0.0086
845.1575	-0.0019
845.3227	0.0218
845.4879	-0.0236
845.6531	-0.0778
845.8183	-0.1218
845.9834	-0.0044
846.1485	-0.0623
846.3136	-0.0949
846.4787	-0.0802
846.6438	-0.0066
846.8088	-0.0511
846.9738	-0.1001
847.1388	-0.0537
847.3038	0.0083
847.4687	-0.1878
847.6337	-0.0185
847.7986	-0.0543
847.9635	-0.0388
848.1284	-0.0323
848.2932	0.0567
848.458	0.0253
848.6228	0.0368
848.7876	0.0434
848.9524	-0.0162
849.1172	-0.1046
849.2819	0.0062
849.4466	-0.0981
849.6113	-0.1695
849.7759	-0.0926
849.9406	-0.0586
850.1052	-0.0158
850.2698	-0.0594
850.4344	-0.0089
850.599	-0.0901
850.7635	0.0452
850.928	-0.1189
851.0925	-0.0396
851.257	-0.0234
851.4215	-0.0383
851.5859	0.0098
851.7503	-0.0145
851.9147	-0.0249
852.0791	-0.0694
852.2434	-0.0356
852.4078	0.0263
852.5721	0.0449
852.7364	-0.0653
852.9007	-0.2062
853.0649	0.0189
853.2291	-0.0766
853.3934	-0.0036
853.5575	-0.0187
853.7217	-0.1212
853.8859	-0.0871
854.05	-0.0852
854.2141	0.0335
854.3782	-0.0695
854.5423	-0.0686
854.7063	0.0583
854.8703	0.09
855.0343	0.0174
855.1983	-0.1629
855.3623	0.0801
855.5262	-0.0433
855.6901	-0.0497
855.854	0.0178
856.0179	-0.0228
856.1818	0.0776
856.3456	-0.0984
856.5094	-0.0958
856.6732	-0.1863
856.837	-0.1273
857.0008	0.0155
857.1645	-0.0791
857.3282	-0.271
857.4919	0.1352
857.6556	0.01
857.8192	-0.0957
857.9828	-0.0548
858.1465	0.0471
858.31	-0.1864
858.4736	-0.1513
858.6372	-0.3593
858.8007	-0.2654
858.9642	-0.1606
859.1277	0.1398
859.2911	0.0832
859.4546	-0.0819
859.618	-0.4435
859.7814	-0.1161
859.9448	-0.0357
860.1081	-0.0798
860.2715	0.1574
860.4348	0.0039
860.5981	-0.0875
860.7614	0.1857
860.9246	-0.2665
861.0879	-0.2683
861.2511	0.03
861.4143	-0.1077
861.5774	0.083
861.7406	-0.1152
861.9037	0.0615
862.0668	-0.0767
862.2299	-0.3097
862.393	-0.497
862.556	-0.0498
862.7191	-0.2917
862.8821	-0.2838
863.0451	-0.0916
863.208	-0.0147
863.371	-0.0409
863.5339	-0.0493
863.6968	-0.1437
863.8597	-0.0881
864.0225	-0.2993
864.1854	-0.1079
864.3482	-0.1639
864.511	0.0892
864.6737	0.1417
864.8365	0.0107
864.9992	-0.4708
865.1619	-0.3963
865.3246	-0.0222
865.4873	0.0436
865.65	0.8757
865.8126	0.1315
865.9752	0.0362
866.1378	0.0566
866.3004	0.2445
866.4629	0.0056
866.6254	-0.0919
866.7879	0.0239
866.9504	0.475
867.1129	-0
867.2753	-0.0177
867.4377	0.1257
867.6001	-0.3495
867.7625	-0.0437
867.9249	-0.4254
868.0872	-0.0972
868.2495	-0.0324
868.4118	-0.2471
868.5741	-0.5355
868.7363	-0.2049
868.8986	-0.2559
869.0608	-0.1594
869.223	0.1427
869.3851	-0
869.5473	-0.1955
869.7094	0.0124
869.8715	-0
870.0336	-0
870.1957	-0.5461
870.3577	-1.2316
870.5197	-0.3478
870.6817	0.3836
870.8437	-0.1671
871.0057	-0
871.1676	0.1179
871.3295	0.121
871.4914	-0
871.6533	-0.5648
871.8151	-0
871.977	-0
872.1388	-0
872.3006	-0
872.4623	-0
872.6241	0.0781
872.7858	0.2118
872.9475	-0.381
873.1092	-0.1164
873.2709	0.2511
873.4325	-0.0745
873.5941	-0.7136
873.7557	-0
873.9173	-0
874.0789	-0.7566
874.2404	-0.1761
874.4019	0.1518
874.5634	-0.3342
874.7249	0.0039
874.8863	-0.1977
875.0478	0.2173
875.2092	-0
875.3706	0.3721
875.5319	-1.1047
875.6933	-0
875.8546	-0.013
876.0159	0.1752
876.1772	-0
876.3385	-0
876.4997	0.1301
876.6609	-0.4998
876.8221	-0
876.9833	0.293
877.1445	-0
877.3056	0.1421
877.4667	-0.0609
877.6278	-0
877.7889	-0.7918
877.9499	-0
878.111	-0.2758
878.272	-0
878.433	0.3909
878.5939	-0
878.7549	-0.2914
878.9158	-0
879.0767	0.464
879.2376	-0
879.3984	-0.3623
879.5593	-0
879.7201	-0.0925
879.8809	-0.8664
880.0417	-0.3724
880.2024	-0
880.3632	-0.6532
880.5239	0.2989
880.6846	0.8569
880.8452	-2.7941
881.0059	-0.8751
881.1665	0.5031
881.3271	0.2013
881.4877	0.3305
881.6483	-0.5944
881.8088	-0.5116
881.9693	-0
882.1298	-0
882.2903	-0
