Data from MonoPyChalIsomerACN10uM420nmA_Absorbance_15-09-55-534.txt Node
Date: Fri Jul 05 15:09:55 BST 2024
User: LASERRRRR
Spectrometer: FLMT03099
Trigger mode: 0
Integration Time (sec): 1.000000E-1
Scans to average: 1
Electric dark correction enabled: true
Nonlinearity correction enabled: false
Boxcar width: 0
XAxis mode: Wavelengths
Number of Pixels in Spectrum: 3648
>>>>>Begin Spectral Data<<<<<
179.3399	0.29
179.5586	0.29
179.7771	0.29
179.9957	-0.235
180.2143	-0
180.4329	0.1768
180.6514	-0
180.8699	-0
181.0885	-0.3264
181.307	0.4561
181.5255	-0
181.744	-0.6315
181.9625	-0.2147
182.181	0.4607
182.3994	-0
182.6179	-0
182.8363	-0.0754
183.0547	0.3594
183.2732	-0.018
183.4916	0.0902
183.71	0.3321
183.9284	0.4014
184.1467	-0.1324
184.3651	0.002
184.5835	0.1586
184.8018	0.0639
185.0201	-0.07
185.2385	-0.0463
185.4568	0.0521
185.6751	0.0997
185.8934	0.0015
186.1117	0.0885
186.3299	0.1135
186.5482	0.1378
186.7664	-0.2725
186.9847	-0.0659
187.2029	0.2014
187.4211	0.1255
187.6393	0.013
187.8575	-0.0689
188.0757	0.1131
188.2939	0.0804
188.512	0.0198
188.7302	0.1087
188.9483	0.4228
189.1665	0.0603
189.3846	-0.1454
189.6027	0.2965
189.8208	0.1134
190.0389	-0.0432
190.257	0.0976
190.475	0.1779
190.6931	0.1331
190.9111	0.4303
191.1292	0.1031
191.3472	0.2537
191.5652	0.2716
191.7832	0.1089
192.0012	0.3337
192.2192	0.3815
192.4371	0.7757
192.6551	0.6171
192.873	0.3438
193.091	0.4752
193.3089	0.4007
193.5268	0.5223
193.7447	0.5014
193.9626	0.5359
194.1805	0.4857
194.3984	0.7674
194.6162	0.5428
194.8341	0.5564
195.0519	0.5277
195.2697	0.6087
195.4875	0.5181
195.7054	0.6318
195.9231	0.5793
196.1409	0.4748
196.3587	0.7248
196.5765	0.7188
196.7942	0.745
197.012	0.4929
197.2297	0.6003
197.4474	0.5472
197.6651	0.4807
197.8828	0.5828
198.1005	0.5139
198.3182	0.5543
198.5358	0.7548
198.7535	0.6038
198.9711	0.621
199.1888	0.7184
199.4064	0.8336
199.624	0.4596
199.8416	0.4879
200.0592	0.5409
200.2767	0.6918
200.4943	0.6742
200.7119	0.7716
200.9294	0.7391
201.1469	0.5346
201.3645	0.6327
201.582	0.5214
201.7995	0.662
202.017	0.6324
202.2344	0.5269
202.4519	0.6545
202.6694	0.6346
202.8868	0.6621
203.1042	0.6576
203.3217	0.6044
203.5391	0.5212
203.7565	0.5492
203.9739	0.6248
204.1913	0.7187
204.4086	0.6806
204.626	0.7172
204.8433	0.6253
205.0607	0.6265
205.278	0.5929
205.4953	0.6026
205.7126	0.6265
205.9299	0.6676
206.1472	0.7672
206.3644	0.6263
206.5817	0.6768
206.7989	0.6654
207.0162	0.679
207.2334	0.7116
207.4506	0.7076
207.6678	0.7015
207.885	0.6521
208.1022	0.6383
208.3194	0.6717
208.5365	0.6389
208.7537	0.6576
208.9708	0.5806
209.1879	0.6619
209.405	0.6667
209.6222	0.6425
209.8392	0.6382
210.0563	0.5933
210.2734	0.684
210.4905	0.641
210.7075	0.5812
210.9245	0.5801
211.1416	0.7216
211.3586	0.6423
211.5756	0.5701
211.7926	0.6161
212.0096	0.6542
212.2265	0.5363
212.4435	0.5681
212.6604	0.5733
212.8774	0.6298
213.0943	0.6181
213.3112	0.568
213.5281	0.5457
213.745	0.5178
213.9619	0.4998
214.1788	0.5309
214.3956	0.4845
214.6125	0.4614
214.8293	0.4592
215.0461	0.4824
215.2629	0.456
215.4798	0.4937
215.6965	0.3943
215.9133	0.4803
216.1301	0.4085
216.3469	0.4278
216.5636	0.4127
216.7803	0.3685
216.9971	0.4177
217.2138	0.3561
217.4305	0.4001
217.6472	0.3614
217.8639	0.3698
218.0805	0.3658
218.2972	0.3333
218.5138	0.3219
218.7305	0.3231
218.9471	0.3243
219.1637	0.2942
219.3803	0.3039
219.5969	0.2562
219.8135	0.2387
220.0301	0.2724
220.2466	0.2694
220.4632	0.2788
220.6797	0.2277
220.8962	0.2334
221.1127	0.2511
221.3292	0.2709
221.5457	0.2494
221.7622	0.241
221.9787	0.2455
222.1951	0.2459
222.4116	0.2579
222.628	0.244
222.8444	0.2742
223.0608	0.2517
223.2772	0.2635
223.4936	0.2453
223.71	0.2475
223.9264	0.2839
224.1427	0.2394
224.3591	0.241
224.5754	0.2646
224.7917	0.2514
225.008	0.2556
225.2243	0.2432
225.4406	0.2763
225.6569	0.2756
225.8732	0.2705
226.0894	0.2538
226.3057	0.2684
226.5219	0.2835
226.7381	0.2718
226.9543	0.2772
227.1705	0.2834
227.3867	0.2955
227.6029	0.2931
227.8191	0.2899
228.0352	0.2843
228.2513	0.3193
228.4675	0.3216
228.6836	0.3043
228.8997	0.2895
229.1158	0.3094
229.3319	0.301
229.548	0.3125
229.764	0.3109
229.9801	0.3243
230.1961	0.3189
230.4121	0.3248
230.6282	0.3334
230.8442	0.3217
231.0602	0.3547
231.2761	0.3417
231.4921	0.3579
231.7081	0.3411
231.924	0.3522
232.14	0.353
232.3559	0.3408
232.5718	0.3757
232.7877	0.3471
233.0036	0.343
233.2195	0.3413
233.4353	0.3639
233.6512	0.3702
233.867	0.3632
234.0829	0.3582
234.2987	0.3573
234.5145	0.3903
234.7303	0.3552
234.9461	0.3896
235.1619	0.3795
235.3776	0.3965
235.5934	0.3862
235.8091	0.3296
236.0249	0.3777
236.2406	0.3909
236.4563	0.3826
236.672	0.367
236.8877	0.3899
237.1034	0.3892
237.319	0.3834
237.5347	0.3871
237.7503	0.399
237.966	0.3991
238.1816	0.3939
238.3972	0.407
238.6128	0.3859
238.8284	0.4125
239.0439	0.42
239.2595	0.4072
239.475	0.4126
239.6906	0.4067
239.9061	0.386
240.1216	0.3979
240.3371	0.4109
240.5526	0.3962
240.7681	0.4217
240.9836	0.4077
241.199	0.3836
241.4145	0.4008
241.6299	0.4022
241.8453	0.387
242.0607	0.3971
242.2761	0.3776
242.4915	0.391
242.7069	0.3815
242.9223	0.3638
243.1376	0.3698
243.353	0.3617
243.5683	0.3702
243.7836	0.3561
243.9989	0.3565
244.2142	0.3501
244.4295	0.3443
244.6448	0.341
244.86	0.321
245.0753	0.3208
245.2905	0.3145
245.5057	0.3097
245.721	0.3098
245.9362	0.2913
246.1514	0.2998
246.3665	0.2741
246.5817	0.2826
246.7969	0.2648
247.012	0.2638
247.2271	0.2548
247.4423	0.2529
247.6574	0.2566
247.8725	0.2645
248.0876	0.2501
248.3026	0.2393
248.5177	0.2424
248.7328	0.2306
248.9478	0.23
249.1628	0.2315
249.3779	0.2499
249.5929	0.21
249.8079	0.234
250.0228	0.2299
250.2378	0.2109
250.4528	0.2127
250.6677	0.196
250.8827	0.2098
251.0976	0.2141
251.3125	0.2077
251.5274	0.1787
251.7423	0.1916
251.9572	0.2039
252.172	0.1777
252.3869	0.1993
252.6017	0.186
252.8166	0.1852
253.0314	0.1725
253.2462	0.1849
253.461	0.1862
253.6758	0.1877
253.8906	0.1905
254.1053	0.1809
254.3201	0.1756
254.5348	0.1846
254.7496	0.186
254.9643	0.1789
255.179	0.1801
255.3937	0.1627
255.6083	0.1821
255.823	0.1854
256.0377	0.1796
256.2523	0.1742
256.467	0.1596
256.6816	0.1754
256.8962	0.1621
257.1108	0.1673
257.3254	0.1784
257.54	0.1724
257.7545	0.1602
257.9691	0.1774
258.1836	0.1737
258.3981	0.1912
258.6127	0.18
258.8272	0.1592
259.0417	0.1643
259.2561	0.1681
259.4706	0.1837
259.6851	0.1794
259.8995	0.1656
260.114	0.1679
260.3284	0.1754
260.5428	0.1622
260.7572	0.1755
260.9716	0.1712
261.186	0.1622
261.4003	0.1722
261.6147	0.1753
261.829	0.1673
262.0433	0.1578
262.2577	0.1601
262.472	0.1722
262.6863	0.1571
262.9005	0.1715
263.1148	0.1646
263.3291	0.1582
263.5433	0.1732
263.7576	0.1737
263.9718	0.1658
264.186	0.1592
264.4002	0.1698
264.6144	0.1787
264.8286	0.1774
265.0427	0.1615
265.2569	0.1688
265.471	0.1643
265.6851	0.1738
265.8993	0.1635
266.1134	0.1632
266.3275	0.1716
266.5415	0.1702
266.7556	0.182
266.9697	0.1711
267.1837	0.1719
267.3978	0.1748
267.6118	0.1895
267.8258	0.1889
268.0398	0.1611
268.2538	0.1722
268.4677	0.1657
268.6817	0.1778
268.8957	0.1685
269.1096	0.1765
269.3235	0.1826
269.5374	0.1764
269.7514	0.1692
269.9652	0.1571
270.1791	0.1611
270.393	0.162
270.6068	0.1786
270.8207	0.1518
271.0345	0.1628
271.2483	0.1641
271.4622	0.1567
271.676	0.1752
271.8897	0.1536
272.1035	0.1591
272.3173	0.1516
272.531	0.1748
272.7448	0.1649
272.9585	0.1616
273.1722	0.1684
273.3859	0.1662
273.5996	0.1583
273.8133	0.1653
274.0269	0.1538
274.2406	0.1563
274.4542	0.1657
274.6679	0.1576
274.8815	0.1669
275.0951	0.1754
275.3087	0.1765
275.5223	0.1679
275.7358	0.18
275.9494	0.1742
276.1629	0.1497
276.3765	0.1627
276.59	0.1772
276.8035	0.1727
277.017	0.1653
277.2305	0.1537
277.444	0.1751
277.6574	0.1573
277.8709	0.1845
278.0843	0.1612
278.2978	0.1712
278.5112	0.1624
278.7246	0.1759
278.938	0.1776
279.1513	0.1644
279.3647	0.1706
279.5781	0.1614
279.7914	0.1767
280.0047	0.1848
280.2181	0.1705
280.4314	0.1698
280.6447	0.181
280.8579	0.1793
281.0712	0.1716
281.2845	0.177
281.4977	0.1775
281.711	0.1628
281.9242	0.1755
282.1374	0.1724
282.3506	0.1674
282.5638	0.1816
282.7769	0.171
282.9901	0.1651
283.2033	0.1856
283.4164	0.1739
283.6295	0.1656
283.8426	0.1642
284.0557	0.1639
284.2688	0.1838
284.4819	0.1688
284.695	0.1696
284.908	0.1726
285.1211	0.1626
285.3341	0.1633
285.5471	0.1723
285.7601	0.163
285.9731	0.1553
286.1861	0.1522
286.3991	0.1704
286.612	0.1589
286.825	0.164
287.0379	0.1697
287.2508	0.1591
287.4637	0.1677
287.6766	0.1409
287.8895	0.1702
288.1024	0.1783
288.3152	0.162
288.5281	0.1476
288.7409	0.1628
288.9538	0.1585
289.1666	0.163
289.3794	0.1573
289.5922	0.1546
289.8049	0.1554
290.0177	0.1555
290.2304	0.16
290.4432	0.1576
290.6559	0.1555
290.8686	0.1674
291.0813	0.1509
291.294	0.1488
291.5067	0.1597
291.7194	0.1528
291.932	0.1758
292.1447	0.1514
292.3573	0.1579
292.5699	0.1466
292.7825	0.1459
292.9951	0.1582
293.2077	0.1534
293.4203	0.1486
293.6328	0.1403
293.8454	0.1628
294.0579	0.1503
294.2704	0.1525
294.4829	0.138
294.6954	0.1512
294.9079	0.1495
295.1204	0.1524
295.3328	0.1336
295.5453	0.1504
295.7577	0.1501
295.9701	0.1418
296.1825	0.1498
296.3949	0.1502
296.6073	0.1482
296.8197	0.1475
297.0321	0.1601
297.2444	0.1395
297.4567	0.1603
297.6691	0.1447
297.8814	0.1333
298.0937	0.1383
298.306	0.161
298.5182	0.1511
298.7305	0.1574
298.9428	0.1511
299.155	0.1526
299.3672	0.1482
299.5794	0.1407
299.7916	0.1466
300.0038	0.1514
300.216	0.1488
300.4282	0.1571
300.6403	0.1413
300.8525	0.1572
301.0646	0.1455
301.2767	0.1505
301.4888	0.1566
301.7009	0.1544
301.913	0.1488
302.125	0.1478
302.3371	0.1484
302.5491	0.1411
302.7612	0.1486
302.9732	0.1504
303.1852	0.1618
303.3972	0.1424
303.6092	0.1414
303.8211	0.1508
304.0331	0.1412
304.245	0.1352
304.457	0.1385
304.6689	0.1356
304.8808	0.1473
305.0927	0.1424
305.3046	0.1393
305.5164	0.1413
305.7283	0.1425
305.9401	0.1448
306.152	0.133
306.3638	0.1476
306.5756	0.1377
306.7874	0.1421
306.9992	0.1494
307.2109	0.1351
307.4227	0.1223
307.6344	0.1417
307.8462	0.1344
308.0579	0.1367
308.2696	0.1261
308.4813	0.1268
308.693	0.128
308.9046	0.125
309.1163	0.1256
309.328	0.1265
309.5396	0.111
309.7512	0.1076
309.9628	0.1243
310.1744	0.1179
310.386	0.1181
310.5976	0.1196
310.8091	0.1129
311.0207	0.1235
311.2322	0.1276
311.4437	0.1179
311.6552	0.104
311.8667	0.1278
312.0782	0.1055
312.2897	0.1115
312.5012	0.1214
312.7126	0.1045
312.924	0.1058
313.1355	0.1175
313.3469	0.1151
313.5583	0.1179
313.7696	0.112
313.981	0.1116
314.1924	0.1044
314.4037	0.108
314.6151	0.1228
314.8264	0.1086
315.0377	0.1088
315.249	0.1086
315.4603	0.1219
315.6716	0.1153
315.8828	0.1093
316.0941	0.1038
316.3053	0.1003
316.5165	0.1057
316.7277	0.1074
316.9389	0.1112
317.1501	0.0989
317.3613	0.1103
317.5724	0.105
317.7836	0.1067
317.9947	0.119
318.2058	0.1054
318.417	0.1109
318.6281	0.0977
318.8391	0.0999
319.0502	0.1032
319.2613	0.1096
319.4723	0.1218
319.6834	0.1144
319.8944	0.0964
320.1054	0.1132
320.3164	0.0995
320.5274	0.108
320.7383	0.1015
320.9493	0.1063
321.1602	0.1288
321.3712	0.0965
321.5821	0.1096
321.793	0.1092
322.0039	0.1124
322.2148	0.1194
322.4257	0.1265
322.6365	0.1229
322.8474	0.1203
323.0582	0.1137
323.269	0.1192
323.4798	0.1228
323.6906	0.1225
323.9014	0.1099
324.1122	0.1245
324.3229	0.1262
324.5337	0.1197
324.7444	0.1108
324.9551	0.1283
325.1658	0.1218
325.3765	0.1305
325.5872	0.1167
325.7979	0.1101
326.0085	0.1282
326.2192	0.1222
326.4298	0.121
326.6404	0.1118
326.851	0.1146
327.0616	0.1096
327.2722	0.1171
327.4828	0.1219
327.6933	0.1143
327.9039	0.1283
328.1144	0.1276
328.3249	0.1256
328.5354	0.1079
328.7459	0.1129
328.9564	0.1146
329.1669	0.112
329.3773	0.1307
329.5878	0.1276
329.7982	0.1186
330.0086	0.1227
330.219	0.1279
330.4294	0.1306
330.6398	0.1321
330.8502	0.1128
331.0605	0.1225
331.2708	0.119
331.4812	0.1254
331.6915	0.124
331.9018	0.1125
332.1121	0.1274
332.3224	0.1163
332.5326	0.1307
332.7429	0.1195
332.9531	0.1304
333.1633	0.1163
333.3735	0.1179
333.5837	0.1206
333.7939	0.1116
334.0041	0.1291
334.2143	0.1229
334.4244	0.1284
334.6346	0.1073
334.8447	0.1343
335.0548	0.1225
335.2649	0.1252
335.475	0.1312
335.685	0.1295
335.8951	0.1389
336.1051	0.1256
336.3152	0.1224
336.5252	0.1198
336.7352	0.1225
336.9452	0.1268
337.1552	0.1229
337.3652	0.1308
337.5751	0.1243
337.7851	0.1255
337.995	0.115
338.2049	0.1195
338.4148	0.1276
338.6247	0.1376
338.8346	0.129
339.0445	0.1154
339.2543	0.1225
339.4642	0.1327
339.674	0.1203
339.8838	0.1403
340.0936	0.1225
340.3034	0.1543
340.5132	0.1254
340.7229	0.1385
340.9327	0.1216
341.1424	0.1218
341.3522	0.1473
341.5619	0.1265
341.7716	0.1392
341.9813	0.1436
342.1909	0.1399
342.4006	0.1424
342.6102	0.1438
342.8199	0.1455
343.0295	0.1321
343.2391	0.1362
343.4487	0.1445
343.6583	0.1338
343.8679	0.1502
344.0774	0.1465
344.287	0.1583
344.4965	0.137
344.706	0.1383
344.9155	0.1348
345.125	0.1488
345.3345	0.1423
345.544	0.1401
345.7534	0.1438
345.9629	0.146
346.1723	0.139
346.3817	0.1347
346.5911	0.1426
346.8005	0.1536
347.0099	0.1342
347.2193	0.1424
347.4286	0.1351
347.638	0.1436
347.8473	0.1484
348.0566	0.1414
348.2659	0.1534
348.4752	0.1556
348.6845	0.1328
348.8937	0.1363
349.103	0.1516
349.3122	0.1337
349.5214	0.159
349.7306	0.1533
349.9398	0.1488
350.149	0.1478
350.3582	0.137
350.5674	0.153
350.7765	0.1445
350.9856	0.1398
351.1948	0.1464
351.4039	0.1456
351.613	0.137
351.822	0.1451
352.0311	0.1591
352.2402	0.1551
352.4492	0.1568
352.6582	0.1432
352.8672	0.163
353.0762	0.1462
353.2852	0.1494
353.4942	0.1495
353.7032	0.1516
353.9121	0.1482
354.1211	0.159
354.33	0.156
354.5389	0.1645
354.7478	0.1604
354.9567	0.1429
355.1655	0.1386
355.3744	0.1587
355.5833	0.1678
355.7921	0.1749
356.0009	0.1617
356.2097	0.1749
356.4185	0.1676
356.6273	0.1527
356.8361	0.1642
357.0448	0.1549
357.2536	0.1455
357.4623	0.1492
357.671	0.1775
357.8797	0.1655
358.0884	0.1654
358.2971	0.1588
358.5057	0.1767
358.7144	0.1788
358.923	0.1596
359.1316	0.166
359.3402	0.1864
359.5488	0.1688
359.7574	0.1681
359.966	0.1703
360.1746	0.176
360.3831	0.1777
360.5916	0.157
360.8002	0.1586
361.0087	0.1845
361.2172	0.1644
361.4256	0.1644
361.6341	0.1813
361.8426	0.1671
362.051	0.1847
362.2594	0.1662
362.4678	0.1701
362.6762	0.186
362.8846	0.1822
363.093	0.1784
363.3014	0.1713
363.5097	0.1706
363.718	0.1837
363.9264	0.1915
364.1347	0.1788
364.343	0.1739
364.5513	0.184
364.7595	0.183
364.9678	0.1727
365.176	0.1825
365.3842	0.176
365.5925	0.1754
365.8007	0.1854
366.0089	0.1864
366.217	0.1798
366.4252	0.1911
366.6333	0.203
366.8415	0.2003
367.0496	0.1798
367.2577	0.193
367.4658	0.1897
367.6739	0.1918
367.882	0.1827
368.09	0.1874
368.2981	0.1919
368.5061	0.1951
368.7141	0.1965
368.9221	0.1949
369.1301	0.1865
369.3381	0.1956
369.5461	0.1998
369.754	0.1917
369.962	0.1949
370.1699	0.1904
370.3778	0.1907
370.5857	0.1815
370.7936	0.2031
371.0015	0.1959
371.2093	0.195
371.4172	0.2066
371.625	0.1946
371.8328	0.1787
372.0406	0.1968
372.2484	0.1923
372.4562	0.2128
372.664	0.1994
372.8717	0.2092
373.0795	0.1773
373.2872	0.1991
373.4949	0.183
373.7026	0.2025
373.9103	0.2067
374.118	0.2031
374.3256	0.1992
374.5333	0.2088
374.7409	0.193
374.9485	0.2146
375.1561	0.1976
375.3637	0.2015
375.5713	0.2038
375.7789	0.1983
375.9864	0.2041
376.194	0.2008
376.4015	0.2164
376.609	0.2216
376.8165	0.1965
377.024	0.2118
377.2315	0.1969
377.4389	0.2008
377.6464	0.2128
377.8538	0.2176
378.0612	0.1923
378.2686	0.2135
378.476	0.2253
378.6834	0.2223
378.8908	0.2014
379.0981	0.1966
379.3055	0.2196
379.5128	0.1847
379.7201	0.2161
379.9274	0.2053
380.1347	0.1969
380.342	0.228
380.5492	0.1884
380.7565	0.2156
380.9637	0.2076
381.1709	0.2117
381.3781	0.2233
381.5853	0.2241
381.7925	0.2018
381.9997	0.2186
382.2068	0.2282
382.4139	0.2199
382.6211	0.1898
382.8282	0.1978
383.0353	0.1999
383.2424	0.1884
383.4494	0.2132
383.6565	0.2093
383.8635	0.2227
384.0706	0.2156
384.2776	0.2242
384.4846	0.2
384.6916	0.2098
384.8986	0.2054
385.1055	0.2123
385.3125	0.1939
385.5194	0.2092
385.7263	0.208
385.9333	0.2114
386.1402	0.2078
386.347	0.2
386.5539	0.186
386.7608	0.229
386.9676	0.188
387.1744	0.2014
387.3813	0.1962
387.5881	0.205
387.7948	0.203
388.0016	0.2022
388.2084	0.2073
388.4151	0.1983
388.6219	0.206
388.8286	0.2012
389.0353	0.2196
389.242	0.2116
389.4487	0.2107
389.6553	0.1915
389.862	0.1786
390.0686	0.196
390.2753	0.2002
390.4819	0.2031
390.6885	0.1956
390.8951	0.2028
391.1016	0.1836
391.3082	0.18
391.5147	0.1845
391.7213	0.1913
391.9278	0.1954
392.1343	0.199
392.3408	0.1913
392.5473	0.1776
392.7537	0.1857
392.9602	0.1703
393.1666	0.1827
393.373	0.1796
393.5794	0.1979
393.7858	0.1993
393.9922	0.1616
394.1986	0.194
394.4049	0.1758
394.6113	0.1787
394.8176	0.1695
395.0239	0.1741
395.2302	0.1732
395.4365	0.1765
395.6428	0.1784
395.8491	0.1724
396.0553	0.1777
396.2615	0.1651
396.4678	0.1738
396.674	0.1547
396.8802	0.1763
397.0863	0.1817
397.2925	0.1564
397.4987	0.1651
397.7048	0.1654
397.9109	0.163
398.117	0.147
398.3231	0.1634
398.5292	0.1718
398.7353	0.18
398.9413	0.1721
399.1474	0.161
399.3534	0.1816
399.5594	0.1588
399.7654	0.1914
399.9714	0.1719
400.1774	0.1686
400.3833	0.1573
400.5893	0.1763
400.7952	0.1652
401.0011	0.1606
401.207	0.1707
401.4129	0.1622
401.6188	0.148
401.8247	0.1648
402.0305	0.1499
402.2364	0.1582
402.4422	0.1803
402.648	0.1865
402.8538	0.1821
403.0596	0.1554
403.2654	0.1767
403.4711	0.1705
403.6768	0.1688
403.8826	0.1815
404.0883	0.1753
404.294	0.1638
404.4997	0.1591
404.7054	0.1632
404.911	0.1638
405.1167	0.1735
405.3223	0.1806
405.5279	0.169
405.7335	0.1816
405.9391	0.1803
406.1447	0.1634
406.3502	0.166
406.5558	0.1711
406.7613	0.1628
406.9668	0.1728
407.1724	0.1537
407.3778	0.1602
407.5833	0.1618
407.7888	0.1435
407.9942	0.1749
408.1997	0.155
408.4051	0.1581
408.6105	0.1613
408.8159	0.155
409.0213	0.1633
409.2267	0.161
409.432	0.1615
409.6374	0.1727
409.8427	0.1593
410.048	0.1539
410.2533	0.1783
410.4586	0.1614
410.6639	0.1614
410.8691	0.1567
411.0744	0.1406
411.2796	0.1681
411.4848	0.1517
411.69	0.1477
411.8952	0.1714
412.1004	0.1515
412.3056	0.1626
412.5107	0.1395
412.7158	0.1782
412.921	0.1634
413.1261	0.1585
413.3312	0.1426
413.5362	0.1613
413.7413	0.1479
413.9464	0.1682
414.1514	0.1536
414.3564	0.1524
414.5614	0.1538
414.7664	0.1454
414.9714	0.1587
415.1764	0.153
415.3813	0.1475
415.5863	0.1516
415.7912	0.1565
415.9961	0.1576
416.201	0.1438
416.4059	0.1607
416.6108	0.1436
416.8156	0.1587
417.0205	0.1414
417.2253	0.151
417.4301	0.1541
417.6349	0.1524
417.8397	0.1345
418.0445	0.1429
418.2492	0.163
418.454	0.1519
418.6587	0.1515
418.8634	0.1514
419.0681	0.1465
419.2728	0.143
419.4775	0.1458
419.6822	0.1326
419.8868	0.1356
420.0915	0.1441
420.2961	0.1422
420.5007	0.1404
420.7053	0.1271
420.9099	0.1502
421.1144	0.153
421.319	0.1452
421.5235	0.1474
421.728	0.1375
421.9325	0.147
422.137	0.1537
422.3415	0.1364
422.546	0.1392
422.7504	0.1344
422.9549	0.1436
423.1593	0.1458
423.3637	0.1413
423.5681	0.1282
423.7725	0.1266
423.9769	0.1316
424.1812	0.1135
424.3856	0.1437
424.5899	0.1291
424.7942	0.1264
424.9985	0.1402
425.2028	0.1307
425.4071	0.1395
425.6113	0.1133
425.8156	0.1295
426.0198	0.1201
426.224	0.0996
426.4282	0.1194
426.6324	0.1139
426.8366	0.108
427.0407	0.1384
427.2449	0.1155
427.449	0.1401
427.6531	0.107
427.8572	0.1153
428.0613	0.1234
428.2654	0.1199
428.4694	0.1154
428.6735	0.1062
428.8775	0.1277
429.0815	0.1138
429.2855	0.1113
429.4895	0.1207
429.6935	0.1271
429.8975	0.116
430.1014	0.1101
430.3053	0.1107
430.5093	0.1043
430.7132	0.0947
430.9171	0.0939
431.1209	0.1118
431.3248	0.104
431.5286	0.1053
431.7325	0.1012
431.9363	0.1019
432.1401	0.1067
432.3439	0.0976
432.5477	0.0681
432.7514	0.08
432.9552	0.0908
433.1589	0.0748
433.3627	0.0927
433.5664	0.096
433.7701	0.0774
433.9737	0.0702
434.1774	0.0977
434.3811	0.0814
434.5847	0.0943
434.7883	0.0866
434.9919	0.086
435.1955	0.077
435.3991	0.075
435.6027	0.075
435.8062	0.0782
436.0098	0.0784
436.2133	0.0864
436.4168	0.0688
436.6203	0.0712
436.8238	0.0778
437.0272	0.0561
437.2307	0.0752
437.4341	0.0816
437.6375	0.0837
437.841	0.0555
438.0443	0.0637
438.2477	0.0616
438.4511	0.0453
438.6545	0.0709
438.8578	0.0734
439.0611	0.0595
439.2644	0.0668
439.4677	0.0586
439.671	0.0552
439.8743	0.0616
440.0775	0.0605
440.2808	0.0531
440.484	0.0468
440.6872	0.0313
440.8904	0.0458
441.0936	0.0601
441.2967	0.0537
441.4999	0.0519
441.703	0.0464
441.9062	0.0232
442.1093	0.0529
442.3124	0.0549
442.5155	0.0323
442.7185	0.0515
442.9216	0.0233
443.1246	0.0444
443.3276	0.0522
443.5307	0.0451
443.7337	0.0449
443.9366	0.0382
444.1396	0.0463
444.3426	0.0482
444.5455	0.0316
444.7484	0.0339
444.9513	0.0454
445.1542	0.0519
445.3571	0.0409
445.56	0.0292
445.7628	0.0151
445.9657	0.0282
446.1685	0.048
446.3713	0.0386
446.5741	0.0187
446.7769	0.0233
446.9797	0.0362
447.1824	0.0312
447.3852	0.032
447.5879	0.0346
447.7906	0.0332
447.9933	0.0393
448.196	0.0279
448.3986	0.0285
448.6013	0.0259
448.8039	-0.001
449.0066	0.019
449.2092	0.0268
449.4118	0.0249
449.6143	0.0186
449.8169	0.0069
450.0195	0.0238
450.222	-0.0047
450.4245	0.0297
450.627	0.0165
450.8295	0.0165
451.032	0.0223
451.2345	0.0129
451.4369	0.0211
451.6394	0.0219
451.8418	-0.0022
452.0442	0.0025
452.2466	0.0284
452.449	0.0102
452.6513	0.012
452.8537	0.0056
453.056	0.0087
453.2583	0.0051
453.4607	0.0219
453.663	0.0137
453.8652	0.0225
454.0675	0.0081
454.2697	0.0122
454.472	-0.0086
454.6742	-0.0052
454.8764	0.0158
455.0786	0.0249
455.2808	0.0004
455.4829	0.0154
455.6851	0.0069
455.8872	0.0102
456.0893	0.0127
456.2915	0.0068
456.4935	0.0199
456.6956	0.0213
456.8977	0.0037
457.0997	-0.0003
457.3018	0.0026
457.5038	0.0076
457.7058	0.0046
457.9078	0.0001
458.1098	0.0052
458.3117	0.0064
458.5137	0.004
458.7156	-0.0048
458.9175	0.0009
459.1194	0.0092
459.3213	-0.0024
459.5232	-0.011
459.725	0.0116
459.9269	-0.0102
460.1287	-0.0086
460.3305	0.0052
460.5323	-0.0029
460.7341	0.0089
460.9359	0.0082
461.1376	0.0028
461.3394	-0.0092
461.5411	0.0077
461.7428	-0.0012
461.9445	0.0274
462.1462	0.0223
462.3479	-0.0111
462.5495	-0.0001
462.7512	-0.0036
462.9528	-0.0003
463.1544	-0.0144
463.356	0.0063
463.5576	0.0058
463.7592	-0.0016
463.9607	0.0012
464.1623	0.008
464.3638	0.0169
464.5653	-0.0095
464.7668	-0.0002
464.9683	0.0093
465.1697	0.0109
465.3712	-0.0046
465.5726	-0.0057
465.7741	0.0009
465.9755	-0.005
466.1769	-0.0052
466.3782	-0.0049
466.5796	-0.0116
466.7809	0.0139
466.9823	-0.0134
467.1836	-0.0048
467.3849	-0.0118
467.5862	-0.0053
467.7875	-0.0019
467.9887	0.015
468.19	0.0005
468.3912	-0.0092
468.5924	-0.0066
468.7936	-0.009
468.9948	0.0054
469.196	0.003
469.3972	-0.0211
469.5983	-0.0163
469.7994	-0.0232
470.0006	-0.0004
470.2017	-0.0105
470.4027	-0.0077
470.6038	-0.0066
470.8049	-0.0229
471.0059	-0.02
471.2069	-0.0309
471.408	0.0002
471.6089	0.0045
471.8099	-0.0113
472.0109	-0.0073
472.2119	-0.0095
472.4128	-0.021
472.6137	-0.0039
472.8146	-0.0218
473.0155	-0.0027
473.2164	-0.0017
473.4173	-0.0076
473.6181	-0.0047
473.819	0.0017
474.0198	-0.0162
474.2206	-0.0089
474.4214	-0.0134
474.6222	-0.0166
474.8229	-0.0226
475.0237	-0.0147
475.2244	-0.0069
475.4251	-0.016
475.6258	-0.0161
475.8265	-0.0071
476.0272	0.0076
476.2278	-0.0078
476.4285	-0.0017
476.6291	-0.0085
476.8297	0.0001
477.0303	-0.0013
477.2309	-0.0052
477.4315	-0.0293
477.632	-0.0106
477.8326	-0.0115
478.0331	-0.0088
478.2336	0.0058
478.4341	-0.0192
478.6346	-0.0059
478.8351	-0.0147
479.0355	-0.0016
479.236	-0.0093
479.4364	0.0043
479.6368	-0.0116
479.8372	-0.0105
480.0376	-0.0012
480.2379	-0.0243
480.4383	-0.0192
480.6386	0.0016
480.8389	-0.0017
481.0392	-0.0158
481.2395	-0.0099
481.4398	0.0116
481.6401	0.0041
481.8403	-0.0084
482.0405	-0.0122
482.2408	-0.018
482.441	0.0086
482.6411	-0.0071
482.8413	-0.0072
483.0415	-0.0093
483.2416	-0.003
483.4417	0.0054
483.6419	-0.011
483.8419	-0.0145
484.042	0.0028
484.2421	-0.0036
484.4422	-0.0035
484.6422	-0.0106
484.8422	-0.0039
485.0422	-0.0092
485.2422	-0.0007
485.4422	-0.0081
485.6422	-0.0153
485.8421	0.0016
486.042	-0.0073
486.242	-0.0095
486.4419	-0.0107
486.6417	-0.0117
486.8416	-0.0047
487.0415	-0.005
487.2413	-0.0094
487.4411	-0.007
487.641	-0.0096
487.8408	-0.0033
488.0405	-0.0184
488.2403	-0.0117
488.4401	0.0009
488.6398	-0.0002
488.8395	-0.0081
489.0392	-0.0076
489.2389	-0.0081
489.4386	-0.0081
489.6383	-0.0039
489.8379	-0.0054
490.0376	-0.0096
490.2372	-0.0091
490.4368	-0.0071
490.6364	-0.0156
490.836	-0.0087
491.0355	-0.0096
491.2351	-0.0135
491.4346	-0.0013
491.6341	-0.0186
491.8336	-0.0047
492.0331	-0.0154
492.2326	-0.0101
492.432	-0.001
492.6315	-0.0125
492.8309	-0.0061
493.0303	-0.0136
493.2297	-0.0124
493.4291	0.0007
493.6284	-0.0051
493.8278	-0.0152
494.0271	0
494.2264	0.0082
494.4257	-0.0123
494.625	-0.008
494.8243	-0.015
495.0236	-0.0107
495.2228	-0.0207
495.422	-0.0106
495.6213	-0.0127
495.8205	-0.0072
496.0196	-0.0026
496.2188	-0.0077
496.418	-0.0208
496.6171	-0.0103
496.8162	-0.011
497.0153	-0.0043
497.2144	-0.0077
497.4135	-0.0128
497.6126	-0.014
497.8116	-0.0113
498.0107	-0.0038
498.2097	-0.0069
498.4087	-0.008
498.6077	-0.0021
498.8067	-0.0144
499.0056	0.001
499.2046	-0.0136
499.4035	-0.0147
499.6024	-0.002
499.8013	-0.0128
500.0002	-0.0167
500.199	-0.0049
500.3979	-0.014
500.5967	-0.0209
500.7956	-0.0006
500.9944	-0.0158
501.1932	-0.0078
501.3919	-0.0201
501.5907	-0.0156
501.7895	-0.0034
501.9882	-0.0142
502.1869	-0.0081
502.3856	-0.0184
502.5843	-0.024
502.783	-0.0161
502.9816	-0.0075
503.1803	-0.0203
503.3789	-0.0131
503.5775	-0.0032
503.7761	-0.006
503.9747	-0.0083
504.1732	-0.0075
504.3718	-0.0017
504.5703	-0.0129
504.7689	-0.01
504.9674	-0.0067
505.1658	-0.0225
505.3643	-0.0091
505.5628	-0.0177
505.7612	-0.0111
505.9597	0.0048
506.1581	-0.0151
506.3565	-0.0043
506.5549	-0.0067
506.7532	-0.0144
506.9516	-0.0103
507.1499	-0.0143
507.3482	-0.0122
507.5465	-0.0139
507.7448	-0.0106
507.9431	-0.0043
508.1414	-0.0092
508.3396	-0.0108
508.5379	-0.014
508.7361	-0.0184
508.9343	-0.0136
509.1325	-0.0097
509.3306	-0.0059
509.5288	-0.0124
509.7269	-0.0128
509.9251	-0.0096
510.1232	-0.0095
510.3213	-0.0078
510.5193	-0.0041
510.7174	-0.0121
510.9154	-0.006
511.1135	-0.0051
511.3115	-0.0106
511.5095	-0.0188
511.7075	-0.0051
511.9055	-0.0111
512.1034	-0.0025
512.3014	0.0043
512.4993	-0.0002
512.6972	-0.017
512.8951	-0.0266
513.093	-0.0082
513.2908	-0.0115
513.4887	-0.0104
513.6865	-0.0115
513.8844	-0.0104
514.0822	-0.0123
514.2799	-0.0167
514.4777	-0.0138
514.6755	-0.0121
514.8732	-0.011
515.0709	-0.012
515.2687	-0.0134
515.4664	-0.0059
515.664	-0.0076
515.8617	-0.0091
516.0594	-0.0133
516.257	-0.0058
516.4546	-0.0137
516.6522	-0.009
516.8498	-0.013
517.0474	0.002
517.2449	0.0019
517.4425	-0.0178
517.64	-0.0006
517.8375	0.0007
518.035	0.0024
518.2325	-0.0036
518.43	-0.0109
518.6274	-0.0065
518.8249	-0.0185
519.0223	-0.0048
519.2197	-0.0136
519.4171	-0.0138
519.6145	-0.0086
519.8118	-0.0002
520.0092	-0.0067
520.2065	-0.0232
520.4038	-0.0176
520.6011	-0.0079
520.7984	-0.02
520.9956	-0.0102
521.1929	-0.0136
521.3901	0.002
521.5874	-0.0036
521.7846	-0.0076
521.9818	-0.0048
522.1789	-0.0093
522.3761	-0.0032
522.5732	-0.0108
522.7704	-0.013
522.9675	-0.0167
523.1646	-0.0122
523.3617	0.0003
523.5587	-0.0039
523.7558	-0.0082
523.9528	-0.0058
524.1498	-0.008
524.3468	-0.0138
524.5438	-0.0199
524.7408	-0.0188
524.9378	0.0005
525.1347	-0.0113
525.3316	-0.0039
525.5285	-0.0114
525.7254	-0.0124
525.9223	0.0016
526.1192	-0.0109
526.316	-0.0116
526.5129	0.0037
526.7097	-0.0029
526.9065	-0.0032
527.1033	-0.0083
527.3	-0.0046
527.4968	-0.0067
527.6935	-0.0098
527.8903	-0.0131
528.087	-0.0047
528.2837	-0.004
528.4804	-0.01
528.677	-0.0139
528.8737	0.0007
529.0703	-0.0003
529.2669	-0.0035
529.4635	-0.0088
529.6601	-0.0016
529.8567	-0.003
530.0532	-0.0194
530.2498	-0.0042
530.4463	0.0005
530.6428	-0.01
530.8393	0.0067
531.0358	-0.004
531.2322	-0.0107
531.4287	-0.0053
531.6251	-0.013
531.8215	0.0155
532.0179	0.0045
532.2143	0.0015
532.4107	-0.0058
532.607	-0.0144
532.8034	0.0039
532.9997	-0.0061
533.196	-0.0056
533.3923	-0.0069
533.5886	-0.0027
533.7848	0.0013
533.9811	-0.0076
534.1773	-0.0009
534.3735	0.0057
534.5697	-0.0088
534.7659	-0.0024
534.9621	0.0046
535.1582	-0.0106
535.3544	-0.0096
535.5505	-0.0083
535.7466	-0.0105
535.9427	-0.0105
536.1387	-0.013
536.3348	-0.0102
536.5308	0.0044
536.7269	-0.0123
536.9229	-0.0018
537.1189	-0.0068
537.3148	-0.0044
537.5108	-0.013
537.7068	-0.0029
537.9027	-0.0013
538.0986	-0.0064
538.2945	-0.0101
538.4904	-0.0086
538.6863	-0.0058
538.8821	-0.0056
539.078	-0.0057
539.2738	-0.001
539.4696	-0.0107
539.6654	-0.0001
539.8611	0.0084
540.0569	0.0005
540.2526	-0.0113
540.4484	0.0024
540.6441	-0.0096
540.8398	-0.0026
541.0355	0.0019
541.2311	-0.0155
541.4268	-0.0103
541.6224	0
541.818	-0.0053
542.0136	-0.0048
542.2092	-0.009
542.4048	0.0036
542.6003	-0.0047
542.7959	-0.0055
542.9914	-0.0099
543.1869	-0.003
543.3824	-0.0058
543.5779	-0.0111
543.7734	0.0019
543.9688	-0.0107
544.1642	0.0076
544.3596	-0.0099
544.555	-0.0093
544.7504	-0.0026
544.9458	-0.0079
545.1411	0.0003
545.3365	-0.0081
545.5318	-0.001
545.7271	-0.0108
545.9224	-0.008
546.1177	-0.0053
546.3129	0.0007
546.5081	-0.0167
546.7034	-0.003
546.8986	-0.0038
547.0938	-0.0074
547.289	-0.0097
547.4841	-0.0028
547.6793	0.0086
547.8744	-0.0197
548.0695	-0.0028
548.2646	-0.0128
548.4597	0.0003
548.6548	-0.0007
548.8498	0.0024
549.0448	0.0005
549.2399	-0.0038
549.4349	0.0064
549.6298	0.005
549.8248	-0.0024
550.0198	-0.0002
550.2147	-0.0033
550.4096	-0.0026
550.6045	-0.0053
550.7994	0.0061
550.9943	-0.0071
551.1892	-0.0008
551.384	0.01
551.5788	-0.0108
551.7737	0.0069
551.9685	-0.0042
552.1632	0.0056
552.358	-0.0085
552.5528	0.0001
552.7475	-0.0038
552.9422	-0.0037
553.1369	-0.0039
553.3316	0.0022
553.5263	-0.0027
553.7209	0.0086
553.9156	-0.0018
554.1102	-0.0036
554.3048	-0.0043
554.4994	0.0067
554.694	-0.0056
554.8885	0.0062
555.0831	-0.0103
555.2776	-0.0028
555.4721	-0.001
555.6666	0.0017
555.8611	0.0075
556.0555	-0.0045
556.25	0.0028
556.4444	-0.0078
556.6388	-0.0042
556.8332	-0.0069
557.0276	-0.0024
557.222	-0.0021
557.4163	-0.0017
557.6107	-0.0063
557.805	0.0085
557.9993	-0.0069
558.1936	0.0021
558.3879	0.0028
558.5821	-0.0009
558.7764	-0.0015
558.9706	-0.0033
559.1648	0.0144
559.359	-0.0068
559.5532	-0.0067
559.7473	-0.0114
559.9415	-0.0022
560.1356	-0.0069
560.3297	-0.0092
560.5238	-0.0009
560.7179	-0.0069
560.9119	-0.0066
561.106	-0.0034
561.3	-0.0069
561.494	0.0008
561.688	-0.0032
561.882	-0.0126
562.076	0.002
562.2699	0.0059
562.4639	-0.001
562.6578	-0.0035
562.8517	-0.0036
563.0456	0.0036
563.2395	0.0029
563.4333	-0.0027
563.6272	0.0058
563.821	0.0004
564.0148	0.0006
564.2086	-0.0109
564.4024	-0.0015
564.5961	-0.0044
564.7899	0.0027
564.9836	0.007
565.1773	-0.0043
565.371	0.0071
565.5647	-0.0004
565.7584	0.0027
565.952	-0.0002
566.1456	-0.004
566.3393	-0.0055
566.5329	-0.0098
566.7264	-0.0111
566.92	-0.0093
567.1136	0.0026
567.3071	-0.006
567.5006	0.0136
567.6941	0.0057
567.8876	-0.0006
568.0811	-0.0007
568.2745	0.0063
568.468	-0.0023
568.6614	0.006
568.8548	-0.0015
569.0482	-0.0031
569.2416	0.0064
569.4349	-0.004
569.6283	0.0047
569.8216	-0.0072
570.0149	-0.0096
570.2082	-0.0024
570.4015	0.0062
570.5947	0.0028
570.788	0.0026
570.9812	0.0027
571.1744	-0.0012
571.3676	-0.0105
571.5608	-0.0058
571.754	-0.0019
571.9471	-0.0019
572.1402	0.0016
572.3333	0.0012
572.5264	-0.0066
572.7195	-0.0003
572.9126	-0.0037
573.1057	0.0021
573.2987	0.0006
573.4917	-0.0034
573.6847	-0.0108
573.8777	0.0044
574.0707	-0.0041
574.2636	-0.0113
574.4566	-0.0062
574.6495	-0.0004
574.8424	-0.0073
575.0353	-0.0081
575.2281	0.0056
575.421	0.0033
575.6138	-0.0004
575.8067	0.0024
575.9995	0.0016
576.1923	0.0097
576.385	-0.0052
576.5778	-0.0036
576.7706	-0.0033
576.9633	-0.0012
577.156	0.0035
577.3487	-0.0073
577.5414	-0.0036
577.734	-0.0053
577.9267	0.0012
578.1193	-0.0135
578.3119	-0.0096
578.5045	-0.0023
578.6971	-0.0059
578.8897	0.0033
579.0822	0.0043
579.2747	0.0023
579.4673	-0.0028
579.6598	-0.0035
579.8522	-0.0088
580.0447	-0.0087
580.2372	-0.0066
580.4296	0.0037
580.622	-0.0036
580.8144	0.0026
581.0068	-0.0065
581.1992	-0.011
581.3915	-0.0068
581.5839	-0.0101
581.7762	-0.0094
581.9685	-0.0036
582.1608	-0.0056
582.353	-0.0061
582.5453	-0.0007
582.7375	-0.0021
582.9298	0.0004
583.122	-0.0044
583.3142	-0.0005
583.5063	-0.0047
583.6985	-0.0004
583.8906	-0.0035
584.0827	-0.0078
584.2749	-0.0028
584.4669	-0.0021
584.659	-0.0149
584.8511	-0.0074
585.0431	-0.0029
585.2352	-0.001
585.4272	-0.005
585.6192	-0.0002
585.8111	-0.0072
586.0031	-0.0017
586.195	0.0042
586.387	0.0082
586.5789	-0.0001
586.7708	0.0019
586.9627	0.0028
587.1545	-0.0076
587.3464	0.0036
587.5382	0.0002
587.73	0.0029
587.9218	0.0004
588.1136	0.0025
588.3053	0.0037
588.4971	-0.0049
588.6888	-0.0057
588.8805	-0.0001
589.0722	0.0063
589.2639	-0.0023
589.4556	-0.0027
589.6472	0.0008
589.8389	-0.0041
590.0305	-0.0105
590.2221	-0.0034
590.4137	-0.0058
590.6052	0.0051
590.7968	-0.0022
590.9883	0.0007
591.1798	-0.0077
591.3713	0.0022
591.5628	0.0087
591.7543	0.0082
591.9458	0.0057
592.1372	0.0042
592.3286	0.003
592.52	0.0031
592.7114	-0.0073
592.9028	-0.0022
593.0941	-0.0011
593.2855	-0.0024
593.4768	-0.007
593.6681	-0.0094
593.8594	-0.0038
594.0506	0.0014
594.2419	0.0019
594.4331	-0.0002
594.6244	0.0044
594.8156	-0.0088
595.0067	0.0082
595.1979	0.003
595.3891	0.001
595.5802	0.001
595.7713	-0.0036
595.9624	-0.0036
596.1535	0.0089
596.3446	-0
596.5357	0.0002
596.7267	0.0079
596.9177	-0.0013
597.1087	-0.0044
597.2997	-0.0005
597.4907	0.0047
597.6817	-0.0043
597.8726	0.0004
598.0635	-0.0016
598.2544	0.0039
598.4453	-0.0012
598.6362	0.0002
598.827	-0.0013
599.0179	-0.0006
599.2087	0.0057
599.3995	-0.0025
599.5903	0.0054
599.7811	0.0035
599.9718	0.0009
600.1626	-0.0006
600.3533	-0.0091
600.544	0.0019
600.7347	-0.0003
600.9254	0.0011
601.116	-0.0138
601.3067	-0.0009
601.4973	0.0032
601.6879	0.0044
601.8785	0.0011
602.0691	0.0035
602.2596	0.0055
602.4502	0.0034
602.6407	0.0033
602.8312	0.0028
603.0217	-0.0037
603.2122	-0.0051
603.4027	0.0044
603.5931	-0.0007
603.7835	-0.0041
603.9739	0.0042
604.1643	-0.0077
604.3547	-0.0008
604.5451	0.0052
604.7354	0.0039
604.9257	0.0058
605.116	-0.0014
605.3063	0.0047
605.4966	-0.0006
605.6869	0.0039
605.8771	0.0053
606.0673	0.006
606.2575	0.0055
606.4477	0.0026
606.6379	0.0035
606.8281	-0.0025
607.0182	-0.0051
607.2083	0.0109
607.3985	-0.0039
607.5885	-0.0012
607.7786	0.0066
607.9687	-0.002
608.1587	0.0062
608.3488	0.005
608.5388	0.0048
608.7288	-0.0032
608.9187	-0.0023
609.1087	-0.003
609.2986	-0.0081
609.4886	-0.0022
609.6785	-0.0056
609.8684	-0.0025
610.0582	0.0014
610.2481	-0.0047
610.4379	0.0017
610.6278	-0.005
610.8176	-0.0062
611.0074	-0.0032
611.1971	-0.0075
611.3869	-0.0011
611.5766	-0.0053
611.7664	0.0017
611.9561	0.0077
612.1458	-0.0012
612.3354	-0.0056
612.5251	-0.0008
612.7147	0.0117
612.9044	0.0041
613.094	-0.0119
613.2836	0.0039
613.4731	-0.0053
613.6627	-0.0043
613.8522	0.0039
614.0417	0.009
614.2313	-0.0002
614.4207	0.0002
614.6102	-0.0058
614.7997	-0.008
614.9891	-0.0053
615.1785	-0.0024
615.3679	-0.008
615.5573	0.0087
615.7467	-0.0006
615.9361	-0.0041
616.1254	-0.0048
616.3147	-0.0024
616.504	0.0027
616.6933	0.0017
616.8826	0.0036
617.0718	0.0033
617.2611	-0.0014
617.4503	-0.0025
617.6395	-0.0012
617.8287	-0.0057
618.0179	0.0001
618.207	0.0025
618.3961	0.0028
618.5853	-0.0076
618.7744	0.0065
618.9634	0.0027
619.1525	0.0004
619.3416	0.0015
619.5306	0.001
619.7196	0.0063
619.9086	-0.0027
620.0976	0.0036
620.2866	0.001
620.4755	0.0016
620.6645	-0.0005
620.8534	-0.0004
621.0423	0.0081
621.2312	0.0065
621.42	0.0053
621.6089	-0.0012
621.7977	-0.0036
621.9865	-0.0052
622.1753	-0.0011
622.3641	-0.002
622.5529	0.005
622.7416	0.0074
622.9303	-0.0064
623.1191	0.0056
623.3078	-0.0067
623.4964	0.0013
623.6851	-0.0006
623.8737	-0.0027
624.0624	0.0012
624.251	-0.0026
624.4396	0.0035
624.6282	-0.01
624.8167	-0.0066
625.0053	0.0027
625.1938	0.0089
625.3823	0.0026
625.5708	0.0032
625.7593	-0.0091
625.9477	-0.0023
626.1362	-0
626.3246	0.0019
626.513	0.0097
626.7014	0.0051
626.8898	0.001
627.0781	0.0052
627.2665	0.0035
627.4548	0.0106
627.6431	0.001
627.8314	0.0023
628.0197	-0.0008
628.2079	-0.008
628.3962	-0.0003
628.5844	0.0034
628.7726	0.0084
628.9608	0.0118
629.1489	0.0041
629.3371	0.0024
629.5252	-0.002
629.7134	0.0084
629.9015	-0.0013
630.0895	-0.0003
630.2776	0.0052
630.4657	0.0003
630.6537	0.0038
630.8417	-0.0025
631.0297	-0.0025
631.2177	0.0028
631.4057	-0.0056
631.5936	-0.0027
631.7815	0.0031
631.9695	-0.0033
632.1574	0.0075
632.3452	0.0082
632.5331	0.0019
632.7209	-0.0072
632.9088	0.0046
633.0966	0.0135
633.2844	-0.0042
633.4722	-0.0013
633.6599	0.0031
633.8477	0.0049
634.0354	0.0027
634.2231	0.0027
634.4108	0.0064
634.5985	0.0058
634.7861	0.0054
634.9738	0.0027
635.1614	-0.0018
635.349	-0.0013
635.5366	-0.0017
635.7242	0.0048
635.9117	-0.0009
636.0993	-0.0044
636.2868	0.0004
636.4743	-0.0011
636.6618	0.0111
636.8492	0.0041
637.0367	0.0063
637.2241	-0.0033
637.4115	-0.0004
637.5989	-0.0099
637.7863	0.004
637.9737	-0.0017
638.161	0.0015
638.3484	-0.0026
638.5357	-0.001
638.723	0.003
638.9103	0.0029
639.0975	0.0091
639.2848	0.0057
639.472	0.0044
639.6592	0.0036
639.8464	0.0139
640.0336	0.0067
640.2208	-0.0007
640.4079	0.0028
640.595	0.0012
640.7821	0.0015
640.9692	0.0059
641.1563	0.0147
641.3434	0.0027
641.5304	0.0049
641.7174	-0.001
641.9044	0.0041
642.0914	0.005
642.2784	0.001
642.4653	0.0067
642.6523	0.0011
642.8392	0.0026
643.0261	0.0019
643.213	0.0088
643.3999	-0.0067
643.5867	0.0001
643.7735	-0.0023
643.9604	-0.0014
644.1472	0.0013
644.3339	0.0035
644.5207	0.0085
644.7075	0.0027
644.8942	0.0035
645.0809	0.0049
645.2676	0.0132
645.4543	0.0123
645.6409	0.0053
645.8276	0.0117
646.0142	0.0061
646.2008	-0.0054
646.3874	0.0005
646.574	0.0092
646.7605	0.0011
646.9471	-0.0116
647.1336	0.0072
647.3201	0.0053
647.5066	-0.0082
647.6931	0.0084
647.8795	-0.0017
648.0659	0.0047
648.2524	0.0089
648.4388	-0.0075
648.6252	-0.0022
648.8115	0.0041
648.9979	-0.0019
649.1842	0.0056
649.3705	0.0013
649.5568	0.0067
649.7431	0.0072
649.9294	0.0048
650.1156	0.0026
650.3018	-0.008
650.488	0.0085
650.6742	0.0138
650.8604	0.0001
651.0466	-0.0039
651.2327	0.0043
651.4188	0.0048
651.6049	-0.0011
651.791	0.0044
651.9771	0.005
652.1632	0.0079
652.3492	0.0103
652.5352	0.0036
652.7212	0.0008
652.9072	0.0083
653.0932	-0.0031
653.2791	0.003
653.465	0.0037
653.651	-0.0036
653.8369	0.0003
654.0227	0.0037
654.2086	0.0077
654.3944	0.0072
654.5803	-0.005
654.7661	0.0026
654.9519	0.0002
655.1377	0.0003
655.3234	-0.0028
655.5092	-0.0066
655.6949	-0.0079
655.8806	-0.0044
656.0663	-0.0055
656.2519	-0.0071
656.4376	-0.0029
656.6232	0.0055
656.8088	0.0009
656.9945	0.0036
657.18	-0.0008
657.3656	-0.0002
657.5511	-0.0066
657.7367	-0.0064
657.9222	0.0069
658.1077	0.0058
658.2932	0.0011
658.4786	-0.0025
658.6641	0.003
658.8495	0.0015
659.0349	0.0018
659.2203	0.0108
659.4057	0.0145
659.591	0.01
659.7764	0.0055
659.9617	0.0089
660.147	0.0019
660.3323	0.0089
660.5176	0.0079
660.7028	0.0054
660.888	0.0069
661.0733	0.0073
661.2585	0.0003
661.4436	0.0069
661.6288	-0.0018
661.8139	0.0008
661.9991	0.0109
662.1842	0.0006
662.3693	0.0061
662.5544	-0.0024
662.7394	0.0068
662.9245	-0.007
663.1095	0.0052
663.2945	0
663.4795	-0.0052
663.6644	0.0013
663.8494	-0.0039
664.0343	-0.0045
664.2193	-0.0033
664.4042	-0.0005
664.589	-0.005
664.7739	-0.0009
664.9587	-0.0058
665.1436	0.0016
665.3284	0.0012
665.5132	-0.0016
665.698	-0.0019
665.8827	0.0042
666.0675	0.0076
666.2522	0.0027
666.4369	0.0021
666.6216	0.0095
666.8063	0.0064
666.9909	0.0013
667.1756	0.0026
667.3602	0.0013
667.5448	0.0001
667.7294	0.0078
667.9139	0.0024
668.0985	0.0098
668.283	-0.0027
668.4675	0.0007
668.652	0.004
668.8365	-0.0004
669.0209	0.0043
669.2054	0.0076
669.3898	0.0018
669.5742	0.0009
669.7586	0.013
669.943	0.0058
670.1273	0.0116
670.3117	0.0069
670.496	0.0081
670.6803	0.0142
670.8646	0.0089
671.0488	-0.0063
671.2331	0.0057
671.4173	0.0062
671.6015	0.0068
671.7857	0.0076
671.9699	0.0085
672.1541	0.0047
672.3382	0.0158
672.5223	0.0097
672.7064	0.0103
672.8905	0.0118
673.0746	0.0069
673.2587	-0.0047
673.4427	0.004
673.6267	0.0135
673.8107	0.0063
673.9947	0.008
674.1787	0.0083
674.3626	0.0031
674.5465	0.0072
674.7304	0.0098
674.9143	0.0073
675.0982	0.0127
675.2821	-0.0039
675.4659	0.0082
675.6497	0.0112
675.8335	0.0086
676.0173	0.0025
676.2011	0.0014
676.3849	0.0002
676.5686	-0.0039
676.7523	-0.004
676.936	0.0022
677.1197	-0.0026
677.3034	-0.0052
677.487	0.0049
677.6706	0.0026
677.8542	0.0048
678.0378	0.0093
678.2214	0.0064
678.405	0.0039
678.5885	-0.0036
678.772	0.0042
678.9555	0
679.139	-0.0037
679.3225	0.0021
679.5059	-0.001
679.6894	-0.0023
679.8728	0.0053
680.0562	-0.0058
680.2395	-0.0019
680.4229	-0.0016
680.6062	0.004
680.7896	0.0069
680.9729	-0.0071
681.1562	0.0071
681.3394	0.0062
681.5227	-0.0017
681.7059	0.002
681.8891	-0.0012
682.0723	0.0054
682.2555	0.0051
682.4387	0.0027
682.6218	-0.0094
682.805	0.0047
682.9881	0.0032
683.1712	-0.0003
683.3542	0.0069
683.5373	0.0045
683.7203	-0.0068
683.9034	0.0043
684.0864	-0.0003
684.2694	-0.002
684.4523	0.0095
684.6353	0.0005
684.8182	0.0033
685.0011	-0.0005
685.184	0.0086
685.3669	0.0048
685.5498	0.0049
685.7326	0.0121
685.9154	-0.0037
686.0982	0.0103
686.281	0.0023
686.4638	0.0101
686.6465	-0.0022
686.8293	0.0054
687.012	0.012
687.1947	0
687.3774	0.0059
687.56	0.0009
687.7427	0.01
687.9253	-0.01
688.1079	-0.008
688.2905	0.0126
688.4731	-0.0003
688.6556	0.0042
688.8382	0.0033
689.0207	0.0015
689.2032	-0.0038
689.3857	-0.0089
689.5681	-0.0009
689.7506	-0.0022
689.933	-0.0006
690.1154	0.0015
690.2978	0.0017
690.4802	0.0056
690.6626	-0.0069
690.8449	0.0012
691.0272	0.0086
691.2095	-0.0122
691.3918	-0.0041
691.5741	-0.003
691.7563	-0.0032
691.9386	-0.0002
692.1208	-0.0061
692.303	0.001
692.4852	0.0001
692.6673	-0.0035
692.8495	-0.0031
693.0316	0.0028
693.2137	0.0013
693.3958	0.0082
693.5778	0.0006
693.7599	0.0059
693.9419	0.0055
694.1239	0.0025
694.3059	-0.0032
694.4879	0.014
694.6699	0.0116
694.8518	0.0094
695.0337	-0.0012
695.2157	0.0008
695.3975	-0.0036
695.5794	0.0059
695.7613	0.006
695.9431	0.0036
696.1249	0.0008
696.3067	0.0013
696.4885	0.0026
696.6703	-0.0089
696.852	-0.0006
697.0337	0.0037
697.2154	0.0025
697.3971	0.0087
697.5788	0.0017
697.7605	0.0026
697.9421	0.0119
698.1237	0.0061
698.3053	0.0017
698.4869	-0.009
698.6685	-0.0049
698.85	0.003
699.0315	0.005
699.213	0.0026
699.3945	-0.0057
699.576	0.0024
699.7575	0.0005
699.9389	0.0072
700.1203	0.0022
700.3017	-0.0041
700.4831	-0.0071
700.6645	-0.0069
700.8458	-0.0027
701.0271	-0.0084
701.2084	0.0037
701.3897	-0.0042
701.571	0.0057
701.7523	-0.0078
701.9335	-0.0027
702.1147	-0.0073
702.2959	0.0044
702.4771	-0.0018
702.6583	-0.0017
702.8394	-0.0007
703.0205	0.0048
703.2016	-0.001
703.3827	-0.005
703.5638	0.0145
703.7449	0.0015
703.9259	0.0066
704.1069	-0.0074
704.2879	0.0038
704.4689	0.0084
704.6499	-0.0008
704.8308	0.0026
705.0117	0.0051
705.1927	0.011
705.3735	-0.0033
705.5544	-0.0092
705.7353	-0.0028
705.9161	-0.0053
706.0969	-0.0043
706.2777	0.0047
706.4585	-0.0008
706.6393	0.0041
706.82	0.0004
707.0007	0.0065
707.1815	0.0021
707.3621	0.0094
707.5428	0.0053
707.7235	0.0043
707.9041	0.0021
708.0847	-0.002
708.2653	0
708.4459	-0.0039
708.6265	0.0007
708.807	0.0035
708.9875	-0.0074
709.168	0.0003
709.3485	-0.0018
709.529	-0.0002
709.7095	-0.0101
709.8899	0.0001
710.0703	-0.0045
710.2507	0.0042
710.4311	-0.0032
710.6115	-0.0082
710.7918	-0.0125
710.9721	0.0015
711.1524	-0.0009
711.3327	0.0023
711.513	-0.0009
711.6932	-0.003
711.8735	0.007
712.0537	-0.0009
712.2339	-0.0056
712.4141	-0.0091
712.5942	-0.0036
712.7744	0.0037
712.9545	-0.0051
713.1346	-0.0031
713.3147	-0.0019
713.4947	-0.0034
713.6748	0.003
713.8548	0.0001
714.0348	-0.0064
714.2148	0.0056
714.3948	0.0116
714.5748	0.006
714.7547	0.0016
714.9346	0.0093
715.1145	0.0086
715.2944	0.0083
715.4743	0.0056
715.6541	-0.0003
715.834	0.0101
716.0138	0.0012
716.1936	-0.0055
716.3733	-0.0048
716.5531	0.0113
716.7328	-0.0041
716.9126	-0.0042
717.0923	0.0026
717.2719	-0.0018
717.4516	0.0055
717.6312	0.0048
717.8109	-0.0059
717.9905	0.0051
718.1701	-0.0035
718.3496	-0.0135
718.5292	0.004
718.7087	0.0013
718.8882	-0.0044
719.0677	0.0053
719.2472	-0.0017
719.4267	0.005
719.6061	0.0049
719.7856	0.0109
719.965	0.0147
720.1443	0.0034
720.3237	0.014
720.5031	0.0081
720.6824	0.012
720.8617	0.002
721.041	0.0088
721.2203	0.0023
721.3995	-0.0026
721.5788	0.003
721.758	0.0056
721.9372	-0.0036
722.1164	0.0044
722.2956	0.0055
722.4747	0.0033
722.6538	-0.0014
722.8329	0.0027
723.012	-0.0031
723.1911	0.0008
723.3702	0.0002
723.5492	-0.003
723.7282	-0.0008
723.9072	-0.0106
724.0862	0.0028
724.2652	0.0018
724.4441	-0.0046
724.623	-0.001
724.8019	0
724.9808	0.0093
725.1597	-0.0126
725.3385	0.0084
725.5174	0.0004
725.6962	-0.0063
725.875	0.0016
726.0538	0.0047
726.2325	-0.0054
726.4112	0.0006
726.59	-0.0035
726.7687	0.0015
726.9474	0.0023
727.126	-0.0025
727.3047	-0.0026
727.4833	0.0018
727.6619	-0.0038
727.8405	-0.0011
728.0191	-0.0025
728.1976	0.0002
728.3762	-0.0008
728.5547	-0.002
728.7332	-0.0103
728.9116	0.0008
729.0901	0.0033
729.2686	-0.0071
729.447	0.0041
729.6254	0.005
729.8038	-0.0078
729.9821	-0.0119
730.1605	0.0069
730.3388	0.0015
730.5171	-0.0004
730.6954	-0.0046
730.8737	0.0026
731.0519	0.003
731.2302	-0.0017
731.4084	0.013
731.5866	0.0038
731.7648	-0.0011
731.9429	-0.0007
732.1211	-0.005
732.2992	0.0031
732.4773	-0.0007
732.6554	0.006
732.8335	0.0024
733.0115	0.0108
733.1896	0.006
733.3676	-0.0048
733.5456	0.0049
733.7235	0.0015
733.9015	-0.0002
734.0794	-0.0002
734.2574	0.003
734.4353	0.0036
734.6131	0.0069
734.791	-0.0016
734.9689	0.002
735.1467	0.0013
735.3245	-0.0061
735.5023	-0.0029
735.68	-0.0037
735.8578	-0.002
736.0355	-0.0165
736.2132	-0.0064
736.3909	-0.0024
736.5686	-0.0069
736.7463	0.0022
736.9239	-0.016
737.1015	-0.008
737.2791	-0.0035
737.4567	0.0016
737.6343	-0.0154
737.8118	-0.0017
737.9894	0.0059
738.1669	-0.0055
738.3444	-0.0041
738.5218	0.0065
738.6993	0.0017
738.8767	-0.0052
739.0541	0.0137
739.2315	-0.0118
739.4089	0.0042
739.5863	0.0029
739.7636	-0.0029
739.9409	0.0076
740.1182	0.0053
740.2955	0.0099
740.4728	-0.0019
740.65	0.0038
740.8272	0.0053
741.0044	-0.0029
741.1816	-0.0003
741.3588	0.0039
741.5359	-0.001
741.7131	-0.0081
741.8902	-0.0074
742.0673	0.0052
742.2444	-0.0091
742.4214	-0.001
742.5985	-0.011
742.7755	-0.0025
742.9525	-0.017
743.1295	0.0049
743.3064	0.0019
743.4834	0.0159
743.6603	0.0021
743.8372	0.004
744.0141	0.0029
744.191	0.0129
744.3678	-0.0009
744.5446	0.008
744.7215	0.0046
744.8982	0.0082
745.075	-0.0117
745.2518	0.0019
745.4285	0.0033
745.6052	-0.002
745.7819	-0.0026
745.9586	0.0001
746.1353	0.0074
746.3119	-0.003
746.4885	-0.01
746.6651	-0.0057
746.8417	-0.0052
747.0183	-0.0018
747.1948	-0.0073
747.3714	0.0024
747.5479	0.0124
747.7244	0.0005
747.9008	0.0029
748.0773	0.0037
748.2537	-0.0076
748.4301	-0.0075
748.6065	0.006
748.7829	0.0109
748.9593	0.0043
749.1356	0
749.3119	0.0055
749.4882	-0.0067
749.6645	0.0103
749.8408	-0.0094
750.017	-0.0038
750.1933	0.0015
750.3695	-0.0011
750.5457	0.0049
750.7218	-0.0097
750.898	0.0066
751.0741	-0.0083
751.2502	0.0029
751.4263	-0.0145
751.6024	0.0028
751.7784	-0.0021
751.9545	-0.0075
752.1305	0.0026
752.3065	-0.0186
752.4825	0.0014
752.6584	-0.0072
752.8344	-0.0115
753.0103	-0.0076
753.1862	-0.0099
753.3621	-0.007
753.5379	-0.0055
753.7138	-0.003
753.8896	0.0004
754.0654	0.0035
754.2412	-0.0003
754.417	0.0031
754.5927	-0.0014
754.7685	-0.0062
754.9442	-0.0028
755.1199	0.0042
755.2956	0.0029
755.4712	0.0074
755.6469	0.0017
755.8225	-0.0049
755.9981	-0.0031
756.1736	-0.0053
756.3492	0.0034
756.5248	-0.0067
756.7003	-0
756.8758	0.0014
757.0513	-0.0174
757.2267	-0.0074
757.4022	-0.0051
757.5776	-0.0121
757.753	0.0083
757.9284	-0.0022
758.1038	0.0139
758.2791	0.0066
758.4545	-0.008
758.6298	0.0005
758.8051	0.0128
758.9803	-0.0018
759.1556	-0.0015
759.3308	-0.0057
759.506	0.0128
759.6812	0.0083
759.8564	0.017
760.0316	0.0054
760.2067	0.0105
760.3819	0.0005
760.557	0.0137
760.732	0.0093
760.9071	-0.0087
761.0821	0.0007
761.2572	0.006
761.4322	-0.0074
761.6072	-0.006
761.7821	-0.006
761.9571	0.0035
762.132	-0.0002
762.3069	-0.0043
762.4818	-0.006
762.6567	-0.0014
762.8316	-0.0052
763.0064	0.003
763.1812	-0.0026
763.356	-0.0103
763.5308	0.0062
763.7055	0.01
763.8803	-0.015
764.055	-0.0092
764.2297	-0.0077
764.4044	-0.0167
764.579	-0.0013
764.7537	-0.0098
764.9283	0.0052
765.1029	-0.0115
765.2775	-0.0089
765.4521	-0.011
765.6266	-0.0024
765.8011	-0.0101
765.9756	0.0014
766.1501	0.0029
766.3246	-0.0063
766.4991	0.0011
766.6735	-0.0001
766.8479	-0.0204
767.0223	0.0085
767.1967	0.0047
767.371	-0.0005
767.5454	-0.0088
767.7197	-0.0035
767.894	0.0053
768.0683	-0.0145
768.2425	0.0105
768.4168	0.0008
768.591	-0.0048
768.7652	-0.0033
768.9394	-0.0107
769.1135	0.0008
769.2877	0.0053
769.4618	0.0029
769.6359	-0.0116
769.81	-0.0017
769.984	-0.0029
770.1581	-0.0071
770.3321	-0.0006
770.5061	-0.0088
770.6801	-0.0129
770.8541	0.0018
771.028	0.0027
771.202	-0.0074
771.3759	0.0006
771.5498	-0.0024
771.7236	0.0006
771.8975	-0.0033
772.0713	0.0045
772.2451	-0.0003
772.4189	0.0148
772.5927	-0.0013
772.7665	0.0024
772.9402	0.0163
773.1139	0.015
773.2876	0.0033
773.4613	0.0041
773.635	0.0071
773.8086	0.0016
773.9822	0.0081
774.1558	0.0096
774.3294	-0.0073
774.503	0.0048
774.6765	0.0028
774.8501	0.0092
775.0236	0.0025
775.1971	0.002
775.3705	-0.0114
775.544	0.0113
775.7174	0.002
775.8908	0.0045
776.0642	-0.0121
776.2376	0.005
776.4109	-0.0149
776.5843	-0.0029
776.7576	-0.003
776.9309	0.0178
777.1041	0.0065
777.2774	0.0099
777.4506	-0.0035
777.6238	-0.0062
777.797	0.0096
777.9702	0.0004
778.1434	0.0012
778.3165	-0.0141
778.4896	-0.0059
778.6627	0.0064
778.8358	-0.0082
779.0089	0
779.1819	-0.0046
779.3549	0.0234
779.5279	0.013
779.7009	-0.0009
779.8739	0.0044
780.0468	0.0098
780.2197	0.0052
780.3926	0.0103
780.5655	0.001
780.7384	0.0182
780.9112	0.0022
781.0841	-0.0045
781.2569	-0.0057
781.4297	-0.0047
781.6024	0.0071
781.7752	-0.0004
781.9479	0.0066
782.1206	0.0003
782.2933	-0.015
782.466	0.0093
782.6386	-0.0011
782.8113	0.0067
782.9839	-0.004
783.1565	0.0155
783.329	0.0102
783.5016	0.0128
783.6741	0.0057
783.8466	-0.0105
784.0191	0.0088
784.1916	0.0127
784.3641	0.0087
784.5365	-0.0044
784.7089	-0.0134
784.8813	-0.0116
785.0537	-0.0025
785.2261	-0.0079
785.3984	-0.0195
785.5707	-0.0135
785.743	0.0015
785.9153	-0.0056
786.0876	0.0051
786.2598	-0.0125
786.432	-0.0213
786.6042	0.0014
786.7764	-0.0118
786.9486	0.0131
787.1207	-0.0248
787.2928	-0.0065
787.4649	-0.0055
787.637	-0.0033
787.8091	0.0052
787.9811	-0.0082
788.1532	-0.0074
788.3252	0.0058
788.4972	-0.0095
788.6691	-0.0049
788.8411	0.0017
789.013	-0.0111
789.1849	-0.0007
789.3568	-0.003
789.5287	0.0011
789.7005	-0.008
789.8723	0.0029
790.0442	0.0254
790.2159	0.0028
790.3877	0.0077
790.5595	-0.0076
790.7312	-0.0074
790.9029	-0.0006
791.0746	-0.0194
791.2463	-0.0036
791.4179	-0.0099
791.5896	-0.0232
791.7612	-0.0102
791.9328	-0.0018
792.1044	-0.0121
792.2759	-0.0212
792.4474	-0.0164
792.619	-0.0076
792.7905	0.0015
792.9619	0.0063
793.1334	-0.0004
793.3048	0.0064
793.4762	0.0025
793.6476	-0.0035
793.819	-0.0087
793.9904	0.0036
794.1617	-0.0173
794.333	-0.0108
794.5043	-0.0149
794.6756	-0.0072
794.8469	-0.009
795.0181	0.0029
795.1893	-0.0064
795.3605	0.0038
795.5317	-0.0063
795.7029	-0.0099
795.874	0.005
796.0452	-0.0093
796.2163	-0.0198
796.3873	-0.0044
796.5584	-0.006
796.7294	0.0003
796.9005	0.0069
797.0715	-0.0163
797.2425	-0.0172
797.4134	-0.0204
797.5844	-0.0122
797.7553	-0.029
797.9262	-0.0111
798.0971	-0.0172
798.2679	-0.017
798.4388	-0.0284
798.6096	-0.0271
798.7804	-0.0101
798.9512	-0.0126
799.122	-0.0177
799.2927	-0.0142
799.4635	0.0061
799.6342	-0.0329
799.8049	-0.0208
799.9755	-0.0019
800.1462	-0.0091
800.3168	-0.0059
800.4874	-0.0072
800.658	0.009
800.8286	0.0028
800.9991	0.0001
801.1696	0.0038
801.3402	-0.0053
801.5106	-0.003
801.6811	-0.0201
801.8516	0.0015
802.022	0.0042
802.1924	0.004
802.3628	0.0003
802.5332	-0.0114
802.7035	0.0164
802.8739	-0.0095
803.0442	-0.0097
803.2145	-0.0067
803.3847	-0.0354
803.555	-0.0189
803.7252	-0.0226
803.8954	-0.0286
804.0656	-0.035
804.2358	-0.0006
804.4059	-0.0001
804.5761	-0.0076
804.7462	-0.0223
804.9163	-0.0162
805.0864	-0.0238
805.2564	-0.0154
805.4264	-0.0116
805.5965	-0.0127
805.7665	-0.0071
805.9364	0.005
806.1064	0.0032
806.2763	-0.0037
806.4462	0.0159
806.6161	0.0101
806.786	-0.0025
806.9559	-0.0115
807.1257	-0.0263
807.2955	-0.0017
807.4653	-0.004
807.6351	-0.0006
807.8048	-0.005
807.9746	-0.0115
808.1443	-0.0196
808.314	-0.0092
808.4837	-0.0186
808.6533	-0.0098
808.8229	0.0034
808.9926	-0.0116
809.1622	-0.0044
809.3317	-0.0211
809.5013	-0.0061
809.6708	-0.0064
809.8403	0.0031
810.0098	-0.0072
810.1793	-0.0017
810.3488	-0.0088
810.5182	-0.0358
810.6876	-0.0145
810.857	-0.013
811.0264	0.0149
811.1958	0.0019
811.3651	0.0083
811.5344	-0.0172
811.7037	-0.0206
811.873	-0.0312
812.0422	-0.0098
812.2115	-0.0158
812.3807	-0.0147
812.5499	0.0007
812.7191	0.005
812.8882	-0.0327
813.0574	-0.0094
813.2265	-0.0169
813.3956	-0.0145
813.5646	0.0026
813.7337	-0.0133
813.9027	-0.0093
814.0718	0.0056
814.2407	0.0042
814.4097	-0.0007
814.5787	-0.0234
814.7476	-0.0069
814.9165	-0.0057
815.0854	-0.0016
815.2543	-0.0093
815.4232	0.0065
815.592	0.019
815.7608	-0.0081
815.9296	-0.0045
816.0984	0.0019
816.2671	-0.0118
816.4359	-0.0127
816.6046	-0.0164
816.7733	-0.0143
816.942	-0.0252
817.1106	-0.0041
817.2793	-0.0058
817.4479	-0.006
817.6165	0.0141
817.785	-0.0046
817.9536	-0.0378
818.1221	-0.0306
818.2906	-0.022
818.4591	-0.0175
818.6276	-0.0264
818.7961	-0.0025
818.9645	0.0126
819.1329	-0.0146
819.3013	-0.0015
819.4697	0.0046
819.638	-0.0073
819.8064	-0.0009
819.9747	-0.004
820.143	-0.0147
820.3113	-0.0201
820.4795	-0.0437
820.6477	-0.0077
820.816	-0.022
820.9842	-0.0257
821.1523	0.0009
821.3205	-0.0138
821.4886	-0.0052
821.6567	-0.0215
821.8248	-0.0077
821.9929	-0.0023
822.1609	0.0013
822.329	-0.0087
822.497	0.0051
822.665	-0.0285
822.833	-0.0117
823.0009	0.0024
823.1688	0.007
823.3367	0.0287
823.5046	0.0044
823.6725	0.0185
823.8404	0.0199
824.0082	0.0077
824.176	0.0077
824.3438	-0.0022
824.5116	0.0195
824.6793	-0.0084
824.847	-0.0105
825.0147	-0.0231
825.1824	0.0002
825.3501	-0.0018
825.5177	-0.024
825.6854	-0.0011
825.853	0.0086
826.0206	-0.0221
826.1881	0.0124
826.3557	-0.0348
826.5232	-0.0037
826.6907	-0.0479
826.8582	-0.0236
827.0257	-0.047
827.1931	0.0291
827.3605	-0.0087
827.528	-0.0251
827.6953	-0.0375
827.8627	-0.0292
828.03	0.0465
828.1974	-0.0293
828.3647	-0.0499
828.532	-0.0062
828.6992	-0.0229
828.8665	-0.0121
829.0337	-0.0412
829.2009	0.0098
829.3681	-0.0369
829.5352	0.0116
829.7024	-0.0187
829.8695	-0.0662
830.0366	0.043
830.2037	-0.0173
830.3707	0.0143
830.5378	-0.0165
830.7048	0.0046
830.8718	-0.0343
831.0388	-0.0345
831.2057	-0.018
831.3727	-0.0101
831.5396	-0.0273
831.7065	-0.0313
831.8734	0.0062
832.0402	-0.0257
832.2071	0.0082
832.3739	-0.0265
832.5407	-0.0021
832.7075	0.0015
832.8742	-0.0259
833.041	-0.0458
833.2077	-0.0298
833.3744	0.0098
833.541	-0.0028
833.7077	-0.0328
833.8743	-0.063
834.0409	-0.0466
834.2075	-0.0214
834.3741	-0.042
834.5407	-0.0166
834.7072	-0.0256
834.8737	-0.0204
835.0402	0.0023
835.2067	-0.0072
835.3731	-0.0108
835.5395	0.0186
835.706	0.0147
835.8723	-0.0408
836.0387	0.0016
836.2051	-0.0188
836.3714	-0.0307
836.5377	-0.0284
836.704	-0.0392
836.8703	-0.0148
837.0365	-0.0461
837.2027	-0.0168
837.3689	-0.014
837.5351	-0.0152
837.7013	-0.0441
837.8674	-0.039
838.0335	-0.102
838.1997	-0.0378
838.3657	-0.0464
838.5318	-0.038
838.6978	-0.031
838.8639	0.0319
839.0299	-0.028
839.1958	-0.0457
839.3618	-0.0428
839.5277	-0.0498
839.6937	0.0303
839.8596	-0.0165
840.0254	-0.0222
840.1913	0.0347
840.3571	0.0155
840.523	0.0004
840.6888	0.0013
840.8545	-0.0771
841.0203	0.0407
841.186	0.0064
841.3517	0.0427
841.5174	-0.0325
841.6831	-0.0569
841.8488	-0.0283
842.0144	-0.0033
842.18	-0.0229
842.3456	-0.0098
842.5112	-0.0584
842.6767	-0.0093
842.8422	-0.0305
843.0077	-0.0246
843.1732	-0.0342
843.3387	-0.0667
843.5042	-0.0144
843.6696	0.0041
843.835	-0.0102
844.0004	-0.0177
844.1657	-0.0315
844.3311	-0.0554
844.4964	-0.0828
844.6617	-0.041
844.827	-0.0447
844.9923	-0.0532
845.1575	0.0053
845.3227	0.0304
845.4879	0.0039
845.6531	-0.0255
845.8183	-0.0865
845.9834	-0.0434
846.1485	-0.0198
846.3136	-0.0543
846.4787	-0.1185
846.6438	0.0379
846.8088	-0.1121
846.9738	-0.1237
847.1388	0.0374
847.3038	-0.0467
847.4687	-0.1406
847.6337	0.0205
847.7986	-0.024
847.9635	-0.0762
848.1284	0.0376
848.2932	0.0378
848.458	-0.0507
848.6228	0.0368
848.7876	0.1623
848.9524	-0.0879
849.1172	-0.0732
849.2819	0.0221
849.4466	-0.1516
849.6113	-0.1312
849.7759	-0.0624
849.9406	-0.089
850.1052	0.0215
850.2698	-0.0561
850.4344	-0.1262
850.599	-0.0887
850.7635	-0.0436
850.928	-0.0826
851.0925	-0.0125
851.257	-0.001
851.4215	-0.0009
851.5859	-0.0267
851.7503	-0.0024
851.9147	-0.0202
852.0791	-0.1439
852.2434	-0.0391
852.4078	0.0007
852.5721	0.0171
852.7364	-0.0419
852.9007	-0.1273
853.0649	-0.0277
853.2291	-0.0681
853.3934	-0.0942
853.5575	-0.102
853.7217	-0.1149
853.8859	-0.063
854.05	-0.1064
854.2141	-0.0315
854.3782	-0.0884
854.5423	-0.0481
854.7063	0.0382
854.8703	0.0181
855.0343	-0.0111
855.1983	-0.1555
855.3623	0.1494
855.5262	-0.0177
855.6901	-0.0667
855.854	0.0513
856.0179	-0.0373
856.1818	0.0539
856.3456	-0.0647
856.5094	-0.0632
856.6732	-0.0935
856.837	0.0052
857.0008	0.1134
857.1645	-0.0449
857.3282	-0.2278
857.4919	0.0415
857.6556	-0.1636
857.8192	-0.0983
857.9828	0.0098
858.1465	0.0559
858.31	-0.2223
858.4736	-0.0351
858.6372	-0.3819
858.8007	-0.2841
858.9642	0.0768
859.1277	-0.073
859.2911	-0.0504
859.4546	0.056
859.618	-0.3655
859.7814	-0.095
859.9448	-0.0436
860.1081	-0.0286
860.2715	0.2165
860.4348	0.1719
860.5981	-0.0027
860.7614	0.3672
860.9246	-0.075
861.0879	0.0967
861.2511	0.1133
861.4143	-0.2705
861.5774	0.096
861.7406	-0.1467
861.9037	0.0851
862.0668	-0.2224
862.2299	-0.2728
862.393	-0.5029
862.556	-0.0362
862.7191	-0.2275
862.8821	-0.3389
863.0451	-0.0086
863.208	0.0411
863.371	0.075
863.5339	-0.0593
863.6968	-0.1293
863.8597	-0.0066
864.0225	0.0464
864.1854	-0.219
864.3482	-0.1021
864.511	-0.0962
864.6737	0.1238
864.8365	-0.1686
864.9992	-0.0383
865.1619	-0.4443
865.3246	-0.4222
865.4873	-0.1938
865.65	-0.22
865.8126	0.0449
865.9752	-0.1324
866.1378	-0.2107
866.3004	0.1367
866.4629	0.2553
866.6254	-0.1624
866.7879	-0.207
866.9504	-0.2936
867.1129	-0
867.2753	-0
867.4377	0.2588
867.6001	-0.6024
867.7625	-0.0374
867.9249	-0.3835
868.0872	-0.2067
868.2495	-0.17
868.4118	-0.3193
868.5741	0.0151
868.7363	-0.4087
868.8986	-0.5243
869.0608	-0.2463
869.223	-0.0839
869.3851	-0
869.5473	-0
869.7094	0.3701
869.8715	-0
870.0336	-0
870.1957	-0.6436
870.3577	-0
870.5197	-0.2574
870.6817	-0.6076
870.8437	-0.1533
871.0057	-0
871.1676	-0.2884
871.3295	-0.0363
871.4914	-0
871.6533	-0.4995
871.8151	-0.3683
871.977	-0
872.1388	-0
872.3006	-0
872.4623	-0
872.6241	0.436
872.7858	0.2118
872.9475	-0.3166
873.1092	-0.2117
873.2709	0.0333
873.4325	-0.2154
873.5941	-0
873.7557	-0
873.9173	-0
874.0789	-0.7427
874.2404	-0.4402
874.4019	0.3955
874.5634	-0.2499
874.7249	-0.2842
874.8863	1.3499
875.0478	0.1051
875.2092	-0
875.3706	0.0568
875.5319	-0.8401
875.6933	-0
875.8546	-0.1909
876.0159	-0
876.1772	0.5434
876.3385	-0
876.4997	0.1139
876.6609	-0.5326
876.8221	-0.2926
876.9833	-0
877.1445	-0
877.3056	0.1181
877.4667	-0.3063
877.6278	-0
877.7889	-0.7993
877.9499	-0
878.111	-0
878.272	-0
878.433	-0
878.5939	-0
878.7549	1.3153
878.9158	-0.1761
879.0767	-0
879.2376	-0
879.3984	0.0301
879.5593	-0
879.7201	-0.0726
879.8809	-0.8041
880.0417	-0.2624
880.2024	-0.0745
880.3632	-1.075
880.5239	0.2406
880.6846	-0.0074
880.8452	-2.3551
881.0059	0.5229
881.1665	0.5436
881.3271	0.0848
881.4877	-0.6338
881.6483	-0.3957
881.8088	-0.2153
881.9693	-0
882.1298	-0
882.2903	-0
