Data from MonoPyChalIsomerACN10uM420nmA_Absorbance_15-09-52-635.txt Node
Date: Fri Jul 05 15:09:52 BST 2024
User: LASERRRRR
Spectrometer: FLMT03099
Trigger mode: 0
Integration Time (sec): 1.000000E-1
Scans to average: 1
Electric dark correction enabled: true
Nonlinearity correction enabled: false
Boxcar width: 0
XAxis mode: Wavelengths
Number of Pixels in Spectrum: 3648
>>>>>Begin Spectral Data<<<<<
179.3399	0.1022
179.5586	0.1022
179.7771	0.1022
179.9957	0.2337
180.2143	-0
180.4329	0.0282
180.6514	-0
180.8699	-0
181.0885	-0.3476
181.307	0.1161
181.5255	-0
181.744	0.1009
181.9625	-0.1262
182.181	-0.2185
182.3994	-0
182.6179	-0
182.8363	0.1598
183.0547	-0.0062
183.2732	-0.1076
183.4916	0.1193
183.71	0.3251
183.9284	0.1399
184.1467	-0.0854
184.3651	0.143
184.5835	0.0557
184.8018	0.114
185.0201	0.1469
185.2385	0.0635
185.4568	0.3253
185.6751	0.2269
185.8934	0.2937
186.1117	0.0456
186.3299	0.2463
186.5482	0.0305
186.7664	-0.1178
186.9847	0.0027
187.2029	0.0847
187.4211	0.2204
187.6393	0.1182
187.8575	-0.2097
188.0757	0.2758
188.2939	0.2577
188.512	0.4202
188.7302	0.2114
188.9483	0.4429
189.1665	0.1251
189.3846	-0.2697
189.6027	0.2908
189.8208	0.5105
190.0389	0.1799
190.257	0.2078
190.475	0.1837
190.6931	0.3827
190.9111	0.7205
191.1292	0.4027
191.3472	0.3151
191.5652	0.3085
191.7832	0.2488
192.0012	0.6017
192.2192	0.5176
192.4371	0.6148
192.6551	0.5261
192.873	0.3411
193.091	0.3468
193.3089	0.5788
193.5268	0.5178
193.7447	0.548
193.9626	0.5889
194.1805	0.6018
194.3984	0.8088
194.6162	0.4499
194.8341	0.5795
195.0519	0.6904
195.2697	0.8277
195.4875	0.876
195.7054	0.8527
195.9231	0.489
196.1409	0.5621
196.3587	0.5868
196.5765	0.749
196.7942	0.6039
197.012	0.5849
197.2297	0.578
197.4474	0.9301
197.6651	0.6234
197.8828	0.5389
198.1005	0.585
198.3182	0.7454
198.5358	0.8047
198.7535	0.7566
198.9711	0.5859
199.1888	0.6075
199.4064	0.8103
199.624	0.6193
199.8416	0.6091
200.0592	0.826
200.2767	0.6418
200.4943	0.6258
200.7119	0.6653
200.9294	0.6959
201.1469	0.6164
201.3645	0.7003
201.582	0.6333
201.7995	0.6059
202.017	0.6247
202.2344	0.6649
202.4519	0.6601
202.6694	0.6532
202.8868	0.66
203.1042	0.7359
203.3217	0.7188
203.5391	0.7476
203.7565	0.6252
203.9739	0.653
204.1913	0.6563
204.4086	0.7031
204.626	0.7531
204.8433	0.6315
205.0607	0.6558
205.278	0.6733
205.4953	0.6781
205.7126	0.6006
205.9299	0.7504
206.1472	0.7982
206.3644	0.6712
206.5817	0.6033
206.7989	0.6865
207.0162	0.6252
207.2334	0.5836
207.4506	0.7258
207.6678	0.6589
207.885	0.6691
208.1022	0.746
208.3194	0.76
208.5365	0.6458
208.7537	0.636
208.9708	0.6308
209.1879	0.6507
209.405	0.7192
209.6222	0.731
209.8392	0.67
210.0563	0.6882
210.2734	0.6495
210.4905	0.6427
210.7075	0.6143
210.9245	0.5954
211.1416	0.685
211.3586	0.699
211.5756	0.589
211.7926	0.6077
212.0096	0.6157
212.2265	0.5499
212.4435	0.5988
212.6604	0.5771
212.8774	0.6014
213.0943	0.6092
213.3112	0.5867
213.5281	0.5315
213.745	0.5188
213.9619	0.5355
214.1788	0.5104
214.3956	0.483
214.6125	0.4925
214.8293	0.4446
215.0461	0.4638
215.2629	0.4561
215.4798	0.4674
215.6965	0.4331
215.9133	0.4445
216.1301	0.4469
216.3469	0.4204
216.5636	0.4352
216.7803	0.4175
216.9971	0.3926
217.2138	0.4001
217.4305	0.4302
217.6472	0.3646
217.8639	0.3925
218.0805	0.3669
218.2972	0.3487
218.5138	0.3598
218.7305	0.3068
218.9471	0.3115
219.1637	0.2799
219.3803	0.3087
219.5969	0.2903
219.8135	0.2493
220.0301	0.284
220.2466	0.2766
220.4632	0.2606
220.6797	0.2383
220.8962	0.2408
221.1127	0.2367
221.3292	0.2493
221.5457	0.2377
221.7622	0.2265
221.9787	0.2663
222.1951	0.2555
222.4116	0.2621
222.628	0.2669
222.8444	0.2726
223.0608	0.2564
223.2772	0.2588
223.4936	0.2606
223.71	0.2518
223.9264	0.2779
224.1427	0.251
224.3591	0.2423
224.5754	0.2843
224.7917	0.2523
225.008	0.2888
225.2243	0.2683
225.4406	0.3024
225.6569	0.2704
225.8732	0.2551
226.0894	0.2661
226.3057	0.2627
226.5219	0.2749
226.7381	0.2691
226.9543	0.2761
227.1705	0.3058
227.3867	0.2818
227.6029	0.2869
227.8191	0.2957
228.0352	0.31
228.2513	0.3143
228.4675	0.3093
228.6836	0.3141
228.8997	0.2967
229.1158	0.3058
229.3319	0.3071
229.548	0.32
229.764	0.3378
229.9801	0.3221
230.1961	0.3265
230.4121	0.3317
230.6282	0.3366
230.8442	0.3258
231.0602	0.3617
231.2761	0.3527
231.4921	0.3608
231.7081	0.3524
231.924	0.3543
232.14	0.3867
232.3559	0.3433
232.5718	0.3517
232.7877	0.3682
233.0036	0.3584
233.2195	0.3656
233.4353	0.3729
233.6512	0.37
233.867	0.3737
234.0829	0.3481
234.2987	0.3801
234.5145	0.3722
234.7303	0.3818
234.9461	0.3949
235.1619	0.369
235.3776	0.3579
235.5934	0.3716
235.8091	0.3734
236.0249	0.3984
236.2406	0.3915
236.4563	0.392
236.672	0.4178
236.8877	0.3988
237.1034	0.4055
237.319	0.3791
237.5347	0.4123
237.7503	0.4043
237.966	0.406
238.1816	0.4303
238.3972	0.4052
238.6128	0.4102
238.8284	0.4188
239.0439	0.4157
239.2595	0.412
239.475	0.4072
239.6906	0.4231
239.9061	0.4133
240.1216	0.4087
240.3371	0.3962
240.5526	0.4242
240.7681	0.4102
240.9836	0.3945
241.199	0.4139
241.4145	0.3935
241.6299	0.394
241.8453	0.3878
242.0607	0.404
242.2761	0.3723
242.4915	0.3783
242.7069	0.389
242.9223	0.365
243.1376	0.371
243.353	0.3632
243.5683	0.3499
243.7836	0.3446
243.9989	0.3561
244.2142	0.3354
244.4295	0.3408
244.6448	0.3301
244.86	0.3153
245.0753	0.3147
245.2905	0.2982
245.5057	0.2875
245.721	0.2775
245.9362	0.2713
246.1514	0.2943
246.3665	0.2715
246.5817	0.2582
246.7969	0.2702
247.012	0.2541
247.2271	0.2546
247.4423	0.2469
247.6574	0.2633
247.8725	0.2473
248.0876	0.2365
248.3026	0.2411
248.5177	0.2434
248.7328	0.238
248.9478	0.2121
249.1628	0.224
249.3779	0.2304
249.5929	0.2138
249.8079	0.23
250.0228	0.2139
250.2378	0.2149
250.4528	0.2123
250.6677	0.195
250.8827	0.1927
251.0976	0.2103
251.3125	0.2048
251.5274	0.1737
251.7423	0.1916
251.9572	0.1927
252.172	0.1837
252.3869	0.2089
252.6017	0.1839
252.8166	0.1792
253.0314	0.1809
253.2462	0.1826
253.461	0.1918
253.6758	0.1892
253.8906	0.1901
254.1053	0.1749
254.3201	0.1736
254.5348	0.178
254.7496	0.2018
254.9643	0.1694
255.179	0.1843
255.3937	0.1649
255.6083	0.1645
255.823	0.1778
256.0377	0.1773
256.2523	0.1735
256.467	0.1712
256.6816	0.1701
256.8962	0.1709
257.1108	0.1719
257.3254	0.1709
257.54	0.1693
257.7545	0.1703
257.9691	0.1783
258.1836	0.1716
258.3981	0.1768
258.6127	0.1914
258.8272	0.1647
259.0417	0.1838
259.2561	0.1785
259.4706	0.1712
259.6851	0.1651
259.8995	0.1635
260.114	0.1761
260.3284	0.1671
260.5428	0.1743
260.7572	0.1736
260.9716	0.1862
261.186	0.1605
261.4003	0.1706
261.6147	0.187
261.829	0.1708
262.0433	0.1734
262.2577	0.1821
262.472	0.1915
262.6863	0.1673
262.9005	0.1826
263.1148	0.1729
263.3291	0.1493
263.5433	0.1743
263.7576	0.1727
263.9718	0.1758
264.186	0.1621
264.4002	0.1683
264.6144	0.1697
264.8286	0.1684
265.0427	0.1778
265.2569	0.1612
265.471	0.1694
265.6851	0.175
265.8993	0.1636
266.1134	0.1698
266.3275	0.1587
266.5415	0.1612
266.7556	0.1663
266.9697	0.1794
267.1837	0.1673
267.3978	0.1785
267.6118	0.1854
267.8258	0.1697
268.0398	0.1606
268.2538	0.1826
268.4677	0.1755
268.6817	0.1612
268.8957	0.1689
269.1096	0.1681
269.3235	0.1802
269.5374	0.1688
269.7514	0.1579
269.9652	0.157
270.1791	0.1547
270.393	0.1595
270.6068	0.1771
270.8207	0.1744
271.0345	0.1428
271.2483	0.1663
271.4622	0.1676
271.676	0.1707
271.8897	0.1596
272.1035	0.1541
272.3173	0.1446
272.531	0.1579
272.7448	0.151
272.9585	0.1551
273.1722	0.1492
273.3859	0.1637
273.5996	0.1523
273.8133	0.1531
274.0269	0.1554
274.2406	0.1535
274.4542	0.1522
274.6679	0.1445
274.8815	0.1526
275.0951	0.1616
275.3087	0.1689
275.5223	0.1657
275.7358	0.162
275.9494	0.1594
276.1629	0.1561
276.3765	0.156
276.59	0.166
276.8035	0.1644
277.017	0.1605
277.2305	0.1564
277.444	0.1653
277.6574	0.1622
277.8709	0.1587
278.0843	0.1507
278.2978	0.1579
278.5112	0.1554
278.7246	0.1553
278.938	0.1577
279.1513	0.168
279.3647	0.1817
279.5781	0.1577
279.7914	0.1671
280.0047	0.1783
280.2181	0.1688
280.4314	0.1615
280.6447	0.1619
280.8579	0.1681
281.0712	0.1666
281.2845	0.1689
281.4977	0.1547
281.711	0.1643
281.9242	0.1524
282.1374	0.1676
282.3506	0.1515
282.5638	0.1608
282.7769	0.1661
282.9901	0.1552
283.2033	0.1572
283.4164	0.1737
283.6295	0.1672
283.8426	0.1552
284.0557	0.1635
284.2688	0.1744
284.4819	0.1701
284.695	0.1721
284.908	0.1641
285.1211	0.1525
285.3341	0.172
285.5471	0.175
285.7601	0.1567
285.9731	0.163
286.1861	0.1414
286.3991	0.1684
286.612	0.1666
286.825	0.1636
287.0379	0.1655
287.2508	0.16
287.4637	0.1624
287.6766	0.1566
287.8895	0.1738
288.1024	0.1752
288.3152	0.171
288.5281	0.1568
288.7409	0.1713
288.9538	0.174
289.1666	0.1603
289.3794	0.1727
289.5922	0.165
289.8049	0.1696
290.0177	0.1523
290.2304	0.1635
290.4432	0.1705
290.6559	0.1621
290.8686	0.1704
291.0813	0.1589
291.294	0.1689
291.5067	0.167
291.7194	0.1626
291.932	0.1811
292.1447	0.1511
292.3573	0.1525
292.5699	0.1659
292.7825	0.1652
292.9951	0.1613
293.2077	0.1712
293.4203	0.1568
293.6328	0.1516
293.8454	0.1666
294.0579	0.1561
294.2704	0.1548
294.4829	0.1556
294.6954	0.1666
294.9079	0.1585
295.1204	0.1502
295.3328	0.1514
295.5453	0.1652
295.7577	0.1663
295.9701	0.1569
296.1825	0.1689
296.3949	0.1552
296.6073	0.1592
296.8197	0.1463
297.0321	0.175
297.2444	0.1496
297.4567	0.1577
297.6691	0.1589
297.8814	0.1402
298.0937	0.1545
298.306	0.1664
298.5182	0.1544
298.7305	0.1602
298.9428	0.1611
299.155	0.1527
299.3672	0.1609
299.5794	0.1564
299.7916	0.1572
300.0038	0.158
300.216	0.1674
300.4282	0.153
300.6403	0.1531
300.8525	0.1651
301.0646	0.1518
301.2767	0.1668
301.4888	0.1634
301.7009	0.1589
301.913	0.1563
302.125	0.1665
302.3371	0.1509
302.5491	0.1704
302.7612	0.152
302.9732	0.1549
303.1852	0.1644
303.3972	0.162
303.6092	0.1545
303.8211	0.1505
304.0331	0.1593
304.245	0.1446
304.457	0.1596
304.6689	0.1522
304.8808	0.1652
305.0927	0.1506
305.3046	0.1417
305.5164	0.1551
305.7283	0.1427
305.9401	0.149
306.152	0.1505
306.3638	0.1507
306.5756	0.1482
306.7874	0.1532
306.9992	0.144
307.2109	0.1382
307.4227	0.1209
307.6344	0.147
307.8462	0.1363
308.0579	0.1411
308.2696	0.1357
308.4813	0.1287
308.693	0.1302
308.9046	0.1289
309.1163	0.1286
309.328	0.121
309.5396	0.1359
309.7512	0.122
309.9628	0.1312
310.1744	0.1236
310.386	0.1174
310.5976	0.1199
310.8091	0.1183
311.0207	0.1141
311.2322	0.1192
311.4437	0.1099
311.6552	0.1136
311.8667	0.1219
312.0782	0.1062
312.2897	0.1008
312.5012	0.1195
312.7126	0.1005
312.924	0.1152
313.1355	0.1234
313.3469	0.1121
313.5583	0.1141
313.7696	0.1163
313.981	0.1139
314.1924	0.1106
314.4037	0.1122
314.6151	0.1209
314.8264	0.1162
315.0377	0.1026
315.249	0.1141
315.4603	0.1149
315.6716	0.1082
315.8828	0.1051
316.0941	0.1055
316.3053	0.1043
316.5165	0.1028
316.7277	0.0927
316.9389	0.1043
317.1501	0.0958
317.3613	0.1053
317.5724	0.089
317.7836	0.1126
317.9947	0.1049
318.2058	0.1045
318.417	0.1047
318.6281	0.0992
318.8391	0.1028
319.0502	0.103
319.2613	0.1048
319.4723	0.1064
319.6834	0.1117
319.8944	0.1045
320.1054	0.1154
320.3164	0.1028
320.5274	0.1125
320.7383	0.1085
320.9493	0.1024
321.1602	0.1261
321.3712	0.0957
321.5821	0.1
321.793	0.1136
322.0039	0.1122
322.2148	0.1086
322.4257	0.1156
322.6365	0.1117
322.8474	0.106
323.0582	0.1102
323.269	0.1162
323.4798	0.1279
323.6906	0.1054
323.9014	0.1116
324.1122	0.1163
324.3229	0.1105
324.5337	0.1136
324.7444	0.0952
324.9551	0.1297
325.1658	0.1167
325.3765	0.1089
325.5872	0.1212
325.7979	0.1067
326.0085	0.1197
326.2192	0.1132
326.4298	0.1075
326.6404	0.1028
326.851	0.1098
327.0616	0.1118
327.2722	0.1148
327.4828	0.118
327.6933	0.1096
327.9039	0.1169
328.1144	0.1209
328.3249	0.1253
328.5354	0.1085
328.7459	0.1161
328.9564	0.11
329.1669	0.1092
329.3773	0.1134
329.5878	0.1085
329.7982	0.1058
330.0086	0.1252
330.219	0.1167
330.4294	0.1087
330.6398	0.1143
330.8502	0.1176
331.0605	0.1217
331.2708	0.1229
331.4812	0.1163
331.6915	0.1172
331.9018	0.1276
332.1121	0.1058
332.3224	0.1127
332.5326	0.1184
332.7429	0.1067
332.9531	0.1283
333.1633	0.1168
333.3735	0.1187
333.5837	0.1164
333.7939	0.1032
334.0041	0.1249
334.2143	0.1283
334.4244	0.1167
334.6346	0.1095
334.8447	0.1303
335.0548	0.0987
335.2649	0.1148
335.475	0.1269
335.685	0.118
335.8951	0.1275
336.1051	0.1266
336.3152	0.1301
336.5252	0.1143
336.7352	0.1322
336.9452	0.1261
337.1552	0.1173
337.3652	0.1129
337.5751	0.1315
337.7851	0.1224
337.995	0.1139
338.2049	0.1377
338.4148	0.1235
338.6247	0.125
338.8346	0.1165
339.0445	0.1174
339.2543	0.1196
339.4642	0.1214
339.674	0.1075
339.8838	0.1268
340.0936	0.1314
340.3034	0.1347
340.5132	0.1296
340.7229	0.1183
340.9327	0.1265
341.1424	0.1177
341.3522	0.1279
341.5619	0.118
341.7716	0.1404
341.9813	0.1399
342.1909	0.1337
342.4006	0.1411
342.6102	0.1271
342.8199	0.1382
343.0295	0.1282
343.2391	0.1322
343.4487	0.1323
343.6583	0.1256
343.8679	0.1347
344.0774	0.1355
344.287	0.1454
344.4965	0.1233
344.706	0.1451
344.9155	0.1369
345.125	0.142
345.3345	0.1364
345.544	0.1322
345.7534	0.139
345.9629	0.1382
346.1723	0.1293
346.3817	0.1205
346.5911	0.142
346.8005	0.1336
347.0099	0.1285
347.2193	0.1519
347.4286	0.1393
347.638	0.1295
347.8473	0.1352
348.0566	0.1395
348.2659	0.1479
348.4752	0.1489
348.6845	0.1293
348.8937	0.1406
349.103	0.1432
349.3122	0.1343
349.5214	0.1358
349.7306	0.1585
349.9398	0.1361
350.149	0.1451
350.3582	0.142
350.5674	0.1553
350.7765	0.1384
350.9856	0.1428
351.1948	0.1514
351.4039	0.1376
351.613	0.1435
351.822	0.1544
352.0311	0.1429
352.2402	0.1553
352.4492	0.1468
352.6582	0.1612
352.8672	0.1435
353.0762	0.1555
353.2852	0.1466
353.4942	0.1331
353.7032	0.1507
353.9121	0.1499
354.1211	0.1604
354.33	0.1532
354.5389	0.1523
354.7478	0.1523
354.9567	0.1498
355.1655	0.1405
355.3744	0.1714
355.5833	0.1654
355.7921	0.1726
356.0009	0.1555
356.2097	0.1803
356.4185	0.1717
356.6273	0.1649
356.8361	0.1683
357.0448	0.1628
357.2536	0.153
357.4623	0.1483
357.671	0.158
357.8797	0.1534
358.0884	0.1672
358.2971	0.1524
358.5057	0.1736
358.7144	0.169
358.923	0.1731
359.1316	0.1788
359.3402	0.1709
359.5488	0.1671
359.7574	0.1665
359.966	0.1756
360.1746	0.1755
360.3831	0.1623
360.5916	0.1627
360.8002	0.173
361.0087	0.1881
361.2172	0.1703
361.4256	0.1801
361.6341	0.2039
361.8426	0.1889
362.051	0.1746
362.2594	0.1711
362.4678	0.1811
362.6762	0.1906
362.8846	0.1884
363.093	0.1772
363.3014	0.1811
363.5097	0.1716
363.718	0.1882
363.9264	0.1947
364.1347	0.1678
364.343	0.1881
364.5513	0.2017
364.7595	0.1889
364.9678	0.2001
365.176	0.2019
365.3842	0.1984
365.5925	0.1867
365.8007	0.1923
366.0089	0.1958
366.217	0.1867
366.4252	0.205
366.6333	0.2111
366.8415	0.1992
367.0496	0.1733
367.2577	0.2093
367.4658	0.207
367.6739	0.2121
367.882	0.2022
368.09	0.199
368.2981	0.2023
368.5061	0.2095
368.7141	0.1985
368.9221	0.203
369.1301	0.2118
369.3381	0.1921
369.5461	0.1909
369.754	0.2082
369.962	0.2155
370.1699	0.2131
370.3778	0.2142
370.5857	0.1951
370.7936	0.1989
371.0015	0.201
371.2093	0.2189
371.4172	0.2124
371.625	0.2143
371.8328	0.2006
372.0406	0.201
372.2484	0.205
372.4562	0.2138
372.664	0.2109
372.8717	0.2225
373.0795	0.1858
373.2872	0.2237
373.4949	0.2083
373.7026	0.2293
373.9103	0.2213
374.118	0.2243
374.3256	0.2101
374.5333	0.2277
374.7409	0.2012
374.9485	0.213
375.1561	0.221
375.3637	0.2249
375.5713	0.221
375.7789	0.2273
375.9864	0.2253
376.194	0.2234
376.4015	0.225
376.609	0.2238
376.8165	0.2224
377.024	0.219
377.2315	0.2147
377.4389	0.2339
377.6464	0.2294
377.8538	0.2195
378.0612	0.2213
378.2686	0.2355
378.476	0.2298
378.6834	0.2303
378.8908	0.22
379.0981	0.2397
379.3055	0.2518
379.5128	0.2111
379.7201	0.235
379.9274	0.2158
380.1347	0.2304
380.342	0.2333
380.5492	0.213
380.7565	0.2232
380.9637	0.2314
381.1709	0.2272
381.3781	0.2289
381.5853	0.2478
381.7925	0.2327
381.9997	0.2622
382.2068	0.2505
382.4139	0.2358
382.6211	0.2232
382.8282	0.2385
383.0353	0.2246
383.2424	0.2219
383.4494	0.2501
383.6565	0.2187
383.8635	0.2292
384.0706	0.2433
384.2776	0.2305
384.4846	0.2112
384.6916	0.2506
384.8986	0.2361
385.1055	0.2522
385.3125	0.2326
385.5194	0.2319
385.7263	0.2594
385.9333	0.244
386.1402	0.2236
386.347	0.2401
386.5539	0.221
386.7608	0.2331
386.9676	0.2148
387.1744	0.2329
387.3813	0.2312
387.5881	0.227
387.7948	0.2302
388.0016	0.2307
388.2084	0.2156
388.4151	0.227
388.6219	0.2385
388.8286	0.2205
389.0353	0.2566
389.242	0.2427
389.4487	0.2346
389.6553	0.2112
389.862	0.2065
390.0686	0.2258
390.2753	0.235
390.4819	0.2262
390.6885	0.2023
390.8951	0.2275
391.1016	0.2112
391.3082	0.2145
391.5147	0.2333
391.7213	0.2139
391.9278	0.2137
392.1343	0.2278
392.3408	0.213
392.5473	0.2206
392.7537	0.2189
392.9602	0.2194
393.1666	0.2124
393.373	0.2123
393.5794	0.2063
393.7858	0.2139
393.9922	0.1958
394.1986	0.2054
394.4049	0.2092
394.6113	0.2003
394.8176	0.1916
395.0239	0.2141
395.2302	0.2003
395.4365	0.2045
395.6428	0.1991
395.8491	0.1994
396.0553	0.181
396.2615	0.2034
396.4678	0.1937
396.674	0.1982
396.8802	0.2006
397.0863	0.207
397.2925	0.1948
397.4987	0.1891
397.7048	0.1792
397.9109	0.2016
398.117	0.1805
398.3231	0.1985
398.5292	0.1916
398.7353	0.1999
398.9413	0.1975
399.1474	0.1928
399.3534	0.1949
399.5594	0.1731
399.7654	0.2103
399.9714	0.206
400.1774	0.1883
400.3833	0.1805
400.5893	0.1951
400.7952	0.2056
401.0011	0.1846
401.207	0.2123
401.4129	0.2081
401.6188	0.2039
401.8247	0.1946
402.0305	0.1861
402.2364	0.1896
402.4422	0.1967
402.648	0.1966
402.8538	0.191
403.0596	0.1808
403.2654	0.1987
403.4711	0.1968
403.6768	0.1818
403.8826	0.2004
404.0883	0.2107
404.294	0.1983
404.4997	0.1963
404.7054	0.1739
404.911	0.1802
405.1167	0.186
405.3223	0.1992
405.5279	0.2056
405.7335	0.1872
405.9391	0.1887
406.1447	0.1953
406.3502	0.2059
406.5558	0.1868
406.7613	0.2108
406.9668	0.2014
407.1724	0.1962
407.3778	0.1938
407.5833	0.1908
407.7888	0.1757
407.9942	0.2088
408.1997	0.1831
408.4051	0.1908
408.6105	0.1909
408.8159	0.1758
409.0213	0.1825
409.2267	0.2221
409.432	0.1764
409.6374	0.2039
409.8427	0.1827
410.048	0.1903
410.2533	0.1831
410.4586	0.1731
410.6639	0.1823
410.8691	0.1784
411.0744	0.1886
411.2796	0.1645
411.4848	0.1901
411.69	0.1694
411.8952	0.2011
412.1004	0.1809
412.3056	0.1906
412.5107	0.1833
412.7158	0.1856
412.921	0.1798
413.1261	0.184
413.3312	0.1831
413.5362	0.1662
413.7413	0.1732
413.9464	0.1878
414.1514	0.1866
414.3564	0.1809
414.5614	0.1713
414.7664	0.1701
414.9714	0.1995
415.1764	0.1879
415.3813	0.1784
415.5863	0.1827
415.7912	0.1843
415.9961	0.1786
416.201	0.177
416.4059	0.1859
416.6108	0.1646
416.8156	0.1818
417.0205	0.1811
417.2253	0.1778
417.4301	0.1913
417.6349	0.1687
417.8397	0.1766
418.0445	0.1786
418.2492	0.1666
418.454	0.1989
418.6587	0.1782
418.8634	0.1751
419.0681	0.1663
419.2728	0.1652
419.4775	0.1782
419.6822	0.1712
419.8868	0.155
420.0915	0.1656
420.2961	0.166
420.5007	0.1645
420.7053	0.169
420.9099	0.1618
421.1144	0.1545
421.319	0.1479
421.5235	0.1692
421.728	0.1598
421.9325	0.1809
422.137	0.1831
422.3415	0.1721
422.546	0.1667
422.7504	0.1691
422.9549	0.1579
423.1593	0.1636
423.3637	0.1721
423.5681	0.1821
423.7725	0.148
423.9769	0.1549
424.1812	0.1512
424.3856	0.1479
424.5899	0.1515
424.7942	0.1584
424.9985	0.1443
425.2028	0.1548
425.4071	0.1757
425.6113	0.1378
425.8156	0.1482
426.0198	0.1556
426.224	0.1282
426.4282	0.1398
426.6324	0.1462
426.8366	0.1477
427.0407	0.1575
427.2449	0.1446
427.449	0.1433
427.6531	0.1337
427.8572	0.1371
428.0613	0.1397
428.2654	0.1411
428.4694	0.144
428.6735	0.1371
428.8775	0.1512
429.0815	0.1363
429.2855	0.1293
429.4895	0.1421
429.6935	0.1389
429.8975	0.1353
430.1014	0.1276
430.3053	0.1262
430.5093	0.1273
430.7132	0.1387
430.9171	0.1105
431.1209	0.131
431.3248	0.1317
431.5286	0.1256
431.7325	0.1156
431.9363	0.1151
432.1401	0.132
432.3439	0.1098
432.5477	0.0971
432.7514	0.1178
432.9552	0.1204
433.1589	0.0987
433.3627	0.1178
433.5664	0.0999
433.7701	0.1047
433.9737	0.0969
434.1774	0.103
434.3811	0.0978
434.5847	0.1066
434.7883	0.1038
434.9919	0.0912
435.1955	0.0964
435.3991	0.0985
435.6027	0.0946
435.8062	0.0845
436.0098	0.0918
436.2133	0.082
436.4168	0.0962
436.6203	0.0766
436.8238	0.1068
437.0272	0.0985
437.2307	0.0882
437.4341	0.1008
437.6375	0.0869
437.841	0.0611
438.0443	0.0957
438.2477	0.0853
438.4511	0.0765
438.6545	0.0726
438.8578	0.0814
439.0611	0.0753
439.2644	0.065
439.4677	0.0587
439.671	0.071
439.8743	0.0809
440.0775	0.0719
440.2808	0.0647
440.484	0.0569
440.6872	0.0688
440.8904	0.0607
441.0936	0.088
441.2967	0.0549
441.4999	0.0536
441.703	0.062
441.9062	0.0394
442.1093	0.0481
442.3124	0.0585
442.5155	0.0502
442.7185	0.0575
442.9216	0.0349
443.1246	0.0583
443.3276	0.0659
443.5307	0.0455
443.7337	0.062
443.9366	0.0633
444.1396	0.0414
444.3426	0.0423
444.5455	0.0442
444.7484	0.0327
444.9513	0.0325
445.1542	0.0519
445.3571	0.0406
445.56	0.0426
445.7628	0.0255
445.9657	0.0382
446.1685	0.0373
446.3713	0.0403
446.5741	0.0403
446.7769	0.0319
446.9797	0.0476
447.1824	0.0402
447.3852	0.046
447.5879	0.0368
447.7906	0.0221
447.9933	0.027
448.196	0.0289
448.3986	0.03
448.6013	0.0316
448.8039	0.0112
449.0066	0.0208
449.2092	0.0391
449.4118	0.0319
449.6143	0.038
449.8169	0.036
450.0195	0.0114
450.222	0.0095
450.4245	0.0227
450.627	0.0312
450.8295	0.0257
451.032	0.0304
451.2345	0.0324
451.4369	0.037
451.6394	0.0171
451.8418	0.0008
452.0442	0.0086
452.2466	0.021
452.449	0.0073
452.6513	0.0276
452.8537	0.0179
453.056	0.0121
453.2583	0.0213
453.4607	0.0138
453.663	0.0087
453.8652	0.0309
454.0675	-0.0123
454.2697	0.0272
454.472	0.0127
454.6742	0.0018
454.8764	0.0256
455.0786	0.0289
455.2808	0.0048
455.4829	0.0128
455.6851	0.0261
455.8872	0.0168
456.0893	0.0162
456.2915	-0.0026
456.4935	0.0118
456.6956	0.0076
456.8977	0.0198
457.0997	0.0087
457.3018	-0.0036
457.5038	0.0216
457.7058	0.0049
457.9078	0.0023
458.1098	0.0176
458.3117	0.0211
458.5137	0.0114
458.7156	0.0237
458.9175	0.0022
459.1194	-0.0039
459.3213	0.0099
459.5232	0.0037
459.725	-0.0047
459.9269	0.0128
460.1287	-0.0096
460.3305	0.0059
460.5323	0.0035
460.7341	0.0037
460.9359	0.0103
461.1376	0.0022
461.3394	-0.0124
461.5411	0.0103
461.7428	0.0082
461.9445	0.0018
462.1462	0.0267
462.3479	0.0017
462.5495	0.0039
462.7512	0.0017
462.9528	0.0041
463.1544	-0.0121
463.356	0.0148
463.5576	0.0131
463.7592	-0.0067
463.9607	0.0166
464.1623	0.011
464.3638	0.0102
464.5653	-0.0173
464.7668	0.0062
464.9683	0.0103
465.1697	0.0123
465.3712	-0.0009
465.5726	-0.012
465.7741	-0.0037
465.9755	-0.0085
466.1769	0.0054
466.3782	0.0031
466.5796	-0.0102
466.7809	0.0081
466.9823	-0.0112
467.1836	0.0028
467.3849	-0.0113
467.5862	-0.0052
467.7875	-0.002
467.9887	0.0094
468.19	-0.0014
468.3912	-0.0074
468.5924	0.0028
468.7936	0.0065
468.9948	0.0065
469.196	0.0083
469.3972	-0.0162
469.5983	0.0147
469.7994	-0.005
470.0006	-0.0073
470.2017	-0.0162
470.4027	-0.007
470.6038	0.0084
470.8049	-0.0222
471.0059	-0.0105
471.2069	-0.0174
471.408	-0.0148
471.6089	0.0009
471.8099	-0.0076
472.0109	0.0111
472.2119	-0.0182
472.4128	-0.0257
472.6137	0.0018
472.8146	-0.0123
473.0155	-0.011
473.2164	-0.0026
473.4173	0.0032
473.6181	0.0082
473.819	-0.0023
474.0198	0.0007
474.2206	-0.0106
474.4214	-0.0144
474.6222	-0.0103
474.8229	-0.0195
475.0237	-0.0218
475.2244	-0.0127
475.4251	-0.0103
475.6258	-0.0079
475.8265	-0.0013
476.0272	0.0167
476.2278	-0.0053
476.4285	-0.0085
476.6291	-0.0034
476.8297	-0.008
477.0303	-0.0054
477.2309	-0.0025
477.4315	-0.0068
477.632	-0.0017
477.8326	-0.0094
478.0331	0.0012
478.2336	0.012
478.4341	-0.0094
478.6346	-0.0074
478.8351	-0.0018
479.0355	-0.0002
479.236	-0.018
479.4364	-0.0045
479.6368	-0.0043
479.8372	-0.0181
480.0376	-0.0177
480.2379	-0.03
480.4383	-0.0186
480.6386	0.0051
480.8389	-0.0029
481.0392	-0.0123
481.2395	-0.0092
481.4398	0.0105
481.6401	-0
481.8403	-0.0055
482.0405	-0.0112
482.2408	-0.0087
482.441	0.0027
482.6411	-0.01
482.8413	-0.0008
483.0415	-0.0072
483.2416	-0.0063
483.4417	-0.0091
483.6419	-0.0083
483.8419	-0.011
484.042	-0.0031
484.2421	-0.0034
484.4422	-0.0046
484.6422	-0.0028
484.8422	-0.0098
485.0422	-0.0096
485.2422	-0.0033
485.4422	-0.0084
485.6422	-0.0152
485.8421	-0.0078
486.042	0.0048
486.242	-0.0072
486.4419	-0.0104
486.6417	-0.0092
486.8416	-0.0074
487.0415	-0.0068
487.2413	-0.006
487.4411	-0.0154
487.641	-0.0017
487.8408	0.003
488.0405	-0.0086
488.2403	-0.007
488.4401	0.0001
488.6398	0.001
488.8395	-0.0123
489.0392	-0.0034
489.2389	-0.0059
489.4386	-0.0084
489.6383	-0.0137
489.8379	0.0077
490.0376	-0.01
490.2372	-0.0109
490.4368	-0.0135
490.6364	-0.0055
490.836	-0.0073
491.0355	-0.0057
491.2351	-0.0046
491.4346	-0.0074
491.6341	-0.0173
491.8336	0.0001
492.0331	-0.0198
492.2326	-0.0122
492.432	0.0005
492.6315	-0.0105
492.8309	-0.0113
493.0303	-0.0093
493.2297	-0.0127
493.4291	0.0011
493.6284	-0.0041
493.8278	-0.0052
494.0271	0.001
494.2264	0.0034
494.4257	-0.0126
494.625	-0.0056
494.8243	-0.0177
495.0236	-0.0169
495.2228	-0.0137
495.422	-0.0137
495.6213	-0.0025
495.8205	-0.005
496.0196	-0.0017
496.2188	0.0032
496.418	-0.0131
496.6171	-0.0131
496.8162	-0.0184
497.0153	-0.0042
497.2144	-0.0076
497.4135	-0.0051
497.6126	-0.0197
497.8116	-0.007
498.0107	-0.0141
498.2097	-0.0137
498.4087	-0.0189
498.6077	-0.0019
498.8067	-0.0091
499.0056	0.0054
499.2046	-0.0105
499.4035	-0.0246
499.6024	-0.0124
499.8013	-0.0012
500.0002	-0.0124
500.199	-0.0094
500.3979	-0.0065
500.5967	-0.0218
500.7956	-0.0069
500.9944	-0.0159
501.1932	-0.017
501.3919	-0.0186
501.5907	-0.0116
501.7895	-0.005
501.9882	-0.0187
502.1869	-0.011
502.3856	-0.0135
502.5843	-0.0198
502.783	-0.0131
502.9816	-0.0064
503.1803	-0.0178
503.3789	-0.0098
503.5775	0.0013
503.7761	-0.0052
503.9747	-0.0172
504.1732	-0.0093
504.3718	-0.008
504.5703	-0.0059
504.7689	-0.0134
504.9674	-0.003
505.1658	-0.012
505.3643	-0.0104
505.5628	-0.0096
505.7612	-0.0124
505.9597	0.0021
506.1581	-0.0145
506.3565	0.0065
506.5549	-0.0173
506.7532	-0.0144
506.9516	-0.011
507.1499	-0.008
507.3482	-0.0175
507.5465	-0.0101
507.7448	-0.0123
507.9431	-0.019
508.1414	0.0052
508.3396	-0.0175
508.5379	-0.0064
508.7361	-0.0115
508.9343	-0.0184
509.1325	-0.0068
509.3306	-0.0124
509.5288	-0.0124
509.7269	-0.0108
509.9251	-0.005
510.1232	-0.0153
510.3213	0.0025
510.5193	-0.0025
510.7174	-0.0187
510.9154	-0.0162
511.1135	-0.0126
511.3115	-0.0112
511.5095	-0.0106
511.7075	-0.0072
511.9055	-0.0091
512.1034	-0.0131
512.3014	0.0001
512.4993	-0.0049
512.6972	-0.0144
512.8951	-0.02
513.093	-0.0103
513.2908	-0.01
513.4887	-0.0089
513.6865	-0.0091
513.8844	-0.0147
514.0822	-0.0094
514.2799	-0.0121
514.4777	-0.009
514.6755	-0.005
514.8732	-0.0178
515.0709	-0.0102
515.2687	-0.0093
515.4664	-0.007
515.664	-0.0105
515.8617	-0.0195
516.0594	-0.0189
516.257	-0.0073
516.4546	-0.0197
516.6522	-0.0188
516.8498	-0.0152
517.0474	-0.0014
517.2449	-0.0004
517.4425	-0.0187
517.64	-0.0159
517.8375	0.0001
518.035	-0.0049
518.2325	-0.0187
518.43	-0.0115
518.6274	-0.009
518.8249	-0.0159
519.0223	-0.0065
519.2197	-0.0163
519.4171	-0.0132
519.6145	-0.0256
519.8118	-0.0031
520.0092	-0.0066
520.2065	-0.0094
520.4038	-0.0142
520.6011	-0.0048
520.7984	-0.0131
520.9956	-0.0145
521.1929	-0.0069
521.3901	-0.0071
521.5874	-0.0006
521.7846	-0.0069
521.9818	-0.0089
522.1789	-0.0201
522.3761	-0.0171
522.5732	-0.0091
522.7704	-0.0141
522.9675	-0.0076
523.1646	-0.0097
523.3617	0.0003
523.5587	-0.009
523.7558	-0.0015
523.9528	-0.0095
524.1498	-0.004
524.3468	-0.0145
524.5438	0.0006
524.7408	-0.0048
524.9378	-0.0003
525.1347	-0.0206
525.3316	0.0047
525.5285	-0.015
525.7254	-0.0034
525.9223	-0.0054
526.1192	-0.0091
526.316	-0.0144
526.5129	-0.003
526.7097	-0.002
526.9065	-0.0011
527.1033	-0.0074
527.3	-0.0009
527.4968	-0.0091
527.6935	-0.0178
527.8903	-0.0196
528.087	-0.0065
528.2837	-0.0125
528.4804	0.0001
528.677	-0.0076
528.8737	0.0106
529.0703	-0.0028
529.2669	-0.0104
529.4635	-0.0032
529.6601	0.0065
529.8567	-0.0133
530.0532	-0.0053
530.2498	-0.0036
530.4463	0.0052
530.6428	-0.0123
530.8393	0.0059
531.0358	-0.0039
531.2322	-0.0008
531.4287	-0.0114
531.6251	-0.0025
531.8215	0.0073
532.0179	0.0086
532.2143	0.0033
532.4107	-0.0071
532.607	-0.0029
532.8034	-0.0043
532.9997	-0.0018
533.196	-0.0032
533.3923	-0.0035
533.5886	-0.009
533.7848	0.0016
533.9811	0.0023
534.1773	-0.0022
534.3735	0.001
534.5697	-0.0111
534.7659	-0.0139
534.9621	-0.0009
535.1582	-0.0124
535.3544	-0.0058
535.5505	-0.0201
535.7466	-0.0111
535.9427	-0.0036
536.1387	-0.008
536.3348	-0.0084
536.5308	-0.0032
536.7269	-0.0228
536.9229	0.0022
537.1189	-0.0116
537.3148	-0.0107
537.5108	-0.0118
537.7068	-0.0045
537.9027	0.0011
538.0986	-0.0085
538.2945	-0.0057
538.4904	-0.0163
538.6863	-0.0077
538.8821	-0.0091
539.078	-0.0107
539.2738	0.0022
539.4696	-0.0092
539.6654	-0.0018
539.8611	0.0094
540.0569	-0.005
540.2526	-0.011
540.4484	-0.0018
540.6441	-0.0001
540.8398	-0
541.0355	-0.0025
541.2311	-0.0024
541.4268	-0.0193
541.6224	0.0017
541.818	-0.0024
542.0136	-0.0141
542.2092	0.0036
542.4048	0.0035
542.6003	-0.0022
542.7959	-0.0081
542.9914	-0.0049
543.1869	0.0023
543.3824	-0.0072
543.5779	-0.0086
543.7734	-0.0004
543.9688	-0.0027
544.1642	0.0039
544.3596	0.0032
544.555	-0.0095
544.7504	-0.0068
544.9458	-0.0004
545.1411	-0.0033
545.3365	-0.0057
545.5318	-0.0113
545.7271	-0.0045
545.9224	0.0011
546.1177	-0.0006
546.3129	0.0021
546.5081	-0.0038
546.7034	-0.005
546.8986	-0.0067
547.0938	-0.0048
547.289	-0.0043
547.4841	-0.0003
547.6793	0.0007
547.8744	-0.0108
548.0695	-0.0029
548.2646	-0.0074
548.4597	0.0033
548.6548	0.003
548.8498	-0.001
549.0448	0.0006
549.2399	-0.0109
549.4349	0.0072
549.6298	-0.0047
549.8248	0.0086
550.0198	0.003
550.2147	-0.0029
550.4096	-0.0081
550.6045	-0.0002
550.7994	-0.0036
550.9943	0.0063
551.1892	0.0048
551.384	0.0081
551.5788	-0.0106
551.7737	0.0029
551.9685	0.0001
552.1632	-0.0004
552.358	-0.001
552.5528	-0.0026
552.7475	-0.0054
552.9422	-0.0024
553.1369	0.0008
553.3316	0.009
553.5263	-0.0075
553.7209	0.007
553.9156	-0.0052
554.1102	-0.0022
554.3048	-0.0085
554.4994	0.0174
554.694	-0.0055
554.8885	0.0038
555.0831	-0.0063
555.2776	-0.011
555.4721	-0.0064
555.6666	-0.003
555.8611	0.0105
556.0555	0.0008
556.25	0.0001
556.4444	-0.0057
556.6388	-0.0029
556.8332	-0.0054
557.0276	0.0035
557.222	-0.0101
557.4163	-0.0015
557.6107	-0.0106
557.805	0.0063
557.9993	-0.006
558.1936	0.0002
558.3879	-0.0001
558.5821	-0.0002
558.7764	-0.0083
558.9706	0.0048
559.1648	0.01
559.359	-0.0026
559.5532	-0.0088
559.7473	-0.0012
559.9415	-0.0079
560.1356	-0.0041
560.3297	-0.0147
560.5238	-0.0052
560.7179	-0.0046
560.9119	-0.0074
561.106	-0.0037
561.3	-0.0039
561.494	0.0011
561.688	-0.0021
561.882	-0.008
562.076	-0.0045
562.2699	0.006
562.4639	0.0003
562.6578	-0.0018
562.8517	-0.0066
563.0456	-0.0006
563.2395	0.0034
563.4333	-0.0001
563.6272	0.0054
563.821	-0.0091
564.0148	0.0059
564.2086	-0.006
564.4024	-0.001
564.5961	-0.0063
564.7899	0.0027
564.9836	-0.0022
565.1773	0.0079
565.371	0.0032
565.5647	0.0056
565.7584	-0.0009
565.952	0.0025
566.1456	0.0087
566.3393	-0.0018
566.5329	-0.0024
566.7264	-0.0033
566.92	-0.0118
567.1136	0.0048
567.3071	0.0002
567.5006	0.0028
567.6941	0.0012
567.8876	0.001
568.0811	-0.0067
568.2745	0.0016
568.468	0.0151
568.6614	0.003
568.8548	0.0057
569.0482	0.0041
569.2416	0.0048
569.4349	-0.0007
569.6283	-0.001
569.8216	-0.0041
570.0149	-0.0056
570.2082	0.0015
570.4015	0.0042
570.5947	0.0029
570.788	0.003
570.9812	0.0009
571.1744	0.0013
571.3676	-0.0103
571.5608	-0.0048
571.754	-0.001
571.9471	-0.0054
572.1402	0.0056
572.3333	-0.0053
572.5264	-0.0043
572.7195	-0.001
572.9126	0.0048
573.1057	-0.0046
573.2987	-0.0105
573.4917	-0.0032
573.6847	0.0012
573.8777	0.0043
574.0707	0.0054
574.2636	-0.0031
574.4566	0.0008
574.6495	0.0099
574.8424	-0.0057
575.0353	-0.0052
575.2281	0.0077
575.421	0.0059
575.6138	0
575.8067	-0.0001
575.9995	0.0016
576.1923	0.0045
576.385	0.0019
576.5778	-0.005
576.7706	-0.0021
576.9633	-0.0063
577.156	0.0013
577.3487	-0.0016
577.5414	-0.0037
577.734	-0.0067
577.9267	0.0014
578.1193	-0.0143
578.3119	-0.0126
578.5045	-0.0024
578.6971	-0.0025
578.8897	0.0017
579.0822	-0.004
579.2747	-0.0013
579.4673	-0.0041
579.6598	0.005
579.8522	0.0036
580.0447	-0.0097
580.2372	-0.0092
580.4296	-0.0011
580.622	0.0012
580.8144	-0.0039
581.0068	-0.0031
581.1992	-0.0167
581.3915	-0.0094
581.5839	-0.0085
581.7762	-0.0093
581.9685	-0.0029
582.1608	-0.0017
582.353	-0.0046
582.5453	0.001
582.7375	0.0018
582.9298	0.0023
583.122	0.0004
583.3142	-0.0005
583.5063	-0.0015
583.6985	-0.008
583.8906	0.0015
584.0827	-0.0058
584.2749	0.0042
584.4669	-0.0013
584.659	-0.0033
584.8511	-0.0034
585.0431	-0.0078
585.2352	-0.0012
585.4272	-0.002
585.6192	0.0034
585.8111	-0.0009
586.0031	-0.0017
586.195	-0.0012
586.387	0.0019
586.5789	-0.0006
586.7708	0.0044
586.9627	-0.0017
587.1545	-0.0063
587.3464	0.0027
587.5382	0.0067
587.73	0.0073
587.9218	0.0047
588.1136	0.002
588.3053	0.004
588.4971	-0.0094
588.6888	-0.0042
588.8805	0.0077
589.0722	0.0028
589.2639	0.0012
589.4556	-0.004
589.6472	0.0028
589.8389	-0.0065
590.0305	-0.0082
590.2221	0.0056
590.4137	-0.0043
590.6052	0.0054
590.7968	0.0002
590.9883	-0.0045
591.1798	-0.0008
591.3713	0.0049
591.5628	-0.002
591.7543	0.0099
591.9458	0.0011
592.1372	0.0087
592.3286	0.0088
592.52	0.0082
592.7114	-0.0006
592.9028	-0.0026
593.0941	-0.0056
593.2855	0.0031
593.4768	-0.0033
593.6681	-0.0038
593.8594	-0.0049
594.0506	0.0001
594.2419	0.0066
594.4331	0.006
594.6244	0.0011
594.8156	-0.0096
595.0067	-0.0035
595.1979	-0.0021
595.3891	0.0058
595.5802	-0.0069
595.7713	0.002
595.9624	-0.002
596.1535	0.009
596.3446	0.0015
596.5357	0.0001
596.7267	0.0071
596.9177	0.0021
597.1087	-0.001
597.2997	0.0026
597.4907	0.0073
597.6817	0.0029
597.8726	0.0036
598.0635	-0.0028
598.2544	0.0025
598.4453	-0.0026
598.6362	-0.0029
598.827	-0.0011
599.0179	0.0084
599.2087	0.0024
599.3995	-0.0043
599.5903	0.0045
599.7811	0.013
599.9718	0.005
600.1626	0.0005
600.3533	-0.0041
600.544	-0.0022
600.7347	0.003
600.9254	0.0026
601.116	-0.0051
601.3067	0.0014
601.4973	-0
601.6879	0.0062
601.8785	-0.0008
602.0691	0.0056
602.2596	-0.0014
602.4502	0.0022
602.6407	0.0045
602.8312	-0.0038
603.0217	-0.0067
603.2122	0.0052
603.4027	0.0055
603.5931	0.0026
603.7835	0.0018
603.9739	-0.006
604.1643	0.0054
604.3547	-0.001
604.5451	0.0033
604.7354	-0.0041
604.9257	0.0018
605.116	0.001
605.3063	0.0057
605.4966	0.0038
605.6869	0.0053
605.8771	0.007
606.0673	0.0036
606.2575	0.0013
606.4477	0.006
606.6379	0.0007
606.8281	0.0045
607.0182	-0.0025
607.2083	0.0121
607.3985	-0.0013
607.5885	0.0024
607.7786	0.0034
607.9687	0.0019
608.1587	0.0074
608.3488	0.0081
608.5388	0.0027
608.7288	0.0034
608.9187	-0.0054
609.1087	0.0012
609.2986	-0.0039
609.4886	0.0007
609.6785	-0.0053
609.8684	-0.0015
610.0582	0.0009
610.2481	0.0023
610.4379	-0.0029
610.6278	-0.0004
610.8176	-0.0052
611.0074	-0.0027
611.1971	0.0006
611.3869	-0.0042
611.5766	-0.0044
611.7664	0.0054
611.9561	0.0007
612.1458	0.0054
612.3354	-0.0088
612.5251	-0.0047
612.7147	0.0054
612.9044	0.0052
613.094	-0.0092
613.2836	0.0038
613.4731	-0.0029
613.6627	-0.0006
613.8522	0.0004
614.0417	-0.002
614.2313	-0.0041
614.4207	-0.0092
614.6102	0.0013
614.7997	-0.0061
614.9891	-0.0077
615.1785	0.0008
615.3679	-0.0014
615.5573	0.0118
615.7467	0.0038
615.9361	0.0025
616.1254	-0.0066
616.3147	-0.0015
616.504	0.0029
616.6933	0.0037
616.8826	0.0089
617.0718	0.003
617.2611	0.0028
617.4503	0.0002
617.6395	0.0011
617.8287	-0.0012
618.0179	-0.0004
618.207	0.0089
618.3961	-0.0005
618.5853	-0.0007
618.7744	0.0036
618.9634	0.0046
619.1525	0.006
619.3416	0.0014
619.5306	0.001
619.7196	-0.0004
619.9086	0.0011
620.0976	0.0032
620.2866	-0.0003
620.4755	0.0032
620.6645	-0.0016
620.8534	0.0008
621.0423	0.0111
621.2312	0.0049
621.42	0.0011
621.6089	0.0007
621.7977	0.0046
621.9865	-0.0097
622.1753	0.0128
622.3641	-0.0003
622.5529	0.0081
622.7416	0.0075
622.9303	-0.001
623.1191	0.0026
623.3078	-0.004
623.4964	-0.0033
623.6851	-0.0049
623.8737	-0.0049
624.0624	0.0031
624.251	-0.0022
624.4396	-0.0002
624.6282	0.005
624.8167	0.0005
625.0053	0.0007
625.1938	0.014
625.3823	0.0084
625.5708	0.0013
625.7593	-0.0071
625.9477	0.0009
626.1362	0.0005
626.3246	0.0047
626.513	0.0112
626.7014	0.0041
626.8898	0.003
627.0781	0.0008
627.2665	-0.0072
627.4548	0.0135
627.6431	0.0059
627.8314	0.002
628.0197	0.0041
628.2079	-0.0054
628.3962	0.0008
628.5844	0.0098
628.7726	0.0085
628.9608	0.0087
629.1489	0.0042
629.3371	0.0081
629.5252	0.0022
629.7134	0.0083
629.9015	0.0026
630.0895	0.0049
630.2776	0.0092
630.4657	0.0061
630.6537	0.0043
630.8417	-0.003
631.0297	-0.0024
631.2177	0.0006
631.4057	-0.0012
631.5936	0.0032
631.7815	-0.0035
631.9695	0.0032
632.1574	0.0011
632.3452	0.0121
632.5331	0.0023
632.7209	0.0033
632.9088	0.0113
633.0966	0.0073
633.2844	-0.0033
633.4722	-0.001
633.6599	0.0026
633.8477	0.0064
634.0354	0.0052
634.2231	0.0055
634.4108	0.005
634.5985	0.0103
634.7861	0.0039
634.9738	0.0082
635.1614	-0.0001
635.349	-0.0012
635.5366	-0.0051
635.7242	-0.0047
635.9117	0.0072
636.0993	-0.0072
636.2868	-0.0007
636.4743	-0.0019
636.6618	0.014
636.8492	0.0065
637.0367	0.0048
637.2241	-0.0019
637.4115	-0.0028
637.5989	-0.001
637.7863	-0.0014
637.9737	0.0008
638.161	0.0034
638.3484	-0.0023
638.5357	0.0099
638.723	-0.0004
638.9103	0.0099
639.0975	0.0091
639.2848	0.0107
639.472	0.0054
639.6592	0.0033
639.8464	0.0137
640.0336	0.0131
640.2208	0.0062
640.4079	0.0096
640.595	0.0046
640.7821	0.0082
640.9692	0.0032
641.1563	0.0103
641.3434	0.0038
641.5304	0.0028
641.7174	0.0015
641.9044	-0.0014
642.0914	0.0084
642.2784	0.0071
642.4653	0.0097
642.6523	0.0062
642.8392	0.0026
643.0261	0.006
643.213	0.0067
643.3999	0.0019
643.5867	-0.0016
643.7735	0.0025
643.9604	-0.0004
644.1472	0.0086
644.3339	0.0079
644.5207	0.0098
644.7075	0.0002
644.8942	0.0078
645.0809	0.015
645.2676	0.0099
645.4543	0.0056
645.6409	0.0055
645.8276	0.0036
646.0142	0.0069
646.2008	-0.0032
646.3874	0.0003
646.574	0.0004
646.7605	0.004
646.9471	-0.0112
647.1336	0.0048
647.3201	0.0113
647.5066	-0.0034
647.6931	0.0063
647.8795	-0.0027
648.0659	0.0105
648.2524	0.0061
648.4388	-0.0003
648.6252	-0.0017
648.8115	0.003
648.9979	-0.0029
649.1842	-0.0001
649.3705	-0.0007
649.5568	0.0043
649.7431	0.0038
649.9294	-0.0027
650.1156	0.0047
650.3018	-0.0006
650.488	0.0077
650.6742	0.0019
650.8604	0.0042
651.0466	-0.0038
651.2327	0.0014
651.4188	0.0021
651.6049	0.0033
651.791	0.0019
651.9771	0.0049
652.1632	0.0045
652.3492	0.0064
652.5352	0.0071
652.7212	-0.0015
652.9072	0.0138
653.0932	0.0071
653.2791	-0.0009
653.465	0.0047
653.651	0.0071
653.8369	0.0031
654.0227	0.0077
654.2086	0.0033
654.3944	0.0058
654.5803	0.0036
654.7661	0.0013
654.9519	0.009
655.1377	-0.0037
655.3234	-0.0053
655.5092	-0.0035
655.6949	-0.0052
655.8806	-0.0058
656.0663	-0.0074
656.2519	-0.0098
656.4376	-0.0045
656.6232	0.0031
656.8088	0.0013
656.9945	0.0032
657.18	0.0085
657.3656	0.0041
657.5511	0.0008
657.7367	0.0005
657.9222	0.0137
658.1077	0.0049
658.2932	0.0052
658.4786	-0.0015
658.6641	0.0043
658.8495	0.0055
659.0349	0.0072
659.2203	0.0078
659.4057	0.0061
659.591	0.0019
659.7764	0.0031
659.9617	-0.0004
660.147	0.0004
660.3323	0.0085
660.5176	0.011
660.7028	0.0081
660.888	0.0098
661.0733	0.0079
661.2585	0.0048
661.4436	0.0041
661.6288	0.0034
661.8139	0.0047
661.9991	0.009
662.1842	0.0046
662.3693	0.0087
662.5544	0.0051
662.7394	0.0073
662.9245	0.0017
663.1095	-0.0041
663.2945	-0.0081
663.4795	-0.0009
663.6644	0.0007
663.8494	-0.001
664.0343	0.0004
664.2193	-0.0091
664.4042	-0.0034
664.589	0.0013
664.7739	0.0015
664.9587	-0.004
665.1436	-0.0004
665.3284	0.0078
665.5132	-0.0003
665.698	0.0021
665.8827	0.0074
666.0675	0.0014
666.2522	-0.0058
666.4369	0.0115
666.6216	0.01
666.8063	0.0082
666.9909	0.0035
667.1756	0.0043
667.3602	0.0047
667.5448	0.0054
667.7294	0.005
667.9139	0.0077
668.0985	0.0066
668.283	0.0035
668.4675	0.0005
668.652	0.0004
668.8365	-0
669.0209	0.0052
669.2054	0.014
669.3898	0.0024
669.5742	0.0039
669.7586	0.0114
669.943	0.0121
670.1273	0.0099
670.3117	0.0062
670.496	0.0084
670.6803	0.0129
670.8646	0.0066
671.0488	0.0025
671.2331	0.0101
671.4173	0.0052
671.6015	0.003
671.7857	0.0075
671.9699	0.0142
672.1541	0.0108
672.3382	0.0077
672.5223	0.0108
672.7064	0.008
672.8905	0.0098
673.0746	0.0063
673.2587	0.0035
673.4427	0.0058
673.6267	0.0132
673.8107	0.011
673.9947	0.0078
674.1787	0.0073
674.3626	0.001
674.5465	0.0039
674.7304	0.0112
674.9143	0.0083
675.0982	0.0063
675.2821	0.0057
675.4659	0.0127
675.6497	0.0046
675.8335	0.0063
676.0173	0.0081
676.2011	0.005
676.3849	0.0092
676.5686	0.0047
676.7523	0.0028
676.936	-0.0006
677.1197	0.0022
677.3034	0.0032
677.487	0.0083
677.6706	0.0082
677.8542	0.0127
678.0378	0.0007
678.2214	0.0104
678.405	0.0084
678.5885	-0.0027
678.772	0.0071
678.9555	-0.0023
679.139	-0.0019
679.3225	-0.0019
679.5059	0.0017
679.6894	0.0006
679.8728	0.002
680.0562	-0.0026
680.2395	-0.0027
680.4229	-0.0002
680.6062	0.0059
680.7896	0.0064
680.9729	-0.0082
681.1562	0.0146
681.3394	0.0083
681.5227	-0.0002
681.7059	0.0058
681.8891	0.0015
682.0723	0.0068
682.2555	0.0045
682.4387	-0.0019
682.6218	-0.0005
682.805	0.007
682.9881	0.01
683.1712	-0.0002
683.3542	0.0045
683.5373	0.008
683.7203	0.0016
683.9034	0.0019
684.0864	0.0011
684.2694	-0.0043
684.4523	0.0121
684.6353	-0.003
684.8182	0.0022
685.0011	-0.0005
685.184	0.0115
685.3669	0.0041
685.5498	0.0054
685.7326	0.0089
685.9154	0.0015
686.0982	0.014
686.281	0.0128
686.4638	0.0131
686.6465	-0.0038
686.8293	0.0091
687.012	0.0122
687.1947	0.0024
687.3774	0.01
687.56	-0.0051
687.7427	0.0061
687.9253	0.0018
688.1079	-0
688.2905	0.0137
688.4731	-0.0058
688.6556	0.0014
688.8382	0.0068
689.0207	0.0064
689.2032	-0.0031
689.3857	-0.0022
689.5681	0.0051
689.7506	0.0015
689.933	-0.0024
690.1154	-0.004
690.2978	0.0016
690.4802	0.0075
690.6626	-0.0031
690.8449	-0.0033
691.0272	0.0122
691.2095	-0.0098
691.3918	0.0016
691.5741	0.0043
691.7563	-0.0056
691.9386	-0.0033
692.1208	-0.0037
692.303	0.0016
692.4852	-0.0033
692.6673	0.0071
692.8495	-0.0015
693.0316	-0.0006
693.2137	0.001
693.3958	0.0048
693.5778	0.0022
693.7599	0.0017
693.9419	0.0025
694.1239	0.0084
694.3059	0.0007
694.4879	0.0091
694.6699	0.0121
694.8518	0.0071
695.0337	-0.0069
695.2157	0.0029
695.3975	-0.003
695.5794	-0.0006
695.7613	-0.0021
695.9431	-0.0058
696.1249	0.0059
696.3067	0.0084
696.4885	0.01
696.6703	-0.0085
696.852	0.0037
697.0337	0.0092
697.2154	0.007
697.3971	0.0083
697.5788	0.0014
697.7605	0.0021
697.9421	0.0087
698.1237	0.0061
698.3053	-0.0035
698.4869	-0.004
698.6685	-0.002
698.85	-0.003
699.0315	0.0111
699.213	-0.0067
699.3945	0.0054
699.576	0.0056
699.7575	0.0137
699.9389	0.0098
700.1203	-0.0029
700.3017	-0.0067
700.4831	-0.011
700.6645	-0.0001
700.8458	0.0053
701.0271	-0.0033
701.2084	-0.0009
701.3897	-0.0059
701.571	0.0014
701.7523	-0.0031
701.9335	0.0068
702.1147	0.0022
702.2959	-0.0016
702.4771	0.002
702.6583	0.004
702.8394	-0.0082
703.0205	0.0047
703.2016	0.0019
703.3827	0.0005
703.5638	0.0088
703.7449	0.0063
703.9259	0.0068
704.1069	-0.0083
704.2879	0.0037
704.4689	0.005
704.6499	0.0041
704.8308	-0.0012
705.0117	-0.0003
705.1927	0.0027
705.3735	-0.0067
705.5544	-0.0064
705.7353	-0.0013
705.9161	-0.0037
706.0969	-0.0056
706.2777	-0.0016
706.4585	-0.0012
706.6393	0.0035
706.82	-0.0033
707.0007	0.0016
707.1815	0.0002
707.3621	0.0064
707.5428	0.0031
707.7235	0.0074
707.9041	0.0003
708.0847	-0.0045
708.2653	-0.006
708.4459	-0.0019
708.6265	0.0057
708.807	0.0039
708.9875	-0.0018
709.168	-0.0019
709.3485	-0.0013
709.529	0.0022
709.7095	-0.006
709.8899	0.0014
710.0703	-0.0117
710.2507	0.0019
710.4311	-0.0045
710.6115	-0.0078
710.7918	-0.0003
710.9721	0.004
711.1524	-0.0078
711.3327	-0.001
711.513	0.0019
711.6932	0.0128
711.8735	0.0072
712.0537	0.0016
712.2339	0.0025
712.4141	-0.0086
712.5942	-0.0095
712.7744	-0.0023
712.9545	-0.0039
713.1346	-0.005
713.3147	0.0009
713.4947	0.0017
713.6748	0.0068
713.8548	0.0044
714.0348	-0.0036
714.2148	0.0017
714.3948	0.0149
714.5748	0.0037
714.7547	0.0075
714.9346	0.0084
715.1145	0.003
715.2944	-0.0005
715.4743	0.0084
715.6541	-0.0005
715.834	0.0048
716.0138	0.0044
716.1936	-0.0029
716.3733	0.0026
716.5531	0.0119
716.7328	-0.0066
716.9126	0.0043
717.0923	0.0038
717.2719	0.0004
717.4516	0.0088
717.6312	0.0039
717.8109	-0.0045
717.9905	0.0086
718.1701	-0.0008
718.3496	-0.0119
718.5292	0.0046
718.7087	-0.0005
718.8882	0.0031
719.0677	0.0109
719.2472	0.0048
719.4267	0.0119
719.6061	0.0041
719.7856	0.0097
719.965	0.0091
720.1443	0.0002
720.3237	0.0142
720.5031	0.0156
720.6824	0.0186
720.8617	0.0029
721.041	0.0051
721.2203	0.0083
721.3995	0.0034
721.5788	0.0044
721.758	0.009
721.9372	0.0009
722.1164	0.0059
722.2956	0.0038
722.4747	-0.0004
722.6538	0.0038
722.8329	0.0045
723.012	0.0015
723.1911	-0.0008
723.3702	0.0004
723.5492	-0.005
723.7282	-0.008
723.9072	-0.0013
724.0862	-0.0038
724.2652	-0.0034
724.4441	-0.0023
724.623	-0.0038
724.8019	0.0021
724.9808	0.0072
725.1597	-0.001
725.3385	0.0137
725.5174	0.007
725.6962	-0.0023
725.875	0.0049
726.0538	0.01
726.2325	0.0036
726.4112	0.0069
726.59	-0.0056
726.7687	-0.0107
726.9474	0.003
727.126	0.0016
727.3047	-0.0017
727.4833	0.0002
727.6619	-0.0054
727.8405	-0.0083
728.0191	-0.0036
728.1976	0.0039
728.3762	0.0071
728.5547	0.0011
728.7332	-0.0104
728.9116	0.0006
729.0901	0.0091
729.2686	-0.0084
729.447	0.0032
729.6254	-0.0027
729.8038	0.008
729.9821	-0.0135
730.1605	0.005
730.3388	-0.0006
730.5171	-0.004
730.6954	-0.0045
730.8737	-0.0001
731.0519	0.0069
731.2302	0.0004
731.4084	0.0052
731.5866	0.0084
731.7648	0.0009
731.9429	0.0041
732.1211	-0.0056
732.2992	0.0061
732.4773	-0.0081
732.6554	0.0055
732.8335	-0
733.0115	0.0045
733.1896	0.007
733.3676	-0.0131
733.5456	0.0099
733.7235	0.009
733.9015	-0.0076
734.0794	-0.0044
734.2574	-0.0025
734.4353	0.0062
734.6131	0.0028
734.791	0.0051
734.9689	-0.0072
735.1467	-0.0014
735.3245	-0.0067
735.5023	-0.0049
735.68	-0.0057
735.8578	0.0054
736.0355	-0.0169
736.2132	-0.0032
736.3909	-0.0007
736.5686	-0.0079
736.7463	0.0028
736.9239	-0.0026
737.1015	-0.0007
737.2791	0.0085
737.4567	-0.0042
737.6343	-0.0127
737.8118	0.0036
737.9894	0.0014
738.1669	-0.0079
738.3444	-0.0022
738.5218	-0.0014
738.6993	-0.0013
738.8767	0.0013
739.0541	0.007
739.2315	-0.0084
739.4089	0.0007
739.5863	0.0048
739.7636	-0.0101
739.9409	0.0022
740.1182	0.0102
740.2955	0.0037
740.4728	-0.0035
740.65	-0.001
740.8272	0.0074
741.0044	-0.0009
741.1816	0.0025
741.3588	-0.0022
741.5359	-0.002
741.7131	-0.0164
741.8902	-0.0044
742.0673	0.001
742.2444	-0.0039
742.4214	-0.0001
742.5985	0.0001
742.7755	0.0057
742.9525	-0.0154
743.1295	-0.002
743.3064	0.0122
743.4834	0.0129
743.6603	-0.002
743.8372	-0.0006
744.0141	0.01
744.191	0.003
744.3678	-0.0032
744.5446	-0.0034
744.7215	0.0147
744.8982	-0.0024
745.075	0.0009
745.2518	0.0065
745.4285	0.0034
745.6052	-0.004
745.7819	-0.003
745.9586	-0.0035
746.1353	0.0019
746.3119	-0.0057
746.4885	-0.0062
746.6651	-0.0056
746.8417	0.0012
747.0183	-0.0063
747.1948	-0.0018
747.3714	0.0042
747.5479	0.0003
747.7244	-0.005
747.9008	0.0101
748.0773	0.0084
748.2537	0.0034
748.4301	-0.006
748.6065	0.0006
748.7829	0.0047
748.9593	-0.006
749.1356	0.0076
749.3119	0.0121
749.4882	-0.002
749.6645	0.0072
749.8408	-0.0027
750.017	-0.0016
750.1933	-0.0016
750.3695	-0.0001
750.5457	0.0018
750.7218	-0.0025
750.898	0.0063
751.0741	0.0023
751.2502	0.0061
751.4263	-0.0034
751.6024	0.001
751.7784	-0.0082
751.9545	-0.0041
752.1305	0.0009
752.3065	-0.0067
752.4825	-0.0011
752.6584	-0.0048
752.8344	-0.004
753.0103	-0.0096
753.1862	-0.0097
753.3621	-0.0065
753.5379	-0.0148
753.7138	0.008
753.8896	-0.0033
754.0654	0.0022
754.2412	0.004
754.417	0.0045
754.5927	-0.0056
754.7685	-0.0086
754.9442	-0.0061
755.1199	0.0164
755.2956	-0.0019
755.4712	-0.0008
755.6469	-0.0048
755.8225	-0.0046
755.9981	-0.0019
756.1736	0.0007
756.3492	0.0029
756.5248	-0.0041
756.7003	-0.0063
756.8758	0.0023
757.0513	-0.0197
757.2267	-0.01
757.4022	0.0006
757.5776	-0.0112
757.753	0.001
757.9284	0.0076
758.1038	0.0157
758.2791	0.005
758.4545	-0.0072
758.6298	0.0065
758.8051	0.0001
758.9803	0.0056
759.1556	0.0029
759.3308	-0.0013
759.506	0.0129
759.6812	0.0038
759.8564	0.0132
760.0316	-0.0039
760.2067	-0.0013
760.3819	0.0063
760.557	0.0107
760.732	0.0101
760.9071	-0.0035
761.0821	0.0017
761.2572	0.009
761.4322	0.0035
761.6072	-0
761.7821	0.0019
761.9571	0.0039
762.132	-0.0052
762.3069	-0.011
762.4818	-0.0015
762.6567	0.0028
762.8316	0.0019
763.0064	0.0006
763.1812	-0.002
763.356	-0.013
763.5308	-0.0027
763.7055	-0.0113
763.8803	-0.0082
764.055	-0.0008
764.2297	-0.0034
764.4044	-0.0053
764.579	-0.0138
764.7537	-0.0157
764.9283	-0.0055
765.1029	-0.0025
765.2775	-0.0037
765.4521	-0.0068
765.6266	-0.0033
765.8011	-0.0037
765.9756	-0.0045
766.1501	0.0016
766.3246	-0.0007
766.4991	-0.002
766.6735	-0.0048
766.8479	-0.0026
767.0223	0.0089
767.1967	-0.0026
767.371	0.003
767.5454	-0.0175
767.7197	-0.0014
767.894	-0.0123
768.0683	-0.0046
768.2425	-0.0065
768.4168	0.0021
768.591	-0.0033
768.7652	0.0092
768.9394	-0.0012
769.1135	-0.0084
769.2877	0.0075
769.4618	-0.005
769.6359	0.0003
769.81	-0.0041
769.984	-0.0013
770.1581	-0.0064
770.3321	0.0016
770.5061	0.0058
770.6801	-0.0034
770.8541	0.0052
771.028	0.0001
771.202	-0.0071
771.3759	0.0046
771.5498	-0.0065
771.7236	-0.0041
771.8975	0.0003
772.0713	-0.0112
772.2451	0.0029
772.4189	0.0077
772.5927	0.0061
772.7665	0.0108
772.9402	-0.0029
773.1139	0.0077
773.2876	-0.0039
773.4613	0.0106
773.635	0.0152
773.8086	-0.0067
773.9822	0.0016
774.1558	0.009
774.3294	-0.0082
774.503	-0.0095
774.6765	-0.0029
774.8501	0.0022
775.0236	0.0026
775.1971	0.0151
775.3705	-0.0027
775.544	0.007
775.7174	-0.0116
775.8908	0.0045
776.0642	-0.0024
776.2376	0.0074
776.4109	-0.004
776.5843	-0
776.7576	-0.0084
776.9309	0.0175
777.1041	0.0059
777.2774	0.0103
777.4506	-0.0075
777.6238	0.0007
777.797	-0.0024
777.9702	0.0085
778.1434	-0.0041
778.3165	-0.0108
778.4896	-0
778.6627	0.0088
778.8358	-0.0017
779.0089	0.0019
779.1819	0.0133
779.3549	0.0148
779.5279	0.0066
779.7009	0.0146
779.8739	0.0082
780.0468	0.0076
780.2197	-0.0007
780.3926	0.0037
780.5655	0.0018
780.7384	0.006
780.9112	0.0043
781.0841	-0.0064
781.2569	0.0048
781.4297	0.0031
781.6024	0.0076
781.7752	0.0062
781.9479	0.0133
782.1206	0.0042
782.2933	-0.0048
782.466	0.0057
782.6386	0.0095
782.8113	0.0032
782.9839	0.0109
783.1565	0.0184
783.329	0.0116
783.5016	0.0097
783.6741	0.0055
783.8466	-0.0066
784.0191	0.0052
784.1916	-0.0225
784.3641	-0.0022
784.5365	0.0086
784.7089	0.0037
784.8813	-0.0141
785.0537	-0.0039
785.2261	-0.0091
785.3984	-0.0079
785.5707	-0.0017
785.743	-0.0056
785.9153	-0.0132
786.0876	0.0001
786.2598	-0.0087
786.432	-0.018
786.6042	0.011
786.7764	-0.0134
786.9486	0.0021
787.1207	-0.0011
787.2928	0.003
787.4649	0.0159
787.637	-0.0002
787.8091	-0.0045
787.9811	-0.0182
788.1532	0.0036
788.3252	0.0074
788.4972	-0.0009
788.6691	0.0061
788.8411	0.0032
789.013	-0.0015
789.1849	-0.0034
789.3568	-0.0033
789.5287	0.0011
789.7005	-0.0062
789.8723	0.0017
790.0442	0.0242
790.2159	0.0039
790.3877	0.0115
790.5595	-0.0146
790.7312	-0.0071
790.9029	-0.0136
791.0746	-0.0136
791.2463	-0.0111
791.4179	-0.0099
791.5896	-0.0078
791.7612	0.0009
791.9328	0.0018
792.1044	-0.0197
792.2759	-0.0215
792.4474	-0.0051
792.619	-0.0017
792.7905	-0.0061
792.9619	-0.0002
793.1334	0.0208
793.3048	0.0017
793.4762	-0.0002
793.6476	-0.0046
793.819	-0.0113
793.9904	0.0134
794.1617	0.0025
794.333	0.0002
794.5043	-0.009
794.6756	-0.0152
794.8469	0.0017
795.0181	0.0082
795.1893	-0.0169
795.3605	0.011
795.5317	-0.0184
795.7029	-0.0065
795.874	0.0106
796.0452	-0.0023
796.2163	-0.0211
796.3873	0.0064
796.5584	-0.005
796.7294	-0.0082
796.9005	-0.0018
797.0715	-0.0058
797.2425	-0.0132
797.4134	-0.0128
797.5844	0.009
797.7553	-0.026
797.9262	-0.0041
798.0971	-0.0116
798.2679	-0.0171
798.4388	-0.0256
798.6096	-0.0103
798.7804	-0.0066
798.9512	-0.0073
799.122	-0.0208
799.2927	0.0007
799.4635	0.011
799.6342	-0.0226
799.8049	-0.0118
799.9755	-0.0052
800.1462	-0.0138
800.3168	-0.0051
800.4874	0.0026
800.658	0.0092
800.8286	-0.0005
800.9991	0.0019
801.1696	-0.0032
801.3402	0.0132
801.5106	-0.0085
801.6811	-0.0017
801.8516	0.0098
802.022	-0.0021
802.1924	0.0038
802.3628	-0.0065
802.5332	0.0105
802.7035	0.0166
802.8739	-0.0246
803.0442	-0.0074
803.2145	0.0137
803.3847	-0.0242
803.555	-0.0093
803.7252	-0.0112
803.8954	-0.011
804.0656	-0.0273
804.2358	-0.0382
804.4059	-0.009
804.5761	-0.005
804.7462	-0.0086
804.9163	0.0001
805.0864	-0.0223
805.2564	-0.0079
805.4264	-0.0176
805.5965	-0.0187
805.7665	-0.0105
805.9364	-0.0085
806.1064	0.0313
806.2763	0.0129
806.4462	0.0016
806.6161	-0.0005
806.786	0.015
806.9559	-0.0097
807.1257	-0.0066
807.2955	-0.0021
807.4653	-0.0046
807.6351	-0.0092
807.8048	-0.0017
807.9746	0.0068
808.1443	0.0013
808.314	-0.0119
808.4837	-0.0183
808.6533	0.0088
808.8229	0.0073
808.9926	-0.0145
809.1622	-0.0022
809.3317	-0.0173
809.5013	-0.0102
809.6708	-0.0035
809.8403	0.0106
810.0098	-0.0081
810.1793	-0.0074
810.3488	-0.0026
810.5182	-0.0107
810.6876	-0.0031
810.857	-0.012
811.0264	0.0094
811.1958	-0.0011
811.3651	-0.0022
811.5344	0.0028
811.7037	-0.0151
811.873	-0.0103
812.0422	-0.0136
812.2115	-0.0199
812.3807	-0.0141
812.5499	-0.0076
812.7191	0.0045
812.8882	-0.0214
813.0574	-0.0302
813.2265	0.0073
813.3956	-0.0176
813.5646	0.0085
813.7337	-0.0138
813.9027	0.0042
814.0718	0.0172
814.2407	0.0357
814.4097	-0.0018
814.5787	0.0046
814.7476	-0.0085
814.9165	-0.0015
815.0854	-0.0019
815.2543	0.0028
815.4232	0.0112
815.592	0.0013
815.7608	0.0011
815.9296	-0.0036
816.0984	0.0085
816.2671	0.0116
816.4359	-0.0022
816.6046	-0.0118
816.7733	-0.0086
816.942	-0.0029
817.1106	0.0005
817.2793	-0.0182
817.4479	-0.0026
817.6165	0.0002
817.785	0.0024
817.9536	-0.0253
818.1221	-0.0175
818.2906	0.0145
818.4591	-0.038
818.6276	-0.0219
818.7961	0.0048
818.9645	-0.0064
819.1329	-0.0097
819.3013	-0.0015
819.4697	-0.0142
819.638	-0.0222
819.8064	0.0084
819.9747	0.0097
820.143	-0.0232
820.3113	-0.0303
820.4795	-0.0179
820.6477	-0.0259
820.816	-0.0169
820.9842	-0.015
821.1523	-0.0016
821.3205	-0.0223
821.4886	-0.0315
821.6567	0.0042
821.8248	0.0086
821.9929	0.0117
822.1609	0.0148
822.329	0.0114
822.497	0.033
822.665	-0.0221
822.833	0.0014
823.0009	0.0159
823.1688	0.0147
823.3367	0.0467
823.5046	0.0099
823.6725	0.0279
823.8404	-0.0183
824.0082	0.0158
824.176	0.0254
824.3438	0.0079
824.5116	-0.0126
824.6793	0.0213
824.847	0.0193
825.0147	-0.0103
825.1824	0.0179
825.3501	0.0271
825.5177	-0.0176
825.6854	0.0161
825.853	0.0247
826.0206	-0.0255
826.1881	0.0024
826.3557	-0.0183
826.5232	0.0225
826.6907	-0.0339
826.8582	-0.0069
827.0257	-0.0444
827.1931	-0.0006
827.3605	0.0089
827.528	-0.0057
827.6953	-0.0209
827.8627	-0.0317
828.03	0.0237
828.1974	-0.0279
828.3647	-0.0448
828.532	-0.0284
828.6992	0.0053
828.8665	-0.0275
829.0337	-0.0032
829.2009	0.026
829.3681	-0.0068
829.5352	0.0026
829.7024	-0.0465
829.8695	-0.0102
830.0366	0.0242
830.2037	-0.0043
830.3707	0.0257
830.5378	0.0111
830.7048	-0.0352
830.8718	-0.0141
831.0388	-0.0182
831.2057	0.0106
831.3727	-0.011
831.5396	-0.0325
831.7065	-0.011
831.8734	0.0146
832.0402	-0.0411
832.2071	-0.0125
832.3739	-0.0115
832.5407	-0.0184
832.7075	-0.052
832.8742	-0.035
833.041	-0.0242
833.2077	0.0165
833.3744	0.0063
833.541	-0.0383
833.7077	-0.0228
833.8743	-0.0306
834.0409	-0.0063
834.2075	0.0113
834.3741	-0.0195
834.5407	0.0139
834.7072	-0.0053
834.8737	-0.0596
835.0402	-0.0413
835.2067	0.0162
835.3731	0.0298
835.5395	0.0214
835.706	0.0036
835.8723	0.0011
836.0387	0.0212
836.2051	0.0167
836.3714	-0.0524
836.5377	0.0004
836.704	-0.015
836.8703	0.0218
837.0365	-0.0068
837.2027	-0.021
837.3689	0.0161
837.5351	0.0027
837.7013	-0.0478
837.8674	-0.0324
838.0335	-0.0571
838.1997	-0.0487
838.3657	-0.0252
838.5318	-0.0305
838.6978	0.0004
838.8639	0.0004
839.0299	0.0005
839.1958	-0.032
839.3618	0.0288
839.5277	0.0234
839.6937	-0.0044
839.8596	-0.054
840.0254	0.0063
840.1913	0.026
840.3571	0.0014
840.523	-0.0024
840.6888	0.0024
840.8545	-0.063
841.0203	-0.0561
841.186	-0.0055
841.3517	0.0331
841.5174	-0.0192
841.6831	-0.0115
841.8488	-0.0171
842.0144	0.0145
842.18	-0.0236
842.3456	0.0043
842.5112	-0.0326
842.6767	-0.0335
842.8422	-0.0172
843.0077	0.0217
843.1732	-0.0108
843.3387	-0.0225
843.5042	-0.0131
843.6696	-0.0077
843.835	0.0414
844.0004	0.0489
844.1657	0.0128
844.3311	-0.0665
844.4964	-0.1059
844.6617	-0.0557
844.827	-0.059
844.9923	0.0414
845.1575	0.0007
845.3227	-0.037
845.4879	0.0132
845.6531	-0.0278
845.8183	-0.0949
845.9834	0.0108
846.1485	-0.0299
846.3136	-0.0287
846.4787	-0.0825
846.6438	0.0227
846.8088	0.0169
846.9738	-0.0407
847.1388	-0.0048
847.3038	-0.0006
847.4687	-0.1435
847.6337	-0.0031
847.7986	0.0268
847.9635	-0.0165
848.1284	0.0454
848.2932	-0.0022
848.458	-0.0755
848.6228	0.0446
848.7876	0.0269
848.9524	-0.0007
849.1172	-0.0974
849.2819	0.0575
849.4466	-0.0857
849.6113	-0.1112
849.7759	-0.0841
849.9406	-0.0075
850.1052	0.0313
850.2698	0.0107
850.4344	0.0051
850.599	-0.0728
850.7635	-0.0019
850.928	-0.0592
851.0925	0.0069
851.257	0.0173
851.4215	0.0163
851.5859	0.0308
851.7503	-0.0052
851.9147	-0.0072
852.0791	-0.0671
852.2434	-0.0673
852.4078	0.0355
852.5721	0.0524
852.7364	-0.0089
852.9007	-0.104
853.0649	0.0601
853.2291	0.0719
853.3934	0.0325
853.5575	0.0849
853.7217	-0.2162
853.8859	-0.0293
854.05	0.015
854.2141	-0.0238
854.3782	-0.0739
854.5423	-0.094
854.7063	0.1807
854.8703	-0.0722
855.0343	-0.0197
855.1983	-0.105
855.3623	0.1213
855.5262	-0.012
855.6901	-0.0177
855.854	-0.0171
856.0179	-0.0009
856.1818	0.096
856.3456	-0.0244
856.5094	-0.1499
856.6732	0.3145
856.837	-0.0809
857.0008	0.1522
857.1645	-0.0499
857.3282	-0.1451
857.4919	0.1966
857.6556	0.0689
857.8192	-0.0237
857.9828	0.1298
858.1465	-0.0957
858.31	-0.2341
858.4736	-0.0162
858.6372	-0.1491
858.8007	-0.12
858.9642	-0.1028
859.1277	-0.1927
859.2911	0.3346
859.4546	-0.0671
859.618	-0.4298
859.7814	-0.046
859.9448	0.2043
860.1081	0.066
860.2715	0.173
860.4348	0.0148
860.5981	-0.1239
860.7614	0.1158
860.9246	0.0124
861.0879	-0.2979
861.2511	0.1785
861.4143	-0.4049
861.5774	0.0967
861.7406	-0.2452
861.9037	-0.1098
862.0668	0.1187
862.2299	-0.2359
862.393	-0.6289
862.556	-0.1263
862.7191	-0.1669
862.8821	-0.0482
863.0451	0.0032
863.208	0.0024
863.371	-0.0678
863.5339	0.0687
863.6968	-0.0742
863.8597	0.0822
864.0225	-0.0083
864.1854	-0.184
864.3482	-0
864.511	0.41
864.6737	0.0383
864.8365	0.2014
864.9992	-0.0994
865.1619	-0.4862
865.3246	0.1876
865.4873	0.0232
865.65	0.6313
865.8126	-0.0186
865.9752	-0.0764
866.1378	-0.1944
866.3004	0.56
866.4629	0.1397
866.6254	-0.1115
866.7879	0.8364
866.9504	-0
867.1129	-0
867.2753	-0.0166
867.4377	0.2925
867.6001	-0.037
867.7625	-0.0166
867.9249	0.2509
868.0872	-0.0121
868.2495	-0.0025
868.4118	-0.2793
868.5741	-0.4781
868.7363	-0.3776
868.8986	-0.2262
869.0608	-0.1528
869.223	0.301
869.3851	-0.3861
869.5473	0.5318
869.7094	0.3378
869.8715	0.0605
870.0336	-0
870.1957	-0.3466
870.3577	-1.2735
870.5197	-0.2566
870.6817	-0.4193
870.8437	-0.1928
871.0057	-0.2518
871.1676	-0.2847
871.3295	-0.3382
871.4914	0.533
871.6533	-0.2826
871.8151	-0.232
871.977	0.5175
872.1388	-0
872.3006	0.0508
872.4623	-0
872.6241	0.2235
872.7858	0.0668
872.9475	0.0352
873.1092	0.4299
873.2709	0.0374
873.4325	0.7277
873.5941	1.282
873.7557	0.4591
873.9173	0.3603
874.0789	-0.571
874.2404	-0.3085
874.4019	-0.0994
874.5634	-0.0528
874.7249	0.0547
874.8863	-0
875.0478	0.054
875.2092	-0
875.3706	0.8982
875.5319	-1.0317
875.6933	0.0278
875.8546	-0.1736
876.0159	-0
876.1772	0.1947
876.3385	-0
876.4997	0.9724
876.6609	-0.4631
876.8221	1.415
876.9833	-0.0302
877.1445	-0
877.3056	0.0035
877.4667	0.3548
877.6278	-0.0369
877.7889	-0.0193
877.9499	-0.7357
878.111	-0
878.272	-0
878.433	-0
878.5939	-0
878.7549	-0
878.9158	-0.1666
879.0767	1.3234
879.2376	-0
879.3984	-0
879.5593	-0
879.7201	-0.1282
879.8809	-0.6117
880.0417	0.1171
880.2024	-0
880.3632	-0
880.5239	0.3404
880.6846	0.3409
880.8452	-2.2028
881.0059	-1.3892
881.1665	-0.1652
881.3271	-0
881.4877	-0.3466
881.6483	-0.1256
881.8088	-0.1305
881.9693	-0
882.1298	-0
882.2903	-0
