Data from MonoPyChalIsomerACN10uM420nmA_Absorbance_15-09-51-335.txt Node
Date: Fri Jul 05 15:09:51 BST 2024
User: LASERRRRR
Spectrometer: FLMT03099
Trigger mode: 0
Integration Time (sec): 1.000000E-1
Scans to average: 1
Electric dark correction enabled: true
Nonlinearity correction enabled: false
Boxcar width: 0
XAxis mode: Wavelengths
Number of Pixels in Spectrum: 3648
>>>>>Begin Spectral Data<<<<<
179.3399	-0.5294
179.5586	-0.5294
179.7771	-0.5294
179.9957	0.1052
180.2143	0.4632
180.4329	-0.2766
180.6514	0.6223
180.8699	-0
181.0885	-0.121
181.307	-0.0232
181.5255	-0
181.744	-0.5531
181.9625	-0
182.181	-0
182.3994	-0
182.6179	-0
182.8363	0.4718
183.0547	-0.074
183.2732	-0.0785
183.4916	0.1135
183.71	0.1187
183.9284	0.1774
184.1467	-0.1113
184.3651	-0.2179
184.5835	0.0456
184.8018	-0.0351
185.0201	0.0718
185.2385	-0.0315
185.4568	0.0425
185.6751	0.1009
185.8934	0.4713
186.1117	-0.0441
186.3299	0.2867
186.5482	0.1091
186.7664	0.1111
186.9847	-0.0197
187.2029	0.0807
187.4211	0.122
187.6393	0.0913
187.8575	-0.1161
188.0757	0.3598
188.2939	0.3932
188.512	0.1045
188.7302	0.0404
188.9483	0.0658
189.1665	0.0369
189.3846	-0.4329
189.6027	0.2976
189.8208	0.5105
190.0389	0.1108
190.257	0.0729
190.475	0.3388
190.6931	0.1611
190.9111	0.2342
191.1292	0.1251
191.3472	0.2543
191.5652	0.2518
191.7832	0.1958
192.0012	0.6104
192.2192	0.4305
192.4371	0.4966
192.6551	0.21
192.873	0.4034
193.091	0.5314
193.3089	1.016
193.5268	0.5952
193.7447	0.502
193.9626	0.4865
194.1805	0.5479
194.3984	1.0807
194.6162	0.5171
194.8341	0.6031
195.0519	0.5887
195.2697	0.4688
195.4875	0.5643
195.7054	0.5538
195.9231	0.5838
196.1409	0.6221
196.3587	0.6743
196.5765	0.7056
196.7942	0.5231
197.012	0.5197
197.2297	0.733
197.4474	0.7646
197.6651	0.6158
197.8828	0.5442
198.1005	0.585
198.3182	0.5702
198.5358	0.9564
198.7535	0.7224
198.9711	0.5705
199.1888	0.6613
199.4064	0.8344
199.624	0.5868
199.8416	0.5395
200.0592	0.7672
200.2767	0.5203
200.4943	0.5487
200.7119	0.6565
200.9294	0.6591
201.1469	0.5867
201.3645	0.5729
201.582	0.5612
201.7995	0.5535
202.017	0.6383
202.2344	0.6923
202.4519	0.7819
202.6694	0.6427
202.8868	0.6047
203.1042	0.7329
203.3217	0.7825
203.5391	0.6223
203.7565	0.564
203.9739	0.6357
204.1913	0.581
204.4086	0.7056
204.626	0.6737
204.8433	0.6882
205.0607	0.6558
205.278	0.6827
205.4953	0.6327
205.7126	0.597
205.9299	0.706
206.1472	0.7904
206.3644	0.6397
206.5817	0.6936
206.7989	0.7378
207.0162	0.6558
207.2334	0.6642
207.4506	0.6348
207.6678	0.6679
207.885	0.7231
208.1022	0.7078
208.3194	0.64
208.5365	0.6376
208.7537	0.6859
208.9708	0.6221
209.1879	0.7074
209.405	0.7694
209.6222	0.682
209.8392	0.6508
210.0563	0.6422
210.2734	0.7386
210.4905	0.5897
210.7075	0.748
210.9245	0.6136
211.1416	0.6708
211.3586	0.7038
211.5756	0.6303
211.7926	0.565
212.0096	0.6823
212.2265	0.5783
212.4435	0.5586
212.6604	0.6033
212.8774	0.5991
213.0943	0.6393
213.3112	0.5878
213.5281	0.5306
213.745	0.5233
213.9619	0.5668
214.1788	0.521
214.3956	0.4267
214.6125	0.508
214.8293	0.4338
215.0461	0.5295
215.2629	0.4632
215.4798	0.4659
215.6965	0.4403
215.9133	0.4494
216.1301	0.4408
216.3469	0.4644
216.5636	0.4183
216.7803	0.4278
216.9971	0.4165
217.2138	0.3966
217.4305	0.371
217.6472	0.3861
217.8639	0.3789
218.0805	0.3505
218.2972	0.3555
218.5138	0.3481
218.7305	0.3064
218.9471	0.3204
219.1637	0.3088
219.3803	0.2868
219.5969	0.2825
219.8135	0.2828
220.0301	0.2919
220.2466	0.293
220.4632	0.2807
220.6797	0.2201
220.8962	0.2525
221.1127	0.2615
221.3292	0.2746
221.5457	0.243
221.7622	0.2481
221.9787	0.263
222.1951	0.2695
222.4116	0.2532
222.628	0.2759
222.8444	0.2739
223.0608	0.2761
223.2772	0.2607
223.4936	0.2529
223.71	0.2589
223.9264	0.2686
224.1427	0.2676
224.3591	0.2652
224.5754	0.2628
224.7917	0.2622
225.008	0.2737
225.2243	0.2745
225.4406	0.276
225.6569	0.2655
225.8732	0.2601
226.0894	0.293
226.3057	0.277
226.5219	0.2901
226.7381	0.273
226.9543	0.2983
227.1705	0.3007
227.3867	0.2908
227.6029	0.3082
227.8191	0.2988
228.0352	0.2857
228.2513	0.3289
228.4675	0.3082
228.6836	0.3317
228.8997	0.3029
229.1158	0.295
229.3319	0.3209
229.548	0.3153
229.764	0.3209
229.9801	0.3289
230.1961	0.3279
230.4121	0.3444
230.6282	0.3309
230.8442	0.3267
231.0602	0.3592
231.2761	0.3633
231.4921	0.3565
231.7081	0.3502
231.924	0.3531
232.14	0.3673
232.3559	0.3724
232.5718	0.3643
232.7877	0.3613
233.0036	0.3468
233.2195	0.3552
233.4353	0.3576
233.6512	0.3619
233.867	0.3622
234.0829	0.3801
234.2987	0.3621
234.5145	0.3671
234.7303	0.3698
234.9461	0.3836
235.1619	0.3811
235.3776	0.3765
235.5934	0.3834
235.8091	0.372
236.0249	0.3917
236.2406	0.3735
236.4563	0.3904
236.672	0.4109
236.8877	0.3934
237.1034	0.3933
237.319	0.4067
237.5347	0.4069
237.7503	0.3926
237.966	0.4055
238.1816	0.4046
238.3972	0.4102
238.6128	0.3869
238.8284	0.4191
239.0439	0.4115
239.2595	0.4
239.475	0.436
239.6906	0.4138
239.9061	0.4064
240.1216	0.4025
240.3371	0.4163
240.5526	0.3983
240.7681	0.4041
240.9836	0.3967
241.199	0.4019
241.4145	0.3953
241.6299	0.3935
241.8453	0.3828
242.0607	0.4002
242.2761	0.3785
242.4915	0.3778
242.7069	0.3916
242.9223	0.373
243.1376	0.3553
243.353	0.3572
243.5683	0.3612
243.7836	0.3403
243.9989	0.3399
244.2142	0.3272
244.4295	0.3264
244.6448	0.3238
244.86	0.3073
245.0753	0.3055
245.2905	0.292
245.5057	0.2836
245.721	0.2784
245.9362	0.2724
246.1514	0.2771
246.3665	0.2823
246.5817	0.2582
246.7969	0.2708
247.012	0.2544
247.2271	0.2382
247.4423	0.2501
247.6574	0.2468
247.8725	0.2408
248.0876	0.2372
248.3026	0.2332
248.5177	0.2212
248.7328	0.2319
248.9478	0.2168
249.1628	0.2253
249.3779	0.2123
249.5929	0.2154
249.8079	0.2201
250.0228	0.2056
250.2378	0.2103
250.4528	0.2109
250.6677	0.1983
250.8827	0.2027
251.0976	0.2056
251.3125	0.2111
251.5274	0.1933
251.7423	0.1891
251.9572	0.1992
252.172	0.181
252.3869	0.1991
252.6017	0.1801
252.8166	0.1835
253.0314	0.1834
253.2462	0.1776
253.461	0.1815
253.6758	0.1739
253.8906	0.1776
254.1053	0.18
254.3201	0.1748
254.5348	0.1863
254.7496	0.183
254.9643	0.1685
255.179	0.1739
255.3937	0.1675
255.6083	0.1804
255.823	0.1743
256.0377	0.1658
256.2523	0.1858
256.467	0.1582
256.6816	0.1812
256.8962	0.1828
257.1108	0.1643
257.3254	0.1652
257.54	0.1693
257.7545	0.1686
257.9691	0.1773
258.1836	0.1646
258.3981	0.1931
258.6127	0.1796
258.8272	0.1684
259.0417	0.178
259.2561	0.1787
259.4706	0.1789
259.6851	0.1697
259.8995	0.172
260.114	0.1587
260.3284	0.167
260.5428	0.1691
260.7572	0.1873
260.9716	0.1784
261.186	0.1622
261.4003	0.1819
261.6147	0.173
261.829	0.1598
262.0433	0.1735
262.2577	0.1612
262.472	0.1797
262.6863	0.1642
262.9005	0.1796
263.1148	0.1725
263.3291	0.1476
263.5433	0.1638
263.7576	0.1599
263.9718	0.1681
264.186	0.1607
264.4002	0.1781
264.6144	0.1685
264.8286	0.182
265.0427	0.1756
265.2569	0.1555
265.471	0.1552
265.6851	0.1758
265.8993	0.1549
266.1134	0.1588
266.3275	0.1732
266.5415	0.1736
266.7556	0.1717
266.9697	0.1702
267.1837	0.1803
267.3978	0.173
267.6118	0.1773
267.8258	0.1795
268.0398	0.1572
268.2538	0.1722
268.4677	0.1784
268.6817	0.1697
268.8957	0.1593
269.1096	0.1739
269.3235	0.1652
269.5374	0.1588
269.7514	0.1639
269.9652	0.1585
270.1791	0.1598
270.393	0.1525
270.6068	0.1613
270.8207	0.1485
271.0345	0.1619
271.2483	0.1578
271.4622	0.1565
271.676	0.1611
271.8897	0.1509
272.1035	0.1547
272.3173	0.1457
272.531	0.1482
272.7448	0.153
272.9585	0.1509
273.1722	0.1637
273.3859	0.1503
273.5996	0.1349
273.8133	0.1513
274.0269	0.1488
274.2406	0.142
274.4542	0.1558
274.6679	0.1408
274.8815	0.1608
275.0951	0.1589
275.3087	0.1553
275.5223	0.1542
275.7358	0.1449
275.9494	0.1568
276.1629	0.1579
276.3765	0.1453
276.59	0.1586
276.8035	0.1664
277.017	0.1511
277.2305	0.153
277.444	0.1523
277.6574	0.1466
277.8709	0.1604
278.0843	0.1385
278.2978	0.1491
278.5112	0.1493
278.7246	0.1566
278.938	0.161
279.1513	0.1655
279.3647	0.1616
279.5781	0.1682
279.7914	0.1513
280.0047	0.1623
280.2181	0.1514
280.4314	0.1583
280.6447	0.1579
280.8579	0.1611
281.0712	0.1515
281.2845	0.1611
281.4977	0.1734
281.711	0.1524
281.9242	0.162
282.1374	0.1511
282.3506	0.158
282.5638	0.1652
282.7769	0.1551
282.9901	0.1552
283.2033	0.1788
283.4164	0.1726
283.6295	0.1565
283.8426	0.1634
284.0557	0.1548
284.2688	0.1729
284.4819	0.1655
284.695	0.1559
284.908	0.172
285.1211	0.1588
285.3341	0.1532
285.5471	0.1645
285.7601	0.154
285.9731	0.1587
286.1861	0.1556
286.3991	0.1773
286.612	0.166
286.825	0.1702
287.0379	0.169
287.2508	0.1622
287.4637	0.1641
287.6766	0.1489
287.8895	0.1736
288.1024	0.1763
288.3152	0.1727
288.5281	0.1577
288.7409	0.1756
288.9538	0.1576
289.1666	0.1679
289.3794	0.1553
289.5922	0.1506
289.8049	0.1604
290.0177	0.1645
290.2304	0.1718
290.4432	0.1645
290.6559	0.1776
290.8686	0.1656
291.0813	0.1641
291.294	0.1705
291.5067	0.1708
291.7194	0.1609
291.932	0.177
292.1447	0.1671
292.3573	0.1537
292.5699	0.1683
292.7825	0.1703
292.9951	0.1747
293.2077	0.1683
293.4203	0.1725
293.6328	0.1599
293.8454	0.1698
294.0579	0.157
294.2704	0.1618
294.4829	0.1595
294.6954	0.164
294.9079	0.1604
295.1204	0.1599
295.3328	0.1557
295.5453	0.167
295.7577	0.1669
295.9701	0.1507
296.1825	0.1676
296.3949	0.1632
296.6073	0.1545
296.8197	0.1511
297.0321	0.173
297.2444	0.1563
297.4567	0.1633
297.6691	0.1612
297.8814	0.158
298.0937	0.1597
298.306	0.1728
298.5182	0.1637
298.7305	0.162
298.9428	0.1566
299.155	0.1686
299.3672	0.1664
299.5794	0.1636
299.7916	0.1561
300.0038	0.1743
300.216	0.1828
300.4282	0.1608
300.6403	0.1593
300.8525	0.1725
301.0646	0.1599
301.2767	0.1747
301.4888	0.1673
301.7009	0.1653
301.913	0.1606
302.125	0.1669
302.3371	0.1477
302.5491	0.1636
302.7612	0.1683
302.9732	0.1661
303.1852	0.1631
303.3972	0.1648
303.6092	0.15
303.8211	0.1602
304.0331	0.1512
304.245	0.1541
304.457	0.1547
304.6689	0.1527
304.8808	0.164
305.0927	0.1439
305.3046	0.15
305.5164	0.1536
305.7283	0.1432
305.9401	0.1493
306.152	0.1458
306.3638	0.1512
306.5756	0.1424
306.7874	0.1431
306.9992	0.1436
307.2109	0.1457
307.4227	0.1341
307.6344	0.1413
307.8462	0.1337
308.0579	0.1403
308.2696	0.1376
308.4813	0.1321
308.693	0.1323
308.9046	0.1348
309.1163	0.141
309.328	0.1293
309.5396	0.1206
309.7512	0.1173
309.9628	0.1233
310.1744	0.1199
310.386	0.1282
310.5976	0.1236
310.8091	0.1215
311.0207	0.1194
311.2322	0.1317
311.4437	0.1194
311.6552	0.1127
311.8667	0.1162
312.0782	0.101
312.2897	0.1054
312.5012	0.1129
312.7126	0.1074
312.924	0.1078
313.1355	0.1122
313.3469	0.1193
313.5583	0.1182
313.7696	0.1013
313.981	0.1104
314.1924	0.1036
314.4037	0.1012
314.6151	0.1052
314.8264	0.0965
315.0377	0.1063
315.249	0.1035
315.4603	0.1068
315.6716	0.1022
315.8828	0.0973
316.0941	0.1078
316.3053	0.0944
316.5165	0.0883
316.7277	0.1
316.9389	0.105
317.1501	0.0942
317.3613	0.1066
317.5724	0.0931
317.7836	0.1064
317.9947	0.101
318.2058	0.1021
318.417	0.0942
318.6281	0.0943
318.8391	0.1069
319.0502	0.0966
319.2613	0.1075
319.4723	0.107
319.6834	0.1127
319.8944	0.0899
320.1054	0.1014
320.3164	0.1064
320.5274	0.0977
320.7383	0.0996
320.9493	0.1044
321.1602	0.112
321.3712	0.0864
321.5821	0.1066
321.793	0.1183
322.0039	0.1085
322.2148	0.0946
322.4257	0.1135
322.6365	0.1056
322.8474	0.1085
323.0582	0.1045
323.269	0.1037
323.4798	0.1087
323.6906	0.1079
323.9014	0.109
324.1122	0.1035
324.3229	0.1046
324.5337	0.1038
324.7444	0.0956
324.9551	0.1164
325.1658	0.1066
325.3765	0.1095
325.5872	0.1059
325.7979	0.1067
326.0085	0.0963
326.2192	0.1105
326.4298	0.1118
326.6404	0.0924
326.851	0.1005
327.0616	0.104
327.2722	0.1128
327.4828	0.1146
327.6933	0.102
327.9039	0.1071
328.1144	0.1175
328.3249	0.1083
328.5354	0.1033
328.7459	0.111
328.9564	0.1085
329.1669	0.1043
329.3773	0.1129
329.5878	0.1115
329.7982	0.1066
330.0086	0.1073
330.219	0.1238
330.4294	0.1046
330.6398	0.1036
330.8502	0.0995
331.0605	0.1067
331.2708	0.1158
331.4812	0.1184
331.6915	0.1063
331.9018	0.1074
332.1121	0.1028
332.3224	0.1055
332.5326	0.1266
332.7429	0.1085
332.9531	0.1215
333.1633	0.1168
333.3735	0.1072
333.5837	0.1038
333.7939	0.1113
334.0041	0.1222
334.2143	0.122
334.4244	0.1045
334.6346	0.1001
334.8447	0.1185
335.0548	0.1108
335.2649	0.1006
335.475	0.1175
335.685	0.1058
335.8951	0.1235
336.1051	0.1152
336.3152	0.1197
336.5252	0.1131
336.7352	0.1226
336.9452	0.1148
337.1552	0.1147
337.3652	0.1072
337.5751	0.1165
337.7851	0.1191
337.995	0.1111
338.2049	0.1245
338.4148	0.1114
338.6247	0.1155
338.8346	0.1112
339.0445	0.1035
339.2543	0.1238
339.4642	0.1301
339.674	0.115
339.8838	0.1195
340.0936	0.1158
340.3034	0.1345
340.5132	0.1126
340.7229	0.1269
340.9327	0.124
341.1424	0.1236
341.3522	0.1257
341.5619	0.1277
341.7716	0.1279
341.9813	0.1245
342.1909	0.1216
342.4006	0.1337
342.6102	0.1371
342.8199	0.122
343.0295	0.1317
343.2391	0.1211
343.4487	0.1378
343.6583	0.118
343.8679	0.1312
344.0774	0.1275
344.287	0.1437
344.4965	0.1233
344.706	0.1291
344.9155	0.1268
345.125	0.1273
345.3345	0.1366
345.544	0.1252
345.7534	0.129
345.9629	0.1387
346.1723	0.134
346.3817	0.1237
346.5911	0.1355
346.8005	0.1314
347.0099	0.1338
347.2193	0.1561
347.4286	0.1253
347.638	0.138
347.8473	0.1395
348.0566	0.1352
348.2659	0.148
348.4752	0.1303
348.6845	0.1261
348.8937	0.1374
349.103	0.1446
349.3122	0.1319
349.5214	0.147
349.7306	0.1418
349.9398	0.1433
350.149	0.1445
350.3582	0.1382
350.5674	0.1527
350.7765	0.1439
350.9856	0.1384
351.1948	0.1392
351.4039	0.1249
351.613	0.1414
351.822	0.1481
352.0311	0.1508
352.2402	0.1471
352.4492	0.1454
352.6582	0.1555
352.8672	0.1484
353.0762	0.1457
353.2852	0.1564
353.4942	0.1346
353.7032	0.1522
353.9121	0.1352
354.1211	0.1513
354.33	0.1554
354.5389	0.1617
354.7478	0.1523
354.9567	0.154
355.1655	0.144
355.3744	0.1603
355.5833	0.1498
355.7921	0.1724
356.0009	0.1518
356.2097	0.1499
356.4185	0.1772
356.6273	0.172
356.8361	0.1497
357.0448	0.1643
357.2536	0.1452
357.4623	0.1531
357.671	0.1536
357.8797	0.1484
358.0884	0.1631
358.2971	0.163
358.5057	0.1558
358.7144	0.1671
358.923	0.1654
359.1316	0.1685
359.3402	0.1731
359.5488	0.1753
359.7574	0.1434
359.966	0.1806
360.1746	0.185
360.3831	0.1753
360.5916	0.1705
360.8002	0.151
361.0087	0.1779
361.2172	0.1808
361.4256	0.1799
361.6341	0.1863
361.8426	0.1758
362.051	0.1731
362.2594	0.1643
362.4678	0.1727
362.6762	0.1906
362.8846	0.179
363.093	0.1736
363.3014	0.1873
363.5097	0.1658
363.718	0.1839
363.9264	0.1846
364.1347	0.1747
364.343	0.1842
364.5513	0.207
364.7595	0.218
364.9678	0.1875
365.176	0.1847
365.3842	0.181
365.5925	0.1855
365.8007	0.2015
366.0089	0.2031
366.217	0.1844
366.4252	0.1978
366.6333	0.2128
366.8415	0.1932
367.0496	0.1829
367.2577	0.221
367.4658	0.2023
367.6739	0.2112
367.882	0.2112
368.09	0.2086
368.2981	0.2175
368.5061	0.207
368.7141	0.2023
368.9221	0.2236
369.1301	0.192
369.3381	0.2111
369.5461	0.2046
369.754	0.2082
369.962	0.2185
370.1699	0.2164
370.3778	0.2199
370.5857	0.2122
370.7936	0.2003
371.0015	0.2129
371.2093	0.2081
371.4172	0.2283
371.625	0.2076
371.8328	0.2087
372.0406	0.2231
372.2484	0.2248
372.4562	0.2346
372.664	0.2278
372.8717	0.2378
373.0795	0.2096
373.2872	0.2126
373.4949	0.2239
373.7026	0.2242
373.9103	0.2259
374.118	0.243
374.3256	0.2301
374.5333	0.22
374.7409	0.2146
374.9485	0.2384
375.1561	0.2354
375.3637	0.2324
375.5713	0.2242
375.7789	0.2296
375.9864	0.2294
376.194	0.2217
376.4015	0.2314
376.609	0.2234
376.8165	0.2303
377.024	0.2108
377.2315	0.2256
377.4389	0.229
377.6464	0.2445
377.8538	0.226
378.0612	0.2368
378.2686	0.2359
378.476	0.2446
378.6834	0.2329
378.8908	0.2366
379.0981	0.234
379.3055	0.2548
379.5128	0.2211
379.7201	0.2273
379.9274	0.2351
380.1347	0.2373
380.342	0.2689
380.5492	0.2308
380.7565	0.2463
380.9637	0.2416
381.1709	0.2346
381.3781	0.2441
381.5853	0.2327
381.7925	0.2638
381.9997	0.2489
382.2068	0.2476
382.4139	0.2327
382.6211	0.2198
382.8282	0.2365
383.0353	0.2517
383.2424	0.2616
383.4494	0.2486
383.6565	0.2516
383.8635	0.2378
384.0706	0.2477
384.2776	0.2555
384.4846	0.2495
384.6916	0.2452
384.8986	0.235
385.1055	0.2608
385.3125	0.2505
385.5194	0.2281
385.7263	0.2681
385.9333	0.2581
386.1402	0.231
386.347	0.2495
386.5539	0.2477
386.7608	0.2647
386.9676	0.2339
387.1744	0.2524
387.3813	0.2417
387.5881	0.2484
387.7948	0.234
388.0016	0.256
388.2084	0.2464
388.4151	0.2366
388.6219	0.2427
388.8286	0.253
389.0353	0.2324
389.242	0.2333
389.4487	0.2268
389.6553	0.2241
389.862	0.2197
390.0686	0.2319
390.2753	0.2553
390.4819	0.237
390.6885	0.2355
390.8951	0.251
391.1016	0.2341
391.3082	0.22
391.5147	0.2389
391.7213	0.2083
391.9278	0.214
392.1343	0.2209
392.3408	0.2167
392.5473	0.2278
392.7537	0.2153
392.9602	0.2332
393.1666	0.2215
393.373	0.2254
393.5794	0.2218
393.7858	0.2169
393.9922	0.2104
394.1986	0.2266
394.4049	0.2194
394.6113	0.2031
394.8176	0.2133
395.0239	0.1984
395.2302	0.2194
395.4365	0.1993
395.6428	0.1976
395.8491	0.2039
396.0553	0.2077
396.2615	0.2166
396.4678	0.2117
396.674	0.1794
396.8802	0.205
397.0863	0.224
397.2925	0.2024
397.4987	0.2015
397.7048	0.2085
397.9109	0.205
398.117	0.211
398.3231	0.192
398.5292	0.217
398.7353	0.2274
398.9413	0.2001
399.1474	0.2034
399.3534	0.2036
399.5594	0.1973
399.7654	0.2226
399.9714	0.2293
400.1774	0.2032
400.3833	0.2105
400.5893	0.2103
400.7952	0.2192
401.0011	0.2121
401.207	0.2089
401.4129	0.2083
401.6188	0.2048
401.8247	0.2089
402.0305	0.1895
402.2364	0.1985
402.4422	0.1965
402.648	0.1874
402.8538	0.221
403.0596	0.196
403.2654	0.2097
403.4711	0.2033
403.6768	0.1911
403.8826	0.201
404.0883	0.208
404.294	0.2156
404.4997	0.2177
404.7054	0.2056
404.911	0.1981
405.1167	0.1877
405.3223	0.2201
405.5279	0.2046
405.7335	0.1966
405.9391	0.1969
406.1447	0.1957
406.3502	0.2208
406.5558	0.1863
406.7613	0.2132
406.9668	0.2076
407.1724	0.2045
407.3778	0.2056
407.5833	0.2045
407.7888	0.1784
407.9942	0.2114
408.1997	0.2033
408.4051	0.1943
408.6105	0.2063
408.8159	0.1841
409.0213	0.1933
409.2267	0.208
409.432	0.196
409.6374	0.2094
409.8427	0.1943
410.048	0.2037
410.2533	0.2059
410.4586	0.1957
410.6639	0.1967
410.8691	0.1929
411.0744	0.1918
411.2796	0.1957
411.4848	0.1889
411.69	0.1895
411.8952	0.2066
412.1004	0.191
412.3056	0.2179
412.5107	0.182
412.7158	0.2007
412.921	0.204
413.1261	0.2003
413.3312	0.1788
413.5362	0.2015
413.7413	0.2026
413.9464	0.1909
414.1514	0.2059
414.3564	0.2095
414.5614	0.1892
414.7664	0.2014
414.9714	0.1993
415.1764	0.1934
415.3813	0.1965
415.5863	0.1867
415.7912	0.1896
415.9961	0.2032
416.201	0.1858
416.4059	0.191
416.6108	0.1702
416.8156	0.1978
417.0205	0.2047
417.2253	0.182
417.4301	0.2048
417.6349	0.1906
417.8397	0.1757
418.0445	0.1971
418.2492	0.2035
418.454	0.2108
418.6587	0.1967
418.8634	0.1806
419.0681	0.187
419.2728	0.1769
419.4775	0.191
419.6822	0.1757
419.8868	0.1661
420.0915	0.1878
420.2961	0.176
420.5007	0.1808
420.7053	0.1827
420.9099	0.1857
421.1144	0.1861
421.319	0.1874
421.5235	0.1875
421.728	0.1867
421.9325	0.1791
422.137	0.1833
422.3415	0.1723
422.546	0.1839
422.7504	0.1657
422.9549	0.1884
423.1593	0.1846
423.3637	0.1949
423.5681	0.1852
423.7725	0.1621
423.9769	0.1658
424.1812	0.1652
424.3856	0.1622
424.5899	0.1745
424.7942	0.1754
424.9985	0.157
425.2028	0.1639
425.4071	0.1955
425.6113	0.1531
425.8156	0.1713
426.0198	0.1764
426.224	0.1621
426.4282	0.1715
426.6324	0.1546
426.8366	0.1622
427.0407	0.1545
427.2449	0.1508
427.449	0.1556
427.6531	0.1322
427.8572	0.1595
428.0613	0.1298
428.2654	0.1576
428.4694	0.1557
428.6735	0.1506
428.8775	0.1529
429.0815	0.1721
429.2855	0.1274
429.4895	0.158
429.6935	0.1382
429.8975	0.1462
430.1014	0.1339
430.3053	0.1309
430.5093	0.1344
430.7132	0.1233
430.9171	0.1373
431.1209	0.1416
431.3248	0.1408
431.5286	0.1505
431.7325	0.1369
431.9363	0.1258
432.1401	0.122
432.3439	0.119
432.5477	0.1022
432.7514	0.119
432.9552	0.1225
433.1589	0.0983
433.3627	0.1171
433.5664	0.1196
433.7701	0.1131
433.9737	0.1112
434.1774	0.1064
434.3811	0.1005
434.5847	0.1237
434.7883	0.1032
434.9919	0.096
435.1955	0.1078
435.3991	0.1039
435.6027	0.0942
435.8062	0.1038
436.0098	0.0995
436.2133	0.1054
436.4168	0.0881
436.6203	0.0879
436.8238	0.0925
437.0272	0.0903
437.2307	0.087
437.4341	0.1008
437.6375	0.0945
437.841	0.086
438.0443	0.0887
438.2477	0.0917
438.4511	0.0616
438.6545	0.0918
438.8578	0.1
439.0611	0.0688
439.2644	0.0793
439.4677	0.0742
439.671	0.0697
439.8743	0.0686
440.0775	0.0732
440.2808	0.0747
440.484	0.0691
440.6872	0.0502
440.8904	0.0587
441.0936	0.0988
441.2967	0.0567
441.4999	0.0592
441.703	0.0682
441.9062	0.0558
442.1093	0.0602
442.3124	0.0699
442.5155	0.041
442.7185	0.0602
442.9216	0.0394
443.1246	0.0845
443.3276	0.0457
443.5307	0.0464
443.7337	0.0531
443.9366	0.0561
444.1396	0.0606
444.3426	0.0565
444.5455	0.0568
444.7484	0.0374
444.9513	0.0443
445.1542	0.0579
445.3571	0.0505
445.56	0.058
445.7628	0.0307
445.9657	0.04
446.1685	0.0604
446.3713	0.0442
446.5741	0.043
446.7769	0.032
446.9797	0.0432
447.1824	0.0487
447.3852	0.024
447.5879	0.0383
447.7906	0.0455
447.9933	0.0407
448.196	0.0258
448.3986	0.045
448.6013	0.0283
448.8039	0.0263
449.0066	0.0214
449.2092	0.0482
449.4118	0.0302
449.6143	0.0201
449.8169	0.0375
450.0195	0.022
450.222	0.0083
450.4245	0.0277
450.627	0.0241
450.8295	0.0415
451.032	0.0283
451.2345	0.0271
451.4369	0.0277
451.6394	0.0255
451.8418	0.0008
452.0442	0.014
452.2466	0.0376
452.449	0.0037
452.6513	0.0257
452.8537	0.0099
453.056	0.0164
453.2583	0.0157
453.4607	0.0294
453.663	0.0111
453.8652	0.0266
454.0675	-0.0044
454.2697	0.0315
454.472	0.0092
454.6742	0.0286
454.8764	0.0183
455.0786	0.0246
455.2808	0.0149
455.4829	0.0208
455.6851	0.0109
455.8872	0.0304
456.0893	0.0209
456.2915	-0.0014
456.4935	0.0239
456.6956	-0.0034
456.8977	0.0176
457.0997	0.007
457.3018	0.0118
457.5038	0.0146
457.7058	0.0049
457.9078	-0.006
458.1098	0.0137
458.3117	0.0149
458.5137	0.0157
458.7156	0.0085
458.9175	-0.0019
459.1194	0.0186
459.3213	0.01
459.5232	0.004
459.725	-0.0095
459.9269	-0.0058
460.1287	-0.0007
460.3305	0.0085
460.5323	-0.0072
460.7341	-0.0007
460.9359	0.005
461.1376	0.0094
461.3394	-0.0064
461.5411	-0.0066
461.7428	-0.0055
461.9445	0.0158
462.1462	0.0251
462.3479	0.0008
462.5495	0.0061
462.7512	0.0064
462.9528	-0.0018
463.1544	-0.0084
463.356	0.0039
463.5576	0.0055
463.7592	0.003
463.9607	0.004
464.1623	0.0102
464.3638	0.0203
464.5653	-0.0059
464.7668	0.0072
464.9683	0.0061
465.1697	0.0169
465.3712	-0.0056
465.5726	-0.0199
465.7741	-0.008
465.9755	-0.0094
466.1769	-0.0084
466.3782	-0.0179
466.5796	-0.0118
466.7809	0.0141
466.9823	-0.0089
467.1836	0.0055
467.3849	-0.0071
467.5862	0.0031
467.7875	-0.0147
467.9887	0.0045
468.19	-0.0057
468.3912	-0.0066
468.5924	-0.0028
468.7936	-0.016
468.9948	-0.0028
469.196	0.0084
469.3972	-0.0082
469.5983	0.0065
469.7994	-0.0228
470.0006	0.0009
470.2017	-0.0147
470.4027	-0.0057
470.6038	-0.0116
470.8049	-0.018
471.0059	-0.0004
471.2069	-0.031
471.408	0.0042
471.6089	0.0006
471.8099	-0.0091
472.0109	0.0036
472.2119	-0.0137
472.4128	-0.0256
472.6137	0.0007
472.8146	-0.0129
473.0155	-0.0101
473.2164	-0.0171
473.4173	0.0006
473.6181	0.0007
473.819	-0.0073
474.0198	0.0008
474.2206	-0.0199
474.4214	-0.0041
474.6222	-0.002
474.8229	-0.0218
475.0237	-0.0143
475.2244	-0.0146
475.4251	-0.0134
475.6258	0.0049
475.8265	-0.0002
476.0272	-0.0006
476.2278	-0.0013
476.4285	-0.0046
476.6291	-0.0066
476.8297	-0.0065
477.0303	-0.0088
477.2309	-0.0035
477.4315	-0.0109
477.632	-0.0118
477.8326	-0.001
478.0331	0.002
478.2336	-0.005
478.4341	-0.0153
478.6346	-0.0099
478.8351	-0.0023
479.0355	-0.0003
479.236	-0.0114
479.4364	-0.0058
479.6368	0.0034
479.8372	-0.0127
480.0376	-0.007
480.2379	-0.0197
480.4383	-0.0011
480.6386	0.0089
480.8389	-0.0054
481.0392	-0.0076
481.2395	-0.012
481.4398	-0.0038
481.6401	-0.0009
481.8403	-0.0116
482.0405	-0.001
482.2408	-0.0096
482.441	-0.0045
482.6411	-0.0133
482.8413	-0.0176
483.0415	-0.0077
483.2416	-0.0154
483.4417	0.0004
483.6419	-0.0107
483.8419	-0.0049
484.042	-0.0034
484.2421	0.0001
484.4422	-0.0047
484.6422	-0.0098
484.8422	-0.0107
485.0422	-0.0148
485.2422	-0.0055
485.4422	-0.0122
485.6422	-0.0169
485.8421	0.0005
486.042	-0.0053
486.242	-0.0118
486.4419	-0.008
486.6417	-0.0143
486.8416	0.0025
487.0415	-0.0081
487.2413	-0.0042
487.4411	-0.0002
487.641	-0.0117
487.8408	-0.0011
488.0405	-0.0107
488.2403	-0.003
488.4401	0.0091
488.6398	-0.0042
488.8395	-0.0124
489.0392	-0.0003
489.2389	-0.0103
489.4386	-0.014
489.6383	-0.0083
489.8379	0.0075
490.0376	-0.0044
490.2372	-0.0067
490.4368	-0.0128
490.6364	-0.0097
490.836	-0.0093
491.0355	-0.0152
491.2351	-0.0022
491.4346	-0.0146
491.6341	-0.0148
491.8336	-0.0017
492.0331	-0.0089
492.2326	-0.0244
492.432	-0.0018
492.6315	-0.0041
492.8309	-0.0157
493.0303	-0.0215
493.2297	-0.0139
493.4291	0.0023
493.6284	-0.0192
493.8278	-0.0101
494.0271	-0.001
494.2264	-0.0028
494.4257	-0.009
494.625	-0.0111
494.8243	-0.0167
495.0236	-0.0166
495.2228	-0.0061
495.422	-0.0088
495.6213	-0.0181
495.8205	-0.013
496.0196	-0.0096
496.2188	-0.005
496.418	-0.0182
496.6171	-0.0114
496.8162	-0.0173
497.0153	-0.0023
497.2144	-0.0066
497.4135	-0.0123
497.6126	-0.0101
497.8116	-0.0079
498.0107	-0.003
498.2097	-0.0084
498.4087	-0.0165
498.6077	-0.0001
498.8067	-0.0062
499.0056	-0.0035
499.2046	-0.0149
499.4035	-0.0197
499.6024	-0.0088
499.8013	-0.0106
500.0002	-0.014
500.199	-0.0108
500.3979	-0.0038
500.5967	-0.0255
500.7956	-0.0058
500.9944	-0.0053
501.1932	-0.0138
501.3919	-0.0144
501.5907	-0.0152
501.7895	-0.0159
501.9882	-0.0117
502.1869	-0.0142
502.3856	-0.0189
502.5843	-0.0169
502.783	-0.0187
502.9816	-0.0089
503.1803	-0.0206
503.3789	-0.0198
503.5775	-0.0076
503.7761	-0.0181
503.9747	-0.0088
504.1732	-0.0116
504.3718	-0.0105
504.5703	-0.002
504.7689	-0.0069
504.9674	-0.0098
505.1658	-0.0218
505.3643	0.0009
505.5628	-0.01
505.7612	-0.017
505.9597	-0.0058
506.1581	-0.0081
506.3565	-0.0016
506.5549	-0.0099
506.7532	-0.0197
506.9516	-0.0102
507.1499	-0.0003
507.3482	-0.0152
507.5465	-0.015
507.7448	-0.0085
507.9431	-0.0063
508.1414	-0.0052
508.3396	-0.0221
508.5379	-0.0106
508.7361	-0.0039
508.9343	-0.0053
509.1325	-0.0034
509.3306	-0.0088
509.5288	-0.0119
509.7269	-0.0112
509.9251	-0.004
510.1232	-0.0122
510.3213	0.0003
510.5193	-0.006
510.7174	-0.029
510.9154	-0.013
511.1135	-0.014
511.3115	-0.0159
511.5095	-0.0096
511.7075	-0.0142
511.9055	-0.012
512.1034	-0.0108
512.3014	-0.0075
512.4993	-0.0049
512.6972	-0.0141
512.8951	-0.0164
513.093	-0.0034
513.2908	-0.0026
513.4887	-0.0166
513.6865	-0.0026
513.8844	-0.0149
514.0822	-0.0139
514.2799	-0.0109
514.4777	-0.0194
514.6755	-0.0135
514.8732	-0.0123
515.0709	-0.0041
515.2687	-0.0032
515.4664	-0.001
515.664	-0.0101
515.8617	-0.0173
516.0594	-0.0233
516.257	-0.0088
516.4546	-0.0181
516.6522	-0.0032
516.8498	-0.0091
517.0474	-0.0071
517.2449	-0.0035
517.4425	-0.0148
517.64	-0.0098
517.8375	0.0016
518.035	0.0001
518.2325	-0.0125
518.43	-0.0023
518.6274	-0.0163
518.8249	-0.0268
519.0223	-0.0064
519.2197	0.0009
519.4171	-0.0106
519.6145	-0.0183
519.8118	0.0002
520.0092	-0.0107
520.2065	-0.0113
520.4038	-0.0143
520.6011	-0.0085
520.7984	-0.0098
520.9956	-0.0153
521.1929	-0.0212
521.3901	-0.0074
521.5874	-0.002
521.7846	-0.0095
521.9818	-0.0115
522.1789	-0.0001
522.3761	-0.01
522.5732	-0.0219
522.7704	-0.0108
522.9675	-0.0167
523.1646	-0.0164
523.3617	-0.0093
523.5587	-0.0075
523.7558	-0.0075
523.9528	-0.0105
524.1498	-0.0022
524.3468	-0.0222
524.5438	-0.0097
524.7408	-0.016
524.9378	0.0007
525.1347	-0.0007
525.3316	-0.0049
525.5285	-0.0139
525.7254	-0.0102
525.9223	-0.0054
526.1192	-0.0066
526.316	-0.0114
526.5129	-0.0046
526.7097	-0.0053
526.9065	-0.0071
527.1033	-0.0162
527.3	0.0052
527.4968	-0.0097
527.6935	-0.0108
527.8903	-0.009
528.087	-0.0013
528.2837	-0.0065
528.4804	-0.0032
528.677	-0.0169
528.8737	0.0005
529.0703	-0.0059
529.2669	0.0022
529.4635	-0.0148
529.6601	0.0004
529.8567	-0.013
530.0532	-0.0043
530.2498	0.002
530.4463	-0.006
530.6428	-0.0069
530.8393	0.0022
531.0358	-0.003
531.2322	-0.0098
531.4287	-0.004
531.6251	-0.002
531.8215	-0.0015
532.0179	-0.0047
532.2143	0.0036
532.4107	-0.0006
532.607	-0.0049
532.8034	-0.004
532.9997	0.0034
533.196	-0
533.3923	-0.0179
533.5886	0.0012
533.7848	-0.0056
533.9811	-0.0011
534.1773	0.0014
534.3735	-0.0045
534.5697	-0.0142
534.7659	-0.0055
534.9621	0.0012
535.1582	-0.0153
535.3544	-0.0082
535.5505	-0.0153
535.7466	-0.0124
535.9427	-0.0035
536.1387	-0.0082
536.3348	-0.0077
536.5308	0.0066
536.7269	-0.0219
536.9229	-0.0024
537.1189	-0.0054
537.3148	-0.0049
537.5108	-0.0051
537.7068	-0.0016
537.9027	-0.0001
538.0986	-0.0104
538.2945	-0.0156
538.4904	-0.0055
538.6863	-0.0092
538.8821	-0.0073
539.078	-0.0052
539.2738	0.0023
539.4696	-0.0146
539.6654	-0.0039
539.8611	0.0083
540.0569	-0.0053
540.2526	-0.0138
540.4484	-0.0155
540.6441	0.012
540.8398	0.0045
541.0355	-0.006
541.2311	-0.0004
541.4268	-0.0129
541.6224	0.0005
541.818	-0.0054
542.0136	-0.006
542.2092	-0.0103
542.4048	0.0057
542.6003	0.002
542.7959	0.0004
542.9914	-0.009
543.1869	0.0041
543.3824	-0.0021
543.5779	-0.01
543.7734	0.001
543.9688	-0.0062
544.1642	-0.0034
544.3596	-0
544.555	-0.0079
544.7504	-0.0055
544.9458	0.0014
545.1411	-0.0057
545.3365	-0.0086
545.5318	-0.0018
545.7271	-0.0011
545.9224	-0.0061
546.1177	-0.0116
546.3129	0.0005
546.5081	-0.0036
546.7034	0.001
546.8986	-0.0064
547.0938	-0.0006
547.289	-0.009
547.4841	0.0008
547.6793	-0.004
547.8744	-0.01
548.0695	-0.0013
548.2646	-0.0122
548.4597	0.006
548.6548	-0.0112
548.8498	-0.0018
549.0448	0.0024
549.2399	-0.0028
549.4349	0.0123
549.6298	-0.0006
549.8248	-0.0013
550.0198	-0.001
550.2147	-0.0032
550.4096	-0.0003
550.6045	-0.0092
550.7994	0.0066
550.9943	-0.0044
551.1892	0.002
551.384	0.0059
551.5788	-0.0036
551.7737	-0.0008
551.9685	-0.0059
552.1632	-0.0075
552.358	-0.0085
552.5528	0.0021
552.7475	-0.0086
552.9422	-0.0025
553.1369	-0.0046
553.3316	0.0019
553.5263	-0.0051
553.7209	0.0025
553.9156	-0.0017
554.1102	-0.0032
554.3048	-0.0055
554.4994	0.0052
554.694	-0.0098
554.8885	0.0001
555.0831	-0.0025
555.2776	-0.0035
555.4721	-0.0006
555.6666	-0.0076
555.8611	0.0121
556.0555	0.0077
556.25	0.0037
556.4444	-0.0026
556.6388	0.0002
556.8332	0
557.0276	-0.0017
557.222	-0.0075
557.4163	-0.0008
557.6107	0.0006
557.805	0.0071
557.9993	0.0029
558.1936	0.0011
558.3879	0.0092
558.5821	-0.003
558.7764	-0.0071
558.9706	-0.0021
559.1648	0.0036
559.359	-0.0029
559.5532	-0.0082
559.7473	-0.0014
559.9415	-0.0041
560.1356	-0.0012
560.3297	-0.0223
560.5238	0.0015
560.7179	-0.0075
560.9119	-0.004
561.106	-0.0042
561.3	-0.0087
561.494	-0.0034
561.688	-0.0082
561.882	-0.008
562.076	-0.0125
562.2699	-0.008
562.4639	-0.0052
562.6578	0.0045
562.8517	0.0046
563.0456	-0.0011
563.2395	-0.0016
563.4333	0.0064
563.6272	-0.0005
563.821	-0.0094
564.0148	0.0049
564.2086	-0.012
564.4024	-0.0025
564.5961	-0.0034
564.7899	-0.0012
564.9836	-0.0069
565.1773	0.0021
565.371	0.0097
565.5647	0.0033
565.7584	0.0004
565.952	-0.0037
566.1456	-0.0036
566.3393	-0.0015
566.5329	-0.0056
566.7264	-0.0061
566.92	-0.0033
567.1136	0.0076
567.3071	-0.0086
567.5006	0.0085
567.6941	-0.0002
567.8876	-0.0047
568.0811	-0.0016
568.2745	0.0011
568.468	0.0097
568.6614	0.007
568.8548	0.0002
569.0482	-0
569.2416	0.0043
569.4349	-0.0021
569.6283	0.0049
569.8216	-0.0028
570.0149	-0.011
570.2082	0.0074
570.4015	0.0079
570.5947	0.0049
570.788	-0.0031
570.9812	-0.0025
571.1744	0.0025
571.3676	-0.0094
571.5608	-0.0044
571.754	0.0004
571.9471	0.0034
572.1402	0.0023
572.3333	-0.0065
572.5264	-0.0026
572.7195	-0.0053
572.9126	0.0067
573.1057	0.0052
573.2987	-0.0032
573.4917	0.0016
573.6847	-0.0149
573.8777	-0.0002
574.0707	0.0031
574.2636	-0.0082
574.4566	0.0002
574.6495	0.0027
574.8424	0.0008
575.0353	-0.0027
575.2281	0.0096
575.421	0.0008
575.6138	0.0014
575.8067	0.0043
575.9995	-0.0011
576.1923	0.0039
576.385	-0.0027
576.5778	-0.0018
576.7706	-0.005
576.9633	0.0003
577.156	-0.0006
577.3487	0.0001
577.5414	0.0018
577.734	-0.0012
577.9267	0.0027
578.1193	-0.0198
578.3119	-0.0079
578.5045	-0.0051
578.6971	-0.0048
578.8897	0.0046
579.0822	-0.0015
579.2747	-0.0004
579.4673	-0.0024
579.6598	-0.0051
579.8522	-0.0001
580.0447	-0.0088
580.2372	-0.0039
580.4296	0.002
580.622	-0.0046
580.8144	0.0008
581.0068	-0.0094
581.1992	-0.0148
581.3915	-0.005
581.5839	-0.012
581.7762	-0.0101
581.9685	-0.0051
582.1608	-0.0034
582.353	-0.004
582.5453	-0.0016
582.7375	0.0042
582.9298	-0.0038
583.122	-0.0046
583.3142	-0.004
583.5063	-0.0044
583.6985	0.002
583.8906	-0.0026
584.0827	-0.0099
584.2749	0.0067
584.4669	-0.0018
584.659	-0.0044
584.8511	-0.0118
585.0431	-0.0064
585.2352	-0.0023
585.4272	-0.0031
585.6192	0.0006
585.8111	0.0009
586.0031	0.0011
586.195	-0.0024
586.387	0.0014
586.5789	0.003
586.7708	0.0013
586.9627	-0.0013
587.1545	-0.0088
587.3464	0.0024
587.5382	0.0017
587.73	0.0041
587.9218	0.0046
588.1136	-0.0015
588.3053	0.0007
588.4971	-0.0005
588.6888	-0.0108
588.8805	-0.0012
589.0722	0.006
589.2639	-0.0029
589.4556	-0.0057
589.6472	0.0045
589.8389	0.0005
590.0305	-0.0122
590.2221	0.0013
590.4137	-0.0065
590.6052	-0.0017
590.7968	0.0029
590.9883	0.0013
591.1798	-0.0015
591.3713	0.0024
591.5628	0.0062
591.7543	0.0078
591.9458	0.0006
592.1372	0.0109
592.3286	0.0066
592.52	0.0039
592.7114	-0.0007
592.9028	0.0052
593.0941	-0.0019
593.2855	-0.0042
593.4768	-0.002
593.6681	-0.0092
593.8594	-0.0033
594.0506	0.0047
594.2419	0.0022
594.4331	0.0026
594.6244	0.0067
594.8156	-0.0081
595.0067	0.004
595.1979	-0.0031
595.3891	-0.0011
595.5802	0.0004
595.7713	0.0004
595.9624	-0.0004
596.1535	0.0057
596.3446	-0.0064
596.5357	-0.0011
596.7267	0.0019
596.9177	0.0036
597.1087	-0.0049
597.2997	0.001
597.4907	0.0042
597.6817	0.0034
597.8726	-0.0005
598.0635	-0.0029
598.2544	-0.0027
598.4453	-0.0017
598.6362	-0.0005
598.827	-0.0032
599.0179	0.0012
599.2087	0.0052
599.3995	-0.0028
599.5903	0.0042
599.7811	0.0028
599.9718	-0.0051
600.1626	0.0019
600.3533	-0.0032
600.544	0.0058
600.7347	0.0044
600.9254	0.0065
601.116	-0.0017
601.3067	0.0039
601.4973	0.0005
601.6879	0.0017
601.8785	0.0021
602.0691	0.0125
602.2596	0.0014
602.4502	0.0062
602.6407	0.0102
602.8312	0.004
603.0217	-0.0072
603.2122	0.0079
603.4027	-0.0011
603.5931	0.004
603.7835	-0.0001
603.9739	-0.0027
604.1643	0.0054
604.3547	-0.0081
604.5451	0.0009
604.7354	-0.0072
604.9257	0.0059
605.116	-0.0069
605.3063	0.0064
605.4966	0.004
605.6869	0
605.8771	0.0058
606.0673	0.0013
606.2575	0.009
606.4477	0.0046
606.6379	-0.0008
606.8281	-0.0014
607.0182	-0.0009
607.2083	0.0061
607.3985	0.0053
607.5885	0.0009
607.7786	0.0014
607.9687	-0.0078
608.1587	0.0069
608.3488	-0.0016
608.5388	-0.0031
608.7288	-0.0029
608.9187	-0.0035
609.1087	-0.0061
609.2986	-0.0074
609.4886	-0.0019
609.6785	-0.0004
609.8684	0.005
610.0582	0.0013
610.2481	-0.0031
610.4379	-0
610.6278	-0.0072
610.8176	-0.0058
611.0074	-0.0022
611.1971	-0.0039
611.3869	-0.0003
611.5766	-0.0037
611.7664	-0.0009
611.9561	0.0052
612.1458	0.0032
612.3354	-0.0055
612.5251	-0.0022
612.7147	-0.0007
612.9044	0.0083
613.094	-0.0057
613.2836	0.0051
613.4731	0.0055
613.6627	0.0043
613.8522	0.0088
614.0417	0.0049
614.2313	-0.0073
614.4207	-0.005
614.6102	-0.0048
614.7997	-0.0025
614.9891	-0.008
615.1785	-0.004
615.3679	-0.0066
615.5573	0.007
615.7467	-0.001
615.9361	-0.0033
616.1254	-0.0089
616.3147	-0.0001
616.504	0.002
616.6933	0.0014
616.8826	0.0021
617.0718	0.0043
617.2611	0.0066
617.4503	0.0056
617.6395	-0.0008
617.8287	-0.0024
618.0179	-0.0029
618.207	0.006
618.3961	-0.0037
618.5853	0.0011
618.7744	0.0087
618.9634	0.0059
619.1525	-0.0023
619.3416	0.0039
619.5306	0.0065
619.7196	0.0022
619.9086	-0.0008
620.0976	0.0059
620.2866	-0.0067
620.4755	-0.0034
620.6645	0.0043
620.8534	0.0044
621.0423	0.0026
621.2312	0.0076
621.42	0.0014
621.6089	-0.003
621.7977	-0.0032
621.9865	-0.0038
622.1753	0.0026
622.3641	-0.0044
622.5529	0.0074
622.7416	0.0037
622.9303	-0.0014
623.1191	0.0007
623.3078	-0.0089
623.4964	-0.0014
623.6851	-0.0069
623.8737	0.0053
624.0624	0.0089
624.251	0.0029
624.4396	-0.0048
624.6282	-0.0026
624.8167	0.0003
625.0053	0.0058
625.1938	0.0111
625.3823	-0.0004
625.5708	0.0071
625.7593	-0.0013
625.9477	0.0022
626.1362	-0.0011
626.3246	0.0027
626.513	0.0125
626.7014	0.0078
626.8898	-0.0008
627.0781	0.0002
627.2665	0.0013
627.4548	0.0085
627.6431	0.0078
627.8314	-0.0038
628.0197	0.0055
628.2079	-0.004
628.3962	-0.0045
628.5844	0.0009
628.7726	0.0149
628.9608	0.0053
629.1489	0.005
629.3371	0.0144
629.5252	0.0024
629.7134	0.0073
629.9015	0.0025
630.0895	-0.0045
630.2776	0.0029
630.4657	0.0025
630.6537	0.0059
630.8417	-0.0011
631.0297	-0.0011
631.2177	-0.0005
631.4057	-0.0041
631.5936	0.0064
631.7815	0.0027
631.9695	-0.0024
632.1574	0.0034
632.3452	0.0065
632.5331	0.006
632.7209	-0.0015
632.9088	0.0044
633.0966	0.0092
633.2844	0.0006
633.4722	0.0074
633.6599	0.0088
633.8477	0.0007
634.0354	0.0028
634.2231	0.0063
634.4108	0.0048
634.5985	0.0059
634.7861	0.0017
634.9738	0.0011
635.1614	-0.0029
635.349	0.0012
635.5366	0.0061
635.7242	0.0031
635.9117	0.0023
636.0993	0.0005
636.2868	0.0033
636.4743	-0.0034
636.6618	0.0086
636.8492	0.0008
637.0367	-0.0009
637.2241	-0.0042
637.4115	-0.0054
637.5989	0.0005
637.7863	-0.0032
637.9737	0.0003
638.161	0.0018
638.3484	-0.0032
638.5357	0.0074
638.723	-0.0053
638.9103	0.0023
639.0975	0.0102
639.2848	0.0108
639.472	0.0047
639.6592	0.0029
639.8464	0.0121
640.0336	0.0124
640.2208	0.0037
640.4079	0.0016
640.595	0.006
640.7821	0.0028
640.9692	0.0034
641.1563	0.0142
641.3434	0.0054
641.5304	0.003
641.7174	0.0019
641.9044	-0.0018
642.0914	0.0066
642.2784	0.0071
642.4653	0.0107
642.6523	0.0008
642.8392	0.0007
643.0261	0.0107
643.213	0.0071
643.3999	-0.003
643.5867	0.0025
643.7735	0.0024
643.9604	-0.0028
644.1472	0.0011
644.3339	0.0029
644.5207	-0.0011
644.7075	0.0028
644.8942	0.0079
645.0809	0.0096
645.2676	0.0069
645.4543	0.007
645.6409	0.0037
645.8276	0.0062
646.0142	0.0022
646.2008	0.0048
646.3874	0.0012
646.574	0.0042
646.7605	0.0033
646.9471	-0.005
647.1336	0.0057
647.3201	0.0073
647.5066	-0.0092
647.6931	0.0069
647.8795	0.0009
648.0659	0.0064
648.2524	0.0066
648.4388	-0.0048
648.6252	0.0005
648.8115	0.0002
648.9979	0.0009
649.1842	0.0078
649.3705	0.0037
649.5568	0.0109
649.7431	0.0062
649.9294	-0.001
650.1156	0.0038
650.3018	-0.0031
650.488	0.0066
650.6742	0.0081
650.8604	0.0066
651.0466	-0.0023
651.2327	0.0026
651.4188	0.0075
651.6049	0.0022
651.791	0.0044
651.9771	0.0077
652.1632	0.008
652.3492	0.0007
652.5352	0.0047
652.7212	0.0047
652.9072	0.0071
653.0932	-0.002
653.2791	0.0013
653.465	-0.0003
653.651	-0.0084
653.8369	-0.0099
654.0227	0.0047
654.2086	0.0088
654.3944	0.0063
654.5803	0.0039
654.7661	-0.0015
654.9519	0.0091
655.1377	-0.0005
655.3234	-0.0015
655.5092	-0.0046
655.6949	-0.0061
655.8806	-0.0057
656.0663	-0.0057
656.2519	-0.0068
656.4376	-0.0037
656.6232	0.006
656.8088	0.003
656.9945	0.0071
657.18	0.0006
657.3656	0.0072
657.5511	0.0017
657.7367	0.0008
657.9222	0.011
658.1077	0.0041
658.2932	0.008
658.4786	-0.0029
658.6641	0.0017
658.8495	0.0058
659.0349	0.0011
659.2203	0.0077
659.4057	-0.0006
659.591	0.009
659.7764	0.002
659.9617	0.0061
660.147	0.0056
660.3323	0.0068
660.5176	0.0111
660.7028	0.0086
660.888	0.0054
661.0733	0.0056
661.2585	0.0052
661.4436	0.0082
661.6288	-0.0048
661.8139	0.0088
661.9991	0.0147
662.1842	0.0023
662.3693	0.0028
662.5544	-0.0002
662.7394	0.0088
662.9245	-0.0062
663.1095	0.0017
663.2945	0.0015
663.4795	0.001
663.6644	-0.0004
663.8494	0.003
664.0343	0.0077
664.2193	-0.0061
664.4042	-0.0012
664.589	-0.0083
664.7739	-0.0051
664.9587	-0.0009
665.1436	0.0023
665.3284	-0.0014
665.5132	-0.0008
665.698	0.001
665.8827	0.0064
666.0675	0.0005
666.2522	-0.0058
666.4369	0.008
666.6216	0.0106
666.8063	0.004
666.9909	0.0023
667.1756	0.003
667.3602	0.0011
667.5448	0.0021
667.7294	0.0107
667.9139	0.0053
668.0985	0.014
668.283	-0.0003
668.4675	0.0059
668.652	0.0036
668.8365	0.0031
669.0209	0.007
669.2054	0.0125
669.3898	0.0026
669.5742	0.0048
669.7586	0.0127
669.943	0.016
670.1273	0.0088
670.3117	0.0105
670.496	0.0061
670.6803	0.0157
670.8646	0.0074
671.0488	0.0044
671.2331	0.0059
671.4173	0.0076
671.6015	0.0018
671.7857	0.0092
671.9699	0.0124
672.1541	0.0098
672.3382	0.0108
672.5223	0.0115
672.7064	0.0119
672.8905	0.0046
673.0746	0.0023
673.2587	0.0125
673.4427	0.0091
673.6267	0.0097
673.8107	0.0078
673.9947	0.0134
674.1787	0.0074
674.3626	0.0042
674.5465	0.008
674.7304	0.0002
674.9143	0.0095
675.0982	0.0046
675.2821	0.0005
675.4659	0.004
675.6497	0.005
675.8335	0.0019
676.0173	0.0008
676.2011	0.0043
676.3849	-0.0006
676.5686	-0
676.7523	0.002
676.936	-0.0039
677.1197	0.0017
677.3034	-0.0004
677.487	0.0099
677.6706	0.0024
677.8542	0.0053
678.0378	0.0011
678.2214	0.0024
678.405	0.0105
678.5885	-0.0012
678.772	0.004
678.9555	-0.0003
679.139	-0.0029
679.3225	0.004
679.5059	0.0039
679.6894	0.0046
679.8728	0.004
680.0562	-0.0062
680.2395	-0.0019
680.4229	-0.0008
680.6062	0.0077
680.7896	0.0034
680.9729	0.0004
681.1562	0.0097
681.3394	0.0004
681.5227	-0.0032
681.7059	-0.0031
681.8891	-0.0016
682.0723	0.0132
682.2555	0.0053
682.4387	0.0001
682.6218	-0.0027
682.805	0.0066
682.9881	0.0044
683.1712	-0.0018
683.3542	0.0004
683.5373	0.0054
683.7203	-0.0009
683.9034	-0.0012
684.0864	-0.003
684.2694	-0.0004
684.4523	0.0072
684.6353	0.0024
684.8182	0.0074
685.0011	-0.0004
685.184	0.0081
685.3669	0.0064
685.5498	0.008
685.7326	0.0064
685.9154	0.0018
686.0982	0.0138
686.281	0.0114
686.4638	0.0054
686.6465	0.0002
686.8293	0.0033
687.012	0.0081
687.1947	-0.0014
687.3774	0.0018
687.56	-0.0002
687.7427	0.0078
687.9253	-0.0028
688.1079	0.0039
688.2905	0.0041
688.4731	0.0008
688.6556	0.0012
688.8382	0.01
689.0207	0.0055
689.2032	-0.0015
689.3857	-0.0046
689.5681	-0.0008
689.7506	0.0002
689.933	-0.0003
690.1154	0.0032
690.2978	0.0004
690.4802	0.0017
690.6626	-0.0064
690.8449	0.0039
691.0272	0.0039
691.2095	-0.0071
691.3918	-0.0057
691.5741	0.004
691.7563	-0.0046
691.9386	0.0033
692.1208	-0.0011
692.303	0.0003
692.4852	0.0036
692.6673	0.0014
692.8495	-0.0082
693.0316	-0.0027
693.2137	0.0027
693.3958	0.0076
693.5778	0.0053
693.7599	0.0063
693.9419	0.0008
694.1239	0.0047
694.3059	-0.0006
694.4879	0.0078
694.6699	0.005
694.8518	-0.0016
695.0337	0.0056
695.2157	0.005
695.3975	0.0016
695.5794	-0.0001
695.7613	0.0023
695.9431	-0.0043
696.1249	-0.003
696.3067	0.0068
696.4885	0.0093
696.6703	-0.0082
696.852	0.0063
697.0337	0.0072
697.2154	0.0028
697.3971	0.0073
697.5788	0.0031
697.7605	0.0018
697.9421	0.0085
698.1237	0.0061
698.3053	-0.0024
698.4869	-0
698.6685	-0.0016
698.85	0.0023
699.0315	0.0049
699.213	-0.0009
699.3945	0.0032
699.576	0.0094
699.7575	0.0077
699.9389	0.0048
700.1203	0.0058
700.3017	-0.004
700.4831	-0.0102
700.6645	-0.0035
700.8458	-0.008
701.0271	-0.0081
701.2084	-0.0001
701.3897	-0.0054
701.571	0.0019
701.7523	-0.0063
701.9335	0.0049
702.1147	-0.003
702.2959	-0.0009
702.4771	0.0066
702.6583	-0.0036
702.8394	-0.0049
703.0205	0.0049
703.2016	-0.0115
703.3827	-0.0011
703.5638	0.0089
703.7449	0.0015
703.9259	0.0161
704.1069	0.0013
704.2879	0.0077
704.4689	0.0058
704.6499	0.0035
704.8308	0.0049
705.0117	0.0075
705.1927	0.0066
705.3735	-0.0052
705.5544	-0.004
705.7353	-0.0035
705.9161	-0.005
706.0969	0.0012
706.2777	-0.0024
706.4585	0.0001
706.6393	0.0032
706.82	-0.0067
707.0007	-0.003
707.1815	0.0016
707.3621	0.0119
707.5428	0.0071
707.7235	0.0065
707.9041	0.0116
708.0847	-0.0044
708.2653	0.0029
708.4459	-0.0078
708.6265	-0.0009
708.807	0.0045
708.9875	-0.0095
709.168	-0.0043
709.3485	-0.0081
709.529	-0.0003
709.7095	-0.0096
709.8899	0.0009
710.0703	-0.0128
710.2507	0.0009
710.4311	-0.0019
710.6115	-0.009
710.7918	-0.0045
710.9721	0.0009
711.1524	-0.0015
711.3327	0.0034
711.513	0.001
711.6932	0.0026
711.8735	0.0089
712.0537	0.0046
712.2339	-0.0036
712.4141	-0.0083
712.5942	-0.0034
712.7744	0.0028
712.9545	-0.0016
713.1346	0.002
713.3147	0.0011
713.4947	-0.0042
713.6748	0.0057
713.8548	-0.001
714.0348	-0.005
714.2148	0.0061
714.3948	0.0112
714.5748	0.0077
714.7547	0.004
714.9346	0.0169
715.1145	-0.0014
715.2944	-0.0047
715.4743	0.0072
715.6541	0.0032
715.834	0.0122
716.0138	0.0027
716.1936	-0.006
716.3733	-0.0036
716.5531	0.0088
716.7328	-0.0048
716.9126	-0.001
717.0923	-0.0034
717.2719	0.0038
717.4516	0.002
717.6312	0.0165
717.8109	0.0036
717.9905	0.0052
718.1701	0.0011
718.3496	-0.0063
718.5292	0.0073
718.7087	0.0016
718.8882	-0.0009
719.0677	0.0102
719.2472	-0.0006
719.4267	0.0035
719.6061	0.0062
719.7856	0.0086
719.965	0.0043
720.1443	0.0016
720.3237	0.013
720.5031	0.0125
720.6824	0.0114
720.8617	-0.0005
721.041	0.0079
721.2203	0.0056
721.3995	0.0058
721.5788	0.0014
721.758	0.0071
721.9372	0.0054
722.1164	0.0112
722.2956	0.0015
722.4747	0.0056
722.6538	-0.0045
722.8329	0.0069
723.012	0.0042
723.1911	-0.0041
723.3702	-0.0055
723.5492	-0.0008
723.7282	-0.0012
723.9072	-0.0091
724.0862	-0.0054
724.2652	-0.0014
724.4441	0.0039
724.623	-0.0014
724.8019	0.0023
724.9808	0.0015
725.1597	-0.0083
725.3385	0.0083
725.5174	-0.0007
725.6962	-0.0017
725.875	0.002
726.0538	0.0003
726.2325	0.0079
726.4112	0.0067
726.59	0.0006
726.7687	-0.0007
726.9474	0.0067
727.126	-0.0006
727.3047	-0.0009
727.4833	0.0072
727.6619	-0.0105
727.8405	-0.0049
728.0191	-0.0003
728.1976	0.0036
728.3762	0.0019
728.5547	-0.0029
728.7332	-0.003
728.9116	0.0066
729.0901	0.0035
729.2686	-0.0054
729.447	0.0002
729.6254	-0.0029
729.8038	-0.0018
729.9821	-0.0047
730.1605	-0.0022
730.3388	-0.0019
730.5171	-0.0022
730.6954	0.0032
730.8737	0.0069
731.0519	0.0018
731.2302	0.0003
731.4084	0.0187
731.5866	0.0003
731.7648	-0.0075
731.9429	0.0117
732.1211	-0.0057
732.2992	0.0017
732.4773	-0.0022
732.6554	0.0028
732.8335	0.008
733.0115	0.0025
733.1896	0.0164
733.3676	-0.0058
733.5456	0.013
733.7235	0.0046
733.9015	0.0035
734.0794	0.001
734.2574	-0
734.4353	-0.0048
734.6131	0.0131
734.791	0.0009
734.9689	-0.0017
735.1467	0.009
735.3245	0.0041
735.5023	-0.0051
735.68	0.0005
735.8578	0.0115
736.0355	-0.0152
736.2132	-0.003
736.3909	-0.0034
736.5686	-0.0055
736.7463	-0.0011
736.9239	-0.0098
737.1015	-0.0054
737.2791	0.0003
737.4567	-0.0135
737.6343	0.0041
737.8118	-0.0035
737.9894	0.0035
738.1669	-0.0127
738.3444	-0.0042
738.5218	0.0063
738.6993	-0.0011
738.8767	-0.009
739.0541	0.0165
739.2315	-0.005
739.4089	-0.0005
739.5863	0.0104
739.7636	-0.0063
739.9409	0.0127
740.1182	0.0103
740.2955	0.0041
740.4728	-0.0012
740.65	0.0025
740.8272	-0.0026
741.0044	-0.0004
741.1816	0.0023
741.3588	-0.0008
741.5359	-0.0054
741.7131	-0.0056
741.8902	-0.0059
742.0673	-0.0052
742.2444	-0.0118
742.4214	-0.0091
742.5985	0.0089
742.7755	-0.0052
742.9525	-0.013
743.1295	0.0115
743.3064	0.0055
743.4834	0.0121
743.6603	-0.0038
743.8372	-0.0026
744.0141	0.0078
744.191	0.0009
744.3678	0.007
744.5446	0.0014
744.7215	0.0076
744.8982	-0.0024
745.075	-0.0057
745.2518	0.0042
745.4285	-0.003
745.6052	0.0011
745.7819	-0.0036
745.9586	-0.0085
746.1353	0.0062
746.3119	-0.0001
746.4885	-0.0079
746.6651	-0.0068
746.8417	-0.006
747.0183	0.0022
747.1948	-0.0098
747.3714	-0.0004
747.5479	0.0001
747.7244	-0.0032
747.9008	0.0075
748.0773	0.0081
748.2537	0.0024
748.4301	-0.0055
748.6065	0.0027
748.7829	0.0048
748.9593	-0.0013
749.1356	-0.0005
749.3119	0.0111
749.4882	-0.0126
749.6645	0.0084
749.8408	-0.0063
750.017	-0.0094
750.1933	0.0051
750.3695	-0.0065
750.5457	0.0124
750.7218	-0.0085
750.898	0.0011
751.0741	-0.0028
751.2502	-0.0087
751.4263	-0.0072
751.6024	0.0061
751.7784	-0.0029
751.9545	-0.0041
752.1305	-0.0025
752.3065	-0.0049
752.4825	0.0013
752.6584	-0.0127
752.8344	-0.0116
753.0103	-0.0099
753.1862	0.0017
753.3621	-0.0045
753.5379	-0.0095
753.7138	-0.0068
753.8896	-0.0021
754.0654	0.0071
754.2412	0.0014
754.417	-0.0011
754.5927	-0.0093
754.7685	-0.0045
754.9442	-0.0032
755.1199	0.0073
755.2956	-0.0088
755.4712	0.0077
755.6469	0.0005
755.8225	-0.0068
755.9981	-0.0096
756.1736	-0.0032
756.3492	-0.0037
756.5248	-0.0008
756.7003	-0.0043
756.8758	0.0085
757.0513	-0.0188
757.2267	-0.0047
757.4022	0.0027
757.5776	-0.0124
757.753	-0.004
757.9284	0.005
758.1038	0.0108
758.2791	0.009
758.4545	-0.0106
758.6298	0.0081
758.8051	0.0054
758.9803	0.0068
759.1556	0.0123
759.3308	0.0078
759.506	0.0208
759.6812	0.0031
759.8564	0.013
760.0316	0.006
760.2067	0.0097
760.3819	0.0114
760.557	0.0076
760.732	0.002
760.9071	0.0058
761.0821	-0.0005
761.2572	0.0141
761.4322	-0.0012
761.6072	-0.0007
761.7821	-0.0052
761.9571	0.0128
762.132	-0.0007
762.3069	-0.009
762.4818	0.0018
762.6567	-0.0034
762.8316	0.0029
763.0064	-0.0023
763.1812	-0.003
763.356	-0.0119
763.5308	-0.0097
763.7055	-0.0103
763.8803	-0.0099
764.055	-0.006
764.2297	-0.0068
764.4044	-0.0082
764.579	-0.0097
764.7537	-0.0186
764.9283	-0.0109
765.1029	-0.0052
765.2775	-0.0056
765.4521	-0.0125
765.6266	-0.0082
765.8011	-0.0104
765.9756	-0.0021
766.1501	0.002
766.3246	0.0008
766.4991	-0.0029
766.6735	-0.0021
766.8479	-0.006
767.0223	0.0055
767.1967	-0.0048
767.371	-0.0076
767.5454	-0.0074
767.7197	-0.003
767.894	-0.0077
768.0683	-0.0092
768.2425	0.0028
768.4168	-0.0048
768.591	0.0049
768.7652	-0
768.9394	-0.0029
769.1135	-0.0049
769.2877	0.0053
769.4618	0.0033
769.6359	-0.0063
769.81	-0.0063
769.984	-0.0087
770.1581	0.0051
770.3321	-0.001
770.5061	0.0046
770.6801	0.0013
770.8541	0.002
771.028	0.0072
771.202	-0.0112
771.3759	0.006
771.5498	-0.0094
771.7236	0.0017
771.8975	-0.0072
772.0713	0.0004
772.2451	-0.0012
772.4189	0.0154
772.5927	0.0113
772.7665	-0.0033
772.9402	-0.005
773.1139	0.0009
773.2876	0.0032
773.4613	0.0066
773.635	0.0118
773.8086	-0.0064
773.9822	-0.0043
774.1558	0.0095
774.3294	-0.012
774.503	-0.0046
774.6765	0.0071
774.8501	0.0092
775.0236	0.0027
775.1971	0.0082
775.3705	-0.0092
775.544	-0.0017
775.7174	-0.0014
775.8908	-0.008
776.0642	0.0013
776.2376	0.0044
776.4109	-0.0154
776.5843	-0.0025
776.7576	0.0105
776.9309	0.0049
777.1041	0.006
777.2774	0.0038
777.4506	0.003
777.6238	-0.0152
777.797	-0.0086
777.9702	0.001
778.1434	-0.0106
778.3165	-0.0135
778.4896	-0.0065
778.6627	0.0134
778.8358	0.0128
779.0089	-0.001
779.1819	0.0081
779.3549	0.0137
779.5279	0.0134
779.7009	0.019
779.8739	0.0055
780.0468	0.0018
780.2197	0.0067
780.3926	0.0152
780.5655	0.0091
780.7384	0.0078
780.9112	0.0082
781.0841	0.0037
781.2569	0.0049
781.4297	0.0062
781.6024	0.003
781.7752	0.0141
781.9479	0.0055
782.1206	-0.0014
782.2933	-0.0108
782.466	0.0013
782.6386	0.0026
782.8113	0.0125
782.9839	0.0055
783.1565	0.0074
783.329	0.0065
783.5016	0.0069
783.6741	0.0126
783.8466	-0.0066
784.0191	0.0163
784.1916	0.0002
784.3641	-0.0043
784.5365	-0.0022
784.7089	-0.0072
784.8813	-0.0042
785.0537	0.0062
785.2261	0.0001
785.3984	-0.0226
785.5707	0.0013
785.743	0.001
785.9153	-0.0175
786.0876	0.0079
786.2598	-0.013
786.432	-0.0071
786.6042	0.0006
786.7764	0.0035
786.9486	0.0036
787.1207	-0.0075
787.2928	0.0119
787.4649	0.007
787.637	-0.0019
787.8091	-0.0001
787.9811	-0.0093
788.1532	-0.0041
788.3252	0.0087
788.4972	-0.0115
788.6691	-0.0022
788.8411	-0.0012
789.013	-0.0111
789.1849	-0.0018
789.3568	-0.0039
789.5287	-0.0026
789.7005	0.0004
789.8723	-0.0016
790.0442	0.0078
790.2159	-0.0007
790.3877	-0.0017
790.5595	-0.0137
790.7312	-0.0028
790.9029	0.0016
791.0746	-0.006
791.2463	0.0034
791.4179	-0.0042
791.5896	-0.0117
791.7612	0.0007
791.9328	0.003
792.1044	-0.0191
792.2759	-0.0252
792.4474	-0.0215
792.619	0.0128
792.7905	0.0099
792.9619	0.0062
793.1334	0.0106
793.3048	0.0108
793.4762	0.0143
793.6476	0.0027
793.819	-0.0048
793.9904	0.0065
794.1617	-0.006
794.333	0.0042
794.5043	-0.0045
794.6756	0.0171
794.8469	0.0063
795.0181	0.0022
795.1893	0.0029
795.3605	-0.007
795.5317	-0.0203
795.7029	-0.0074
795.874	0.0054
796.0452	-0.0127
796.2163	-0.0063
796.3873	-0.0107
796.5584	0.001
796.7294	-0.007
796.9005	0.0073
797.0715	-0.0263
797.2425	-0.0284
797.4134	-0.0116
797.5844	-0.0107
797.7553	-0.0203
797.9262	-0.0039
798.0971	-0.0174
798.2679	-0.0124
798.4388	-0.0121
798.6096	-0.0338
798.7804	-0.0068
798.9512	-0.0154
799.122	-0.0251
799.2927	-0.0026
799.4635	-0.001
799.6342	-0.0252
799.8049	-0.0076
799.9755	-0.0034
800.1462	-0.0032
800.3168	-0.0028
800.4874	-0.0199
800.658	0.0088
800.8286	0.0036
800.9991	0.0052
801.1696	-0.0016
801.3402	0.0071
801.5106	-0.0073
801.6811	0.0045
801.8516	0.0133
802.022	0.008
802.1924	0.0007
802.3628	0.0067
802.5332	0.0109
802.7035	0.0098
802.8739	-0.0179
803.0442	-0.0147
803.2145	-0.0133
803.3847	-0.037
803.555	0.002
803.7252	-0.0249
803.8954	-0.0376
804.0656	-0.0312
804.2358	-0.0192
804.4059	0.0024
804.5761	-0.0242
804.7462	-0.0219
804.9163	-0.0113
805.0864	-0.009
805.2564	-0.0039
805.4264	0.0054
805.5965	-0.0063
805.7665	-0.0188
805.9364	0.0259
806.1064	0.0253
806.2763	-0.0009
806.4462	0.0056
806.6161	-0.002
806.786	0.0056
806.9559	-0.001
807.1257	0.002
807.2955	-0.0061
807.4653	-0.012
807.6351	-0.0173
807.8048	-0.0119
807.9746	0.0133
808.1443	-0.0098
808.314	-0.0152
808.4837	-0.0071
808.6533	0.0004
808.8229	0.0122
808.9926	-0.0281
809.1622	-0.0135
809.3317	-0.0264
809.5013	-0.0196
809.6708	-0.0243
809.8403	-0.006
810.0098	-0.0148
810.1793	-0.0121
810.3488	0.0077
810.5182	-0.0186
810.6876	0.0032
810.857	-0.027
811.0264	0.0036
811.1958	-0.009
811.3651	0.0227
811.5344	0.002
811.7037	-0.0014
811.873	-0.0158
812.0422	-0.0046
812.2115	-0.0076
812.3807	-0.0077
812.5499	-0.0084
812.7191	-0.0151
812.8882	-0.0193
813.0574	-0.0097
813.2265	-0.0236
813.3956	-0.011
813.5646	-0.0001
813.7337	-0.0409
813.9027	0.0097
814.0718	0.0154
814.2407	0.0045
814.4097	-0.0081
814.5787	0.0025
814.7476	-0.0094
814.9165	0.001
815.0854	-0.02
815.2543	0.0031
815.4232	0.0152
815.592	0.0104
815.7608	0.0189
815.9296	0.0115
816.0984	0.0064
816.2671	0.004
816.4359	-0.017
816.6046	-0.0082
816.7733	-0.0133
816.942	-0.0246
817.1106	-0.0007
817.2793	-0.0017
817.4479	0.0017
817.6165	0.0076
817.785	-0.0036
817.9536	-0.0323
818.1221	-0.0211
818.2906	-0.0046
818.4591	-0.0105
818.6276	-0.0228
818.7961	0.0038
818.9645	-0.0126
819.1329	-0.0145
819.3013	-0.0005
819.4697	-0.0046
819.638	-0.0199
819.8064	-0.0148
819.9747	-0.0081
820.143	-0.0184
820.3113	-0.0276
820.4795	-0.0125
820.6477	-0.0005
820.816	-0.0199
820.9842	-0.0076
821.1523	-0.0321
821.3205	-0.0138
821.4886	-0.0288
821.6567	-0.0079
821.8248	0.0104
821.9929	0.0236
822.1609	0.012
822.329	0.0181
822.497	0.017
822.665	-0.0217
822.833	-0.0044
823.0009	0.0265
823.1688	0.0238
823.3367	0.0279
823.5046	-0.0021
823.6725	0.0198
823.8404	-0.006
824.0082	0.0174
824.176	0.0355
824.3438	0.0091
824.5116	-0.001
824.6793	0.0069
824.847	-0.0192
825.0147	-0.019
825.1824	-0.0014
825.3501	0.0225
825.5177	-0.0388
825.6854	-0.0066
825.853	0.0032
826.0206	-0.0121
826.1881	0.0046
826.3557	-0.0303
826.5232	0.0011
826.6907	-0.0157
826.8582	-0.0002
827.0257	-0.0449
827.1931	-0.0256
827.3605	-0.0243
827.528	-0.0193
827.6953	-0.0328
827.8627	-0.0238
828.03	0.0073
828.1974	-0.0058
828.3647	-0.0311
828.532	-0.0204
828.6992	-0.0007
828.8665	-0.0021
829.0337	-0.0384
829.2009	0.0109
829.3681	-0.0298
829.5352	0.0122
829.7024	-0.0278
829.8695	-0.0408
830.0366	0.0312
830.2037	-0.0235
830.3707	0.0148
830.5378	-0.019
830.7048	0.0113
830.8718	-0.0094
831.0388	-0.0121
831.2057	0.0117
831.3727	0.0205
831.5396	-0.0293
831.7065	-0.0082
831.8734	-0.0072
832.0402	-0.0323
832.2071	-0.0146
832.3739	-0.0321
832.5407	-0.0302
832.7075	-0.0009
832.8742	-0.0281
833.041	-0.054
833.2077	-0.0141
833.3744	-0.0044
833.541	-0.0383
833.7077	-0.0269
833.8743	-0.0207
834.0409	0.0353
834.2075	0.0299
834.3741	0.001
834.5407	-0.0022
834.7072	0.0431
834.8737	-0.0303
835.0402	-0.0043
835.2067	-0.0113
835.3731	-0.0016
835.5395	0.0101
835.706	-0.0136
835.8723	-0.0348
836.0387	0.0348
836.2051	0.0067
836.3714	-0.0197
836.5377	-0.0003
836.704	-0.0198
836.8703	-0.0344
837.0365	0.0012
837.2027	-0.0108
837.3689	0.0129
837.5351	-0.03
837.7013	-0.0393
837.8674	-0.0682
838.0335	-0.0204
838.1997	-0.0155
838.3657	-0.0753
838.5318	-0.0332
838.6978	0.0333
838.8639	0.0217
839.0299	-0.0484
839.1958	-0.0246
839.3618	0.0198
839.5277	-0.0122
839.6937	-0.0036
839.8596	-0.0603
840.0254	-0.011
840.1913	0.034
840.3571	0.0286
840.523	-0.059
840.6888	-0.0223
840.8545	0.0035
841.0203	-0.0217
841.186	-0.0012
841.3517	-0.0075
841.5174	-0.0315
841.6831	-0.0321
841.8488	-0.0084
842.0144	0.0079
842.18	0.0131
842.3456	-0.0115
842.5112	-0.0104
842.6767	-0.0101
842.8422	0.0181
843.0077	0.036
843.1732	-0.0351
843.3387	-0.016
843.5042	-0.021
843.6696	0.018
843.835	-0.0069
844.0004	0.0246
844.1657	0.0138
844.3311	-0.0232
844.4964	-0.0661
844.6617	-0.0547
844.827	-0.0498
844.9923	-0.0073
845.1575	0.0552
845.3227	0.0088
845.4879	0.0029
845.6531	-0.0111
845.8183	-0.0885
845.9834	0.0291
846.1485	-0.0227
846.3136	-0.0717
846.4787	-0.123
846.6438	0.0316
846.8088	-0.0632
846.9738	-0.0713
847.1388	-0.0034
847.3038	-0.0354
847.4687	-0.2059
847.6337	-0.0018
847.7986	-0.0097
847.9635	-0.0035
848.1284	0.029
848.2932	0.0805
848.458	-0.019
848.6228	0.0193
848.7876	0.0759
848.9524	-0.1241
849.1172	-0.0789
849.2819	-0.07
849.4466	-0.1068
849.6113	-0.1044
849.7759	-0.0372
849.9406	-0.0746
850.1052	-0.0205
850.2698	-0.0971
850.4344	-0.0795
850.599	-0.0699
850.7635	0.0247
850.928	-0.0271
851.0925	0.0089
851.257	-0.0095
851.4215	0.0226
851.5859	-0.0543
851.7503	0.0548
851.9147	-0.012
852.0791	-0.0127
852.2434	-0.0353
852.4078	0.0952
852.5721	0.1005
852.7364	-0.0188
852.9007	-0.224
853.0649	-0.0143
853.2291	-0.0035
853.3934	-0.0033
853.5575	0.0117
853.7217	-0.1492
853.8859	-0.1401
854.05	-0.0533
854.2141	0.0148
854.3782	-0.0259
854.5423	-0.1243
854.7063	0.1164
854.8703	-0.0039
855.0343	-0.0257
855.1983	-0.1424
855.3623	0.1238
855.5262	0.0512
855.6901	-0.0224
855.854	-0.0641
856.0179	0.0531
856.1818	0.1146
856.3456	-0.0463
856.5094	-0.1258
856.6732	-0.1711
856.837	-0.0496
857.0008	-0.0465
857.1645	-0.0471
857.3282	-0.0585
857.4919	0.1916
857.6556	-0.0255
857.8192	0.0398
857.9828	0.0372
858.1465	0.0062
858.31	-0.1755
858.4736	0.1727
858.6372	-0.0791
858.8007	-0.2187
858.9642	0.0073
859.1277	0.0738
859.2911	0.1013
859.4546	0.0045
859.618	-0.2791
859.7814	-0.1079
859.9448	-0.031
860.1081	0.2559
860.2715	0.1654
860.4348	-0.0217
860.5981	-0.1274
860.7614	0.0998
860.9246	-0.1513
861.0879	-0.1667
861.2511	0.0944
861.4143	-0.3229
861.5774	0.1101
861.7406	-0.2912
861.9037	-0.0844
862.0668	-0.0701
862.2299	-0.0101
862.393	-0.4838
862.556	0.1236
862.7191	-0.489
862.8821	-0.3206
863.0451	-0.0537
863.208	0.1752
863.371	0.0654
863.5339	-0.3404
863.6968	-0.0396
863.8597	-0.2148
864.0225	0.0156
864.1854	-0.0213
864.3482	-0.0606
864.511	0.2755
864.6737	-0.0578
864.8365	0.0522
864.9992	-0.5548
865.1619	-0.206
865.3246	-0.006
865.4873	-0.0485
865.65	0.0091
865.8126	0.0552
865.9752	0.2358
866.1378	-0.137
866.3004	0.6138
866.4629	0.1973
866.6254	-0.316
866.7879	-0.2236
866.9504	-0.3166
867.1129	-0
867.2753	0.6009
867.4377	-0.0018
867.6001	-0.4327
867.7625	0.0258
867.9249	-0.7273
868.0872	-0.0366
868.2495	0.3873
868.4118	-0.2711
868.5741	-0.3555
868.7363	-0.1435
868.8986	-0.2668
869.0608	-0.1169
869.223	0.332
869.3851	0.4211
869.5473	-0
869.7094	0.0866
869.8715	-0
870.0336	-0.4179
870.1957	-0.5678
870.3577	-0
870.5197	-0.1029
870.6817	-0.2827
870.8437	-0.0093
871.0057	-0
871.1676	-0.5441
871.3295	-0.3382
871.4914	-0.4434
871.6533	-0.3691
871.8151	-0.1255
871.977	-0
872.1388	-0
872.3006	-0
872.4623	-0
872.6241	0.6844
872.7858	-0
872.9475	-0.1381
873.1092	-0.2513
873.2709	-0.0712
873.4325	0.7992
873.5941	-0.1717
873.7557	-0
873.9173	0.0866
874.0789	-0
874.2404	-0.2085
874.4019	0.0853
874.5634	-0.2267
874.7249	-0.0217
874.8863	-0.152
875.0478	0.2794
875.2092	-0
875.3706	-0
875.5319	-0.9993
875.6933	-0
875.8546	0.2579
876.0159	0.4272
876.1772	-0
876.3385	-0.4306
876.4997	0.0036
876.6609	-0.3907
876.8221	-0
876.9833	0.1163
877.1445	1.5798
877.3056	-0.0255
877.4667	-0.0788
877.6278	-0
877.7889	-0.5767
877.9499	-0
878.111	-0
878.272	-0
878.433	-0
878.5939	1.1058
878.7549	0.1177
878.9158	-0.9057
879.0767	0.2594
879.2376	1.6838
879.3984	-0.1873
879.5593	-0
879.7201	0.4945
879.8809	-0.8096
880.0417	0.3624
880.2024	0.3265
880.3632	-0.5441
880.5239	0.2535
880.6846	-0
880.8452	-2.3294
881.0059	-1.3674
881.1665	-0.0414
881.3271	0.0616
881.4877	-0
881.6483	-0.4994
881.8088	-0.3952
881.9693	-0
882.1298	-0
882.2903	-0
