Data from MonoPyChalIsomerACN10uM420nmA_Absorbance_15-09-53-235.txt Node
Date: Fri Jul 05 15:09:53 BST 2024
User: LASERRRRR
Spectrometer: FLMT03099
Trigger mode: 0
Integration Time (sec): 1.000000E-1
Scans to average: 1
Electric dark correction enabled: true
Nonlinearity correction enabled: false
Boxcar width: 0
XAxis mode: Wavelengths
Number of Pixels in Spectrum: 3648
>>>>>Begin Spectral Data<<<<<
179.3399	0.1569
179.5586	0.1569
179.7771	0.1569
179.9957	0.4747
180.2143	-0.1221
180.4329	-0.1307
180.6514	-0
180.8699	1.1996
181.0885	0.6296
181.307	0.2025
181.5255	-0.3445
181.744	-0.0685
181.9625	-0
182.181	-0
182.3994	0.2768
182.6179	-0
182.8363	0.3252
183.0547	0.2096
183.2732	0.2279
183.4916	0.1227
183.71	0.2398
183.9284	0.1812
184.1467	-0.0645
184.3651	-0.0133
184.5835	0.0745
184.8018	-0.0527
185.0201	-0.0088
185.2385	0.006
185.4568	0.1652
185.6751	0.0435
185.8934	0.1603
186.1117	0.0006
186.3299	0.1124
186.5482	0.0381
186.7664	0.2438
186.9847	0.044
187.2029	0.2671
187.4211	0.1202
187.6393	0.0514
187.8575	-0.0278
188.0757	0.1723
188.2939	0.0456
188.512	-0.1355
188.7302	0.001
188.9483	0.3422
189.1665	0.0005
189.3846	0.4922
189.6027	0.3156
189.8208	0.0981
190.0389	0.0981
190.257	0.1871
190.475	0.2235
190.6931	0.2526
190.9111	0.4057
191.1292	0.2353
191.3472	0.4289
191.5652	0.1858
191.7832	0.2241
192.0012	0.4669
192.2192	0.3372
192.4371	0.5362
192.6551	0.4775
192.873	0.5016
193.091	0.5117
193.3089	0.5597
193.5268	0.7654
193.7447	0.4519
193.9626	0.4026
194.1805	0.5826
194.3984	0.8779
194.6162	0.5196
194.8341	0.5139
195.0519	0.4773
195.2697	0.7683
195.4875	0.73
195.7054	0.6398
195.9231	0.3651
196.1409	0.6202
196.3587	0.6309
196.5765	0.7893
196.7942	0.6863
197.012	0.462
197.2297	0.6234
197.4474	0.686
197.6651	0.5295
197.8828	0.5097
198.1005	0.5665
198.3182	0.6116
198.5358	0.7412
198.7535	0.4907
198.9711	0.6406
199.1888	0.7436
199.4064	0.5646
199.624	0.5495
199.8416	0.6317
200.0592	0.5504
200.2767	0.6651
200.4943	0.6952
200.7119	0.786
200.9294	0.8325
201.1469	0.574
201.3645	0.5427
201.582	0.5984
201.7995	0.6523
202.017	0.6626
202.2344	0.6533
202.4519	0.7737
202.6694	0.7303
202.8868	0.6259
203.1042	0.7407
203.3217	0.6345
203.5391	0.6077
203.7565	0.5559
203.9739	0.6306
204.1913	0.6182
204.4086	0.7021
204.626	0.6411
204.8433	0.7055
205.0607	0.6465
205.278	0.677
205.4953	0.6318
205.7126	0.609
205.9299	0.7787
206.1472	0.6722
206.3644	0.5379
206.5817	0.7054
206.7989	0.7637
207.0162	0.6936
207.2334	0.6886
207.4506	0.7269
207.6678	0.6511
207.885	0.6702
208.1022	0.6755
208.3194	0.6198
208.5365	0.6116
208.7537	0.619
208.9708	0.5923
209.1879	0.6484
209.405	0.6878
209.6222	0.7569
209.8392	0.6348
210.0563	0.5779
210.2734	0.6739
210.4905	0.6321
210.7075	0.6601
210.9245	0.6119
211.1416	0.6764
211.3586	0.7262
211.5756	0.5744
211.7926	0.6036
212.0096	0.6201
212.2265	0.5915
212.4435	0.5657
212.6604	0.6105
212.8774	0.5998
213.0943	0.5988
213.3112	0.5367
213.5281	0.5046
213.745	0.5027
213.9619	0.5274
214.1788	0.4837
214.3956	0.4633
214.6125	0.496
214.8293	0.4728
215.0461	0.4673
215.2629	0.4665
215.4798	0.475
215.6965	0.4625
215.9133	0.4568
216.1301	0.4267
216.3469	0.4078
216.5636	0.4174
216.7803	0.4003
216.9971	0.4313
217.2138	0.4158
217.4305	0.3823
217.6472	0.37
217.8639	0.3718
218.0805	0.334
218.2972	0.3166
218.5138	0.3351
218.7305	0.2998
218.9471	0.3193
219.1637	0.2967
219.3803	0.2904
219.5969	0.2858
219.8135	0.2379
220.0301	0.2831
220.2466	0.2776
220.4632	0.2587
220.6797	0.2371
220.8962	0.2534
221.1127	0.2646
221.3292	0.2451
221.5457	0.2385
221.7622	0.2413
221.9787	0.2428
222.1951	0.2439
222.4116	0.268
222.628	0.2512
222.8444	0.2607
223.0608	0.2462
223.2772	0.2431
223.4936	0.2576
223.71	0.2279
223.9264	0.2775
224.1427	0.2494
224.3591	0.2289
224.5754	0.2839
224.7917	0.2768
225.008	0.2751
225.2243	0.2528
225.4406	0.2827
225.6569	0.272
225.8732	0.2636
226.0894	0.2733
226.3057	0.2701
226.5219	0.3003
226.7381	0.2673
226.9543	0.2886
227.1705	0.2805
227.3867	0.2738
227.6029	0.3057
227.8191	0.3006
228.0352	0.2916
228.2513	0.3178
228.4675	0.3276
228.6836	0.2898
228.8997	0.3067
229.1158	0.3127
229.3319	0.3188
229.548	0.3035
229.764	0.3264
229.9801	0.3223
230.1961	0.3208
230.4121	0.325
230.6282	0.3345
230.8442	0.3301
231.0602	0.3361
231.2761	0.345
231.4921	0.336
231.7081	0.3634
231.924	0.3449
232.14	0.3606
232.3559	0.3525
232.5718	0.3453
232.7877	0.3672
233.0036	0.3521
233.2195	0.3581
233.4353	0.3663
233.6512	0.3515
233.867	0.3621
234.0829	0.3511
234.2987	0.3728
234.5145	0.3771
234.7303	0.3614
234.9461	0.4009
235.1619	0.381
235.3776	0.3799
235.5934	0.3687
235.8091	0.3647
236.0249	0.3747
236.2406	0.3921
236.4563	0.3938
236.672	0.3796
236.8877	0.3963
237.1034	0.4014
237.319	0.3805
237.5347	0.3958
237.7503	0.39
237.966	0.3944
238.1816	0.3967
238.3972	0.4083
238.6128	0.4093
238.8284	0.3981
239.0439	0.4159
239.2595	0.404
239.475	0.4379
239.6906	0.4153
239.9061	0.4187
240.1216	0.4057
240.3371	0.4229
240.5526	0.4113
240.7681	0.4248
240.9836	0.3997
241.199	0.4062
241.4145	0.4
241.6299	0.3995
241.8453	0.3995
242.0607	0.3759
242.2761	0.3586
242.4915	0.383
242.7069	0.3824
242.9223	0.3856
243.1376	0.3604
243.353	0.366
243.5683	0.3701
243.7836	0.3483
243.9989	0.3491
244.2142	0.3306
244.4295	0.3352
244.6448	0.3369
244.86	0.3164
245.0753	0.3102
245.2905	0.2892
245.5057	0.2839
245.721	0.2845
245.9362	0.279
246.1514	0.295
246.3665	0.2583
246.5817	0.2687
246.7969	0.267
247.012	0.2526
247.2271	0.2448
247.4423	0.2707
247.6574	0.2529
247.8725	0.2512
248.0876	0.2357
248.3026	0.2413
248.5177	0.2271
248.7328	0.2231
248.9478	0.2276
249.1628	0.2209
249.3779	0.2266
249.5929	0.2248
249.8079	0.2304
250.0228	0.217
250.2378	0.2117
250.4528	0.2089
250.6677	0.1943
250.8827	0.2084
251.0976	0.1927
251.3125	0.2024
251.5274	0.192
251.7423	0.1803
251.9572	0.205
252.172	0.1906
252.3869	0.202
252.6017	0.1932
252.8166	0.1737
253.0314	0.1722
253.2462	0.1842
253.461	0.1881
253.6758	0.1816
253.8906	0.1864
254.1053	0.1779
254.3201	0.1747
254.5348	0.1751
254.7496	0.1895
254.9643	0.1645
255.179	0.1831
255.3937	0.1746
255.6083	0.1737
255.823	0.1643
256.0377	0.1725
256.2523	0.1766
256.467	0.1682
256.6816	0.1751
256.8962	0.1657
257.1108	0.1589
257.3254	0.1854
257.54	0.1716
257.7545	0.1702
257.9691	0.1813
258.1836	0.1599
258.3981	0.1678
258.6127	0.186
258.8272	0.1743
259.0417	0.1661
259.2561	0.1718
259.4706	0.1671
259.6851	0.1785
259.8995	0.169
260.114	0.1582
260.3284	0.1842
260.5428	0.1783
260.7572	0.1868
260.9716	0.1866
261.186	0.1655
261.4003	0.1659
261.6147	0.1704
261.829	0.1631
262.0433	0.1813
262.2577	0.1612
262.472	0.1732
262.6863	0.1627
262.9005	0.178
263.1148	0.1672
263.3291	0.1589
263.5433	0.1631
263.7576	0.1635
263.9718	0.178
264.186	0.1722
264.4002	0.1677
264.6144	0.1645
264.8286	0.1814
265.0427	0.1597
265.2569	0.1707
265.471	0.1725
265.6851	0.1735
265.8993	0.1827
266.1134	0.1589
266.3275	0.1614
266.5415	0.1722
266.7556	0.1735
266.9697	0.1666
267.1837	0.1815
267.3978	0.1656
267.6118	0.1813
267.8258	0.188
268.0398	0.1565
268.2538	0.1731
268.4677	0.1596
268.6817	0.1567
268.8957	0.1775
269.1096	0.1705
269.3235	0.1784
269.5374	0.1642
269.7514	0.153
269.9652	0.1579
270.1791	0.1681
270.393	0.1587
270.6068	0.1574
270.8207	0.1503
271.0345	0.1522
271.2483	0.1665
271.4622	0.1697
271.676	0.1738
271.8897	0.154
272.1035	0.1521
272.3173	0.1558
272.531	0.1534
272.7448	0.1495
272.9585	0.1524
273.1722	0.1711
273.3859	0.1626
273.5996	0.1462
273.8133	0.1583
274.0269	0.1712
274.2406	0.1595
274.4542	0.1682
274.6679	0.1512
274.8815	0.1628
275.0951	0.163
275.3087	0.1722
275.5223	0.1622
275.7358	0.1641
275.9494	0.1616
276.1629	0.148
276.3765	0.1655
276.59	0.1615
276.8035	0.1629
277.017	0.1599
277.2305	0.1583
277.444	0.1696
277.6574	0.1574
277.8709	0.1617
278.0843	0.1591
278.2978	0.1565
278.5112	0.1549
278.7246	0.1573
278.938	0.1555
279.1513	0.1634
279.3647	0.1743
279.5781	0.1611
279.7914	0.159
280.0047	0.1618
280.2181	0.1562
280.4314	0.1646
280.6447	0.1628
280.8579	0.165
281.0712	0.1727
281.2845	0.1823
281.4977	0.1711
281.711	0.1578
281.9242	0.1637
282.1374	0.1553
282.3506	0.1596
282.5638	0.1745
282.7769	0.1719
282.9901	0.1657
283.2033	0.1668
283.4164	0.1637
283.6295	0.1631
283.8426	0.1624
284.0557	0.1617
284.2688	0.1673
284.4819	0.1611
284.695	0.1757
284.908	0.1753
285.1211	0.1603
285.3341	0.1701
285.5471	0.1806
285.7601	0.1648
285.9731	0.1686
286.1861	0.1562
286.3991	0.1844
286.612	0.1637
286.825	0.169
287.0379	0.1744
287.2508	0.1565
287.4637	0.178
287.6766	0.1588
287.8895	0.1657
288.1024	0.1781
288.3152	0.1648
288.5281	0.1648
288.7409	0.1686
288.9538	0.1599
289.1666	0.1594
289.3794	0.1688
289.5922	0.1653
289.8049	0.1749
290.0177	0.163
290.2304	0.1619
290.4432	0.1587
290.6559	0.1696
290.8686	0.1577
291.0813	0.1565
291.294	0.1744
291.5067	0.1675
291.7194	0.1619
291.932	0.1743
292.1447	0.1586
292.3573	0.1469
292.5699	0.169
292.7825	0.1628
292.9951	0.1564
293.2077	0.1566
293.4203	0.1688
293.6328	0.1499
293.8454	0.1663
294.0579	0.1613
294.2704	0.1491
294.4829	0.1596
294.6954	0.1587
294.9079	0.1533
295.1204	0.1616
295.3328	0.151
295.5453	0.1561
295.7577	0.1476
295.9701	0.1541
296.1825	0.1642
296.3949	0.1493
296.6073	0.1555
296.8197	0.1501
297.0321	0.159
297.2444	0.1472
297.4567	0.1566
297.6691	0.1522
297.8814	0.1447
298.0937	0.1572
298.306	0.1643
298.5182	0.1634
298.7305	0.1648
298.9428	0.1506
299.155	0.1649
299.3672	0.1566
299.5794	0.146
299.7916	0.1482
300.0038	0.1605
300.216	0.1716
300.4282	0.1754
300.6403	0.149
300.8525	0.157
301.0646	0.1541
301.2767	0.1569
301.4888	0.1472
301.7009	0.1652
301.913	0.157
302.125	0.1577
302.3371	0.149
302.5491	0.1539
302.7612	0.1669
302.9732	0.1529
303.1852	0.1569
303.3972	0.1571
303.6092	0.1461
303.8211	0.1407
304.0331	0.159
304.245	0.1562
304.457	0.1471
304.6689	0.1459
304.8808	0.1645
305.0927	0.1566
305.3046	0.1442
305.5164	0.1582
305.7283	0.1418
305.9401	0.1533
306.152	0.1458
306.3638	0.1377
306.5756	0.1468
306.7874	0.1486
306.9992	0.1464
307.2109	0.1361
307.4227	0.1314
307.6344	0.1291
307.8462	0.1233
308.0579	0.139
308.2696	0.1406
308.4813	0.1378
308.693	0.1314
308.9046	0.1316
309.1163	0.1211
309.328	0.1291
309.5396	0.1328
309.7512	0.1284
309.9628	0.1216
310.1744	0.1255
310.386	0.1229
310.5976	0.114
310.8091	0.1217
311.0207	0.1184
311.2322	0.1234
311.4437	0.1135
311.6552	0.1105
311.8667	0.1205
312.0782	0.1001
312.2897	0.1067
312.5012	0.113
312.7126	0.0982
312.924	0.1089
313.1355	0.1172
313.3469	0.1107
313.5583	0.1131
313.7696	0.1011
313.981	0.1176
314.1924	0.1031
314.4037	0.1101
314.6151	0.1132
314.8264	0.1052
315.0377	0.1048
315.249	0.1234
315.4603	0.1106
315.6716	0.1049
315.8828	0.1074
316.0941	0.1058
316.3053	0.1044
316.5165	0.1013
316.7277	0.0969
316.9389	0.1176
317.1501	0.1026
317.3613	0.1031
317.5724	0.0963
317.7836	0.1046
317.9947	0.1018
318.2058	0.0991
318.417	0.0971
318.6281	0.1005
318.8391	0.1103
319.0502	0.1013
319.2613	0.117
319.4723	0.1127
319.6834	0.1061
319.8944	0.1042
320.1054	0.0984
320.3164	0.1088
320.5274	0.1012
320.7383	0.1087
320.9493	0.1106
321.1602	0.1109
321.3712	0.1033
321.5821	0.1134
321.793	0.1022
322.0039	0.1049
322.2148	0.1079
322.4257	0.1091
322.6365	0.1234
322.8474	0.1164
323.0582	0.1064
323.269	0.1161
323.4798	0.1169
323.6906	0.107
323.9014	0.1162
324.1122	0.1221
324.3229	0.1023
324.5337	0.0998
324.7444	0.1006
324.9551	0.1364
325.1658	0.1186
325.3765	0.1141
325.5872	0.1072
325.7979	0.1024
326.0085	0.1071
326.2192	0.1085
326.4298	0.105
326.6404	0.1035
326.851	0.1046
327.0616	0.0981
327.2722	0.1128
327.4828	0.12
327.6933	0.1168
327.9039	0.1142
328.1144	0.1186
328.3249	0.1176
328.5354	0.1183
328.7459	0.1158
328.9564	0.1091
329.1669	0.1078
329.3773	0.1094
329.5878	0.1068
329.7982	0.1187
330.0086	0.1069
330.219	0.1197
330.4294	0.1159
330.6398	0.114
330.8502	0.1074
331.0605	0.1193
331.2708	0.1167
331.4812	0.1235
331.6915	0.12
331.9018	0.1186
332.1121	0.1128
332.3224	0.1283
332.5326	0.1219
332.7429	0.1222
332.9531	0.1268
333.1633	0.1137
333.3735	0.1199
333.5837	0.1193
333.7939	0.1156
334.0041	0.122
334.2143	0.1264
334.4244	0.1219
334.6346	0.1141
334.8447	0.1325
335.0548	0.1152
335.2649	0.1122
335.475	0.1249
335.685	0.1191
335.8951	0.1324
336.1051	0.1167
336.3152	0.1294
336.5252	0.1228
336.7352	0.1185
336.9452	0.1287
337.1552	0.1286
337.3652	0.1019
337.5751	0.1161
337.7851	0.1245
337.995	0.1173
338.2049	0.1225
338.4148	0.1104
338.6247	0.128
338.8346	0.121
339.0445	0.1287
339.2543	0.1153
339.4642	0.1261
339.674	0.1223
339.8838	0.1188
340.0936	0.1287
340.3034	0.1425
340.5132	0.127
340.7229	0.1168
340.9327	0.1303
341.1424	0.1279
341.3522	0.1426
341.5619	0.1528
341.7716	0.1319
341.9813	0.1344
342.1909	0.1373
342.4006	0.1322
342.6102	0.1375
342.8199	0.1324
343.0295	0.1204
343.2391	0.1352
343.4487	0.1312
343.6583	0.132
343.8679	0.1292
344.0774	0.1381
344.287	0.1445
344.4965	0.1308
344.706	0.1296
344.9155	0.1149
345.125	0.1312
345.3345	0.1404
345.544	0.1215
345.7534	0.1326
345.9629	0.1402
346.1723	0.1373
346.3817	0.1301
346.5911	0.1414
346.8005	0.1453
347.0099	0.1329
347.2193	0.1341
347.4286	0.1499
347.638	0.1424
347.8473	0.1419
348.0566	0.152
348.2659	0.1452
348.4752	0.137
348.6845	0.1405
348.8937	0.1383
349.103	0.1423
349.3122	0.1378
349.5214	0.1356
349.7306	0.1516
349.9398	0.1438
350.149	0.1442
350.3582	0.1423
350.5674	0.1619
350.7765	0.1419
350.9856	0.1397
351.1948	0.1476
351.4039	0.1284
351.613	0.1351
351.822	0.1487
352.0311	0.139
352.2402	0.1527
352.4492	0.1572
352.6582	0.1585
352.8672	0.1425
353.0762	0.1553
353.2852	0.1457
353.4942	0.151
353.7032	0.1529
353.9121	0.1545
354.1211	0.1805
354.33	0.1628
354.5389	0.1603
354.7478	0.1492
354.9567	0.1598
355.1655	0.1455
355.3744	0.1622
355.5833	0.1592
355.7921	0.1822
356.0009	0.1667
356.2097	0.1898
356.4185	0.1702
356.6273	0.1783
356.8361	0.1614
357.0448	0.1578
357.2536	0.1558
357.4623	0.1599
357.671	0.1698
357.8797	0.1681
358.0884	0.1678
358.2971	0.171
358.5057	0.1614
358.7144	0.1686
358.923	0.1588
359.1316	0.1609
359.3402	0.172
359.5488	0.1707
359.7574	0.1709
359.966	0.1799
360.1746	0.1866
360.3831	0.178
360.5916	0.1721
360.8002	0.1701
361.0087	0.1762
361.2172	0.181
361.4256	0.19
361.6341	0.1823
361.8426	0.173
362.051	0.1895
362.2594	0.1637
362.4678	0.18
362.6762	0.1971
362.8846	0.182
363.093	0.1806
363.3014	0.1867
363.5097	0.169
363.718	0.1746
363.9264	0.1834
364.1347	0.169
364.343	0.1853
364.5513	0.2027
364.7595	0.1992
364.9678	0.1797
365.176	0.1979
365.3842	0.1951
365.5925	0.2004
365.8007	0.2041
366.0089	0.197
366.217	0.182
366.4252	0.1955
366.6333	0.194
366.8415	0.1979
367.0496	0.1823
367.2577	0.2137
367.4658	0.2084
367.6739	0.2073
367.882	0.2105
368.09	0.1883
368.2981	0.2088
368.5061	0.1923
368.7141	0.2032
368.9221	0.1926
369.1301	0.1972
369.3381	0.191
369.5461	0.2057
369.754	0.2099
369.962	0.2018
370.1699	0.2093
370.3778	0.2174
370.5857	0.1864
370.7936	0.2024
371.0015	0.1979
371.2093	0.2162
371.4172	0.1992
371.625	0.1835
371.8328	0.205
372.0406	0.2047
372.2484	0.2121
372.4562	0.2056
372.664	0.2006
372.8717	0.212
373.0795	0.1898
373.2872	0.214
373.4949	0.202
373.7026	0.2178
373.9103	0.2003
374.118	0.2189
374.3256	0.2076
374.5333	0.2094
374.7409	0.2009
374.9485	0.2205
375.1561	0.231
375.3637	0.2005
375.5713	0.213
375.7789	0.217
375.9864	0.2063
376.194	0.1993
376.4015	0.2256
376.609	0.2349
376.8165	0.2284
377.024	0.2146
377.2315	0.1886
377.4389	0.2254
377.6464	0.239
377.8538	0.2276
378.0612	0.2266
378.2686	0.2341
378.476	0.2469
378.6834	0.2169
378.8908	0.2329
379.0981	0.2245
379.3055	0.2079
379.5128	0.2162
379.7201	0.2199
379.9274	0.2098
380.1347	0.2194
380.342	0.247
380.5492	0.2267
380.7565	0.2147
380.9637	0.2134
381.1709	0.2295
381.3781	0.2273
381.5853	0.2264
381.7925	0.2319
381.9997	0.2335
382.2068	0.2417
382.4139	0.2169
382.6211	0.2179
382.8282	0.2177
383.0353	0.2211
383.2424	0.2172
383.4494	0.239
383.6565	0.2462
383.8635	0.2302
384.0706	0.237
384.2776	0.2368
384.4846	0.2277
384.6916	0.231
384.8986	0.2271
385.1055	0.2488
385.3125	0.2246
385.5194	0.2185
385.7263	0.2418
385.9333	0.2308
386.1402	0.2271
386.347	0.2231
386.5539	0.2142
386.7608	0.2231
386.9676	0.2065
387.1744	0.219
387.3813	0.2107
387.5881	0.2314
387.7948	0.2235
388.0016	0.2344
388.2084	0.2174
388.4151	0.2108
388.6219	0.2329
388.8286	0.2154
389.0353	0.237
389.242	0.2203
389.4487	0.2217
389.6553	0.2124
389.862	0.2118
390.0686	0.2107
390.2753	0.2234
390.4819	0.2282
390.6885	0.2119
390.8951	0.2325
391.1016	0.2059
391.3082	0.2112
391.5147	0.2017
391.7213	0.2033
391.9278	0.193
392.1343	0.2042
392.3408	0.2044
392.5473	0.2076
392.7537	0.1948
392.9602	0.1972
393.1666	0.1921
393.373	0.1985
393.5794	0.2123
393.7858	0.2069
393.9922	0.1837
394.1986	0.2261
394.4049	0.2121
394.6113	0.1881
394.8176	0.1851
395.0239	0.1888
395.2302	0.1831
395.4365	0.1871
395.6428	0.1884
395.8491	0.202
396.0553	0.1885
396.2615	0.1899
396.4678	0.1879
396.674	0.1691
396.8802	0.1965
397.0863	0.1951
397.2925	0.1871
397.4987	0.1704
397.7048	0.1908
397.9109	0.1943
398.117	0.1819
398.3231	0.1948
398.5292	0.2004
398.7353	0.1915
398.9413	0.1707
399.1474	0.1949
399.3534	0.1819
399.5594	0.1725
399.7654	0.1807
399.9714	0.2036
400.1774	0.1786
400.3833	0.1748
400.5893	0.1871
400.7952	0.191
401.0011	0.1877
401.207	0.1854
401.4129	0.1827
401.6188	0.1792
401.8247	0.1963
402.0305	0.1784
402.2364	0.1727
402.4422	0.1851
402.648	0.2056
402.8538	0.2048
403.0596	0.1854
403.2654	0.183
403.4711	0.1761
403.6768	0.1826
403.8826	0.1942
404.0883	0.1765
404.294	0.1824
404.4997	0.1933
404.7054	0.1847
404.911	0.1695
405.1167	0.1878
405.3223	0.1894
405.5279	0.1931
405.7335	0.1837
405.9391	0.1986
406.1447	0.1926
406.3502	0.1998
406.5558	0.1858
406.7613	0.1808
406.9668	0.2163
407.1724	0.1997
407.3778	0.1761
407.5833	0.1816
407.7888	0.1777
407.9942	0.2146
408.1997	0.1754
408.4051	0.1791
408.6105	0.1884
408.8159	0.1682
409.0213	0.1808
409.2267	0.1909
409.432	0.1869
409.6374	0.1809
409.8427	0.1762
410.048	0.1776
410.2533	0.1837
410.4586	0.1689
410.6639	0.1658
410.8691	0.1729
411.0744	0.1943
411.2796	0.1658
411.4848	0.1767
411.69	0.1713
411.8952	0.1864
412.1004	0.1645
412.3056	0.1775
412.5107	0.1785
412.7158	0.1934
412.921	0.1738
413.1261	0.1708
413.3312	0.169
413.5362	0.1779
413.7413	0.1765
413.9464	0.1691
414.1514	0.1796
414.3564	0.1836
414.5614	0.1594
414.7664	0.1881
414.9714	0.1699
415.1764	0.1841
415.3813	0.1972
415.5863	0.166
415.7912	0.1786
415.9961	0.1836
416.201	0.174
416.4059	0.1731
416.6108	0.1479
416.8156	0.1704
417.0205	0.1637
417.2253	0.1549
417.4301	0.1629
417.6349	0.1563
417.8397	0.1559
418.0445	0.1724
418.2492	0.1613
418.454	0.1783
418.6587	0.1484
418.8634	0.1748
419.0681	0.1577
419.2728	0.1699
419.4775	0.1793
419.6822	0.1612
419.8868	0.1357
420.0915	0.1666
420.2961	0.1568
420.5007	0.1397
420.7053	0.1636
420.9099	0.1686
421.1144	0.1822
421.319	0.1648
421.5235	0.1552
421.728	0.1617
421.9325	0.1594
422.137	0.167
422.3415	0.1536
422.546	0.163
422.7504	0.1544
422.9549	0.1679
423.1593	0.156
423.3637	0.1722
423.5681	0.1684
423.7725	0.1557
423.9769	0.1448
424.1812	0.1424
424.3856	0.1566
424.5899	0.1518
424.7942	0.1407
424.9985	0.1551
425.2028	0.1412
425.4071	0.16
425.6113	0.1283
425.8156	0.1513
426.0198	0.1536
426.224	0.1288
426.4282	0.1418
426.6324	0.1343
426.8366	0.1398
427.0407	0.1399
427.2449	0.1353
427.449	0.1458
427.6531	0.1269
427.8572	0.1245
428.0613	0.1179
428.2654	0.1343
428.4694	0.1225
428.6735	0.1366
428.8775	0.1447
429.0815	0.1362
429.2855	0.1275
429.4895	0.1346
429.6935	0.1338
429.8975	0.1261
430.1014	0.1256
430.3053	0.1212
430.5093	0.1186
430.7132	0.1039
430.9171	0.1348
431.1209	0.129
431.3248	0.1286
431.5286	0.116
431.7325	0.1264
431.9363	0.1111
432.1401	0.1225
432.3439	0.0963
432.5477	0.0978
432.7514	0.0889
432.9552	0.0947
433.1589	0.0857
433.3627	0.1018
433.5664	0.0916
433.7701	0.1008
433.9737	0.0921
434.1774	0.1025
434.3811	0.1006
434.5847	0.1021
434.7883	0.1059
434.9919	0.1002
435.1955	0.0939
435.3991	0.0813
435.6027	0.0893
435.8062	0.0889
436.0098	0.0881
436.2133	0.0776
436.4168	0.0724
436.6203	0.0653
436.8238	0.0798
437.0272	0.0877
437.2307	0.077
437.4341	0.0836
437.6375	0.1005
437.841	0.0755
438.0443	0.0807
438.2477	0.0708
438.4511	0.0612
438.6545	0.0783
438.8578	0.0749
439.0611	0.0678
439.2644	0.0847
439.4677	0.0631
439.671	0.068
439.8743	0.0674
440.0775	0.0779
440.2808	0.0579
440.484	0.0551
440.6872	0.0446
440.8904	0.0579
441.0936	0.0817
441.2967	0.0638
441.4999	0.063
441.703	0.0584
441.9062	0.0555
442.1093	0.0645
442.3124	0.0676
442.5155	0.0526
442.7185	0.0583
442.9216	0.02
443.1246	0.055
443.3276	0.0424
443.5307	0.0562
443.7337	0.0506
443.9366	0.044
444.1396	0.0528
444.3426	0.0396
444.5455	0.0416
444.7484	0.0433
444.9513	0.0343
445.1542	0.0385
445.3571	0.0319
445.56	0.0352
445.7628	0.0344
445.9657	0.0276
446.1685	0.0456
446.3713	0.0353
446.5741	0.0371
446.7769	0.0192
446.9797	0.044
447.1824	0.0341
447.3852	0.0255
447.5879	0.0488
447.7906	0.0507
447.9933	0.0354
448.196	0.0272
448.3986	0.0313
448.6013	0.0311
448.8039	0.0234
449.0066	0.0322
449.2092	0.0257
449.4118	0.0214
449.6143	0.0229
449.8169	0.0319
450.0195	0.0271
450.222	0.012
450.4245	0.0274
450.627	0.0181
450.8295	0.0189
451.032	0.0318
451.2345	0.0151
451.4369	0.019
451.6394	0.0213
451.8418	0.0073
452.0442	0.0254
452.2466	0.0284
452.449	0.0153
452.6513	0.0248
452.8537	0.0278
453.056	0.006
453.2583	0.0083
453.4607	0.013
453.663	0.0067
453.8652	0.0352
454.0675	-0.0019
454.2697	0.0326
454.472	0.0113
454.6742	0.02
454.8764	0.0068
455.0786	0.0207
455.2808	0.0096
455.4829	0.0041
455.6851	0.0117
455.8872	0.0229
456.0893	0.0134
456.2915	-0.0058
456.4935	0.0178
456.6956	-0.0037
456.8977	0.0095
457.0997	0.0106
457.3018	0.0024
457.5038	0.0096
457.7058	0.0173
457.9078	-0.0072
458.1098	0.0045
458.3117	0.014
458.5137	0.0063
458.7156	0.0146
458.9175	-0.0107
459.1194	0.0025
459.3213	-0.0001
459.5232	0.0028
459.725	-0.0104
459.9269	-0.0169
460.1287	-0.0036
460.3305	0.0078
460.5323	-0.0066
460.7341	0.0027
460.9359	0.0085
461.1376	0.0079
461.3394	-0.0029
461.5411	-0.0018
461.7428	0.0039
461.9445	0.0111
462.1462	0.0055
462.3479	0.005
462.5495	0.0097
462.7512	0.0098
462.9528	-0.0121
463.1544	-0.0083
463.356	-0.0066
463.5576	-0.0008
463.7592	-0.0153
463.9607	0.0054
464.1623	0.0141
464.3638	0.0155
464.5653	-0.0213
464.7668	0.0035
464.9683	0.0081
465.1697	0.0167
465.3712	-0.0186
465.5726	-0.0201
465.7741	-0.0091
465.9755	-0.0058
466.1769	0.0038
466.3782	-0.0023
466.5796	-0.0048
466.7809	0.0069
466.9823	-0.0012
467.1836	-0.0024
467.3849	0.0007
467.5862	0.0109
467.7875	0.0008
467.9887	0.0101
468.19	-0.0108
468.3912	-0.0081
468.5924	-0.0056
468.7936	-0.0066
468.9948	-0.0131
469.196	0.0048
469.3972	-0.0164
469.5983	0
469.7994	-0.0239
470.0006	-0.0069
470.2017	-0.019
470.4027	-0.0139
470.6038	0.008
470.8049	-0.0088
471.0059	-0.0141
471.2069	-0.0107
471.408	-0.0001
471.6089	0.0008
471.8099	-0.0042
472.0109	0.0057
472.2119	-0.0131
472.4128	-0.0113
472.6137	-0.0063
472.8146	-0.022
473.0155	-0.0206
473.2164	-0.009
473.4173	0.0014
473.6181	0.0077
473.819	-0.0007
474.0198	-0.0071
474.2206	-0.005
474.4214	-0.0093
474.6222	0.0134
474.8229	-0.0055
475.0237	-0.0182
475.2244	-0.0171
475.4251	-0.0122
475.6258	-0.0021
475.8265	-0.005
476.0272	0.0067
476.2278	-0.0029
476.4285	-0.0068
476.6291	-0.0048
476.8297	-0.0114
477.0303	-0.0167
477.2309	-0.0086
477.4315	-0.0167
477.632	-0.0104
477.8326	-0.0124
478.0331	0.0033
478.2336	-0.0023
478.4341	-0.014
478.6346	-0.0131
478.8351	0.0007
479.0355	0.0043
479.236	-0.007
479.4364	-0.0027
479.6368	0
479.8372	-0.0144
480.0376	-0.0189
480.2379	-0.0185
480.4383	-0.0114
480.6386	0.0028
480.8389	-0.0115
481.0392	-0.0119
481.2395	-0.0074
481.4398	0.0013
481.6401	-0.0003
481.8403	0.0012
482.0405	0.0006
482.2408	-0.0122
482.441	0.002
482.6411	0.0032
482.8413	-0.0141
483.0415	-0.0096
483.2416	-0.0076
483.4417	-0.0034
483.6419	0.004
483.8419	-0.0174
484.042	-0.002
484.2421	0.0031
484.4422	-0.0006
484.6422	-0.0049
484.8422	-0.0152
485.0422	-0.016
485.2422	-0.0022
485.4422	-0.0106
485.6422	-0.0009
485.8421	-0.0023
486.042	0.0015
486.242	-0.004
486.4419	-0.0104
486.6417	-0.0118
486.8416	-0.0062
487.0415	-0.006
487.2413	-0.0006
487.4411	-0.0059
487.641	-0.014
487.8408	0.003
488.0405	-0.0122
488.2403	-0.0021
488.4401	0.0038
488.6398	-0.0011
488.8395	-0.006
489.0392	-0.0009
489.2389	-0.0104
489.4386	-0.0062
489.6383	-0.0102
489.8379	-0.0053
490.0376	-0.0112
490.2372	-0.009
490.4368	-0.0111
490.6364	0.0001
490.836	-0.0107
491.0355	-0.0238
491.2351	-0.0125
491.4346	-0.0094
491.6341	-0.0228
491.8336	-0.0101
492.0331	-0.0144
492.2326	-0.0091
492.432	-0.0072
492.6315	-0.0154
492.8309	-0.0183
493.0303	-0.0086
493.2297	-0.0121
493.4291	0.0053
493.6284	-0.0094
493.8278	-0.0072
494.0271	-0.0011
494.2264	-0.0002
494.4257	-0.0119
494.625	-0.0061
494.8243	-0.0122
495.0236	-0.011
495.2228	-0.0097
495.422	0.001
495.6213	-0.0072
495.8205	-0.0044
496.0196	-0.015
496.2188	-0.0129
496.418	-0.0159
496.6171	-0.0145
496.8162	-0.0141
497.0153	-0.0075
497.2144	-0.013
497.4135	-0.0074
497.6126	-0.014
497.8116	-0.0148
498.0107	-0.0083
498.2097	-0.0092
498.4087	-0.0148
498.6077	-0.0018
498.8067	-0.009
499.0056	-0.0058
499.2046	-0.0154
499.4035	-0.0196
499.6024	-0.0085
499.8013	-0.0022
500.0002	-0.0146
500.199	-0.0066
500.3979	-0.0096
500.5967	-0.0226
500.7956	-0.0016
500.9944	-0.0133
501.1932	-0.0163
501.3919	-0.0087
501.5907	-0.0225
501.7895	-0.0065
501.9882	-0.0101
502.1869	-0.01
502.3856	-0.0124
502.5843	-0.0065
502.783	-0.0102
502.9816	-0.0284
503.1803	-0.0189
503.3789	-0.0127
503.5775	-0.0019
503.7761	-0.0111
503.9747	-0.01
504.1732	-0.0069
504.3718	0.0001
504.5703	-0.0036
504.7689	-0.0106
504.9674	-0.0041
505.1658	-0.0181
505.3643	-0.0079
505.5628	-0.004
505.7612	-0.0026
505.9597	0.0009
506.1581	-0.0086
506.3565	0.0118
506.5549	-0.0115
506.7532	-0.0179
506.9516	-0.0137
507.1499	-0.0004
507.3482	-0.0215
507.5465	-0.0113
507.7448	-0.0094
507.9431	-0.015
508.1414	0.0015
508.3396	-0.0169
508.5379	-0.0161
508.7361	-0.0099
508.9343	-0.003
509.1325	-0.0029
509.3306	-0.007
509.5288	-0.01
509.7269	-0.0197
509.9251	-0.0069
510.1232	-0.0086
510.3213	-0.0088
510.5193	0.002
510.7174	-0.014
510.9154	-0.0104
511.1135	-0.0104
511.3115	-0.0084
511.5095	-0.0128
511.7075	-0.0128
511.9055	-0.0152
512.1034	-0.0151
512.3014	-0.0064
512.4993	-0.0048
512.6972	-0.0207
512.8951	-0.0193
513.093	-0.0108
513.2908	-0.0058
513.4887	-0.0062
513.6865	-0.0184
513.8844	-0.0093
514.0822	-0.008
514.2799	-0.0212
514.4777	-0.017
514.6755	-0.0097
514.8732	-0.0045
515.0709	-0.0046
515.2687	-0.0034
515.4664	-0.0073
515.664	-0.0115
515.8617	-0.0151
516.0594	-0.0228
516.257	-0.0153
516.4546	-0.014
516.6522	-0.0083
516.8498	-0.0042
517.0474	-0.0018
517.2449	-0.0091
517.4425	-0.0187
517.64	0.0002
517.8375	-0.0081
518.035	-0.0038
518.2325	-0.0115
518.43	-0.0134
518.6274	-0.0093
518.8249	-0.0164
519.0223	-0.0012
519.2197	-0.0014
519.4171	-0.0145
519.6145	-0.0137
519.8118	-0.0042
520.0092	-0.0049
520.2065	-0.0122
520.4038	-0.0121
520.6011	-0.0071
520.7984	-0.015
520.9956	-0.0078
521.1929	-0.002
521.3901	-0.0008
521.5874	-0.011
521.7846	-0.0114
521.9818	-0.0188
522.1789	-0.0144
522.3761	-0.0044
522.5732	-0.012
522.7704	-0.0104
522.9675	-0.0021
523.1646	-0.0121
523.3617	-0.0009
523.5587	-0.0016
523.7558	-0.0087
523.9528	-0.0098
524.1498	0.0008
524.3468	-0.0142
524.5438	-0.0145
524.7408	-0.0065
524.9378	-0.0012
525.1347	-0.0004
525.3316	-0.0049
525.5285	-0.0094
525.7254	-0.0077
525.9223	-0.005
526.1192	-0.0122
526.316	-0.0155
526.5129	0.0018
526.7097	-0.0058
526.9065	0.002
527.1033	-0.0147
527.3	-0.0069
527.4968	-0.0076
527.6935	0.0065
527.8903	-0.0204
528.087	-0.0013
528.2837	-0.0058
528.4804	-0.0059
528.677	-0.0023
528.8737	0.0033
529.0703	0.0007
529.2669	-0.0077
529.4635	-0.0075
529.6601	-0.0023
529.8567	-0.0064
530.0532	-0.0091
530.2498	-0.0072
530.4463	-0.0003
530.6428	-0.0096
530.8393	0.0095
531.0358	-0.0087
531.2322	0.0051
531.4287	-0.0062
531.6251	-0.0091
531.8215	0.0129
532.0179	-0.001
532.2143	0.0002
532.4107	-0.0025
532.607	-0.0064
532.8034	-0.0008
532.9997	-0.009
533.196	-0.0082
533.3923	-0.0188
533.5886	-0.0074
533.7848	-0.0018
533.9811	0.0034
534.1773	-0.0041
534.3735	0.0023
534.5697	-0.0047
534.7659	-0.0054
534.9621	-0.0062
535.1582	-0.006
535.3544	-0.0126
535.5505	-0.0162
535.7466	-0.0133
535.9427	-0.0102
536.1387	-0.0013
536.3348	-0.0093
536.5308	0.0055
536.7269	-0.009
536.9229	-0.0066
537.1189	-0.0068
537.3148	-0.001
537.5108	-0.0124
537.7068	-0.0105
537.9027	0.0019
538.0986	-0.0033
538.2945	-0.0138
538.4904	-0.0022
538.6863	-0.007
538.8821	-0.0164
539.078	-0.0106
539.2738	-0.0049
539.4696	-0.0102
539.6654	-0.0037
539.8611	0.003
540.0569	-0.0033
540.2526	0.001
540.4484	-0.0045
540.6441	0.0017
540.8398	-0.0061
541.0355	-0.0006
541.2311	-0.0092
541.4268	-0.0087
541.6224	-0.0079
541.818	-0.005
542.0136	-0.0001
542.2092	0.0052
542.4048	-0.0073
542.6003	0.0047
542.7959	-0.0083
542.9914	-0.0038
543.1869	0.0022
543.3824	0.0038
543.5779	-0.0024
543.7734	-0.0048
543.9688	-0.0021
544.1642	-0.0098
544.3596	0.0023
544.555	-0.0095
544.7504	0.0002
544.9458	0.0002
545.1411	0.0041
545.3365	-0.0052
545.5318	0.0008
545.7271	-0.0042
545.9224	-0.0152
546.1177	-0.0025
546.3129	-0.0046
546.5081	-0.0091
546.7034	-0.0072
546.8986	-0.0078
547.0938	-0.0043
547.289	0.0009
547.4841	0.0035
547.6793	0.0089
547.8744	-0.0043
548.0695	-0.0049
548.2646	-0.0109
548.4597	0.011
548.6548	-0.0068
548.8498	0.0021
549.0448	0.0015
549.2399	-0.0031
549.4349	-0.0032
549.6298	0
549.8248	-0.0017
550.0198	0
550.2147	-0.0044
550.4096	-0.0095
550.6045	-0.0004
550.7994	-0.0007
550.9943	-0.0025
551.1892	-0.0055
551.384	0.003
551.5788	-0.0131
551.7737	0.0024
551.9685	-0.006
552.1632	-0.0022
552.358	-0.0085
552.5528	-0.0012
552.7475	-0.0022
552.9422	-0.0004
553.1369	-0.0038
553.3316	0.0054
553.5263	-0.0114
553.7209	0.0043
553.9156	-0.0044
554.1102	-0.0048
554.3048	-0.0087
554.4994	0.0064
554.694	-0.0034
554.8885	0.002
555.0831	-0.0055
555.2776	-0.0073
555.4721	-0.0042
555.6666	-0.0022
555.8611	-0.0018
556.0555	-0.0075
556.25	-0.0041
556.4444	-0.0055
556.6388	0.004
556.8332	-0.0076
557.0276	0.0019
557.222	0.0025
557.4163	0.0078
557.6107	-0.01
557.805	-0.0016
557.9993	-0.0036
558.1936	-0.001
558.3879	-0.0021
558.5821	0.0011
558.7764	0.0076
558.9706	-0.003
559.1648	0.0032
559.359	-0.0062
559.5532	-0.0084
559.7473	-0.0111
559.9415	-0.0024
560.1356	-0.0057
560.3297	0.0003
560.5238	-0.0058
560.7179	-0.0028
560.9119	-0.0045
561.106	-0.005
561.3	-0.0111
561.494	0.001
561.688	0.0026
561.882	-0.0045
562.076	-0.01
562.2699	0.0096
562.4639	0.0073
562.6578	0.0038
562.8517	-0.0011
563.0456	0.0022
563.2395	0.0042
563.4333	0.0043
563.6272	0.0047
563.821	0.0004
564.0148	-0.0059
564.2086	-0.0101
564.4024	-0.0022
564.5961	-0.0036
564.7899	0.0117
564.9836	-0.0061
565.1773	0.0036
565.371	0.0084
565.5647	-0.0033
565.7584	0.0035
565.952	0.0065
566.1456	-0.0066
566.3393	-0.0023
566.5329	-0.0033
566.7264	0.0001
566.92	-0.0101
567.1136	0.0067
567.3071	-0.0089
567.5006	0.0031
567.6941	0.0058
567.8876	0.0051
568.0811	-0.0008
568.2745	0.0011
568.468	0.0023
568.6614	0.0034
568.8548	0.0021
569.0482	-0.0044
569.2416	0.0011
569.4349	-0.0071
569.6283	0.0058
569.8216	-0.0081
570.0149	-0.0077
570.2082	0.0046
570.4015	0.0098
570.5947	0.0019
570.788	0.0015
570.9812	0.0023
571.1744	-0.0031
571.3676	-0.0054
571.5608	-0.0069
571.754	0.003
571.9471	-0.0036
572.1402	-0.0021
572.3333	-0.0059
572.5264	-0.0021
572.7195	0.0004
572.9126	0.0029
573.1057	-0.0023
573.2987	-0.0016
573.4917	-0.0006
573.6847	-0.0075
573.8777	0.0038
574.0707	0.0032
574.2636	-0.0082
574.4566	0.001
574.6495	0.0063
574.8424	-0.0028
575.0353	0.0002
575.2281	0.0115
575.421	0.0045
575.6138	0.0025
575.8067	0.0008
575.9995	0.0041
576.1923	-0.0022
576.385	0.0006
576.5778	-0.007
576.7706	-0.0081
576.9633	0.0021
577.156	0.0073
577.3487	0.0019
577.5414	-0.0033
577.734	-0.0052
577.9267	-0.0007
578.1193	-0.0112
578.3119	-0.0076
578.5045	-0.0004
578.6971	-0.0042
578.8897	0.0025
579.0822	0.0008
579.2747	0.0011
579.4673	-0.0065
579.6598	-0.0027
579.8522	-0.0072
580.0447	-0.0095
580.2372	0.0011
580.4296	0.0037
580.622	-0.0062
580.8144	0.0004
581.0068	-0.0062
581.1992	-0.0145
581.3915	-0.0088
581.5839	-0.0095
581.7762	-0.0099
581.9685	-0.0021
582.1608	-0.0039
582.353	-0.0077
582.5453	-0.0072
582.7375	-0.0025
582.9298	0.0011
583.122	-0.0026
583.3142	-0.0015
583.5063	-0
583.6985	-0.0031
583.8906	-0.0042
584.0827	-0.0099
584.2749	-0.0055
584.4669	-0.0048
584.659	0.0024
584.8511	-0.0016
585.0431	-0.0088
585.2352	-0.0045
585.4272	-0.0004
585.6192	0.0024
585.8111	0.0015
586.0031	-0.0047
586.195	-0.0027
586.387	0.0044
586.5789	-0.0002
586.7708	0.0037
586.9627	-0.0062
587.1545	-0.0032
587.3464	0.0035
587.5382	-0.0015
587.73	0.0053
587.9218	0.0062
588.1136	0.004
588.3053	0.003
588.4971	-0.0049
588.6888	-0.0062
588.8805	-0.003
589.0722	0.0038
589.2639	-0.0041
589.4556	0.0002
589.6472	0.0014
589.8389	-0.0107
590.0305	-0.0089
590.2221	-0.0011
590.4137	-0.0134
590.6052	-0.0033
590.7968	-0.0039
590.9883	-0.0013
591.1798	-0.005
591.3713	0.0023
591.5628	0.0035
591.7543	0.006
591.9458	0.0021
592.1372	0.0074
592.3286	0.0085
592.52	0.0031
592.7114	-0.0046
592.9028	0.0022
593.0941	-0
593.2855	-0.0061
593.4768	-0.0116
593.6681	-0.004
593.8594	-0.0079
594.0506	0.002
594.2419	0.0075
594.4331	0.0021
594.6244	-0.0001
594.8156	-0.0109
595.0067	0.0014
595.1979	0.0042
595.3891	0.0014
595.5802	-0.0023
595.7713	-0.0023
595.9624	0.0009
596.1535	0.0084
596.3446	-0.0072
596.5357	0.0029
596.7267	0.0041
596.9177	-0.0012
597.1087	-0.0068
597.2997	-0.0018
597.4907	0.0009
597.6817	-0.0025
597.8726	-0.0045
598.0635	-0.0085
598.2544	-0.0037
598.4453	0.0021
598.6362	-0.0002
598.827	0.0002
599.0179	0.0076
599.2087	-0.0001
599.3995	0.007
599.5903	0.0011
599.7811	-0.0007
599.9718	0.0043
600.1626	0.0025
600.3533	-0.002
600.544	0.0036
600.7347	0.0029
600.9254	0.0035
601.116	-0.0126
601.3067	-0.0017
601.4973	0.0057
601.6879	0.0082
601.8785	-0.0038
602.0691	0.0038
602.2596	-0.0034
602.4502	0.0059
602.6407	0.0088
602.8312	-0.0007
603.0217	-0.0071
603.2122	0.0021
603.4027	-0.0016
603.5931	0.0019
603.7835	0.0037
603.9739	0.0013
604.1643	0.0031
604.3547	-0.0064
604.5451	0.0071
604.7354	0.0045
604.9257	-0.001
605.116	0.0007
605.3063	0.0056
605.4966	0.0093
605.6869	0.0032
605.8771	0.0057
606.0673	0.0074
606.2575	0.0051
606.4477	0.0022
606.6379	0.007
606.8281	-0.0021
607.0182	-0.0004
607.2083	0.0091
607.3985	0.0031
607.5885	0.0005
607.7786	0.002
607.9687	-0.0051
608.1587	0.0041
608.3488	0.0007
608.5388	0.0017
608.7288	-0.0042
608.9187	0.001
609.1087	-0.0043
609.2986	-0.0042
609.4886	-0.004
609.6785	0.0028
609.8684	0.0079
610.0582	0.0009
610.2481	-0.0084
610.4379	0.0006
610.6278	-0.0092
610.8176	0.0007
611.0074	-0.0037
611.1971	-0.0072
611.3869	-0.0077
611.5766	-0.0136
611.7664	0.0013
611.9561	0.0063
612.1458	-0.0046
612.3354	-0.0004
612.5251	0.0031
612.7147	0.0079
612.9044	0.0107
613.094	0.0026
613.2836	0.0055
613.4731	0.0003
613.6627	-0.008
613.8522	0.0008
614.0417	0.012
614.2313	-0.0105
614.4207	-0.0035
614.6102	0.0018
614.7997	-0.0065
614.9891	-0.0026
615.1785	0.0024
615.3679	-0.0101
615.5573	0.008
615.7467	-0.0003
615.9361	-0.0041
616.1254	0.0012
616.3147	-0.0028
616.504	0.0041
616.6933	-0.003
616.8826	0.0022
617.0718	-0.0015
617.2611	-0.0055
617.4503	0.0066
617.6395	-0.0004
617.8287	-0.0037
618.0179	-0.0037
618.207	0.005
618.3961	0.0032
618.5853	0.0049
618.7744	0.001
618.9634	0.0041
619.1525	0.0047
619.3416	0.0066
619.5306	0.0117
619.7196	0.0028
619.9086	-0.0002
620.0976	0.0109
620.2866	0.0007
620.4755	0.0005
620.6645	-0.0028
620.8534	0.0116
621.0423	0.0046
621.2312	0.0076
621.42	0.0024
621.6089	-0.0091
621.7977	0.0068
621.9865	-0.0075
622.1753	-0.0003
622.3641	-0.0018
622.5529	0.0077
622.7416	0.004
622.9303	-0.0047
623.1191	0.006
623.3078	-0.0041
623.4964	0.004
623.6851	0.0026
623.8737	-0.0002
624.0624	0.0066
624.251	-0.0027
624.4396	-0.0043
624.6282	-0.0012
624.8167	-0.0015
625.0053	0.0086
625.1938	0.008
625.3823	0.0049
625.5708	0.0008
625.7593	-0.0054
625.9477	0.0025
626.1362	0.0013
626.3246	0.0067
626.513	0.0044
626.7014	0.0104
626.8898	-0.0026
627.0781	0.0116
627.2665	-0.0074
627.4548	0.0042
627.6431	0.0023
627.8314	0.004
628.0197	0.0095
628.2079	-0.0069
628.3962	-0.0003
628.5844	-0.0003
628.7726	0.0097
628.9608	0.0089
629.1489	0.003
629.3371	0.0045
629.5252	0.0009
629.7134	0.0183
629.9015	0.001
630.0895	0.002
630.2776	0.0066
630.4657	0.001
630.6537	-0.0006
630.8417	0.0051
631.0297	-0.008
631.2177	0.0047
631.4057	0.0028
631.5936	0.002
631.7815	0.0005
631.9695	-0.0019
632.1574	0.0028
632.3452	0.0091
632.5331	0.004
632.7209	0.0002
632.9088	0.0055
633.0966	0.0113
633.2844	0.0002
633.4722	0.0048
633.6599	0.0004
633.8477	0.0038
634.0354	0.0099
634.2231	0.0001
634.4108	0.006
634.5985	0.0084
634.7861	0
634.9738	0.002
635.1614	0.0007
635.349	-0.0014
635.5366	-0.0028
635.7242	-0.0008
635.9117	0.003
636.0993	0.0047
636.2868	0.0067
636.4743	-0.0003
636.6618	0.0093
636.8492	0.0045
637.0367	0.0018
637.2241	-0.0025
637.4115	-0.0025
637.5989	-0.002
637.7863	-0.001
637.9737	-0.0057
638.161	0.0002
638.3484	0.0047
638.5357	0.004
638.723	0.004
638.9103	0.0079
639.0975	0.0081
639.2848	0.0031
639.472	0.0045
639.6592	0.0118
639.8464	0.0032
640.0336	0.0087
640.2208	-0.0027
640.4079	0.0008
640.595	0.0017
640.7821	-0.0007
640.9692	0.0124
641.1563	0.0022
641.3434	0.0073
641.5304	0.0024
641.7174	0.001
641.9044	-0.0011
642.0914	0.0086
642.2784	0.0077
642.4653	0.0003
642.6523	0.0006
642.8392	0.0006
643.0261	0.0044
643.213	0.0045
643.3999	0.0028
643.5867	0.0002
643.7735	0.0044
643.9604	-0.0007
644.1472	0.001
644.3339	0.0053
644.5207	0.0027
644.7075	-0.0002
644.8942	0.01
645.0809	0.0078
645.2676	0.0038
645.4543	0.0025
645.6409	0.0056
645.8276	0.0063
646.0142	0.0072
646.2008	-0.0028
646.3874	-0.0039
646.574	-0.0032
646.7605	-0.0014
646.9471	-0.0062
647.1336	0.0091
647.3201	0.0038
647.5066	-0.0087
647.6931	0.0055
647.8795	-0.0025
648.0659	0.0023
648.2524	0.0088
648.4388	-0.0018
648.6252	0.001
648.8115	-0.0005
648.9979	-0.0026
649.1842	-0.0014
649.3705	0.0019
649.5568	0.0057
649.7431	0.0075
649.9294	0.0024
650.1156	0.005
650.3018	-0.0007
650.488	0.0071
650.6742	0.0024
650.8604	0.0041
651.0466	-0.0081
651.2327	0.0004
651.4188	0.0045
651.6049	0.0058
651.791	0.0026
651.9771	0.0059
652.1632	0.0073
652.3492	-0.0005
652.5352	0.0034
652.7212	-0.0053
652.9072	0.0077
653.0932	-0.0017
653.2791	-0.0046
653.465	0.0015
653.651	-0.007
653.8369	0.0035
654.0227	-0.0026
654.2086	0.0045
654.3944	0.0043
654.5803	0.0053
654.7661	-0.0063
654.9519	0.0032
655.1377	-0.0038
655.3234	-0.0037
655.5092	-0.0012
655.6949	-0.0045
655.8806	-0.0038
656.0663	0.0008
656.2519	-0.0039
656.4376	0.0013
656.6232	0.0116
656.8088	0.0001
656.9945	-0.004
657.18	0.008
657.3656	0.0038
657.5511	0.0001
657.7367	-0.0036
657.9222	0.0053
658.1077	-0.0006
658.2932	0.0034
658.4786	-0.0019
658.6641	-0.0005
658.8495	0.0033
659.0349	0.0032
659.2203	0.0068
659.4057	0.0043
659.591	0.0076
659.7764	0.0024
659.9617	0.0024
660.147	0.0012
660.3323	0.0093
660.5176	0.0086
660.7028	0.0041
660.888	0.0087
661.0733	0.006
661.2585	0.0028
661.4436	0.0071
661.6288	0.0011
661.8139	0.0028
661.9991	0.0051
662.1842	0.0026
662.3693	0.006
662.5544	0.0032
662.7394	0.002
662.9245	-0.0064
663.1095	-0.0003
663.2945	-0.0019
663.4795	-0.0068
663.6644	0.0088
663.8494	0.0068
664.0343	0.0012
664.2193	-0.0093
664.4042	0.0016
664.589	-0.0075
664.7739	0.0007
664.9587	0.0012
665.1436	-0.0038
665.3284	0.0012
665.5132	-0.0075
665.698	0.0022
665.8827	0.0068
666.0675	0.0026
666.2522	-0.0042
666.4369	0.0053
666.6216	0.0129
666.8063	0.0153
666.9909	0.0068
667.1756	0.0025
667.3602	0.0006
667.5448	0.0012
667.7294	0.009
667.9139	0.0063
668.0985	0.012
668.283	0.0049
668.4675	0.0006
668.652	0.0036
668.8365	-0.007
669.0209	0.0044
669.2054	0.0092
669.3898	-0.0016
669.5742	-0.0027
669.7586	0.0108
669.943	0.0191
670.1273	0.01
670.3117	0.0035
670.496	0.0146
670.6803	0.0097
670.8646	0.0052
671.0488	0.0035
671.2331	0.0133
671.4173	0.0038
671.6015	-0.0029
671.7857	0.0035
671.9699	0.0084
672.1541	0.0091
672.3382	0.0063
672.5223	0.0148
672.7064	0.0052
672.8905	0.0098
673.0746	0.0029
673.2587	0.0049
673.4427	0.0105
673.6267	0.0095
673.8107	0.0105
673.9947	0.0033
674.1787	0.0086
674.3626	0.0018
674.5465	0.0045
674.7304	0.0061
674.9143	0.0101
675.0982	0.0055
675.2821	-0.004
675.4659	0.007
675.6497	0.0005
675.8335	0.0049
676.0173	0.0077
676.2011	0.0016
676.3849	0.0066
676.5686	-0.0013
676.7523	0.0054
676.936	0.0048
677.1197	-0.0015
677.3034	-0.0009
677.487	0.0061
677.6706	0.0024
677.8542	0.0081
678.0378	0.0087
678.2214	0.0018
678.405	0.0026
678.5885	-0.0081
678.772	-0.0009
678.9555	-0.0074
679.139	0.0059
679.3225	0.0019
679.5059	0.0047
679.6894	0.0035
679.8728	-0.0004
680.0562	-0.0018
680.2395	-0.001
680.4229	0.0007
680.6062	0.007
680.7896	0.0058
680.9729	-0.0003
681.1562	0.005
681.3394	-0.0011
681.5227	-0.0031
681.7059	0.0025
681.8891	0.0004
682.0723	0.0081
682.2555	0.0038
682.4387	0.0004
682.6218	0.0019
682.805	0.0028
682.9881	0.0027
683.1712	-0.0022
683.3542	-0.0034
683.5373	0.0102
683.7203	0.0025
683.9034	0.0088
684.0864	0.0011
684.2694	-0.0013
684.4523	0.0122
684.6353	-0.0043
684.8182	0.0026
685.0011	-0.0058
685.184	0.0056
685.3669	0.0077
685.5498	0.0138
685.7326	0.0085
685.9154	0.0011
686.0982	0.0107
686.281	0.0117
686.4638	0.0042
686.6465	0.0053
686.8293	-0.0001
687.012	0.0094
687.1947	-0.0045
687.3774	0.0037
687.56	0.0018
687.7427	0.0118
687.9253	-0.0018
688.1079	-0.0015
688.2905	0.005
688.4731	0.0074
688.6556	0.0037
688.8382	0.0049
689.0207	0.0057
689.2032	-0.0106
689.3857	0.0011
689.5681	0.0025
689.7506	-0.0008
689.933	-0.0032
690.1154	-0.0002
690.2978	0.002
690.4802	-0.0007
690.6626	-0.0039
690.8449	-0.0057
691.0272	0.0045
691.2095	-0.0055
691.3918	-0.0059
691.5741	-0.0026
691.7563	-0.0027
691.9386	0.0043
692.1208	-0.0028
692.303	0.0046
692.4852	-0.0025
692.6673	-0.0023
692.8495	-0.0022
693.0316	0.0084
693.2137	0.004
693.3958	0.0083
693.5778	0.0006
693.7599	0.0054
693.9419	0.0029
694.1239	-0.002
694.3059	-0.005
694.4879	0.0137
694.6699	0.0127
694.8518	0.0008
695.0337	-0.0015
695.2157	0.0018
695.3975	0.0008
695.5794	0.0025
695.7613	0.0042
695.9431	0.0046
696.1249	-0.0003
696.3067	0.0018
696.4885	0.0073
696.6703	-0.007
696.852	0.0002
697.0337	0.0082
697.2154	0.0084
697.3971	-0.0022
697.5788	0
697.7605	0.0083
697.9421	0.0064
698.1237	0.0048
698.3053	-0.0011
698.4869	0.0021
698.6685	0.0007
698.85	-0.0007
699.0315	0.0048
699.213	0.0019
699.3945	0.0084
699.576	0.0052
699.7575	0.005
699.9389	0.0067
700.1203	-0.0017
700.3017	-0.0072
700.4831	0.0027
700.6645	-0.0024
700.8458	-0.0032
701.0271	-0.0042
701.2084	0.0011
701.3897	-0.0067
701.571	0.0018
701.7523	-0.008
701.9335	-0.0048
702.1147	0.0006
702.2959	-0.0015
702.4771	-0.0006
702.6583	0.0003
702.8394	-0.0093
703.0205	0.0024
703.2016	-0.0065
703.3827	-0.0033
703.5638	0.0079
703.7449	0.0023
703.9259	0.0078
704.1069	0.0041
704.2879	0.0069
704.4689	0.0035
704.6499	0.0044
704.8308	0.0081
705.0117	0.0046
705.1927	-0.0007
705.3735	-0.0041
705.5544	-0.0014
705.7353	0.004
705.9161	-0.0054
706.0969	-0.01
706.2777	0.0005
706.4585	-0.0038
706.6393	0.0016
706.82	-0.0007
707.0007	0.0036
707.1815	0.0052
707.3621	0.0095
707.5428	-0.0017
707.7235	0.0042
707.9041	0.0067
708.0847	0.0002
708.2653	0.002
708.4459	-0.0058
708.6265	0.0065
708.807	-0.0048
708.9875	-0.0094
709.168	-0.0055
709.3485	-0.0016
709.529	0.006
709.7095	-0.0053
709.8899	0.0003
710.0703	-0.0121
710.2507	0.0021
710.4311	-0
710.6115	-0.0071
710.7918	-0.0092
710.9721	0.0028
711.1524	-0.0049
711.3327	-0.0059
711.513	0.0046
711.6932	0.0068
711.8735	0.0097
712.0537	0.0011
712.2339	-0.0058
712.4141	-0.0104
712.5942	-0.0045
712.7744	-0.0014
712.9545	-0.0082
713.1346	0.0048
713.3147	-0.0008
713.4947	-0.0016
713.6748	-0.0049
713.8548	0.004
714.0348	0.0053
714.2148	0.0027
714.3948	0.0097
714.5748	-0.0021
714.7547	0.0021
714.9346	-0.0021
715.1145	-0.0011
715.2944	0.0047
715.4743	0.0032
715.6541	0.0019
715.834	0.0078
716.0138	-0.0026
716.1936	-0.0048
716.3733	-0.002
716.5531	0.0096
716.7328	-0.0049
716.9126	0.0003
717.0923	0.0077
717.2719	0.0062
717.4516	0.0054
717.6312	0.0092
717.8109	-0.0022
717.9905	0.0094
718.1701	0.0015
718.3496	-0.0049
718.5292	0.0056
718.7087	-0.0001
718.8882	0.0054
719.0677	0.0038
719.2472	-0.0019
719.4267	0.0037
719.6061	0.0012
719.7856	0.0092
719.965	0.008
720.1443	0.0033
720.3237	0.0163
720.5031	0.0069
720.6824	0.0158
720.8617	0.003
721.041	0.0056
721.2203	0.0073
721.3995	0.0098
721.5788	0.0094
721.758	0.0032
721.9372	-0.0069
722.1164	0.0097
722.2956	0.0101
722.4747	-0.0007
722.6538	-0.0034
722.8329	0.0157
723.012	0.004
723.1911	-0.003
723.3702	0.0011
723.5492	0.0033
723.7282	-0.0079
723.9072	-0.0007
724.0862	-0.0021
724.2652	-0.0055
724.4441	-0.0071
724.623	0.0008
724.8019	-0.0069
724.9808	0.0053
725.1597	-0.0041
725.3385	0.015
725.5174	0.0068
725.6962	0.0031
725.875	0.0034
726.0538	0.0084
726.2325	-0.0005
726.4112	0.0035
726.59	0.0004
726.7687	-0.0075
726.9474	0.0067
727.126	0.0078
727.3047	-0.0007
727.4833	-0.0036
727.6619	0.0002
727.8405	-0.0076
728.0191	-0.0025
728.1976	0.0026
728.3762	0.0038
728.5547	0.004
728.7332	-0.0065
728.9116	0.0018
729.0901	0.0092
729.2686	-0.0044
729.447	0.0018
729.6254	0.0023
729.8038	0.0022
729.9821	-0.0132
730.1605	-0.0032
730.3388	-0.0025
730.5171	-0.0012
730.6954	-0.0088
730.8737	0.0074
731.0519	0.0062
731.2302	-0.0048
731.4084	0.0113
731.5866	0.0083
731.7648	0.006
731.9429	0.0071
732.1211	-0.0025
732.2992	-0.005
732.4773	-0.003
732.6554	0.0061
732.8335	0.0041
733.0115	0.0123
733.1896	0.0122
733.3676	0.0006
733.5456	0.0078
733.7235	0.0067
733.9015	-0.0067
734.0794	-0.0047
734.2574	-0.0022
734.4353	0.0069
734.6131	0.0022
734.791	-0.0039
734.9689	0.0008
735.1467	0.0039
735.3245	-0.0048
735.5023	-0.0058
735.68	0.0047
735.8578	0.0041
736.0355	-0.0145
736.2132	-0.0025
736.3909	0.0021
736.5686	-0.0111
736.7463	0.002
736.9239	-0.0111
737.1015	-0.0006
737.2791	-0.0014
737.4567	-0.0075
737.6343	-0.0047
737.8118	-0.0025
737.9894	0.0036
738.1669	-0.0027
738.3444	-0.0059
738.5218	0.0034
738.6993	-0.0013
738.8767	0.0004
739.0541	0.015
739.2315	-0.0028
739.4089	0.0083
739.5863	0.0004
739.7636	0.0022
739.9409	0.0046
740.1182	0.0134
740.2955	0.0105
740.4728	0.0096
740.65	0.0013
740.8272	0.0052
741.0044	-0.0054
741.1816	0.001
741.3588	0.0001
741.5359	-0.0021
741.7131	-0.003
741.8902	0.0024
742.0673	-0.0027
742.2444	-0.0043
742.4214	-0.0112
742.5985	-0.002
742.7755	-0.0032
742.9525	-0.0174
743.1295	0.0053
743.3064	0.0097
743.4834	0.0038
743.6603	0.0058
743.8372	-0.0063
744.0141	0.0035
744.191	0.0011
744.3678	-0.0028
744.5446	-0.0021
744.7215	0.0074
744.8982	0.0039
745.075	-0.0075
745.2518	0.0085
745.4285	0.002
745.6052	0.0028
745.7819	0.0056
745.9586	-0.008
746.1353	-0.0003
746.3119	-0.0079
746.4885	-0.0053
746.6651	0.0027
746.8417	0.0002
747.0183	0.0027
747.1948	-0.0141
747.3714	-0.0032
747.5479	0.0039
747.7244	0.0006
747.9008	0.0124
748.0773	0.0107
748.2537	0.0004
748.4301	-0.006
748.6065	0.0123
748.7829	0.0033
748.9593	-0.0025
749.1356	-0.0084
749.3119	0.0119
749.4882	-0.005
749.6645	0.0069
749.8408	-0.0028
750.017	-0.0069
750.1933	0.004
750.3695	-0.005
750.5457	0.0027
750.7218	-0.0021
750.898	-0.0048
751.0741	-0.0031
751.2502	-0.0007
751.4263	-0.0001
751.6024	-0.001
751.7784	-0.0051
751.9545	-0.0089
752.1305	-0.0032
752.3065	-0.008
752.4825	-0.0029
752.6584	-0.0037
752.8344	0.0026
753.0103	-0.0091
753.1862	-0.0057
753.3621	-0.0031
753.5379	-0.0045
753.7138	-0.0081
753.8896	-0.0024
754.0654	0.0019
754.2412	0.006
754.417	0.0031
754.5927	-0.0058
754.7685	0.0015
754.9442	-0.0052
755.1199	0.0116
755.2956	-0.0081
755.4712	-0.0011
755.6469	-0.0016
755.8225	-0.0027
755.9981	-0.0115
756.1736	-0.0011
756.3492	0.0007
756.5248	-0.0098
756.7003	-0.009
756.8758	0.0018
757.0513	-0.0175
757.2267	-0.008
757.4022	-0.0031
757.5776	-0.0114
757.753	0.001
757.9284	0.0007
758.1038	0.0164
758.2791	0.0093
758.4545	-0.0053
758.6298	-0.0001
758.8051	0.0075
758.9803	0.0013
759.1556	0.0047
759.3308	-0.0001
759.506	0.0127
759.6812	-0.0053
759.8564	0.0131
760.0316	0.0051
760.2067	0.0043
760.3819	0.002
760.557	0.016
760.732	-0.0004
760.9071	-0.0053
761.0821	-0.0034
761.2572	0.0082
761.4322	-0.0093
761.6072	-0.0002
761.7821	-0.0103
761.9571	0.0057
762.132	-0.0025
762.3069	-0.0012
762.4818	0.0009
762.6567	-0.0086
762.8316	-0.004
763.0064	-0.003
763.1812	-0.0065
763.356	-0.0075
763.5308	-0.007
763.7055	0.0035
763.8803	-0.0042
764.055	-0.0004
764.2297	-0.0117
764.4044	-0.0098
764.579	-0.0099
764.7537	-0.0149
764.9283	-0.0019
765.1029	-0.0075
765.2775	-0.0045
765.4521	-0.0103
765.6266	-0.0112
765.8011	-0.0015
765.9756	-0.0019
766.1501	0.0044
766.3246	-0.0029
766.4991	-0.0123
766.6735	0.0024
766.8479	-0.013
767.0223	0.0005
767.1967	0.0024
767.371	-0.0038
767.5454	0.0035
767.7197	0.0083
767.894	-0.0131
768.0683	-0.0062
768.2425	-0.0009
768.4168	-0.0073
768.591	-0.0011
768.7652	0.0036
768.9394	0.0085
769.1135	-0.0041
769.2877	0.0059
769.4618	0.0035
769.6359	-0.0027
769.81	-0.0024
769.984	-0.001
770.1581	0.001
770.3321	-0.0008
770.5061	-0.0082
770.6801	-0.0072
770.8541	0.0057
771.028	0.0008
771.202	-0.0192
771.3759	-0.0077
771.5498	-0.0072
771.7236	-0.0039
771.8975	0.0039
772.0713	0.0079
772.2451	0.0096
772.4189	0.0099
772.5927	0.0082
772.7665	0.0039
772.9402	-0.0042
773.1139	0.0074
773.2876	0.0055
773.4613	0.0081
773.635	0.012
773.8086	-0.0066
773.9822	0.011
774.1558	0.0034
774.3294	-0.012
774.503	-0.0029
774.6765	-0.0077
774.8501	0.0032
775.0236	0.004
775.1971	0.013
775.3705	-0.0127
775.544	0.005
775.7174	0.001
775.8908	0.0006
776.0642	0.0064
776.2376	0.0089
776.4109	-0.0119
776.5843	-0.0078
776.7576	0.0115
776.9309	0.0163
777.1041	-0.0015
777.2774	0.0146
777.4506	0.0065
777.6238	-0.0126
777.797	0.0075
777.9702	-0.0022
778.1434	0.0046
778.3165	-0.0105
778.4896	0.0089
778.6627	0.0095
778.8358	0.0052
779.0089	0.0039
779.1819	-0.0032
779.3549	0.0224
779.5279	0.0198
779.7009	0.0021
779.8739	-0.0016
780.0468	0.0054
780.2197	0.0176
780.3926	0.011
780.5655	-0.0018
780.7384	0.0007
780.9112	0.0065
781.0841	0.0028
781.2569	0.0068
781.4297	0.0136
781.6024	0.008
781.7752	0.0101
781.9479	0.0249
782.1206	-0.0031
782.2933	-0.002
782.466	0.0127
782.6386	0.0003
782.8113	0.0022
782.9839	-0.0049
783.1565	0.0083
783.329	0.0035
783.5016	0.0099
783.6741	0.009
783.8466	-0.0164
784.0191	0.0149
784.1916	-0.0008
784.3641	0.0018
784.5365	0.0046
784.7089	-0.0008
784.8813	-0.0044
785.0537	-0.001
785.2261	-0.0084
785.3984	-0.0148
785.5707	-0.0027
785.743	0.0099
785.9153	-0.0111
786.0876	-0.0027
786.2598	-0.0081
786.432	-0.0077
786.6042	0.0052
786.7764	-0.0001
786.9486	0.0154
787.1207	-0.0125
787.2928	0.0053
787.4649	0.0096
787.637	0.0037
787.8091	-0.0021
787.9811	-0.0086
788.1532	-0.0031
788.3252	0.0024
788.4972	-0.0003
788.6691	-0.0011
788.8411	-0.0052
789.013	-0.0149
789.1849	0.0067
789.3568	-0.0108
789.5287	-0.0031
789.7005	-0.0128
789.8723	0.0094
790.0442	0.0242
790.2159	0.0058
790.3877	0.0134
790.5595	-0.0064
790.7312	-0.0021
790.9029	-0.0117
791.0746	-0.0247
791.2463	-0.0087
791.4179	-0.0114
791.5896	-0.0239
791.7612	0.0068
791.9328	-0.0095
792.1044	-0.0184
792.2759	-0.0263
792.4474	-0.015
792.619	-0.0001
792.7905	-0.004
792.9619	-0.0046
793.1334	-0.0043
793.3048	0.0149
793.4762	-0.0021
793.6476	0.0016
793.819	-0.006
793.9904	-0.0073
794.1617	-0.0043
794.333	0.0013
794.5043	-0.0067
794.6756	-0.0125
794.8469	-0.0056
795.0181	0.0041
795.1893	-0.0174
795.3605	0.0016
795.5317	-0.004
795.7029	-0.0088
795.874	-0.004
796.0452	-0.0062
796.2163	-0.0007
796.3873	0.0104
796.5584	-0.0054
796.7294	-0.0065
796.9005	-0.0036
797.0715	-0.0012
797.2425	-0.0164
797.4134	0.0022
797.5844	-0.0108
797.7553	-0.0106
797.9262	-0.0198
798.0971	-0.0189
798.2679	-0.0148
798.4388	-0.0232
798.6096	0.0021
798.7804	-0.008
798.9512	-0.018
799.122	-0.0172
799.2927	-0.0066
799.4635	0.0106
799.6342	-0.0201
799.8049	-0.0156
799.9755	-0.0027
800.1462	-0.0055
800.3168	-0.0175
800.4874	-0.0172
800.658	0.0153
800.8286	-0.0062
800.9991	-0.003
801.1696	-0.0017
801.3402	0.0066
801.5106	-0.008
801.6811	-0.0161
801.8516	-0.0018
802.022	-0.0093
802.1924	-0.0036
802.3628	0.0015
802.5332	0.0041
802.7035	0.0196
802.8739	-0.0166
803.0442	-0.0177
803.2145	0.0017
803.3847	-0.0227
803.555	-0.0177
803.7252	-0.0208
803.8954	-0.0239
804.0656	-0.0381
804.2358	-0.0156
804.4059	-0.006
804.5761	-0.0146
804.7462	-0.0058
804.9163	-0.0097
805.0864	-0.0219
805.2564	-0.0163
805.4264	-0.0091
805.5965	-0.0077
805.7665	0
805.9364	0.0003
806.1064	0.021
806.2763	-0.0093
806.4462	0.0269
806.6161	0.0112
806.786	0.004
806.9559	-0.0076
807.1257	0.004
807.2955	0.0007
807.4653	-0.0136
807.6351	0.0005
807.8048	-0.0088
807.9746	0.0029
808.1443	-0.024
808.314	-0.0123
808.4837	-0.0111
808.6533	-0.007
808.8229	0.0167
808.9926	-0.0162
809.1622	-0.0185
809.3317	-0.0138
809.5013	-0.0242
809.6708	-0.006
809.8403	0.0033
810.0098	-0.0174
810.1793	-0.0087
810.3488	-0.0042
810.5182	-0.0274
810.6876	0.0144
810.857	-0.0397
811.0264	0.0123
811.1958	0.0091
811.3651	-0.0039
811.5344	-0.0173
811.7037	-0.0136
811.873	-0.0127
812.0422	-0.0154
812.2115	-0.0037
812.3807	-0.0123
812.5499	0.0173
812.7191	-0.0024
812.8882	-0.0272
813.0574	-0.0125
813.2265	-0.0104
813.3956	-0.0059
813.5646	-0.0119
813.7337	-0.0103
813.9027	0.028
814.0718	0.0255
814.2407	-0.0053
814.4097	-0.0096
814.5787	-0.0257
814.7476	-0.0108
814.9165	0.0009
815.0854	-0.0119
815.2543	-0.0028
815.4232	0.0086
815.592	0.0271
815.7608	0.0087
815.9296	-0.002
816.0984	0.0137
816.2671	0.0081
816.4359	0.0016
816.6046	0.0073
816.7733	-0.0199
816.942	-0.0238
817.1106	-0.0038
817.2793	0.0051
817.4479	-0.0039
817.6165	0.015
817.785	0.0201
817.9536	-0.0198
818.1221	0.001
818.2906	0.018
818.4591	-0.0119
818.6276	-0.0287
818.7961	0.0081
818.9645	-0.0254
819.1329	-0.0134
819.3013	0.0048
819.4697	0.0146
819.638	0.0018
819.8064	-0.011
819.9747	0.0178
820.143	-0.0384
820.3113	-0.0392
820.4795	-0.0244
820.6477	-0.0058
820.816	-0.0137
820.9842	-0.011
821.1523	-0.0193
821.3205	-0.0156
821.4886	-0.0197
821.6567	-0.0171
821.8248	0.0053
821.9929	0.0209
822.1609	-0.0122
822.329	0.0106
822.497	0.0235
822.665	0.0178
822.833	-0.0437
823.0009	0.0092
823.1688	0.024
823.3367	0.0196
823.5046	0.0043
823.6725	0.0056
823.8404	0.0068
824.0082	0.0217
824.176	0.0277
824.3438	0.0126
824.5116	0.0047
824.6793	0.0113
824.847	-0.0016
825.0147	-0.03
825.1824	0.0155
825.3501	0.0072
825.5177	-0.007
825.6854	-0.0122
825.853	-0.0179
826.0206	-0.0191
826.1881	0.0141
826.3557	-0.027
826.5232	0.0053
826.6907	-0.0248
826.8582	-0.0089
827.0257	-0.0202
827.1931	-0.0049
827.3605	0.0199
827.528	-0.0041
827.6953	-0.0514
827.8627	-0.0151
828.03	0.0391
828.1974	-0.0004
828.3647	-0.0284
828.532	-0.0188
828.6992	-0.022
828.8665	0.001
829.0337	-0.0254
829.2009	0.0016
829.3681	-0.007
829.5352	0.0192
829.7024	-0.033
829.8695	-0.0619
830.0366	0.028
830.2037	-0.0256
830.3707	0.0187
830.5378	-0.0373
830.7048	0.0061
830.8718	-0.0128
831.0388	0.0053
831.2057	-0.0094
831.3727	0.0022
831.5396	-0.039
831.7065	-0.0084
831.8734	0.0088
832.0402	-0.032
832.2071	-0.005
832.3739	-0.0261
832.5407	-0.0316
832.7075	-0.0067
832.8742	-0.0312
833.041	-0.0607
833.2077	-0.0011
833.3744	0.0176
833.541	-0.033
833.7077	-0.0566
833.8743	-0.0387
834.0409	-0.0143
834.2075	0.0091
834.3741	-0.0393
834.5407	0.0366
834.7072	-0.0329
834.8737	-0.0032
835.0402	-0.0118
835.2067	0.0108
835.3731	-0.0097
835.5395	-0.0331
835.706	-0.0063
835.8723	-0.0056
836.0387	0.0159
836.2051	-0.0314
836.3714	-0.0026
836.5377	0.0001
836.704	-0.0452
836.8703	0.0482
837.0365	-0.0028
837.2027	-0.0382
837.3689	-0.0082
837.5351	-0.008
837.7013	-0.0108
837.8674	-0.036
838.0335	-0.0351
838.1997	-0.0584
838.3657	-0.0575
838.5318	-0.0494
838.6978	0.0292
838.8639	-0.0152
839.0299	-0.0033
839.1958	-0.0286
839.3618	0.0331
839.5277	-0.0399
839.6937	-0.0153
839.8596	-0.0338
840.0254	-0.0113
840.1913	-0.0385
840.3571	-0.0033
840.523	-0.0514
840.6888	-0.0707
840.8545	-0.0558
841.0203	-0.0085
841.186	-0.0399
841.3517	0.0534
841.5174	-0.0016
841.6831	-0.0325
841.8488	0.0166
842.0144	-0.0474
842.18	0.0323
842.3456	0.0039
842.5112	-0.0432
842.6767	-0.0172
842.8422	0.0188
843.0077	-0.0219
843.1732	-0.0715
843.3387	-0.0315
843.5042	-0.0442
843.6696	-0.001
843.835	-0.0084
844.0004	0.0506
844.1657	-0.0185
844.3311	-0.0037
844.4964	-0.054
844.6617	-0.0432
844.827	-0.0124
844.9923	0.0694
845.1575	-0.0022
845.3227	-0.019
845.4879	-0.0426
845.6531	-0.0296
845.8183	-0.0555
845.9834	0.0103
846.1485	-0.0272
846.3136	-0.0111
846.4787	-0.0982
846.6438	0.0363
846.8088	-0.0784
846.9738	-0.014
847.1388	0.0059
847.3038	-0.0058
847.4687	-0.1598
847.6337	0.0015
847.7986	0.0029
847.9635	-0.0665
848.1284	0.0212
848.2932	0.0357
848.458	-0.0065
848.6228	0.0825
848.7876	0.0308
848.9524	-0.0637
849.1172	-0.0555
849.2819	-0.0176
849.4466	-0.0817
849.6113	-0.0678
849.7759	-0.068
849.9406	-0.0752
850.1052	0.0067
850.2698	-0.1022
850.4344	-0.0652
850.599	-0.0405
850.7635	0.0571
850.928	-0.01
851.0925	0.0385
851.257	-0.0483
851.4215	0.0003
851.5859	-0.0252
851.7503	0.0033
851.9147	0.0239
852.0791	0.0378
852.2434	-0.0581
852.4078	0.0259
852.5721	-0.0029
852.7364	-0.0196
852.9007	-0.1804
853.0649	0.0287
853.2291	-0.0045
853.3934	0.034
853.5575	0.0484
853.7217	-0.0392
853.8859	-0.0946
854.05	-0.1151
854.2141	-0.1011
854.3782	-0.0323
854.5423	-0.0556
854.7063	0.0988
854.8703	0.0471
855.0343	0.0505
855.1983	-0.0623
855.3623	0.2279
855.5262	-0.0414
855.6901	0.0029
855.854	-0.0139
856.0179	0.0447
856.1818	-0.0304
856.3456	-0.0936
856.5094	-0.1036
856.6732	-0.2229
856.837	-0.1085
857.0008	-0.0215
857.1645	-0.1018
857.3282	-0.0257
857.4919	-0.0058
857.6556	-0.0532
857.8192	-0.0156
857.9828	-0.0217
858.1465	-0.0185
858.31	-0.2704
858.4736	0.0977
858.6372	-0.0941
858.8007	-0.2139
858.9642	-0.0127
859.1277	0.0441
859.2911	-0.0595
859.4546	0.0751
859.618	-0.4142
859.7814	-0.0381
859.9448	0.0662
860.1081	-0.1572
860.2715	0.1949
860.4348	0.1965
860.5981	-0.0885
860.7614	-0.0297
860.9246	0.0593
861.0879	-0.1857
861.2511	0.2747
861.4143	-0.1097
861.5774	0.0777
861.7406	-0.2927
861.9037	0.0381
862.0668	-0.0725
862.2299	-0.0957
862.393	-0.6522
862.556	0.2414
862.7191	-0.4121
862.8821	0.0111
863.0451	0.1661
863.208	-0.1158
863.371	-0.0337
863.5339	-0.3104
863.6968	-0.0841
863.8597	-0.1742
864.0225	-0.06
864.1854	0.1387
864.3482	-0.2546
864.511	0.2888
864.6737	0.0077
864.8365	0.0834
864.9992	-0
865.1619	-0.3564
865.3246	0.2491
865.4873	0.0702
865.65	0.1945
865.8126	0.0885
865.9752	0.2228
866.1378	-0.1138
866.3004	0.2149
866.4629	0.5546
866.6254	-0.0947
866.7879	0.0528
866.9504	0.3316
867.1129	-0
867.2753	0.1403
867.4377	0.1989
867.6001	-0.3855
867.7625	0.0946
867.9249	-0.2921
868.0872	-0.1257
868.2495	-0.0959
868.4118	-0.0416
868.5741	0.0438
868.7363	-0.1979
868.8986	0.7822
869.0608	-0.2139
869.223	0.0319
869.3851	0.1398
869.5473	-0
869.7094	0.0269
869.8715	-0.295
870.0336	-0
870.1957	0.0529
870.3577	-0
870.5197	0.0669
870.6817	-0.1795
870.8437	0.223
871.0057	13.4195
871.1676	0.0072
871.3295	0.305
871.4914	-0.2188
871.6533	-0.5246
871.8151	0.6066
871.977	-0
872.1388	-0
872.3006	-0.3968
872.4623	-0
872.6241	-0.0972
872.7858	0.2287
872.9475	-0.1514
873.1092	-0.3984
873.2709	-0
873.4325	-0
873.5941	-0.4572
873.7557	-0
873.9173	-0
874.0789	-0
874.2404	-0.6888
874.4019	0.1431
874.5634	0.2548
874.7249	0.0109
874.8863	0.2505
875.0478	0.1458
875.2092	-0
875.3706	1.168
875.5319	-0.5655
875.6933	0.6596
875.8546	-0.3609
876.0159	1.2974
876.1772	-0
876.3385	-0
876.4997	-0.0454
876.6609	-0.2751
876.8221	-0.1957
876.9833	-0
877.1445	-0
877.3056	-0.1443
877.4667	0.1207
877.6278	-0
877.7889	-0.7099
877.9499	-0
878.111	-0
878.272	-0
878.433	-0
878.5939	0.7901
878.7549	0.8593
878.9158	-0.4007
879.0767	1.4747
879.2376	0.5466
879.3984	1.3257
879.5593	-0
879.7201	-0.0328
879.8809	-0.683
880.0417	0.8799
880.2024	0.9441
880.3632	-0.7434
880.5239	0.4249
880.6846	0.6305
880.8452	-2.2695
881.0059	-0
881.1665	-0.1085
881.3271	-0
881.4877	0.1041
881.6483	-0.4246
881.8088	-0.3178
881.9693	-0
882.1298	-0
882.2903	-0
