Data from MonoPyChalIsomerACN10uM420nmA_Absorbance_15-09-52-935.txt Node
Date: Fri Jul 05 15:09:52 BST 2024
User: LASERRRRR
Spectrometer: FLMT03099
Trigger mode: 0
Integration Time (sec): 1.000000E-1
Scans to average: 1
Electric dark correction enabled: true
Nonlinearity correction enabled: false
Boxcar width: 0
XAxis mode: Wavelengths
Number of Pixels in Spectrum: 3648
>>>>>Begin Spectral Data<<<<<
179.3399	0.1712
179.5586	0.1712
179.7771	0.1712
179.9957	-0
180.2143	0.0906
180.4329	-0
180.6514	-0
180.8699	-0
181.0885	0.2594
181.307	0.1253
181.5255	-0.8335
181.744	-0.8129
181.9625	0.0369
182.181	-0
182.3994	-0
182.6179	-0
182.8363	-0.1373
183.0547	-0.4019
183.2732	0.077
183.4916	-0.0149
183.71	-0.0389
183.9284	0.0158
184.1467	-0.0129
184.3651	0.0757
184.5835	-0.0684
184.8018	0.0209
185.0201	-0.0163
185.2385	0.0694
185.4568	0.0028
185.6751	-0.0248
185.8934	0.2655
186.1117	0.0374
186.3299	-0.0687
186.5482	0.0867
186.7664	-0.1178
186.9847	-0.0844
187.2029	0.0324
187.4211	0.005
187.6393	0.0363
187.8575	-0.0025
188.0757	0.1062
188.2939	0.0651
188.512	-0.0112
188.7302	0.1577
188.9483	0.2252
189.1665	0.1503
189.3846	0.1256
189.6027	0.2112
189.8208	0.1176
190.0389	-0.007
190.257	0.248
190.475	0.1186
190.6931	0.3906
190.9111	0.4557
191.1292	0.1214
191.3472	0.3446
191.5652	0.146
191.7832	0.3605
192.0012	0.5024
192.2192	0.5983
192.4371	0.6625
192.6551	0.3703
192.873	0.4303
193.091	0.279
193.3089	0.649
193.5268	0.4862
193.7447	0.6044
193.9626	0.568
194.1805	0.6908
194.3984	0.5839
194.6162	0.6631
194.8341	0.5317
195.0519	0.4821
195.2697	0.5843
195.4875	0.6054
195.7054	0.6326
195.9231	0.4674
196.1409	0.6505
196.3587	0.7257
196.5765	0.8516
196.7942	0.558
197.012	0.6332
197.2297	0.5254
197.4474	0.836
197.6651	0.5661
197.8828	0.5415
198.1005	0.7001
198.3182	0.6802
198.5358	0.9988
198.7535	0.5919
198.9711	0.5317
199.1888	0.5189
199.4064	0.7371
199.624	0.5255
199.8416	0.5598
200.0592	0.6092
200.2767	0.7309
200.4943	0.6747
200.7119	0.6565
200.9294	0.6833
201.1469	0.5635
201.3645	0.6332
201.582	0.5498
201.7995	0.6972
202.017	0.5626
202.2344	0.6292
202.4519	0.6229
202.6694	0.6031
202.8868	0.6384
203.1042	0.7642
203.3217	0.8258
203.5391	0.6388
203.7565	0.636
203.9739	0.6069
204.1913	0.5847
204.4086	0.783
204.626	0.7104
204.8433	0.6141
205.0607	0.6689
205.278	0.5653
205.4953	0.6368
205.7126	0.6135
205.9299	0.7427
206.1472	0.6671
206.3644	0.7141
206.5817	0.6517
206.7989	0.653
207.0162	0.5612
207.2334	0.6586
207.4506	0.6047
207.6678	0.6467
207.885	0.5597
208.1022	0.7255
208.3194	0.6941
208.5365	0.6593
208.7537	0.6876
208.9708	0.5835
209.1879	0.6671
209.405	0.7094
209.6222	0.6237
209.8392	0.6619
210.0563	0.6548
210.2734	0.6778
210.4905	0.6106
210.7075	0.6406
210.9245	0.5712
211.1416	0.6677
211.3586	0.6567
211.5756	0.6011
211.7926	0.6176
212.0096	0.6424
212.2265	0.5531
212.4435	0.5771
212.6604	0.5723
212.8774	0.5779
213.0943	0.6228
213.3112	0.5622
213.5281	0.5024
213.745	0.4871
213.9619	0.4911
214.1788	0.4824
214.3956	0.4551
214.6125	0.4827
214.8293	0.4677
215.0461	0.477
215.2629	0.4792
215.4798	0.5124
215.6965	0.4083
215.9133	0.479
216.1301	0.4335
216.3469	0.4468
216.5636	0.4074
216.7803	0.392
216.9971	0.3749
217.2138	0.3854
217.4305	0.3483
217.6472	0.3802
217.8639	0.3757
218.0805	0.3347
218.2972	0.3236
218.5138	0.3215
218.7305	0.3129
218.9471	0.2904
219.1637	0.2952
219.3803	0.2864
219.5969	0.2577
219.8135	0.2711
220.0301	0.2638
220.2466	0.277
220.4632	0.2393
220.6797	0.2294
220.8962	0.2415
221.1127	0.2661
221.3292	0.2449
221.5457	0.2387
221.7622	0.2303
221.9787	0.2731
222.1951	0.2472
222.4116	0.2611
222.628	0.2587
222.8444	0.2448
223.0608	0.2451
223.2772	0.2514
223.4936	0.2587
223.71	0.25
223.9264	0.2708
224.1427	0.278
224.3591	0.259
224.5754	0.2831
224.7917	0.2611
225.008	0.2636
225.2243	0.2424
225.4406	0.2816
225.6569	0.2586
225.8732	0.2685
226.0894	0.2699
226.3057	0.277
226.5219	0.2895
226.7381	0.249
226.9543	0.287
227.1705	0.2828
227.3867	0.2728
227.6029	0.294
227.8191	0.2969
228.0352	0.3077
228.2513	0.3218
228.4675	0.3157
228.6836	0.2875
228.8997	0.2937
229.1158	0.3021
229.3319	0.3181
229.548	0.3125
229.764	0.3201
229.9801	0.3238
230.1961	0.3417
230.4121	0.3149
230.6282	0.3406
230.8442	0.3336
231.0602	0.3606
231.2761	0.3465
231.4921	0.3414
231.7081	0.3474
231.924	0.3478
232.14	0.3566
232.3559	0.3592
232.5718	0.3615
232.7877	0.361
233.0036	0.3546
233.2195	0.3442
233.4353	0.3636
233.6512	0.3678
233.867	0.3843
234.0829	0.3658
234.2987	0.3697
234.5145	0.3736
234.7303	0.3733
234.9461	0.3801
235.1619	0.3643
235.3776	0.3982
235.5934	0.3779
235.8091	0.3627
236.0249	0.3684
236.2406	0.3984
236.4563	0.3771
236.672	0.388
236.8877	0.3785
237.1034	0.3911
237.319	0.3858
237.5347	0.397
237.7503	0.3859
237.966	0.4023
238.1816	0.4084
238.3972	0.3886
238.6128	0.3978
238.8284	0.4252
239.0439	0.4147
239.2595	0.4091
239.475	0.4239
239.6906	0.3983
239.9061	0.4074
240.1216	0.3992
240.3371	0.4244
240.5526	0.4006
240.7681	0.4244
240.9836	0.3813
241.199	0.404
241.4145	0.3897
241.6299	0.4019
241.8453	0.3844
242.0607	0.381
242.2761	0.3714
242.4915	0.3601
242.7069	0.3765
242.9223	0.3701
243.1376	0.3752
243.353	0.3432
243.5683	0.353
243.7836	0.339
243.9989	0.3455
244.2142	0.3141
244.4295	0.3383
244.6448	0.3271
244.86	0.3173
245.0753	0.3041
245.2905	0.3052
245.5057	0.2869
245.721	0.2984
245.9362	0.2862
246.1514	0.2797
246.3665	0.27
246.5817	0.267
246.7969	0.265
247.012	0.2678
247.2271	0.244
247.4423	0.2588
247.6574	0.2653
247.8725	0.2347
248.0876	0.2338
248.3026	0.2345
248.5177	0.238
248.7328	0.2326
248.9478	0.2177
249.1628	0.2253
249.3779	0.2317
249.5929	0.2169
249.8079	0.2223
250.0228	0.2048
250.2378	0.2263
250.4528	0.2046
250.6677	0.2
250.8827	0.2119
251.0976	0.2156
251.3125	0.1929
251.5274	0.1887
251.7423	0.1967
251.9572	0.2052
252.172	0.1873
252.3869	0.1797
252.6017	0.1859
252.8166	0.165
253.0314	0.1908
253.2462	0.1841
253.461	0.1826
253.6758	0.1773
253.8906	0.1777
254.1053	0.1764
254.3201	0.1804
254.5348	0.1877
254.7496	0.1895
254.9643	0.1731
255.179	0.1798
255.3937	0.1776
255.6083	0.1767
255.823	0.1839
256.0377	0.1617
256.2523	0.1761
256.467	0.1572
256.6816	0.1783
256.8962	0.1794
257.1108	0.1666
257.3254	0.1799
257.54	0.158
257.7545	0.1723
257.9691	0.1708
258.1836	0.1727
258.3981	0.1847
258.6127	0.1699
258.8272	0.164
259.0417	0.1687
259.2561	0.1587
259.4706	0.1749
259.6851	0.173
259.8995	0.1555
260.114	0.1602
260.3284	0.1655
260.5428	0.1606
260.7572	0.1781
260.9716	0.1688
261.186	0.1639
261.4003	0.1736
261.6147	0.1808
261.829	0.1676
262.0433	0.1674
262.2577	0.1645
262.472	0.1723
262.6863	0.1654
262.9005	0.1667
263.1148	0.1649
263.3291	0.1559
263.5433	0.1742
263.7576	0.1624
263.9718	0.1702
264.186	0.1623
264.4002	0.1721
264.6144	0.159
264.8286	0.1887
265.0427	0.1729
265.2569	0.1645
265.471	0.1683
265.6851	0.1623
265.8993	0.175
266.1134	0.1668
266.3275	0.1659
266.5415	0.1722
266.7556	0.1729
266.9697	0.1699
267.1837	0.1775
267.3978	0.1847
267.6118	0.1789
267.8258	0.1827
268.0398	0.1504
268.2538	0.1715
268.4677	0.1821
268.6817	0.1686
268.8957	0.1676
269.1096	0.165
269.3235	0.1692
269.5374	0.1605
269.7514	0.1641
269.9652	0.1586
270.1791	0.153
270.393	0.1538
270.6068	0.1683
270.8207	0.1585
271.0345	0.1609
271.2483	0.181
271.4622	0.1553
271.676	0.1737
271.8897	0.1472
272.1035	0.153
272.3173	0.154
272.531	0.1515
272.7448	0.1539
272.9585	0.1517
273.1722	0.1595
273.3859	0.1576
273.5996	0.143
273.8133	0.1652
274.0269	0.1523
274.2406	0.1494
274.4542	0.1526
274.6679	0.1508
274.8815	0.1628
275.0951	0.163
275.3087	0.1609
275.5223	0.1646
275.7358	0.155
275.9494	0.1619
276.1629	0.1466
276.3765	0.1474
276.59	0.1615
276.8035	0.1465
277.017	0.1545
277.2305	0.1535
277.444	0.167
277.6574	0.1616
277.8709	0.1565
278.0843	0.1476
278.2978	0.162
278.5112	0.1545
278.7246	0.1602
278.938	0.1545
279.1513	0.1604
279.3647	0.1676
279.5781	0.1543
279.7914	0.1619
280.0047	0.1735
280.2181	0.1565
280.4314	0.1736
280.6447	0.1686
280.8579	0.1714
281.0712	0.1627
281.2845	0.1635
281.4977	0.1638
281.711	0.1642
281.9242	0.1574
282.1374	0.1695
282.3506	0.1656
282.5638	0.1806
282.7769	0.1738
282.9901	0.153
283.2033	0.1679
283.4164	0.1698
283.6295	0.1536
283.8426	0.1616
284.0557	0.168
284.2688	0.1756
284.4819	0.1606
284.695	0.1715
284.908	0.1744
285.1211	0.1509
285.3341	0.1696
285.5471	0.1684
285.7601	0.1737
285.9731	0.1561
286.1861	0.1568
286.3991	0.1666
286.612	0.167
286.825	0.16
287.0379	0.1634
287.2508	0.1559
287.4637	0.1625
287.6766	0.164
287.8895	0.1826
288.1024	0.178
288.3152	0.1668
288.5281	0.1641
288.7409	0.1643
288.9538	0.171
289.1666	0.1571
289.3794	0.1628
289.5922	0.1604
289.8049	0.1636
290.0177	0.158
290.2304	0.1713
290.4432	0.1648
290.6559	0.163
290.8686	0.1696
291.0813	0.1589
291.294	0.1648
291.5067	0.1722
291.7194	0.1704
291.932	0.1761
292.1447	0.1544
292.3573	0.1449
292.5699	0.1641
292.7825	0.1659
292.9951	0.1533
293.2077	0.1579
293.4203	0.1531
293.6328	0.1492
293.8454	0.167
294.0579	0.1542
294.2704	0.154
294.4829	0.163
294.6954	0.1564
294.9079	0.1617
295.1204	0.157
295.3328	0.1553
295.5453	0.153
295.7577	0.1692
295.9701	0.1558
296.1825	0.1586
296.3949	0.1573
296.6073	0.1651
296.8197	0.1512
297.0321	0.164
297.2444	0.1389
297.4567	0.162
297.6691	0.1584
297.8814	0.1557
298.0937	0.1601
298.306	0.1609
298.5182	0.1549
298.7305	0.1637
298.9428	0.15
299.155	0.1582
299.3672	0.1482
299.5794	0.1507
299.7916	0.1449
300.0038	0.1667
300.216	0.162
300.4282	0.1663
300.6403	0.1509
300.8525	0.1644
301.0646	0.1418
301.2767	0.155
301.4888	0.1519
301.7009	0.1598
301.913	0.1583
302.125	0.1612
302.3371	0.149
302.5491	0.1529
302.7612	0.1523
302.9732	0.1547
303.1852	0.1627
303.3972	0.1642
303.6092	0.1543
303.8211	0.1468
304.0331	0.1296
304.245	0.147
304.457	0.1634
304.6689	0.1411
304.8808	0.1591
305.0927	0.1361
305.3046	0.1465
305.5164	0.1479
305.7283	0.1413
305.9401	0.1575
306.152	0.1464
306.3638	0.1551
306.5756	0.1432
306.7874	0.1434
306.9992	0.142
307.2109	0.1504
307.4227	0.125
307.6344	0.1354
307.8462	0.1371
308.0579	0.1318
308.2696	0.1331
308.4813	0.1337
308.693	0.1346
308.9046	0.1414
309.1163	0.1288
309.328	0.1322
309.5396	0.1313
309.7512	0.1195
309.9628	0.1208
310.1744	0.129
310.386	0.1217
310.5976	0.1198
310.8091	0.124
311.0207	0.1188
311.2322	0.1182
311.4437	0.1136
311.6552	0.1231
311.8667	0.1162
312.0782	0.1099
312.2897	0.106
312.5012	0.1175
312.7126	0.1158
312.924	0.1017
313.1355	0.1098
313.3469	0.1129
313.5583	0.1098
313.7696	0.1085
313.981	0.1129
314.1924	0.1025
314.4037	0.1069
314.6151	0.1196
314.8264	0.1009
315.0377	0.1114
315.249	0.1026
315.4603	0.1021
315.6716	0.1074
315.8828	0.0969
316.0941	0.1079
316.3053	0.1035
316.5165	0.1096
316.7277	0.0955
316.9389	0.1136
317.1501	0.1037
317.3613	0.1054
317.5724	0.0925
317.7836	0.1074
317.9947	0.1095
318.2058	0.0919
318.417	0.096
318.6281	0.1061
318.8391	0.1063
319.0502	0.0981
319.2613	0.1155
319.4723	0.112
319.6834	0.1063
319.8944	0.0924
320.1054	0.1071
320.3164	0.1085
320.5274	0.0945
320.7383	0.0943
320.9493	0.1139
321.1602	0.1184
321.3712	0.1024
321.5821	0.1118
321.793	0.1096
322.0039	0.1113
322.2148	0.1049
322.4257	0.1059
322.6365	0.113
322.8474	0.1175
323.0582	0.1033
323.269	0.1211
323.4798	0.1154
323.6906	0.1123
323.9014	0.1066
324.1122	0.1045
324.3229	0.1053
324.5337	0.1079
324.7444	0.1025
324.9551	0.1228
325.1658	0.1177
325.3765	0.1122
325.5872	0.1047
325.7979	0.1077
326.0085	0.1136
326.2192	0.1197
326.4298	0.1217
326.6404	0.1072
326.851	0.0937
327.0616	0.1038
327.2722	0.1076
327.4828	0.1161
327.6933	0.1012
327.9039	0.1202
328.1144	0.125
328.3249	0.1187
328.5354	0.103
328.7459	0.0989
328.9564	0.1062
329.1669	0.1245
329.3773	0.1123
329.5878	0.1056
329.7982	0.1148
330.0086	0.1074
330.219	0.1089
330.4294	0.1127
330.6398	0.126
330.8502	0.0974
331.0605	0.1249
331.2708	0.1219
331.4812	0.1109
331.6915	0.1134
331.9018	0.1073
332.1121	0.1071
332.3224	0.1072
332.5326	0.117
332.7429	0.1067
332.9531	0.1153
333.1633	0.1234
333.3735	0.1148
333.5837	0.1054
333.7939	0.1055
334.0041	0.1184
334.2143	0.1306
334.4244	0.1105
334.6346	0.1115
334.8447	0.1332
335.0548	0.1112
335.2649	0.1158
335.475	0.1354
335.685	0.1045
335.8951	0.1209
336.1051	0.1194
336.3152	0.12
336.5252	0.1138
336.7352	0.1268
336.9452	0.131
337.1552	0.1158
337.3652	0.1128
337.5751	0.1143
337.7851	0.1241
337.995	0.1084
338.2049	0.1182
338.4148	0.1184
338.6247	0.1232
338.8346	0.1226
339.0445	0.1257
339.2543	0.1099
339.4642	0.1169
339.674	0.1181
339.8838	0.1231
340.0936	0.1149
340.3034	0.1307
340.5132	0.1208
340.7229	0.1234
340.9327	0.1257
341.1424	0.1202
341.3522	0.1492
341.5619	0.136
341.7716	0.1259
341.9813	0.1293
342.1909	0.1233
342.4006	0.1401
342.6102	0.1237
342.8199	0.1319
343.0295	0.1319
343.2391	0.1227
343.4487	0.1334
343.6583	0.1264
343.8679	0.1351
344.0774	0.1345
344.287	0.1454
344.4965	0.1317
344.706	0.1331
344.9155	0.1296
345.125	0.1297
345.3345	0.132
345.544	0.1331
345.7534	0.1303
345.9629	0.1349
346.1723	0.1378
346.3817	0.1395
346.5911	0.1296
346.8005	0.1362
347.0099	0.1365
347.2193	0.15
347.4286	0.1304
347.638	0.1426
347.8473	0.1343
348.0566	0.1469
348.2659	0.1536
348.4752	0.1451
348.6845	0.128
348.8937	0.1458
349.103	0.1452
349.3122	0.1258
349.5214	0.1372
349.7306	0.1485
349.9398	0.1469
350.149	0.1535
350.3582	0.1401
350.5674	0.1452
350.7765	0.1449
350.9856	0.1487
351.1948	0.1426
351.4039	0.1224
351.613	0.1331
351.822	0.1503
352.0311	0.1413
352.2402	0.1486
352.4492	0.1551
352.6582	0.1443
352.8672	0.1422
353.0762	0.145
353.2852	0.137
353.4942	0.1403
353.7032	0.154
353.9121	0.1632
354.1211	0.143
354.33	0.143
354.5389	0.1729
354.7478	0.1485
354.9567	0.1561
355.1655	0.1449
355.3744	0.1652
355.5833	0.1614
355.7921	0.1691
356.0009	0.1648
356.2097	0.1734
356.4185	0.1632
356.6273	0.1623
356.8361	0.169
357.0448	0.1521
357.2536	0.15
357.4623	0.1522
357.671	0.1707
357.8797	0.1664
358.0884	0.1742
358.2971	0.16
358.5057	0.1628
358.7144	0.1678
358.923	0.1636
359.1316	0.1799
359.3402	0.1692
359.5488	0.1728
359.7574	0.1646
359.966	0.1708
360.1746	0.1724
360.3831	0.1828
360.5916	0.1684
360.8002	0.1677
361.0087	0.1821
361.2172	0.1532
361.4256	0.171
361.6341	0.17
361.8426	0.1669
362.051	0.1708
362.2594	0.1756
362.4678	0.1816
362.6762	0.202
362.8846	0.1865
363.093	0.1758
363.3014	0.1743
363.5097	0.1597
363.718	0.1767
363.9264	0.1923
364.1347	0.1837
364.343	0.1744
364.5513	0.1847
364.7595	0.1883
364.9678	0.1939
365.176	0.1829
365.3842	0.189
365.5925	0.1858
365.8007	0.2006
366.0089	0.1904
366.217	0.1805
366.4252	0.1919
366.6333	0.2116
366.8415	0.1943
367.0496	0.1921
367.2577	0.2078
367.4658	0.2208
367.6739	0.1999
367.882	0.2157
368.09	0.1912
368.2981	0.207
368.5061	0.1926
368.7141	0.2091
368.9221	0.2145
369.1301	0.2061
369.3381	0.1932
369.5461	0.2077
369.754	0.2055
369.962	0.2109
370.1699	0.1845
370.3778	0.2162
370.5857	0.191
370.7936	0.2037
371.0015	0.2089
371.2093	0.2128
371.4172	0.2124
371.625	0.1917
371.8328	0.2085
372.0406	0.2004
372.2484	0.2007
372.4562	0.2148
372.664	0.2049
372.8717	0.2004
373.0795	0.2038
373.2872	0.2042
373.4949	0.2123
373.7026	0.2164
373.9103	0.2203
374.118	0.2162
374.3256	0.2063
374.5333	0.1947
374.7409	0.2114
374.9485	0.2167
375.1561	0.2061
375.3637	0.2199
375.5713	0.2072
375.7789	0.2106
375.9864	0.2095
376.194	0.2194
376.4015	0.2173
376.609	0.2344
376.8165	0.2186
377.024	0.2084
377.2315	0.2118
377.4389	0.2163
377.6464	0.2104
377.8538	0.216
378.0612	0.2273
378.2686	0.2275
378.476	0.2335
378.6834	0.2194
378.8908	0.2266
379.0981	0.2222
379.3055	0.2239
379.5128	0.199
379.7201	0.2192
379.9274	0.2268
380.1347	0.2202
380.342	0.2369
380.5492	0.2247
380.7565	0.2208
380.9637	0.2109
381.1709	0.2392
381.3781	0.2195
381.5853	0.2357
381.7925	0.2256
381.9997	0.2244
382.2068	0.2414
382.4139	0.2386
382.6211	0.2252
382.8282	0.2307
383.0353	0.229
383.2424	0.23
383.4494	0.2426
383.6565	0.2391
383.8635	0.2334
384.0706	0.2263
384.2776	0.2238
384.4846	0.2231
384.6916	0.232
384.8986	0.2291
385.1055	0.2337
385.3125	0.222
385.5194	0.2094
385.7263	0.2378
385.9333	0.2311
386.1402	0.222
386.347	0.2227
386.5539	0.224
386.7608	0.2216
386.9676	0.2126
387.1744	0.2375
387.3813	0.223
387.5881	0.2227
387.7948	0.2322
388.0016	0.2202
388.2084	0.2355
388.4151	0.2137
388.6219	0.2217
388.8286	0.2191
389.0353	0.2299
389.242	0.2195
389.4487	0.228
389.6553	0.219
389.862	0.1944
390.0686	0.2117
390.2753	0.2271
390.4819	0.2213
390.6885	0.2076
390.8951	0.2344
391.1016	0.2244
391.3082	0.2136
391.5147	0.2185
391.7213	0.2039
391.9278	0.2106
392.1343	0.2064
392.3408	0.207
392.5473	0.2145
392.7537	0.2053
392.9602	0.2115
393.1666	0.197
393.373	0.2067
393.5794	0.2059
393.7858	0.2012
393.9922	0.1921
394.1986	0.2098
394.4049	0.1957
394.6113	0.1916
394.8176	0.1861
395.0239	0.199
395.2302	0.2038
395.4365	0.2001
395.6428	0.1908
395.8491	0.1902
396.0553	0.2025
396.2615	0.1983
396.4678	0.1965
396.674	0.183
396.8802	0.1862
397.0863	0.211
397.2925	0.198
397.4987	0.1778
397.7048	0.187
397.9109	0.1837
398.117	0.1782
398.3231	0.192
398.5292	0.195
398.7353	0.1851
398.9413	0.1854
399.1474	0.1819
399.3534	0.1868
399.5594	0.1771
399.7654	0.2068
399.9714	0.1955
400.1774	0.2034
400.3833	0.1711
400.5893	0.1899
400.7952	0.1969
401.0011	0.1985
401.207	0.1991
401.4129	0.1934
401.6188	0.1897
401.8247	0.184
402.0305	0.1658
402.2364	0.1852
402.4422	0.2081
402.648	0.1858
402.8538	0.1982
403.0596	0.1726
403.2654	0.1994
403.4711	0.1756
403.6768	0.1954
403.8826	0.1967
404.0883	0.1773
404.294	0.1966
404.4997	0.183
404.7054	0.1571
404.911	0.1824
405.1167	0.1927
405.3223	0.1943
405.5279	0.1932
405.7335	0.1921
405.9391	0.2013
406.1447	0.1759
406.3502	0.1995
406.5558	0.1922
406.7613	0.1916
406.9668	0.1989
407.1724	0.1791
407.3778	0.1854
407.5833	0.1771
407.7888	0.1897
407.9942	0.1911
408.1997	0.1911
408.4051	0.1711
408.6105	0.1853
408.8159	0.1803
409.0213	0.1776
409.2267	0.1928
409.432	0.1629
409.6374	0.183
409.8427	0.1839
410.048	0.1936
410.2533	0.1795
410.4586	0.1825
410.6639	0.1663
410.8691	0.1642
411.0744	0.1727
411.2796	0.1712
411.4848	0.1862
411.69	0.1862
411.8952	0.2095
412.1004	0.1595
412.3056	0.1897
412.5107	0.1709
412.7158	0.1862
412.921	0.1825
413.1261	0.162
413.3312	0.1747
413.5362	0.1571
413.7413	0.1734
413.9464	0.1598
414.1514	0.1878
414.3564	0.173
414.5614	0.1606
414.7664	0.1752
414.9714	0.1868
415.1764	0.1746
415.3813	0.2076
415.5863	0.1824
415.7912	0.1742
415.9961	0.1784
416.201	0.1775
416.4059	0.1711
416.6108	0.1692
416.8156	0.187
417.0205	0.1778
417.2253	0.1632
417.4301	0.1751
417.6349	0.1836
417.8397	0.1709
418.0445	0.1833
418.2492	0.1654
418.454	0.1771
418.6587	0.1716
418.8634	0.1702
419.0681	0.167
419.2728	0.1732
419.4775	0.1623
419.6822	0.1559
419.8868	0.1527
420.0915	0.1507
420.2961	0.1587
420.5007	0.1651
420.7053	0.1709
420.9099	0.172
421.1144	0.1782
421.319	0.1513
421.5235	0.1617
421.728	0.1569
421.9325	0.1669
422.137	0.1677
422.3415	0.1558
422.546	0.1543
422.7504	0.1678
422.9549	0.165
423.1593	0.1609
423.3637	0.1704
423.5681	0.1624
423.7725	0.1583
423.9769	0.1426
424.1812	0.1625
424.3856	0.1658
424.5899	0.1657
424.7942	0.1483
424.9985	0.1564
425.2028	0.1497
425.4071	0.1584
425.6113	0.1274
425.8156	0.1591
426.0198	0.1578
426.224	0.1372
426.4282	0.1506
426.6324	0.1473
426.8366	0.1483
427.0407	0.1511
427.2449	0.1396
427.449	0.1399
427.6531	0.1283
427.8572	0.144
428.0613	0.1456
428.2654	0.1443
428.4694	0.131
428.6735	0.1393
428.8775	0.1531
429.0815	0.1335
429.2855	0.1262
429.4895	0.1285
429.6935	0.1358
429.8975	0.1471
430.1014	0.1248
430.3053	0.1059
430.5093	0.1359
430.7132	0.1087
430.9171	0.1068
431.1209	0.1219
431.3248	0.1083
431.5286	0.1193
431.7325	0.1193
431.9363	0.1191
432.1401	0.1136
432.3439	0.1149
432.5477	0.092
432.7514	0.1072
432.9552	0.1155
433.1589	0.0979
433.3627	0.0973
433.5664	0.0932
433.7701	0.0919
433.9737	0.106
434.1774	0.1045
434.3811	0.0919
434.5847	0.107
434.7883	0.0916
434.9919	0.0888
435.1955	0.0798
435.3991	0.0961
435.6027	0.0879
435.8062	0.0866
436.0098	0.0811
436.2133	0.0982
436.4168	0.0841
436.6203	0.0993
436.8238	0.0929
437.0272	0.0894
437.2307	0.0891
437.4341	0.1031
437.6375	0.0867
437.841	0.0658
438.0443	0.0853
438.2477	0.073
438.4511	0.0804
438.6545	0.0758
438.8578	0.0832
439.0611	0.0697
439.2644	0.0703
439.4677	0.0732
439.671	0.06
439.8743	0.0696
440.0775	0.0679
440.2808	0.06
440.484	0.0604
440.6872	0.0557
440.8904	0.0422
441.0936	0.0816
441.2967	0.057
441.4999	0.0601
441.703	0.054
441.9062	0.0495
442.1093	0.0479
442.3124	0.0603
442.5155	0.028
442.7185	0.0482
442.9216	0.0328
443.1246	0.0441
443.3276	0.0504
443.5307	0.0346
443.7337	0.0578
443.9366	0.0557
444.1396	0.0518
444.3426	0.049
444.5455	0.053
444.7484	0.0519
444.9513	0.0391
445.1542	0.0497
445.3571	0.0379
445.56	0.0421
445.7628	0.0293
445.9657	0.042
446.1685	0.0342
446.3713	0.0355
446.5741	0.036
446.7769	0.0263
446.9797	0.0457
447.1824	0.0337
447.3852	0.0153
447.5879	0.0368
447.7906	0.0371
447.9933	0.0369
448.196	0.0226
448.3986	0.0304
448.6013	0.0129
448.8039	0.01
449.0066	0.0329
449.2092	0.0343
449.4118	0.0352
449.6143	0.0279
449.8169	0.022
450.0195	0.0179
450.222	0.0064
450.4245	0.0188
450.627	0.0094
450.8295	0.0218
451.032	0.0227
451.2345	0.0181
451.4369	0.0199
451.6394	0.0385
451.8418	-0.0082
452.0442	0.0054
452.2466	0.0236
452.449	0.0001
452.6513	0.0046
452.8537	0.0219
453.056	-0.0046
453.2583	0.0261
453.4607	0.01
453.663	0.0041
453.8652	0.0122
454.0675	-0.0035
454.2697	0.0203
454.472	-0.0004
454.6742	0.0119
454.8764	0.0074
455.0786	0.0209
455.2808	0.0024
455.4829	0.0136
455.6851	0.0275
455.8872	0.0096
456.0893	0.0119
456.2915	-0.0092
456.4935	0.0046
456.6956	0.0105
456.8977	0.0254
457.0997	0.0042
457.3018	0.0057
457.5038	0.0135
457.7058	0.0014
457.9078	0.0048
458.1098	0.0072
458.3117	0.0106
458.5137	-0.0018
458.7156	0.0125
458.9175	0.0009
459.1194	0.0104
459.3213	0.0008
459.5232	0.0068
459.725	0.0009
459.9269	-0.0085
460.1287	-0.0029
460.3305	0.0132
460.5323	0.0035
460.7341	0.0047
460.9359	-0.0066
461.1376	0.0089
461.3394	-0.0004
461.5411	0.0132
461.7428	0.0047
461.9445	0.0118
462.1462	0.0193
462.3479	-0.0068
462.5495	0.0027
462.7512	0.0156
462.9528	0.0012
463.1544	-0.0281
463.356	0.0069
463.5576	0.0006
463.7592	0.0112
463.9607	0.0093
464.1623	-0.0069
464.3638	0.0126
464.5653	0.0004
464.7668	0.012
464.9683	0.0031
465.1697	0.0168
465.3712	-0.0164
465.5726	-0.0165
465.7741	-0.0011
465.9755	-0.0171
466.1769	-0.0119
466.3782	-0.0129
466.5796	-0.0244
466.7809	0.0021
466.9823	-0.0125
467.1836	-0.0037
467.3849	-0.0043
467.5862	-0.0007
467.7875	-0.002
467.9887	0.0089
468.19	-0.0055
468.3912	-0.0122
468.5924	-0.0125
468.7936	-0.0041
468.9948	0.0096
469.196	-0.0086
469.3972	-0.0128
469.5983	-0.0006
469.7994	-0.0163
470.0006	-0.0045
470.2017	-0.0221
470.4027	-0.0133
470.6038	-0.0034
470.8049	-0.0224
471.0059	-0.0123
471.2069	-0.0375
471.408	-0.006
471.6089	-0.0056
471.8099	-0.0094
472.0109	-0.0121
472.2119	-0.0125
472.4128	-0.0189
472.6137	-0.0035
472.8146	-0.0129
473.0155	-0.0141
473.2164	-0.0081
473.4173	0.0055
473.6181	0.0049
473.819	-0.0016
474.0198	-0.0071
474.2206	-0.0059
474.4214	-0.0059
474.6222	-0.0011
474.8229	-0.014
475.0237	-0.0173
475.2244	-0.0094
475.4251	-0.0188
475.6258	-0.0084
475.8265	-0.005
476.0272	-0.0032
476.2278	-0.0092
476.4285	-0.0101
476.6291	-0.0032
476.8297	-0.0065
477.0303	-0.0181
477.2309	-0.0053
477.4315	-0.017
477.632	-0.0188
477.8326	-0.0147
478.0331	-0.0049
478.2336	-0.0079
478.4341	-0.0011
478.6346	-0.0125
478.8351	-0.0005
479.0355	-0.0023
479.236	-0.026
479.4364	-0.0025
479.6368	-0.0009
479.8372	-0.0091
480.0376	-0.0076
480.2379	-0.019
480.4383	-0.0085
480.6386	-0.0015
480.8389	-0.0074
481.0392	-0.0116
481.2395	-0.0108
481.4398	0.0037
481.6401	0.0011
481.8403	-0.0103
482.0405	-0.0096
482.2408	-0.0052
482.441	0.0088
482.6411	-0.0111
482.8413	0.0035
483.0415	-0.0097
483.2416	-0.0117
483.4417	-0.005
483.6419	-0.0085
483.8419	-0.011
484.042	0.0081
484.2421	-0.0074
484.4422	-0.0174
484.6422	-0.009
484.8422	-0.0082
485.0422	-0.0127
485.2422	-0.0042
485.4422	-0.0103
485.6422	-0.0122
485.8421	-0.0076
486.042	-0.0081
486.242	-0.0102
486.4419	-0.0113
486.6417	-0.0052
486.8416	-0.0134
487.0415	-0.0062
487.2413	-0.0143
487.4411	-0.0077
487.641	-0.0085
487.8408	-0.0095
488.0405	-0.0112
488.2403	-0.0073
488.4401	-0.0061
488.6398	-0.006
488.8395	-0.0094
489.0392	0.0015
489.2389	-0.0131
489.4386	-0.0126
489.6383	0.0002
489.8379	-0.0046
490.0376	0.0011
490.2372	-0.0128
490.4368	-0.0097
490.6364	-0.0194
490.836	-0.0146
491.0355	-0.0157
491.2351	-0.0161
491.4346	-0.0009
491.6341	-0.0187
491.8336	0.0011
492.0331	-0.0218
492.2326	-0.0084
492.432	-0.0086
492.6315	-0.0101
492.8309	-0.0074
493.0303	-0.011
493.2297	-0.0185
493.4291	-0.0051
493.6284	-0.005
493.8278	-0.0076
494.0271	-0.0071
494.2264	0.0001
494.4257	-0.0166
494.625	-0.0139
494.8243	-0.0197
495.0236	-0.0136
495.2228	-0.0186
495.422	-0.0056
495.6213	-0.0076
495.8205	-0.0194
496.0196	-0.0108
496.2188	0.0014
496.418	-0.0216
496.6171	-0.0161
496.8162	-0.0068
497.0153	-0.0112
497.2144	-0.0142
497.4135	-0.0037
497.6126	-0.0208
497.8116	-0.0169
498.0107	-0.0067
498.2097	-0.0149
498.4087	-0.0264
498.6077	-0.0084
498.8067	-0.0146
499.0056	-0.0003
499.2046	-0.0093
499.4035	-0.0239
499.6024	-0.0116
499.8013	-0.0049
500.0002	-0.0146
500.199	-0.0089
500.3979	-0.0199
500.5967	-0.0223
500.7956	-0.0013
500.9944	-0.0098
501.1932	-0.0132
501.3919	-0.0178
501.5907	-0.0187
501.7895	-0.0172
501.9882	-0.015
502.1869	-0.0114
502.3856	-0.0114
502.5843	-0.0154
502.783	-0.015
502.9816	-0.0211
503.1803	-0.0216
503.3789	-0.0173
503.5775	-0.0145
503.7761	-0.0116
503.9747	-0.0008
504.1732	-0.0065
504.3718	0.0001
504.5703	-0.0122
504.7689	-0.0144
504.9674	-0.0041
505.1658	-0.0045
505.3643	-0.0141
505.5628	-0.0128
505.7612	-0.01
505.9597	0.009
506.1581	-0.0148
506.3565	-0.0037
506.5549	-0.0049
506.7532	-0.0225
506.9516	-0.0074
507.1499	-0.0123
507.3482	-0.0058
507.5465	-0.0134
507.7448	-0.0111
507.9431	-0.0118
508.1414	-0.0022
508.3396	-0.0143
508.5379	-0.0108
508.7361	-0.0075
508.9343	-0.0094
509.1325	-0.0081
509.3306	-0.0099
509.5288	-0.0043
509.7269	-0.0136
509.9251	-0.0073
510.1232	-0.0139
510.3213	-0.0012
510.5193	-0.0023
510.7174	-0.0073
510.9154	-0.0161
511.1135	-0.0056
511.3115	-0.0119
511.5095	-0.0115
511.7075	-0.0187
511.9055	-0.0079
512.1034	-0.0184
512.3014	-0.0067
512.4993	-0.0034
512.6972	-0.0168
512.8951	-0.0245
513.093	-0.0074
513.2908	-0.0103
513.4887	-0.0108
513.6865	-0.0096
513.8844	-0.0184
514.0822	-0.0226
514.2799	-0.0179
514.4777	-0.0151
514.6755	-0.0152
514.8732	-0.0115
515.0709	-0.0169
515.2687	-0.0129
515.4664	-0.0133
515.664	-0.0089
515.8617	-0.0055
516.0594	-0.0177
516.257	-0.0022
516.4546	-0.018
516.6522	-0.0056
516.8498	-0.0017
517.0474	0.0056
517.2449	-0.0029
517.4425	-0.0196
517.64	-0.0067
517.8375	-0.0089
518.035	-0.0104
518.2325	-0.0086
518.43	-0.0133
518.6274	-0.0026
518.8249	-0.0168
519.0223	0.0004
519.2197	-0.0104
519.4171	-0.0046
519.6145	-0.0112
519.8118	-0.0026
520.0092	-0.0153
520.2065	-0.0183
520.4038	-0.0166
520.6011	-0.0036
520.7984	-0.0099
520.9956	-0.0107
521.1929	-0.0153
521.3901	-0.0036
521.5874	-0.0146
521.7846	-0.001
521.9818	-0.0154
522.1789	-0.0205
522.3761	-0.0091
522.5732	-0.0139
522.7704	-0.012
522.9675	-0.0113
523.1646	-0.0247
523.3617	0.0001
523.5587	-0.0102
523.7558	-0.0075
523.9528	-0.0108
524.1498	-0.0105
524.3468	-0.0089
524.5438	-0.0147
524.7408	-0.0094
524.9378	-0.0024
525.1347	-0.0088
525.3316	-0.0046
525.5285	-0.021
525.7254	-0.0116
525.9223	-0.0067
526.1192	-0.0052
526.316	-0.0174
526.5129	-0.0066
526.7097	-0.0086
526.9065	-0.0018
527.1033	-0.0077
527.3	-0.0048
527.4968	-0.0025
527.6935	-0.0057
527.8903	-0.0122
528.087	-0.0132
528.2837	-0.0059
528.4804	-0.0088
528.677	-0.0125
528.8737	0.0039
529.0703	-0.0011
529.2669	-0.014
529.4635	-0.0155
529.6601	-0.007
529.8567	-0.0037
530.0532	-0.0055
530.2498	-0.0076
530.4463	-0
530.6428	-0.0111
530.8393	-0.0008
531.0358	-0.0049
531.2322	-0.0103
531.4287	-0.0045
531.6251	-0.0081
531.8215	0.0117
532.0179	0.0039
532.2143	0.006
532.4107	-0.009
532.607	-0.0082
532.8034	-0.0008
532.9997	-0.0085
533.196	-0.0054
533.3923	-0.0079
533.5886	0.0024
533.7848	-0.0074
533.9811	-0.0134
534.1773	-0.0101
534.3735	0.0027
534.5697	-0.0041
534.7659	-0.0008
534.9621	0.0021
535.1582	-0.0111
535.3544	-0.0116
535.5505	-0.0136
535.7466	-0.0003
535.9427	-0.0073
536.1387	-0.0086
536.3348	-0.0101
536.5308	-0.003
536.7269	-0.012
536.9229	-0
537.1189	0
537.3148	-0.0101
537.5108	-0.019
537.7068	0.0004
537.9027	-0.0015
538.0986	-0.0138
538.2945	-0.0084
538.4904	-0.0109
538.6863	-0.0019
538.8821	-0.0104
539.078	-0.0137
539.2738	-0.0006
539.4696	-0.0026
539.6654	0.0011
539.8611	0.0069
540.0569	-0.009
540.2526	-0.0081
540.4484	-0.0073
540.6441	-0.001
540.8398	-0.0061
541.0355	-0.0066
541.2311	-0.0099
541.4268	-0.0071
541.6224	-0.0023
541.818	-0.0012
542.0136	-0.007
542.2092	-0.0068
542.4048	-0.004
542.6003	0.0004
542.7959	-0.0091
542.9914	-0.0064
543.1869	-0.0062
543.3824	0.0026
543.5779	-0.0038
543.7734	-0.002
543.9688	-0.0144
544.1642	0.0003
544.3596	0.0053
544.555	-0.0157
544.7504	-0.0057
544.9458	0.0019
545.1411	-0.0035
545.3365	-0.0029
545.5318	-0.0046
545.7271	-0.0026
545.9224	-0.0041
546.1177	-0.0024
546.3129	-0.0007
546.5081	-0.014
546.7034	-0.004
546.8986	-0.0131
547.0938	-0.0132
547.289	-0.0078
547.4841	-0.0038
547.6793	0.002
547.8744	-0.006
548.0695	-0
548.2646	-0.0106
548.4597	0.0051
548.6548	0.0016
548.8498	0.0015
549.0448	0.001
549.2399	-0.0053
549.4349	0.0053
549.6298	0.0083
549.8248	0.0007
550.0198	-0.0016
550.2147	-0.0057
550.4096	-0.0041
550.6045	-0.0023
550.7994	0.002
550.9943	-0.0003
551.1892	-0.0009
551.384	0.0054
551.5788	-0.0056
551.7737	-0.0046
551.9685	0.0011
552.1632	0.0016
552.358	-0.0092
552.5528	-0.0008
552.7475	-0.0022
552.9422	0.0058
553.1369	-0.0072
553.3316	-0.0015
553.5263	-0.0097
553.7209	0.006
553.9156	-0.0085
554.1102	-0.007
554.3048	0
554.4994	0.0082
554.694	-0.008
554.8885	0.0064
555.0831	-0.0137
555.2776	-0.004
555.4721	-0.0097
555.6666	-0.0059
555.8611	0.0071
556.0555	-0.008
556.25	-0.0017
556.4444	-0.0086
556.6388	0.0011
556.8332	-0.0011
557.0276	-0.0036
557.222	-0.0009
557.4163	0.0028
557.6107	-0.0072
557.805	0.0008
557.9993	-0.0039
558.1936	0.0015
558.3879	0.0006
558.5821	0.0089
558.7764	-0.0094
558.9706	-0.0024
559.1648	0.0096
559.359	-0.0028
559.5532	-0.0065
559.7473	-0.0009
559.9415	-0.0017
560.1356	-0.0124
560.3297	-0.0094
560.5238	-0.0058
560.7179	-0.0042
560.9119	0.0037
561.106	-0.0066
561.3	-0.0057
561.494	-0.0019
561.688	-0.0179
561.882	-0.012
562.076	-0.0029
562.2699	0.0033
562.4639	-0.0108
562.6578	0.0038
562.8517	-0.0044
563.0456	-0.0001
563.2395	0.0042
563.4333	0.001
563.6272	0.0058
563.821	-0.0059
564.0148	0.0029
564.2086	-0.0056
564.4024	-0.008
564.5961	-0.0094
564.7899	0.008
564.9836	-0.0086
565.1773	-0.0033
565.371	0.0054
565.5647	0.0076
565.7584	0.0018
565.952	-0.0071
566.1456	0.0047
566.3393	-0.0101
566.5329	-0.0061
566.7264	-0.0035
566.92	0.0005
567.1136	0.0018
567.3071	-0.0069
567.5006	-0.0074
567.6941	0.0006
567.8876	-0.0089
568.0811	-0.0017
568.2745	0.0044
568.468	0.0103
568.6614	0.0005
568.8548	0.0022
569.0482	0.0012
569.2416	-0.0024
569.4349	0.0013
569.6283	-0.0012
569.8216	0.0024
570.0149	-0.0076
570.2082	0.0054
570.4015	0.0053
570.5947	0.0067
570.788	-0.0023
570.9812	0.0035
571.1744	-0.0023
571.3676	-0.0022
571.5608	-0.0037
571.754	-0.0021
571.9471	-0.0017
572.1402	-0.0015
572.3333	-0.0073
572.5264	-0.0052
572.7195	-0.0026
572.9126	0.0012
573.1057	-0.0011
573.2987	-0.0082
573.4917	0.0012
573.6847	-0.0104
573.8777	0.0037
574.0707	0.0046
574.2636	-0.0031
574.4566	-0.0027
574.6495	0.0082
574.8424	0.003
575.0353	0.0038
575.2281	0.0008
575.421	0.0093
575.6138	0.0034
575.8067	-0.0068
575.9995	-0.004
576.1923	-0.0019
576.385	-0.0047
576.5778	-0.0083
576.7706	0.0003
576.9633	-0.0038
577.156	0.0025
577.3487	-0.004
577.5414	-0.0039
577.734	-0.0045
577.9267	0.0004
578.1193	-0.0144
578.3119	-0.0023
578.5045	-0.0025
578.6971	-0.0057
578.8897	0.0009
579.0822	-0.0002
579.2747	0.0001
579.4673	-0.0083
579.6598	-0.0048
579.8522	-0.0057
580.0447	-0.006
580.2372	-0.0054
580.4296	-0.0025
580.622	0
580.8144	-0.0035
581.0068	-0.0099
581.1992	-0.0182
581.3915	-0.0062
581.5839	-0.0116
581.7762	-0.01
581.9685	-0.005
582.1608	0.0033
582.353	-0.004
582.5453	-0.0034
582.7375	-0.0005
582.9298	-0.0058
583.122	-0.0049
583.3142	-0.0031
583.5063	-0.0072
583.6985	0.0006
583.8906	-0.0087
584.0827	-0.0076
584.2749	0.0037
584.4669	-0.0056
584.659	-0.0091
584.8511	-0.001
585.0431	-0.001
585.2352	-0.0028
585.4272	-0.0029
585.6192	-0.0019
585.8111	0.0009
586.0031	0.0005
586.195	-0.0033
586.387	0.0102
586.5789	-0.0039
586.7708	-0.0017
586.9627	-0.0029
587.1545	-0.0067
587.3464	0.0035
587.5382	0.0044
587.73	0.0011
587.9218	-0.0012
588.1136	-0.0022
588.3053	0.0059
588.4971	-0.0066
588.6888	-0.0117
588.8805	-0.0028
589.0722	0.0014
589.2639	0.0022
589.4556	0.0003
589.6472	-0.0075
589.8389	-0.0158
590.0305	-0.0112
590.2221	-0.0095
590.4137	-0.0095
590.6052	0.0081
590.7968	-0.0037
590.9883	0.0007
591.1798	-0.0036
591.3713	-0.0014
591.5628	0.0037
591.7543	0.0051
591.9458	0.0006
592.1372	0.0008
592.3286	0.0061
592.52	0.0066
592.7114	-0.0052
592.9028	-0.0011
593.0941	-0.0038
593.2855	-0.0016
593.4768	-0.0089
593.6681	-0.0124
593.8594	-0.0092
594.0506	-0.0061
594.2419	0.0041
594.4331	0.0035
594.6244	0.0028
594.8156	-0.0107
595.0067	0.0002
595.1979	0.0008
595.3891	-0.0022
595.5802	-0.003
595.7713	0
595.9624	0.003
596.1535	0.0043
596.3446	0.0023
596.5357	0.0002
596.7267	0.0084
596.9177	0.0031
597.1087	0.0016
597.2997	0.0004
597.4907	0.0099
597.6817	0.0009
597.8726	-0.001
598.0635	-0.0024
598.2544	-0.0002
598.4453	-0.0007
598.6362	-0.004
598.827	-0.0066
599.0179	0.0036
599.2087	0.0041
599.3995	0.0022
599.5903	0.0026
599.7811	0.0045
599.9718	0.0044
600.1626	-0.0014
600.3533	-0.0065
600.544	0.0043
600.7347	0.0015
600.9254	0.0006
601.116	-0.0063
601.3067	0.0008
601.4973	-0.0012
601.6879	0.0037
601.8785	-0.0009
602.0691	0.0065
602.2596	0.0052
602.4502	0.0037
602.6407	0.002
602.8312	0.008
603.0217	-0.0089
603.2122	-0.0006
603.4027	0.002
603.5931	0.0015
603.7835	-0.0047
603.9739	-0.0035
604.1643	-0.0032
604.3547	-0.0076
604.5451	0.0047
604.7354	-0.0046
604.9257	0.0013
605.116	-0.0021
605.3063	0.0038
605.4966	0.0004
605.6869	0.0015
605.8771	0.005
606.0673	0.0033
606.2575	0.0047
606.4477	0.0026
606.6379	-0.0013
606.8281	0.0041
607.0182	-0.0019
607.2083	0.0081
607.3985	0.0008
607.5885	0.0016
607.7786	-0.0013
607.9687	-0.0072
608.1587	0.0003
608.3488	0.0036
608.5388	-0.0009
608.7288	-0.0004
608.9187	-0.0064
609.1087	-0.0055
609.2986	-0.0065
609.4886	0.0004
609.6785	0.0005
609.8684	-0.0009
610.0582	-0.0026
610.2481	0.0039
610.4379	-0.0049
610.6278	-0.0075
610.8176	-0.0034
611.0074	-0.0093
611.1971	-0.0036
611.3869	-0.0019
611.5766	-0.0095
611.7664	0.0044
611.9561	0.0039
612.1458	-0.0016
612.3354	-0.0066
612.5251	-0.008
612.7147	0.0061
612.9044	0.0084
613.094	-0.0038
613.2836	-0.0007
613.4731	-0.0053
613.6627	-0.0015
613.8522	0.0055
614.0417	0.0052
614.2313	0.0031
614.4207	-0.0014
614.6102	-0.0005
614.7997	-0.0045
614.9891	-0.0066
615.1785	-0.0017
615.3679	-0.0078
615.5573	0.0072
615.7467	-0.0021
615.9361	-0.0021
616.1254	-0.0041
616.3147	-0.0026
616.504	0.0017
616.6933	0.0036
616.8826	-0.0044
617.0718	0.0003
617.2611	0.0067
617.4503	-0.0016
617.6395	-0.0051
617.8287	0.0003
618.0179	-0.0046
618.207	0.0027
618.3961	0.0017
618.5853	0.0077
618.7744	0.0011
618.9634	0.0009
619.1525	0.0033
619.3416	0.0087
619.5306	0.0038
619.7196	-0.0003
619.9086	0.0031
620.0976	0.0039
620.2866	0.0015
620.4755	-0.0001
620.6645	0.0048
620.8534	0.0012
621.0423	0.0021
621.2312	0.0091
621.42	0.0022
621.6089	-0.0061
621.7977	0.0059
621.9865	-0.006
622.1753	0.0064
622.3641	-0.0052
622.5529	0.0047
622.7416	0.0025
622.9303	-0.0029
623.1191	-0.0016
623.3078	-0.0087
623.4964	0.0043
623.6851	-0.0027
623.8737	0.0004
624.0624	0.0012
624.251	-0.006
624.4396	-0.0028
624.6282	-0.0058
624.8167	-0.0007
625.0053	0.001
625.1938	0.0018
625.3823	0.0021
625.5708	0.0041
625.7593	-0.0003
625.9477	0.0007
626.1362	-0.0042
626.3246	0.0056
626.513	0.0088
626.7014	0.0141
626.8898	0.0043
627.0781	-0.0013
627.2665	-0.0045
627.4548	0.0104
627.6431	-0.0013
627.8314	0.0011
628.0197	0.0058
628.2079	-0.0113
628.3962	-0.002
628.5844	0.0042
628.7726	0.0091
628.9608	0.0115
629.1489	0.0079
629.3371	0.0082
629.5252	-0.0012
629.7134	0.0112
629.9015	0.0015
630.0895	-0.0017
630.2776	0.0084
630.4657	0.0011
630.6537	0.004
630.8417	-0.0023
631.0297	0
631.2177	0.002
631.4057	-0.0051
631.5936	0.0027
631.7815	-0.0027
631.9695	0.0055
632.1574	0.0079
632.3452	0.0139
632.5331	0.001
632.7209	-0.0014
632.9088	0.0108
633.0966	0.0041
633.2844	-0.0007
633.4722	0.0021
633.6599	0.0078
633.8477	0.009
634.0354	0.0049
634.2231	-0.001
634.4108	0.0036
634.5985	0.0042
634.7861	0.0077
634.9738	0.0049
635.1614	0.0065
635.349	-0.0027
635.5366	-0.0006
635.7242	-0.0039
635.9117	0.005
636.0993	0
636.2868	0.0011
636.4743	-0.0092
636.6618	0.0075
636.8492	0.0017
637.0367	0.0031
637.2241	-0.0006
637.4115	-0.0059
637.5989	-0.0052
637.7863	-0.0015
637.9737	-0.0016
638.161	-0.0004
638.3484	0.0007
638.5357	0.0056
638.723	0.0076
638.9103	0.0009
639.0975	0.007
639.2848	0.0011
639.472	-0.0003
639.6592	0.0014
639.8464	0.0067
640.0336	0.0117
640.2208	-0.0025
640.4079	-0.0042
640.595	-0.0009
640.7821	0.0053
640.9692	0.0036
641.1563	-0.0001
641.3434	0.0159
641.5304	-0.0036
641.7174	0.0009
641.9044	0.0029
642.0914	0.0078
642.2784	0.0068
642.4653	0.0088
642.6523	0.0047
642.8392	0.0022
643.0261	0.0004
643.213	0.0038
643.3999	-0.0007
643.5867	0.0031
643.7735	0.0062
643.9604	0.0018
644.1472	0.0032
644.3339	0.003
644.5207	0.0034
644.7075	-0.0073
644.8942	0.0025
645.0809	0.0116
645.2676	0.0087
645.4543	0.002
645.6409	0.0142
645.8276	0.0029
646.0142	0.0083
646.2008	-0.0074
646.3874	0.0051
646.574	0.0037
646.7605	0.0028
646.9471	-0.0098
647.1336	0.0038
647.3201	0.0078
647.5066	-0.0025
647.6931	0.0038
647.8795	-0.0012
648.0659	0.0031
648.2524	0.0048
648.4388	-0.002
648.6252	0.0008
648.8115	-0.0013
648.9979	0.0004
649.1842	0.0001
649.3705	0.0009
649.5568	0.006
649.7431	0.0049
649.9294	0
650.1156	0.0059
650.3018	-0.0092
650.488	0.0021
650.6742	0.0044
650.8604	0.0022
651.0466	-0.0025
651.2327	0.0036
651.4188	0.0062
651.6049	-0.0018
651.791	-0.0006
651.9771	0.0077
652.1632	0.0075
652.3492	0.0033
652.5352	0.0013
652.7212	0.0016
652.9072	0.0049
653.0932	0.0044
653.2791	-0.0044
653.465	-0.0004
653.651	0.002
653.8369	-0.0024
654.0227	-0.0026
654.2086	0.0036
654.3944	-0.0002
654.5803	0.0022
654.7661	-0.0028
654.9519	0.0013
655.1377	-0.0015
655.3234	-0.002
655.5092	-0.0104
655.6949	-0.0024
655.8806	-0.0067
656.0663	-0.0028
656.2519	-0.0031
656.4376	-0.0059
656.6232	-0.0003
656.8088	0.0064
656.9945	0.0049
657.18	0.0076
657.3656	0.0032
657.5511	-0.0025
657.7367	-0.0031
657.9222	0.0057
658.1077	-0.0043
658.2932	0.0038
658.4786	-0.008
658.6641	-0.0013
658.8495	0.0013
659.0349	-0.0013
659.2203	0.007
659.4057	0.0054
659.591	0.0037
659.7764	0.0017
659.9617	0.0076
660.147	0.0043
660.3323	0.0044
660.5176	0.0144
660.7028	0.0084
660.888	0.008
661.0733	0.0105
661.2585	0.0038
661.4436	0.0056
661.6288	0.0066
661.8139	0.0005
661.9991	0.0042
662.1842	0.008
662.3693	0.0036
662.5544	-0.0002
662.7394	0.0005
662.9245	-0.0027
663.1095	-0.0001
663.2945	0.0034
663.4795	-0.0054
663.6644	0.002
663.8494	0.0036
664.0343	0.0031
664.2193	-0.0084
664.4042	-0.006
664.589	-0.0064
664.7739	-0.0069
664.9587	-0.0077
665.1436	-0.0079
665.3284	0.0043
665.5132	-0.0021
665.698	-0.0053
665.8827	-0.0004
666.0675	0.0049
666.2522	-0.0081
666.4369	-0.0015
666.6216	0.0097
666.8063	-0.0004
666.9909	0.0038
667.1756	0.0064
667.3602	0.002
667.5448	0.0036
667.7294	0.0082
667.9139	-0.0002
668.0985	0.0117
668.283	-0.0015
668.4675	0.0033
668.652	-0.0012
668.8365	-0.0019
669.0209	0.0079
669.2054	0.0048
669.3898	0.0054
669.5742	0.0064
669.7586	0.0067
669.943	0.0129
670.1273	0.0027
670.3117	0.009
670.496	0.0063
670.6803	0.0101
670.8646	0.0081
671.0488	-0
671.2331	0.0079
671.4173	0.002
671.6015	-0.0019
671.7857	0.0059
671.9699	0.0113
672.1541	0.0055
672.3382	0.015
672.5223	0.0105
672.7064	0.0143
672.8905	0.0109
673.0746	0.0058
673.2587	0.0023
673.4427	0.0075
673.6267	0.0147
673.8107	0.0161
673.9947	0.0133
674.1787	0.008
674.3626	-0.0064
674.5465	0.0018
674.7304	0.0013
674.9143	0.0084
675.0982	0.0128
675.2821	0.0052
675.4659	0.0118
675.6497	0.0017
675.8335	0.0029
676.0173	0.0032
676.2011	0.0078
676.3849	0.0024
676.5686	-0.0033
676.7523	0.0026
676.936	0.0018
677.1197	-0.0038
677.3034	-0.0018
677.487	0.0056
677.6706	0.0051
677.8542	0.0062
678.0378	0.0042
678.2214	0.0029
678.405	0.0063
678.5885	0.0023
678.772	0.0058
678.9555	0.0055
679.139	0.0102
679.3225	0.0056
679.5059	0.0025
679.6894	0.0021
679.8728	-0.0015
680.0562	-0.0022
680.2395	0.004
680.4229	0.003
680.6062	0.0076
680.7896	0.0062
680.9729	0.001
681.1562	0.0085
681.3394	0.008
681.5227	-0.002
681.7059	-0.0017
681.8891	-0.0001
682.0723	0.0066
682.2555	-0.0002
682.4387	0.0006
682.6218	-0.0042
682.805	0.0071
682.9881	0.0085
683.1712	0.0003
683.3542	-0.0054
683.5373	0.0122
683.7203	-0.0021
683.9034	0.0043
684.0864	-0.0034
684.2694	-0.0009
684.4523	0.0066
684.6353	0.0002
684.8182	0.0016
685.0011	-0.0004
685.184	0.0075
685.3669	0.0009
685.5498	0.0088
685.7326	0.0073
685.9154	-0.0014
686.0982	0.01
686.281	0.0077
686.4638	0.0058
686.6465	0.0076
686.8293	0.0074
687.012	-0.0005
687.1947	-0.0072
687.3774	0.007
687.56	-0.0029
687.7427	-0.0004
687.9253	-0.0041
688.1079	0.0021
688.2905	0.0027
688.4731	0.0049
688.6556	-0.0032
688.8382	-0.0001
689.0207	0.0103
689.2032	-0.0026
689.3857	-0.001
689.5681	0.0098
689.7506	-0.0016
689.933	-0.0022
690.1154	-0.0035
690.2978	0.0012
690.4802	0.0076
690.6626	-0.0065
690.8449	-0.0006
691.0272	0.006
691.2095	-0.0004
691.3918	-0.0053
691.5741	0.004
691.7563	-0.009
691.9386	0.0027
692.1208	-0.0039
692.303	-0.004
692.4852	-0.002
692.6673	0.0048
692.8495	-0.001
693.0316	-0.0004
693.2137	0.0016
693.3958	0.0069
693.5778	0.0033
693.7599	0.0002
693.9419	-0.0001
694.1239	0.0064
694.3059	0.0001
694.4879	0.0059
694.6699	0.0066
694.8518	0.0026
695.0337	0.0013
695.2157	0.0039
695.3975	0.0046
695.5794	-0.0023
695.7613	-0.0012
695.9431	0.0005
696.1249	-0.0023
696.3067	0.0027
696.4885	0.0039
696.6703	-0.0091
696.852	-0.0013
697.0337	0.0064
697.2154	0.0046
697.3971	0.0029
697.5788	0.0076
697.7605	0.0044
697.9421	0.0055
698.1237	0.0019
698.3053	0.0045
698.4869	0.0026
698.6685	-0.0089
698.85	-0.0025
699.0315	0.007
699.213	0.0007
699.3945	-0.0005
699.576	0.0037
699.7575	-0
699.9389	0.0111
700.1203	0.0001
700.3017	-0.0084
700.4831	-0.013
700.6645	-0.0008
700.8458	-0.0013
701.0271	-0.0027
701.2084	0.0051
701.3897	-0.003
701.571	-0.0054
701.7523	-0.0092
701.9335	-0.0069
702.1147	0.0071
702.2959	-0.0041
702.4771	0.0005
702.6583	0.0029
702.8394	0.004
703.0205	0.0074
703.2016	-0.0083
703.3827	0.0015
703.5638	0.0057
703.7449	0.0045
703.9259	0.0083
704.1069	-0.0026
704.2879	-0.0035
704.4689	0.0044
704.6499	0.0041
704.8308	0.0035
705.0117	-0.0005
705.1927	0.0045
705.3735	-0.004
705.5544	-0.0095
705.7353	0.001
705.9161	-0.0027
706.0969	-0.0104
706.2777	0.003
706.4585	-0.0008
706.6393	0.0039
706.82	0.0003
707.0007	0.0041
707.1815	0.0066
707.3621	0.0134
707.5428	0.0039
707.7235	0.0065
707.9041	0.0053
708.0847	0.0005
708.2653	-0.005
708.4459	-0.009
708.6265	-0.0012
708.807	-0.0025
708.9875	-0.003
709.168	-0.0003
709.3485	-0.0051
709.529	0.0037
709.7095	-0.0079
709.8899	0.0007
710.0703	-0.0078
710.2507	-0.0013
710.4311	0.0008
710.6115	-0.0105
710.7918	-0.0126
710.9721	-0.003
711.1524	-0.0088
711.3327	-0.0023
711.513	0.0118
711.6932	0.0056
711.8735	0.004
712.0537	0.0014
712.2339	-0.0035
712.4141	-0.005
712.5942	-0.0086
712.7744	0.0023
712.9545	-0.004
713.1346	-0.0054
713.3147	-0.001
713.4947	0
713.6748	-0.0005
713.8548	-0.0007
714.0348	0.0027
714.2148	0.0002
714.3948	0.0073
714.5748	0.0048
714.7547	-0.0015
714.9346	0.0113
715.1145	0.0004
715.2944	-0.004
715.4743	0.0032
715.6541	0.002
715.834	0.0087
716.0138	-0.0047
716.1936	-0.0072
716.3733	0.005
716.5531	0.0063
716.7328	-0.0016
716.9126	-0.0015
717.0923	0.0018
717.2719	0.0016
717.4516	0.002
717.6312	0.002
717.8109	0.0004
717.9905	0.0023
718.1701	0.0059
718.3496	-0.0025
718.5292	0.0021
718.7087	0.0058
718.8882	-0.001
719.0677	0.0055
719.2472	-0.0026
719.4267	0.0056
719.6061	0.0025
719.7856	0.0085
719.965	0.0069
720.1443	0.0001
720.3237	0.0177
720.5031	0.0099
720.6824	-0.0013
720.8617	0.0033
721.041	0.0023
721.2203	0.0162
721.3995	0.0017
721.5788	0.008
721.758	0.0107
721.9372	0.0034
722.1164	0.0076
722.2956	0.0116
722.4747	0.0007
722.6538	-0.002
722.8329	0.0135
723.012	0.0085
723.1911	-0.0004
723.3702	-0.0037
723.5492	0.0034
723.7282	-0.0045
723.9072	0.0004
724.0862	-0.0009
724.2652	0.0034
724.4441	0.0008
724.623	-0.0012
724.8019	-0.0009
724.9808	0.0049
725.1597	0.0028
725.3385	0.0061
725.5174	0.0043
725.6962	-0.0006
725.875	0.0022
726.0538	0.0126
726.2325	-0.0018
726.4112	0.0111
726.59	-0.0001
726.7687	-0.0035
726.9474	0.0095
727.126	-0.0012
727.3047	-0.0065
727.4833	0.0053
727.6619	-0.0031
727.8405	-0.0036
728.0191	-0.0083
728.1976	0.0049
728.3762	-0.0024
728.5547	0.0013
728.7332	-0.0094
728.9116	0.0009
729.0901	0.004
729.2686	-0.001
729.447	0.0006
729.6254	0.0043
729.8038	-0.0035
729.9821	-0.0065
730.1605	0
730.3388	-0.0068
730.5171	0.0066
730.6954	-0.0063
730.8737	0.0043
731.0519	0.0054
731.2302	0.0019
731.4084	0.0034
731.5866	0.015
731.7648	0.0026
731.9429	0.0064
732.1211	0.0008
732.2992	0.0053
732.4773	0.0012
732.6554	0.0075
732.8335	0.0121
733.0115	0.0053
733.1896	0.0066
733.3676	-0.0045
733.5456	-0.0019
733.7235	0.006
733.9015	0.0028
734.0794	-0.0011
734.2574	-0.0038
734.4353	-0.0051
734.6131	0.0045
734.791	-0.0003
734.9689	0.0041
735.1467	-0.0041
735.3245	-0.0039
735.5023	-0.0089
735.68	0.0004
735.8578	0.001
736.0355	-0.0052
736.2132	-0.0064
736.3909	-0.0035
736.5686	-0.0032
736.7463	0.0051
736.9239	-0.0048
737.1015	-0.0026
737.2791	0.0021
737.4567	-0.0083
737.6343	-0.0019
737.8118	0.0004
737.9894	0.0054
738.1669	-0.0073
738.3444	-0.0113
738.5218	0.0052
738.6993	-0.0004
738.8767	-0.0028
739.0541	0.0086
739.2315	-0.0058
739.4089	0.0048
739.5863	0.0038
739.7636	-0.0051
739.9409	0.0077
740.1182	0.0047
740.2955	0.0046
740.4728	0.0035
740.65	0.0046
740.8272	0.004
741.0044	0.004
741.1816	0.0015
741.3588	-0.0028
741.5359	-0.0029
741.7131	-0.0089
741.8902	-0.0036
742.0673	-0.0005
742.2444	-0.0092
742.4214	-0.014
742.5985	0.0016
742.7755	-0.0005
742.9525	-0.0055
743.1295	-0.0041
743.3064	-0.006
743.4834	0.0022
743.6603	0.002
743.8372	0.0023
744.0141	0.0065
744.191	-0.0043
744.3678	0.0011
744.5446	-0.0022
744.7215	-0.0005
744.8982	-0.0026
745.075	-0.0034
745.2518	0.0073
745.4285	0.0022
745.6052	-0.0086
745.7819	-0.0032
745.9586	0.0027
746.1353	0.007
746.3119	-0.0052
746.4885	-0.0088
746.6651	-0.0047
746.8417	0.002
747.0183	0.0008
747.1948	0.0004
747.3714	-0.0022
747.5479	0.0021
747.7244	-0.0035
747.9008	0.0071
748.0773	0.0105
748.2537	-0.0013
748.4301	-0.0066
748.6065	0.0086
748.7829	0.0114
748.9593	-0.007
749.1356	0.0093
749.3119	0.0081
749.4882	-0.0101
749.6645	0.0056
749.8408	-0.0023
750.017	-0.0018
750.1933	0.0003
750.3695	-0.0062
750.5457	-0.0025
750.7218	-0.0006
750.898	-0.0002
751.0741	-0.0025
751.2502	-0.0057
751.4263	0.0006
751.6024	-0.0017
751.7784	-0.0067
751.9545	-0.0052
752.1305	-0.0085
752.3065	-0.0104
752.4825	0.0016
752.6584	-0.0064
752.8344	-0.0121
753.0103	-0.0064
753.1862	-0.0091
753.3621	-0.0044
753.5379	-0.0029
753.7138	-0.0034
753.8896	-0.0016
754.0654	0.0024
754.2412	0.0022
754.417	-0.003
754.5927	-0.0091
754.7685	-0.0064
754.9442	0.0018
755.1199	0.0067
755.2956	-0.0067
755.4712	0.0054
755.6469	0.0009
755.8225	-0.0027
755.9981	-0.0077
756.1736	-0.0013
756.3492	-0.0011
756.5248	-0.0096
756.7003	-0.0074
756.8758	0.0008
757.0513	-0.0168
757.2267	-0.009
757.4022	-0.0038
757.5776	-0.0136
757.753	0.0009
757.9284	-0.0052
758.1038	0.0136
758.2791	0.0028
758.4545	-0.0055
758.6298	0.005
758.8051	0.0086
758.9803	-0.0036
759.1556	0.002
759.3308	0.0052
759.506	0.0123
759.6812	0.0128
759.8564	0.0129
760.0316	-0.0007
760.2067	0.02
760.3819	0.0054
760.557	0.0145
760.732	0.002
760.9071	-0.0122
761.0821	0.0011
761.2572	0.0063
761.4322	-0.0029
761.6072	-0.0057
761.7821	-0.0047
761.9571	0.0139
762.132	0.005
762.3069	-0.012
762.4818	-0.0051
762.6567	-0.005
762.8316	0.0069
763.0064	-0.0016
763.1812	-0.0043
763.356	-0.0113
763.5308	-0.0129
763.7055	-0.0032
763.8803	-0.0075
764.055	-0.0106
764.2297	0.0045
764.4044	-0.0058
764.579	-0.0115
764.7537	-0.0193
764.9283	0.0018
765.1029	-0.0125
765.2775	-0.0082
765.4521	-0.0153
765.6266	-0.0026
765.8011	-0.0064
765.9756	-0.0042
766.1501	-0.0012
766.3246	-0.0008
766.4991	-0.0088
766.6735	-0.0059
766.8479	-0.0044
767.0223	0.0028
767.1967	0.0031
767.371	-0.0052
767.5454	-0.0044
767.7197	0.0002
767.894	-0.0053
768.0683	-0.0158
768.2425	-0.0036
768.4168	-0.0018
768.591	-0.0024
768.7652	-0.003
768.9394	-0.005
769.1135	-0.0091
769.2877	0.0021
769.4618	-0.0081
769.6359	0.0003
769.81	-0.0008
769.984	-0.0072
770.1581	-0.0041
770.3321	-0.0115
770.5061	-0.0094
770.6801	-0.0079
770.8541	-0.0052
771.028	0.0074
771.202	-0.002
771.3759	0.0032
771.5498	-0.0081
771.7236	-0.0076
771.8975	0.0005
772.0713	-0
772.2451	-0.0012
772.4189	0.0086
772.5927	0.0092
772.7665	-0.0017
772.9402	0.0055
773.1139	0.0038
773.2876	-0.0028
773.4613	0.0216
773.635	0.0125
773.8086	-0.0087
773.9822	0.0151
774.1558	0.0035
774.3294	-0.0039
774.503	-0.0051
774.6765	0.0061
774.8501	0.0058
775.0236	0.0064
775.1971	0.0007
775.3705	0.0005
775.544	0.0034
775.7174	-0.0091
775.8908	0.0002
776.0642	-0.0066
776.2376	-0.0032
776.4109	-0.005
776.5843	-0.0012
776.7576	-0.002
776.9309	0.0042
777.1041	0.0031
777.2774	0.0052
777.4506	-0.0054
777.6238	-0.0114
777.797	0.0014
777.9702	0.0031
778.1434	-0.004
778.3165	-0.007
778.4896	0.001
778.6627	0.0061
778.8358	0.0048
779.0089	0.0013
779.1819	0.0066
779.3549	0.0152
779.5279	0.012
779.7009	0.0056
779.8739	0.0038
780.0468	0.0095
780.2197	0.0031
780.3926	-0.001
780.5655	0.0063
780.7384	0.0003
780.9112	0.0068
781.0841	-0.0003
781.2569	0.006
781.4297	0.012
781.6024	0.0127
781.7752	0.01
781.9479	0.0146
782.1206	0.0135
782.2933	-0.002
782.466	-0.0023
782.6386	-0.0069
782.8113	-0.001
782.9839	0.0083
783.1565	0.0065
783.329	0.0054
783.5016	0.0051
783.6741	-0.0031
783.8466	0.007
784.0191	0.0249
784.1916	-0.0022
784.3641	0.0005
784.5365	0.01
784.7089	-0.0097
784.8813	-0.005
785.0537	-0.0025
785.2261	-0.0145
785.3984	-0.0146
785.5707	0.005
785.743	0.0014
785.9153	-0.0097
786.0876	-0.0019
786.2598	-0.0218
786.432	-0.0162
786.6042	0.0076
786.7764	-0.012
786.9486	-0.0001
787.1207	-0.0204
787.2928	-0.0063
787.4649	0.0057
787.637	0.0108
787.8091	0.0011
787.9811	-0.0059
788.1532	-0.0027
788.3252	-0.0015
788.4972	-0.0123
788.6691	-0.0076
788.8411	0.0087
789.013	-0.0209
789.1849	0.0067
789.3568	-0.0004
789.5287	-0.0125
789.7005	0.0025
789.8723	-0.0057
790.0442	0.0109
790.2159	-0.0074
790.3877	0.0116
790.5595	-0.0254
790.7312	0.0013
790.9029	-0.0089
791.0746	-0.0188
791.2463	0.0024
791.4179	-0.0004
791.5896	-0.0073
791.7612	-0.0122
791.9328	0.0079
792.1044	-0.0054
792.2759	-0.0215
792.4474	0.0028
792.619	-0.0141
792.7905	0.0023
792.9619	0.0004
793.1334	0.0161
793.3048	0.0184
793.4762	-0.0013
793.6476	0.0124
793.819	0.0023
793.9904	0.0025
794.1617	-0.005
794.333	-0.0138
794.5043	-0.0037
794.6756	-0.0089
794.8469	0.0045
795.0181	-0.0007
795.1893	-0.0149
795.3605	0.0019
795.5317	0.002
795.7029	-0.0096
795.874	-0.0048
796.0452	-0.0097
796.2163	-0.0022
796.3873	0.002
796.5584	-0.0153
796.7294	-0.0061
796.9005	-0.0047
797.0715	-0.0023
797.2425	-0.0075
797.4134	-0.0105
797.5844	-0.0144
797.7553	-0.0228
797.9262	-0.0107
798.0971	-0.0365
798.2679	-0.0157
798.4388	-0.0316
798.6096	-0.0195
798.7804	-0.0116
798.9512	-0.0076
799.122	-0.0018
799.2927	-0.0018
799.4635	-0.0044
799.6342	-0.0293
799.8049	-0.0233
799.9755	-0.0222
800.1462	-0.0056
800.3168	-0.0037
800.4874	-0.0102
800.658	0.0132
800.8286	-0.0101
800.9991	0.0123
801.1696	0.0058
801.3402	0.0051
801.5106	-0.0174
801.6811	0.0112
801.8516	-0.0003
802.022	-0.0086
802.1924	-0.0031
802.3628	-0.0021
802.5332	0.0073
802.7035	0.0119
802.8739	-0.0093
803.0442	-0.0224
803.2145	-0.0119
803.3847	-0.0281
803.555	-0.019
803.7252	-0.0224
803.8954	-0.0253
804.0656	-0.0321
804.2358	-0.0093
804.4059	0.0041
804.5761	0.0034
804.7462	-0.0029
804.9163	-0.0076
805.0864	-0.0318
805.2564	-0.0184
805.4264	-0.0176
805.5965	-0.0289
805.7665	-0.0239
805.9364	-0.005
806.1064	0.0244
806.2763	-0.0024
806.4462	0.0208
806.6161	0.0014
806.786	-0.0072
806.9559	-0.0028
807.1257	-0.0038
807.2955	-0.0234
807.4653	-0.0017
807.6351	-0.0207
807.8048	-0.011
807.9746	-0.0015
808.1443	-0.0083
808.314	-0.0189
808.4837	-0.0092
808.6533	-0.0173
808.8229	0.004
808.9926	-0.0106
809.1622	-0.0046
809.3317	-0.0232
809.5013	-0.0244
809.6708	-0.0069
809.8403	-0.0194
810.0098	-0.018
810.1793	-0.0046
810.3488	-0.012
810.5182	-0.0253
810.6876	-0.0001
810.857	-0.0335
811.0264	0.0119
811.1958	-0.0147
811.3651	-0.0043
811.5344	-0.0059
811.7037	-0.0256
811.873	-0.0192
812.0422	-0.0156
812.2115	-0.0273
812.3807	-0.0359
812.5499	0.0113
812.7191	-0.0025
812.8882	-0.0174
813.0574	-0.0294
813.2265	-0.0124
813.3956	-0.0139
813.5646	-0.0004
813.7337	-0.0241
813.9027	0.0045
814.0718	0.0132
814.2407	0.0053
814.4097	-0.0189
814.5787	-0.0108
814.7476	0.0067
814.9165	-0.0125
815.0854	-0.0004
815.2543	0.0002
815.4232	-0.0123
815.592	0.0202
815.7608	0.0085
815.9296	0.0043
816.0984	-0.0042
816.2671	-0.0144
816.4359	-0.0001
816.6046	0.0011
816.7733	-0.0154
816.942	-0.0216
817.1106	-0.0046
817.2793	-0.002
817.4479	-0.0092
817.6165	-0.002
817.785	-0.0067
817.9536	-0.0231
818.1221	-0.0272
818.2906	0.0191
818.4591	-0.0392
818.6276	-0.0241
818.7961	-0.0057
818.9645	0.0032
819.1329	-0.0044
819.3013	0.0253
819.4697	0.0217
819.638	-0.0257
819.8064	-0.0181
819.9747	-0.0148
820.143	-0.0439
820.3113	-0.0273
820.4795	-0.0229
820.6477	-0.0039
820.816	-0.0159
820.9842	-0.0178
821.1523	-0.0119
821.3205	-0.0263
821.4886	-0.022
821.6567	-0.0361
821.8248	-0.005
821.9929	0.0009
822.1609	0.0059
822.329	0.0031
822.497	0.0051
822.665	-0.001
822.833	-0.0246
823.0009	-0.0043
823.1688	0.0286
823.3367	0.0166
823.5046	0.0123
823.6725	0.0451
823.8404	-0.0103
824.0082	0.0125
824.176	0.0026
824.3438	0.007
824.5116	-0.023
824.6793	0.0115
824.847	-0.0192
825.0147	-0.0165
825.1824	0.0204
825.3501	-0.0021
825.5177	-0.0129
825.6854	0.005
825.853	-0.001
826.0206	-0.0385
826.1881	0.0081
826.3557	-0.0446
826.5232	0.002
826.6907	-0.0458
826.8582	-0.0042
827.0257	-0.0511
827.1931	0.0043
827.3605	-0.0011
827.528	-0.0148
827.6953	-0.0411
827.8627	-0.0108
828.03	0.0312
828.1974	-0.0063
828.3647	-0.048
828.532	-0.0157
828.6992	-0.0167
828.8665	-0.004
829.0337	-0.0309
829.2009	0.0207
829.3681	-0.0279
829.5352	0.017
829.7024	-0.0253
829.8695	-0.0529
830.0366	0.0272
830.2037	-0.0492
830.3707	0.0247
830.5378	-0.0206
830.7048	-0.0168
830.8718	-0.0183
831.0388	-0.0149
831.2057	0.0295
831.3727	-0.0054
831.5396	-0.0048
831.7065	-0.0093
831.8734	-0.0018
832.0402	-0.0518
832.2071	-0.0244
832.3739	-0.0133
832.5407	-0.0363
832.7075	-0.0126
832.8742	-0.0367
833.041	-0.0439
833.2077	-0.0308
833.3744	0.0021
833.541	-0.0092
833.7077	-0.024
833.8743	-0.0349
834.0409	-0.0217
834.2075	-0.0425
834.3741	-0.0447
834.5407	-0.0333
834.7072	-0.0391
834.8737	-0.0383
835.0402	-0.0244
835.2067	0.0156
835.3731	0.0057
835.5395	0.0167
835.706	-0.0111
835.8723	-0.0234
836.0387	0.0093
836.2051	-0.0072
836.3714	-0.0274
836.5377	0.0087
836.704	-0.0164
836.8703	-0.0057
837.0365	-0.0251
837.2027	-0.0086
837.3689	-0.0003
837.5351	-0.0604
837.7013	-0.0575
837.8674	-0.0873
838.0335	-0.0564
838.1997	-0.0574
838.3657	-0.0827
838.5318	-0.0452
838.6978	-0.0103
838.8639	0.0194
839.0299	-0.0089
839.1958	-0.0406
839.3618	-0.013
839.5277	-0.0325
839.6937	-0.0109
839.8596	-0.0564
840.0254	-0.0205
840.1913	-0.0457
840.3571	0.0031
840.523	-0.0555
840.6888	-0.0232
840.8545	-0.0238
841.0203	-0.0141
841.186	0.0031
841.3517	0.0528
841.5174	0.0257
841.6831	-0.0286
841.8488	0.005
842.0144	-0.0321
842.18	-0.0056
842.3456	0.0072
842.5112	-0.0241
842.6767	-0.0252
842.8422	-0.0612
843.0077	-0.0166
843.1732	-0.0051
843.3387	-0.0537
843.5042	-0.0613
843.6696	-0.0704
843.835	-0.0396
844.0004	0.0543
844.1657	-0.0378
844.3311	-0.0763
844.4964	-0.0661
844.6617	-0.0587
844.827	-0.0508
844.9923	-0.0073
845.1575	0.0067
845.3227	-0.0051
845.4879	0.0121
845.6531	-0.024
845.8183	-0.0619
845.9834	-0.0067
846.1485	-0.0369
846.3136	-0.0311
846.4787	-0.1195
846.6438	0.0433
846.8088	-0.0235
846.9738	-0.0965
847.1388	-0.0131
847.3038	-0.027
847.4687	-0.0945
847.6337	-0.0232
847.7986	-0.0071
847.9635	-0.0518
848.1284	0.0515
848.2932	0.0119
848.458	-0.0825
848.6228	0.0635
848.7876	0.0329
848.9524	-0.1293
849.1172	-0.0715
849.2819	-0.0852
849.4466	-0.1254
849.6113	-0.0595
849.7759	-0.0639
849.9406	-0.0368
850.1052	-0.0646
850.2698	-0.0353
850.4344	-0.0293
850.599	-0.1233
850.7635	0.032
850.928	-0.0406
851.0925	0.0789
851.257	-0.0112
851.4215	-0.0183
851.5859	0.038
851.7503	-0.0142
851.9147	-0.0414
852.0791	-0.0127
852.2434	-0.03
852.4078	0.0093
852.5721	0.071
852.7364	-0.1084
852.9007	-0.0126
853.0649	0.0011
853.2291	-0.0656
853.3934	-0.0055
853.5575	-0.011
853.7217	-0.0579
853.8859	-0.1797
854.05	-0.0956
854.2141	0.0312
854.3782	-0.1739
854.5423	-0.1064
854.7063	0.1017
854.8703	-0.0066
855.0343	0.0279
855.1983	-0.1551
855.3623	0.0827
855.5262	-0.0251
855.6901	-0.0787
855.854	-0.0365
856.0179	0.0432
856.1818	-0.0427
856.3456	-0.106
856.5094	-0.1604
856.6732	-0.1651
856.837	-0.0592
857.0008	-0.0921
857.1645	0.0236
857.3282	-0.2106
857.4919	0.1272
857.6556	-0.1371
857.8192	-0.0237
857.9828	0.0932
858.1465	0.0265
858.31	-0.2154
858.4736	-0.0964
858.6372	-0.1213
858.8007	-0.2337
858.9642	0.0512
859.1277	-0.1192
859.2911	0.0677
859.4546	0.112
859.618	-0.5036
859.7814	-0.0891
859.9448	-0.0104
860.1081	-0.0424
860.2715	0.1768
860.4348	-0.0634
860.5981	-0.174
860.7614	0.0959
860.9246	0.1745
861.0879	-0.0927
861.2511	0.11
861.4143	-0.1678
861.5774	0.3615
861.7406	-0.3089
861.9037	-0.2465
862.0668	-0.0701
862.2299	-0.0815
862.393	-0.6377
862.556	-0.0578
862.7191	-0.3196
862.8821	-0.3551
863.0451	0.0144
863.208	-0.0452
863.371	-0.0522
863.5339	-0.1554
863.6968	0.0079
863.8597	-0.2351
864.0225	-0.0781
864.1854	0.2266
864.3482	-0.1944
864.511	-0.0147
864.6737	0.1914
864.8365	-0.1021
864.9992	-0.6494
865.1619	-0.5618
865.3246	-0.3028
865.4873	0.185
865.65	-0.0357
865.8126	-0.0751
865.9752	0.0492
866.1378	-0.05
866.3004	-0.0927
866.4629	0.1344
866.6254	-0.2749
866.7879	-0.1346
866.9504	-0.3946
867.1129	-0
867.2753	0.0727
867.4377	-0.0267
867.6001	-0.4147
867.7625	0.2941
867.9249	-0.5126
868.0872	-0.123
868.2495	0.7253
868.4118	-0.0633
868.5741	-0.5736
868.7363	-0.2801
868.8986	-0.3491
869.0608	-0.2016
869.223	0.0619
869.3851	-0
869.5473	-0
869.7094	-0.0169
869.8715	0.0605
870.0336	-0
870.1957	-0.1258
870.3577	-1.0675
870.5197	-0.0674
870.6817	-0.4977
870.8437	-0.2526
871.0057	-0
871.1676	-0.9594
871.3295	-0.409
871.4914	-0
871.6533	-0.3577
871.8151	-0.5517
871.977	-0
872.1388	-0
872.3006	-0
872.4623	-0
872.6241	0.2844
872.7858	0.1348
872.9475	-0.0768
873.1092	-0.4728
873.2709	0.5357
873.4325	0.0751
873.5941	-0.3247
873.7557	-0
873.9173	-0
874.0789	-0
874.2404	0.4431
874.4019	0.564
874.5634	-0.5061
874.7249	0.1475
874.8863	0.1219
875.0478	0.0935
875.2092	-0
875.3706	-0
875.5319	-0.6774
875.6933	-0
875.8546	-0.315
876.0159	-0
876.1772	0.5348
876.3385	-0
876.4997	0.301
876.6609	-0.4987
876.8221	-0
876.9833	0.5366
877.1445	-0
877.3056	-0.0255
877.4667	-0.3403
877.6278	-0
877.7889	-0.3513
877.9499	-0
878.111	-0
878.272	-0
878.433	-0
878.5939	-0
878.7549	-0.2904
878.9158	-0.8951
879.0767	-0
879.2376	-0
879.3984	-0.3952
879.5593	-0
879.7201	-0.2095
879.8809	-0.6882
880.0417	-0
880.2024	0.1055
880.3632	-0
880.5239	0.4319
880.6846	-0.1704
880.8452	-2.5231
881.0059	-0
881.1665	-0
881.3271	0.0427
881.4877	-0.8227
881.6483	-0.4066
881.8088	-0.3332
881.9693	-0
882.1298	-0
882.2903	-0
