Data from MonoPyChalIsomerACN10uM420nmA_Absorbance_15-09-50-535.txt Node
Date: Fri Jul 05 15:09:50 BST 2024
User: LASERRRRR
Spectrometer: FLMT03099
Trigger mode: 0
Integration Time (sec): 1.000000E-1
Scans to average: 1
Electric dark correction enabled: true
Nonlinearity correction enabled: false
Boxcar width: 0
XAxis mode: Wavelengths
Number of Pixels in Spectrum: 3648
>>>>>Begin Spectral Data<<<<<
179.3399	-0.1008
179.5586	-0.1008
179.7771	-0.1008
179.9957	-0.1841
180.2143	-0.0843
180.4329	-0.0043
180.6514	-0
180.8699	-0
181.0885	-0.2624
181.307	0.3717
181.5255	-0.7404
181.744	-0
181.9625	-0
182.181	-0
182.3994	-0
182.6179	-0
182.8363	0.0299
183.0547	-0
183.2732	0.1026
183.4916	0.0866
183.71	-0.0087
183.9284	0.3157
184.1467	0.0625
184.3651	-0.0376
184.5835	0.0316
184.8018	-0.0697
185.0201	0.0503
185.2385	0.0528
185.4568	0.2132
185.6751	-0.1386
185.8934	0.2531
186.1117	0.0463
186.3299	0.1296
186.5482	0.0125
186.7664	-0.0243
186.9847	-0.1199
187.2029	0.154
187.4211	0.0903
187.6393	0.2671
187.8575	-0.1153
188.0757	0.2252
188.2939	-0.0439
188.512	0.0312
188.7302	-0.0015
188.9483	0.0978
189.1665	0.0614
189.3846	-0.4226
189.6027	0.2121
189.8208	0.1651
190.0389	0.2321
190.257	0.1545
190.475	0.0514
190.6931	0.2502
190.9111	0.807
191.1292	0.0456
191.3472	0.4374
191.5652	0.2693
191.7832	0.2993
192.0012	0.458
192.2192	0.2864
192.4371	0.6085
192.6551	0.308
192.873	0.3787
193.091	0.4517
193.3089	0.7466
193.5268	0.472
193.7447	0.6052
193.9626	0.4242
194.1805	0.7526
194.3984	0.9368
194.6162	0.6702
194.8341	0.3957
195.0519	0.5642
195.2697	0.7434
195.4875	0.6737
195.7054	0.7186
195.9231	0.4863
196.1409	0.6416
196.3587	0.749
196.5765	0.5371
196.7942	0.5966
197.012	0.6498
197.2297	0.5003
197.4474	0.8741
197.6651	0.7036
197.8828	0.4301
198.1005	0.552
198.3182	0.6313
198.5358	0.7519
198.7535	0.634
198.9711	0.5487
199.1888	0.5626
199.4064	0.6294
199.624	0.6777
199.8416	0.5925
200.0592	0.6869
200.2767	0.6335
200.4943	0.6262
200.7119	0.7653
200.9294	0.7851
201.1469	0.5227
201.3645	0.6237
201.582	0.4802
201.7995	0.5881
202.017	0.6499
202.2344	0.6899
202.4519	0.7657
202.6694	0.6279
202.8868	0.678
203.1042	0.7986
203.3217	0.6359
203.5391	0.6743
203.7565	0.6028
203.9739	0.6173
204.1913	0.6397
204.4086	0.706
204.626	0.7108
204.8433	0.6358
205.0607	0.6332
205.278	0.6512
205.4953	0.6351
205.7126	0.8115
205.9299	0.7748
206.1472	0.7236
206.3644	0.6458
206.5817	0.694
206.7989	0.7768
207.0162	0.6871
207.2334	0.8164
207.4506	0.5668
207.6678	0.712
207.885	0.608
208.1022	0.6057
208.3194	0.648
208.5365	0.6395
208.7537	0.6744
208.9708	0.589
209.1879	0.6446
209.405	0.7001
209.6222	0.6546
209.8392	0.6542
210.0563	0.6256
210.2734	0.698
210.4905	0.6621
210.7075	0.6485
210.9245	0.642
211.1416	0.6967
211.3586	0.5916
211.5756	0.5739
211.7926	0.6178
212.0096	0.5977
212.2265	0.5491
212.4435	0.5863
212.6604	0.6425
212.8774	0.597
213.0943	0.6039
213.3112	0.5614
213.5281	0.5956
213.745	0.5307
213.9619	0.528
214.1788	0.5377
214.3956	0.4864
214.6125	0.5034
214.8293	0.4755
215.0461	0.4826
215.2629	0.4377
215.4798	0.4894
215.6965	0.4365
215.9133	0.4337
216.1301	0.3971
216.3469	0.4836
216.5636	0.4397
216.7803	0.3903
216.9971	0.413
217.2138	0.4057
217.4305	0.3894
217.6472	0.3787
217.8639	0.3982
218.0805	0.3741
218.2972	0.3561
218.5138	0.3668
218.7305	0.3342
218.9471	0.3281
219.1637	0.3053
219.3803	0.2944
219.5969	0.2947
219.8135	0.2582
220.0301	0.2711
220.2466	0.2856
220.4632	0.2721
220.6797	0.268
220.8962	0.2329
221.1127	0.2838
221.3292	0.2497
221.5457	0.2533
221.7622	0.2556
221.9787	0.2572
222.1951	0.2533
222.4116	0.2708
222.628	0.268
222.8444	0.2733
223.0608	0.2365
223.2772	0.2614
223.4936	0.2867
223.71	0.2464
223.9264	0.2598
224.1427	0.2483
224.3591	0.2519
224.5754	0.2537
224.7917	0.2806
225.008	0.2826
225.2243	0.2751
225.4406	0.2825
225.6569	0.2638
225.8732	0.2535
226.0894	0.261
226.3057	0.2762
226.5219	0.3014
226.7381	0.2802
226.9543	0.2998
227.1705	0.2795
227.3867	0.2845
227.6029	0.3015
227.8191	0.3044
228.0352	0.3226
228.2513	0.329
228.4675	0.3116
228.6836	0.3167
228.8997	0.2998
229.1158	0.3166
229.3319	0.3306
229.548	0.3139
229.764	0.3367
229.9801	0.3272
230.1961	0.3382
230.4121	0.3595
230.6282	0.3273
230.8442	0.327
231.0602	0.3554
231.2761	0.3508
231.4921	0.3553
231.7081	0.3799
231.924	0.3504
232.14	0.3826
232.3559	0.3368
232.5718	0.3855
232.7877	0.3584
233.0036	0.3447
233.2195	0.3648
233.4353	0.373
233.6512	0.3582
233.867	0.3754
234.0829	0.3899
234.2987	0.3582
234.5145	0.3728
234.7303	0.3709
234.9461	0.393
235.1619	0.3985
235.3776	0.3819
235.5934	0.4047
235.8091	0.3729
236.0249	0.3695
236.2406	0.4047
236.4563	0.3856
236.672	0.4193
236.8877	0.3986
237.1034	0.3931
237.319	0.4056
237.5347	0.4162
237.7503	0.4013
237.966	0.4111
238.1816	0.406
238.3972	0.4176
238.6128	0.4068
238.8284	0.4148
239.0439	0.4121
239.2595	0.4163
239.475	0.4273
239.6906	0.4185
239.9061	0.4054
240.1216	0.408
240.3371	0.422
240.5526	0.3952
240.7681	0.4126
240.9836	0.394
241.199	0.402
241.4145	0.4004
241.6299	0.3736
241.8453	0.373
242.0607	0.3878
242.2761	0.3621
242.4915	0.3629
242.7069	0.3846
242.9223	0.3618
243.1376	0.3594
243.353	0.3586
243.5683	0.3546
243.7836	0.3455
243.9989	0.3351
244.2142	0.3125
244.4295	0.323
244.6448	0.3068
244.86	0.3118
245.0753	0.2972
245.2905	0.3043
245.5057	0.274
245.721	0.2884
245.9362	0.2804
246.1514	0.2803
246.3665	0.2631
246.5817	0.2686
246.7969	0.2553
247.012	0.255
247.2271	0.2587
247.4423	0.2533
247.6574	0.247
247.8725	0.2298
248.0876	0.2348
248.3026	0.2319
248.5177	0.2263
248.7328	0.2287
248.9478	0.2254
249.1628	0.2185
249.3779	0.2292
249.5929	0.2024
249.8079	0.227
250.0228	0.2137
250.2378	0.2055
250.4528	0.2112
250.6677	0.2089
250.8827	0.2021
251.0976	0.197
251.3125	0.2043
251.5274	0.176
251.7423	0.184
251.9572	0.1979
252.172	0.1843
252.3869	0.1905
252.6017	0.1822
252.8166	0.1651
253.0314	0.1755
253.2462	0.1859
253.461	0.1775
253.6758	0.1699
253.8906	0.1903
254.1053	0.1689
254.3201	0.1727
254.5348	0.1764
254.7496	0.1775
254.9643	0.1736
255.179	0.1893
255.3937	0.1603
255.6083	0.1771
255.823	0.1733
256.0377	0.1628
256.2523	0.1746
256.467	0.157
256.6816	0.1783
256.8962	0.1698
257.1108	0.1788
257.3254	0.183
257.54	0.1543
257.7545	0.1674
257.9691	0.1648
258.1836	0.1701
258.3981	0.1855
258.6127	0.1788
258.8272	0.1683
259.0417	0.1634
259.2561	0.1649
259.4706	0.1771
259.6851	0.1848
259.8995	0.1646
260.114	0.1607
260.3284	0.1669
260.5428	0.1621
260.7572	0.1825
260.9716	0.1885
261.186	0.159
261.4003	0.1717
261.6147	0.1821
261.829	0.182
262.0433	0.1604
262.2577	0.1667
262.472	0.1638
262.6863	0.1563
262.9005	0.1844
263.1148	0.1689
263.3291	0.1555
263.5433	0.1746
263.7576	0.1607
263.9718	0.1583
264.186	0.1626
264.4002	0.1526
264.6144	0.1638
264.8286	0.1896
265.0427	0.1693
265.2569	0.1689
265.471	0.1659
265.6851	0.1659
265.8993	0.1643
266.1134	0.1695
266.3275	0.1523
266.5415	0.1673
266.7556	0.1812
266.9697	0.1687
267.1837	0.1609
267.3978	0.1682
267.6118	0.1774
267.8258	0.1734
268.0398	0.157
268.2538	0.1812
268.4677	0.1707
268.6817	0.1658
268.8957	0.1659
269.1096	0.1702
269.3235	0.1652
269.5374	0.1639
269.7514	0.1525
269.9652	0.1561
270.1791	0.1538
270.393	0.1546
270.6068	0.1691
270.8207	0.1461
271.0345	0.167
271.2483	0.1529
271.4622	0.1561
271.676	0.1674
271.8897	0.1422
272.1035	0.1462
272.3173	0.1395
272.531	0.152
272.7448	0.1457
272.9585	0.1477
273.1722	0.1562
273.3859	0.1449
273.5996	0.157
273.8133	0.1597
274.0269	0.1396
274.2406	0.1397
274.4542	0.1428
274.6679	0.1347
274.8815	0.1555
275.0951	0.1517
275.3087	0.1447
275.5223	0.1549
275.7358	0.1483
275.9494	0.1545
276.1629	0.1416
276.3765	0.1446
276.59	0.1484
276.8035	0.1526
277.017	0.1522
277.2305	0.1443
277.444	0.1598
277.6574	0.1349
277.8709	0.1464
278.0843	0.1354
278.2978	0.148
278.5112	0.1364
278.7246	0.1454
278.938	0.1632
279.1513	0.1523
279.3647	0.161
279.5781	0.1485
279.7914	0.1432
280.0047	0.1527
280.2181	0.162
280.4314	0.1652
280.6447	0.152
280.8579	0.1547
281.0712	0.1549
281.2845	0.1656
281.4977	0.1641
281.711	0.1478
281.9242	0.1507
282.1374	0.1707
282.3506	0.1542
282.5638	0.1487
282.7769	0.1571
282.9901	0.1566
283.2033	0.1665
283.4164	0.1663
283.6295	0.1536
283.8426	0.1597
284.0557	0.1584
284.2688	0.1677
284.4819	0.1648
284.695	0.164
284.908	0.1616
285.1211	0.1613
285.3341	0.1609
285.5471	0.1607
285.7601	0.1564
285.9731	0.1512
286.1861	0.1605
286.3991	0.1606
286.612	0.1585
286.825	0.1571
287.0379	0.1712
287.2508	0.1696
287.4637	0.1699
287.6766	0.1636
287.8895	0.1772
288.1024	0.1913
288.3152	0.1653
288.5281	0.163
288.7409	0.1673
288.9538	0.1719
289.1666	0.1706
289.3794	0.1652
289.5922	0.1643
289.8049	0.1631
290.0177	0.1589
290.2304	0.1656
290.4432	0.1681
290.6559	0.165
290.8686	0.1859
291.0813	0.1662
291.294	0.1638
291.5067	0.1874
291.7194	0.1751
291.932	0.1723
292.1447	0.1689
292.3573	0.1582
292.5699	0.1634
292.7825	0.1731
292.9951	0.162
293.2077	0.1675
293.4203	0.1649
293.6328	0.1643
293.8454	0.1865
294.0579	0.1777
294.2704	0.1666
294.4829	0.1608
294.6954	0.1676
294.9079	0.1611
295.1204	0.1638
295.3328	0.1636
295.5453	0.1601
295.7577	0.1627
295.9701	0.1593
296.1825	0.1702
296.3949	0.1578
296.6073	0.1638
296.8197	0.1613
297.0321	0.1738
297.2444	0.1618
297.4567	0.1651
297.6691	0.166
297.8814	0.1667
298.0937	0.1623
298.306	0.175
298.5182	0.1553
298.7305	0.1762
298.9428	0.1728
299.155	0.1732
299.3672	0.1747
299.5794	0.1658
299.7916	0.1496
300.0038	0.1667
300.216	0.1728
300.4282	0.1698
300.6403	0.164
300.8525	0.1755
301.0646	0.1612
301.2767	0.1656
301.4888	0.1593
301.7009	0.1665
301.913	0.1663
302.125	0.1702
302.3371	0.1561
302.5491	0.1707
302.7612	0.1695
302.9732	0.1716
303.1852	0.1725
303.3972	0.16
303.6092	0.1522
303.8211	0.1616
304.0331	0.1519
304.245	0.1541
304.457	0.1558
304.6689	0.1582
304.8808	0.1695
305.0927	0.146
305.3046	0.1512
305.5164	0.1609
305.7283	0.1595
305.9401	0.1521
306.152	0.1566
306.3638	0.1495
306.5756	0.1451
306.7874	0.1513
306.9992	0.1576
307.2109	0.1429
307.4227	0.1284
307.6344	0.1428
307.8462	0.1333
308.0579	0.1396
308.2696	0.1368
308.4813	0.137
308.693	0.1292
308.9046	0.1413
309.1163	0.1357
309.328	0.1304
309.5396	0.1219
309.7512	0.1371
309.9628	0.1233
310.1744	0.1263
310.386	0.1229
310.5976	0.119
310.8091	0.1239
311.0207	0.119
311.2322	0.1203
311.4437	0.108
311.6552	0.1146
311.8667	0.1165
312.0782	0.1042
312.2897	0.1038
312.5012	0.1201
312.7126	0.1052
312.924	0.1073
313.1355	0.117
313.3469	0.1075
313.5583	0.1161
313.7696	0.1071
313.981	0.1126
314.1924	0.1077
314.4037	0.1085
314.6151	0.1155
314.8264	0.0937
315.0377	0.0995
315.249	0.102
315.4603	0.117
315.6716	0.1097
315.8828	0.1005
316.0941	0.0905
316.3053	0.1029
316.5165	0.1003
316.7277	0.0861
316.9389	0.1002
317.1501	0.096
317.3613	0.1031
317.5724	0.08
317.7836	0.1006
317.9947	0.102
318.2058	0.0961
318.417	0.0989
318.6281	0.0967
318.8391	0.1037
319.0502	0.089
319.2613	0.103
319.4723	0.1038
319.6834	0.0969
319.8944	0.0801
320.1054	0.1007
320.3164	0.1075
320.5274	0.0918
320.7383	0.0966
320.9493	0.0972
321.1602	0.1111
321.3712	0.0842
321.5821	0.0998
321.793	0.1072
322.0039	0.0987
322.2148	0.1006
322.4257	0.1043
322.6365	0.1136
322.8474	0.1006
323.0582	0.101
323.269	0.1116
323.4798	0.1118
323.6906	0.1058
323.9014	0.0981
324.1122	0.1079
324.3229	0.101
324.5337	0.0961
324.7444	0.0993
324.9551	0.1179
325.1658	0.1043
325.3765	0.1155
325.5872	0.1039
325.7979	0.1078
326.0085	0.1006
326.2192	0.1064
326.4298	0.1018
326.6404	0.1039
326.851	0.0968
327.0616	0.096
327.2722	0.0953
327.4828	0.1136
327.6933	0.1059
327.9039	0.1016
328.1144	0.1052
328.3249	0.1093
328.5354	0.1088
328.7459	0.1084
328.9564	0.1031
329.1669	0.1093
329.3773	0.1082
329.5878	0.0989
329.7982	0.097
330.0086	0.1025
330.219	0.1088
330.4294	0.097
330.6398	0.1056
330.8502	0.1019
331.0605	0.1062
331.2708	0.1151
331.4812	0.1111
331.6915	0.1117
331.9018	0.1053
332.1121	0.1046
332.3224	0.1066
332.5326	0.1156
332.7429	0.0989
332.9531	0.119
333.1633	0.1046
333.3735	0.1175
333.5837	0.1068
333.7939	0.104
334.0041	0.111
334.2143	0.1097
334.4244	0.1056
334.6346	0.0927
334.8447	0.1219
335.0548	0.1075
335.2649	0.1002
335.475	0.1109
335.685	0.1024
335.8951	0.1198
336.1051	0.1152
336.3152	0.1161
336.5252	0.0988
336.7352	0.1151
336.9452	0.121
337.1552	0.1257
337.3652	0.1081
337.5751	0.1157
337.7851	0.1105
337.995	0.101
338.2049	0.1133
338.4148	0.1221
338.6247	0.132
338.8346	0.117
339.0445	0.1128
339.2543	0.1049
339.4642	0.1115
339.674	0.107
339.8838	0.1112
340.0936	0.1197
340.3034	0.1192
340.5132	0.1268
340.7229	0.1186
340.9327	0.1166
341.1424	0.119
341.3522	0.1227
341.5619	0.1273
341.7716	0.1163
341.9813	0.1226
342.1909	0.1186
342.4006	0.1255
342.6102	0.1388
342.8199	0.1263
343.0295	0.1252
343.2391	0.1255
343.4487	0.1323
343.6583	0.1177
343.8679	0.1352
344.0774	0.1342
344.287	0.1219
344.4965	0.1175
344.706	0.1363
344.9155	0.1269
345.125	0.1261
345.3345	0.144
345.544	0.126
345.7534	0.1223
345.9629	0.1254
346.1723	0.1266
346.3817	0.1203
346.5911	0.1304
346.8005	0.1342
347.0099	0.138
347.2193	0.1222
347.4286	0.1398
347.638	0.1476
347.8473	0.1383
348.0566	0.139
348.2659	0.1304
348.4752	0.1323
348.6845	0.1291
348.8937	0.1295
349.103	0.1418
349.3122	0.1347
349.5214	0.1229
349.7306	0.1369
349.9398	0.1436
350.149	0.1371
350.3582	0.1445
350.5674	0.1562
350.7765	0.1532
350.9856	0.1389
351.1948	0.135
351.4039	0.1309
351.613	0.1367
351.822	0.1485
352.0311	0.1516
352.2402	0.1424
352.4492	0.1556
352.6582	0.1484
352.8672	0.142
353.0762	0.1545
353.2852	0.1443
353.4942	0.1329
353.7032	0.1548
353.9121	0.147
354.1211	0.1601
354.33	0.1462
354.5389	0.1475
354.7478	0.1438
354.9567	0.154
355.1655	0.1477
355.3744	0.1482
355.5833	0.1571
355.7921	0.1662
356.0009	0.1537
356.2097	0.1826
356.4185	0.1614
356.6273	0.1675
356.8361	0.1593
357.0448	0.159
357.2536	0.1556
357.4623	0.1626
357.671	0.1697
357.8797	0.1699
358.0884	0.1754
358.2971	0.161
358.5057	0.17
358.7144	0.1741
358.923	0.1614
359.1316	0.1778
359.3402	0.1661
359.5488	0.1632
359.7574	0.1638
359.966	0.1787
360.1746	0.186
360.3831	0.1852
360.5916	0.1659
360.8002	0.1784
361.0087	0.1821
361.2172	0.183
361.4256	0.1744
361.6341	0.1917
361.8426	0.178
362.051	0.1903
362.2594	0.1819
362.4678	0.1673
362.6762	0.1991
362.8846	0.1926
363.093	0.1976
363.3014	0.1861
363.5097	0.1716
363.718	0.1816
363.9264	0.1901
364.1347	0.1895
364.343	0.1921
364.5513	0.2028
364.7595	0.1922
364.9678	0.1819
365.176	0.1918
365.3842	0.1945
365.5925	0.2075
365.8007	0.197
366.0089	0.1886
366.217	0.1821
366.4252	0.2052
366.6333	0.1926
366.8415	0.2024
367.0496	0.1969
367.2577	0.201
367.4658	0.2165
367.6739	0.1976
367.882	0.2139
368.09	0.1977
368.2981	0.1953
368.5061	0.1995
368.7141	0.2155
368.9221	0.2173
369.1301	0.2244
369.3381	0.1945
369.5461	0.2278
369.754	0.2077
369.962	0.225
370.1699	0.2145
370.3778	0.2254
370.5857	0.2023
370.7936	0.2236
371.0015	0.2236
371.2093	0.2296
371.4172	0.2361
371.625	0.2038
371.8328	0.2033
372.0406	0.2079
372.2484	0.2144
372.4562	0.2329
372.664	0.2118
372.8717	0.2293
373.0795	0.2034
373.2872	0.218
373.4949	0.2211
373.7026	0.2248
373.9103	0.2447
374.118	0.2388
374.3256	0.2344
374.5333	0.2304
374.7409	0.2204
374.9485	0.2358
375.1561	0.2315
375.3637	0.2457
375.5713	0.2248
375.7789	0.2209
375.9864	0.243
376.194	0.226
376.4015	0.234
376.609	0.2313
376.8165	0.2352
377.024	0.2232
377.2315	0.2315
377.4389	0.2338
377.6464	0.2441
377.8538	0.2373
378.0612	0.2451
378.2686	0.2425
378.476	0.2549
378.6834	0.2438
378.8908	0.2509
379.0981	0.2377
379.3055	0.252
379.5128	0.2498
379.7201	0.2502
379.9274	0.2299
380.1347	0.255
380.342	0.2574
380.5492	0.2402
380.7565	0.2449
380.9637	0.2573
381.1709	0.2504
381.3781	0.2676
381.5853	0.2564
381.7925	0.2395
381.9997	0.2498
382.2068	0.2541
382.4139	0.2674
382.6211	0.2385
382.8282	0.2414
383.0353	0.2312
383.2424	0.2695
383.4494	0.258
383.6565	0.2517
383.8635	0.2482
384.0706	0.2672
384.2776	0.2656
384.4846	0.2484
384.6916	0.2466
384.8986	0.2566
385.1055	0.2732
385.3125	0.2659
385.5194	0.2401
385.7263	0.2728
385.9333	0.278
386.1402	0.2532
386.347	0.2621
386.5539	0.2534
386.7608	0.2533
386.9676	0.2479
387.1744	0.2534
387.3813	0.2343
387.5881	0.2597
387.7948	0.2296
388.0016	0.233
388.2084	0.2537
388.4151	0.2402
388.6219	0.2682
388.8286	0.2506
389.0353	0.2583
389.242	0.2541
389.4487	0.2469
389.6553	0.2287
389.862	0.2257
390.0686	0.2372
390.2753	0.2503
390.4819	0.2509
390.6885	0.2405
390.8951	0.243
391.1016	0.2367
391.3082	0.2189
391.5147	0.2391
391.7213	0.2372
391.9278	0.2315
392.1343	0.2216
392.3408	0.2253
392.5473	0.2415
392.7537	0.2097
392.9602	0.2248
393.1666	0.2181
393.373	0.2361
393.5794	0.2362
393.7858	0.2289
393.9922	0.2263
394.1986	0.2233
394.4049	0.2241
394.6113	0.228
394.8176	0.215
395.0239	0.224
395.2302	0.2059
395.4365	0.2182
395.6428	0.2205
395.8491	0.2015
396.0553	0.2219
396.2615	0.2393
396.4678	0.2051
396.674	0.2196
396.8802	0.2187
397.0863	0.2277
397.2925	0.2077
397.4987	0.2088
397.7048	0.2231
397.9109	0.2177
398.117	0.1908
398.3231	0.2177
398.5292	0.2184
398.7353	0.2106
398.9413	0.2264
399.1474	0.2061
399.3534	0.2072
399.5594	0.2039
399.7654	0.2196
399.9714	0.2243
400.1774	0.2112
400.3833	0.2047
400.5893	0.2037
400.7952	0.216
401.0011	0.2244
401.207	0.2241
401.4129	0.2081
401.6188	0.203
401.8247	0.2103
402.0305	0.1934
402.2364	0.2061
402.4422	0.2272
402.648	0.2083
402.8538	0.2333
403.0596	0.1951
403.2654	0.2073
403.4711	0.1918
403.6768	0.206
403.8826	0.2172
404.0883	0.2317
404.294	0.2107
404.4997	0.2019
404.7054	0.2327
404.911	0.2095
405.1167	0.2211
405.3223	0.2258
405.5279	0.2217
405.7335	0.2196
405.9391	0.2165
406.1447	0.2195
406.3502	0.2179
406.5558	0.2123
406.7613	0.2011
406.9668	0.2157
407.1724	0.2205
407.3778	0.1902
407.5833	0.2109
407.7888	0.2043
407.9942	0.2202
408.1997	0.2188
408.4051	0.2102
408.6105	0.2158
408.8159	0.1994
409.0213	0.1965
409.2267	0.236
409.432	0.1994
409.6374	0.2267
409.8427	0.2042
410.048	0.1977
410.2533	0.2128
410.4586	0.2001
410.6639	0.2061
410.8691	0.204
411.0744	0.2062
411.2796	0.202
411.4848	0.2163
411.69	0.1934
411.8952	0.22
412.1004	0.2018
412.3056	0.2093
412.5107	0.1957
412.7158	0.2227
412.921	0.181
413.1261	0.2091
413.3312	0.1938
413.5362	0.2104
413.7413	0.1995
413.9464	0.2032
414.1514	0.1955
414.3564	0.1853
414.5614	0.1887
414.7664	0.2082
414.9714	0.2117
415.1764	0.2044
415.3813	0.2346
415.5863	0.1977
415.7912	0.2134
415.9961	0.2106
416.201	0.2009
416.4059	0.1992
416.6108	0.2001
416.8156	0.2005
417.0205	0.2126
417.2253	0.1971
417.4301	0.2137
417.6349	0.1948
417.8397	0.2016
418.0445	0.2144
418.2492	0.2259
418.454	0.209
418.6587	0.1921
418.8634	0.2017
419.0681	0.1762
419.2728	0.1804
419.4775	0.198
419.6822	0.195
419.8868	0.1713
420.0915	0.1865
420.2961	0.1744
420.5007	0.1823
420.7053	0.186
420.9099	0.1919
421.1144	0.2066
421.319	0.1809
421.5235	0.1919
421.728	0.1799
421.9325	0.1828
422.137	0.199
422.3415	0.1874
422.546	0.1865
422.7504	0.1853
422.9549	0.1899
423.1593	0.2028
423.3637	0.2062
423.5681	0.2032
423.7725	0.1795
423.9769	0.1696
424.1812	0.1638
424.3856	0.1766
424.5899	0.1903
424.7942	0.1589
424.9985	0.1797
425.2028	0.1604
425.4071	0.1861
425.6113	0.1704
425.8156	0.1718
426.0198	0.1716
426.224	0.1502
426.4282	0.1534
426.6324	0.1562
426.8366	0.1524
427.0407	0.1585
427.2449	0.1685
427.449	0.1576
427.6531	0.1403
427.8572	0.1733
428.0613	0.1432
428.2654	0.1729
428.4694	0.1531
428.6735	0.1531
428.8775	0.1655
429.0815	0.1567
429.2855	0.1367
429.4895	0.1592
429.6935	0.1488
429.8975	0.1451
430.1014	0.133
430.3053	0.1326
430.5093	0.1478
430.7132	0.1431
430.9171	0.1487
431.1209	0.1476
431.3248	0.1377
431.5286	0.1231
431.7325	0.1388
431.9363	0.1148
432.1401	0.1416
432.3439	0.1308
432.5477	0.1056
432.7514	0.1223
432.9552	0.1366
433.1589	0.114
433.3627	0.1137
433.5664	0.1148
433.7701	0.1258
433.9737	0.1204
434.1774	0.1043
434.3811	0.1151
434.5847	0.1071
434.7883	0.1105
434.9919	0.1147
435.1955	0.1093
435.3991	0.1173
435.6027	0.1125
435.8062	0.1061
436.0098	0.0855
436.2133	0.1005
436.4168	0.0855
436.6203	0.0881
436.8238	0.1094
437.0272	0.0878
437.2307	0.089
437.4341	0.1069
437.6375	0.1143
437.841	0.0835
438.0443	0.1099
438.2477	0.0974
438.4511	0.0917
438.6545	0.0986
438.8578	0.1037
439.0611	0.0726
439.2644	0.0863
439.4677	0.0719
439.671	0.0724
439.8743	0.0767
440.0775	0.0788
440.2808	0.0699
440.484	0.0704
440.6872	0.0601
440.8904	0.064
441.0936	0.0891
441.2967	0.0672
441.4999	0.0783
441.703	0.0762
441.9062	0.0586
442.1093	0.0703
442.3124	0.0731
442.5155	0.057
442.7185	0.0575
442.9216	0.0383
443.1246	0.0828
443.3276	0.0534
443.5307	0.0601
443.7337	0.0691
443.9366	0.0762
444.1396	0.0741
444.3426	0.0527
444.5455	0.0466
444.7484	0.0451
444.9513	0.0484
445.1542	0.0655
445.3571	0.0434
445.56	0.0649
445.7628	0.0367
445.9657	0.0237
446.1685	0.0586
446.3713	0.0659
446.5741	0.0539
446.7769	0.029
446.9797	0.0518
447.1824	0.0566
447.3852	0.0439
447.5879	0.0549
447.7906	0.0365
447.9933	0.0377
448.196	0.0262
448.3986	0.0419
448.6013	0.0296
448.8039	0.0189
449.0066	0.0267
449.2092	0.0246
449.4118	0.0324
449.6143	0.027
449.8169	0.0276
450.0195	0.0177
450.222	0.0184
450.4245	0.0274
450.627	0.0232
450.8295	0.0471
451.032	0.0201
451.2345	0.0336
451.4369	0.0398
451.6394	0.0359
451.8418	0.0151
452.0442	0.0211
452.2466	0.0296
452.449	0.0086
452.6513	0.0222
452.8537	0.0244
453.056	0.001
453.2583	0.0245
453.4607	0.0232
453.663	0.0106
453.8652	0.0292
454.0675	0.0115
454.2697	0.0256
454.472	0.0005
454.6742	0.0072
454.8764	0.0086
455.0786	0.0178
455.2808	0.0094
455.4829	0.0034
455.6851	0.0307
455.8872	0.0261
456.0893	0.0123
456.2915	0.0064
456.4935	0.0128
456.6956	0.0102
456.8977	0.0006
457.0997	0.0056
457.3018	-0.0031
457.5038	0.0119
457.7058	0.0046
457.9078	0.0157
458.1098	0.0154
458.3117	0.0258
458.5137	0.0064
458.7156	0.0107
458.9175	-0.0038
459.1194	0.0024
459.3213	0.0136
459.5232	-0.0067
459.725	0.0001
459.9269	-0.0022
460.1287	0.0057
460.3305	0.0057
460.5323	0.0095
460.7341	0.002
460.9359	0.0154
461.1376	0.0041
461.3394	-0.0028
461.5411	0.0042
461.7428	0.0005
461.9445	0.0191
462.1462	0.0197
462.3479	0.0057
462.5495	0.0015
462.7512	0.0148
462.9528	-0.0013
463.1544	-0.0134
463.356	0.0055
463.5576	-0.0075
463.7592	0.0028
463.9607	0.0004
464.1623	0.0029
464.3638	0.0178
464.5653	0.0003
464.7668	-0.0059
464.9683	0.0192
465.1697	0.0054
465.3712	-0.0094
465.5726	-0.0057
465.7741	-0.0019
465.9755	-0.0062
466.1769	0.003
466.3782	0.0009
466.5796	-0.0051
466.7809	0.0009
466.9823	0.0003
467.1836	-0.0082
467.3849	-0.0079
467.5862	0.0001
467.7875	-0.0018
467.9887	0.0107
468.19	-0.0056
468.3912	-0.0187
468.5924	0.0001
468.7936	0.0031
468.9948	0.0039
469.196	0.0096
469.3972	-0.0077
469.5983	0.0041
469.7994	-0.0203
470.0006	-0.003
470.2017	-0.0215
470.4027	0.0041
470.6038	0.0016
470.8049	-0.0279
471.0059	-0.0196
471.2069	-0.0177
471.408	0.009
471.6089	-0.0078
471.8099	-0.0055
472.0109	-0.002
472.2119	-0.0112
472.4128	-0.015
472.6137	0.0038
472.8146	-0.0211
473.0155	0.0017
473.2164	-0.0014
473.4173	0.0001
473.6181	-0.0002
473.819	0.0033
474.0198	-0.0078
474.2206	-0.0094
474.4214	-0.0117
474.6222	-0.0037
474.8229	-0.0152
475.0237	-0.0144
475.2244	-0.0166
475.4251	-0.0008
475.6258	-0.0081
475.8265	-0.0025
476.0272	0.0058
476.2278	-0.0119
476.4285	-0.023
476.6291	-0.0232
476.8297	-0.0023
477.0303	-0.0065
477.2309	-0.0054
477.4315	-0.0349
477.632	-0.0056
477.8326	-0.0053
478.0331	0.0056
478.2336	0.0007
478.4341	-0.003
478.6346	-0.0077
478.8351	-0.0058
479.0355	-0.0012
479.236	-0.0059
479.4364	0.0009
479.6368	-0.0057
479.8372	-0.0259
480.0376	-0.0089
480.2379	-0.0255
480.4383	-0.0194
480.6386	0.0134
480.8389	-0.0009
481.0392	-0.0059
481.2395	-0.0138
481.4398	-0.0033
481.6401	-0.0043
481.8403	-0.0013
482.0405	-0.0071
482.2408	-0.0026
482.441	0.0021
482.6411	-0.0072
482.8413	-0.0096
483.0415	-0.0021
483.2416	-0.0112
483.4417	-0.0125
483.6419	-0.0178
483.8419	-0.0029
484.042	0.0067
484.2421	0.0028
484.4422	-0.0064
484.6422	-0.0053
484.8422	-0.0065
485.0422	-0.0007
485.2422	0.0052
485.4422	-0.0106
485.6422	-0.0123
485.8421	-0.0165
486.042	-0.0059
486.242	-0.0085
486.4419	-0.0085
486.6417	-0.0106
486.8416	0.0025
487.0415	-0.0039
487.2413	-0.0157
487.4411	-0.0108
487.641	-0.0121
487.8408	0.0058
488.0405	-0.0099
488.2403	-0.0069
488.4401	-0.0001
488.6398	0.0047
488.8395	-0.0094
489.0392	-0.0113
489.2389	-0.0156
489.4386	-0.0117
489.6383	-0.0118
489.8379	-0.0055
490.0376	-0.0105
490.2372	-0.0077
490.4368	-0.0148
490.6364	-0.0081
490.836	-0.0108
491.0355	-0.0077
491.2351	-0.0135
491.4346	-0.0111
491.6341	-0.0147
491.8336	-0.0074
492.0331	-0.0117
492.2326	-0.0064
492.432	-0.0051
492.6315	-0.0073
492.8309	-0.0146
493.0303	-0.0155
493.2297	-0.0105
493.4291	-0.0187
493.6284	-0.0111
493.8278	-0.0109
494.0271	0.0079
494.2264	-0.0026
494.4257	-0.01
494.625	-0.0009
494.8243	-0.0182
495.0236	-0.0181
495.2228	-0.0113
495.422	-0.0033
495.6213	-0.0097
495.8205	-0.0059
496.0196	-0.0002
496.2188	0.002
496.418	-0.0192
496.6171	-0.0137
496.8162	-0.0162
497.0153	0.0009
497.2144	-0.0123
497.4135	-0.0113
497.6126	-0.0179
497.8116	-0.0162
498.0107	-0.0045
498.2097	-0.0164
498.4087	-0.0128
498.6077	-0.019
498.8067	-0.0167
499.0056	-0.0119
499.2046	-0.0167
499.4035	-0.021
499.6024	-0.0054
499.8013	-0.0106
500.0002	-0.0216
500.199	-0.0109
500.3979	-0.0035
500.5967	-0.0226
500.7956	-0.0143
500.9944	-0.0067
501.1932	-0.0119
501.3919	-0.0185
501.5907	-0.0122
501.7895	-0.0152
501.9882	-0.0081
502.1869	-0.0142
502.3856	-0.0177
502.5843	-0.0201
502.783	-0.0113
502.9816	-0.0088
503.1803	-0.0231
503.3789	-0.0102
503.5775	-0.006
503.7761	-0.0072
503.9747	-0.0078
504.1732	-0.0047
504.3718	-0.0112
504.5703	-0.012
504.7689	-0.0139
504.9674	-0.0064
505.1658	-0.0111
505.3643	-0.006
505.5628	-0.0077
505.7612	-0.0109
505.9597	-0.0037
506.1581	-0.0065
506.3565	-0.0015
506.5549	-0.0108
506.7532	-0.0155
506.9516	-0.0112
507.1499	-0.0139
507.3482	-0.0208
507.5465	-0.0114
507.7448	-0.0065
507.9431	-0.0117
508.1414	-0.0049
508.3396	-0.0073
508.5379	-0.0082
508.7361	-0.0056
508.9343	-0.0066
509.1325	-0.0069
509.3306	-0.0118
509.5288	-0.0036
509.7269	-0.0136
509.9251	-0.0073
510.1232	-0.0183
510.3213	0.0055
510.5193	0.0056
510.7174	-0.0151
510.9154	-0.0077
511.1135	-0.013
511.3115	-0.0121
511.5095	-0.0104
511.7075	-0.0094
511.9055	-0.0061
512.1034	-0.0059
512.3014	-0.0062
512.4993	-0.011
512.6972	-0.0144
512.8951	-0.0156
513.093	-0.0095
513.2908	-0.0004
513.4887	-0.0047
513.6865	-0.0127
513.8844	-0.0078
514.0822	-0.0217
514.2799	-0.019
514.4777	-0.0119
514.6755	-0.0152
514.8732	-0.0209
515.0709	-0.0205
515.2687	-0.0178
515.4664	0.002
515.664	-0.0062
515.8617	-0.0092
516.0594	-0.0175
516.257	-0.013
516.4546	-0.0212
516.6522	0.0032
516.8498	-0.0032
517.0474	-0.0051
517.2449	0.0021
517.4425	-0.0171
517.64	-0.003
517.8375	0.0029
518.035	-0.0001
518.2325	-0.0126
518.43	-0.0138
518.6274	-0.0066
518.8249	-0.0196
519.0223	-0.0072
519.2197	-0.0158
519.4171	-0.017
519.6145	-0.014
519.8118	-0.0084
520.0092	-0.0036
520.2065	-0.0104
520.4038	-0.0127
520.6011	-0.0038
520.7984	-0.0165
520.9956	-0.0105
521.1929	-0.0189
521.3901	-0.0072
521.5874	-0.0092
521.7846	-0.0107
521.9818	-0.011
522.1789	-0.0166
522.3761	-0.0043
522.5732	-0.01
522.7704	-0.0079
522.9675	-0.0071
523.1646	-0.0208
523.3617	-0.0087
523.5587	-0.0029
523.7558	0.0007
523.9528	-0.0157
524.1498	-0.0131
524.3468	-0.0109
524.5438	-0.0133
524.7408	-0.0068
524.9378	-0.0008
525.1347	0.0003
525.3316	0.0029
525.5285	-0.0089
525.7254	-0.0153
525.9223	-0.0007
526.1192	-0.0097
526.316	-0.0086
526.5129	-0
526.7097	-0.0045
526.9065	-0.0171
527.1033	-0.0082
527.3	-0.0055
527.4968	-0.0082
527.6935	-0.0006
527.8903	-0.0057
528.087	-0.0209
528.2837	-0.0127
528.4804	-0.0094
528.677	-0.012
528.8737	0.0016
529.0703	0.0013
529.2669	-0.0068
529.4635	-0.0035
529.6601	-0.0087
529.8567	-0.0057
530.0532	-0.0068
530.2498	0.0061
530.4463	-0.0026
530.6428	0.0038
530.8393	0.0063
531.0358	0.0017
531.2322	-0.005
531.4287	-0.0002
531.6251	-0.0088
531.8215	0.0075
532.0179	0.0014
532.2143	0.0139
532.4107	-0.0031
532.607	0.0031
532.8034	-0.0049
532.9997	0.0032
533.196	-0.0087
533.3923	-0.0169
533.5886	-0.002
533.7848	0.0078
533.9811	0.003
534.1773	-0.0019
534.3735	0.0041
534.5697	-0.0044
534.7659	-0.0111
534.9621	-0.0077
535.1582	-0.0178
535.3544	-0.0118
535.5505	-0.0049
535.7466	-0.0018
535.9427	-0.0036
536.1387	-0.0055
536.3348	-0.0029
536.5308	-0.0077
536.7269	-0.0201
536.9229	0.0002
537.1189	-0.001
537.3148	-0.0069
537.5108	-0.0106
537.7068	-0.0116
537.9027	-0.0057
538.0986	-0.011
538.2945	-0.0143
538.4904	-0.0096
538.6863	-0.0103
538.8821	0.0032
539.078	-0.0072
539.2738	-0.0019
539.4696	-0.0063
539.6654	0.001
539.8611	0.0041
540.0569	-0.0093
540.2526	-0.0061
540.4484	-0.0003
540.6441	0.0016
540.8398	-0.0059
541.0355	-0.0048
541.2311	-0.0082
541.4268	-0.0091
541.6224	0.004
541.818	-0.0085
542.0136	-0.0055
542.2092	0.0049
542.4048	-0.0012
542.6003	-0.0014
542.7959	-0.0013
542.9914	-0.0065
543.1869	-0.0003
543.3824	0.0007
543.5779	-0.0068
543.7734	-0.0071
543.9688	-0.0012
544.1642	0.0008
544.3596	-0.007
544.555	-0.0067
544.7504	0.0004
544.9458	-0.0039
545.1411	-0.0002
545.3365	-0.001
545.5318	-0.0043
545.7271	0.002
545.9224	-0.0046
546.1177	-0.0037
546.3129	-0.002
546.5081	-0.0119
546.7034	0.0002
546.8986	-0.0037
547.0938	-0.0096
547.289	-0.0106
547.4841	0.0056
547.6793	0.0016
547.8744	-0.0122
548.0695	-0.0023
548.2646	-0.0124
548.4597	0.001
548.6548	-0.0097
548.8498	-0.0026
549.0448	0.0072
549.2399	-0.003
549.4349	0.0059
549.6298	0.0023
549.8248	0.0016
550.0198	-0.0045
550.2147	-0.0035
550.4096	-0.0054
550.6045	-0.0068
550.7994	-0.0074
550.9943	0.0013
551.1892	-0.0032
551.384	0.0001
551.5788	-0.0052
551.7737	0.0057
551.9685	0.0071
552.1632	0.0022
552.358	-0.0072
552.5528	-0.007
552.7475	0.0011
552.9422	0.0044
553.1369	0.0044
553.3316	-0.0083
553.5263	-0.0174
553.7209	-0.0004
553.9156	-0.007
554.1102	-0.0044
554.3048	-0.0036
554.4994	0.0067
554.694	-0.0083
554.8885	0.0051
555.0831	-0.0047
555.2776	-0.0091
555.4721	0.0044
555.6666	0.0001
555.8611	-0.0018
556.0555	-0.0038
556.25	-0.0016
556.4444	-0.0042
556.6388	0.0055
556.8332	-0.0006
557.0276	-0.0081
557.222	0.0001
557.4163	-0.0077
557.6107	-0.0054
557.805	0.0017
557.9993	-0.0045
558.1936	-0.0013
558.3879	-0.0008
558.5821	0.0061
558.7764	0.0028
558.9706	-0.0001
559.1648	0.0036
559.359	-0.0028
559.5532	-0.0161
559.7473	-0.0047
559.9415	0.0015
560.1356	-0.0032
560.3297	-0.0161
560.5238	-0.0044
560.7179	-0.0046
560.9119	-0
561.106	-0.0103
561.3	-0.0106
561.494	-0.0003
561.688	-0.0132
561.882	-0.0092
562.076	-0.0064
562.2699	0.0026
562.4639	-0.002
562.6578	0.0036
562.8517	-0.0024
563.0456	-0.0028
563.2395	0.0136
563.4333	-0.0012
563.6272	-0.0024
563.821	-0.0041
564.0148	0.0002
564.2086	-0.0104
564.4024	-0.0073
564.5961	-0.005
564.7899	0.0053
564.9836	-0.001
565.1773	-0.002
565.371	0.0064
565.5647	0.003
565.7584	-0.0015
565.952	0.0055
566.1456	0.0009
566.3393	-0.0072
566.5329	-0.0017
566.7264	-0.0011
566.92	-0.0123
567.1136	-0.003
567.3071	-0.0008
567.5006	0.001
567.6941	0.0049
567.8876	-0.0048
568.0811	-0.0005
568.2745	-0.0011
568.468	0.0107
568.6614	0.0011
568.8548	0.0059
569.0482	0.0003
569.2416	-0.0006
569.4349	-0.0037
569.6283	0.0066
569.8216	-0.0027
570.0149	-0.0056
570.2082	0.0028
570.4015	0.0017
570.5947	0.0035
570.788	0.0015
570.9812	0.0058
571.1744	0.0005
571.3676	-0.0112
571.5608	-0.0102
571.754	0.007
571.9471	0.004
572.1402	-0.0018
572.3333	-0.0035
572.5264	-0.0029
572.7195	-0.011
572.9126	-0.0017
573.1057	-0.0011
573.2987	-0.0029
573.4917	0.0039
573.6847	-0.0091
573.8777	-0.005
574.0707	0.0072
574.2636	-0.0091
574.4566	0.001
574.6495	0.0031
574.8424	-0.0024
575.0353	0.005
575.2281	0.0075
575.421	-0.0007
575.6138	0.0051
575.8067	0.0012
575.9995	-0.0013
576.1923	0.0022
576.385	-0.0042
576.5778	0.0014
576.7706	-0.0015
576.9633	0.004
577.156	-0.0015
577.3487	0.0018
577.5414	-0.0061
577.734	-0.0062
577.9267	-0.0008
578.1193	-0.0126
578.3119	-0.0086
578.5045	-0.0084
578.6971	-0.0049
578.8897	0.0025
579.0822	0.0006
579.2747	0.0002
579.4673	-0.0023
579.6598	-0.0097
579.8522	-0.0047
580.0447	-0.0083
580.2372	-0.0064
580.4296	-0.0007
580.622	-0.0039
580.8144	-0.001
581.0068	-0.0071
581.1992	-0.0162
581.3915	-0.0112
581.5839	-0.0097
581.7762	-0.0094
581.9685	-0.0042
582.1608	-0.0049
582.353	-0.0074
582.5453	-0.0078
582.7375	0.0042
582.9298	-0.0008
583.122	0.0021
583.3142	-0.0004
583.5063	0.0005
583.6985	-0.001
583.8906	-0.0035
584.0827	-0.0039
584.2749	-0.0025
584.4669	-0.0006
584.659	-0.0046
584.8511	-0.0052
585.0431	-0.0082
585.2352	0.0004
585.4272	-0.0018
585.6192	-0.0003
585.8111	-0.002
586.0031	-0.0025
586.195	-0.0042
586.387	0.0059
586.5789	0.0012
586.7708	0.0033
586.9627	-0.0033
587.1545	-0.0039
587.3464	0.005
587.5382	0.006
587.73	0.0029
587.9218	0.0061
588.1136	-0.006
588.3053	0.0041
588.4971	-0.0069
588.6888	-0.0048
588.8805	-0.0005
589.0722	0.0023
589.2639	0.0029
589.4556	-0.0046
589.6472	-0.0036
589.8389	-0.0078
590.0305	-0.0119
590.2221	0.001
590.4137	-0.0063
590.6052	0.0029
590.7968	0.0018
590.9883	-0.0038
591.1798	-0.0054
591.3713	-0.0016
591.5628	-0.0002
591.7543	0.0034
591.9458	0.0038
592.1372	0.001
592.3286	0.0055
592.52	0.0096
592.7114	-0.0021
592.9028	-0.0042
593.0941	0.0024
593.2855	0.0043
593.4768	-0.0083
593.6681	-0.0023
593.8594	-0.0029
594.0506	0.0032
594.2419	0.0045
594.4331	0.0061
594.6244	0.003
594.8156	-0.0109
595.0067	-0.0053
595.1979	-0
595.3891	0.0011
595.5802	-0.0033
595.7713	0.0009
595.9624	-0.0073
596.1535	0.0096
596.3446	0.0025
596.5357	0.0053
596.7267	0.007
596.9177	0.0017
597.1087	-0.0059
597.2997	-0.0052
597.4907	-0.0004
597.6817	-0.0021
597.8726	-0.0016
598.0635	-0.0027
598.2544	0.0041
598.4453	-0.0025
598.6362	-0.002
598.827	-0.0025
599.0179	0.008
599.2087	0.0048
599.3995	0.0025
599.5903	0.0014
599.7811	0.0016
599.9718	0.0068
600.1626	-0.0007
600.3533	-0.0024
600.544	0.003
600.7347	0.0031
600.9254	0.0051
601.116	-0.0108
601.3067	-0.0017
601.4973	-0.0008
601.6879	-0.0005
601.8785	-0.0012
602.0691	0.0086
602.2596	0.0061
602.4502	0.0051
602.6407	0.0031
602.8312	0.0033
603.0217	-0.0048
603.2122	0.0046
603.4027	0.0019
603.5931	0.0018
603.7835	-0.0073
603.9739	-0.0001
604.1643	0.0015
604.3547	-0.0057
604.5451	0.0063
604.7354	0.0064
604.9257	0.0023
605.116	-0.0086
605.3063	0.0052
605.4966	0.0002
605.6869	-0.0052
605.8771	-0.0024
606.0673	-0.0001
606.2575	0.0032
606.4477	0.0067
606.6379	0.0053
606.8281	-0.0025
607.0182	-0.006
607.2083	0.0117
607.3985	0.0014
607.5885	0.0032
607.7786	0.0017
607.9687	-0.0061
608.1587	-0.0013
608.3488	-0.003
608.5388	-0.0027
608.7288	0.0012
608.9187	-0.0021
609.1087	-0.0049
609.2986	-0.0015
609.4886	0.003
609.6785	-0.0016
609.8684	0.0035
610.0582	0.0067
610.2481	-0.0019
610.4379	-0.0051
610.6278	-0.0006
610.8176	-0.0055
611.0074	-0.0072
611.1971	-0.0043
611.3869	0.0002
611.5766	-0.01
611.7664	0.0094
611.9561	-0.0014
612.1458	-0.0021
612.3354	-0.0016
612.5251	0.0036
612.7147	-0.0019
612.9044	0.0092
613.094	-0.0107
613.2836	0.0056
613.4731	0.0002
613.6627	-0.0025
613.8522	0.0074
614.0417	0.0055
614.2313	0.0009
614.4207	-0.0025
614.6102	0.0015
614.7997	-0.0071
614.9891	-0.011
615.1785	-0.0021
615.3679	-0.005
615.5573	0.0082
615.7467	-0.0009
615.9361	-0.0034
616.1254	0.0003
616.3147	0.0005
616.504	-0.0016
616.6933	0.0003
616.8826	0.0055
617.0718	0.0002
617.2611	0.0013
617.4503	-0.0101
617.6395	0
617.8287	-0.0015
618.0179	-0.0024
618.207	0.0066
618.3961	-0.0025
618.5853	-0.0009
618.7744	0.0081
618.9634	-0.0008
619.1525	0.0044
619.3416	0.0078
619.5306	0.0051
619.7196	-0.0013
619.9086	-0.0032
620.0976	0.0033
620.2866	-0.0028
620.4755	0.0049
620.6645	0.002
620.8534	-0.0024
621.0423	0.0011
621.2312	0.0091
621.42	0.0023
621.6089	0.0031
621.7977	0.0061
621.9865	-0.0049
622.1753	0.0036
622.3641	-0.0012
622.5529	0.004
622.7416	0.0065
622.9303	0.0006
623.1191	0.0072
623.3078	0.0023
623.4964	0.0002
623.6851	-0.0063
623.8737	0.0008
624.0624	0.0079
624.251	-0.0004
624.4396	-0.0006
624.6282	-0.0116
624.8167	-0.0002
625.0053	0.005
625.1938	0.0099
625.3823	0.0016
625.5708	-0.0023
625.7593	0.0018
625.9477	0.0002
626.1362	0.0037
626.3246	0.0088
626.513	0.0041
626.7014	0.0049
626.8898	-0.0017
627.0781	0.0015
627.2665	-0.0048
627.4548	0.0088
627.6431	0.0074
627.8314	0.0069
628.0197	0.0095
628.2079	-0.0049
628.3962	-0.0033
628.5844	0.0025
628.7726	0.0062
628.9608	0.0082
629.1489	0.003
629.3371	0.0067
629.5252	-0.0041
629.7134	0.0115
629.9015	0.0024
630.0895	0.0063
630.2776	0.0064
630.4657	0.0017
630.6537	0.0025
630.8417	-0.0009
631.0297	-0.007
631.2177	0.0002
631.4057	-0.0043
631.5936	-0.0026
631.7815	-0.0008
631.9695	0.0043
632.1574	0.003
632.3452	0.0031
632.5331	0.007
632.7209	0.0065
632.9088	0.0034
633.0966	0.0087
633.2844	-0.0018
633.4722	0.0055
633.6599	0.0046
633.8477	0.0093
634.0354	0.0074
634.2231	0.0009
634.4108	0.0061
634.5985	0.0092
634.7861	0.0026
634.9738	-0.0028
635.1614	-0.0069
635.349	0.0027
635.5366	0.0029
635.7242	-0.0037
635.9117	-0.0067
636.0993	-0.0034
636.2868	0.0087
636.4743	-0.0023
636.6618	0.007
636.8492	0.0079
637.0367	-0.0015
637.2241	-0.0007
637.4115	-0.0055
637.5989	0.0004
637.7863	0.0052
637.9737	0.0007
638.161	0.0057
638.3484	0.0013
638.5357	0.0117
638.723	0.0027
638.9103	0.0047
639.0975	0.0051
639.2848	0.0077
639.472	0.0056
639.6592	0.0111
639.8464	0.012
640.0336	0.0075
640.2208	0.0029
640.4079	0.0024
640.595	-0.0016
640.7821	0.0028
640.9692	0.0106
641.1563	0.0063
641.3434	0.004
641.5304	0.004
641.7174	-0.0027
641.9044	-0.0008
642.0914	0.0011
642.2784	0.0089
642.4653	0.0105
642.6523	0.0064
642.8392	0.003
643.0261	0.0012
643.213	0.0065
643.3999	0.0023
643.5867	0.0002
643.7735	0.0056
643.9604	-0.0055
644.1472	0.0017
644.3339	0.0069
644.5207	0.0023
644.7075	0.0049
644.8942	0.0097
645.0809	0.0071
645.2676	0.0108
645.4543	-0.0033
645.6409	0.0051
645.8276	0.0014
646.0142	0.0078
646.2008	-0.0048
646.3874	-0.0019
646.574	0.001
646.7605	-0.0004
646.9471	-0.009
647.1336	0.0005
647.3201	0.0021
647.5066	-0.0068
647.6931	0.0101
647.8795	-0.005
648.0659	0.001
648.2524	0.0097
648.4388	-0.0071
648.6252	-0.0013
648.8115	-0.0008
648.9979	0.0038
649.1842	0.0114
649.3705	0.0039
649.5568	0.0029
649.7431	0.0063
649.9294	0.0004
650.1156	0.0098
650.3018	-0.0034
650.488	0.0048
650.6742	0.0013
650.8604	0.0038
651.0466	0.0017
651.2327	0.0013
651.4188	0.0026
651.6049	0.0003
651.791	-0.0017
651.9771	0.0109
652.1632	0.0081
652.3492	0.0019
652.5352	0.0055
652.7212	0.0063
652.9072	0.0067
653.0932	0.0043
653.2791	-0.0007
653.465	0.0025
653.651	0.0035
653.8369	-0.0069
654.0227	0.0015
654.2086	0.009
654.3944	0.0051
654.5803	0.0005
654.7661	0.0044
654.9519	0.0112
655.1377	-0.0034
655.3234	-0.0013
655.5092	-0.004
655.6949	-0.0062
655.8806	-0.0007
656.0663	0.0007
656.2519	-0.0015
656.4376	-0.0023
656.6232	0.0056
656.8088	0.0065
656.9945	0.005
657.18	0.0058
657.3656	0.0078
657.5511	-0.0061
657.7367	-0.0048
657.9222	0.0068
658.1077	-0.001
658.2932	0.0115
658.4786	-0.0069
658.6641	0.002
658.8495	0.0044
659.0349	0.0039
659.2203	0.0136
659.4057	0.0021
659.591	0.0092
659.7764	0.0024
659.9617	0.0113
660.147	0.0057
660.3323	0.004
660.5176	0.0115
660.7028	0.005
660.888	0.0094
661.0733	0.0042
661.2585	-0.0015
661.4436	0.0065
661.6288	0.0011
661.8139	0.0064
661.9991	-0.0025
662.1842	0.0002
662.3693	0.0129
662.5544	-0.0043
662.7394	-0.0004
662.9245	0.0044
663.1095	0.0003
663.2945	0.0005
663.4795	-0.0043
663.6644	0.0005
663.8494	0.0059
664.0343	0.0031
664.2193	-0.0127
664.4042	-0.0025
664.589	-0.0079
664.7739	-0.0004
664.9587	-0.0051
665.1436	0.0016
665.3284	0.0036
665.5132	-0.0031
665.698	0.002
665.8827	0.0036
666.0675	0.0042
666.2522	-0.0068
666.4369	0.0082
666.6216	0.0079
666.8063	0.0079
666.9909	0.0026
667.1756	0.0061
667.3602	0.0089
667.5448	0.0016
667.7294	0.0064
667.9139	-0.0008
668.0985	0.0117
668.283	0.004
668.4675	0.0054
668.652	-0.0006
668.8365	0.0001
669.0209	0.0102
669.2054	0.0044
669.3898	0.0032
669.5742	0.009
669.7586	0.0067
669.943	0.0116
670.1273	0.01
670.3117	0.0047
670.496	0.0081
670.6803	0.0102
670.8646	0.0028
671.0488	0.0058
671.2331	0.0059
671.4173	0.0098
671.6015	0.0032
671.7857	0.0022
671.9699	0.015
672.1541	0.0053
672.3382	0.011
672.5223	0.0097
672.7064	0.0093
672.8905	0.0167
673.0746	0.0029
673.2587	0.0028
673.4427	0.0095
673.6267	0.0148
673.8107	0.0069
673.9947	0.0105
674.1787	0.0074
674.3626	-0.0029
674.5465	0.0071
674.7304	0.008
674.9143	0.0043
675.0982	0.0141
675.2821	0.0048
675.4659	0.0092
675.6497	0.0011
675.8335	0.0037
676.0173	0.0027
676.2011	0.0026
676.3849	0.0077
676.5686	-0.0018
676.7523	0.0032
676.936	0.0035
677.1197	-0.0011
677.3034	-0.0011
677.487	0.005
677.6706	0.0072
677.8542	0.0083
678.0378	0.0031
678.2214	0.0074
678.405	0.0045
678.5885	-0.0012
678.772	0.0012
678.9555	0.0016
679.139	0.002
679.3225	0.004
679.5059	0.0091
679.6894	0.0051
679.8728	0.0026
680.0562	0.0009
680.2395	0.0015
680.4229	0.0087
680.6062	0.0122
680.7896	0.0025
680.9729	-0.0086
681.1562	0.0124
681.3394	0.0027
681.5227	-0.0066
681.7059	-0.0016
681.8891	0.0063
682.0723	0.0069
682.2555	0.0072
682.4387	-0.0007
682.6218	0.0054
682.805	0.0088
682.9881	0.0018
683.1712	0.0081
683.3542	-0.0005
683.5373	0.0116
683.7203	0.0006
683.9034	0.0093
684.0864	-0.0041
684.2694	-0
684.4523	0.0051
684.6353	-0.0042
684.8182	0.0054
685.0011	-0.004
685.184	0.0101
685.3669	0.0028
685.5498	0.0096
685.7326	0.0125
685.9154	0.0034
686.0982	0.0134
686.281	0.0133
686.4638	0.0077
686.6465	0.0019
686.8293	0.0033
687.012	0.0025
687.1947	-0.0068
687.3774	0.0065
687.56	-0.0036
687.7427	0.0061
687.9253	-0.0042
688.1079	0.0078
688.2905	0.001
688.4731	0.0007
688.6556	-0.0028
688.8382	-0.0017
689.0207	0.0041
689.2032	-0.0014
689.3857	-0.0016
689.5681	0.0087
689.7506	0.0005
689.933	-0.0013
690.1154	-0.0084
690.2978	0.0003
690.4802	0.0046
690.6626	0
690.8449	-0.0059
691.0272	0.0033
691.2095	-0.0056
691.3918	-0.0095
691.5741	0.001
691.7563	0.0027
691.9386	0.0026
692.1208	0.0036
692.303	-0.0011
692.4852	-0.0028
692.6673	0.002
692.8495	0.0041
693.0316	0.0011
693.2137	-0.0023
693.3958	0.0027
693.5778	0.0061
693.7599	0.001
693.9419	-0.0005
694.1239	0.008
694.3059	0.0028
694.4879	0.0079
694.6699	0.0049
694.8518	0.002
695.0337	-0.0036
695.2157	0.0069
695.3975	-0.0028
695.5794	0.006
695.7613	0.0048
695.9431	0.0034
696.1249	-0.0013
696.3067	0.0005
696.4885	0.0072
696.6703	0.0018
696.852	0.0092
697.0337	0.001
697.2154	0.003
697.3971	0.0102
697.5788	0.0067
697.7605	0.0009
697.9421	0.0141
698.1237	0.003
698.3053	0.0016
698.4869	-0.0044
698.6685	0.0032
698.85	-0.0072
699.0315	0.0097
699.213	0.0037
699.3945	0.0071
699.576	0.0145
699.7575	0.0109
699.9389	0.0104
700.1203	-0.001
700.3017	-0.0045
700.4831	-0.013
700.6645	-0.0021
700.8458	0.0022
701.0271	-0.0111
701.2084	0.0037
701.3897	-0.0068
701.571	0.0017
701.7523	-0.0037
701.9335	-0.004
702.1147	-0.0002
702.2959	0.0049
702.4771	0.0029
702.6583	0.0031
702.8394	-0.0057
703.0205	0.0064
703.2016	-0.0019
703.3827	0.0032
703.5638	0.0122
703.7449	0.0025
703.9259	0.0047
704.1069	0.0006
704.2879	0.0016
704.4689	0.0026
704.6499	-0.0013
704.8308	-0.0002
705.0117	0.0003
705.1927	-0.0014
705.3735	-0.0013
705.5544	-0.004
705.7353	-0.0024
705.9161	-0.0053
706.0969	-0.0019
706.2777	-0.002
706.4585	0.0011
706.6393	0.0049
706.82	-0.0053
707.0007	-0.0022
707.1815	0.0017
707.3621	0.0106
707.5428	0
707.7235	0.0057
707.9041	0.0001
708.0847	-0.0076
708.2653	0.0013
708.4459	-0.0112
708.6265	-0.0022
708.807	-0.0019
708.9875	-0.0027
709.168	0.0024
709.3485	-0.0086
709.529	-0.0004
709.7095	-0.0123
709.8899	-0.0069
710.0703	-0.0072
710.2507	0.0004
710.4311	-0.0005
710.6115	-0.0092
710.7918	-0.0064
710.9721	-0.0081
711.1524	-0.0075
711.3327	0.0013
711.513	0.0023
711.6932	0.0051
711.8735	0.0037
712.0537	-0.0031
712.2339	-0.0019
712.4141	-0.0106
712.5942	-0.0045
712.7744	-0.0096
712.9545	-0.0048
713.1346	-0.0042
713.3147	-0.0001
713.4947	-0.0065
713.6748	0.0034
713.8548	0.008
714.0348	0.006
714.2148	0.0012
714.3948	0.0095
714.5748	0.0081
714.7547	0.004
714.9346	0.0033
715.1145	-0.0039
715.2944	-0.0007
715.4743	0.0001
715.6541	0.0056
715.834	0.0069
716.0138	0.0053
716.1936	-0.0178
716.3733	-0.002
716.5531	0.003
716.7328	-0.003
716.9126	-0.0039
717.0923	0.0024
717.2719	0.0019
717.4516	0.008
717.6312	0.0011
717.8109	0.0035
717.9905	0.0038
718.1701	-0.0031
718.3496	-0.0041
718.5292	0.0033
718.7087	-0.0007
718.8882	0
719.0677	0.0048
719.2472	0.0015
719.4267	0.0077
719.6061	0.0059
719.7856	0.0012
719.965	0.0088
720.1443	0.0069
720.3237	0.0187
720.5031	0.01
720.6824	0.0126
720.8617	-0.003
721.041	0.0019
721.2203	0.0091
721.3995	0.0013
721.5788	0.0047
721.758	0.0081
721.9372	-0.0012
722.1164	0.0072
722.2956	0.0102
722.4747	0.0011
722.6538	0.0008
722.8329	0.0081
723.012	0.0041
723.1911	-0.0022
723.3702	-0.0033
723.5492	-0.0025
723.7282	-0.0029
723.9072	0.0026
724.0862	-0.0119
724.2652	-0.0042
724.4441	0.0018
724.623	0.0002
724.8019	-0.0034
724.9808	0.0035
725.1597	-0.0103
725.3385	-0.0013
725.5174	0.0034
725.6962	-0.0026
725.875	-0.0007
726.0538	0.0079
726.2325	0.0022
726.4112	0.0089
726.59	-0.0009
726.7687	0.0009
726.9474	0.0116
727.126	0.0015
727.3047	-0.0009
727.4833	-0
727.6619	-0.0006
727.8405	-0.0049
728.0191	-0.0004
728.1976	0.005
728.3762	0.0011
728.5547	0.0052
728.7332	-0.0095
728.9116	-0.0086
729.0901	0.0025
729.2686	-0.0071
729.447	0.0063
729.6254	-0
729.8038	-0.0037
729.9821	-0.009
730.1605	0.0067
730.3388	-0.0077
730.5171	-0.0048
730.6954	0.004
730.8737	-0.002
731.0519	0.0103
731.2302	-0.0001
731.4084	0.0127
731.5866	-0.0008
731.7648	0.0037
731.9429	0.0024
732.1211	-0.0041
732.2992	0.004
732.4773	0.0033
732.6554	0.0046
732.8335	0.002
733.0115	0.0047
733.1896	0.0042
733.3676	-0.0018
733.5456	0.0126
733.7235	0.0073
733.9015	0.0049
734.0794	0.0007
734.2574	-0.0027
734.4353	0.0046
734.6131	0.0082
734.791	0.0008
734.9689	-0.0059
735.1467	-0.005
735.3245	-0.0106
735.5023	-0.0044
735.68	-0.0076
735.8578	0.0071
736.0355	-0.0204
736.2132	0.003
736.3909	-0.0033
736.5686	-0.0099
736.7463	0.0017
736.9239	-0.0116
737.1015	-0.01
737.2791	0.004
737.4567	-0.0018
737.6343	-0.0097
737.8118	-0.0009
737.9894	0.0087
738.1669	-0.0046
738.3444	-0.0028
738.5218	0.0024
738.6993	0.002
738.8767	0.0005
739.0541	0.0163
739.2315	-0.0095
739.4089	0.0049
739.5863	0.0045
739.7636	-0
739.9409	0.0103
740.1182	0.0077
740.2955	0.0016
740.4728	0.0025
740.65	-0.0032
740.8272	-0.0106
741.0044	-0.0024
741.1816	0.0051
741.3588	-0
741.5359	0.0054
741.7131	-0.0012
741.8902	0.0051
742.0673	-0.0022
742.2444	-0.0075
742.4214	-0.0092
742.5985	0.0002
742.7755	0.002
742.9525	-0.0117
743.1295	0.0082
743.3064	0.0077
743.4834	0.009
743.6603	0.0016
743.8372	-0.008
744.0141	-0.0002
744.191	0.0042
744.3678	-0
744.5446	0.0007
744.7215	0.0085
744.8982	0.0003
745.075	-0.0031
745.2518	0.0065
745.4285	0.0022
745.6052	-0.0029
745.7819	-0.0053
745.9586	-0.0055
746.1353	-0.0012
746.3119	-0.0021
746.4885	-0.0054
746.6651	-0.0038
746.8417	-0.0033
747.0183	-0.0065
747.1948	-0.0043
747.3714	-0.0002
747.5479	0.0078
747.7244	-0.0015
747.9008	0.0101
748.0773	-0.0013
748.2537	0.0061
748.4301	-0.004
748.6065	0.0018
748.7829	0.0085
748.9593	-0.0034
749.1356	-0.005
749.3119	0.0075
749.4882	-0.0115
749.6645	0.0075
749.8408	-0.0004
750.017	-0.0047
750.1933	0.0047
750.3695	-0.0108
750.5457	0.0016
750.7218	-0.0019
750.898	-0.0049
751.0741	-0.0058
751.2502	-0.0068
751.4263	-0.0049
751.6024	-0.0028
751.7784	0.0031
751.9545	-0.0111
752.1305	-0.0089
752.3065	-0.0027
752.4825	0.0011
752.6584	-0.0063
752.8344	0.0005
753.0103	-0.0122
753.1862	-0.0114
753.3621	-0.0035
753.5379	-0.0106
753.7138	0.0013
753.8896	-0.003
754.0654	0.0051
754.2412	0.0126
754.417	0.0039
754.5927	-0.0048
754.7685	0.0012
754.9442	-0.0008
755.1199	0.0005
755.2956	-0.0092
755.4712	0.0062
755.6469	-0.0096
755.8225	-0.0021
755.9981	-0.0033
756.1736	-0.0031
756.3492	-0.006
756.5248	-0.0052
756.7003	-0.0075
756.8758	0.0033
757.0513	-0.0234
757.2267	-0.0137
757.4022	0.0114
757.5776	-0.0115
757.753	0.0049
757.9284	0.0034
758.1038	0.0147
758.2791	0.0079
758.4545	-0.0037
758.6298	0.003
758.8051	0.0033
758.9803	0.013
759.1556	0.0049
759.3308	0.0001
759.506	0.0056
759.6812	0.0023
759.8564	0.0056
760.0316	0.0036
760.2067	0.0135
760.3819	0.0142
760.557	0.0097
760.732	-0.0023
760.9071	-0.0061
761.0821	-0.006
761.2572	0.0033
761.4322	-0.0028
761.6072	-0.0072
761.7821	-0.0106
761.9571	-0.0026
762.132	-0.0083
762.3069	-0.0142
762.4818	-0.0042
762.6567	-0.0114
762.8316	-0.0012
763.0064	-0.0077
763.1812	0.0052
763.356	-0.0011
763.5308	-0.0034
763.7055	-0.0065
763.8803	-0.0048
764.055	-0.0083
764.2297	-0.0028
764.4044	-0.0063
764.579	-0.008
764.7537	-0.0101
764.9283	-0.011
765.1029	-0.0142
765.2775	-0.0149
765.4521	-0.0069
765.6266	-0.0062
765.8011	-0.0086
765.9756	-0.0028
766.1501	0.0127
766.3246	-0.0047
766.4991	0.0014
766.6735	-0.005
766.8479	-0.0009
767.0223	0.0024
767.1967	0.0004
767.371	0.0026
767.5454	-0.0055
767.7197	0.0039
767.894	-0.0034
768.0683	-0.0093
768.2425	0.002
768.4168	-0.0065
768.591	-0.0041
768.7652	-0.0058
768.9394	-0.0028
769.1135	0.002
769.2877	-0.0002
769.4618	0.0034
769.6359	-0.0062
769.81	0.0045
769.984	0.0018
770.1581	-0.0008
770.3321	-0.0119
770.5061	-0.002
770.6801	-0.004
770.8541	0.0096
771.028	0.0038
771.202	-0.0084
771.3759	0.0001
771.5498	-0.0106
771.7236	0.0073
771.8975	-0.0035
772.0713	0.0056
772.2451	0.0028
772.4189	0.0145
772.5927	0.0173
772.7665	-0.0015
772.9402	0.0085
773.1139	-0
773.2876	0.0001
773.4613	0.0098
773.635	0.0018
773.8086	-0.0188
773.9822	0.0077
774.1558	0.0014
774.3294	-0.0075
774.503	0.0012
774.6765	0.0007
774.8501	0.0013
775.0236	0.0074
775.1971	0.0128
775.3705	-0.0137
775.544	0.0006
775.7174	-0.0111
775.8908	0.0059
776.0642	-0.005
776.2376	-0.0006
776.4109	-0.0125
776.5843	-0
776.7576	0.0038
776.9309	0.0095
777.1041	0.0055
777.2774	0.0063
777.4506	-0.0024
777.6238	-0.0074
777.797	0.0043
777.9702	0.0086
778.1434	-0.0184
778.3165	-0.0148
778.4896	-0.0025
778.6627	0.0072
778.8358	0.0006
779.0089	-0.0003
779.1819	0.0047
779.3549	0.0104
779.5279	0.0119
779.7009	-0.0009
779.8739	0.0114
780.0468	0.0049
780.2197	0.003
780.3926	-0.008
780.5655	0.0067
780.7384	0.0092
780.9112	0.0008
781.0841	0.0018
781.2569	0.0029
781.4297	0.0046
781.6024	0.0112
781.7752	0.0009
781.9479	0.0107
782.1206	0.0075
782.2933	-0.0017
782.466	0.002
782.6386	0.0102
782.8113	0.0096
782.9839	0.0147
783.1565	0.0166
783.329	0.0113
783.5016	0.004
783.6741	0.0113
783.8466	-0.0032
784.0191	0.0122
784.1916	-0.001
784.3641	0.0002
784.5365	0.0092
784.7089	-0.0003
784.8813	-0.0036
785.0537	0.0001
785.2261	-0.0079
785.3984	-0.0151
785.5707	0.0086
785.743	0.0014
785.9153	-0.0052
786.0876	0.0065
786.2598	-0.023
786.432	-0.0159
786.6042	0.0069
786.7764	-0.0138
786.9486	0.0045
787.1207	-0.0152
787.2928	0.0058
787.4649	-0.007
787.637	-0.0095
787.8091	-0.0013
787.9811	-0.0198
788.1532	0.0035
788.3252	0.0011
788.4972	-0.0167
788.6691	-0
788.8411	0.0053
789.013	-0.0043
789.1849	-0.0142
789.3568	-0.0084
789.5287	-0.0078
789.7005	-0.0024
789.8723	0.0024
790.0442	0.0226
790.2159	0.0064
790.3877	-0.0107
790.5595	-0.023
790.7312	-0.0053
790.9029	-0.0143
791.0746	-0.0145
791.2463	-0.01
791.4179	-0.0105
791.5896	-0.0078
791.7612	0.0043
791.9328	0.0029
792.1044	-0.0122
792.2759	-0.0306
792.4474	-0.0092
792.619	0.0008
792.7905	0.0043
792.9619	0.0108
793.1334	0.01
793.3048	0.005
793.4762	-0.0008
793.6476	0.0203
793.819	0.0003
793.9904	0.0013
794.1617	-0.0042
794.333	-0.0019
794.5043	0.0097
794.6756	0.0013
794.8469	-0.0083
795.0181	-0.0093
795.1893	-0.004
795.3605	0.0088
795.5317	-0.015
795.7029	0.0029
795.874	0.0044
796.0452	-0.0165
796.2163	-0.0025
796.3873	0.0119
796.5584	0.0008
796.7294	-0.0043
796.9005	-0.0076
797.0715	-0.0129
797.2425	-0.0254
797.4134	-0.0031
797.5844	-0.0091
797.7553	-0.0143
797.9262	-0.006
798.0971	-0.0223
798.2679	-0.0122
798.4388	-0.0287
798.6096	-0.0117
798.7804	-0.0148
798.9512	-0.0076
799.122	-0.0105
799.2927	-0.0125
799.4635	0.0055
799.6342	-0.0348
799.8049	-0.0272
799.9755	-0.0209
800.1462	-0.0109
800.3168	-0.0041
800.4874	-0.0158
800.658	0.0017
800.8286	-0.0083
800.9991	0.0085
801.1696	-0.0024
801.3402	-0.0052
801.5106	0.0006
801.6811	-0.0077
801.8516	0.0059
802.022	0.0028
802.1924	-0.0095
802.3628	0.0098
802.5332	0.0063
802.7035	0.0074
802.8739	-0.0115
803.0442	-0.0084
803.2145	0.0079
803.3847	-0.032
803.555	0.0088
803.7252	-0.028
803.8954	-0.0244
804.0656	-0.0218
804.2358	-0.0142
804.4059	-0.011
804.5761	-0.0037
804.7462	-0.0185
804.9163	-0.0087
805.0864	-0.0311
805.2564	-0.0125
805.4264	-0.004
805.5965	-0.0233
805.7665	-0.0047
805.9364	0.0002
806.1064	0.0266
806.2763	-0.0018
806.4462	0.028
806.6161	0.0153
806.786	0.0157
806.9559	-0.0169
807.1257	0.0117
807.2955	-0.0061
807.4653	-0.0091
807.6351	-0.029
807.8048	-0.0207
807.9746	0.0066
808.1443	0.0057
808.314	-0.0147
808.4837	-0.0183
808.6533	-0.0043
808.8229	0.0132
808.9926	-0.011
809.1622	-0.0008
809.3317	-0.021
809.5013	-0.0174
809.6708	-0.0144
809.8403	-0.0084
810.0098	-0.0018
810.1793	-0.0048
810.3488	-0.0214
810.5182	-0.0343
810.6876	-0.0086
810.857	-0.0257
811.0264	0.0127
811.1958	0.0095
811.3651	-0.0066
811.5344	-0.012
811.7037	-0.0024
811.873	-0.0207
812.0422	-0.0035
812.2115	0.0032
812.3807	-0.013
812.5499	0.0032
812.7191	-0.0109
812.8882	-0.0168
813.0574	-0.026
813.2265	-0.0132
813.3956	-0.0113
813.5646	-0.0163
813.7337	-0.018
813.9027	0.012
814.0718	0.0135
814.2407	0.007
814.4097	0.0016
814.5787	-0.0067
814.7476	0.0102
814.9165	-0.0116
815.0854	-0.0132
815.2543	-0.0231
815.4232	-0.0052
815.592	0.0134
815.7608	0.0077
815.9296	-0.0059
816.0984	-0.0314
816.2671	0.0168
816.4359	-0.0067
816.6046	-0.001
816.7733	-0.0085
816.942	-0.0242
817.1106	0.0093
817.2793	-0.0038
817.4479	-0.0028
817.6165	0.0015
817.785	-0.0122
817.9536	-0.0199
818.1221	-0.001
818.2906	0.0057
818.4591	-0.0056
818.6276	-0.0285
818.7961	-0.0004
818.9645	0.0049
819.1329	-0.0138
819.3013	-0.0075
819.4697	0.0279
819.638	-0.0109
819.8064	0.0033
819.9747	0.0031
820.143	-0.0111
820.3113	-0.0252
820.4795	-0.0295
820.6477	-0.0096
820.816	-0.0327
820.9842	-0.0276
821.1523	0.0068
821.3205	-0.0061
821.4886	-0.0073
821.6567	0.0064
821.8248	0.0058
821.9929	-0.0035
822.1609	0.0014
822.329	0.0376
822.497	0.035
822.665	0.0051
822.833	-0.0085
823.0009	0.0246
823.1688	0.0323
823.3367	0.0255
823.5046	0.0119
823.6725	0.0484
823.8404	0.0055
824.0082	0.0094
824.176	0.0164
824.3438	0.0586
824.5116	-0.0481
824.6793	0.012
824.847	-0.0139
825.0147	0.0003
825.1824	-0.0017
825.3501	0.0176
825.5177	-0.0363
825.6854	-0.0005
825.853	0.0369
826.0206	-0.032
826.1881	-0.0124
826.3557	-0.0433
826.5232	-0.0036
826.6907	-0.0112
826.8582	-0.0006
827.0257	-0.0389
827.1931	-0.0037
827.3605	-0.0182
827.528	-0.0289
827.6953	-0.023
827.8627	-0.0125
828.03	0.0078
828.1974	0.0084
828.3647	-0.0665
828.532	-0.0329
828.6992	-0.0401
828.8665	-0.0133
829.0337	-0.0155
829.2009	-0.0105
829.3681	-0.0072
829.5352	0.0401
829.7024	-0.0357
829.8695	-0.0257
830.0366	0.0203
830.2037	-0.0151
830.3707	-0.0113
830.5378	-0.0012
830.7048	-0.025
830.8718	-0.0213
831.0388	0.0004
831.2057	-0.008
831.3727	0.0373
831.5396	-0.0007
831.7065	-0.0247
831.8734	-0.0268
832.0402	0.0125
832.2071	-0.0216
832.3739	-0.0392
832.5407	-0.0245
832.7075	-0.0203
832.8742	-0.0394
833.041	-0.0291
833.2077	0.0048
833.3744	0.0076
833.541	-0.0225
833.7077	-0.025
833.8743	-0.0028
834.0409	-0.002
834.2075	0.0095
834.3741	-0.0111
834.5407	-0.0014
834.7072	-0.039
834.8737	-0.0126
835.0402	-0.0055
835.2067	0.0301
835.3731	-0.0106
835.5395	0.003
835.706	-0.0034
835.8723	-0.0171
836.0387	-0.02
836.2051	-0.0029
836.3714	-0.009
836.5377	-0.0097
836.704	-0.0224
836.8703	0.0076
837.0365	-0.0081
837.2027	-0.0406
837.3689	0.0449
837.5351	-0.0389
837.7013	-0.0544
837.8674	-0.0427
838.0335	-0.0615
838.1997	0.0031
838.3657	-0.0208
838.5318	-0.027
838.6978	0.0034
838.8639	0.0164
839.0299	-0.0459
839.1958	-0.014
839.3618	-0.0571
839.5277	-0.0129
839.6937	0.0031
839.8596	-0.0266
840.0254	0.036
840.1913	0.0039
840.3571	0.0241
840.523	-0.0597
840.6888	-0.0646
840.8545	-0.0587
841.0203	-0.0199
841.186	-0.0019
841.3517	-0.0011
841.5174	0.0033
841.6831	-0.0398
841.8488	0.0153
842.0144	-0.0075
842.18	-0.0072
842.3456	0.0092
842.5112	0.0259
842.6767	-0.0459
842.8422	-0.0487
843.0077	-0.0104
843.1732	0.0489
843.3387	-0.0464
843.5042	-0.0382
843.6696	0.0119
843.835	-0.0254
844.0004	0.0096
844.1657	0.0171
844.3311	-0.0607
844.4964	-0.1258
844.6617	-0.0365
844.827	-0.0516
844.9923	0.0391
845.1575	-0.0212
845.3227	0.0222
845.4879	-0.0014
845.6531	-0.0544
845.8183	-0.0785
845.9834	0.0728
846.1485	-0.0152
846.3136	-0.0226
846.4787	-0.0571
846.6438	0.0396
846.8088	-0.0828
846.9738	-0.0821
847.1388	-0.021
847.3038	-0.0253
847.4687	-0.1134
847.6337	0.0652
847.7986	-0.0211
847.9635	0.007
848.1284	0.0426
848.2932	0.025
848.458	0.0387
848.6228	0.048
848.7876	0.0039
848.9524	-0.1213
849.1172	-0.1177
849.2819	0.0138
849.4466	-0.1224
849.6113	-0.1109
849.7759	-0.1095
849.9406	-0.0038
850.1052	0.06
850.2698	-0.1176
850.4344	0.0094
850.599	-0.0579
850.7635	0.0337
850.928	-0.1294
851.0925	0.0014
851.257	-0.0161
851.4215	0.0407
851.5859	-0.0501
851.7503	-0.055
851.9147	-0.0053
852.0791	-0.0543
852.2434	-0.0798
852.4078	0.0637
852.5721	0.0694
852.7364	-0.0699
852.9007	-0.1236
853.0649	0.0742
853.2291	0.0467
853.3934	-0.0823
853.5575	0.0763
853.7217	-0.0647
853.8859	-0.017
854.05	-0.1472
854.2141	-0.1081
854.3782	-0.0687
854.5423	-0.0766
854.7063	0.1364
854.8703	-0.0007
855.0343	0.0024
855.1983	-0.2018
855.3623	0.1371
855.5262	0.0395
855.6901	-0.0266
855.854	0.0228
856.0179	0.0874
856.1818	0.0858
856.3456	-0.0207
856.5094	-0.1093
856.6732	-0.0011
856.837	0.0532
857.0008	-0.0063
857.1645	-0.0782
857.3282	-0.0431
857.4919	-0.0133
857.6556	-0.0287
857.8192	-0.0041
857.9828	0.2194
858.1465	0.0529
858.31	-0.1987
858.4736	-0.0595
858.6372	-0.3745
858.8007	-0.0708
858.9642	0.0222
859.1277	0.2035
859.2911	-0.0012
859.4546	-0.0064
859.618	-0.4739
859.7814	-0.0887
859.9448	0.0257
860.1081	0.0549
860.2715	0.144
860.4348	0.2201
860.5981	-0.0196
860.7614	0.2171
860.9246	-0.0527
861.0879	-0.0983
861.2511	-0.0188
861.4143	-0.2142
861.5774	0.1019
861.7406	0.139
861.9037	0.0965
862.0668	-0.0336
862.2299	-0.2048
862.393	-0.409
862.556	-0.0254
862.7191	-0.265
862.8821	-0.1579
863.0451	0.0963
863.208	0.1233
863.371	-0.0672
863.5339	0.2122
863.6968	0.0855
863.8597	0.1598
864.0225	-0.2409
864.1854	-0.1587
864.3482	-0.0892
864.511	-0.0224
864.6737	0.3099
864.8365	-0.1618
864.9992	-0.4592
865.1619	-0.4592
865.3246	-0.127
865.4873	0.1296
865.65	-0
865.8126	-0.2379
865.9752	-0.0846
866.1378	1.0247
866.3004	0.76
866.4629	0.3434
866.6254	0.0538
866.7879	-0.0391
866.9504	-0.3021
867.1129	-0
867.2753	0.0825
867.4377	0.1106
867.6001	-0.2598
867.7625	0.146
867.9249	-0
868.0872	-0.194
868.2495	0.2518
868.4118	-0.3242
868.5741	-0.7101
868.7363	-0.1827
868.8986	-0
869.0608	0.0684
869.223	0.5185
869.3851	-0
869.5473	-0
869.7094	0.2503
869.8715	-0.1028
870.0336	-0
870.1957	-0.258
870.3577	-0
870.5197	-0.1995
870.6817	-0.3593
870.8437	-0.1072
871.0057	-0.0525
871.1676	-0.6867
871.3295	-0.4074
871.4914	-0
871.6533	-0.2605
871.8151	-0.4673
871.977	-0
872.1388	-0
872.3006	-0.1608
872.4623	-0
872.6241	-0.0575
872.7858	0.2192
872.9475	-0.1643
873.1092	-0.2946
873.2709	0.225
873.4325	-0.3137
873.5941	1.4281
873.7557	-0
873.9173	-0
874.0789	-0
874.2404	-0.2022
874.4019	0.1146
874.5634	0.0364
874.7249	-0.2208
874.8863	0.1098
875.0478	0.0316
875.2092	-0
875.3706	0.2945
875.5319	-0.7087
875.6933	0.8043
875.8546	-0.1555
876.0159	-0
876.1772	0.2148
876.3385	-0.385
876.4997	0.7583
876.6609	-0.5552
876.8221	-0
876.9833	-0
877.1445	-0
877.3056	0.1884
877.4667	-0.0305
877.6278	-0
877.7889	-0.4073
877.9499	-0
878.111	-0
878.272	-0
878.433	-0
878.5939	-0
878.7549	-0.1176
878.9158	-0.5278
879.0767	-0
879.2376	-0
879.3984	0.1668
879.5593	-0
879.7201	-0.1176
879.8809	-0.1205
880.0417	-0
880.2024	0.258
880.3632	-0.5344
880.5239	1.1948
880.6846	-0
880.8452	-2.5218
881.0059	-0
881.1665	-0.1907
881.3271	0.1431
881.4877	-0.6595
881.6483	-0.5281
881.8088	-0.3593
881.9693	0.236
882.1298	0.236
882.2903	0.236
