Data from MonoPyChalIsomerACN10uM420nmA_Absorbance_15-09-57-034.txt Node
Date: Fri Jul 05 15:09:57 BST 2024
User: LASERRRRR
Spectrometer: FLMT03099
Trigger mode: 0
Integration Time (sec): 1.000000E-1
Scans to average: 1
Electric dark correction enabled: true
Nonlinearity correction enabled: false
Boxcar width: 0
XAxis mode: Wavelengths
Number of Pixels in Spectrum: 3648
>>>>>Begin Spectral Data<<<<<
179.3399	-0.0952
179.5586	-0.0952
179.7771	-0.0952
179.9957	-0
180.2143	-0.3991
180.4329	0.0058
180.6514	-0
180.8699	0.8638
181.0885	-0.0714
181.307	0.1048
181.5255	-0.8766
181.744	0.2148
181.9625	-0.0386
182.181	-0.7373
182.3994	-0
182.6179	-0
182.8363	-0.1157
183.0547	0.1675
183.2732	-0.0726
183.4916	0.1802
183.71	0.2082
183.9284	0.0238
184.1467	0.1128
184.3651	-0.0523
184.5835	0.0015
184.8018	-0.0417
185.0201	0.1384
185.2385	0.5531
185.4568	0.079
185.6751	0.1531
185.8934	0.1947
186.1117	0.0243
186.3299	0.0726
186.5482	0.0539
186.7664	-0.0809
186.9847	0.0108
187.2029	-0.0598
187.4211	0.0444
187.6393	0.1601
187.8575	-0.0643
188.0757	0.2744
188.2939	0.1387
188.512	0.054
188.7302	0.0139
188.9483	0.3307
189.1665	0.1851
189.3846	-0.1461
189.6027	0.2891
189.8208	0.3502
190.0389	0.0312
190.257	0.0448
190.475	0.5319
190.6931	0.7155
190.9111	0.4144
191.1292	0.0566
191.3472	0.4193
191.5652	0.2252
191.7832	0.2204
192.0012	0.3064
192.2192	0.434
192.4371	0.4168
192.6551	0.652
192.873	0.4665
193.091	0.4259
193.3089	0.9687
193.5268	0.3585
193.7447	0.505
193.9626	0.662
194.1805	0.6062
194.3984	0.8238
194.6162	0.7543
194.8341	0.5923
195.0519	0.4915
195.2697	0.8801
195.4875	0.6713
195.7054	0.5683
195.9231	0.6326
196.1409	0.5532
196.3587	0.6929
196.5765	0.6527
196.7942	0.6152
197.012	0.5041
197.2297	0.5697
197.4474	0.7233
197.6651	0.5238
197.8828	0.5914
198.1005	0.6398
198.3182	0.8741
198.5358	0.8035
198.7535	0.671
198.9711	0.6264
199.1888	0.8152
199.4064	0.713
199.624	0.8263
199.8416	0.5998
200.0592	0.9405
200.2767	0.6264
200.4943	0.6709
200.7119	1.0195
200.9294	0.6951
201.1469	0.5365
201.3645	0.5945
201.582	0.6663
201.7995	0.7268
202.017	0.706
202.2344	0.6142
202.4519	0.7481
202.6694	0.747
202.8868	0.6263
203.1042	0.7538
203.3217	0.6373
203.5391	0.7317
203.7565	0.569
203.9739	0.5369
204.1913	0.6942
204.4086	0.6224
204.626	0.7051
204.8433	0.6701
205.0607	0.6841
205.278	0.7014
205.4953	0.6181
205.7126	0.642
205.9299	0.8019
206.1472	0.7385
206.3644	0.6769
206.5817	0.6589
206.7989	0.8156
207.0162	0.6166
207.2334	0.7263
207.4506	0.5982
207.6678	0.7255
207.885	0.7247
208.1022	0.8311
208.3194	0.6427
208.5365	0.7233
208.7537	0.7064
208.9708	0.6884
209.1879	0.7015
209.405	0.8059
209.6222	0.6869
209.8392	0.6488
210.0563	0.6295
210.2734	0.7181
210.4905	0.7353
210.7075	0.6781
210.9245	0.6576
211.1416	0.6814
211.3586	0.6165
211.5756	0.6487
211.7926	0.5919
212.0096	0.6008
212.2265	0.578
212.4435	0.6363
212.6604	0.603
212.8774	0.6023
213.0943	0.6511
213.3112	0.5971
213.5281	0.5137
213.745	0.5312
213.9619	0.5552
214.1788	0.4947
214.3956	0.4658
214.6125	0.4802
214.8293	0.4644
215.0461	0.4546
215.2629	0.479
215.4798	0.4824
215.6965	0.4088
215.9133	0.4562
216.1301	0.4192
216.3469	0.4601
216.5636	0.4163
216.7803	0.4148
216.9971	0.4091
217.2138	0.3693
217.4305	0.3931
217.6472	0.3603
217.8639	0.3935
218.0805	0.3604
218.2972	0.3442
218.5138	0.3169
218.7305	0.3249
218.9471	0.3122
219.1637	0.3181
219.3803	0.2929
219.5969	0.2989
219.8135	0.2756
220.0301	0.2739
220.2466	0.3054
220.4632	0.2616
220.6797	0.2382
220.8962	0.2517
221.1127	0.2447
221.3292	0.2583
221.5457	0.2528
221.7622	0.2348
221.9787	0.2518
222.1951	0.2356
222.4116	0.2448
222.628	0.2373
222.8444	0.2598
223.0608	0.2683
223.2772	0.2465
223.4936	0.2489
223.71	0.253
223.9264	0.2661
224.1427	0.2863
224.3591	0.2449
224.5754	0.2589
224.7917	0.2774
225.008	0.2436
225.2243	0.2753
225.4406	0.2668
225.6569	0.2697
225.8732	0.2578
226.0894	0.2629
226.3057	0.2796
226.5219	0.303
226.7381	0.2527
226.9543	0.2703
227.1705	0.2741
227.3867	0.2826
227.6029	0.2934
227.8191	0.2929
228.0352	0.2944
228.2513	0.298
228.4675	0.2937
228.6836	0.288
228.8997	0.3033
229.1158	0.3001
229.3319	0.3264
229.548	0.3022
229.764	0.3262
229.9801	0.3374
230.1961	0.3472
230.4121	0.3529
230.6282	0.33
230.8442	0.308
231.0602	0.3375
231.2761	0.3337
231.4921	0.341
231.7081	0.362
231.924	0.3258
232.14	0.3777
232.3559	0.3353
232.5718	0.3798
232.7877	0.3478
233.0036	0.3422
233.2195	0.3611
233.4353	0.3613
233.6512	0.3597
233.867	0.3536
234.0829	0.3769
234.2987	0.3718
234.5145	0.3708
234.7303	0.3716
234.9461	0.3833
235.1619	0.3727
235.3776	0.3735
235.5934	0.3822
235.8091	0.372
236.0249	0.3812
236.2406	0.3877
236.4563	0.398
236.672	0.3966
236.8877	0.3958
237.1034	0.3798
237.319	0.3832
237.5347	0.3991
237.7503	0.3955
237.966	0.3924
238.1816	0.3923
238.3972	0.3968
238.6128	0.3961
238.8284	0.4069
239.0439	0.4281
239.2595	0.4
239.475	0.4147
239.6906	0.4145
239.9061	0.4169
240.1216	0.3968
240.3371	0.4128
240.5526	0.3974
240.7681	0.4109
240.9836	0.4036
241.199	0.4354
241.4145	0.3869
241.6299	0.399
241.8453	0.3991
242.0607	0.41
242.2761	0.3942
242.4915	0.39
242.7069	0.3992
242.9223	0.368
243.1376	0.3791
243.353	0.371
243.5683	0.37
243.7836	0.3585
243.9989	0.3723
244.2142	0.3503
244.4295	0.3555
244.6448	0.3433
244.86	0.3222
245.0753	0.327
245.2905	0.3125
245.5057	0.3181
245.721	0.3076
245.9362	0.2909
246.1514	0.3001
246.3665	0.2759
246.5817	0.2928
246.7969	0.2829
247.012	0.2652
247.2271	0.2806
247.4423	0.2756
247.6574	0.2679
247.8725	0.2574
248.0876	0.2362
248.3026	0.2426
248.5177	0.2496
248.7328	0.2332
248.9478	0.23
249.1628	0.2252
249.3779	0.2412
249.5929	0.2199
249.8079	0.246
250.0228	0.2143
250.2378	0.2242
250.4528	0.2223
250.6677	0.2123
250.8827	0.2123
251.0976	0.2116
251.3125	0.214
251.5274	0.1877
251.7423	0.1944
251.9572	0.2064
252.172	0.1992
252.3869	0.204
252.6017	0.1953
252.8166	0.1805
253.0314	0.1812
253.2462	0.1669
253.461	0.1883
253.6758	0.1881
253.8906	0.1947
254.1053	0.1779
254.3201	0.173
254.5348	0.2015
254.7496	0.1992
254.9643	0.1772
255.179	0.1851
255.3937	0.1755
255.6083	0.1914
255.823	0.1897
256.0377	0.1639
256.2523	0.1903
256.467	0.1579
256.6816	0.1754
256.8962	0.1757
257.1108	0.1675
257.3254	0.1826
257.54	0.1748
257.7545	0.1723
257.9691	0.1745
258.1836	0.1773
258.3981	0.1846
258.6127	0.1822
258.8272	0.171
259.0417	0.1809
259.2561	0.1806
259.4706	0.169
259.6851	0.1754
259.8995	0.1752
260.114	0.1709
260.3284	0.1645
260.5428	0.16
260.7572	0.1632
260.9716	0.1708
261.186	0.1752
261.4003	0.1757
261.6147	0.1795
261.829	0.1685
262.0433	0.1728
262.2577	0.1687
262.472	0.175
262.6863	0.1736
262.9005	0.1716
263.1148	0.1756
263.3291	0.1584
263.5433	0.1705
263.7576	0.1723
263.9718	0.1884
264.186	0.1807
264.4002	0.1727
264.6144	0.169
264.8286	0.1869
265.0427	0.1787
265.2569	0.1761
265.471	0.1567
265.6851	0.1594
265.8993	0.1634
266.1134	0.1623
266.3275	0.1705
266.5415	0.1782
266.7556	0.1729
266.9697	0.1727
267.1837	0.1797
267.3978	0.1792
267.6118	0.1879
267.8258	0.1883
268.0398	0.1634
268.2538	0.1828
268.4677	0.1769
268.6817	0.1691
268.8957	0.1904
269.1096	0.1777
269.3235	0.1821
269.5374	0.1751
269.7514	0.1656
269.9652	0.1745
270.1791	0.1785
270.393	0.1614
270.6068	0.1872
270.8207	0.1588
271.0345	0.1624
271.2483	0.1729
271.4622	0.169
271.676	0.1749
271.8897	0.1691
272.1035	0.1598
272.3173	0.1673
272.531	0.1859
272.7448	0.17
272.9585	0.1696
273.1722	0.169
273.3859	0.1778
273.5996	0.1609
273.8133	0.172
274.0269	0.1684
274.2406	0.1628
274.4542	0.1637
274.6679	0.1703
274.8815	0.1653
275.0951	0.1786
275.3087	0.185
275.5223	0.1761
275.7358	0.1698
275.9494	0.1775
276.1629	0.1657
276.3765	0.1811
276.59	0.1781
276.8035	0.1834
277.017	0.166
277.2305	0.1751
277.444	0.1734
277.6574	0.1761
277.8709	0.1836
278.0843	0.1678
278.2978	0.1711
278.5112	0.1656
278.7246	0.1697
278.938	0.1703
279.1513	0.1844
279.3647	0.1853
279.5781	0.166
279.7914	0.1806
280.0047	0.1826
280.2181	0.182
280.4314	0.1834
280.6447	0.1891
280.8579	0.1675
281.0712	0.1686
281.2845	0.177
281.4977	0.1718
281.711	0.1733
281.9242	0.1728
282.1374	0.1756
282.3506	0.1716
282.5638	0.1771
282.7769	0.1649
282.9901	0.1562
283.2033	0.1818
283.4164	0.1927
283.6295	0.1607
283.8426	0.1677
284.0557	0.1735
284.2688	0.1856
284.4819	0.1713
284.695	0.1721
284.908	0.1702
285.1211	0.164
285.3341	0.1672
285.5471	0.1711
285.7601	0.1762
285.9731	0.1637
286.1861	0.1676
286.3991	0.1708
286.612	0.1737
286.825	0.1606
287.0379	0.1778
287.2508	0.1664
287.4637	0.1747
287.6766	0.1597
287.8895	0.1655
288.1024	0.1731
288.3152	0.1633
288.5281	0.1453
288.7409	0.1716
288.9538	0.1607
289.1666	0.1633
289.3794	0.1623
289.5922	0.1587
289.8049	0.1578
290.0177	0.1595
290.2304	0.1607
290.4432	0.1649
290.6559	0.1648
290.8686	0.1633
291.0813	0.1497
291.294	0.1612
291.5067	0.1619
291.7194	0.1507
291.932	0.1604
292.1447	0.1604
292.3573	0.1425
292.5699	0.1483
292.7825	0.1559
292.9951	0.1541
293.2077	0.1468
293.4203	0.1538
293.6328	0.1586
293.8454	0.1518
294.0579	0.1503
294.2704	0.1624
294.4829	0.1387
294.6954	0.1519
294.9079	0.1603
295.1204	0.1523
295.3328	0.1409
295.5453	0.1526
295.7577	0.1506
295.9701	0.1395
296.1825	0.1538
296.3949	0.1462
296.6073	0.1538
296.8197	0.1453
297.0321	0.1631
297.2444	0.1454
297.4567	0.1587
297.6691	0.1444
297.8814	0.1431
298.0937	0.1531
298.306	0.1509
298.5182	0.1476
298.7305	0.1457
298.9428	0.1372
299.155	0.158
299.3672	0.1432
299.5794	0.1463
299.7916	0.1408
300.0038	0.1487
300.216	0.1506
300.4282	0.1543
300.6403	0.1363
300.8525	0.1496
301.0646	0.1357
301.2767	0.1522
301.4888	0.1529
301.7009	0.1526
301.913	0.1424
302.125	0.1491
302.3371	0.1447
302.5491	0.1534
302.7612	0.1499
302.9732	0.1505
303.1852	0.1512
303.3972	0.1479
303.6092	0.1484
303.8211	0.1461
304.0331	0.1405
304.245	0.1324
304.457	0.1461
304.6689	0.1372
304.8808	0.1534
305.0927	0.1309
305.3046	0.1447
305.5164	0.1434
305.7283	0.1445
305.9401	0.1441
306.152	0.1359
306.3638	0.1447
306.5756	0.1359
306.7874	0.1429
306.9992	0.1393
307.2109	0.1346
307.4227	0.1233
307.6344	0.1427
307.8462	0.1301
308.0579	0.1347
308.2696	0.1278
308.4813	0.1255
308.693	0.136
308.9046	0.1381
309.1163	0.1295
309.328	0.1282
309.5396	0.1319
309.7512	0.1286
309.9628	0.1284
310.1744	0.1298
310.386	0.1188
310.5976	0.1143
310.8091	0.1251
311.0207	0.1216
311.2322	0.1271
311.4437	0.1083
311.6552	0.123
311.8667	0.1282
312.0782	0.1067
312.2897	0.109
312.5012	0.1237
312.7126	0.1135
312.924	0.1063
313.1355	0.1205
313.3469	0.1213
313.5583	0.1149
313.7696	0.1235
313.981	0.1203
314.1924	0.1173
314.4037	0.1084
314.6151	0.1246
314.8264	0.1124
315.0377	0.1169
315.249	0.1267
315.4603	0.1235
315.6716	0.1231
315.8828	0.1071
316.0941	0.1103
316.3053	0.1145
316.5165	0.1017
316.7277	0.1138
316.9389	0.1084
317.1501	0.1143
317.3613	0.1215
317.5724	0.0939
317.7836	0.1204
317.9947	0.1162
318.2058	0.1136
318.417	0.1085
318.6281	0.0972
318.8391	0.1091
319.0502	0.1095
319.2613	0.1127
319.4723	0.1264
319.6834	0.1243
319.8944	0.1048
320.1054	0.1231
320.3164	0.1176
320.5274	0.1199
320.7383	0.1133
320.9493	0.1195
321.1602	0.1313
321.3712	0.1075
321.5821	0.1296
321.793	0.1212
322.0039	0.1076
322.2148	0.1116
322.4257	0.1196
322.6365	0.1242
322.8474	0.1228
323.0582	0.1137
323.269	0.1198
323.4798	0.1345
323.6906	0.1236
323.9014	0.1215
324.1122	0.1227
324.3229	0.1118
324.5337	0.1181
324.7444	0.1209
324.9551	0.1392
325.1658	0.1209
325.3765	0.1198
325.5872	0.1298
325.7979	0.1086
326.0085	0.1241
326.2192	0.1323
326.4298	0.1223
326.6404	0.1148
326.851	0.1142
327.0616	0.1249
327.2722	0.1296
327.4828	0.1356
327.6933	0.1274
327.9039	0.1238
328.1144	0.1389
328.3249	0.1354
328.5354	0.1168
328.7459	0.1342
328.9564	0.1178
329.1669	0.13
329.3773	0.1193
329.5878	0.1289
329.7982	0.1261
330.0086	0.1227
330.219	0.1335
330.4294	0.118
330.6398	0.1268
330.8502	0.1273
331.0605	0.1282
331.2708	0.1259
331.4812	0.1258
331.6915	0.1307
331.9018	0.1327
332.1121	0.1099
332.3224	0.1278
332.5326	0.1282
332.7429	0.1193
332.9531	0.1372
333.1633	0.1273
333.3735	0.1405
333.5837	0.1277
333.7939	0.1189
334.0041	0.1306
334.2143	0.1248
334.4244	0.1263
334.6346	0.1152
334.8447	0.1399
335.0548	0.1173
335.2649	0.1267
335.475	0.1227
335.685	0.1255
335.8951	0.1288
336.1051	0.1182
336.3152	0.132
336.5252	0.1231
336.7352	0.1313
336.9452	0.1377
337.1552	0.135
337.3652	0.1287
337.5751	0.1273
337.7851	0.1419
337.995	0.1215
338.2049	0.1387
338.4148	0.1248
338.6247	0.1274
338.8346	0.1279
339.0445	0.1164
339.2543	0.1337
339.4642	0.1258
339.674	0.1267
339.8838	0.1227
340.0936	0.1439
340.3034	0.1475
340.5132	0.1339
340.7229	0.1416
340.9327	0.134
341.1424	0.132
341.3522	0.1553
341.5619	0.132
341.7716	0.1406
341.9813	0.1523
342.1909	0.1311
342.4006	0.142
342.6102	0.1438
342.8199	0.1373
343.0295	0.1441
343.2391	0.1454
343.4487	0.1501
343.6583	0.1464
343.8679	0.1432
344.0774	0.1428
344.287	0.155
344.4965	0.144
344.706	0.1522
344.9155	0.1332
345.125	0.1506
345.3345	0.1394
345.544	0.1489
345.7534	0.1387
345.9629	0.1418
346.1723	0.1348
346.3817	0.1386
346.5911	0.1583
346.8005	0.1561
347.0099	0.1455
347.2193	0.1508
347.4286	0.1443
347.638	0.1556
347.8473	0.1442
348.0566	0.1504
348.2659	0.1528
348.4752	0.1454
348.6845	0.1393
348.8937	0.1489
349.103	0.1565
349.3122	0.1362
349.5214	0.1515
349.7306	0.148
349.9398	0.1554
350.149	0.1427
350.3582	0.1454
350.5674	0.1618
350.7765	0.1427
350.9856	0.1454
351.1948	0.1595
351.4039	0.1371
351.613	0.1483
351.822	0.1634
352.0311	0.1719
352.2402	0.1472
352.4492	0.1504
352.6582	0.1632
352.8672	0.1624
353.0762	0.1529
353.2852	0.1647
353.4942	0.1432
353.7032	0.1598
353.9121	0.152
354.1211	0.1663
354.33	0.1609
354.5389	0.1656
354.7478	0.1653
354.9567	0.1523
355.1655	0.1447
355.3744	0.1586
355.5833	0.176
355.7921	0.1729
356.0009	0.1604
356.2097	0.1846
356.4185	0.1746
356.6273	0.174
356.8361	0.166
357.0448	0.1548
357.2536	0.1651
357.4623	0.1589
357.671	0.1784
357.8797	0.1653
358.0884	0.1737
358.2971	0.1517
358.5057	0.1642
358.7144	0.1704
358.923	0.1717
359.1316	0.169
359.3402	0.1733
359.5488	0.1691
359.7574	0.1673
359.966	0.1669
360.1746	0.177
360.3831	0.1658
360.5916	0.179
360.8002	0.1673
361.0087	0.1764
361.2172	0.1723
361.4256	0.1552
361.6341	0.1778
361.8426	0.173
362.051	0.1819
362.2594	0.175
362.4678	0.1832
362.6762	0.2014
362.8846	0.1777
363.093	0.1938
363.3014	0.1734
363.5097	0.1623
363.718	0.1761
363.9264	0.1776
364.1347	0.1764
364.343	0.1847
364.5513	0.2002
364.7595	0.1863
364.9678	0.182
365.176	0.1783
365.3842	0.1785
365.5925	0.1856
365.8007	0.1977
366.0089	0.1937
366.217	0.1852
366.4252	0.1959
366.6333	0.1823
366.8415	0.1974
367.0496	0.1684
367.2577	0.2
367.4658	0.1908
367.6739	0.1839
367.882	0.1818
368.09	0.1908
368.2981	0.1987
368.5061	0.1831
368.7141	0.1975
368.9221	0.1859
369.1301	0.2028
369.3381	0.1924
369.5461	0.185
369.754	0.1854
369.962	0.1929
370.1699	0.1945
370.3778	0.1969
370.5857	0.1724
370.7936	0.1809
371.0015	0.1862
371.2093	0.1973
371.4172	0.1845
371.625	0.1951
371.8328	0.1796
372.0406	0.1835
372.2484	0.1906
372.4562	0.2028
372.664	0.191
372.8717	0.199
373.0795	0.17
373.2872	0.1835
373.4949	0.1774
373.7026	0.1897
373.9103	0.2031
374.118	0.196
374.3256	0.2076
374.5333	0.1924
374.7409	0.1988
374.9485	0.209
375.1561	0.2049
375.3637	0.1959
375.5713	0.2062
375.7789	0.1917
375.9864	0.1978
376.194	0.1986
376.4015	0.2097
376.609	0.206
376.8165	0.185
377.024	0.1784
377.2315	0.2034
377.4389	0.1922
377.6464	0.2069
377.8538	0.1909
378.0612	0.2031
378.2686	0.2081
378.476	0.2225
378.6834	0.1916
378.8908	0.2078
379.0981	0.2125
379.3055	0.2058
379.5128	0.1894
379.7201	0.2195
379.9274	0.1991
380.1347	0.1987
380.342	0.2139
380.5492	0.2028
380.7565	0.2184
380.9637	0.2115
381.1709	0.2055
381.3781	0.1994
381.5853	0.2157
381.7925	0.209
381.9997	0.2078
382.2068	0.2187
382.4139	0.2168
382.6211	0.1891
382.8282	0.2038
383.0353	0.2196
383.2424	0.1913
383.4494	0.2081
383.6565	0.1965
383.8635	0.2029
384.0706	0.2062
384.2776	0.2083
384.4846	0.1834
384.6916	0.2157
384.8986	0.1927
385.1055	0.2006
385.3125	0.2009
385.5194	0.1967
385.7263	0.2116
385.9333	0.21
386.1402	0.1967
386.347	0.2089
386.5539	0.1926
386.7608	0.1933
386.9676	0.1756
387.1744	0.2037
387.3813	0.1949
387.5881	0.2065
387.7948	0.1975
388.0016	0.1797
388.2084	0.2069
388.4151	0.1942
388.6219	0.1941
388.8286	0.1934
389.0353	0.2117
389.242	0.198
389.4487	0.1899
389.6553	0.1799
389.862	0.1837
390.0686	0.1873
390.2753	0.2121
390.4819	0.1907
390.6885	0.1834
390.8951	0.1901
391.1016	0.1786
391.3082	0.1992
391.5147	0.1954
391.7213	0.1904
391.9278	0.1599
392.1343	0.1808
392.3408	0.1785
392.5473	0.1837
392.7537	0.1648
392.9602	0.1803
393.1666	0.1783
393.373	0.1644
393.5794	0.1909
393.7858	0.1774
393.9922	0.1854
394.1986	0.1794
394.4049	0.1889
394.6113	0.1733
394.8176	0.1687
395.0239	0.1611
395.2302	0.1605
395.4365	0.179
395.6428	0.1732
395.8491	0.1798
396.0553	0.1717
396.2615	0.1707
396.4678	0.1731
396.674	0.17
396.8802	0.1619
397.0863	0.1811
397.2925	0.1627
397.4987	0.1645
397.7048	0.1512
397.9109	0.1628
398.117	0.1537
398.3231	0.1499
398.5292	0.1645
398.7353	0.1582
398.9413	0.1575
399.1474	0.1686
399.3534	0.1507
399.5594	0.1398
399.7654	0.1614
399.9714	0.1639
400.1774	0.1558
400.3833	0.1523
400.5893	0.1631
400.7952	0.1761
401.0011	0.1703
401.207	0.1704
401.4129	0.1433
401.6188	0.1818
401.8247	0.1627
402.0305	0.1458
402.2364	0.153
402.4422	0.1601
402.648	0.1557
402.8538	0.1638
403.0596	0.1579
403.2654	0.1521
403.4711	0.1468
403.6768	0.1673
403.8826	0.1612
404.0883	0.1619
404.294	0.1692
404.4997	0.1767
404.7054	0.1563
404.911	0.1476
405.1167	0.1575
405.3223	0.1651
405.5279	0.1628
405.7335	0.1688
405.9391	0.1614
406.1447	0.1451
406.3502	0.1713
406.5558	0.1499
406.7613	0.162
406.9668	0.158
407.1724	0.152
407.3778	0.129
407.5833	0.1464
407.7888	0.1519
407.9942	0.1691
408.1997	0.1569
408.4051	0.1446
408.6105	0.1574
408.8159	0.1344
409.0213	0.1515
409.2267	0.1601
409.432	0.1547
409.6374	0.1718
409.8427	0.1443
410.048	0.1511
410.2533	0.1431
410.4586	0.1515
410.6639	0.1439
410.8691	0.1453
411.0744	0.1385
411.2796	0.1402
411.4848	0.1456
411.69	0.1463
411.8952	0.1675
412.1004	0.1364
412.3056	0.1456
412.5107	0.1434
412.7158	0.1634
412.921	0.1442
413.1261	0.1428
413.3312	0.1366
413.5362	0.1564
413.7413	0.136
413.9464	0.1478
414.1514	0.1443
414.3564	0.1528
414.5614	0.1317
414.7664	0.1435
414.9714	0.1491
415.1764	0.1525
415.3813	0.156
415.5863	0.1483
415.7912	0.1667
415.9961	0.1373
416.201	0.1476
416.4059	0.1616
416.6108	0.1209
416.8156	0.144
417.0205	0.1372
417.2253	0.1423
417.4301	0.1434
417.6349	0.1323
417.8397	0.1248
418.0445	0.1487
418.2492	0.1646
418.454	0.1372
418.6587	0.1375
418.8634	0.1373
419.0681	0.1219
419.2728	0.1423
419.4775	0.1416
419.6822	0.1224
419.8868	0.1178
420.0915	0.1238
420.2961	0.1233
420.5007	0.1251
420.7053	0.135
420.9099	0.1535
421.1144	0.1393
421.319	0.122
421.5235	0.1529
421.728	0.1316
421.9325	0.1322
422.137	0.1411
422.3415	0.1299
422.546	0.1454
422.7504	0.1425
422.9549	0.1526
423.1593	0.1369
423.3637	0.1321
423.5681	0.1233
423.7725	0.136
423.9769	0.1243
424.1812	0.1194
424.3856	0.1223
424.5899	0.1362
424.7942	0.1114
424.9985	0.1295
425.2028	0.1197
425.4071	0.1562
425.6113	0.1024
425.8156	0.1295
426.0198	0.1278
426.224	0.126
426.4282	0.127
426.6324	0.1233
426.8366	0.1228
427.0407	0.1274
427.2449	0.1013
427.449	0.1204
427.6531	0.1017
427.8572	0.1125
428.0613	0.1221
428.2654	0.1179
428.4694	0.1261
428.6735	0.1125
428.8775	0.1277
429.0815	0.1097
429.2855	0.1003
429.4895	0.1115
429.6935	0.1264
429.8975	0.1099
430.1014	0.1077
430.3053	0.0884
430.5093	0.1133
430.7132	0.0855
430.9171	0.1002
431.1209	0.1008
431.3248	0.111
431.5286	0.0991
431.7325	0.1078
431.9363	0.0825
432.1401	0.0993
432.3439	0.0917
432.5477	0.0786
432.7514	0.0903
432.9552	0.0936
433.1589	0.0882
433.3627	0.0695
433.5664	0.082
433.7701	0.0942
433.9737	0.0797
434.1774	0.0795
434.3811	0.0749
434.5847	0.0845
434.7883	0.0883
434.9919	0.0741
435.1955	0.0826
435.3991	0.0772
435.6027	0.0837
435.8062	0.0891
436.0098	0.0649
436.2133	0.0797
436.4168	0.0524
436.6203	0.074
436.8238	0.0864
437.0272	0.0596
437.2307	0.0617
437.4341	0.0834
437.6375	0.0709
437.841	0.0576
438.0443	0.0682
438.2477	0.0713
438.4511	0.0555
438.6545	0.0633
438.8578	0.0832
439.0611	0.0567
439.2644	0.0601
439.4677	0.0475
439.671	0.0508
439.8743	0.0603
440.0775	0.0599
440.2808	0.0506
440.484	0.0416
440.6872	0.032
440.8904	0.0454
441.0936	0.0576
441.2967	0.0506
441.4999	0.057
441.703	0.0462
441.9062	0.0478
442.1093	0.0448
442.3124	0.0417
442.5155	0.034
442.7185	0.0333
442.9216	0.0146
443.1246	0.0501
443.3276	0.0507
443.5307	0.0362
443.7337	0.0392
443.9366	0.0487
444.1396	0.0432
444.3426	0.0412
444.5455	0.0481
444.7484	0.0271
444.9513	0.0369
445.1542	0.044
445.3571	0.0361
445.56	0.0348
445.7628	0.0316
445.9657	0.036
446.1685	0.0391
446.3713	0.0396
446.5741	0.0258
446.7769	0.0219
446.9797	0.0211
447.1824	0.0354
447.3852	0.0264
447.5879	0.0473
447.7906	0.0359
447.9933	0.0238
448.196	0.0139
448.3986	0.0272
448.6013	0.02
448.8039	0.0154
449.0066	0.0116
449.2092	0.032
449.4118	0.0244
449.6143	0.0205
449.8169	0.0283
450.0195	0.01
450.222	0.0073
450.4245	0.0222
450.627	0.0257
450.8295	0.0165
451.032	0.0174
451.2345	0.0143
451.4369	0.0287
451.6394	0.0175
451.8418	-0.005
452.0442	0.0063
452.2466	0.0208
452.449	-0.0004
452.6513	0.0179
452.8537	0.0171
453.056	-0.0046
453.2583	0.0134
453.4607	0.0095
453.663	0.0075
453.8652	0.0191
454.0675	0.013
454.2697	0.0215
454.472	-0.0064
454.6742	0.0186
454.8764	0.0072
455.0786	0.0209
455.2808	0.0143
455.4829	0.0072
455.6851	0.0112
455.8872	0.0143
456.0893	0.0146
456.2915	-0.0026
456.4935	0.0097
456.6956	-0.0015
456.8977	0.0133
457.0997	-0.0015
457.3018	-0.008
457.5038	0.0208
457.7058	0.0047
457.9078	0.0022
458.1098	0.0098
458.3117	0.0086
458.5137	0.0125
458.7156	0.0167
458.9175	-0.0064
459.1194	0.0002
459.3213	-0.0024
459.5232	0.0022
459.725	-0.0089
459.9269	-0.0066
460.1287	-0.0053
460.3305	0.0057
460.5323	0.0102
460.7341	-0.0024
460.9359	0.0021
461.1376	0.0071
461.3394	0.0044
461.5411	0.0204
461.7428	0.0054
461.9445	0.0072
462.1462	0.013
462.3479	0.013
462.5495	0.006
462.7512	0.0099
462.9528	0.0094
463.1544	-0.0064
463.356	0.0061
463.5576	0.0042
463.7592	0.0154
463.9607	0.0119
464.1623	0.0154
464.3638	0.0201
464.5653	0.0026
464.7668	-0.0031
464.9683	0.0121
465.1697	0.0137
465.3712	-0.0076
465.5726	-0.0107
465.7741	0.0022
465.9755	0.0001
466.1769	0.0032
466.3782	-0.014
466.5796	-0.0128
466.7809	0.0186
466.9823	-0.0033
467.1836	0.0029
467.3849	-0.0009
467.5862	0.0047
467.7875	-0.0067
467.9887	0.0134
468.19	0.0009
468.3912	-0.0044
468.5924	0.002
468.7936	-0.0042
468.9948	0.0009
469.196	0.0046
469.3972	0.0103
469.5983	-0.0122
469.7994	-0.016
470.0006	0.0064
470.2017	-0.0213
470.4027	-0.0021
470.6038	0.0121
470.8049	-0.0165
471.0059	-0.0184
471.2069	-0.0271
471.408	0.0121
471.6089	0.0098
471.8099	0.0007
472.0109	-0.0004
472.2119	-0.0031
472.4128	-0.0073
472.6137	0.0085
472.8146	-0.0155
473.0155	-0.0036
473.2164	-0.0044
473.4173	-0.0064
473.6181	0.0055
473.819	0.0014
474.0198	-0.0089
474.2206	-0.0001
474.4214	-0.0073
474.6222	-0.0075
474.8229	0.0014
475.0237	-0.0062
475.2244	-0.0031
475.4251	-0.0111
475.6258	-0.0044
475.8265	-0.0023
476.0272	-0.0001
476.2278	0.0045
476.4285	-0.0006
476.6291	-0.0009
476.8297	-0.0081
477.0303	0.0018
477.2309	-0.0108
477.4315	-0.0118
477.632	-0.0073
477.8326	-0.0026
478.0331	0.0033
478.2336	-0.0044
478.4341	-0.0088
478.6346	-0.0036
478.8351	-0.0159
479.0355	-0.0065
479.236	-0.0075
479.4364	-0.0061
479.6368	-0.0102
479.8372	-0.0069
480.0376	-0.0091
480.2379	-0.0231
480.4383	-0.012
480.6386	0.005
480.8389	-0.0114
481.0392	-0.0022
481.2395	-0.0076
481.4398	-0.003
481.6401	0.0041
481.8403	-0.0026
482.0405	-0.004
482.2408	-0.0116
482.441	0.0049
482.6411	0.0044
482.8413	-0.0123
483.0415	-0.0108
483.2416	-0.0083
483.4417	-0.0055
483.6419	-0.0139
483.8419	-0.0048
484.042	0.0023
484.2421	-0.0042
484.4422	-0.0017
484.6422	-0.0098
484.8422	0
485.0422	-0.014
485.2422	0.0005
485.4422	-0.008
485.6422	-0.0115
485.8421	-0.0029
486.042	-0.0017
486.242	-0.0052
486.4419	-0.0122
486.6417	-0.0115
486.8416	0.0013
487.0415	-0.011
487.2413	-0.0091
487.4411	-0.0119
487.641	-0.0185
487.8408	-0.0037
488.0405	-0.0046
488.2403	-0.0152
488.4401	-0.0022
488.6398	-0.0049
488.8395	-0.0051
489.0392	-0.0001
489.2389	0.0002
489.4386	-0.0079
489.6383	-0.0152
489.8379	0.0042
490.0376	0.0001
490.2372	-0.0157
490.4368	-0.0123
490.6364	-0.0076
490.836	-0.011
491.0355	-0.0051
491.2351	-0.009
491.4346	-0.0051
491.6341	-0.0128
491.8336	-0.0194
492.0331	-0.0101
492.2326	-0.0244
492.432	-0.0044
492.6315	-0.0094
492.8309	-0.0247
493.0303	-0.0114
493.2297	-0.01
493.4291	-0.0048
493.6284	-0.0075
493.8278	-0.0059
494.0271	-0.0015
494.2264	-0.0018
494.4257	-0.018
494.625	-0.0167
494.8243	-0.0046
495.0236	-0.009
495.2228	-0.0115
495.422	-0.0118
495.6213	-0.0031
495.8205	-0.009
496.0196	-0.0013
496.2188	-0.0014
496.418	-0.013
496.6171	-0.0064
496.8162	-0.0165
497.0153	0.0027
497.2144	0.0022
497.4135	-0.0051
497.6126	-0.0126
497.8116	-0.0128
498.0107	-0.0015
498.2097	-0.0171
498.4087	-0.0157
498.6077	-0.0077
498.8067	-0.0083
499.0056	0.0037
499.2046	-0.0086
499.4035	-0.015
499.6024	-0.0052
499.8013	0.0013
500.0002	-0.0137
500.199	-0.0118
500.3979	-0.0098
500.5967	-0.017
500.7956	0.0049
500.9944	-0.011
501.1932	-0.0118
501.3919	-0.0044
501.5907	-0.0172
501.7895	-0.0066
501.9882	-0.0154
502.1869	-0.0062
502.3856	-0.0106
502.5843	-0.0079
502.783	-0.0125
502.9816	-0.0099
503.1803	-0.0175
503.3789	-0.0088
503.5775	0.0013
503.7761	-0.0075
503.9747	-0.0026
504.1732	-0.0137
504.3718	-0.006
504.5703	-0.0072
504.7689	-0.0201
504.9674	-0.011
505.1658	-0.0139
505.3643	-0.018
505.5628	-0.0138
505.7612	-0.0133
505.9597	0.0013
506.1581	-0.0154
506.3565	0.0026
506.5549	-0.0103
506.7532	-0.0151
506.9516	-0.0015
507.1499	-0.0137
507.3482	-0.0113
507.5465	-0.0039
507.7448	-0.0038
507.9431	-0.0071
508.1414	-0.0022
508.3396	-0.0077
508.5379	-0.0085
508.7361	-0.0119
508.9343	-0.0012
509.1325	0.0009
509.3306	-0.0076
509.5288	-0.0078
509.7269	-0.009
509.9251	0.0048
510.1232	-0.0138
510.3213	0.0056
510.5193	-0.0073
510.7174	-0.0025
510.9154	-0.0176
511.1135	-0.0048
511.3115	-0.0127
511.5095	-0.0001
511.7075	-0.0028
511.9055	-0.0126
512.1034	-0.0097
512.3014	-0.004
512.4993	-0.0023
512.6972	-0.012
512.8951	-0.0103
513.093	-0.0073
513.2908	-0.0144
513.4887	0.0052
513.6865	-0.0026
513.8844	-0.0153
514.0822	-0.0122
514.2799	-0.0139
514.4777	-0.0101
514.6755	-0.0095
514.8732	-0.0112
515.0709	0.002
515.2687	-0.0076
515.4664	0.0003
515.664	-0.0072
515.8617	-0.005
516.0594	-0.0177
516.257	-0.0096
516.4546	-0.0194
516.6522	-0.0098
516.8498	-0.0052
517.0474	-0.0022
517.2449	0.0046
517.4425	-0.0162
517.64	-0.013
517.8375	0.0001
518.035	-0.0059
518.2325	-0.0056
518.43	-0.0112
518.6274	-0.0005
518.8249	-0.0143
519.0223	0.0018
519.2197	-0.01
519.4171	-0.0117
519.6145	-0.0123
519.8118	0.0003
520.0092	-0.001
520.2065	-0.0125
520.4038	-0.018
520.6011	-0.0021
520.7984	-0.0159
520.9956	-0.0163
521.1929	-0.0144
521.3901	-0.0046
521.5874	-0.0017
521.7846	-0.0038
521.9818	-0.0078
522.1789	-0.0071
522.3761	-0.0012
522.5732	-0.0069
522.7704	-0.0049
522.9675	0.0072
523.1646	-0.0037
523.3617	0.0054
523.5587	-0.0012
523.7558	-0.001
523.9528	-0.011
524.1498	-0.0077
524.3468	-0.009
524.5438	-0.0153
524.7408	-0.0085
524.9378	0.0044
525.1347	-0.0129
525.3316	-0.0017
525.5285	-0.0103
525.7254	-0.0073
525.9223	-0.007
526.1192	0.0002
526.316	-0.0115
526.5129	0.0029
526.7097	-0.0055
526.9065	-0.0014
527.1033	-0.0007
527.3	-0.0142
527.4968	-0.0046
527.6935	-0.0087
527.8903	-0.0114
528.087	-0.0133
528.2837	0.0008
528.4804	-0.0035
528.677	-0.0009
528.8737	0.0097
529.0703	0.0012
529.2669	-0.0123
529.4635	-0.0047
529.6601	0.0018
529.8567	-0.003
530.0532	-0.0123
530.2498	-0.0038
530.4463	0.009
530.6428	-0.0081
530.8393	0.0063
531.0358	-0.0082
531.2322	0.0023
531.4287	-0.0025
531.6251	-0.0065
531.8215	0.0081
532.0179	-0.003
532.2143	0.0013
532.4107	-0.0076
532.607	-0.0059
532.8034	-0.0011
532.9997	0.0034
533.196	-0.0068
533.3923	-0.0055
533.5886	0.0011
533.7848	-0.0042
533.9811	0.0007
534.1773	0.0009
534.3735	0.0018
534.5697	-0.0046
534.7659	0
534.9621	0.0078
535.1582	-0.0153
535.3544	-0.0117
535.5505	-0.0115
535.7466	-0.0027
535.9427	-0.0016
536.1387	-0.0122
536.3348	-0.0057
536.5308	-0.0001
536.7269	-0.0198
536.9229	0.0004
537.1189	-0.0007
537.3148	-0.0155
537.5108	-0.0161
537.7068	-0.0003
537.9027	-0.0044
538.0986	-0.0119
538.2945	-0.0149
538.4904	-0.0043
538.6863	0.0034
538.8821	-0.007
539.078	0.0015
539.2738	0.0026
539.4696	-0.0122
539.6654	0.0042
539.8611	0.0004
540.0569	-0.009
540.2526	-0.0066
540.4484	-0.0105
540.6441	0.0033
540.8398	0.0031
541.0355	-0.003
541.2311	0.0024
541.4268	-0.0188
541.6224	0.0061
541.818	-0.0115
542.0136	-0.007
542.2092	0.0057
542.4048	0.0032
542.6003	-0.0015
542.7959	-0.002
542.9914	-0.009
543.1869	0.0025
543.3824	0.0011
543.5779	-0.0061
543.7734	-0.0009
543.9688	-0.0081
544.1642	0.0067
544.3596	-0.0002
544.555	-0.0109
544.7504	-0.0007
544.9458	-0.0028
545.1411	-0.0022
545.3365	-0.0017
545.5318	-0.0034
545.7271	0.0033
545.9224	-0.0035
546.1177	0.001
546.3129	-0.0029
546.5081	-0.0027
546.7034	0.0072
546.8986	-0.0031
547.0938	-0.0082
547.289	-0.0088
547.4841	-0.0065
547.6793	0.0038
547.8744	-0.007
548.0695	-0.0065
548.2646	-0.0143
548.4597	0.0009
548.6548	-0.0089
548.8498	-0.0007
549.0448	0.0067
549.2399	-0.0008
549.4349	0.0074
549.6298	-0.0018
549.8248	-0.0039
550.0198	-0.0096
550.2147	-0.0066
550.4096	-0.0028
550.6045	-0.0103
550.7994	0.0132
550.9943	-0.0063
551.1892	0.0043
551.384	0.0092
551.5788	-0.0101
551.7737	0.0061
551.9685	-0.0008
552.1632	0.0055
552.358	-0.0008
552.5528	0.0001
552.7475	-0.0124
552.9422	0.0007
553.1369	0.0017
553.3316	-0.0037
553.5263	-0.0019
553.7209	0.0107
553.9156	-0.0053
554.1102	0.002
554.3048	-0.0048
554.4994	0.0028
554.694	-0.0022
554.8885	0.0105
555.0831	0.0004
555.2776	-0.0094
555.4721	-0.0036
555.6666	-0.0059
555.8611	0.0072
556.0555	0.0048
556.25	0.0003
556.4444	-0.0032
556.6388	-0.003
556.8332	-0.0001
557.0276	0.0013
557.222	-0.0094
557.4163	-0.0109
557.6107	-0.0149
557.805	0.0087
557.9993	-0.0019
558.1936	0.0007
558.3879	0.005
558.5821	0.0101
558.7764	-0.0004
558.9706	-0.0028
559.1648	0.0062
559.359	-0.0034
559.5532	-0.0084
559.7473	-0.0023
559.9415	-0.0023
560.1356	-0
560.3297	-0.0074
560.5238	-0.0029
560.7179	-0.0098
560.9119	-0.0036
561.106	-0.0053
561.3	-0.0068
561.494	0.0029
561.688	0.0007
561.882	-0.0135
562.076	-0.0045
562.2699	0.0029
562.4639	-0.0005
562.6578	-0.0007
562.8517	0.0054
563.0456	0.0023
563.2395	0.0047
563.4333	-0.0006
563.6272	0.0042
563.821	0.0012
564.0148	0.0029
564.2086	-0.0069
564.4024	-0.0097
564.5961	-0.0033
564.7899	0.0053
564.9836	-0.0013
565.1773	-0.0026
565.371	0.0105
565.5647	0.0062
565.7584	-0.0032
565.952	-0.0027
566.1456	0.0018
566.3393	-0.0016
566.5329	0.0017
566.7264	-0.0011
566.92	-0.007
567.1136	0.0013
567.3071	-0.0002
567.5006	0.0035
567.6941	0.0054
567.8876	-0.0049
568.0811	0.0007
568.2745	-0.0009
568.468	0.0066
568.6614	0.012
568.8548	0.0038
569.0482	-0.001
569.2416	0.0036
569.4349	-0.0033
569.6283	0.0028
569.8216	-0.0034
570.0149	-0.0045
570.2082	-0.0028
570.4015	0.005
570.5947	0.0034
570.788	0.0013
570.9812	0.0038
571.1744	-0.0029
571.3676	-0.0137
571.5608	-0.0048
571.754	-0.0062
571.9471	-0.0043
572.1402	0.0021
572.3333	0.0012
572.5264	-0.0074
572.7195	-0.0029
572.9126	0.0025
573.1057	-0.0052
573.2987	-0.0056
573.4917	-0.0044
573.6847	-0.0029
573.8777	0.0016
574.0707	-0.0036
574.2636	-0.0009
574.4566	-0.0036
574.6495	0.0095
574.8424	-0.0035
575.0353	-0.0022
575.2281	0.0089
575.421	0.0004
575.6138	0.0059
575.8067	0.0004
575.9995	0.0033
576.1923	0.0081
576.385	0.0038
576.5778	-0.0056
576.7706	-0.0042
576.9633	0
577.156	0.0022
577.3487	-0.0008
577.5414	0.0018
577.734	-0.0022
577.9267	-0.0009
578.1193	-0.0113
578.3119	-0.0058
578.5045	-0.0036
578.6971	-0.0068
578.8897	-0.0001
579.0822	0.0013
579.2747	0.0017
579.4673	-0.0029
579.6598	-0.0053
579.8522	-0.004
580.0447	-0.0071
580.2372	-0.0075
580.4296	-0.0007
580.622	-0.0005
580.8144	-0.0024
581.0068	-0.0041
581.1992	-0.0107
581.3915	-0.0098
581.5839	-0.0072
581.7762	-0.0106
581.9685	-0.0072
582.1608	-0.0012
582.353	-0.0022
582.5453	-0.0031
582.7375	-0.0044
582.9298	-0.0035
583.122	-0.0061
583.3142	-0.003
583.5063	-0.0017
583.6985	-0.0044
583.8906	-0.0047
584.0827	-0.0033
584.2749	0.005
584.4669	0.0028
584.659	0.005
584.8511	-0.0025
585.0431	-0.0071
585.2352	0.0056
585.4272	-0.0047
585.6192	-0.0016
585.8111	-0.0011
586.0031	-0.0007
586.195	-0.0042
586.387	0.0028
586.5789	-0.0044
586.7708	0.0042
586.9627	-0.0005
587.1545	-0.0029
587.3464	0.0014
587.5382	0.0024
587.73	0.0036
587.9218	0.0065
588.1136	0.0004
588.3053	0.0098
588.4971	0.0008
588.6888	-0.0071
588.8805	-0.0031
589.0722	0.0065
589.2639	0.0007
589.4556	-0.0043
589.6472	-0.003
589.8389	-0.0088
590.0305	-0.0133
590.2221	0.001
590.4137	-0.0085
590.6052	0.0012
590.7968	-0.0034
590.9883	0.0034
591.1798	-0.0001
591.3713	0.005
591.5628	-0.0001
591.7543	0.0035
591.9458	-0.0018
592.1372	0.0095
592.3286	0.0094
592.52	-0.0007
592.7114	-0.0023
592.9028	0.0023
593.0941	-0.0002
593.2855	-0.0018
593.4768	-0.0101
593.6681	-0.0055
593.8594	-0.0043
594.0506	0.0037
594.2419	0.0085
594.4331	0
594.6244	0.008
594.8156	-0.0095
595.0067	0.0057
595.1979	0.0033
595.3891	-0.0035
595.5802	0.0036
595.7713	-0.0058
595.9624	0.0009
596.1535	0.0048
596.3446	0.0081
596.5357	-0.0027
596.7267	0.0054
596.9177	-0.0034
597.1087	-0.0084
597.2997	-0.004
597.4907	0.0081
597.6817	-0.0005
597.8726	0.0024
598.0635	-0.0017
598.2544	0.0041
598.4453	0.0011
598.6362	-0.0052
598.827	-0.0058
599.0179	0.0118
599.2087	0.0023
599.3995	0.0062
599.5903	0.0019
599.7811	0.0075
599.9718	0.0073
600.1626	-0.0083
600.3533	-0.0037
600.544	0.0009
600.7347	-0.0003
600.9254	-0.0034
601.116	-0.003
601.3067	0.0014
601.4973	0.0013
601.6879	0.016
601.8785	-0.002
602.0691	0.0053
602.2596	0.0152
602.4502	0.0023
602.6407	0.0054
602.8312	0.004
603.0217	-0.0017
603.2122	0.0011
603.4027	0.0071
603.5931	0.004
603.7835	0.0016
603.9739	0.0038
604.1643	0.0031
604.3547	0.0011
604.5451	0.0011
604.7354	0.0049
604.9257	0.0048
605.116	-0.001
605.3063	0.0062
605.4966	0.0066
605.6869	-0.0017
605.8771	0.0061
606.0673	0.0066
606.2575	0.003
606.4477	0.0071
606.6379	0.0059
606.8281	0.0031
607.0182	-0.0023
607.2083	0.0054
607.3985	-0.0062
607.5885	-0.0015
607.7786	0.0034
607.9687	0.0003
608.1587	0.0066
608.3488	0.0078
608.5388	0.0012
608.7288	-0.0036
608.9187	-0.0055
609.1087	-0.0063
609.2986	-0.0043
609.4886	-0.0021
609.6785	0.0033
609.8684	0.0038
610.0582	-0.0023
610.2481	-0.0085
610.4379	-0.0018
610.6278	-0.0065
610.8176	0.0005
611.0074	-0.0029
611.1971	-0.0076
611.3869	-0.0048
611.5766	0.0005
611.7664	0.0026
611.9561	0.003
612.1458	0.0038
612.3354	-0.0027
612.5251	0.001
612.7147	0.0003
612.9044	0.0077
613.094	-0.006
613.2836	0.005
613.4731	-0.0006
613.6627	-0.0042
613.8522	-0.0006
614.0417	0.0065
614.2313	0.001
614.4207	-0.0072
614.6102	0.0017
614.7997	-0.004
614.9891	0.0005
615.1785	0.0027
615.3679	-0.0042
615.5573	0.0059
615.7467	-0.0031
615.9361	-0.0027
616.1254	0.0044
616.3147	-0.0019
616.504	-0.003
616.6933	-0.0023
616.8826	0.0056
617.0718	0.006
617.2611	0.0039
617.4503	-0.0042
617.6395	0.0016
617.8287	-0.0009
618.0179	-0.0028
618.207	0.0122
618.3961	0.0003
618.5853	0.0024
618.7744	0.0025
618.9634	0.0072
619.1525	0.0067
619.3416	0.0026
619.5306	0.0092
619.7196	0.0097
619.9086	0.005
620.0976	0.0007
620.2866	-0.0043
620.4755	-0.0001
620.6645	0.0033
620.8534	0.0003
621.0423	0.0017
621.2312	0.009
621.42	0.0026
621.6089	0.0077
621.7977	0.0048
621.9865	-0.0047
622.1753	0.0047
622.3641	0.0026
622.5529	0.0051
622.7416	0.0065
622.9303	-0.005
623.1191	0.0098
623.3078	-0.0033
623.4964	0.0024
623.6851	0.0068
623.8737	0.0015
624.0624	0.0057
624.251	0.0024
624.4396	-0.0041
624.6282	-0.0041
624.8167	-0.002
625.0053	0.0057
625.1938	0.0024
625.3823	0.0011
625.5708	0.0057
625.7593	-0.0036
625.9477	-0.0036
626.1362	0.0062
626.3246	0.0008
626.513	0.0074
626.7014	0.0164
626.8898	0.008
627.0781	0.0102
627.2665	0.0009
627.4548	0.0033
627.6431	0.0086
627.8314	0.0095
628.0197	0.0009
628.2079	-0.0027
628.3962	-0.0053
628.5844	0.0092
628.7726	0.0063
628.9608	0.0047
629.1489	0.004
629.3371	0.0066
629.5252	-0.0045
629.7134	0.009
629.9015	-0.0008
630.0895	0.0011
630.2776	0.0052
630.4657	0.0056
630.6537	0.0042
630.8417	-0.0008
631.0297	0.0044
631.2177	-0.0028
631.4057	-0.0027
631.5936	0.0066
631.7815	-0.0013
631.9695	0.0079
632.1574	0.0128
632.3452	0.0053
632.5331	0.0015
632.7209	0.0023
632.9088	0.0059
633.0966	0.0086
633.2844	-0.0042
633.4722	0.0068
633.6599	0.0108
633.8477	-0.0005
634.0354	0.0052
634.2231	0.0039
634.4108	0.0109
634.5985	0.0054
634.7861	0.0016
634.9738	-0.0046
635.1614	0.0001
635.349	0.0032
635.5366	-0.0093
635.7242	-0.0032
635.9117	0.0014
636.0993	-0.0057
636.2868	0.0043
636.4743	-0.0048
636.6618	0.0127
636.8492	0.0075
637.0367	0.0009
637.2241	-0.0029
637.4115	-0.0037
637.5989	-0.0014
637.7863	-0.003
637.9737	-0.0052
638.161	-0.0001
638.3484	-0.0008
638.5357	0.0044
638.723	0.0027
638.9103	0.0035
639.0975	0.009
639.2848	0.0091
639.472	0.0012
639.6592	0.0057
639.8464	0.0109
640.0336	0.0093
640.2208	0.0023
640.4079	-0.0037
640.595	0.0032
640.7821	0.0056
640.9692	0.0014
641.1563	0.0067
641.3434	0.0069
641.5304	0.0042
641.7174	0.0002
641.9044	-0.0002
642.0914	0.0067
642.2784	0.0066
642.4653	0.0051
642.6523	0.0112
642.8392	0.0057
643.0261	0.0026
643.213	0.0021
643.3999	0.004
643.5867	0.0008
643.7735	0.0049
643.9604	0.0002
644.1472	0.0009
644.3339	0.0045
644.5207	0.0073
644.7075	0.0068
644.8942	0.0075
645.0809	0.0134
645.2676	0.007
645.4543	0.0091
645.6409	0.0088
645.8276	0.0014
646.0142	0.0076
646.2008	0.0019
646.3874	-0.0037
646.574	-0.004
646.7605	0.0008
646.9471	-0.0071
647.1336	0.0043
647.3201	0.0062
647.5066	0.0007
647.6931	0.005
647.8795	-0.0005
648.0659	0.009
648.2524	0.005
648.4388	0.0011
648.6252	0.0038
648.8115	0.0045
648.9979	0.0026
649.1842	0.0057
649.3705	0.0072
649.5568	0.0026
649.7431	0.0047
649.9294	0.0018
650.1156	0.0016
650.3018	-0.0051
650.488	0.0045
650.6742	0.0036
650.8604	0.0068
651.0466	-0.003
651.2327	0.0089
651.4188	0.0022
651.6049	0.0042
651.791	0.0003
651.9771	0.0034
652.1632	0.0043
652.3492	0.0032
652.5352	0.0005
652.7212	-0.0054
652.9072	0.0077
653.0932	-0.0004
653.2791	-0.0037
653.465	-0.0004
653.651	-0.0024
653.8369	0.0006
654.0227	0.0072
654.2086	0.0045
654.3944	0.0069
654.5803	0.0074
654.7661	-0.0069
654.9519	0.0052
655.1377	-0.0028
655.3234	0.0033
655.5092	-0.0038
655.6949	-0.0054
655.8806	-0.0067
656.0663	-0.0041
656.2519	-0.0059
656.4376	-0.0026
656.6232	-0.0008
656.8088	-0.0006
656.9945	0.0046
657.18	-0.0006
657.3656	0.0037
657.5511	-0.0021
657.7367	0.0002
657.9222	0.0056
658.1077	0.0053
658.2932	0.004
658.4786	-0.0084
658.6641	0.0005
658.8495	0.0102
659.0349	0.0044
659.2203	0.0093
659.4057	0.0108
659.591	0.005
659.7764	0.0028
659.9617	0.0112
660.147	0.0087
660.3323	0.007
660.5176	0.0113
660.7028	0.0119
660.888	0.0086
661.0733	0.007
661.2585	0.0064
661.4436	0.0032
661.6288	0.004
661.8139	0.0066
661.9991	0.0158
662.1842	0.0061
662.3693	0.0079
662.5544	0.0021
662.7394	-0.0003
662.9245	0.0033
663.1095	0.0047
663.2945	-0.0009
663.4795	-0.004
663.6644	0.0076
663.8494	0.001
664.0343	-0.0014
664.2193	-0.0126
664.4042	-0.0027
664.589	-0.0074
664.7739	-0.003
664.9587	-0.0033
665.1436	-0.0029
665.3284	0.0023
665.5132	-0.0023
665.698	-0.0062
665.8827	0.0034
666.0675	0.0038
666.2522	-0.0065
666.4369	0.0069
666.6216	0.0065
666.8063	0.0049
666.9909	0.0077
667.1756	0.0007
667.3602	0.0027
667.5448	0.003
667.7294	0.0106
667.9139	0.0042
668.0985	0.0133
668.283	-0.0018
668.4675	0.0013
668.652	0.0038
668.8365	0.0027
669.0209	0.0041
669.2054	0.0106
669.3898	0.0043
669.5742	0.0013
669.7586	0.0108
669.943	0.0139
670.1273	0.0103
670.3117	0.0045
670.496	0.0136
670.6803	0.0149
670.8646	0.0088
671.0488	0.0013
671.2331	0.0104
671.4173	0.003
671.6015	-0.0007
671.7857	0.0076
671.9699	0.0109
672.1541	0.0161
672.3382	0.0094
672.5223	0.0147
672.7064	0.0053
672.8905	0.0098
673.0746	0.0122
673.2587	0.0022
673.4427	0.0107
673.6267	0.0125
673.8107	0.0116
673.9947	0.0089
674.1787	0.0084
674.3626	-0.0038
674.5465	0.0128
674.7304	0.0048
674.9143	0.0126
675.0982	0.0072
675.2821	-0.0004
675.4659	0.0111
675.6497	0.0062
675.8335	0.0009
676.0173	0.0077
676.2011	0.0062
676.3849	0.0011
676.5686	0.0009
676.7523	0.0065
676.936	0.0033
677.1197	0.0039
677.3034	-0.0011
677.487	0.0105
677.6706	0.0029
677.8542	0.0089
678.0378	0.0035
678.2214	0.004
678.405	0.0043
678.5885	0.0032
678.772	0.0046
678.9555	0.0021
679.139	0.0044
679.3225	0.0057
679.5059	0.0025
679.6894	0.0044
679.8728	0.0018
680.0562	-0.0093
680.2395	0.0035
680.4229	0.0009
680.6062	0.0076
680.7896	0.0039
680.9729	0.0018
681.1562	0.0156
681.3394	0.0061
681.5227	-0.0081
681.7059	0.0051
681.8891	0.0036
682.0723	0.0084
682.2555	0.0102
682.4387	-0.0024
682.6218	-0.0016
682.805	0.0051
682.9881	-0.0003
683.1712	-0.0006
683.3542	0.0016
683.5373	0.0067
683.7203	0.0016
683.9034	0.0029
684.0864	-0.0089
684.2694	0.001
684.4523	0.0044
684.6353	-0.0017
684.8182	0.0109
685.0011	-0.0067
685.184	0.0029
685.3669	0.0036
685.5498	0.0073
685.7326	0.0038
685.9154	0.0032
686.0982	0.0204
686.281	0.0025
686.4638	0.0115
686.6465	0.0006
686.8293	0.0038
687.012	0.007
687.1947	-0.0002
687.3774	0.0054
687.56	0.0014
687.7427	0.0073
687.9253	-0.0101
688.1079	-0.01
688.2905	0.0063
688.4731	0.0055
688.6556	-0.0022
688.8382	-0.0036
689.0207	0.0072
689.2032	-0.0023
689.3857	0.0002
689.5681	0.0036
689.7506	-0.0046
689.933	-0.0016
690.1154	-0.0026
690.2978	0.0047
690.4802	0.0014
690.6626	-0.0013
690.8449	-0.0056
691.0272	0.0092
691.2095	-0.0065
691.3918	-0.0029
691.5741	-0.0003
691.7563	0.0019
691.9386	0.0031
692.1208	-0.0052
692.303	0.0015
692.4852	-0.0047
692.6673	-0.0005
692.8495	-0.0032
693.0316	-0.0015
693.2137	0.0008
693.3958	0.0113
693.5778	0.0028
693.7599	0.0002
693.9419	-0.0015
694.1239	0.0047
694.3059	-0.0004
694.4879	0.0089
694.6699	0.0077
694.8518	0.0019
695.0337	0.0002
695.2157	0.0023
695.3975	-0.0036
695.5794	0.0031
695.7613	-0.0035
695.9431	-0.0022
696.1249	0.011
696.3067	0.0068
696.4885	0.0115
696.6703	-0.0046
696.852	0.0066
697.0337	0.0077
697.2154	0.0059
697.3971	0.0058
697.5788	0.0028
697.7605	0.002
697.9421	0.0061
698.1237	0.0012
698.3053	0.0032
698.4869	0.0015
698.6685	0.0024
698.85	-0.0014
699.0315	0.002
699.213	-0.0005
699.3945	0.0005
699.576	0.0105
699.7575	0.0104
699.9389	0.0106
700.1203	0.0028
700.3017	-0.0078
700.4831	-0.0052
700.6645	0.0025
700.8458	0.0066
701.0271	-0.0087
701.2084	0.0065
701.3897	0.0017
701.571	0.0004
701.7523	-0.0025
701.9335	-0.0053
702.1147	0.0012
702.2959	-0.0032
702.4771	-0.0004
702.6583	0.0004
702.8394	-0.0032
703.0205	0.0012
703.2016	-0.0009
703.3827	0.0069
703.5638	0.0099
703.7449	0.0044
703.9259	0.0137
704.1069	-0.0033
704.2879	0.0043
704.4689	0.0107
704.6499	0.0108
704.8308	0.0002
705.0117	0.0017
705.1927	0.0036
705.3735	-0.0035
705.5544	-0.0014
705.7353	0.004
705.9161	-0.0017
706.0969	-0.0088
706.2777	0.0005
706.4585	-0.0027
706.6393	0.0001
706.82	0.0033
707.0007	0.0003
707.1815	0.0033
707.3621	0.0034
707.5428	0.0117
707.7235	0.0043
707.9041	0.0062
708.0847	-0.0125
708.2653	-0.0026
708.4459	-0.014
708.6265	0.0013
708.807	0.005
708.9875	-0.0044
709.168	-0.0058
709.3485	-0.0012
709.529	-0.002
709.7095	-0.0107
709.8899	-0.003
710.0703	-0.0016
710.2507	0.0033
710.4311	-0.0016
710.6115	-0.0118
710.7918	-0.0014
710.9721	-0.0052
711.1524	-0.0069
711.3327	0.0002
711.513	0.0006
711.6932	0.0086
711.8735	0.0128
712.0537	0.003
712.2339	-0.0054
712.4141	-0.0065
712.5942	0.0008
712.7744	-0.004
712.9545	-0.008
713.1346	-0.0016
713.3147	0.0065
713.4947	-0.001
713.6748	0.0086
713.8548	-0.0001
714.0348	-0.0011
714.2148	-0.0014
714.3948	0.0113
714.5748	0.0034
714.7547	0.0003
714.9346	0.0172
715.1145	0.0011
715.2944	0.0003
715.4743	0.0105
715.6541	0.0069
715.834	0.0107
716.0138	0.0032
716.1936	0.002
716.3733	-0
716.5531	0.0089
716.7328	0.0004
716.9126	0
717.0923	0.0036
717.2719	0.0034
717.4516	0.0018
717.6312	0.0096
717.8109	0.0008
717.9905	0.0003
718.1701	-0.0024
718.3496	0.0037
718.5292	0.0016
718.7087	0.002
718.8882	0.0025
719.0677	0.0071
719.2472	0.0035
719.4267	0.0092
719.6061	0.0015
719.7856	0.0068
719.965	0.0046
720.1443	0.0025
720.3237	0.0233
720.5031	0.0004
720.6824	0.0146
720.8617	-0.0028
721.041	0.0078
721.2203	0.0107
721.3995	0.0059
721.5788	0.0068
721.758	0.0077
721.9372	0.0016
722.1164	0.0011
722.2956	0.0121
722.4747	-0.0011
722.6538	-0.0014
722.8329	0.0111
723.012	0.0037
723.1911	-0.0052
723.3702	0.0013
723.5492	0.0014
723.7282	-0.0012
723.9072	0.002
724.0862	-0.0055
724.2652	-0.0023
724.4441	0.0003
724.623	0.0053
724.8019	0.0075
724.9808	0.0081
725.1597	0.0002
725.3385	0.0104
725.5174	0.0165
725.6962	-0.0055
725.875	0.0042
726.0538	0.0031
726.2325	0.0037
726.4112	0.0088
726.59	-0.0012
726.7687	0.0016
726.9474	0.0107
727.126	-0.0002
727.3047	-0.001
727.4833	-0.0001
727.6619	-0.0077
727.8405	-0.0094
728.0191	-0.0064
728.1976	0.0072
728.3762	-0.0014
728.5547	-0.0024
728.7332	-0.0132
728.9116	0.0024
729.0901	0.0039
729.2686	-0
729.447	0.0002
729.6254	0.0004
729.8038	-0.0015
729.9821	-0.0084
730.1605	0.0053
730.3388	0.0058
730.5171	0.008
730.6954	-0.0089
730.8737	0.0089
731.0519	0.0046
731.2302	-0.006
731.4084	0.0089
731.5866	0.0016
731.7648	0.0029
731.9429	0.0089
732.1211	0
732.2992	0.0071
732.4773	-0.001
732.6554	-0.0043
732.8335	0.0077
733.0115	0.0135
733.1896	0.0143
733.3676	-0.0029
733.5456	0.0038
733.7235	0.0146
733.9015	0
734.0794	0.0083
734.2574	-0.0038
734.4353	0.0025
734.6131	0.0057
734.791	0.003
734.9689	0.0006
735.1467	0.005
735.3245	-0.0028
735.5023	-0.0016
735.68	-0.0034
735.8578	0.0061
736.0355	-0.0182
736.2132	-0.0005
736.3909	-0.0024
736.5686	-0.0061
736.7463	-0
736.9239	-0.0097
737.1015	-0.0028
737.2791	-0.0011
737.4567	-0.0047
737.6343	-0.0027
737.8118	0.0016
737.9894	0.0048
738.1669	-0.0107
738.3444	0.002
738.5218	-0.0017
738.6993	-0.0002
738.8767	-0.007
739.0541	0.0117
739.2315	-0.0086
739.4089	0.0061
739.5863	0.0104
739.7636	-0.0043
739.9409	0.0105
740.1182	0.0072
740.2955	0.0047
740.4728	0.0052
740.65	0.0077
740.8272	0.005
741.0044	-0.0046
741.1816	-0.0021
741.3588	-0.0001
741.5359	0.0033
741.7131	-0.0042
741.8902	0.0029
742.0673	0.0009
742.2444	-0.0097
742.4214	0.004
742.5985	-0.0045
742.7755	0.0072
742.9525	-0.0141
743.1295	0.0054
743.3064	0.0068
743.4834	0.0022
743.6603	-0.0033
743.8372	0.0064
744.0141	0.0087
744.191	0.0036
744.3678	-0.0078
744.5446	0.0061
744.7215	0.0078
744.8982	0.0016
745.075	0.0003
745.2518	0.0101
745.4285	0.0023
745.6052	-0.0015
745.7819	0.0074
745.9586	-0.0055
746.1353	0.0071
746.3119	-0.0023
746.4885	-0.003
746.6651	-0.002
746.8417	-0.0027
747.0183	-0.0045
747.1948	-0.0085
747.3714	0.0084
747.5479	0.0066
747.7244	-0.0001
747.9008	0.0132
748.0773	0.0072
748.2537	0.0014
748.4301	-0.0063
748.6065	0.0033
748.7829	0.0055
748.9593	-0.003
749.1356	0.0067
749.3119	0.0007
749.4882	-0.0049
749.6645	0.0132
749.8408	0.0008
750.017	0.0003
750.1933	-0.0006
750.3695	-0.006
750.5457	0.0039
750.7218	-0.0021
750.898	0.0015
751.0741	-0.0062
751.2502	-0.0061
751.4263	-0.0031
751.6024	0.0002
751.7784	-0.0058
751.9545	-0.0084
752.1305	0.0003
752.3065	-0.009
752.4825	0.0008
752.6584	-0.0115
752.8344	-0.0073
753.0103	-0.0101
753.1862	0.0005
753.3621	-0.0006
753.5379	-0.0059
753.7138	-0.0098
753.8896	-0.0034
754.0654	0.0052
754.2412	0.0045
754.417	-0.0018
754.5927	-0.0053
754.7685	-0.002
754.9442	-0.0002
755.1199	0.0076
755.2956	-0.0056
755.4712	0.0048
755.6469	-0.0006
755.8225	-0.0031
755.9981	-0.0094
756.1736	-0.004
756.3492	0.0002
756.5248	-0.0144
756.7003	0.0079
756.8758	0.0022
757.0513	-0.0131
757.2267	-0.0052
757.4022	-0.0008
757.5776	-0.0049
757.753	-0.0018
757.9284	0.0074
758.1038	0.0055
758.2791	0.005
758.4545	-0.004
758.6298	-0.0036
758.8051	0.0033
758.9803	0.0026
759.1556	0.0117
759.3308	-0.0046
759.506	0.0074
759.6812	0.0025
759.8564	0.0105
760.0316	0.0006
760.2067	0.0121
760.3819	0.0039
760.557	0.0061
760.732	-0.0035
760.9071	-0.008
761.0821	0.0112
761.2572	0.0104
761.4322	-0.0017
761.6072	-0.0006
761.7821	-0.0068
761.9571	0.0088
762.132	-0.0028
762.3069	-0.005
762.4818	-0.0033
762.6567	0.0065
762.8316	-0.011
763.0064	0.0046
763.1812	-0.0036
763.356	-0.0134
763.5308	-0.003
763.7055	0.0012
763.8803	-0.0081
764.055	-0.0055
764.2297	-0.0076
764.4044	-0.0097
764.579	-0.012
764.7537	-0.0095
764.9283	-0.0046
765.1029	-0.0038
765.2775	-0.0069
765.4521	-0.0012
765.6266	-0.0182
765.8011	-0.0158
765.9756	0.0006
766.1501	0.0037
766.3246	0.0026
766.4991	-0.0011
766.6735	-0.0037
766.8479	-0.013
767.0223	0.0094
767.1967	-0.0006
767.371	0.004
767.5454	-0.0082
767.7197	0.0151
767.894	-0.0007
768.0683	-0.0087
768.2425	-0.0042
768.4168	-0.0002
768.591	-0.0059
768.7652	-0.0081
768.9394	0.001
769.1135	-0.0004
769.2877	0.0024
769.4618	-0.0019
769.6359	-0.0007
769.81	0.0065
769.984	0.0054
770.1581	0.0037
770.3321	0.0003
770.5061	0.0009
770.6801	0.0008
770.8541	0.0044
771.028	0.0091
771.202	-0.012
771.3759	-0.0008
771.5498	-0.0099
771.7236	0.004
771.8975	-0.0014
772.0713	0.0126
772.2451	0.0114
772.4189	0.0149
772.5927	0.016
772.7665	0.0146
772.9402	0.0044
773.1139	-0.0002
773.2876	0.0068
773.4613	0.0093
773.635	0.0145
773.8086	-0.0052
773.9822	0.008
774.1558	0.0027
774.3294	-0.0071
774.503	0.0054
774.6765	0.0093
774.8501	0.0067
775.0236	0.0078
775.1971	0.0121
775.3705	-0.0013
775.544	0.0111
775.7174	-0.006
775.8908	0.0021
776.0642	-0.0049
776.2376	0.0037
776.4109	-0.0167
776.5843	0.0025
776.7576	0.0081
776.9309	0.0058
777.1041	0.0083
777.2774	0.0131
777.4506	0.0041
777.6238	0.0017
777.797	-0.0036
777.9702	-0.0091
778.1434	-0.0028
778.3165	-0.0054
778.4896	0.0006
778.6627	0.0119
778.8358	-0.0011
779.0089	-0.0148
779.1819	0.0002
779.3549	0.0165
779.5279	0.0103
779.7009	0.0056
779.8739	0.0048
780.0468	0.0037
780.2197	0.0082
780.3926	-0.0011
780.5655	0.0081
780.7384	0.0067
780.9112	0.0046
781.0841	-0.0045
781.2569	0.0101
781.4297	0.0137
781.6024	0.0082
781.7752	0.0113
781.9479	0.0085
782.1206	0.0092
782.2933	-0.0052
782.466	-0.0001
782.6386	0.0119
782.8113	0.0118
782.9839	0.0041
783.1565	0.0137
783.329	-0.0058
783.5016	0.0009
783.6741	0.0081
783.8466	-0.0028
784.0191	0.0065
784.1916	-0.0012
784.3641	0.0023
784.5365	0.0108
784.7089	-0.0025
784.8813	0.0038
785.0537	0.0048
785.2261	-0.0059
785.3984	-0.0045
785.5707	-0.0043
785.743	-0.0066
785.9153	-0.0108
786.0876	0.0052
786.2598	-0.0202
786.432	-0.0153
786.6042	0.0135
786.7764	0.0122
786.9486	0.0083
787.1207	-0.0105
787.2928	0.002
787.4649	-0.0002
787.637	0.0135
787.8091	0.011
787.9811	-0.009
788.1532	-0.0049
788.3252	-0.0004
788.4972	-0.0038
788.6691	0.0006
788.8411	-0.0013
789.013	-0.005
789.1849	0.0063
789.3568	-0.0058
789.5287	0.0066
789.7005	-0.0016
789.8723	0.009
790.0442	0.0168
790.2159	0.0046
790.3877	0.0048
790.5595	0.0023
790.7312	0.0143
790.9029	-0.0001
791.0746	-0.0013
791.2463	-0.0075
791.4179	-0.0153
791.5896	-0.0238
791.7612	-0.0044
791.9328	0.0083
792.1044	-0.0216
792.2759	-0.0163
792.4474	-0.0069
792.619	0.0066
792.7905	0.0041
792.9619	-0.0017
793.1334	0.0001
793.3048	0.0026
793.4762	-0.0024
793.6476	-0.0009
793.819	-0.0009
793.9904	0.0098
794.1617	-0.0115
794.333	0.0008
794.5043	-0.0123
794.6756	0.0031
794.8469	0.0053
795.0181	-0.0043
795.1893	-0.0013
795.3605	0.0013
795.5317	0.0019
795.7029	-0.0111
795.874	0.0146
796.0452	-0.0159
796.2163	-0.002
796.3873	0.0002
796.5584	0.0098
796.7294	-0.0136
796.9005	-0.0024
797.0715	-0.0012
797.2425	-0.0107
797.4134	-0.0059
797.5844	-0.0016
797.7553	-0.016
797.9262	-0.0182
798.0971	-0.0195
798.2679	-0.0097
798.4388	-0.0293
798.6096	-0.0175
798.7804	-0.0026
798.9512	-0.0014
799.122	-0.0076
799.2927	-0.0081
799.4635	0.0091
799.6342	-0.0217
799.8049	-0.0107
799.9755	-0.0017
800.1462	0.0032
800.3168	0.0032
800.4874	-0.0138
800.658	0.0082
800.8286	0.0089
800.9991	0.0018
801.1696	0.0024
801.3402	0.0041
801.5106	-0.0163
801.6811	0.004
801.8516	0.0162
802.022	0.0077
802.1924	-0.0076
802.3628	0.0027
802.5332	0.0201
802.7035	0.0033
802.8739	-0.0079
803.0442	-0.0051
803.2145	-0.0133
803.3847	-0.0088
803.555	-0.0037
803.7252	-0.0262
803.8954	-0.0043
804.0656	-0.0302
804.2358	-0.0138
804.4059	-0.0056
804.5761	-0.0209
804.7462	-0.0118
804.9163	0.0038
805.0864	-0.0255
805.2564	-0.0066
805.4264	-0.0067
805.5965	-0.0205
805.7665	-0.005
805.9364	-0.0116
806.1064	0.0259
806.2763	0.0091
806.4462	0.0058
806.6161	-0.0051
806.786	-0.0023
806.9559	-0.0051
807.1257	0.0128
807.2955	0.0076
807.4653	0.0154
807.6351	0.001
807.8048	-0.0078
807.9746	0.0022
808.1443	-0.0112
808.314	-0.0066
808.4837	-0.0025
808.6533	-0.0133
808.8229	0.0155
808.9926	-0.0286
809.1622	-0.003
809.3317	-0.0216
809.5013	-0.0081
809.6708	-0.0122
809.8403	0.0068
810.0098	-0.0092
810.1793	0.0019
810.3488	-0.0047
810.5182	-0.0179
810.6876	-0.0096
810.857	-0.0102
811.0264	0.0242
811.1958	-0.002
811.3651	0.0191
811.5344	-0.002
811.7037	-0.0128
811.873	-0.031
812.0422	-0.0157
812.2115	-0.015
812.3807	-0.015
812.5499	-0.0087
812.7191	-0.0047
812.8882	-0.0147
813.0574	-0.0143
813.2265	0.005
813.3956	-0.0061
813.5646	0.0012
813.7337	-0.0294
813.9027	0.0272
814.0718	0.0302
814.2407	0.0199
814.4097	-0.0052
814.5787	-0.0218
814.7476	0.0001
814.9165	0.0068
815.0854	-0.0043
815.2543	0.0076
815.4232	0.0059
815.592	0.005
815.7608	0.0007
815.9296	0.0084
816.0984	0.018
816.2671	-0.0119
816.4359	0.0001
816.6046	-0.0159
816.7733	-0.0075
816.942	-0.0217
817.1106	0.0016
817.2793	-0.0104
817.4479	0.0182
817.6165	0.0072
817.785	0.0123
817.9536	-0.0064
818.1221	-0.0129
818.2906	0.0201
818.4591	0.0024
818.6276	-0.0158
818.7961	-0.0113
818.9645	-0.0178
819.1329	-0.0098
819.3013	0.0011
819.4697	0.0023
819.638	-0.0348
819.8064	0.0042
819.9747	0.0001
820.143	-0.0178
820.3113	-0.0291
820.4795	-0.0126
820.6477	-0.0094
820.816	0.0022
820.9842	-0.0056
821.1523	-0.0161
821.3205	-0.008
821.4886	-0.0067
821.6567	-0.0266
821.8248	-0.0084
821.9929	-0.006
822.1609	0.0031
822.329	0.0259
822.497	0.004
822.665	-0.0104
822.833	0.0083
823.0009	0.0005
823.1688	0.0333
823.3367	0.0082
823.5046	0.0032
823.6725	0.0259
823.8404	0.0203
824.0082	0.0161
824.176	0.0162
824.3438	-0.0078
824.5116	0.0078
824.6793	0.0238
824.847	-0.0077
825.0147	-0.0335
825.1824	0.0101
825.3501	0.0049
825.5177	-0.0236
825.6854	-0.0192
825.853	0.0077
826.0206	-0.0082
826.1881	0.0124
826.3557	-0.0387
826.5232	0.0307
826.6907	-0.034
826.8582	-0.018
827.0257	-0.0306
827.1931	-0.032
827.3605	-0.0303
827.528	-0.0243
827.6953	-0.0154
827.8627	0.0034
828.03	-0.0019
828.1974	0.0006
828.3647	-0.0425
828.532	-0.0047
828.6992	-0.0196
828.8665	-0.0126
829.0337	-0.0088
829.2009	0.0113
829.3681	-0.0104
829.5352	0.0006
829.7024	-0.0457
829.8695	-0.0275
830.0366	0.0661
830.2037	-0.0212
830.3707	0.0041
830.5378	0.0143
830.7048	0.0035
830.8718	-0.0221
831.0388	-0.0403
831.2057	0.0023
831.3727	0.0139
831.5396	-0.0055
831.7065	-0.0308
831.8734	0.0128
832.0402	-0.0247
832.2071	0.0163
832.3739	-0.018
832.5407	0.0093
832.7075	-0.0247
832.8742	-0.0452
833.041	-0.0398
833.2077	-0.0118
833.3744	0.0152
833.541	-0.0158
833.7077	-0.0386
833.8743	0.0055
834.0409	0.0064
834.2075	0.0015
834.3741	-0.0119
834.5407	-0.0055
834.7072	-0.0092
834.8737	-0.0044
835.0402	-0.0137
835.2067	-0.0199
835.3731	0.0184
835.5395	0.0266
835.706	0.0147
835.8723	-0.0229
836.0387	-0.0098
836.2051	-0.0073
836.3714	-0.0513
836.5377	0.0002
836.704	-0.0373
836.8703	0.016
837.0365	0.0076
837.2027	-0.0269
837.3689	0.0304
837.5351	-0.0116
837.7013	-0.0372
837.8674	-0.0493
838.0335	-0.064
838.1997	0.0341
838.3657	-0.0449
838.5318	-0.0239
838.6978	0.0262
838.8639	0.001
839.0299	0.0224
839.1958	-0.0358
839.3618	-0.0406
839.5277	0.0388
839.6937	0.0137
839.8596	-0.0087
840.0254	0.0171
840.1913	-0.003
840.3571	0.0283
840.523	-0.0618
840.6888	0.0069
840.8545	0.0013
841.0203	-0.0438
841.186	-0.004
841.3517	0.0416
841.5174	-0.0358
841.6831	-0.0324
841.8488	0.0196
842.0144	-0.0373
842.18	0.0056
842.3456	0.0334
842.5112	-0.0097
842.6767	0.0003
842.8422	0.0201
843.0077	-0.0178
843.1732	-0.0343
843.3387	-0.0539
843.5042	-0.0429
843.6696	0.0004
843.835	0.0169
844.0004	0.0202
844.1657	0.0167
844.3311	-0.0689
844.4964	-0.0708
844.6617	0.006
844.827	-0.0233
844.9923	-0.0087
845.1575	0.0211
845.3227	0.0624
845.4879	0.0118
845.6531	-0.07
845.8183	-0.0164
845.9834	-0.0143
846.1485	0.0092
846.3136	0.0017
846.4787	0.0021
846.6438	0.0443
846.8088	0.0231
846.9738	-0.0617
847.1388	-0.0023
847.3038	0.0097
847.4687	-0.1407
847.6337	0.0163
847.7986	-0.0579
847.9635	-0.0252
848.1284	0.0316
848.2932	0.0709
848.458	0.0109
848.6228	0.0964
848.7876	-0.0065
848.9524	-0.0358
849.1172	-0.1327
849.2819	0.0249
849.4466	-0.1115
849.6113	-0.091
849.7759	0.0427
849.9406	-0.0309
850.1052	0.0214
850.2698	-0.0427
850.4344	-0.0148
850.599	0.004
850.7635	0.0748
850.928	-0.1046
851.0925	0.0452
851.257	0.0594
851.4215	-0.0587
851.5859	-0.029
851.7503	-0.0248
851.9147	-0.0281
852.0791	-0.0716
852.2434	0.0383
852.4078	0.0497
852.5721	0.0648
852.7364	-0.0876
852.9007	-0.197
853.0649	-0.0013
853.2291	0.0455
853.3934	0.0294
853.5575	0.0323
853.7217	0.0415
853.8859	0.0139
854.05	-0.1346
854.2141	0.1234
854.3782	-0.153
854.5423	-0.0389
854.7063	0.2242
854.8703	0.0121
855.0343	0.0204
855.1983	-0.114
855.3623	0.1519
855.5262	0.0758
855.6901	-0.0229
855.854	-0.0407
856.0179	0.1141
856.1818	0.1409
856.3456	0.0149
856.5094	-0.0712
856.6732	0.0243
856.837	0.0012
857.0008	0.0424
857.1645	-0.005
857.3282	-0.05
857.4919	0.0855
857.6556	-0.1227
857.8192	0.0425
857.9828	-0.0019
858.1465	0.2019
858.31	-0.1658
858.4736	0.0114
858.6372	-0.1765
858.8007	-0.154
858.9642	-0.0662
859.1277	0.0933
859.2911	0.1688
859.4546	0.1299
859.618	-0.2658
859.7814	-0.0437
859.9448	-0.1258
860.1081	-0.0932
860.2715	0.0192
860.4348	-0.0239
860.5981	0.016
860.7614	0.2468
860.9246	-0.1581
861.0879	-0.1567
861.2511	0.1051
861.4143	0.2024
861.5774	0.3676
861.7406	-0.0575
861.9037	-0.0786
862.0668	0.203
862.2299	0.0403
862.393	-0.6759
862.556	0.2985
862.7191	0.0538
862.8821	-0.0826
863.0451	0.1756
863.208	0.0547
863.371	0.2729
863.5339	0.4408
863.6968	0.1012
863.8597	0.3305
864.0225	-0.0324
864.1854	0.0409
864.3482	-0
864.511	0.024
864.6737	0.0977
864.8365	0.0585
864.9992	-0.4265
865.1619	-0
865.3246	0.1023
865.4873	0.5007
865.65	-0.2564
865.8126	-0.1266
865.9752	0.2243
866.1378	0.0836
866.3004	-0
866.4629	0.221
866.6254	-0.1344
866.7879	0.1801
866.9504	0.4001
867.1129	-0
867.2753	0.0094
867.4377	0.1195
867.6001	-0.0407
867.7625	0.123
867.9249	-0.5166
868.0872	0.2257
868.2495	-0.1322
868.4118	-0.23
868.5741	0.2505
868.7363	-0.3601
868.8986	-0
869.0608	-0.182
869.223	0.424
869.3851	-0.0699
869.5473	-0
869.7094	0.2742
869.8715	-0
870.0336	-0.9655
870.1957	-0.582
870.3577	-0.9454
870.5197	-0.1737
870.6817	-0.5246
870.8437	-0.0882
871.0057	-0.7802
871.1676	-0.5591
871.3295	0.1509
871.4914	-0
871.6533	-0.1499
871.8151	-0.3916
871.977	-0
872.1388	1.1671
872.3006	-0.1509
872.4623	-0
872.6241	-0.0139
872.7858	0.2812
872.9475	0.2233
873.1092	0.065
873.2709	0.083
873.4325	0.134
873.5941	0.7847
873.7557	-0
873.9173	-0
874.0789	-0
874.2404	-0.4196
874.4019	0.1084
874.5634	-0.3287
874.7249	0.4475
874.8863	0.3933
875.0478	-0.0389
875.2092	-0
875.3706	0.2679
875.5319	-0.2795
875.6933	1.0228
875.8546	-0.3067
876.0159	0.2902
876.1772	-0
876.3385	-0
876.4997	0.4401
876.6609	-0.1553
876.8221	0.0276
876.9833	-0.1874
877.1445	1.9777
877.3056	0.2127
877.4667	-0
877.6278	0.2033
877.7889	-0.3352
877.9499	0.3854
878.111	-0
878.272	-0.7847
878.433	0.6314
878.5939	0.2065
878.7549	0.2834
878.9158	-0.3216
879.0767	1.1389
879.2376	-0
879.3984	-0
879.5593	-0
879.7201	-0.0079
879.8809	-0.8113
880.0417	-0.6569
880.2024	-0
880.3632	-0
880.5239	0.337
880.6846	-0
880.8452	-2.2529
881.0059	-1.1644
881.1665	0.295
881.3271	0.7924
881.4877	-0.1337
881.6483	-0.5417
881.8088	-0.3719
881.9693	0.3435
882.1298	0.3435
882.2903	0.3435
