Data from MonoPyChalIsomerACN10uM420nmA_Absorbance_15-09-55-334.txt Node
Date: Fri Jul 05 15:09:55 BST 2024
User: LASERRRRR
Spectrometer: FLMT03099
Trigger mode: 0
Integration Time (sec): 1.000000E-1
Scans to average: 1
Electric dark correction enabled: true
Nonlinearity correction enabled: false
Boxcar width: 0
XAxis mode: Wavelengths
Number of Pixels in Spectrum: 3648
>>>>>Begin Spectral Data<<<<<
179.3399	-0.0918
179.5586	-0.0918
179.7771	-0.0918
179.9957	0.8818
180.2143	-0.0028
180.4329	-0.1188
180.6514	-0
180.8699	-0.1606
181.0885	-0
181.307	0.0295
181.5255	-0
181.744	-0.808
181.9625	-0
182.181	-0
182.3994	-0
182.6179	-0
182.8363	0.4913
183.0547	0.2323
183.2732	-0.0801
183.4916	-0.0728
183.71	-0.015
183.9284	0.2442
184.1467	-0.1092
184.3651	0.1205
184.5835	0.0741
184.8018	0.075
185.0201	0.1367
185.2385	-0.1419
185.4568	0.0347
185.6751	0.3835
185.8934	0.3357
186.1117	0.1561
186.3299	0.0077
186.5482	0.0004
186.7664	-0.1544
186.9847	-0.0347
187.2029	0.1112
187.4211	0.1875
187.6393	0.1737
187.8575	-0.1446
188.0757	0.284
188.2939	0.1233
188.512	0.1417
188.7302	-0.044
188.9483	0.3851
189.1665	0.1231
189.3846	-0.0801
189.6027	-0.0329
189.8208	0.1049
190.0389	0.0942
190.257	0.1913
190.475	0.143
190.6931	0.2407
190.9111	0.3631
191.1292	0.3236
191.3472	0.5227
191.5652	0.2403
191.7832	0.0977
192.0012	0.3658
192.2192	0.4101
192.4371	0.4452
192.6551	0.273
192.873	0.4611
193.091	0.2336
193.3089	0.6837
193.5268	0.5316
193.7447	0.6223
193.9626	0.5272
194.1805	0.5161
194.3984	0.8131
194.6162	0.4481
194.8341	0.4831
195.0519	0.7646
195.2697	0.7318
195.4875	0.7295
195.7054	0.6488
195.9231	0.4541
196.1409	0.5722
196.3587	0.5328
196.5765	0.628
196.7942	0.6183
197.012	0.5938
197.2297	0.6486
197.4474	0.7112
197.6651	0.5111
197.8828	0.5789
198.1005	0.5071
198.3182	0.4813
198.5358	0.7328
198.7535	0.5102
198.9711	0.5592
199.1888	0.6858
199.4064	0.8174
199.624	0.5669
199.8416	0.5991
200.0592	0.5933
200.2767	0.5667
200.4943	0.7566
200.7119	0.8016
200.9294	0.6665
201.1469	0.6609
201.3645	0.5306
201.582	0.4532
201.7995	0.6376
202.017	0.6566
202.2344	0.584
202.4519	0.6614
202.6694	0.6906
202.8868	0.5972
203.1042	0.6393
203.3217	0.7057
203.5391	0.6649
203.7565	0.5995
203.9739	0.5923
204.1913	0.6531
204.4086	0.7198
204.626	0.8586
204.8433	0.6506
205.0607	0.6591
205.278	0.5961
205.4953	0.5944
205.7126	0.6681
205.9299	0.7439
206.1472	0.7156
206.3644	0.6059
206.5817	0.701
206.7989	0.6894
207.0162	0.6146
207.2334	0.7005
207.4506	0.6163
207.6678	0.6158
207.885	0.6069
208.1022	0.7107
208.3194	0.6829
208.5365	0.6619
208.7537	0.6833
208.9708	0.5815
209.1879	0.6531
209.405	0.6697
209.6222	0.6883
209.8392	0.6563
210.0563	0.6216
210.2734	0.5986
210.4905	0.6362
210.7075	0.6324
210.9245	0.6155
211.1416	0.6654
211.3586	0.6268
211.5756	0.5825
211.7926	0.6438
212.0096	0.6114
212.2265	0.5755
212.4435	0.5393
212.6604	0.5838
212.8774	0.6113
213.0943	0.5473
213.3112	0.5637
213.5281	0.5199
213.745	0.49
213.9619	0.4863
214.1788	0.5073
214.3956	0.457
214.6125	0.4691
214.8293	0.4399
215.0461	0.4665
215.2629	0.4426
215.4798	0.4606
215.6965	0.4467
215.9133	0.4463
216.1301	0.454
216.3469	0.4399
216.5636	0.4198
216.7803	0.4015
216.9971	0.4442
217.2138	0.401
217.4305	0.3611
217.6472	0.3726
217.8639	0.3707
218.0805	0.3555
218.2972	0.3388
218.5138	0.3124
218.7305	0.3288
218.9471	0.2856
219.1637	0.278
219.3803	0.3012
219.5969	0.2956
219.8135	0.2451
220.0301	0.2665
220.2466	0.2659
220.4632	0.2518
220.6797	0.2269
220.8962	0.2264
221.1127	0.2705
221.3292	0.2383
221.5457	0.2273
221.7622	0.2386
221.9787	0.2678
222.1951	0.2426
222.4116	0.2838
222.628	0.2521
222.8444	0.2569
223.0608	0.2461
223.2772	0.2458
223.4936	0.2598
223.71	0.252
223.9264	0.2784
224.1427	0.2355
224.3591	0.2424
224.5754	0.2538
224.7917	0.2707
225.008	0.2593
225.2243	0.2445
225.4406	0.2653
225.6569	0.2886
225.8732	0.2712
226.0894	0.2718
226.3057	0.2548
226.5219	0.2748
226.7381	0.2684
226.9543	0.2849
227.1705	0.2853
227.3867	0.2831
227.6029	0.2871
227.8191	0.2775
228.0352	0.282
228.2513	0.3112
228.4675	0.3167
228.6836	0.2933
228.8997	0.2827
229.1158	0.315
229.3319	0.2914
229.548	0.311
229.764	0.3091
229.9801	0.3319
230.1961	0.3221
230.4121	0.3327
230.6282	0.3193
230.8442	0.3069
231.0602	0.343
231.2761	0.3301
231.4921	0.3376
231.7081	0.3429
231.924	0.34
232.14	0.3418
232.3559	0.3366
232.5718	0.3633
232.7877	0.3475
233.0036	0.352
233.2195	0.3597
233.4353	0.366
233.6512	0.3526
233.867	0.3538
234.0829	0.3616
234.2987	0.3663
234.5145	0.3751
234.7303	0.371
234.9461	0.3843
235.1619	0.3657
235.3776	0.3622
235.5934	0.378
235.8091	0.3613
236.0249	0.3885
236.2406	0.3924
236.4563	0.374
236.672	0.3906
236.8877	0.4074
237.1034	0.3924
237.319	0.3759
237.5347	0.3849
237.7503	0.379
237.966	0.4053
238.1816	0.3799
238.3972	0.4139
238.6128	0.3822
238.8284	0.4041
239.0439	0.4056
239.2595	0.4069
239.475	0.4111
239.6906	0.4201
239.9061	0.3964
240.1216	0.3996
240.3371	0.4098
240.5526	0.3811
240.7681	0.4093
240.9836	0.3911
241.199	0.4021
241.4145	0.4013
241.6299	0.3791
241.8453	0.3729
242.0607	0.3958
242.2761	0.3838
242.4915	0.3839
242.7069	0.3896
242.9223	0.3633
243.1376	0.3563
243.353	0.3621
243.5683	0.3745
243.7836	0.3428
243.9989	0.3474
244.2142	0.3349
244.4295	0.3297
244.6448	0.318
244.86	0.3142
245.0753	0.2958
245.2905	0.2864
245.5057	0.3027
245.721	0.3023
245.9362	0.2918
246.1514	0.2796
246.3665	0.2733
246.5817	0.2903
246.7969	0.2687
247.012	0.2683
247.2271	0.2659
247.4423	0.2717
247.6574	0.2605
247.8725	0.2526
248.0876	0.2426
248.3026	0.2571
248.5177	0.2399
248.7328	0.2435
248.9478	0.2219
249.1628	0.2361
249.3779	0.2354
249.5929	0.2191
249.8079	0.2269
250.0228	0.2132
250.2378	0.2135
250.4528	0.2233
250.6677	0.209
250.8827	0.2084
251.0976	0.2092
251.3125	0.2036
251.5274	0.187
251.7423	0.1895
251.9572	0.1924
252.172	0.1729
252.3869	0.1853
252.6017	0.1855
252.8166	0.1753
253.0314	0.1868
253.2462	0.1733
253.461	0.1801
253.6758	0.1761
253.8906	0.1877
254.1053	0.1691
254.3201	0.1848
254.5348	0.169
254.7496	0.1845
254.9643	0.1777
255.179	0.1909
255.3937	0.1642
255.6083	0.1805
255.823	0.1855
256.0377	0.1771
256.2523	0.171
256.467	0.1471
256.6816	0.1822
256.8962	0.167
257.1108	0.1707
257.3254	0.1839
257.54	0.1617
257.7545	0.1666
257.9691	0.1782
258.1836	0.1703
258.3981	0.1822
258.6127	0.1859
258.8272	0.1669
259.0417	0.16
259.2561	0.1625
259.4706	0.1695
259.6851	0.1673
259.8995	0.1639
260.114	0.1678
260.3284	0.1843
260.5428	0.1689
260.7572	0.1683
260.9716	0.1828
261.186	0.1652
261.4003	0.1761
261.6147	0.1753
261.829	0.1609
262.0433	0.1628
262.2577	0.17
262.472	0.1713
262.6863	0.1654
262.9005	0.168
263.1148	0.1737
263.3291	0.1702
263.5433	0.1633
263.7576	0.1659
263.9718	0.1722
264.186	0.1652
264.4002	0.1662
264.6144	0.1633
264.8286	0.1739
265.0427	0.1601
265.2569	0.1628
265.471	0.1606
265.6851	0.1745
265.8993	0.165
266.1134	0.1718
266.3275	0.171
266.5415	0.1652
266.7556	0.1767
266.9697	0.1728
267.1837	0.1904
267.3978	0.1726
267.6118	0.1821
267.8258	0.1859
268.0398	0.1697
268.2538	0.1787
268.4677	0.1646
268.6817	0.1654
268.8957	0.1767
269.1096	0.1667
269.3235	0.1811
269.5374	0.1557
269.7514	0.1741
269.9652	0.1648
270.1791	0.1634
270.393	0.1726
270.6068	0.1722
270.8207	0.1554
271.0345	0.1645
271.2483	0.165
271.4622	0.1648
271.676	0.171
271.8897	0.1707
272.1035	0.1525
272.3173	0.153
272.531	0.1565
272.7448	0.1633
272.9585	0.1592
273.1722	0.1634
273.3859	0.1622
273.5996	0.1598
273.8133	0.1585
274.0269	0.1639
274.2406	0.1623
274.4542	0.1611
274.6679	0.1436
274.8815	0.1638
275.0951	0.1652
275.3087	0.164
275.5223	0.177
275.7358	0.1749
275.9494	0.1611
276.1629	0.1584
276.3765	0.1681
276.59	0.1805
276.8035	0.1669
277.017	0.1665
277.2305	0.1617
277.444	0.1887
277.6574	0.1739
277.8709	0.1777
278.0843	0.1574
278.2978	0.1688
278.5112	0.1686
278.7246	0.167
278.938	0.1645
279.1513	0.1742
279.3647	0.1689
279.5781	0.1729
279.7914	0.1627
280.0047	0.1767
280.2181	0.1842
280.4314	0.1568
280.6447	0.1727
280.8579	0.1753
281.0712	0.1847
281.2845	0.1834
281.4977	0.1656
281.711	0.1724
281.9242	0.1681
282.1374	0.1683
282.3506	0.1708
282.5638	0.1601
282.7769	0.1801
282.9901	0.1652
283.2033	0.1835
283.4164	0.1848
283.6295	0.163
283.8426	0.1702
284.0557	0.169
284.2688	0.1889
284.4819	0.1789
284.695	0.1688
284.908	0.1837
285.1211	0.1708
285.3341	0.1701
285.5471	0.1694
285.7601	0.174
285.9731	0.167
286.1861	0.1494
286.3991	0.1811
286.612	0.179
286.825	0.1661
287.0379	0.1693
287.2508	0.1546
287.4637	0.1715
287.6766	0.1575
287.8895	0.1603
288.1024	0.1835
288.3152	0.16
288.5281	0.1517
288.7409	0.1625
288.9538	0.1533
289.1666	0.1595
289.3794	0.1637
289.5922	0.1522
289.8049	0.1581
290.0177	0.1543
290.2304	0.1505
290.4432	0.1615
290.6559	0.1682
290.8686	0.1669
291.0813	0.1639
291.294	0.1575
291.5067	0.1578
291.7194	0.1543
291.932	0.1585
292.1447	0.1494
292.3573	0.1517
292.5699	0.1438
292.7825	0.1476
292.9951	0.1544
293.2077	0.1479
293.4203	0.1435
293.6328	0.145
293.8454	0.1563
294.0579	0.1579
294.2704	0.1472
294.4829	0.1394
294.6954	0.1492
294.9079	0.1532
295.1204	0.1626
295.3328	0.1468
295.5453	0.141
295.7577	0.1448
295.9701	0.1499
296.1825	0.1561
296.3949	0.148
296.6073	0.15
296.8197	0.1469
297.0321	0.152
297.2444	0.1408
297.4567	0.1537
297.6691	0.1532
297.8814	0.1438
298.0937	0.145
298.306	0.1467
298.5182	0.1516
298.7305	0.1578
298.9428	0.1363
299.155	0.1537
299.3672	0.1515
299.5794	0.1327
299.7916	0.1436
300.0038	0.1562
300.216	0.1466
300.4282	0.1541
300.6403	0.1384
300.8525	0.1596
301.0646	0.1385
301.2767	0.1471
301.4888	0.1419
301.7009	0.1561
301.913	0.1502
302.125	0.1568
302.3371	0.142
302.5491	0.1588
302.7612	0.1528
302.9732	0.1525
303.1852	0.1451
303.3972	0.1543
303.6092	0.1462
303.8211	0.1439
304.0331	0.1446
304.245	0.1462
304.457	0.1405
304.6689	0.1408
304.8808	0.1651
305.0927	0.136
305.3046	0.1406
305.5164	0.1461
305.7283	0.1407
305.9401	0.1351
306.152	0.1385
306.3638	0.1405
306.5756	0.1433
306.7874	0.1363
306.9992	0.1409
307.2109	0.1328
307.4227	0.1175
307.6344	0.1345
307.8462	0.129
308.0579	0.1365
308.2696	0.1292
308.4813	0.1282
308.693	0.1339
308.9046	0.1349
309.1163	0.1212
309.328	0.1217
309.5396	0.123
309.7512	0.1185
309.9628	0.1208
310.1744	0.1239
310.386	0.1214
310.5976	0.1153
310.8091	0.1212
311.0207	0.1206
311.2322	0.1301
311.4437	0.1219
311.6552	0.1093
311.8667	0.1194
312.0782	0.1161
312.2897	0.0999
312.5012	0.1126
312.7126	0.1038
312.924	0.1117
313.1355	0.1206
313.3469	0.1143
313.5583	0.1206
313.7696	0.1201
313.981	0.1059
314.1924	0.1171
314.4037	0.1038
314.6151	0.125
314.8264	0.1065
315.0377	0.1023
315.249	0.1135
315.4603	0.1126
315.6716	0.1156
315.8828	0.1036
316.0941	0.1076
316.3053	0.1122
316.5165	0.1028
316.7277	0.106
316.9389	0.1181
317.1501	0.1187
317.3613	0.1168
317.5724	0.0989
317.7836	0.1154
317.9947	0.1094
318.2058	0.1108
318.417	0.1088
318.6281	0.1073
318.8391	0.108
319.0502	0.1087
319.2613	0.1137
319.4723	0.1081
319.6834	0.1192
319.8944	0.1024
320.1054	0.1212
320.3164	0.1162
320.5274	0.1091
320.7383	0.1136
320.9493	0.1201
321.1602	0.1169
321.3712	0.1094
321.5821	0.1096
321.793	0.1133
322.0039	0.123
322.2148	0.1182
322.4257	0.1229
322.6365	0.1124
322.8474	0.1145
323.0582	0.1183
323.269	0.108
323.4798	0.114
323.6906	0.119
323.9014	0.1166
324.1122	0.1222
324.3229	0.116
324.5337	0.1153
324.7444	0.1027
324.9551	0.1221
325.1658	0.1214
325.3765	0.1125
325.5872	0.1348
325.7979	0.1144
326.0085	0.1085
326.2192	0.1241
326.4298	0.1224
326.6404	0.1218
326.851	0.1129
327.0616	0.11
327.2722	0.1131
327.4828	0.1224
327.6933	0.1194
327.9039	0.1296
328.1144	0.1344
328.3249	0.1215
328.5354	0.1129
328.7459	0.1194
328.9564	0.1087
329.1669	0.122
329.3773	0.123
329.5878	0.1205
329.7982	0.1145
330.0086	0.114
330.219	0.1258
330.4294	0.1079
330.6398	0.115
330.8502	0.1092
331.0605	0.1215
331.2708	0.1135
331.4812	0.1241
331.6915	0.1183
331.9018	0.1287
332.1121	0.1233
332.3224	0.1105
332.5326	0.1255
332.7429	0.1262
332.9531	0.1333
333.1633	0.1208
333.3735	0.1329
333.5837	0.1251
333.7939	0.1181
334.0041	0.1258
334.2143	0.1231
334.4244	0.1229
334.6346	0.1001
334.8447	0.1372
335.0548	0.1173
335.2649	0.1066
335.475	0.1323
335.685	0.1153
335.8951	0.1359
336.1051	0.1318
336.3152	0.1345
336.5252	0.1119
336.7352	0.1282
336.9452	0.1275
337.1552	0.1227
337.3652	0.1185
337.5751	0.1232
337.7851	0.1257
337.995	0.1003
338.2049	0.1428
338.4148	0.134
338.6247	0.1291
338.8346	0.1207
339.0445	0.1199
339.2543	0.1191
339.4642	0.1343
339.674	0.1196
339.8838	0.1276
340.0936	0.1313
340.3034	0.1227
340.5132	0.1386
340.7229	0.1371
340.9327	0.124
341.1424	0.1308
341.3522	0.1477
341.5619	0.1372
341.7716	0.1396
341.9813	0.1321
342.1909	0.129
342.4006	0.1439
342.6102	0.1485
342.8199	0.1416
343.0295	0.1386
343.2391	0.1462
343.4487	0.1307
343.6583	0.1266
343.8679	0.1389
344.0774	0.1419
344.287	0.1428
344.4965	0.1353
344.706	0.1384
344.9155	0.14
345.125	0.1347
345.3345	0.1341
345.544	0.135
345.7534	0.1419
345.9629	0.1361
346.1723	0.1431
346.3817	0.1457
346.5911	0.1344
346.8005	0.1368
347.0099	0.1396
347.2193	0.1453
347.4286	0.1351
347.638	0.1482
347.8473	0.1427
348.0566	0.1366
348.2659	0.138
348.4752	0.1309
348.6845	0.1366
348.8937	0.13
349.103	0.1501
349.3122	0.1428
349.5214	0.1553
349.7306	0.148
349.9398	0.1308
350.149	0.1523
350.3582	0.1444
350.5674	0.1713
350.7765	0.1395
350.9856	0.1485
351.1948	0.1453
351.4039	0.1312
351.613	0.1439
351.822	0.1637
352.0311	0.1577
352.2402	0.1488
352.4492	0.158
352.6582	0.1503
352.8672	0.1499
353.0762	0.1635
353.2852	0.1448
353.4942	0.1407
353.7032	0.1647
353.9121	0.1581
354.1211	0.157
354.33	0.153
354.5389	0.1638
354.7478	0.1518
354.9567	0.1476
355.1655	0.1438
355.3744	0.1573
355.5833	0.1579
355.7921	0.1861
356.0009	0.156
356.2097	0.1794
356.4185	0.157
356.6273	0.1528
356.8361	0.1603
357.0448	0.155
357.2536	0.1516
357.4623	0.1567
357.671	0.1636
357.8797	0.1585
358.0884	0.1706
358.2971	0.1609
358.5057	0.1751
358.7144	0.1613
358.923	0.1639
359.1316	0.1612
359.3402	0.1665
359.5488	0.1631
359.7574	0.1563
359.966	0.179
360.1746	0.1739
360.3831	0.1782
360.5916	0.1651
360.8002	0.1643
361.0087	0.1712
361.2172	0.1733
361.4256	0.1781
361.6341	0.1786
361.8426	0.1714
362.051	0.1752
362.2594	0.1818
362.4678	0.1687
362.6762	0.1983
362.8846	0.1728
363.093	0.1915
363.3014	0.1859
363.5097	0.1548
363.718	0.1853
363.9264	0.1865
364.1347	0.1688
364.343	0.1819
364.5513	0.1966
364.7595	0.1938
364.9678	0.1808
365.176	0.1796
365.3842	0.1798
365.5925	0.1728
365.8007	0.1899
366.0089	0.1837
366.217	0.1776
366.4252	0.1839
366.6333	0.1929
366.8415	0.192
367.0496	0.168
367.2577	0.2038
367.4658	0.2029
367.6739	0.1923
367.882	0.2042
368.09	0.1803
368.2981	0.1974
368.5061	0.1897
368.7141	0.2128
368.9221	0.1988
369.1301	0.1904
369.3381	0.1849
369.5461	0.1893
369.754	0.1865
369.962	0.1872
370.1699	0.2034
370.3778	0.1889
370.5857	0.1893
370.7936	0.1867
371.0015	0.2032
371.2093	0.207
371.4172	0.2028
371.625	0.1798
371.8328	0.1915
372.0406	0.1825
372.2484	0.1969
372.4562	0.1904
372.664	0.1819
372.8717	0.2021
373.0795	0.1818
373.2872	0.1947
373.4949	0.1907
373.7026	0.1985
373.9103	0.2133
374.118	0.1937
374.3256	0.2006
374.5333	0.1827
374.7409	0.193
374.9485	0.1988
375.1561	0.2161
375.3637	0.1949
375.5713	0.2132
375.7789	0.2022
375.9864	0.2038
376.194	0.1947
376.4015	0.2184
376.609	0.207
376.8165	0.2035
377.024	0.1968
377.2315	0.1918
377.4389	0.216
377.6464	0.2032
377.8538	0.2146
378.0612	0.2096
378.2686	0.2145
378.476	0.2243
378.6834	0.2142
378.8908	0.2068
379.0981	0.2103
379.3055	0.216
379.5128	0.2178
379.7201	0.2164
379.9274	0.1996
380.1347	0.2016
380.342	0.2219
380.5492	0.2013
380.7565	0.2036
380.9637	0.224
381.1709	0.202
381.3781	0.2211
381.5853	0.2146
381.7925	0.2219
381.9997	0.2163
382.2068	0.2162
382.4139	0.2102
382.6211	0.2122
382.8282	0.2194
383.0353	0.2142
383.2424	0.1952
383.4494	0.2136
383.6565	0.2057
383.8635	0.2129
384.0706	0.2144
384.2776	0.2004
384.4846	0.1957
384.6916	0.2011
384.8986	0.2039
385.1055	0.2296
385.3125	0.2086
385.5194	0.204
385.7263	0.2133
385.9333	0.2001
386.1402	0.2009
386.347	0.2125
386.5539	0.2011
386.7608	0.2127
386.9676	0.1989
387.1744	0.209
387.3813	0.1979
387.5881	0.2097
387.7948	0.1952
388.0016	0.2208
388.2084	0.1979
388.4151	0.1864
388.6219	0.2174
388.8286	0.2022
389.0353	0.2144
389.242	0.2095
389.4487	0.2034
389.6553	0.1967
389.862	0.1921
390.0686	0.1933
390.2753	0.2009
390.4819	0.1988
390.6885	0.1875
390.8951	0.1939
391.1016	0.186
391.3082	0.1876
391.5147	0.2011
391.7213	0.1985
391.9278	0.2
392.1343	0.1904
392.3408	0.1916
392.5473	0.182
392.7537	0.1708
392.9602	0.1849
393.1666	0.187
393.373	0.1951
393.5794	0.2032
393.7858	0.1927
393.9922	0.1843
394.1986	0.1875
394.4049	0.1823
394.6113	0.1674
394.8176	0.1661
395.0239	0.1784
395.2302	0.1718
395.4365	0.1713
395.6428	0.1962
395.8491	0.1677
396.0553	0.1828
396.2615	0.1677
396.4678	0.1764
396.674	0.1517
396.8802	0.172
397.0863	0.1862
397.2925	0.1711
397.4987	0.1738
397.7048	0.1768
397.9109	0.1728
398.117	0.1755
398.3231	0.1697
398.5292	0.162
398.7353	0.1727
398.9413	0.1762
399.1474	0.1721
399.3534	0.1636
399.5594	0.1586
399.7654	0.1801
399.9714	0.1591
400.1774	0.1595
400.3833	0.1508
400.5893	0.1715
400.7952	0.1824
401.0011	0.1791
401.207	0.1742
401.4129	0.1695
401.6188	0.1741
401.8247	0.1648
402.0305	0.1596
402.2364	0.163
402.4422	0.1702
402.648	0.1774
402.8538	0.1787
403.0596	0.1524
403.2654	0.1741
403.4711	0.1613
403.6768	0.1739
403.8826	0.1886
404.0883	0.1713
404.294	0.171
404.4997	0.1814
404.7054	0.1667
404.911	0.1556
405.1167	0.1701
405.3223	0.1752
405.5279	0.174
405.7335	0.1714
405.9391	0.1624
406.1447	0.1866
406.3502	0.1666
406.5558	0.148
406.7613	0.1741
406.9668	0.172
407.1724	0.1508
407.3778	0.1646
407.5833	0.1485
407.7888	0.1503
407.9942	0.1855
408.1997	0.1628
408.4051	0.1663
408.6105	0.1727
408.8159	0.1633
409.0213	0.1521
409.2267	0.1792
409.432	0.1499
409.6374	0.1718
409.8427	0.1525
410.048	0.1556
410.2533	0.1521
410.4586	0.1615
410.6639	0.1641
410.8691	0.1523
411.0744	0.1492
411.2796	0.1461
411.4848	0.1503
411.69	0.1586
411.8952	0.1794
412.1004	0.1411
412.3056	0.153
412.5107	0.1257
412.7158	0.1779
412.921	0.1587
413.1261	0.1586
413.3312	0.1497
413.5362	0.152
413.7413	0.1481
413.9464	0.1533
414.1514	0.1551
414.3564	0.1405
414.5614	0.1449
414.7664	0.1609
414.9714	0.1708
415.1764	0.1477
415.3813	0.1707
415.5863	0.1504
415.7912	0.1746
415.9961	0.1442
416.201	0.1535
416.4059	0.1626
416.6108	0.1327
416.8156	0.141
417.0205	0.1428
417.2253	0.1546
417.4301	0.1434
417.6349	0.1366
417.8397	0.1616
418.0445	0.1504
418.2492	0.1672
418.454	0.1648
418.6587	0.1482
418.8634	0.165
419.0681	0.1428
419.2728	0.1301
419.4775	0.1574
419.6822	0.1255
419.8868	0.1416
420.0915	0.1424
420.2961	0.1394
420.5007	0.1229
420.7053	0.1533
420.9099	0.147
421.1144	0.1358
421.319	0.1262
421.5235	0.1489
421.728	0.1458
421.9325	0.141
422.137	0.1457
422.3415	0.1492
422.546	0.1482
422.7504	0.1394
422.9549	0.1436
423.1593	0.1483
423.3637	0.144
423.5681	0.1485
423.7725	0.1283
423.9769	0.1316
424.1812	0.119
424.3856	0.1283
424.5899	0.143
424.7942	0.1442
424.9985	0.1458
425.2028	0.128
425.4071	0.1547
425.6113	0.1277
425.8156	0.1372
426.0198	0.1265
426.224	0.1192
426.4282	0.1323
426.6324	0.1021
426.8366	0.1106
427.0407	0.1128
427.2449	0.1304
427.449	0.1224
427.6531	0.1003
427.8572	0.1048
428.0613	0.1156
428.2654	0.1293
428.4694	0.1064
428.6735	0.1102
428.8775	0.125
429.0815	0.1191
429.2855	0.099
429.4895	0.1072
429.6935	0.1175
429.8975	0.1141
430.1014	0.1084
430.3053	0.0848
430.5093	0.1163
430.7132	0.102
430.9171	0.1012
431.1209	0.1162
431.3248	0.1022
431.5286	0.0887
431.7325	0.1109
431.9363	0.0976
432.1401	0.1175
432.3439	0.088
432.5477	0.0927
432.7514	0.0723
432.9552	0.0919
433.1589	0.0786
433.3627	0.0869
433.5664	0.0842
433.7701	0.092
433.9737	0.0867
434.1774	0.0825
434.3811	0.0774
434.5847	0.1029
434.7883	0.077
434.9919	0.0915
435.1955	0.0733
435.3991	0.0874
435.6027	0.0793
435.8062	0.0734
436.0098	0.0862
436.2133	0.0709
436.4168	0.08
436.6203	0.0561
436.8238	0.0892
437.0272	0.0682
437.2307	0.0811
437.4341	0.0659
437.6375	0.0738
437.841	0.0585
438.0443	0.0749
438.2477	0.0738
438.4511	0.0581
438.6545	0.071
438.8578	0.0649
439.0611	0.0601
439.2644	0.059
439.4677	0.0593
439.671	0.0694
439.8743	0.0572
440.0775	0.0691
440.2808	0.0538
440.484	0.0506
440.6872	0.0403
440.8904	0.0444
441.0936	0.0654
441.2967	0.0512
441.4999	0.0586
441.703	0.0323
441.9062	0.0481
442.1093	0.0457
442.3124	0.0491
442.5155	0.0379
442.7185	0.0326
442.9216	0.0236
443.1246	0.0474
443.3276	0.0422
443.5307	0.0452
443.7337	0.0474
443.9366	0.0383
444.1396	0.0364
444.3426	0.0446
444.5455	0.0409
444.7484	0.0236
444.9513	0.0422
445.1542	0.0443
445.3571	0.0289
445.56	0.0372
445.7628	0.0207
445.9657	0.0405
446.1685	0.0404
446.3713	0.0316
446.5741	0.0324
446.7769	0.0278
446.9797	0.0379
447.1824	0.0346
447.3852	0.0249
447.5879	0.0369
447.7906	0.0375
447.9933	0.0362
448.196	0.0148
448.3986	0.0242
448.6013	0.0107
448.8039	0.0135
449.0066	0.0133
449.2092	0.0274
449.4118	0.0237
449.6143	0.0255
449.8169	0.0263
450.0195	0.0161
450.222	0.0061
450.4245	0.0147
450.627	0.0278
450.8295	0.0147
451.032	0.0143
451.2345	0.0156
451.4369	0.0242
451.6394	0.0224
451.8418	0.0033
452.0442	0.0165
452.2466	0.0268
452.449	0.0059
452.6513	0.0182
452.8537	0.003
453.056	-0.0082
453.2583	0.0037
453.4607	0.0106
453.663	0.0071
453.8652	0.0194
454.0675	-0.001
454.2697	0.0188
454.472	-0.0025
454.6742	0.0108
454.8764	-0.0008
455.0786	0.0231
455.2808	0.0135
455.4829	0.0062
455.6851	0.005
455.8872	0.0136
456.0893	0.0139
456.2915	-0.0058
456.4935	0.009
456.6956	0.0042
456.8977	0.0171
457.0997	-0.0074
457.3018	-0.0128
457.5038	0.0042
457.7058	-0.0043
457.9078	0.0077
458.1098	0.0033
458.3117	0.0196
458.5137	0.006
458.7156	0.0171
458.9175	-0.0068
459.1194	0.011
459.3213	-0.0007
459.5232	0.0053
459.725	-0.0241
459.9269	-0.0115
460.1287	-0.0025
460.3305	0.0022
460.5323	-0.0029
460.7341	0.007
460.9359	0.0127
461.1376	0.0064
461.3394	0.0073
461.5411	0.0019
461.7428	0.0027
461.9445	0.0041
462.1462	0.0155
462.3479	-0.0053
462.5495	0.0018
462.7512	-0.0017
462.9528	0.0051
463.1544	-0.0148
463.356	-0.0076
463.5576	0.0044
463.7592	-0.0093
463.9607	0.0011
464.1623	0.017
464.3638	0.0152
464.5653	-0.0099
464.7668	-0.0016
464.9683	0.0087
465.1697	0.0119
465.3712	-0.004
465.5726	-0.0076
465.7741	0.0028
465.9755	-0.006
466.1769	-0.0151
466.3782	-0.0156
466.5796	-0.0048
466.7809	0.0139
466.9823	-0.0065
467.1836	-0.003
467.3849	0.0076
467.5862	0.0078
467.7875	-0.001
467.9887	0.0093
468.19	0.0122
468.3912	-0.0138
468.5924	-0.0157
468.7936	0.0085
468.9948	-0.011
469.196	-0.0042
469.3972	-0.0132
469.5983	-0.0016
469.7994	-0.0074
470.0006	0.005
470.2017	-0.0047
470.4027	-0.0105
470.6038	-0.007
470.8049	-0.0165
471.0059	-0.016
471.2069	-0.0244
471.408	0.0147
471.6089	-0.0013
471.8099	-0.008
472.0109	-0.01
472.2119	-0.0105
472.4128	-0.0244
472.6137	-0.0086
472.8146	-0.0214
473.0155	0.0031
473.2164	-0.0203
473.4173	0.0067
473.6181	0.0012
473.819	-0.0023
474.0198	-0.0221
474.2206	-0.0073
474.4214	-0.015
474.6222	-0.0091
474.8229	-0.0068
475.0237	-0.016
475.2244	-0.0139
475.4251	-0.002
475.6258	-0.007
475.8265	0.0029
476.0272	0.0061
476.2278	-0.0043
476.4285	-0.0097
476.6291	-0.0103
476.8297	-0.0084
477.0303	-0.0079
477.2309	-0.0144
477.4315	-0.0214
477.632	-0.0104
477.8326	-0.0141
478.0331	-0.0026
478.2336	0.0028
478.4341	-0.0102
478.6346	-0.0148
478.8351	-0.0063
479.0355	-0.0063
479.236	-0.0127
479.4364	-0.0013
479.6368	-0.0001
479.8372	-0.0116
480.0376	-0.004
480.2379	-0.0192
480.4383	-0.0098
480.6386	0
480.8389	-0.0077
481.0392	-0.0099
481.2395	-0.0075
481.4398	0.0077
481.6401	0.0043
481.8403	-0.0016
482.0405	-0.0048
482.2408	-0.0028
482.441	0.0075
482.6411	-0.0052
482.8413	-0.0088
483.0415	-0.0171
483.2416	-0.0082
483.4417	-0.0035
483.6419	-0.0139
483.8419	-0.0077
484.042	0.0056
484.2421	-0.0081
484.4422	0.0009
484.6422	-0.0071
484.8422	0.0037
485.0422	0.0038
485.2422	0.0086
485.4422	-0.0166
485.6422	-0.0124
485.8421	-0.0016
486.042	-0.0031
486.242	-0.0058
486.4419	-0.0083
486.6417	-0.0099
486.8416	0.0039
487.0415	-0.0086
487.2413	-0.0046
487.4411	-0.0062
487.641	-0.0199
487.8408	0.007
488.0405	-0.0093
488.2403	-0.0115
488.4401	-0.0051
488.6398	-0.0141
488.8395	-0.0057
489.0392	-0.0158
489.2389	-0.007
489.4386	-0.0134
489.6383	-0.0125
489.8379	-0.0011
490.0376	-0.006
490.2372	-0.0088
490.4368	-0.02
490.6364	0.0012
490.836	-0.0105
491.0355	-0.0023
491.2351	-0.0073
491.4346	-0.0107
491.6341	-0.0153
491.8336	-0.0087
492.0331	-0.0104
492.2326	-0.0104
492.432	-0.002
492.6315	-0.0059
492.8309	-0.0091
493.0303	-0.0175
493.2297	-0.0111
493.4291	-0.0085
493.6284	-0.0058
493.8278	-0.0102
494.0271	-0.0017
494.2264	0.0013
494.4257	-0.0178
494.625	-0.0081
494.8243	-0.0181
495.0236	-0.0225
495.2228	-0.0147
495.422	-0.0155
495.6213	-0.0015
495.8205	0.0001
496.0196	-0.0116
496.2188	-0.0007
496.418	-0.0232
496.6171	-0.0111
496.8162	-0.0167
497.0153	-0.0117
497.2144	-0.0153
497.4135	-0.0092
497.6126	-0.0163
497.8116	-0.0236
498.0107	-0.0007
498.2097	-0.0241
498.4087	-0.018
498.6077	-0.0025
498.8067	0.0002
499.0056	-0.0085
499.2046	-0.0118
499.4035	-0.0263
499.6024	-0.0112
499.8013	-0.0031
500.0002	-0.0139
500.199	-0.0068
500.3979	-0.0072
500.5967	-0.0287
500.7956	-0.0147
500.9944	-0.001
501.1932	-0.0253
501.3919	-0.0075
501.5907	-0.0115
501.7895	-0.0104
501.9882	-0.0097
502.1869	-0.0112
502.3856	-0.0158
502.5843	-0.0161
502.783	-0.0075
502.9816	-0.0115
503.1803	-0.0181
503.3789	-0.0078
503.5775	-0.0018
503.7761	-0.0169
503.9747	-0.0116
504.1732	-0.0122
504.3718	-0.0054
504.5703	-0.0201
504.7689	-0.0081
504.9674	-0.0107
505.1658	-0.0169
505.3643	-0.0048
505.5628	-0.0081
505.7612	-0.0039
505.9597	0.0077
506.1581	-0.001
506.3565	-0.0035
506.5549	-0.0022
506.7532	-0.0292
506.9516	0.0009
507.1499	-0.0067
507.3482	-0.0162
507.5465	-0.0095
507.7448	-0.0011
507.9431	-0.0084
508.1414	-0.0029
508.3396	-0.0055
508.5379	-0.0016
508.7361	-0.0171
508.9343	-0.0071
509.1325	0.0083
509.3306	-0.0127
509.5288	-0.0057
509.7269	-0.0163
509.9251	-0.012
510.1232	-0.0148
510.3213	-0.0061
510.5193	-0.0004
510.7174	-0.0184
510.9154	-0.0136
511.1135	-0.0139
511.3115	-0.0094
511.5095	0.0013
511.7075	-0.009
511.9055	-0.001
512.1034	-0.0131
512.3014	-0.01
512.4993	-0.0074
512.6972	-0.0073
512.8951	-0.0142
513.093	-0.009
513.2908	0.0025
513.4887	-0.0076
513.6865	-0.0082
513.8844	-0.0133
514.0822	-0.0167
514.2799	-0.0168
514.4777	-0.017
514.6755	-0.0227
514.8732	-0.0088
515.0709	-0.0081
515.2687	-0.0196
515.4664	-0.0019
515.664	-0.0081
515.8617	-0.0114
516.0594	-0.0118
516.257	-0.0076
516.4546	-0.0179
516.6522	-0.0086
516.8498	-0.007
517.0474	0.0033
517.2449	0.0003
517.4425	-0.0146
517.64	-0.0097
517.8375	-0.0028
518.035	-0.0106
518.2325	-0.0102
518.43	-0.0178
518.6274	-0.012
518.8249	-0.0175
519.0223	-0.0039
519.2197	-0.0044
519.4171	-0.0127
519.6145	-0.0097
519.8118	-0.0026
520.0092	-0.0063
520.2065	-0.0062
520.4038	-0.0176
520.6011	-0.0086
520.7984	-0.0068
520.9956	-0.0097
521.1929	-0.0187
521.3901	0.0001
521.5874	-0.0074
521.7846	-0.0099
521.9818	-0.0122
522.1789	-0.0075
522.3761	-0.0027
522.5732	-0.008
522.7704	-0.0095
522.9675	-0.0068
523.1646	-0.0144
523.3617	0.0011
523.5587	-0.0111
523.7558	-0.0036
523.9528	-0.0154
524.1498	-0.0076
524.3468	-0.0008
524.5438	-0.0186
524.7408	0.0066
524.9378	-0.0007
525.1347	-0.0081
525.3316	0.0035
525.5285	-0.0163
525.7254	-0.0025
525.9223	-0.0063
526.1192	0.0007
526.316	-0.0139
526.5129	0.0004
526.7097	0.0039
526.9065	-0.0033
527.1033	-0.0118
527.3	-0.0092
527.4968	-0.0102
527.6935	-0.0028
527.8903	-0.0189
528.087	-0.0061
528.2837	-0.0013
528.4804	-0.0002
528.677	-0.0044
528.8737	-0.0011
529.0703	-0.0031
529.2669	-0.0039
529.4635	-0.0079
529.6601	-0.0003
529.8567	-0.0117
530.0532	-0.0082
530.2498	0.0068
530.4463	-0.0005
530.6428	-0.0064
530.8393	0.0055
531.0358	-0.0078
531.2322	-0.0064
531.4287	-0.0097
531.6251	-0.007
531.8215	0.0045
532.0179	-0.0039
532.2143	-0.0019
532.4107	0.0017
532.607	0.0027
532.8034	-0.0056
532.9997	-0.0019
533.196	0.0017
533.3923	-0.0158
533.5886	-0.0079
533.7848	-0.0062
533.9811	0.0015
534.1773	0.0054
534.3735	0.0096
534.5697	-0.0063
534.7659	-0.0057
534.9621	-0.0113
535.1582	-0.0182
535.3544	-0.014
535.5505	-0.0155
535.7466	-0.0085
535.9427	-0.0089
536.1387	-0.0044
536.3348	-0.0093
536.5308	-0.0057
536.7269	-0.0182
536.9229	-0.0026
537.1189	-0.0031
537.3148	-0.0073
537.5108	-0.0055
537.7068	0.0004
537.9027	0.0003
538.0986	-0.0053
538.2945	-0.0099
538.4904	-0.006
538.6863	-0.0094
538.8821	-0.004
539.078	-0.0102
539.2738	-0.0056
539.4696	-0.0092
539.6654	-0.0007
539.8611	0.0077
540.0569	-0.0003
540.2526	-0.0073
540.4484	-0.0115
540.6441	0.006
540.8398	0.0047
541.0355	-0.0037
541.2311	-0.0051
541.4268	-0.0091
541.6224	0.0002
541.818	0.0005
542.0136	-0.0088
542.2092	-0.0011
542.4048	0.0066
542.6003	0.0006
542.7959	-0.001
542.9914	-0.0063
543.1869	0
543.3824	0.0017
543.5779	-0.0027
543.7734	-0.0122
543.9688	-0.0077
544.1642	0.0114
544.3596	-0.0023
544.555	-0.0041
544.7504	0.0006
544.9458	-0.0001
545.1411	-0.0041
545.3365	-0.0112
545.5318	-0.014
545.7271	-0.0041
545.9224	-0.0101
546.1177	-0.0059
546.3129	0.0054
546.5081	-0.011
546.7034	-0.0107
546.8986	-0.0104
547.0938	-0.0137
547.289	-0.01
547.4841	0.0006
547.6793	0.0055
547.8744	-0.0086
548.0695	-0.0088
548.2646	-0.0049
548.4597	0.0045
548.6548	0.0001
548.8498	-0.0093
549.0448	0.0016
549.2399	-0.009
549.4349	0.0013
549.6298	-0.007
549.8248	0.0028
550.0198	-0.0027
550.2147	-0.0076
550.4096	-0.0058
550.6045	-0.009
550.7994	0.0045
550.9943	-0.0017
551.1892	-0.0025
551.384	0.0079
551.5788	-0.0025
551.7737	-0.0004
551.9685	0.0015
552.1632	0.0032
552.358	-0.0061
552.5528	0
552.7475	-0.0091
552.9422	-0.0022
553.1369	-0.0006
553.3316	-0.0053
553.5263	-0.0067
553.7209	-0.0015
553.9156	-0.0011
554.1102	-0.0083
554.3048	-0.0022
554.4994	0.0029
554.694	-0.0021
554.8885	0.0068
555.0831	-0.0006
555.2776	-0.0067
555.4721	-0.0026
555.6666	0.0009
555.8611	0.0147
556.0555	-0.0004
556.25	-0.0004
556.4444	-0.011
556.6388	-0.0028
556.8332	-0.0032
557.0276	-0.0026
557.222	-0.0054
557.4163	-0.003
557.6107	-0.0035
557.805	0.0019
557.9993	-0.0144
558.1936	0.0007
558.3879	0.009
558.5821	-0.0025
558.7764	0.0135
558.9706	-0.002
559.1648	-0.004
559.359	-0.0059
559.5532	-0.0027
559.7473	0.0056
559.9415	-0.002
560.1356	0.0008
560.3297	-0.0134
560.5238	-0.0004
560.7179	-0.0039
560.9119	-0.006
561.106	-0.0053
561.3	-0.0091
561.494	-0.0051
561.688	0.0019
561.882	-0.0102
562.076	-0.009
562.2699	0.0042
562.4639	-0.0051
562.6578	0.0048
562.8517	-0.0003
563.0456	-0.0002
563.2395	0.0015
563.4333	0.0002
563.6272	0.009
563.821	-0.0009
564.0148	-0.0014
564.2086	-0.0063
564.4024	-0.0064
564.5961	-0.0097
564.7899	0.0075
564.9836	-0.0095
565.1773	-0.0028
565.371	0.0027
565.5647	0.0061
565.7584	0.0016
565.952	0.0054
566.1456	0.01
566.3393	-0.003
566.5329	-0.0097
566.7264	-0.0069
566.92	-0.0054
567.1136	-0.001
567.3071	-0.0068
567.5006	-0.0036
567.6941	0.0009
567.8876	-0.0092
568.0811	-0.0073
568.2745	0.0084
568.468	0.0012
568.6614	0.0059
568.8548	0.0068
569.0482	-0.0042
569.2416	0.0015
569.4349	-0.0028
569.6283	-0.0008
569.8216	0.0003
570.0149	-0.0029
570.2082	0.0022
570.4015	0.0036
570.5947	-0.0017
570.788	0.0037
570.9812	0.0018
571.1744	-0.0024
571.3676	-0.0078
571.5608	-0.0068
571.754	-0.0025
571.9471	0.0026
572.1402	-0.0017
572.3333	-0.004
572.5264	-0.0074
572.7195	0.0005
572.9126	0.0038
573.1057	-0.0079
573.2987	-0.0004
573.4917	-0.0042
573.6847	-0.0118
573.8777	0.0038
574.0707	0.0014
574.2636	-0.0096
574.4566	-0.0054
574.6495	0.0058
574.8424	-0.0046
575.0353	-0.0048
575.2281	0.0068
575.421	0.0054
575.6138	0.0041
575.8067	-0.0008
575.9995	0.0041
576.1923	0.0021
576.385	0.0024
576.5778	-0.0086
576.7706	0.0004
576.9633	-0.0042
577.156	-0.0008
577.3487	-0.0013
577.5414	-0.0047
577.734	-0.0069
577.9267	-0.0023
578.1193	-0.0175
578.3119	-0.0092
578.5045	-0.0049
578.6971	-0.0035
578.8897	0.005
579.0822	-0.0004
579.2747	0.0041
579.4673	0.0016
579.6598	-0.011
579.8522	0.0009
580.0447	-0.0062
580.2372	-0.0068
580.4296	0.0014
580.622	-0.0034
580.8144	-0.0072
581.0068	-0.0027
581.1992	-0.0206
581.3915	-0.0077
581.5839	-0.0073
581.7762	-0.0072
581.9685	-0.0047
582.1608	0.0012
582.353	-0.0061
582.5453	-0.0033
582.7375	0
582.9298	0.0003
583.122	-0.0017
583.3142	-0.0014
583.5063	0.0014
583.6985	-0.0078
583.8906	-0.0058
584.0827	-0.01
584.2749	0.0059
584.4669	-0.0031
584.659	0.0028
584.8511	0.0039
585.0431	-0.0059
585.2352	-0.0066
585.4272	-0.0062
585.6192	-0.0011
585.8111	0.0016
586.0031	0.0001
586.195	-0
586.387	0.0068
586.5789	-0.004
586.7708	-0.001
586.9627	-0.0007
587.1545	-0.0049
587.3464	-0.0033
587.5382	0.004
587.73	0.001
587.9218	0.0071
588.1136	-0.0026
588.3053	0.0041
588.4971	-0.0092
588.6888	-0.0148
588.8805	-0.0011
589.0722	0.0052
589.2639	0.0003
589.4556	0.0001
589.6472	-0.0015
589.8389	-0.0056
590.0305	-0.0099
590.2221	0.0011
590.4137	-0.0093
590.6052	0.0054
590.7968	-0.006
590.9883	0.0016
591.1798	-0.0007
591.3713	-0.0051
591.5628	0.0027
591.7543	0.0016
591.9458	-0.0004
592.1372	0.01
592.3286	0.0042
592.52	0.0071
592.7114	-0.0016
592.9028	-0.0073
593.0941	-0.0025
593.2855	0.0011
593.4768	-0.0109
593.6681	-0.0119
593.8594	0.0005
594.0506	-0.0026
594.2419	0.0065
594.4331	-0.001
594.6244	0.0038
594.8156	-0.0083
595.0067	-0.0003
595.1979	0.0054
595.3891	0.0029
595.5802	-0.0002
595.7713	-0.0039
595.9624	-0.0046
596.1535	0.0052
596.3446	0.0045
596.5357	0.0047
596.7267	0.0067
596.9177	0.0016
597.1087	0.0016
597.2997	-0.0047
597.4907	0.0022
597.6817	-0
597.8726	-0.0025
598.0635	-0.0018
598.2544	0.0025
598.4453	0.0023
598.6362	-0.0018
598.827	-0.0042
599.0179	0.0093
599.2087	0.006
599.3995	0.003
599.5903	0.0063
599.7811	-0.0047
599.9718	0.0019
600.1626	-0.0003
600.3533	-0.0003
600.544	0.0094
600.7347	-0.0033
600.9254	-0.0005
601.116	-0.0045
601.3067	0.0058
601.4973	-0.0005
601.6879	0.0039
601.8785	0.0009
602.0691	-0.0007
602.2596	0.0076
602.4502	0.0068
602.6407	0.0056
602.8312	0.0054
603.0217	-0.0008
603.2122	0.003
603.4027	0.0038
603.5931	-0.0008
603.7835	-0.0013
603.9739	0.002
604.1643	0.0018
604.3547	-0.0066
604.5451	0.0115
604.7354	0.0035
604.9257	0.0043
605.116	-0.0066
605.3063	0.007
605.4966	0.0028
605.6869	0.0084
605.8771	0.0018
606.0673	0.0032
606.2575	0.0021
606.4477	0.0067
606.6379	0.0051
606.8281	-0.0025
607.0182	-0.0031
607.2083	0.0049
607.3985	-0.0045
607.5885	-0.0004
607.7786	0.0015
607.9687	-0.0065
608.1587	0.0036
608.3488	-0.0016
608.5388	-0.0027
608.7288	-0.0047
608.9187	-0.0018
609.1087	-0.004
609.2986	-0.011
609.4886	0.0015
609.6785	-0.0022
609.8684	-0.0009
610.0582	0.0052
610.2481	0.0043
610.4379	-0.0015
610.6278	-0.0096
610.8176	-0.0095
611.0074	-0.0075
611.1971	-0.0044
611.3869	-0.009
611.5766	-0.0057
611.7664	-0.0008
611.9561	0.004
612.1458	0.0025
612.3354	-0.0026
612.5251	-0.0023
612.7147	-0.0009
612.9044	0.0085
613.094	-0.01
613.2836	0
613.4731	-0.0085
613.6627	-0.0069
613.8522	-0.0023
614.0417	0.005
614.2313	-0.0048
614.4207	-0.0032
614.6102	-0.0029
614.7997	-0.0083
614.9891	-0.0051
615.1785	-0.0061
615.3679	-0.0034
615.5573	0.011
615.7467	-0.0055
615.9361	-0.0006
616.1254	-0.001
616.3147	-0.0003
616.504	0.0027
616.6933	-0.002
616.8826	-0.0013
617.0718	0.0024
617.2611	0.0017
617.4503	0.0012
617.6395	-0.0018
617.8287	-0.0013
618.0179	-0.0123
618.207	0.0051
618.3961	-0.0062
618.5853	-0.0002
618.7744	0.0007
618.9634	0.0051
619.1525	0.0028
619.3416	0.0014
619.5306	0.0046
619.7196	0.0064
619.9086	0.0033
620.0976	-0.002
620.2866	-0.0032
620.4755	0.0004
620.6645	0.0025
620.8534	0.0043
621.0423	0.007
621.2312	0.0087
621.42	0.0022
621.6089	-0.0031
621.7977	0.0011
621.9865	-0.0055
622.1753	0.0033
622.3641	0.0075
622.5529	0.0005
622.7416	0.0087
622.9303	-0.0047
623.1191	-0.0001
623.3078	-0.0048
623.4964	0.003
623.6851	-0.0054
623.8737	-0.0057
624.0624	0.003
624.251	-0.0002
624.4396	-0.0021
624.6282	-0.009
624.8167	0.0006
625.0053	-0.0043
625.1938	0.0002
625.3823	0.0049
625.5708	0.0026
625.7593	-0.0028
625.9477	-0.005
626.1362	-0.0043
626.3246	-0.0004
626.513	0.0105
626.7014	0.012
626.8898	0.0029
627.0781	0.0008
627.2665	0.0039
627.4548	0.0073
627.6431	0.0035
627.8314	0.0067
628.0197	0.0101
628.2079	-0.0053
628.3962	-0.005
628.5844	0.0052
628.7726	0.0069
628.9608	0.0062
629.1489	0.0014
629.3371	0.0092
629.5252	-0.004
629.7134	0.0077
629.9015	-0.0029
630.0895	0.0011
630.2776	0.0073
630.4657	0.0042
630.6537	0.0116
630.8417	0.0035
631.0297	-0.0062
631.2177	-0.0056
631.4057	-0.0047
631.5936	0.0002
631.7815	0.0042
631.9695	0.0039
632.1574	0.0066
632.3452	0.0074
632.5331	-0.0024
632.7209	0.0041
632.9088	0.0066
633.0966	0.0025
633.2844	-0.0052
633.4722	-0.0009
633.6599	0.0105
633.8477	0.0093
634.0354	0.0065
634.2231	0.0033
634.4108	-0.0015
634.5985	0.0121
634.7861	0.0025
634.9738	0.0042
635.1614	0.0013
635.349	-0.0033
635.5366	-0.0012
635.7242	-0.0056
635.9117	0.0023
636.0993	-0.0055
636.2868	0.0034
636.4743	-0.0018
636.6618	0.0083
636.8492	0.0018
637.0367	0.0049
637.2241	-0.0013
637.4115	0.0003
637.5989	-0.0011
637.7863	-0.0028
637.9737	-0.0029
638.161	0.0038
638.3484	-0.0021
638.5357	0.0039
638.723	0.0056
638.9103	0.0028
639.0975	0.0091
639.2848	0.0042
639.472	0.0019
639.6592	0.0093
639.8464	0.0107
640.0336	0.0084
640.2208	0.0001
640.4079	-0.0018
640.595	0.0054
640.7821	0.0021
640.9692	-0.0004
641.1563	0.0084
641.3434	0.008
641.5304	-0.003
641.7174	-0.0028
641.9044	-0.0024
642.0914	0.0064
642.2784	0.0016
642.4653	0.0165
642.6523	-0.0017
642.8392	-0.002
643.0261	0.0024
643.213	0.006
643.3999	-0.0044
643.5867	0.0023
643.7735	0.0054
643.9604	-0.0001
644.1472	-0.0026
644.3339	0.0071
644.5207	-0.0002
644.7075	0.0082
644.8942	0.0106
645.0809	0.0081
645.2676	0.01
645.4543	0.0055
645.6409	0.0116
645.8276	0.0046
646.0142	0.0071
646.2008	-0.0016
646.3874	-0.0003
646.574	0.006
646.7605	0.0013
646.9471	-0.006
647.1336	0.0023
647.3201	0.0057
647.5066	-0.0003
647.6931	0.0068
647.8795	0.007
648.0659	0.0061
648.2524	0.004
648.4388	0.0023
648.6252	-0.0014
648.8115	0.0006
648.9979	-0.0031
649.1842	-0.001
649.3705	0.0038
649.5568	0.0016
649.7431	0.0082
649.9294	0.0001
650.1156	0.01
650.3018	0.0024
650.488	0.0094
650.6742	0.0081
650.8604	-0.0026
651.0466	-0.0033
651.2327	0.0021
651.4188	0.0007
651.6049	0.0024
651.791	0.0017
651.9771	0.0036
652.1632	0.0068
652.3492	0.0073
652.5352	0.005
652.7212	0.0004
652.9072	0.0002
653.0932	-0.0013
653.2791	-0.003
653.465	-0.0012
653.651	-0.0067
653.8369	-0.0016
654.0227	0.0053
654.2086	0.0072
654.3944	0.0026
654.5803	0.0033
654.7661	-0.0031
654.9519	0.0063
655.1377	-0.0003
655.3234	-0.0023
655.5092	-0.0038
655.6949	-0.0075
655.8806	-0.0065
656.0663	-0.0021
656.2519	-0.0056
656.4376	-0.0049
656.6232	0.0035
656.8088	0.0048
656.9945	-0.0006
657.18	-0.0006
657.3656	0.0053
657.5511	-0.0013
657.7367	-0.0052
657.9222	0.0011
658.1077	-0.0036
658.2932	0.0104
658.4786	-0.0021
658.6641	0.0025
658.8495	-0.0019
659.0349	-0.0008
659.2203	0.0106
659.4057	0.0043
659.591	0.0093
659.7764	0.0068
659.9617	0.0035
660.147	0.0048
660.3323	0.0077
660.5176	0.0086
660.7028	0.0144
660.888	0.0009
661.0733	0.0078
661.2585	-0.0059
661.4436	0.003
661.6288	-0.0006
661.8139	-0.0017
661.9991	0.006
662.1842	0.0031
662.3693	0.001
662.5544	0.0064
662.7394	0.0036
662.9245	-0.0019
663.1095	-0.0002
663.2945	0.0011
663.4795	-0.0064
663.6644	0.0047
663.8494	-0.0083
664.0343	-0.0022
664.2193	-0.0051
664.4042	-0.0011
664.589	-0.0101
664.7739	-0.0025
664.9587	-0.0007
665.1436	-0.0032
665.3284	0.0062
665.5132	-0.0066
665.698	-0.0058
665.8827	0.0018
666.0675	0.0019
666.2522	0.0014
666.4369	0.0005
666.6216	0.0082
666.8063	0.007
666.9909	0.0056
667.1756	0.0015
667.3602	0.0041
667.5448	0.0008
667.7294	0.0049
667.9139	0.0025
668.0985	0.0089
668.283	-0.0016
668.4675	0
668.652	0.0001
668.8365	0.0021
669.0209	0.0034
669.2054	0.0109
669.3898	-0.0057
669.5742	0.0007
669.7586	0.0124
669.943	0.0122
670.1273	0.0081
670.3117	0.0091
670.496	0.0119
670.6803	0.0091
670.8646	0.0031
671.0488	0.0015
671.2331	0.0114
671.4173	0.009
671.6015	0.0023
671.7857	-0.0002
671.9699	0.009
672.1541	0.0076
672.3382	0.0103
672.5223	0.0086
672.7064	0.0101
672.8905	0.0049
673.0746	0.0134
673.2587	0.0041
673.4427	0.0052
673.6267	0.0056
673.8107	0.0131
673.9947	0.0099
674.1787	0.0061
674.3626	-0.0006
674.5465	0.0072
674.7304	0.0036
674.9143	0.0019
675.0982	0.0069
675.2821	-0.0069
675.4659	0.0081
675.6497	0.0027
675.8335	0.003
676.0173	0.0049
676.2011	0.003
676.3849	-0.0009
676.5686	-0.0045
676.7523	0.0014
676.936	-0.0011
677.1197	0.0008
677.3034	-0.0021
677.487	0.0038
677.6706	0.0012
677.8542	0.0049
678.0378	0.0043
678.2214	0.0032
678.405	0.0078
678.5885	0.0053
678.772	0.0034
678.9555	0.0016
679.139	0.0037
679.3225	0.0118
679.5059	0.001
679.6894	0.005
679.8728	0.0024
680.0562	-0.0017
680.2395	-0.0039
680.4229	0.0019
680.6062	0.0117
680.7896	0.0011
680.9729	-0.0007
681.1562	0.0085
681.3394	-0.0008
681.5227	-0.0026
681.7059	0.0009
681.8891	0.0017
682.0723	0.008
682.2555	0.0052
682.4387	-0.0023
682.6218	-0.0042
682.805	0.006
682.9881	0.0088
683.1712	0.0034
683.3542	0.0007
683.5373	0.0012
683.7203	-0.0048
683.9034	0.0037
684.0864	-0.007
684.2694	-0.004
684.4523	0.0019
684.6353	-0.0076
684.8182	0.0032
685.0011	-0.0044
685.184	0.0057
685.3669	-0.0039
685.5498	0.0069
685.7326	0.0048
685.9154	0.0019
686.0982	0.0039
686.281	0.0087
686.4638	0.0132
686.6465	0.0104
686.8293	0.0009
687.012	-0.0048
687.1947	-0.0023
687.3774	0.0034
687.56	-0.0025
687.7427	0.0009
687.9253	-0.0035
688.1079	0.0027
688.2905	0.0123
688.4731	0.0027
688.6556	-0.0046
688.8382	0.0012
689.0207	0.0035
689.2032	-0.0072
689.3857	-0.0058
689.5681	0.007
689.7506	-0.0027
689.933	-0.0017
690.1154	-0.0009
690.2978	0.0034
690.4802	0.0019
690.6626	-0.0078
690.8449	-0.0038
691.0272	0.0065
691.2095	-0.0044
691.3918	-0.0069
691.5741	0.0036
691.7563	0.0006
691.9386	-0.0004
692.1208	0
692.303	-0.0028
692.4852	0.002
692.6673	-0.0022
692.8495	-0.0025
693.0316	0.0037
693.2137	0.0009
693.3958	0.0033
693.5778	-0.0024
693.7599	0.0036
693.9419	0.0028
694.1239	0.0045
694.3059	-0.0004
694.4879	0.0087
694.6699	0.0109
694.8518	0.0026
695.0337	0.001
695.2157	0.0039
695.3975	-0.0012
695.5794	0.0036
695.7613	-0.001
695.9431	0.0047
696.1249	-0.0019
696.3067	0.0052
696.4885	0.0052
696.6703	-0.0041
696.852	0.0002
697.0337	0.0075
697.2154	0.007
697.3971	0.0035
697.5788	0.0036
697.7605	0.0047
697.9421	0.0067
698.1237	-0.002
698.3053	-0.0042
698.4869	-0.0023
698.6685	-0.0084
698.85	-0.0017
699.0315	0.0146
699.213	0.001
699.3945	0.0007
699.576	0.0085
699.7575	0.0108
699.9389	0.0075
700.1203	0.001
700.3017	-0.0046
700.4831	-0.0098
700.6645	-0.0075
700.8458	-0.0031
701.0271	-0.007
701.2084	0.0016
701.3897	-0.0005
701.571	0.0018
701.7523	-0.0109
701.9335	-0.0029
702.1147	-0.0079
702.2959	0.0087
702.4771	0
702.6583	0.0014
702.8394	-0.0046
703.0205	-0.002
703.2016	-0.0043
703.3827	0.0035
703.5638	0.0105
703.7449	0.0048
703.9259	0.0037
704.1069	-0.0045
704.2879	-0.0018
704.4689	0.0056
704.6499	0.0042
704.8308	-0.0033
705.0117	-0.0044
705.1927	0.0081
705.3735	-0.0027
705.5544	-0.001
705.7353	-0.0039
705.9161	-0.0081
706.0969	-0.0027
706.2777	-0.0018
706.4585	-0.004
706.6393	0.0026
706.82	-0.0049
707.0007	0.0046
707.1815	0.0046
707.3621	0.0106
707.5428	0.0101
707.7235	0.0032
707.9041	0.0062
708.0847	-0.0047
708.2653	0.0035
708.4459	-0.0058
708.6265	-0.0025
708.807	-0.0038
708.9875	-0.0052
709.168	0.0015
709.3485	-0.0008
709.529	-0.0005
709.7095	-0.0028
709.8899	0.0028
710.0703	0.0003
710.2507	-0.0003
710.4311	-0.0006
710.6115	-0.008
710.7918	-0.0048
710.9721	-0.0017
711.1524	-0.0069
711.3327	0.0023
711.513	-0.0026
711.6932	-0.0059
711.8735	0.0055
712.0537	0.0004
712.2339	-0.0045
712.4141	-0.0124
712.5942	-0.0081
712.7744	0.0004
712.9545	-0.0088
713.1346	-0.0061
713.3147	0.0024
713.4947	-0.0049
713.6748	-0.0036
713.8548	-0.004
714.0348	0.0026
714.2148	0.0059
714.3948	0.0108
714.5748	-0.0026
714.7547	0.0049
714.9346	0.0119
715.1145	0.005
715.2944	0.0016
715.4743	-0.0001
715.6541	0.0043
715.834	0.0123
716.0138	0.0002
716.1936	-0.0042
716.3733	-0.0042
716.5531	0.0059
716.7328	0
716.9126	-0.0105
717.0923	0.0066
717.2719	-0.0025
717.4516	0.0006
717.6312	0.0015
717.8109	-0.0052
717.9905	0.0031
718.1701	-0.0014
718.3496	-0.0044
718.5292	-0.0001
718.7087	0.0008
718.8882	-0.0049
719.0677	0.0083
719.2472	0.0045
719.4267	0.0031
719.6061	0.0052
719.7856	0.0074
719.965	0.0105
720.1443	-0.002
720.3237	0.0125
720.5031	0.0044
720.6824	0.0081
720.8617	0.0005
721.041	0.0033
721.2203	0.0065
721.3995	0.0013
721.5788	0.0062
721.758	0.0054
721.9372	-0.0021
722.1164	0.005
722.2956	0.0044
722.4747	0.0035
722.6538	-0.0044
722.8329	0.0148
723.012	-0.0024
723.1911	-0.0012
723.3702	-0.0113
723.5492	0.0009
723.7282	-0.0094
723.9072	-0.0011
724.0862	-0.008
724.2652	0.0099
724.4441	0.0003
724.623	0.0012
724.8019	-0.0005
724.9808	0.0018
725.1597	-0.0141
725.3385	0.0023
725.5174	-0.0042
725.6962	-0.0002
725.875	0.0112
726.0538	0.0048
726.2325	0.0093
726.4112	0.0135
726.59	-0.0058
726.7687	-0.0007
726.9474	0.0029
727.126	-0.0025
727.3047	-0.0006
727.4833	-0.0006
727.6619	-0.001
727.8405	-0.0032
728.0191	-0.0113
728.1976	0.0028
728.3762	-0.0005
728.5547	-0.0063
728.7332	-0.0075
728.9116	0.0027
729.0901	-0.0015
729.2686	-0.003
729.447	0.0014
729.6254	-0.0026
729.8038	0.0091
729.9821	-0.0108
730.1605	-0.004
730.3388	0.003
730.5171	-0.0038
730.6954	-0.0072
730.8737	0.0058
731.0519	0.0037
731.2302	-0.0006
731.4084	0.0136
731.5866	0.0054
731.7648	0.0012
731.9429	0.008
732.1211	-0.0018
732.2992	-0.0024
732.4773	0.0038
732.6554	-0.0061
732.8335	0.0021
733.0115	0.0059
733.1896	0.0145
733.3676	-0.0081
733.5456	0.0095
733.7235	-0.0012
733.9015	0.0003
734.0794	-0.001
734.2574	-0.0019
734.4353	-0.0028
734.6131	0.0014
734.791	-0.0048
734.9689	0.003
735.1467	0.0037
735.3245	-0.011
735.5023	-0.0073
735.68	0.0052
735.8578	0.0024
736.0355	-0.0143
736.2132	-0.0032
736.3909	-0.003
736.5686	-0.0032
736.7463	0.0016
736.9239	-0.0093
737.1015	-0.0063
737.2791	-0.0027
737.4567	-0.0067
737.6343	-0.01
737.8118	0.0017
737.9894	0.0059
738.1669	-0.0023
738.3444	-0.0011
738.5218	0.0034
738.6993	-0.001
738.8767	-0.0062
739.0541	-0.0009
739.2315	-0.0078
739.4089	0.0059
739.5863	0.0019
739.7636	-0.0024
739.9409	0.0112
740.1182	0.0117
740.2955	0.0107
740.4728	0.0064
740.65	0.0004
740.8272	0.0009
741.0044	0.0051
741.1816	0.0097
741.3588	-0.0005
741.5359	-0.0009
741.7131	-0.0081
741.8902	-0.006
742.0673	-0.0028
742.2444	-0.0074
742.4214	-0.0138
742.5985	-0.0018
742.7755	0.0013
742.9525	-0.0125
743.1295	0.0059
743.3064	0.0014
743.4834	0.0074
743.6603	0.0052
743.8372	-0.0013
744.0141	0.0029
744.191	0.0082
744.3678	-0.0009
744.5446	0.0057
744.7215	0.0121
744.8982	0.0018
745.075	-0.0046
745.2518	0.0064
745.4285	-0.0076
745.6052	-0.0064
745.7819	-0.0033
745.9586	-0.0087
746.1353	-0.0035
746.3119	-0.0066
746.4885	-0.0047
746.6651	-0.0034
746.8417	-0.0004
747.0183	-0.0056
747.1948	-0.0001
747.3714	-0.0015
747.5479	0.0073
747.7244	0.0028
747.9008	0.0118
748.0773	0.0077
748.2537	0.0022
748.4301	-0.0051
748.6065	0.0031
748.7829	0.0131
748.9593	-0.0091
749.1356	0.0081
749.3119	0.0003
749.4882	-0.0045
749.6645	0.005
749.8408	-0.0041
750.017	-0.0067
750.1933	0.0013
750.3695	-0.0116
750.5457	-0.0005
750.7218	-0.004
750.898	-0.0003
751.0741	-0.0109
751.2502	-0.0087
751.4263	-0.0038
751.6024	-0.0043
751.7784	-0.0013
751.9545	-0.0165
752.1305	0.0001
752.3065	-0.0126
752.4825	-0.0008
752.6584	-0.007
752.8344	-0.0061
753.0103	-0.0038
753.1862	-0.0124
753.3621	-0.0068
753.5379	-0.0083
753.7138	-0.0082
753.8896	-0.0034
754.0654	0.0028
754.2412	0.0109
754.417	0.0082
754.5927	-0.0039
754.7685	-0.0076
754.9442	-0.0132
755.1199	0.0037
755.2956	-0.0024
755.4712	-0.0004
755.6469	-0.0062
755.8225	-0.0057
755.9981	-0.005
756.1736	0.0037
756.3492	-0.0022
756.5248	-0.0115
756.7003	-0.0061
756.8758	0.0102
757.0513	-0.0111
757.2267	-0.0093
757.4022	-0.0039
757.5776	-0.007
757.753	-0.003
757.9284	0.001
758.1038	0.0085
758.2791	0.0136
758.4545	-0.0075
758.6298	0.0027
758.8051	0.0085
758.9803	0.0054
759.1556	0.0017
759.3308	0.0014
759.506	0.0186
759.6812	0.0035
759.8564	0.0103
760.0316	0.0043
760.2067	0.0144
760.3819	0.0122
760.557	0.0093
760.732	-0.0008
760.9071	-0.0098
761.0821	0.0034
761.2572	0.0065
761.4322	-0.0101
761.6072	-0.0023
761.7821	-0.0049
761.9571	0.0013
762.132	-0.0018
762.3069	-0.0104
762.4818	-0.0035
762.6567	0.0001
762.8316	-0.0012
763.0064	-0.0002
763.1812	-0.0051
763.356	-0.0134
763.5308	-0.0019
763.7055	-0.0001
763.8803	-0.0099
764.055	-0.0055
764.2297	-0.0046
764.4044	-0.0149
764.579	-0.0168
764.7537	-0.0091
764.9283	-0.0025
765.1029	-0.0058
765.2775	-0.0025
765.4521	-0.0087
765.6266	-0.0128
765.8011	-0.0107
765.9756	-0.012
766.1501	-0.0021
766.3246	0.004
766.4991	0.0041
766.6735	0.007
766.8479	-0.0164
767.0223	0.0079
767.1967	-0.0008
767.371	0.004
767.5454	-0.002
767.7197	0.0035
767.894	-0.0099
768.0683	-0.0062
768.2425	-0.0079
768.4168	-0.0002
768.591	0.0062
768.7652	0.0058
768.9394	-0.0018
769.1135	0.0018
769.2877	0.0019
769.4618	-0.0055
769.6359	-0.0055
769.81	-0.0007
769.984	0.0104
770.1581	-0.0081
770.3321	-0.0012
770.5061	-0.0086
770.6801	-0.013
770.8541	-0.0017
771.028	0.0089
771.202	-0.0115
771.3759	0.0056
771.5498	0.0027
771.7236	0.0004
771.8975	0.0002
772.0713	0.0061
772.2451	0.0008
772.4189	0.0191
772.5927	0.0091
772.7665	0.0021
772.9402	0.0071
773.1139	0.0021
773.2876	0.0036
773.4613	0.018
773.635	0.0117
773.8086	-0.0035
773.9822	0.0053
774.1558	0.0046
774.3294	-0.017
774.503	-0.0055
774.6765	-0.0011
774.8501	0.0048
775.0236	0.0046
775.1971	0.0014
775.3705	-0.0074
775.544	-0.0069
775.7174	-0.0108
775.8908	0.0051
776.0642	-0.0102
776.2376	-0.0025
776.4109	-0.0099
776.5843	-0.004
776.7576	0.0062
776.9309	0.0174
777.1041	0.002
777.2774	0.0092
777.4506	0.0039
777.6238	-0.0069
777.797	0.0065
777.9702	0.0063
778.1434	0.0008
778.3165	0.0006
778.4896	-0.003
778.6627	0.0145
778.8358	0.0122
779.0089	-0.0125
779.1819	-0.0051
779.3549	0.014
779.5279	0.0219
779.7009	0.0068
779.8739	0.0067
780.0468	0.0051
780.2197	0.0059
780.3926	-0.0011
780.5655	0.0037
780.7384	-0.0042
780.9112	0.0026
781.0841	-0.0098
781.2569	-0.0014
781.4297	0.0128
781.6024	0.018
781.7752	0.007
781.9479	0.0038
782.1206	0.0062
782.2933	-0.0082
782.466	0.0078
782.6386	0.0077
782.8113	0.0055
782.9839	0.0097
783.1565	0.0127
783.329	0.0046
783.5016	0.0177
783.6741	0.0209
783.8466	-0.0108
784.0191	0.0108
784.1916	0.0062
784.3641	-0.0126
784.5365	0.0022
784.7089	-0.0081
784.8813	0.0012
785.0537	0.0049
785.2261	0.0001
785.3984	-0.0159
785.5707	-0.0024
785.743	-0.0012
785.9153	-0.0153
786.0876	-0.0044
786.2598	-0.0073
786.432	-0.02
786.6042	0.0042
786.7764	-0.012
786.9486	0.0037
787.1207	-0.0103
787.2928	0.0017
787.4649	-0.0017
787.637	0.0056
787.8091	-0.0014
787.9811	-0.0144
788.1532	-0.0004
788.3252	0.0066
788.4972	-0.0051
788.6691	0.0153
788.8411	-0.0057
789.013	0.0017
789.1849	0.0012
789.3568	-0.0144
789.5287	-0.0043
789.7005	0.0005
789.8723	0.0018
790.0442	0.0062
790.2159	0.0109
790.3877	-0.0054
790.5595	-0.0212
790.7312	0.0056
790.9029	-0.009
791.0746	-0.0171
791.2463	-0.0142
791.4179	-0.0095
791.5896	-0.0164
791.7612	-0.0011
791.9328	0.0003
792.1044	-0.0128
792.2759	-0.0162
792.4474	-0.0212
792.619	-0.0033
792.7905	-0.008
792.9619	-0.0001
793.1334	0.0039
793.3048	0.0091
793.4762	-0.0003
793.6476	0.0066
793.819	-0.0066
793.9904	0.0106
794.1617	-0.0206
794.333	0.0008
794.5043	-0.004
794.6756	-0.0048
794.8469	0.0111
795.0181	-0.0073
795.1893	-0.0077
795.3605	0.0007
795.5317	0.0026
795.7029	-0.0051
795.874	0.0045
796.0452	-0.0087
796.2163	-0.026
796.3873	0.0038
796.5584	0.0039
796.7294	-0.0102
796.9005	0.0097
797.0715	-0.0137
797.2425	-0.0332
797.4134	-0.0108
797.5844	-0.0089
797.7553	-0.0133
797.9262	-0.009
798.0971	-0.0277
798.2679	-0.0105
798.4388	-0.0178
798.6096	-0.0254
798.7804	-0.0109
798.9512	-0.0139
799.122	-0.0163
799.2927	-0.0021
799.4635	-0.0115
799.6342	-0.0373
799.8049	-0.0139
799.9755	-0.0117
800.1462	-0.0044
800.3168	-0.008
800.4874	-0.0008
800.658	0.0249
800.8286	-0.0083
800.9991	-0.0029
801.1696	-0.0031
801.3402	-0.0067
801.5106	-0.0026
801.6811	-0.0037
801.8516	0.0134
802.022	0.0075
802.1924	0.0052
802.3628	0.0103
802.5332	0.0165
802.7035	0.0207
802.8739	-0.0067
803.0442	-0.0023
803.2145	0.0031
803.3847	-0.0258
803.555	-0.0119
803.7252	-0.0258
803.8954	-0.0326
804.0656	-0.0313
804.2358	-0.0041
804.4059	-0.0054
804.5761	-0.0102
804.7462	-0.0226
804.9163	-0.0097
805.0864	-0.031
805.2564	-0.0255
805.4264	-0.0134
805.5965	-0.0199
805.7665	-0.0135
805.9364	-0.006
806.1064	0.014
806.2763	-0.0013
806.4462	0.013
806.6161	0.0002
806.786	0.0077
806.9559	-0.0101
807.1257	0.0049
807.2955	-0.0179
807.4653	-0.015
807.6351	-0.014
807.8048	0.0033
807.9746	0.0026
808.1443	-0.0009
808.314	-0.0144
808.4837	-0.0171
808.6533	-0.0177
808.8229	0.0135
808.9926	-0.025
809.1622	-0.0066
809.3317	-0.0284
809.5013	0.0015
809.6708	0.0049
809.8403	-0.0029
810.0098	-0.0078
810.1793	-0.0027
810.3488	0.0061
810.5182	-0.0376
810.6876	-0.017
810.857	-0.0266
811.0264	0.0072
811.1958	0.0049
811.3651	0.0177
811.5344	-0.0094
811.7037	-0.0326
811.873	-0.031
812.0422	-0.0144
812.2115	-0.0205
812.3807	-0.0241
812.5499	0.0093
812.7191	-0.0045
812.8882	-0.0277
813.0574	-0.0125
813.2265	-0.0083
813.3956	0.0019
813.5646	-0.0103
813.7337	-0.0324
813.9027	-0.0011
814.0718	0.0279
814.2407	0.0065
814.4097	-0.0209
814.5787	-0.0115
814.7476	-0.0133
814.9165	0.0127
815.0854	0.0042
815.2543	-0.0028
815.4232	0.0239
815.592	0.0219
815.7608	-0.0056
815.9296	0.026
816.0984	-0.002
816.2671	-0.0171
816.4359	-0.0107
816.6046	-0.0015
816.7733	-0.0111
816.942	-0.0151
817.1106	-0.0068
817.2793	-0.0114
817.4479	0.0131
817.6165	0.005
817.785	-0.0056
817.9536	-0.0288
818.1221	0.0013
818.2906	-0.0163
818.4591	-0.0125
818.6276	-0.0175
818.7961	-0.0029
818.9645	-0.0016
819.1329	-0.0452
819.3013	-0.001
819.4697	-0.0006
819.638	-0.0161
819.8064	-0.0346
819.9747	-0.0079
820.143	-0.001
820.3113	-0.0285
820.4795	-0.0287
820.6477	-0.0122
820.816	-0.0234
820.9842	-0.0179
821.1523	-0.0418
821.3205	-0.018
821.4886	-0.0177
821.6567	-0.012
821.8248	-0.0106
821.9929	-0.0092
822.1609	-0.0259
822.329	0.0153
822.497	-0.0007
822.665	-0.0189
822.833	-0.0095
823.0009	0.0291
823.1688	0.028
823.3367	0.0172
823.5046	0.0054
823.6725	-0.0029
823.8404	-0.0008
824.0082	0.0184
824.176	0.0124
824.3438	0.0073
824.5116	-0.0062
824.6793	0.0079
824.847	-0.002
825.0147	-0.0151
825.1824	0.0042
825.3501	-0.0004
825.5177	-0.0191
825.6854	-0.0379
825.853	0.0059
826.0206	-0.0383
826.1881	-0.0085
826.3557	-0.0297
826.5232	0.0141
826.6907	-0.0411
826.8582	-0.0237
827.0257	-0.0189
827.1931	0
827.3605	-0.018
827.528	-0.0213
827.6953	-0.0401
827.8627	-0.0074
828.03	0.0013
828.1974	-0.012
828.3647	-0.0332
828.532	-0.0136
828.6992	-0.0341
828.8665	-0.0131
829.0337	-0.0075
829.2009	-0.0142
829.3681	-0.0233
829.5352	0.0029
829.7024	-0.0316
829.8695	-0.0191
830.0366	0.0155
830.2037	-0.0164
830.3707	0.0035
830.5378	-0.0063
830.7048	-0.0134
830.8718	-0.0227
831.0388	-0.019
831.2057	0.0287
831.3727	0.0149
831.5396	-0.0349
831.7065	-0.0272
831.8734	0.0166
832.0402	-0.0588
832.2071	-0.0067
832.3739	-0.0262
832.5407	0.0061
832.7075	-0.0371
832.8742	-0.0215
833.041	-0.0561
833.2077	-0.0237
833.3744	0.0054
833.541	-0.0018
833.7077	-0.033
833.8743	-0.0346
834.0409	-0.022
834.2075	0.0071
834.3741	-0.0371
834.5407	-0.0394
834.7072	-0.0168
834.8737	-0.044
835.0402	-0.0079
835.2067	-0.0104
835.3731	0.0067
835.5395	-0.0218
835.706	-0.0158
835.8723	-0.0155
836.0387	-0.0132
836.2051	-0.017
836.3714	-0.0423
836.5377	-0.0201
836.704	-0.0453
836.8703	-0.029
837.0365	-0.0431
837.2027	-0.0404
837.3689	-0.0135
837.5351	-0.0366
837.7013	-0.0303
837.8674	-0.0804
838.0335	-0.0715
838.1997	-0.0484
838.3657	-0.0506
838.5318	-0.0482
838.6978	-0.0141
838.8639	-0.0124
839.0299	-0.0127
839.1958	-0.0138
839.3618	-0.0353
839.5277	-0.0538
839.6937	-0.0049
839.8596	-0.0439
840.0254	0.0001
840.1913	-0.0073
840.3571	0.0244
840.523	-0.0806
840.6888	-0.047
840.8545	-0.0507
841.0203	-0.0171
841.186	-0.0392
841.3517	0.0202
841.5174	0.0071
841.6831	-0.0686
841.8488	0.0251
842.0144	-0.0308
842.18	0.0275
842.3456	0.0393
842.5112	-0.0488
842.6767	0.0141
842.8422	-0.0532
843.0077	-0.0439
843.1732	-0.0431
843.3387	-0.0188
843.5042	-0.0347
843.6696	0.0099
843.835	-0.0527
844.0004	0.0271
844.1657	-0.0079
844.3311	-0.0918
844.4964	-0.081
844.6617	-0.0382
844.827	-0.044
844.9923	-0.0101
845.1575	0.0037
845.3227	-0.0459
845.4879	0.0138
845.6531	-0.087
845.8183	-0.0681
845.9834	-0.017
846.1485	-0.0283
846.3136	-0.0376
846.4787	-0.0714
846.6438	0.0085
846.8088	-0.0612
846.9738	-0.0732
847.1388	-0.0338
847.3038	-0.0823
847.4687	-0.1163
847.6337	0.0255
847.7986	-0.0319
847.9635	0.0151
848.1284	0.0809
848.2932	0.0111
848.458	0.0105
848.6228	0.02
848.7876	0.108
848.9524	-0.0471
849.1172	-0.1592
849.2819	0.023
849.4466	-0.1219
849.6113	-0.0735
849.7759	-0.0561
849.9406	-0.0265
850.1052	0.0066
850.2698	-0.0309
850.4344	-0.041
850.599	-0.1187
850.7635	0.0664
850.928	-0.1426
851.0925	0.0118
851.257	0.0469
851.4215	0.0062
851.5859	-0.0592
851.7503	-0.0149
851.9147	0.0221
852.0791	-0.0681
852.2434	0.0858
852.4078	0.0275
852.5721	0.1266
852.7364	-0.0763
852.9007	-0.2675
853.0649	-0.0172
853.2291	-0.0814
853.3934	0.0167
853.5575	-0.043
853.7217	-0.0916
853.8859	-0.1561
854.05	-0.0659
854.2141	-0.0671
854.3782	-0.1117
854.5423	-0.1406
854.7063	0.069
854.8703	-0.0187
855.0343	-0.0301
855.1983	-0.1828
855.3623	0.0932
855.5262	-0.0612
855.6901	-0.0736
855.854	0.0128
856.0179	0.1105
856.1818	0.0906
856.3456	-0.1203
856.5094	-0.1336
856.6732	-0.1958
856.837	-0.1031
857.0008	-0.0747
857.1645	-0.0723
857.3282	-0.0703
857.4919	0.0845
857.6556	0.017
857.8192	-0.0552
857.9828	0.0176
858.1465	-0.0512
858.31	-0.1631
858.4736	-0.149
858.6372	-0.4015
858.8007	-0.2233
858.9642	0.0915
859.1277	-0.0493
859.2911	-0.2304
859.4546	-0.0897
859.618	-0.4414
859.7814	-0.0905
859.9448	-0.1982
860.1081	-0.2924
860.2715	0.2027
860.4348	0.1811
860.5981	-0.0611
860.7614	0.3234
860.9246	-0.21
861.0879	-0.2373
861.2511	0.0355
861.4143	-0.278
861.5774	0.1979
861.7406	-0.106
861.9037	-0.0694
862.0668	0.1231
862.2299	-0.0785
862.393	-0.6608
862.556	-0.0728
862.7191	-0.3845
862.8821	-0.4727
863.0451	0.0468
863.208	-0.0864
863.371	-0.0542
863.5339	0.0491
863.6968	-0.0594
863.8597	-0.135
864.0225	-0.2005
864.1854	-0.0813
864.3482	-0.2276
864.511	-0.0083
864.6737	0.0347
864.8365	-0.0871
864.9992	-0.346
865.1619	-0.2849
865.3246	-0.4893
865.4873	0.0364
865.65	-0.2138
865.8126	0.2221
865.9752	-0.0359
866.1378	0.3798
866.3004	0.449
866.4629	0.2004
866.6254	-0.4015
866.7879	-0.0087
866.9504	0.4505
867.1129	-0
867.2753	-0.0064
867.4377	-0.0708
867.6001	-0.5158
867.7625	0.4118
867.9249	0.0045
868.0872	-0.2345
868.2495	0.0127
868.4118	-0.0428
868.5741	-0.6637
868.7363	-0.3486
868.8986	-0.0214
869.0608	0.0814
869.223	0.2073
869.3851	0.5551
869.5473	-0
869.7094	0.0318
869.8715	-0.5068
870.0336	-0
870.1957	-0.7643
870.3577	-1.036
870.5197	0.3371
870.6817	-0.4811
870.8437	-0.1309
871.0057	-0
871.1676	-0.1992
871.3295	0.2557
871.4914	0.4017
871.6533	-0.4967
871.8151	-0.5773
871.977	-0
872.1388	-0
872.3006	0.112
872.4623	-0
872.6241	0.385
872.7858	0.5038
872.9475	0.6705
873.1092	-0.2851
873.2709	-0.5174
873.4325	0.1134
873.5941	-0.6688
873.7557	0.3998
873.9173	0.301
874.0789	-0.2549
874.2404	-0.4475
874.4019	0.2929
874.5634	-0.3699
874.7249	0.5569
874.8863	-0.08
875.0478	0.3123
875.2092	-0.7122
875.3706	0.2634
875.5319	-0.7504
875.6933	-0
875.8546	-0
876.0159	-0
876.1772	-0
876.3385	-0
876.4997	0.8076
876.6609	-0.3774
876.8221	-0
876.9833	0.3806
877.1445	-0
877.3056	0.1646
877.4667	-0.5294
877.6278	0.0776
877.7889	-0.0825
877.9499	-0
878.111	0.2242
878.272	-0
878.433	-0
878.5939	1.2065
878.7549	0.0132
878.9158	-0.8675
879.0767	-0
879.2376	-0
879.3984	-0.1669
879.5593	-0
879.7201	0.4761
879.8809	-0.7716
880.0417	-0
880.2024	0.2021
880.3632	-0
880.5239	0.6614
880.6846	-0
880.8452	-2.4691
881.0059	-1.3324
881.1665	0.2338
881.3271	-0
881.4877	-0.7011
881.6483	-0.5534
881.8088	-0.5991
881.9693	0.4323
882.1298	0.4323
882.2903	0.4323
