Data from MonoPyChalIsomerACN10uM420nmA_Absorbance_15-09-57-634.txt Node
Date: Fri Jul 05 15:09:57 BST 2024
User: LASERRRRR
Spectrometer: FLMT03099
Trigger mode: 0
Integration Time (sec): 1.000000E-1
Scans to average: 1
Electric dark correction enabled: true
Nonlinearity correction enabled: false
Boxcar width: 0
XAxis mode: Wavelengths
Number of Pixels in Spectrum: 3648
>>>>>Begin Spectral Data<<<<<
179.3399	-0.3767
179.5586	-0.3767
179.7771	-0.3767
179.9957	0.2572
180.2143	0.2954
180.4329	-0.0057
180.6514	-0
180.8699	1.5006
181.0885	-0
181.307	-0.0293
181.5255	-0.9837
181.744	-0.3829
181.9625	-0
182.181	-0
182.3994	0.3107
182.6179	-0
182.8363	-0.1473
183.0547	-0.2297
183.2732	0.015
183.4916	0.06
183.71	-0.0595
183.9284	0.219
184.1467	-0.1274
184.3651	-0.1212
184.5835	-0.006
184.8018	-0.1732
185.0201	0.1274
185.2385	-0.0847
185.4568	0.1828
185.6751	0.5238
185.8934	0.163
186.1117	0.0851
186.3299	-0.0684
186.5482	0.2058
186.7664	-0.0716
186.9847	-0.1753
187.2029	0.0223
187.4211	0.1903
187.6393	0.1051
187.8575	0.004
188.0757	0.2986
188.2939	0.1045
188.512	0.1714
188.7302	0.0345
188.9483	0.0518
189.1665	0.1134
189.3846	0.7932
189.6027	0.0272
189.8208	0.3398
190.0389	0.1629
190.257	0.0875
190.475	0.3394
190.6931	0.2383
190.9111	0.4482
191.1292	0.1145
191.3472	0.2916
191.5652	0.2588
191.7832	0.2175
192.0012	0.4336
192.2192	0.2962
192.4371	0.3996
192.6551	0.207
192.873	0.3255
193.091	0.375
193.3089	0.6221
193.5268	0.5766
193.7447	0.5024
193.9626	0.4511
194.1805	0.5188
194.3984	0.6265
194.6162	0.6347
194.8341	0.3525
195.0519	0.4405
195.2697	0.7953
195.4875	0.788
195.7054	0.4297
195.9231	0.5575
196.1409	0.5062
196.3587	0.5565
196.5765	0.5725
196.7942	0.7192
197.012	0.4964
197.2297	0.5191
197.4474	0.7651
197.6651	0.6852
197.8828	0.4822
198.1005	0.4916
198.3182	0.4752
198.5358	0.7002
198.7535	0.904
198.9711	0.5631
199.1888	0.6712
199.4064	0.7495
199.624	0.6851
199.8416	0.6212
200.0592	0.5491
200.2767	0.6511
200.4943	0.6484
200.7119	0.693
200.9294	0.5765
201.1469	0.5547
201.3645	0.6947
201.582	0.5219
201.7995	0.6479
202.017	0.6789
202.2344	0.5722
202.4519	0.6303
202.6694	0.601
202.8868	0.618
203.1042	0.6287
203.3217	0.7045
203.5391	0.6088
203.7565	0.6654
203.9739	0.6782
204.1913	0.5581
204.4086	0.6836
204.626	0.6674
204.8433	0.721
205.0607	0.6518
205.278	0.6488
205.4953	0.5807
205.7126	0.661
205.9299	0.723
206.1472	0.6519
206.3644	0.565
206.5817	0.6351
206.7989	0.749
207.0162	0.7063
207.2334	0.6162
207.4506	0.6466
207.6678	0.6056
207.885	0.6944
208.1022	0.6055
208.3194	0.6788
208.5365	0.6611
208.7537	0.6693
208.9708	0.5902
209.1879	0.6366
209.405	0.6175
209.6222	0.7022
209.8392	0.6989
210.0563	0.618
210.2734	0.6978
210.4905	0.6203
210.7075	0.6333
210.9245	0.6064
211.1416	0.6527
211.3586	0.6079
211.5756	0.5785
211.7926	0.6446
212.0096	0.6072
212.2265	0.5968
212.4435	0.542
212.6604	0.5536
212.8774	0.563
213.0943	0.5907
213.3112	0.5325
213.5281	0.5177
213.745	0.488
213.9619	0.5193
214.1788	0.514
214.3956	0.4445
214.6125	0.4681
214.8293	0.4678
215.0461	0.4358
215.2629	0.4719
215.4798	0.4775
215.6965	0.4464
215.9133	0.427
216.1301	0.4297
216.3469	0.435
216.5636	0.4423
216.7803	0.3939
216.9971	0.4406
217.2138	0.3503
217.4305	0.3711
217.6472	0.3615
217.8639	0.3752
218.0805	0.3328
218.2972	0.3283
218.5138	0.3275
218.7305	0.3259
218.9471	0.2884
219.1637	0.2987
219.3803	0.2696
219.5969	0.2711
219.8135	0.2442
220.0301	0.2613
220.2466	0.2752
220.4632	0.2743
220.6797	0.2339
220.8962	0.2325
221.1127	0.2564
221.3292	0.2331
221.5457	0.2515
221.7622	0.2151
221.9787	0.2411
222.1951	0.2308
222.4116	0.2567
222.628	0.2455
222.8444	0.2877
223.0608	0.2347
223.2772	0.2579
223.4936	0.2618
223.71	0.2494
223.9264	0.255
224.1427	0.2471
224.3591	0.2528
224.5754	0.2656
224.7917	0.2694
225.008	0.2898
225.2243	0.2637
225.4406	0.2945
225.6569	0.2544
225.8732	0.2685
226.0894	0.2458
226.3057	0.2477
226.5219	0.2808
226.7381	0.2533
226.9543	0.2676
227.1705	0.2849
227.3867	0.2722
227.6029	0.3114
227.8191	0.2827
228.0352	0.2939
228.2513	0.3177
228.4675	0.3112
228.6836	0.2967
228.8997	0.3018
229.1158	0.298
229.3319	0.2852
229.548	0.3068
229.764	0.3012
229.9801	0.3182
230.1961	0.3217
230.4121	0.3357
230.6282	0.3312
230.8442	0.3333
231.0602	0.3305
231.2761	0.3247
231.4921	0.3298
231.7081	0.3401
231.924	0.3349
232.14	0.3629
232.3559	0.3414
232.5718	0.3655
232.7877	0.3367
233.0036	0.3595
233.2195	0.3678
233.4353	0.3483
233.6512	0.3543
233.867	0.3781
234.0829	0.3683
234.2987	0.3678
234.5145	0.3739
234.7303	0.3498
234.9461	0.3916
235.1619	0.3648
235.3776	0.372
235.5934	0.3806
235.8091	0.3578
236.0249	0.3601
236.2406	0.3728
236.4563	0.3698
236.672	0.3973
236.8877	0.3997
237.1034	0.3812
237.319	0.4073
237.5347	0.3934
237.7503	0.3755
237.966	0.3914
238.1816	0.4011
238.3972	0.3891
238.6128	0.3839
238.8284	0.3967
239.0439	0.4013
239.2595	0.3952
239.475	0.422
239.6906	0.4174
239.9061	0.3948
240.1216	0.3793
240.3371	0.4113
240.5526	0.4022
240.7681	0.409
240.9836	0.394
241.199	0.4081
241.4145	0.3981
241.6299	0.3925
241.8453	0.3907
242.0607	0.3925
242.2761	0.3786
242.4915	0.4038
242.7069	0.3777
242.9223	0.3773
243.1376	0.3717
243.353	0.3577
243.5683	0.3788
243.7836	0.3468
243.9989	0.3554
244.2142	0.3294
244.4295	0.3496
244.6448	0.3294
244.86	0.3256
245.0753	0.3113
245.2905	0.3066
245.5057	0.3005
245.721	0.293
245.9362	0.3021
246.1514	0.3028
246.3665	0.2865
246.5817	0.2801
246.7969	0.2758
247.012	0.2593
247.2271	0.2799
247.4423	0.2722
247.6574	0.2619
247.8725	0.247
248.0876	0.25
248.3026	0.2412
248.5177	0.2577
248.7328	0.2409
248.9478	0.2238
249.1628	0.234
249.3779	0.2415
249.5929	0.2251
249.8079	0.2365
250.0228	0.2232
250.2378	0.217
250.4528	0.2157
250.6677	0.2128
250.8827	0.2074
251.0976	0.2137
251.3125	0.2038
251.5274	0.1877
251.7423	0.2
251.9572	0.1978
252.172	0.1919
252.3869	0.1959
252.6017	0.1893
252.8166	0.1774
253.0314	0.1838
253.2462	0.1788
253.461	0.1923
253.6758	0.1733
253.8906	0.1972
254.1053	0.1754
254.3201	0.1836
254.5348	0.197
254.7496	0.188
254.9643	0.1691
255.179	0.1823
255.3937	0.1588
255.6083	0.1728
255.823	0.1807
256.0377	0.1688
256.2523	0.1783
256.467	0.1598
256.6816	0.1792
256.8962	0.1719
257.1108	0.1741
257.3254	0.1736
257.54	0.1663
257.7545	0.1804
257.9691	0.1733
258.1836	0.1674
258.3981	0.179
258.6127	0.1839
258.8272	0.1695
259.0417	0.173
259.2561	0.156
259.4706	0.1607
259.6851	0.175
259.8995	0.1744
260.114	0.1572
260.3284	0.1618
260.5428	0.1635
260.7572	0.1632
260.9716	0.1673
261.186	0.1686
261.4003	0.1767
261.6147	0.1697
261.829	0.1646
262.0433	0.1717
262.2577	0.1821
262.472	0.1786
262.6863	0.1811
262.9005	0.1715
263.1148	0.1706
263.3291	0.1541
263.5433	0.1795
263.7576	0.1657
263.9718	0.1792
264.186	0.1695
264.4002	0.1719
264.6144	0.1769
264.8286	0.1711
265.0427	0.183
265.2569	0.1774
265.471	0.1591
265.6851	0.1639
265.8993	0.1792
266.1134	0.1721
266.3275	0.1707
266.5415	0.1699
266.7556	0.1773
266.9697	0.1778
267.1837	0.1735
267.3978	0.1796
267.6118	0.1804
267.8258	0.1998
268.0398	0.1569
268.2538	0.1796
268.4677	0.1764
268.6817	0.1721
268.8957	0.1798
269.1096	0.1795
269.3235	0.1811
269.5374	0.1692
269.7514	0.1741
269.9652	0.1705
270.1791	0.169
270.393	0.1743
270.6068	0.1736
270.8207	0.1689
271.0345	0.175
271.2483	0.1808
271.4622	0.1672
271.676	0.1787
271.8897	0.166
272.1035	0.1624
272.3173	0.169
272.531	0.1674
272.7448	0.1743
272.9585	0.1756
273.1722	0.1631
273.3859	0.1627
273.5996	0.1578
273.8133	0.1793
274.0269	0.1645
274.2406	0.1663
274.4542	0.1681
274.6679	0.1635
274.8815	0.1589
275.0951	0.1855
275.3087	0.1737
275.5223	0.1762
275.7358	0.1814
275.9494	0.17
276.1629	0.158
276.3765	0.1628
276.59	0.1743
276.8035	0.1744
277.017	0.1769
277.2305	0.1705
277.444	0.1773
277.6574	0.171
277.8709	0.1788
278.0843	0.1604
278.2978	0.1814
278.5112	0.1657
278.7246	0.1643
278.938	0.1724
279.1513	0.1828
279.3647	0.1861
279.5781	0.1768
279.7914	0.1666
280.0047	0.1774
280.2181	0.1741
280.4314	0.1777
280.6447	0.1677
280.8579	0.1709
281.0712	0.179
281.2845	0.1783
281.4977	0.1747
281.711	0.169
281.9242	0.1726
282.1374	0.1712
282.3506	0.1903
282.5638	0.1759
282.7769	0.1763
282.9901	0.172
283.2033	0.1814
283.4164	0.1919
283.6295	0.1617
283.8426	0.169
284.0557	0.1712
284.2688	0.1811
284.4819	0.1827
284.695	0.1698
284.908	0.1629
285.1211	0.1602
285.3341	0.1822
285.5471	0.1745
285.7601	0.1688
285.9731	0.1653
286.1861	0.1591
286.3991	0.164
286.612	0.1706
286.825	0.1526
287.0379	0.1667
287.2508	0.1588
287.4637	0.1579
287.6766	0.1488
287.8895	0.1721
288.1024	0.1803
288.3152	0.1708
288.5281	0.1563
288.7409	0.1519
288.9538	0.1587
289.1666	0.1522
289.3794	0.1694
289.5922	0.157
289.8049	0.147
290.0177	0.1575
290.2304	0.1597
290.4432	0.1507
290.6559	0.1533
290.8686	0.1622
291.0813	0.148
291.294	0.1634
291.5067	0.1657
291.7194	0.1556
291.932	0.1669
292.1447	0.1494
292.3573	0.1387
292.5699	0.1513
292.7825	0.1569
292.9951	0.1329
293.2077	0.1578
293.4203	0.1559
293.6328	0.1334
293.8454	0.1526
294.0579	0.1579
294.2704	0.1392
294.4829	0.1404
294.6954	0.156
294.9079	0.1558
295.1204	0.1577
295.3328	0.141
295.5453	0.149
295.7577	0.1534
295.9701	0.14
296.1825	0.1591
296.3949	0.1398
296.6073	0.1384
296.8197	0.1366
297.0321	0.1474
297.2444	0.1425
297.4567	0.1486
297.6691	0.1495
297.8814	0.1481
298.0937	0.1398
298.306	0.1521
298.5182	0.138
298.7305	0.149
298.9428	0.1425
299.155	0.1509
299.3672	0.1345
299.5794	0.1313
299.7916	0.1422
300.0038	0.1346
300.216	0.1457
300.4282	0.1449
300.6403	0.1337
300.8525	0.1457
301.0646	0.1397
301.2767	0.1394
301.4888	0.1416
301.7009	0.1408
301.913	0.1373
302.125	0.1422
302.3371	0.1368
302.5491	0.1387
302.7612	0.1365
302.9732	0.1363
303.1852	0.1533
303.3972	0.14
303.6092	0.1435
303.8211	0.1386
304.0331	0.1405
304.245	0.1368
304.457	0.1387
304.6689	0.1331
304.8808	0.1519
305.0927	0.1348
305.3046	0.1538
305.5164	0.1425
305.7283	0.1376
305.9401	0.1408
306.152	0.1367
306.3638	0.1405
306.5756	0.1302
306.7874	0.138
306.9992	0.1394
307.2109	0.1293
307.4227	0.1236
307.6344	0.1284
307.8462	0.1339
308.0579	0.1264
308.2696	0.1271
308.4813	0.1266
308.693	0.1213
308.9046	0.1284
309.1163	0.1281
309.328	0.1225
309.5396	0.1212
309.7512	0.1147
309.9628	0.1183
310.1744	0.123
310.386	0.1163
310.5976	0.1252
310.8091	0.1284
311.0207	0.1161
311.2322	0.1292
311.4437	0.1197
311.6552	0.1159
311.8667	0.1212
312.0782	0.1128
312.2897	0.1087
312.5012	0.1214
312.7126	0.1154
312.924	0.1032
313.1355	0.1209
313.3469	0.1166
313.5583	0.1181
313.7696	0.1143
313.981	0.1171
314.1924	0.1166
314.4037	0.1053
314.6151	0.1259
314.8264	0.112
315.0377	0.1116
315.249	0.1135
315.4603	0.1226
315.6716	0.1212
315.8828	0.1138
316.0941	0.118
316.3053	0.1127
316.5165	0.1077
316.7277	0.1054
316.9389	0.1042
317.1501	0.1075
317.3613	0.1089
317.5724	0.1069
317.7836	0.1165
317.9947	0.1149
318.2058	0.1139
318.417	0.1046
318.6281	0.1055
318.8391	0.0987
319.0502	0.106
319.2613	0.1221
319.4723	0.1194
319.6834	0.1258
319.8944	0.1107
320.1054	0.1141
320.3164	0.1162
320.5274	0.0972
320.7383	0.1158
320.9493	0.1152
321.1602	0.1239
321.3712	0.1089
321.5821	0.1176
321.793	0.1203
322.0039	0.1307
322.2148	0.1185
322.4257	0.1221
322.6365	0.1185
322.8474	0.1287
323.0582	0.1117
323.269	0.1275
323.4798	0.1308
323.6906	0.1259
323.9014	0.1284
324.1122	0.1123
324.3229	0.116
324.5337	0.1247
324.7444	0.1077
324.9551	0.1313
325.1658	0.1244
325.3765	0.1201
325.5872	0.1267
325.7979	0.1177
326.0085	0.1232
326.2192	0.1271
326.4298	0.1139
326.6404	0.1201
326.851	0.118
327.0616	0.1103
327.2722	0.1233
327.4828	0.1413
327.6933	0.1109
327.9039	0.1271
328.1144	0.1299
328.3249	0.125
328.5354	0.1136
328.7459	0.1237
328.9564	0.129
329.1669	0.1193
329.3773	0.1311
329.5878	0.1147
329.7982	0.1205
330.0086	0.1243
330.219	0.1262
330.4294	0.123
330.6398	0.1234
330.8502	0.1122
331.0605	0.1223
331.2708	0.1361
331.4812	0.1327
331.6915	0.1206
331.9018	0.1321
332.1121	0.1196
332.3224	0.1308
332.5326	0.1252
332.7429	0.1263
332.9531	0.1335
333.1633	0.1259
333.3735	0.1279
333.5837	0.13
333.7939	0.1283
334.0041	0.1371
334.2143	0.1295
334.4244	0.1269
334.6346	0.111
334.8447	0.1347
335.0548	0.1293
335.2649	0.1206
335.475	0.1333
335.685	0.1231
335.8951	0.1356
336.1051	0.135
336.3152	0.1324
336.5252	0.1196
336.7352	0.1303
336.9452	0.1312
337.1552	0.1271
337.3652	0.1279
337.5751	0.1512
337.7851	0.1371
337.995	0.1214
338.2049	0.1377
338.4148	0.1316
338.6247	0.1493
338.8346	0.1367
339.0445	0.1358
339.2543	0.1281
339.4642	0.1406
339.674	0.1378
339.8838	0.1359
340.0936	0.135
340.3034	0.1514
340.5132	0.1376
340.7229	0.1366
340.9327	0.1384
341.1424	0.1404
341.3522	0.1509
341.5619	0.1354
341.7716	0.1331
341.9813	0.1381
342.1909	0.1354
342.4006	0.1332
342.6102	0.1442
342.8199	0.1472
343.0295	0.1556
343.2391	0.1365
343.4487	0.1528
343.6583	0.1376
343.8679	0.1417
344.0774	0.1471
344.287	0.1562
344.4965	0.1531
344.706	0.144
344.9155	0.1368
345.125	0.1468
345.3345	0.156
345.544	0.1378
345.7534	0.1464
345.9629	0.1377
346.1723	0.1469
346.3817	0.1335
346.5911	0.1568
346.8005	0.1487
347.0099	0.1433
347.2193	0.1589
347.4286	0.1398
347.638	0.1602
347.8473	0.1561
348.0566	0.1506
348.2659	0.1508
348.4752	0.1483
348.6845	0.1444
348.8937	0.1543
349.103	0.1575
349.3122	0.1456
349.5214	0.1484
349.7306	0.1501
349.9398	0.1386
350.149	0.1471
350.3582	0.1541
350.5674	0.153
350.7765	0.1499
350.9856	0.1442
351.1948	0.1639
351.4039	0.139
351.613	0.1425
351.822	0.1621
352.0311	0.1641
352.2402	0.1532
352.4492	0.1421
352.6582	0.1484
352.8672	0.1661
353.0762	0.156
353.2852	0.1469
353.4942	0.1484
353.7032	0.1609
353.9121	0.1523
354.1211	0.1532
354.33	0.1507
354.5389	0.1583
354.7478	0.1523
354.9567	0.1514
355.1655	0.1492
355.3744	0.1598
355.5833	0.16
355.7921	0.1866
356.0009	0.1672
356.2097	0.1757
356.4185	0.1696
356.6273	0.1671
356.8361	0.1589
357.0448	0.159
357.2536	0.1557
357.4623	0.1545
357.671	0.1585
357.8797	0.1626
358.0884	0.1751
358.2971	0.1579
358.5057	0.1689
358.7144	0.1676
358.923	0.1679
359.1316	0.1816
359.3402	0.1628
359.5488	0.1618
359.7574	0.1703
359.966	0.1746
360.1746	0.1663
360.3831	0.1709
360.5916	0.1744
360.8002	0.1573
361.0087	0.1759
361.2172	0.1622
361.4256	0.1832
361.6341	0.1785
361.8426	0.1776
362.051	0.1755
362.2594	0.1738
362.4678	0.1734
362.6762	0.1734
362.8846	0.1682
363.093	0.1607
363.3014	0.1765
363.5097	0.1597
363.718	0.1738
363.9264	0.1747
364.1347	0.1724
364.343	0.1787
364.5513	0.1785
364.7595	0.1973
364.9678	0.1778
365.176	0.1783
365.3842	0.1786
365.5925	0.1851
365.8007	0.1917
366.0089	0.181
366.217	0.1698
366.4252	0.1902
366.6333	0.1951
366.8415	0.1878
367.0496	0.165
367.2577	0.1976
367.4658	0.2028
367.6739	0.1842
367.882	0.1777
368.09	0.1937
368.2981	0.194
368.5061	0.1719
368.7141	0.1851
368.9221	0.1931
369.1301	0.203
369.3381	0.1839
369.5461	0.1965
369.754	0.1978
369.962	0.1951
370.1699	0.1812
370.3778	0.1819
370.5857	0.1709
370.7936	0.1951
371.0015	0.1965
371.2093	0.1992
371.4172	0.2049
371.625	0.1761
371.8328	0.1795
372.0406	0.1886
372.2484	0.187
372.4562	0.1938
372.664	0.1883
372.8717	0.1949
373.0795	0.1712
373.2872	0.1811
373.4949	0.2035
373.7026	0.1975
373.9103	0.1903
374.118	0.1936
374.3256	0.1939
374.5333	0.1847
374.7409	0.1787
374.9485	0.2078
375.1561	0.2068
375.3637	0.1996
375.5713	0.1823
375.7789	0.1861
375.9864	0.1934
376.194	0.1879
376.4015	0.1965
376.609	0.1924
376.8165	0.2028
377.024	0.1957
377.2315	0.1691
377.4389	0.2049
377.6464	0.1992
377.8538	0.18
378.0612	0.1838
378.2686	0.1964
378.476	0.2026
378.6834	0.2072
378.8908	0.1994
379.0981	0.2023
379.3055	0.2042
379.5128	0.2041
379.7201	0.1922
379.9274	0.186
380.1347	0.187
380.342	0.2095
380.5492	0.1843
380.7565	0.1929
380.9637	0.189
381.1709	0.1786
381.3781	0.1836
381.5853	0.2014
381.7925	0.1961
381.9997	0.1988
382.2068	0.1994
382.4139	0.2013
382.6211	0.1872
382.8282	0.2017
383.0353	0.1815
383.2424	0.2
383.4494	0.2088
383.6565	0.1825
383.8635	0.1781
384.0706	0.1864
384.2776	0.204
384.4846	0.189
384.6916	0.1923
384.8986	0.2016
385.1055	0.1947
385.3125	0.1904
385.5194	0.1732
385.7263	0.186
385.9333	0.1846
386.1402	0.1876
386.347	0.2111
386.5539	0.1876
386.7608	0.2007
386.9676	0.1771
387.1744	0.1965
387.3813	0.1942
387.5881	0.1907
387.7948	0.1874
388.0016	0.189
388.2084	0.192
388.4151	0.1784
388.6219	0.1959
388.8286	0.1877
389.0353	0.1911
389.242	0.1887
389.4487	0.1918
389.6553	0.1764
389.862	0.1719
390.0686	0.1691
390.2753	0.1996
390.4819	0.1939
390.6885	0.1756
390.8951	0.1704
391.1016	0.1697
391.3082	0.1702
391.5147	0.1752
391.7213	0.1791
391.9278	0.1691
392.1343	0.1778
392.3408	0.1733
392.5473	0.1726
392.7537	0.1827
392.9602	0.1669
393.1666	0.1723
393.373	0.176
393.5794	0.1756
393.7858	0.1639
393.9922	0.1607
394.1986	0.1769
394.4049	0.1741
394.6113	0.1523
394.8176	0.1519
395.0239	0.1674
395.2302	0.1497
395.4365	0.1542
395.6428	0.1789
395.8491	0.155
396.0553	0.1639
396.2615	0.1519
396.4678	0.1553
396.674	0.1479
396.8802	0.1478
397.0863	0.1582
397.2925	0.1516
397.4987	0.1532
397.7048	0.1541
397.9109	0.1421
398.117	0.1489
398.3231	0.1598
398.5292	0.1535
398.7353	0.1649
398.9413	0.1484
399.1474	0.1542
399.3534	0.14
399.5594	0.1493
399.7654	0.1621
399.9714	0.166
400.1774	0.1652
400.3833	0.1537
400.5893	0.1567
400.7952	0.162
401.0011	0.155
401.207	0.1528
401.4129	0.1583
401.6188	0.1525
401.8247	0.157
402.0305	0.1482
402.2364	0.139
402.4422	0.1576
402.648	0.1474
402.8538	0.1584
403.0596	0.1375
403.2654	0.1576
403.4711	0.133
403.6768	0.1608
403.8826	0.1508
404.0883	0.1636
404.294	0.1651
404.4997	0.154
404.7054	0.1467
404.911	0.1518
405.1167	0.149
405.3223	0.1671
405.5279	0.1447
405.7335	0.1486
405.9391	0.1425
406.1447	0.1513
406.3502	0.1672
406.5558	0.1496
406.7613	0.1394
406.9668	0.1491
407.1724	0.1382
407.3778	0.1503
407.5833	0.149
407.7888	0.1444
407.9942	0.1666
408.1997	0.15
408.4051	0.1455
408.6105	0.1475
408.8159	0.1526
409.0213	0.1435
409.2267	0.1494
409.432	0.1285
409.6374	0.1558
409.8427	0.1489
410.048	0.1435
410.2533	0.1434
410.4586	0.1496
410.6639	0.1328
410.8691	0.1378
411.0744	0.1358
411.2796	0.1432
411.4848	0.1537
411.69	0.124
411.8952	0.1691
412.1004	0.1162
412.3056	0.1656
412.5107	0.1539
412.7158	0.1577
412.921	0.1291
413.1261	0.1289
413.3312	0.1437
413.5362	0.1283
413.7413	0.1401
413.9464	0.1337
414.1514	0.1417
414.3564	0.1324
414.5614	0.1129
414.7664	0.1388
414.9714	0.1436
415.1764	0.1546
415.3813	0.1455
415.5863	0.1411
415.7912	0.1321
415.9961	0.1477
416.201	0.1461
416.4059	0.1424
416.6108	0.1257
416.8156	0.1366
417.0205	0.1412
417.2253	0.1379
417.4301	0.1435
417.6349	0.1454
417.8397	0.1206
418.0445	0.1475
418.2492	0.1424
418.454	0.1379
418.6587	0.1245
418.8634	0.1464
419.0681	0.1211
419.2728	0.1289
419.4775	0.1172
419.6822	0.12
419.8868	0.1198
420.0915	0.1374
420.2961	0.1107
420.5007	0.1232
420.7053	0.1337
420.9099	0.1306
421.1144	0.1247
421.319	0.1149
421.5235	0.1251
421.728	0.1158
421.9325	0.1256
422.137	0.1233
422.3415	0.1327
422.546	0.1253
422.7504	0.1261
422.9549	0.1262
423.1593	0.1239
423.3637	0.1324
423.5681	0.1169
423.7725	0.1131
423.9769	0.1127
424.1812	0.1108
424.3856	0.1202
424.5899	0.104
424.7942	0.1105
424.9985	0.1121
425.2028	0.1092
425.4071	0.124
425.6113	0.1107
425.8156	0.1234
426.0198	0.1111
426.224	0.0974
426.4282	0.1195
426.6324	0.1144
426.8366	0.117
427.0407	0.1157
427.2449	0.1139
427.449	0.1147
427.6531	0.1
427.8572	0.1107
428.0613	0.103
428.2654	0.118
428.4694	0.1129
428.6735	0.098
428.8775	0.1131
429.0815	0.1109
429.2855	0.0888
429.4895	0.1177
429.6935	0.0986
429.8975	0.1018
430.1014	0.0967
430.3053	0.087
430.5093	0.1018
430.7132	0.0995
430.9171	0.0931
431.1209	0.0922
431.3248	0.0817
431.5286	0.0863
431.7325	0.0954
431.9363	0.0852
432.1401	0.0933
432.3439	0.0737
432.5477	0.0655
432.7514	0.0758
432.9552	0.0853
433.1589	0.0775
433.3627	0.075
433.5664	0.0848
433.7701	0.0775
433.9737	0.0895
434.1774	0.0772
434.3811	0.0647
434.5847	0.0792
434.7883	0.0866
434.9919	0.0652
435.1955	0.0679
435.3991	0.0641
435.6027	0.0763
435.8062	0.0743
436.0098	0.0598
436.2133	0.0722
436.4168	0.0482
436.6203	0.0553
436.8238	0.0773
437.0272	0.0536
437.2307	0.0605
437.4341	0.0761
437.6375	0.057
437.841	0.0469
438.0443	0.0664
438.2477	0.0702
438.4511	0.0474
438.6545	0.0774
438.8578	0.0702
439.0611	0.0494
439.2644	0.0519
439.4677	0.0378
439.671	0.0471
439.8743	0.0597
440.0775	0.0683
440.2808	0.0585
440.484	0.0552
440.6872	0.0433
440.8904	0.0466
441.0936	0.063
441.2967	0.0505
441.4999	0.0533
441.703	0.0371
441.9062	0.0352
442.1093	0.0414
442.3124	0.056
442.5155	0.0364
442.7185	0.0324
442.9216	0.0103
443.1246	0.0547
443.3276	0.0372
443.5307	0.0327
443.7337	0.0523
443.9366	0.0376
444.1396	0.0355
444.3426	0.0372
444.5455	0.0281
444.7484	0.0386
444.9513	0.0333
445.1542	0.0469
445.3571	0.0313
445.56	0.0395
445.7628	0.011
445.9657	0.0205
446.1685	0.0319
446.3713	0.0355
446.5741	0.0257
446.7769	0.0199
446.9797	0.032
447.1824	0.0297
447.3852	0.0182
447.5879	0.0307
447.7906	0.0253
447.9933	0.0293
448.196	0.0194
448.3986	0.0277
448.6013	0.0082
448.8039	0.0079
449.0066	0.0166
449.2092	0.0243
449.4118	0.0195
449.6143	0.0293
449.8169	0.0333
450.0195	0.0122
450.222	-0.0056
450.4245	0.0109
450.627	0.0287
450.8295	0.0101
451.032	0.0121
451.2345	0.0144
451.4369	0.0295
451.6394	0.0116
451.8418	0.0122
452.0442	0.0091
452.2466	0.0154
452.449	0.0012
452.6513	0.0079
452.8537	0.0094
453.056	-0.0042
453.2583	0.0174
453.4607	0.014
453.663	0.012
453.8652	0.021
454.0675	0.0057
454.2697	0.0248
454.472	-0.0031
454.6742	0.0022
454.8764	0.0111
455.0786	0.0143
455.2808	0.0006
455.4829	0.0059
455.6851	0.0099
455.8872	0.0092
456.0893	0.015
456.2915	0.0045
456.4935	0.0201
456.6956	0.0052
456.8977	-0.004
457.0997	0.002
457.3018	-0.0122
457.5038	0.0097
457.7058	0.0095
457.9078	-0.0085
458.1098	0.0127
458.3117	0.002
458.5137	0.0053
458.7156	0.0092
458.9175	-0.0163
459.1194	0.0151
459.3213	0.0094
459.5232	-0.0046
459.725	-0.0045
459.9269	-0.0079
460.1287	-0.0046
460.3305	-0.0021
460.5323	0.0037
460.7341	-0.0092
460.9359	0.0014
461.1376	0.005
461.3394	-0.0112
461.5411	0.0181
461.7428	-0.008
461.9445	0.0141
462.1462	0.0008
462.3479	-0.0029
462.5495	0.0052
462.7512	0.0031
462.9528	-0.0023
463.1544	-0.006
463.356	-0.0019
463.5576	0.0033
463.7592	0.001
463.9607	0.0056
464.1623	0.0051
464.3638	0.0145
464.5653	-0.0031
464.7668	0.0063
464.9683	-0.0005
465.1697	0.0134
465.3712	-0.0015
465.5726	-0.0094
465.7741	0.0043
465.9755	-0.0011
466.1769	0.0012
466.3782	-0.0075
466.5796	0.0001
466.7809	-0.0013
466.9823	-0.0217
467.1836	-0.0015
467.3849	-0.0051
467.5862	0.0011
467.7875	-0.0009
467.9887	0.0169
468.19	0.003
468.3912	-0.0247
468.5924	-0.0098
468.7936	-0.001
468.9948	0.0043
469.196	0.003
469.3972	-0.0133
469.5983	-0.0045
469.7994	-0.0172
470.0006	-0.0192
470.2017	-0.0053
470.4027	-0.0242
470.6038	0.0048
470.8049	-0.0289
471.0059	-0.0083
471.2069	-0.0206
471.408	0.0113
471.6089	0.0016
471.8099	0.0004
472.0109	0.0096
472.2119	-0.0067
472.4128	-0.0042
472.6137	0.0015
472.8146	-0.0214
473.0155	-0.0124
473.2164	-0.0044
473.4173	0.0124
473.6181	0.0029
473.819	-0.0008
474.0198	-0.0042
474.2206	-0.0031
474.4214	-0.0076
474.6222	-0.0053
474.8229	-0.0018
475.0237	-0.0019
475.2244	-0.0194
475.4251	-0.0107
475.6258	-0.0169
475.8265	0.002
476.0272	0.0106
476.2278	-0.0079
476.4285	-0.0154
476.6291	-0.0094
476.8297	-0.009
477.0303	0.0024
477.2309	-0.0086
477.4315	-0.0103
477.632	-0.0045
477.8326	-0.0003
478.0331	-0.016
478.2336	0.0044
478.4341	0.0008
478.6346	-0.0092
478.8351	-0.0071
479.0355	-0.0105
479.236	-0.0149
479.4364	-0.0067
479.6368	-0.0106
479.8372	-0.0235
480.0376	-0.0107
480.2379	-0.0256
480.4383	-0.0059
480.6386	0.0093
480.8389	-0.0076
481.0392	-0.011
481.2395	-0.0145
481.4398	0.0051
481.6401	-0.0014
481.8403	-0.0078
482.0405	-0.0098
482.2408	-0.004
482.441	0.0023
482.6411	-0.0122
482.8413	-0.0129
483.0415	-0.0059
483.2416	-0.0093
483.4417	-0.0056
483.6419	-0.0015
483.8419	-0.019
484.042	-0.0027
484.2421	-0
484.4422	-0.0099
484.6422	-0.0052
484.8422	-0.0058
485.0422	-0.0145
485.2422	-0.0054
485.4422	-0.0107
485.6422	-0.0102
485.8421	-0.001
486.042	-0.0065
486.242	-0.0014
486.4419	-0.0011
486.6417	-0.0113
486.8416	-0.0003
487.0415	-0.0093
487.2413	-0.01
487.4411	-0.0031
487.641	-0.0194
487.8408	0.0003
488.0405	-0.0152
488.2403	-0.02
488.4401	-0.0011
488.6398	-0.0014
488.8395	-0.0113
489.0392	-0.0002
489.2389	-0.0087
489.4386	-0.0087
489.6383	0.0026
489.8379	-0.0025
490.0376	-0.0122
490.2372	-0.011
490.4368	-0.0095
490.6364	0.0019
490.836	-0.0076
491.0355	-0.0025
491.2351	-0.0161
491.4346	-0.0088
491.6341	-0.0123
491.8336	-0.0145
492.0331	-0.0057
492.2326	-0.0155
492.432	-0.003
492.6315	-0.0088
492.8309	-0.0146
493.0303	-0.0074
493.2297	-0.0109
493.4291	-0.0014
493.6284	-0.0064
493.8278	-0.0024
494.0271	-0.0056
494.2264	0.0069
494.4257	-0.0154
494.625	-0.0118
494.8243	-0.0183
495.0236	-0.0159
495.2228	-0.0142
495.422	-0.0054
495.6213	-0.0072
495.8205	-0.0106
496.0196	-0.0142
496.2188	-0
496.418	-0.0194
496.6171	-0.0161
496.8162	-0.0152
497.0153	-0.011
497.2144	-0.0122
497.4135	-0.0014
497.6126	-0.019
497.8116	-0.0074
498.0107	-0.0055
498.2097	-0.0213
498.4087	-0.0174
498.6077	-0.0047
498.8067	-0.0164
499.0056	0.0013
499.2046	-0.0148
499.4035	-0.0248
499.6024	-0.0082
499.8013	-0.0041
500.0002	-0.0156
500.199	-0.0063
500.3979	-0.0168
500.5967	-0.0199
500.7956	-0.006
500.9944	-0.0086
501.1932	0.0006
501.3919	-0.0124
501.5907	-0.012
501.7895	-0.0111
501.9882	-0.0088
502.1869	-0.0192
502.3856	-0.0083
502.5843	-0.02
502.783	-0.011
502.9816	-0.0126
503.1803	-0.0137
503.3789	-0.0149
503.5775	-0.001
503.7761	-0.0125
503.9747	-0.0089
504.1732	-0.0222
504.3718	-0.007
504.5703	-0.0101
504.7689	-0.0137
504.9674	-0.0064
505.1658	-0.0187
505.3643	-0.0083
505.5628	-0.0145
505.7612	-0.0141
505.9597	-0.0034
506.1581	-0.0055
506.3565	-0.0022
506.5549	-0.0093
506.7532	-0.0211
506.9516	-0.0034
507.1499	-0.004
507.3482	-0.0191
507.5465	-0.0148
507.7448	-0.0052
507.9431	-0.0055
508.1414	-0.0051
508.3396	-0.008
508.5379	-0.0057
508.7361	-0.008
508.9343	-0.0063
509.1325	-0.0083
509.3306	-0.009
509.5288	-0.0093
509.7269	-0.013
509.9251	0.0034
510.1232	-0.0111
510.3213	-0.0043
510.5193	0.0077
510.7174	-0.0163
510.9154	-0.0137
511.1135	-0.0115
511.3115	-0.0086
511.5095	-0.0055
511.7075	-0.0114
511.9055	-0.0111
512.1034	-0.0126
512.3014	0.0042
512.4993	-0.0006
512.6972	-0.0118
512.8951	-0.0198
513.093	-0.0087
513.2908	-0.0063
513.4887	-0.0041
513.6865	-0.0101
513.8844	-0.0113
514.0822	-0.0058
514.2799	-0.0241
514.4777	-0.0164
514.6755	-0.013
514.8732	-0.0098
515.0709	-0.0089
515.2687	-0.0058
515.4664	0.0003
515.664	-0.0183
515.8617	-0.0076
516.0594	-0.0182
516.257	0.0006
516.4546	-0.018
516.6522	-0.0143
516.8498	-0.0097
517.0474	-0.0059
517.2449	0.0047
517.4425	-0.014
517.64	-0.0054
517.8375	0.0007
518.035	-0.0014
518.2325	-0.0146
518.43	-0.0103
518.6274	-0.0098
518.8249	-0.0222
519.0223	-0.0062
519.2197	-0.0053
519.4171	-0.0093
519.6145	-0.0088
519.8118	-0.002
520.0092	-0.0123
520.2065	-0.0117
520.4038	-0.0183
520.6011	-0.0037
520.7984	-0.0136
520.9956	-0.0102
521.1929	-0.013
521.3901	-0.0047
521.5874	-0.0065
521.7846	0.0039
521.9818	-0.0258
522.1789	-0.0122
522.3761	-0.011
522.5732	-0.0149
522.7704	-0.0058
522.9675	-0.0141
523.1646	-0.012
523.3617	0.0016
523.5587	-0.0027
523.7558	0.0016
523.9528	-0.0157
524.1498	-0.007
524.3468	-0.0115
524.5438	-0.0078
524.7408	-0.0101
524.9378	-0.0096
525.1347	-0.0014
525.3316	-0.0036
525.5285	-0.0052
525.7254	-0.0071
525.9223	-0.0072
526.1192	-0.0039
526.316	-0.0108
526.5129	-0.0045
526.7097	0.0056
526.9065	-0.01
527.1033	-0.0085
527.3	0.0038
527.4968	-0.0104
527.6935	-0.0043
527.8903	-0.0144
528.087	-0.0126
528.2837	-0.01
528.4804	-0.0007
528.677	-0.0137
528.8737	0.0085
529.0703	0.0022
529.2669	-0.01
529.4635	0.0008
529.6601	0.0008
529.8567	-0.0014
530.0532	-0.016
530.2498	0.0028
530.4463	0.0071
530.6428	0.0006
530.8393	-0.0011
531.0358	-0.0084
531.2322	-0.0089
531.4287	-0.0059
531.6251	0.0009
531.8215	0.0128
532.0179	-0.0039
532.2143	0.0056
532.4107	-0.0061
532.607	-0.0093
532.8034	0.0025
532.9997	0.0001
533.196	-0.0082
533.3923	-0.0149
533.5886	-0.0047
533.7848	-0.0088
533.9811	-0.0109
534.1773	-0.0028
534.3735	0.0118
534.5697	-0.0085
534.7659	0.0002
534.9621	-0.0147
535.1582	-0.0175
535.3544	-0.008
535.5505	-0.0145
535.7466	-0.0082
535.9427	-0.0085
536.1387	-0.0147
536.3348	-0.0011
536.5308	-0.0069
536.7269	-0.0172
536.9229	-0.0022
537.1189	-0.0014
537.3148	-0.0098
537.5108	-0.0133
537.7068	0.0001
537.9027	0.0026
538.0986	-0.007
538.2945	-0.0103
538.4904	-0.0153
538.6863	-0.0095
538.8821	0.0039
539.078	-0.0123
539.2738	-0.0008
539.4696	-0.008
539.6654	0.006
539.8611	0.0096
540.0569	-0.0021
540.2526	-0.0097
540.4484	-0.0028
540.6441	0.0026
540.8398	-0.0067
541.0355	-0.0008
541.2311	-0.005
541.4268	-0.0135
541.6224	-0.0059
541.818	0.0016
542.0136	-0.0066
542.2092	0.0046
542.4048	0.0046
542.6003	-0.0053
542.7959	-0.0105
542.9914	-0.0072
543.1869	0.0047
543.3824	0.003
543.5779	-0.018
543.7734	-0.0062
543.9688	-0.0146
544.1642	0.0085
544.3596	-0.0023
544.555	0.0001
544.7504	-0.0104
544.9458	-0.0082
545.1411	-0.0003
545.3365	-0.0052
545.5318	-0.0093
545.7271	-0.0066
545.9224	-0.0118
546.1177	-0.0033
546.3129	0.0063
546.5081	-0.01
546.7034	-0.0067
546.8986	-0.0133
547.0938	-0.016
547.289	-0.0077
547.4841	-0.0066
547.6793	0.007
547.8744	0.0011
548.0695	0.0021
548.2646	-0.0069
548.4597	-0.0008
548.6548	-0.0048
548.8498	0.0023
549.0448	0.0036
549.2399	-0.0029
549.4349	0.0109
549.6298	0.0031
549.8248	0.0069
550.0198	-0.0038
550.2147	0.002
550.4096	-0.0065
550.6045	-0.0087
550.7994	0.0042
550.9943	-0.0014
551.1892	0.003
551.384	0.0033
551.5788	-0.0002
551.7737	0.0031
551.9685	-0.0005
552.1632	-0.0054
552.358	-0.0105
552.5528	0.0003
552.7475	-0.0015
552.9422	0.0011
553.1369	0.0008
553.3316	0.0068
553.5263	-0.0137
553.7209	0.0028
553.9156	-0.0063
554.1102	-0.0069
554.3048	-0.0062
554.4994	0.0076
554.694	-0.006
554.8885	0.007
555.0831	-0.0086
555.2776	-0.0048
555.4721	-0.0055
555.6666	-0.0009
555.8611	0.012
556.0555	-0.0015
556.25	0
556.4444	-0.0113
556.6388	0.0049
556.8332	-0.0037
557.0276	-0.0016
557.222	-0.0016
557.4163	-0.0092
557.6107	-0.0095
557.805	0.0025
557.9993	-0.0036
558.1936	0.0017
558.3879	-0.0048
558.5821	0.0049
558.7764	-0.0006
558.9706	0.0049
559.1648	0.0053
559.359	0.0019
559.5532	-0.0118
559.7473	0.0022
559.9415	0.0044
560.1356	-0.0111
560.3297	-0.0099
560.5238	-0.0107
560.7179	-0.0025
560.9119	-0.0047
561.106	0.0028
561.3	-0.0118
561.494	0.0065
561.688	-0.0058
561.882	-0.0094
562.076	-0.0043
562.2699	-0.0006
562.4639	-0.0024
562.6578	0.0002
562.8517	-0.0016
563.0456	-0.0079
563.2395	0.0012
563.4333	0.0019
563.6272	0.0094
563.821	0.0041
564.0148	-0.0039
564.2086	-0.0045
564.4024	-0.0069
564.5961	-0.0035
564.7899	0.0025
564.9836	0.0011
565.1773	-0.0044
565.371	0.0134
565.5647	-0.0022
565.7584	-0.0075
565.952	0.0063
566.1456	-0.0054
566.3393	0.0011
566.5329	-0.0097
566.7264	-0.0055
566.92	-0.0107
567.1136	0.0038
567.3071	-0.0039
567.5006	0.0057
567.6941	0.0016
567.8876	0.0002
568.0811	-0.0021
568.2745	0.0055
568.468	0.0078
568.6614	0.0071
568.8548	0.005
569.0482	-0.005
569.2416	-0.0055
569.4349	0.0035
569.6283	0.0105
569.8216	0.0017
570.0149	-0.0029
570.2082	0.0077
570.4015	0.0086
570.5947	0.0008
570.788	-0.0036
570.9812	0.0035
571.1744	-0.0027
571.3676	-0.0091
571.5608	-0.0046
571.754	-0.0001
571.9471	-0.0026
572.1402	-0.0028
572.3333	-0.002
572.5264	-0.006
572.7195	0.0027
572.9126	-0.0003
573.1057	-0.0074
573.2987	-0.0002
573.4917	-0.0031
573.6847	-0.0048
573.8777	-0.0005
574.0707	0.0031
574.2636	-0.0028
574.4566	0.0005
574.6495	0.0044
574.8424	-0.0039
575.0353	-0.002
575.2281	0.0052
575.421	0.0011
575.6138	0.0004
575.8067	-0.0004
575.9995	0.0008
576.1923	0.0014
576.385	0.0013
576.5778	-0.0072
576.7706	-0.0072
576.9633	0.0031
577.156	0.0002
577.3487	0.0035
577.5414	-0.002
577.734	-0.0051
577.9267	-0.0031
578.1193	-0.0126
578.3119	-0.0054
578.5045	-0.0016
578.6971	-0.0028
578.8897	-0.0014
579.0822	0.0016
579.2747	-0.0032
579.4673	-0.0052
579.6598	-0.0109
579.8522	-0.0146
580.0447	-0.0054
580.2372	-0.0046
580.4296	0
580.622	-0.0026
580.8144	-0.0046
581.0068	-0.0049
581.1992	-0.0129
581.3915	-0.0074
581.5839	-0.0113
581.7762	-0.0132
581.9685	-0.0017
582.1608	0.0026
582.353	-0.0035
582.5453	-0.0053
582.7375	0.0017
582.9298	0.0045
583.122	-0.0066
583.3142	-0.0028
583.5063	-0.0031
583.6985	-0.003
583.8906	0.0019
584.0827	-0.0061
584.2749	0.004
584.4669	-0.0053
584.659	-0.002
584.8511	-0.0081
585.0431	-0.0081
585.2352	-0.0013
585.4272	-0.0006
585.6192	-0.0018
585.8111	0.0011
586.0031	-0.0038
586.195	-0.0048
586.387	0.0027
586.5789	0.0021
586.7708	0.0046
586.9627	0.0013
587.1545	-0.0078
587.3464	-0.0011
587.5382	0.0053
587.73	-0.001
587.9218	-0.0005
588.1136	-0.0021
588.3053	0.0031
588.4971	-0.0076
588.6888	-0.0122
588.8805	0.0029
589.0722	0.0006
589.2639	0.0037
589.4556	-0.0028
589.6472	0.0038
589.8389	-0.0115
590.0305	-0.0064
590.2221	0.0001
590.4137	-0.0081
590.6052	0.002
590.7968	-0.004
590.9883	-0.0065
591.1798	0.0059
591.3713	-0.0047
591.5628	0.0019
591.7543	0.0113
591.9458	-0.0003
592.1372	0.006
592.3286	0.009
592.52	0.0069
592.7114	-0.0014
592.9028	-0.0044
593.0941	-0.0015
593.2855	-0.0018
593.4768	-0.0067
593.6681	-0.0063
593.8594	-0.014
594.0506	-0.0001
594.2419	0.0061
594.4331	0.0008
594.6244	0.0059
594.8156	-0.0069
595.0067	0.0003
595.1979	0.0027
595.3891	0.005
595.5802	0.0038
595.7713	-0.0064
595.9624	-0.0003
596.1535	0.0102
596.3446	-0.005
596.5357	0.0045
596.7267	0.0041
596.9177	-0.0035
597.1087	-0.0012
597.2997	-0.0036
597.4907	0.007
597.6817	-0.009
597.8726	-0.0005
598.0635	-0.008
598.2544	0.0054
598.4453	0
598.6362	0.003
598.827	-0.0067
599.0179	0.009
599.2087	0.001
599.3995	0.0055
599.5903	0.0009
599.7811	0.004
599.9718	0.0041
600.1626	-0.0002
600.3533	-0.0048
600.544	0.003
600.7347	-0.0021
600.9254	0.0038
601.116	-0.011
601.3067	0.0025
601.4973	-0.0019
601.6879	0.0114
601.8785	0.0049
602.0691	0.0051
602.2596	0.0024
602.4502	0.0137
602.6407	0.0026
602.8312	0.0074
603.0217	-0.0016
603.2122	0.0067
603.4027	0.0152
603.5931	-0.0011
603.7835	-0.0039
603.9739	-0.0005
604.1643	-0.0025
604.3547	-0.0006
604.5451	-0.0004
604.7354	-0.0005
604.9257	-0.0023
605.116	-0.0074
605.3063	0.0055
605.4966	-0.0026
605.6869	0.0005
605.8771	0.0071
606.0673	0.0029
606.2575	0.0026
606.4477	0.008
606.6379	0.0003
606.8281	0.001
607.0182	-0.0035
607.2083	0.0075
607.3985	-0.0003
607.5885	0.0042
607.7786	0.0053
607.9687	-0.0027
608.1587	0.0028
608.3488	0.0022
608.5388	0.0022
608.7288	-0.0019
608.9187	0.0001
609.1087	-0.0052
609.2986	0.003
609.4886	-0.0031
609.6785	0.0001
609.8684	0.0027
610.0582	-0.0016
610.2481	0.0048
610.4379	0.0009
610.6278	-0.008
610.8176	-0.0101
611.0074	-0.0081
611.1971	-0.008
611.3869	-0.0008
611.5766	-0.0151
611.7664	0.0048
611.9561	0.0045
612.1458	0.0011
612.3354	-0.0041
612.5251	-0.0024
612.7147	0.0021
612.9044	0.0079
613.094	-0.004
613.2836	-0.0003
613.4731	-0.0082
613.6627	0.0015
613.8522	0.003
614.0417	0.0017
614.2313	-0.0032
614.4207	-0.0023
614.6102	-0.0014
614.7997	-0.0098
614.9891	-0.0018
615.1785	-0.0003
615.3679	-0.0068
615.5573	0.005
615.7467	0.0031
615.9361	-0.0057
616.1254	0.0029
616.3147	-0.0041
616.504	0.0007
616.6933	-0.0026
616.8826	0.0016
617.0718	0.0045
617.2611	0.0019
617.4503	-0.004
617.6395	-0.0009
617.8287	-0.0058
618.0179	-0.0034
618.207	-0.001
618.3961	0.0014
618.5853	-0.0012
618.7744	0.0007
618.9634	0.0001
619.1525	0.0024
619.3416	0.0071
619.5306	0.0026
619.7196	0.0038
619.9086	-0.0067
620.0976	-0.0033
620.2866	0.0031
620.4755	-0.0016
620.6645	-0.0042
620.8534	-0.0031
621.0423	0.0049
621.2312	0.0031
621.42	-0.0002
621.6089	-0.0017
621.7977	0.0017
621.9865	-0.0021
622.1753	0.0047
622.3641	-0.0033
622.5529	0.0008
622.7416	0.0026
622.9303	-0.0036
623.1191	0.0052
623.3078	-0.0099
623.4964	0.0072
623.6851	0.0001
623.8737	0.0032
624.0624	0.0062
624.251	-0.0035
624.4396	-0.0039
624.6282	-0.0025
624.8167	0.003
625.0053	0.0081
625.1938	0.0112
625.3823	0.0056
625.5708	-0.0034
625.7593	-0.001
625.9477	-0.0099
626.1362	-0.001
626.3246	0.0065
626.513	0.0057
626.7014	0.0052
626.8898	0.0013
627.0781	-0.0017
627.2665	-0.007
627.4548	0.0041
627.6431	0.0046
627.8314	-0.0008
628.0197	0.004
628.2079	0.0044
628.3962	-0.0001
628.5844	0.004
628.7726	0.003
628.9608	0.0053
629.1489	0.0003
629.3371	0.0056
629.5252	0.0035
629.7134	0.0121
629.9015	-0.0003
630.0895	0.0005
630.2776	0.0046
630.4657	0.0066
630.6537	0.0051
630.8417	-0.0003
631.0297	-0.0055
631.2177	0.0025
631.4057	-0
631.5936	0.0028
631.7815	0.0045
631.9695	0.0058
632.1574	0.0025
632.3452	0.007
632.5331	0.0037
632.7209	-0.0049
632.9088	0.0089
633.0966	0.0052
633.2844	-0.0096
633.4722	0.0001
633.6599	0.0078
633.8477	0.0029
634.0354	0.0078
634.2231	0
634.4108	0.0053
634.5985	0.0056
634.7861	0.007
634.9738	0.001
635.1614	0.0039
635.349	0.0007
635.5366	-0.0026
635.7242	0.0006
635.9117	-0.002
636.0993	-0.006
636.2868	0.0065
636.4743	-0.0033
636.6618	0.0087
636.8492	0.0078
637.0367	0.0021
637.2241	-0.0018
637.4115	-0.0014
637.5989	-0.0057
637.7863	0.0027
637.9737	-0.004
638.161	-0.0017
638.3484	0.0021
638.5357	0.0038
638.723	0.0022
638.9103	0.0032
639.0975	0.0055
639.2848	0.0057
639.472	0.0006
639.6592	0.0109
639.8464	0.0088
640.0336	0.0038
640.2208	-0.0012
640.4079	-0.0005
640.595	-0.0021
640.7821	0.0068
640.9692	-0.0019
641.1563	0.0079
641.3434	0.0048
641.5304	-0.0046
641.7174	0.007
641.9044	0.0032
642.0914	0.0086
642.2784	0.0061
642.4653	0.0026
642.6523	0.0054
642.8392	0.0092
643.0261	0.0085
643.213	0.0059
643.3999	0.0016
643.5867	0.0059
643.7735	0.0051
643.9604	-0.003
644.1472	0.0009
644.3339	0.003
644.5207	0.0053
644.7075	0.0061
644.8942	0.0041
645.0809	0.0088
645.2676	0.0137
645.4543	0.0016
645.6409	0.0045
645.8276	0.0063
646.0142	0.0023
646.2008	-0.0008
646.3874	0.0003
646.574	0.0066
646.7605	-0.0042
646.9471	-0.0137
647.1336	0.0053
647.3201	0.0017
647.5066	-0.0024
647.6931	0.007
647.8795	0.002
648.0659	0.0031
648.2524	0.0096
648.4388	-0.0006
648.6252	0.001
648.8115	0.0028
648.9979	-0.0013
649.1842	0
649.3705	0.0075
649.5568	0.0032
649.7431	0.0046
649.9294	0.0038
650.1156	0.0053
650.3018	-0.0044
650.488	0.0046
650.6742	0.0026
650.8604	0.0021
651.0466	-0.0045
651.2327	0.0009
651.4188	0.0061
651.6049	0.0016
651.791	-0.0009
651.9771	0.0124
652.1632	0.0061
652.3492	0.0026
652.5352	0.0021
652.7212	0.0041
652.9072	0.0063
653.0932	0.0015
653.2791	0.0025
653.465	0.0049
653.651	0
653.8369	0.004
654.0227	-0.0009
654.2086	0.0095
654.3944	0.0078
654.5803	0.0033
654.7661	-0.003
654.9519	0.0061
655.1377	0.0002
655.3234	-0.0011
655.5092	-0.0055
655.6949	-0.0061
655.8806	-0.004
656.0663	-0.0036
656.2519	-0.0068
656.4376	-0.0031
656.6232	-0.0001
656.8088	0.0031
656.9945	0.0011
657.18	0.0033
657.3656	-0.0016
657.5511	0.0044
657.7367	-0.0049
657.9222	0.005
658.1077	0.0007
658.2932	0.0096
658.4786	-0.0013
658.6641	0.0011
658.8495	0.0028
659.0349	-0.0052
659.2203	0.0115
659.4057	0.0132
659.591	0.0004
659.7764	0.0022
659.9617	-0.0006
660.147	0.0075
660.3323	0.003
660.5176	0.0135
660.7028	0.0004
660.888	0.0074
661.0733	0.0083
661.2585	-0.0018
661.4436	-0.0002
661.6288	0.004
661.8139	0.0086
661.9991	0.0137
662.1842	0.0035
662.3693	0.0152
662.5544	0.0003
662.7394	0.0023
662.9245	0.0035
663.1095	-0.0024
663.2945	0.0003
663.4795	-0.0047
663.6644	-0.0007
663.8494	-0.0021
664.0343	-0.0021
664.2193	-0.0096
664.4042	-0.0003
664.589	-0.0088
664.7739	0.0026
664.9587	-0.0076
665.1436	0.0024
665.3284	-0.0014
665.5132	0.0057
665.698	-0.0027
665.8827	0.0066
666.0675	0.0023
666.2522	-0.0038
666.4369	0
666.6216	0.0141
666.8063	0.0043
666.9909	0.0057
667.1756	0.0054
667.3602	0.0026
667.5448	0.0004
667.7294	0.0118
667.9139	0.0118
668.0985	0.0214
668.283	0.0043
668.4675	0.0057
668.652	-0.0004
668.8365	-0.002
669.0209	0.0053
669.2054	0.0047
669.3898	0.0026
669.5742	0.0097
669.7586	0.0086
669.943	0.0097
670.1273	0.0062
670.3117	0.0037
670.496	0.0022
670.6803	0.0149
670.8646	0.0066
671.0488	0.0012
671.2331	0.0093
671.4173	0.0095
671.6015	0.0042
671.7857	0.0069
671.9699	0.0064
672.1541	0.0085
672.3382	0.0059
672.5223	0.0086
672.7064	0.0109
672.8905	0.0158
673.0746	0.0064
673.2587	0.0011
673.4427	0.0044
673.6267	0.0064
673.8107	0.0086
673.9947	0.0053
674.1787	0.0016
674.3626	-0.0059
674.5465	0.0117
674.7304	0.0035
674.9143	0.008
675.0982	0.0123
675.2821	-0.0004
675.4659	0.0084
675.6497	0.0053
675.8335	0.0054
676.0173	-0.003
676.2011	0.0022
676.3849	0.0043
676.5686	-0.0006
676.7523	0.0042
676.936	0.0024
677.1197	0.003
677.3034	-0.0026
677.487	0.0019
677.6706	0.0022
677.8542	0.0068
678.0378	0.0031
678.2214	0.0084
678.405	0.007
678.5885	-0.0042
678.772	0.0038
678.9555	0.0009
679.139	0.0045
679.3225	0.0011
679.5059	-0.0001
679.6894	0.0061
679.8728	-0.0037
680.0562	-0.0083
680.2395	-0.0103
680.4229	0.0079
680.6062	0.009
680.7896	0.0055
680.9729	-0.0046
681.1562	0.0051
681.3394	0.0077
681.5227	-0.006
681.7059	-0.0015
681.8891	0.0015
682.0723	0.0135
682.2555	0.0087
682.4387	-0.0017
682.6218	0.0025
682.805	0.0031
682.9881	0.0098
683.1712	0.0017
683.3542	0.0058
683.5373	0.0037
683.7203	-0.0007
683.9034	0.0018
684.0864	-0.0005
684.2694	0.0024
684.4523	0.0092
684.6353	0.0035
684.8182	0.0083
685.0011	0.0005
685.184	0.0071
685.3669	0.0045
685.5498	0.0083
685.7326	0.0029
685.9154	0.0035
686.0982	0.0073
686.281	0.0084
686.4638	0.0071
686.6465	-0.0003
686.8293	0.0015
687.012	0.0072
687.1947	-0.0041
687.3774	0.0093
687.56	-0.0015
687.7427	0.0113
687.9253	-0.0033
688.1079	-0.0007
688.2905	0.015
688.4731	-0.0021
688.6556	-0.0033
688.8382	0.0001
689.0207	0.0054
689.2032	-0.0109
689.3857	-0.0123
689.5681	0.0048
689.7506	0.0048
689.933	-0.0024
690.1154	-0.0007
690.2978	0.0021
690.4802	0.0014
690.6626	-0.0075
690.8449	-0.0073
691.0272	0.0067
691.2095	-0.005
691.3918	-0.0019
691.5741	0.004
691.7563	0.0024
691.9386	0.0025
692.1208	0.0056
692.303	0.0046
692.4852	0.0013
692.6673	0.0019
692.8495	0.001
693.0316	0.0028
693.2137	-0.0072
693.3958	0.007
693.5778	0.003
693.7599	-0.0027
693.9419	0.0046
694.1239	0.0031
694.3059	0.0042
694.4879	0.014
694.6699	0.0149
694.8518	0.0006
695.0337	-0.0071
695.2157	0.0001
695.3975	-0.0027
695.5794	0.0057
695.7613	0.0004
695.9431	-0.0078
696.1249	-0.0008
696.3067	0.0054
696.4885	0.0068
696.6703	-0.0086
696.852	0.0037
697.0337	-0.002
697.2154	-0.0025
697.3971	0.0094
697.5788	0.0109
697.7605	-0.0005
697.9421	0.008
698.1237	0
698.3053	0.0029
698.4869	-0.0086
698.6685	-0.005
698.85	-0.0072
699.0315	0.0103
699.213	-0.0019
699.3945	0.0025
699.576	0.004
699.7575	0.009
699.9389	0.0127
700.1203	0.0002
700.3017	-0.008
700.4831	-0.0107
700.6645	-0.0106
700.8458	-0.0024
701.0271	-0.0059
701.2084	-0.0001
701.3897	-0.0045
701.571	-0.0022
701.7523	-0.0046
701.9335	-0.004
702.1147	-0.0094
702.2959	0.0029
702.4771	-0.003
702.6583	0.0017
702.8394	0.0003
703.0205	0.005
703.2016	-0.0029
703.3827	0.0007
703.5638	0.0072
703.7449	0.0042
703.9259	0.0147
704.1069	-0.0046
704.2879	0.0012
704.4689	0.0011
704.6499	0.0011
704.8308	-0.0008
705.0117	-0.0041
705.1927	-0.0007
705.3735	-0.0026
705.5544	-0.0065
705.7353	-0.0039
705.9161	-0.0035
706.0969	-0.0086
706.2777	-0.0007
706.4585	-0.0066
706.6393	-0.0076
706.82	-0.0075
707.0007	0.0062
707.1815	0.0009
707.3621	0.0078
707.5428	0.0012
707.7235	0.0113
707.9041	0.0057
708.0847	-0.0045
708.2653	-0.0032
708.4459	-0.0034
708.6265	-0.0029
708.807	-0.0014
708.9875	-0.0079
709.168	0.0054
709.3485	-0.0082
709.529	0.0024
709.7095	-0.0117
709.8899	0.0039
710.0703	-0.0082
710.2507	-0.0011
710.4311	0.0038
710.6115	-0.0069
710.7918	-0.0058
710.9721	0.002
711.1524	-0.007
711.3327	0.0069
711.513	0.0057
711.6932	0.0021
711.8735	0.0113
712.0537	0.0061
712.2339	-0.0039
712.4141	-0.0059
712.5942	-0.0001
712.7744	0.0007
712.9545	-0.0095
713.1346	-0.0031
713.3147	0
713.4947	0.0004
713.6748	0
713.8548	0.0015
714.0348	0.0014
714.2148	0.0048
714.3948	0.019
714.5748	0.0023
714.7547	-0.0061
714.9346	0.0171
715.1145	0.0014
715.2944	0.006
715.4743	0.0067
715.6541	0.0079
715.834	0.0179
716.0138	0.0039
716.1936	-0.0107
716.3733	-0.0005
716.5531	0.0078
716.7328	-0.003
716.9126	0.0038
717.0923	0.0046
717.2719	-0.0005
717.4516	0.0024
717.6312	-0.0021
717.8109	-0.0081
717.9905	-0.0006
718.1701	-0.0006
718.3496	-0.0114
718.5292	0.0013
718.7087	0.0072
718.8882	0.0012
719.0677	0.0055
719.2472	-0.0008
719.4267	0.0019
719.6061	-0.0037
719.7856	0.0037
719.965	0.0128
720.1443	0.0052
720.3237	0.0138
720.5031	0.0034
720.6824	0.0083
720.8617	0.0015
721.041	-0.0047
721.2203	0.0054
721.3995	0.0063
721.5788	0.0079
721.758	0.0115
721.9372	-0.0034
722.1164	0.0051
722.2956	0.0053
722.4747	0.0027
722.6538	-0.0029
722.8329	0.0154
723.012	0.0073
723.1911	-0.0043
723.3702	0.001
723.5492	-0.0031
723.7282	-0.0058
723.9072	-0.0004
724.0862	-0.0027
724.2652	0.0006
724.4441	-0.0031
724.623	0.0021
724.8019	-0.001
724.9808	-0.0006
725.1597	-0.0078
725.3385	0.0071
725.5174	-0.0005
725.6962	-0.0001
725.875	-0.0006
726.0538	0.0108
726.2325	0.0035
726.4112	0.0008
726.59	-0.0048
726.7687	0.0026
726.9474	-0
727.126	0.0043
727.3047	-0.0055
727.4833	0.0022
727.6619	0.0026
727.8405	0.0041
728.0191	0.0003
728.1976	0.0077
728.3762	-0.0029
728.5547	0.0004
728.7332	-0.0233
728.9116	0.0071
729.0901	0.0073
729.2686	-0.0035
729.447	-0.0018
729.6254	0.0039
729.8038	-0.0009
729.9821	-0.0105
730.1605	0.0012
730.3388	-0.0022
730.5171	-0.0013
730.6954	-0.0027
730.8737	-0.0002
731.0519	0.0125
731.2302	0.0062
731.4084	0.0113
731.5866	0.0052
731.7648	0.0057
731.9429	0.0063
732.1211	-0.0015
732.2992	0.0062
732.4773	-0.004
732.6554	0.0046
732.8335	0.0024
733.0115	0.0035
733.1896	0.0123
733.3676	-0.0059
733.5456	0.0071
733.7235	0.0094
733.9015	0.0005
734.0794	0.0027
734.2574	-0.0016
734.4353	0.0003
734.6131	0.0048
734.791	-0.0023
734.9689	0.0028
735.1467	0.0035
735.3245	-0.0041
735.5023	-0.0044
735.68	-0.0017
735.8578	0.0095
736.0355	-0.0125
736.2132	-0.0011
736.3909	-0.0029
736.5686	-0.0111
736.7463	-0.004
736.9239	-0.0073
737.1015	-0.009
737.2791	-0.001
737.4567	-0.0044
737.6343	0.001
737.8118	0.0008
737.9894	0.0075
738.1669	-0.0167
738.3444	-0.0081
738.5218	0.0046
738.6993	0.0018
738.8767	-0.0081
739.0541	0.0094
739.2315	-0.0074
739.4089	0.003
739.5863	0.0158
739.7636	0.0013
739.9409	0.0025
740.1182	0.0042
740.2955	0.0065
740.4728	-0.0059
740.65	-0.0055
740.8272	0.0017
741.0044	-0.0021
741.1816	-0.0043
741.3588	-0.0062
741.5359	0.001
741.7131	-0.0062
741.8902	-0.0041
742.0673	-0.0011
742.2444	-0.0088
742.4214	-0.0057
742.5985	-0.0051
742.7755	-0.0118
742.9525	-0.0079
743.1295	0.0007
743.3064	0.0004
743.4834	0.0049
743.6603	0.0081
743.8372	-0.0034
744.0141	0.0142
744.191	0.0029
744.3678	0.0027
744.5446	-0.0002
744.7215	-0.0002
744.8982	-0.0046
745.075	-0.0026
745.2518	0.0008
745.4285	0.0023
745.6052	0.0019
745.7819	0.0004
745.9586	-0.01
746.1353	-0.0036
746.3119	-0.0081
746.4885	-0.0088
746.6651	-0.0032
746.8417	0.001
747.0183	-0.0046
747.1948	-0.0078
747.3714	0.0002
747.5479	0.0043
747.7244	-0.0096
747.9008	0.0117
748.0773	0.0036
748.2537	-0.0014
748.4301	0.0044
748.6065	-0.0003
748.7829	-0.0013
748.9593	-0.0019
749.1356	-0.0091
749.3119	0.0067
749.4882	-0.0057
749.6645	0.0069
749.8408	-0.0058
750.017	-0.007
750.1933	0.0034
750.3695	-0.0047
750.5457	0.0061
750.7218	0.0041
750.898	-0.0031
751.0741	0.0064
751.2502	-0.0016
751.4263	-0.0039
751.6024	0.0009
751.7784	-0.0013
751.9545	-0.011
752.1305	-0.0007
752.3065	-0.0115
752.4825	-0.0013
752.6584	-0.0125
752.8344	-0.0089
753.0103	-0.0134
753.1862	-0.0125
753.3621	-0.0035
753.5379	-0.0086
753.7138	0.0035
753.8896	-0.0018
754.0654	0.0025
754.2412	0.001
754.417	0.0015
754.5927	-0.0078
754.7685	-0.0032
754.9442	0.0023
755.1199	0.0066
755.2956	-0.0109
755.4712	0.0109
755.6469	0.0043
755.8225	-0.0002
755.9981	-0.0077
756.1736	-0.0042
756.3492	-0.0055
756.5248	-0.0137
756.7003	0.0013
756.8758	0
757.0513	-0.014
757.2267	-0.0064
757.4022	0.0033
757.5776	-0.0109
757.753	-0.0025
757.9284	0.0039
758.1038	0.0072
758.2791	0.0073
758.4545	-0.0102
758.6298	-0.0032
758.8051	0.0063
758.9803	0.0028
759.1556	0.0064
759.3308	-0.0004
759.506	0.0094
759.6812	0.0116
759.8564	0.0088
760.0316	0.0061
760.2067	0.0031
760.3819	0.0099
760.557	0.0137
760.732	0.0035
760.9071	0.0003
761.0821	0.0025
761.2572	0.0049
761.4322	0.0025
761.6072	-0.0052
761.7821	-0.0081
761.9571	0.0067
762.132	-0.0011
762.3069	-0.005
762.4818	-0.0115
762.6567	0.0044
762.8316	-0.0072
763.0064	-0.0001
763.1812	-0.0023
763.356	-0.0104
763.5308	-0.0085
763.7055	-0.0031
763.8803	-0.0037
764.055	-0.0035
764.2297	-0.0073
764.4044	-0.0065
764.579	-0.0084
764.7537	-0.0189
764.9283	-0.0031
765.1029	-0.0167
765.2775	-0.0053
765.4521	-0.0008
765.6266	-0.0078
765.8011	-0.0056
765.9756	-0.0077
766.1501	0.0046
766.3246	-0.0014
766.4991	-0.004
766.6735	0.0018
766.8479	-0.012
767.0223	0.0149
767.1967	-0.0044
767.371	0.0013
767.5454	-0.0076
767.7197	0.0119
767.894	-0.0037
768.0683	-0.0066
768.2425	0.0007
768.4168	-0.002
768.591	0.0108
768.7652	0.0049
768.9394	-0.0065
769.1135	-0.0027
769.2877	-0.003
769.4618	-0.0005
769.6359	0.0038
769.81	-0.0058
769.984	0.0016
770.1581	-0.0074
770.3321	-0.002
770.5061	-0.0071
770.6801	0.0012
770.8541	-0.0059
771.028	-0.0045
771.202	-0.0191
771.3759	0.0035
771.5498	-0.0174
771.7236	0.005
771.8975	-0.0066
772.0713	0.0142
772.2451	-0.0013
772.4189	0.011
772.5927	0.0115
772.7665	0.0111
772.9402	0.004
773.1139	0.0123
773.2876	-0.001
773.4613	0.0097
773.635	0.0108
773.8086	-0
773.9822	0.0044
774.1558	0.0083
774.3294	-0.0067
774.503	0.0039
774.6765	0.0118
774.8501	-0.0018
775.0236	0.0027
775.1971	0.0107
775.3705	-0.0043
775.544	0.0097
775.7174	-0.0101
775.8908	-0.0038
776.0642	-0.0034
776.2376	0.004
776.4109	-0.0017
776.5843	-0.0078
776.7576	0.0001
776.9309	0.009
777.1041	0.0111
777.2774	0.0041
777.4506	-0.0058
777.6238	-0.0116
777.797	-0.0021
777.9702	0.0005
778.1434	0.0046
778.3165	-0.0067
778.4896	0.0019
778.6627	0.0151
778.8358	0.0039
779.0089	0.0022
779.1819	0.0059
779.3549	0.0088
779.5279	0.0092
779.7009	0.0141
779.8739	-0.0009
780.0468	0.0034
780.2197	0.0149
780.3926	0.0056
780.5655	0.0004
780.7384	0.0073
780.9112	0.0114
781.0841	-0.0068
781.2569	0.007
781.4297	0.0088
781.6024	0.0105
781.7752	0.0056
781.9479	0.0142
782.1206	0.0133
782.2933	-0.0105
782.466	0.0047
782.6386	0.0173
782.8113	0.0055
782.9839	0.0127
783.1565	0.0142
783.329	-0.0021
783.5016	0.0037
783.6741	0.0054
783.8466	-0.0105
784.0191	0.0197
784.1916	-0.0076
784.3641	0.0061
784.5365	0.0029
784.7089	0.0025
784.8813	0.0041
785.0537	0.0049
785.2261	0.0093
785.3984	-0.0175
785.5707	-0.0158
785.743	-0.0012
785.9153	-0.0104
786.0876	0.0031
786.2598	-0.0128
786.432	-0.0057
786.6042	0.0097
786.7764	-0.008
786.9486	0.0025
787.1207	-0.0186
787.2928	0.0083
787.4649	0.0039
787.637	0.0004
787.8091	-0.0079
787.9811	-0.0084
788.1532	-0.0041
788.3252	-0.0005
788.4972	-0.0178
788.6691	0.0041
788.8411	-0.0011
789.013	-0.0137
789.1849	-0.0022
789.3568	-0.0026
789.5287	0.0034
789.7005	-0.0126
789.8723	0.0007
790.0442	0.0192
790.2159	-0.0062
790.3877	-0.0017
790.5595	-0.0109
790.7312	0.0006
790.9029	-0.0057
791.0746	-0.0048
791.2463	-0.005
791.4179	0.0074
791.5896	-0.0021
791.7612	0.0064
791.9328	-0.0007
792.1044	-0.0146
792.2759	-0.0104
792.4474	-0.008
792.619	-0.0054
792.7905	0.0048
792.9619	-0.0035
793.1334	0.0046
793.3048	0.0209
793.4762	-0.0019
793.6476	0.0043
793.819	-0.0023
793.9904	-0.0072
794.1617	-0.0068
794.333	-0.0043
794.5043	-0.0122
794.6756	-0.0065
794.8469	-0.0096
795.0181	0.0049
795.1893	-0.0032
795.3605	0.0107
795.5317	-0.0102
795.7029	-0.0072
795.874	-0.0031
796.0452	-0.0093
796.2163	-0.0015
796.3873	0.0015
796.5584	0.0031
796.7294	-0.0137
796.9005	0.0024
797.0715	-0.0044
797.2425	-0.0263
797.4134	-0.0144
797.5844	-0.0167
797.7553	-0.0217
797.9262	-0.018
798.0971	-0.0184
798.2679	-0.012
798.4388	-0.035
798.6096	0.0084
798.7804	-0.0161
798.9512	-0.0002
799.122	-0.0166
799.2927	-0.0029
799.4635	-0.0174
799.6342	-0.0332
799.8049	-0.023
799.9755	-0.0186
800.1462	-0.0177
800.3168	-0.0058
800.4874	-0.0107
800.658	0.0154
800.8286	0.0033
800.9991	0.0085
801.1696	-0.0016
801.3402	0.0134
801.5106	-0.0089
801.6811	-0.0068
801.8516	0.0018
802.022	-0.0072
802.1924	-0.0013
802.3628	-0.0091
802.5332	0.004
802.7035	0.0098
802.8739	-0.0209
803.0442	-0.0112
803.2145	-0.005
803.3847	-0.0224
803.555	-0.0081
803.7252	-0.0167
803.8954	-0.0211
804.0656	-0.0374
804.2358	-0.0159
804.4059	-0.0194
804.5761	-0.0054
804.7462	-0.0185
804.9163	-0.0119
805.0864	-0.0224
805.2564	0.0031
805.4264	-0.0053
805.5965	-0.0107
805.7665	0.0053
805.9364	-0.0102
806.1064	0.0178
806.2763	-0.0037
806.4462	0.0078
806.6161	-0.0095
806.786	0.0004
806.9559	-0.0185
807.1257	0.0009
807.2955	-0.0108
807.4653	-0.0048
807.6351	-0.0081
807.8048	-0.0187
807.9746	0.0006
808.1443	0.0034
808.314	-0.0152
808.4837	-0.0172
808.6533	-0.0284
808.8229	-0.0003
808.9926	-0.0055
809.1622	0.0021
809.3317	-0.0269
809.5013	-0.0165
809.6708	-0.0001
809.8403	-0.0103
810.0098	-0.0194
810.1793	-0.0103
810.3488	-0.0231
810.5182	-0.0351
810.6876	-0.013
810.857	-0.0174
811.0264	0.0232
811.1958	-0.0001
811.3651	0.0031
811.5344	0.0012
811.7037	-0.0155
811.873	-0.0173
812.0422	-0.0061
812.2115	0.0007
812.3807	-0.0046
812.5499	0.01
812.7191	0.0015
812.8882	-0.0265
813.0574	-0.0048
813.2265	-0.0009
813.3956	-0.0036
813.5646	-0.0012
813.7337	-0.0263
813.9027	-0.0063
814.0718	0.0162
814.2407	-0.0046
814.4097	-0.0081
814.5787	-0.0018
814.7476	-0.0143
814.9165	-0.0181
815.0854	0.0192
815.2543	-0.001
815.4232	-0.0079
815.592	0.0125
815.7608	-0.0112
815.9296	-0.0074
816.0984	-0.017
816.2671	-0.0276
816.4359	-0.0016
816.6046	0.0005
816.7733	-0.0139
816.942	-0.0254
817.1106	-0.0016
817.2793	0.0015
817.4479	-0.0032
817.6165	0.0104
817.785	-0.0101
817.9536	-0.0225
818.1221	-0.0171
818.2906	-0.0108
818.4591	-0.0014
818.6276	-0.0273
818.7961	-0.0157
818.9645	0.0046
819.1329	-0.0047
819.3013	0.0064
819.4697	0.0132
819.638	-0.0133
819.8064	0.0006
819.9747	0.0242
820.143	-0.0129
820.3113	-0.0367
820.4795	-0.0001
820.6477	-0.0096
820.816	-0.0242
820.9842	-0.009
821.1523	-0.0468
821.3205	-0.043
821.4886	-0.0216
821.6567	-0.0176
821.8248	-0.0063
821.9929	-0.0042
822.1609	-0.0164
822.329	0.0038
822.497	0.0185
822.665	-0.0001
822.833	-0.0013
823.0009	0.0003
823.1688	0.0063
823.3367	0.0255
823.5046	0.0095
823.6725	0.0244
823.8404	0.0279
824.0082	0.0114
824.176	0.0151
824.3438	0.0286
824.5116	-0.0068
824.6793	-0.0143
824.847	-0.0112
825.0147	-0.0306
825.1824	0.0132
825.3501	0.0099
825.5177	-0.0171
825.6854	-0.0141
825.853	-0.0084
826.0206	-0.0224
826.1881	-0.0061
826.3557	-0.0338
826.5232	-0.013
826.6907	-0.0343
826.8582	-0.0148
827.0257	0.0017
827.1931	0.0071
827.3605	-0.0212
827.528	-0.0184
827.6953	-0.0264
827.8627	-0.0207
828.03	0.0061
828.1974	-0.0208
828.3647	-0.0456
828.532	-0.0065
828.6992	-0.0288
828.8665	-0.0166
829.0337	-0.0295
829.2009	-0.0056
829.3681	-0.0321
829.5352	-0.018
829.7024	-0.0212
829.8695	-0.0433
830.0366	0.0333
830.2037	-0.0097
830.3707	0.0003
830.5378	-0.0007
830.7048	0.0131
830.8718	-0.0167
831.0388	-0.0359
831.2057	-0.0076
831.3727	-0.0053
831.5396	-0.025
831.7065	-0.0031
831.8734	-0.0135
832.0402	-0.0538
832.2071	-0.0254
832.3739	-0.043
832.5407	-0.0346
832.7075	-0.0413
832.8742	-0.0361
833.041	-0.078
833.2077	-0.0164
833.3744	0.0209
833.541	-0.0372
833.7077	-0.007
833.8743	-0.0408
834.0409	0.0185
834.2075	-0.0158
834.3741	-0.0518
834.5407	0.0538
834.7072	-0.0127
834.8737	-0.0358
835.0402	-0.0357
835.2067	0.0086
835.3731	0.0465
835.5395	0.0043
835.706	-0.0235
835.8723	-0.0314
836.0387	-0.0096
836.2051	-0.0232
836.3714	-0.045
836.5377	0.0011
836.704	-0.0601
836.8703	0.0203
837.0365	-0.0046
837.2027	-0.0502
837.3689	-0.0078
837.5351	0.0088
837.7013	-0.0485
837.8674	-0.056
838.0335	-0.0563
838.1997	-0.0099
838.3657	-0.0284
838.5318	0.0005
838.6978	0.0181
838.8639	0.0179
839.0299	0.0075
839.1958	-0.0018
839.3618	-0.0146
839.5277	-0.022
839.6937	-0.0125
839.8596	-0.0507
840.0254	0.0218
840.1913	0.0047
840.3571	0.0343
840.523	-0.0623
840.6888	-0.0059
840.8545	-0.0425
841.0203	-0.0514
841.186	-0.0488
841.3517	-0.0178
841.5174	0.0103
841.6831	-0.0633
841.8488	-0.0057
842.0144	-0.0173
842.18	-0.0335
842.3456	-0.0087
842.5112	-0.0211
842.6767	-0.01
842.8422	-0.0099
843.0077	-0.0253
843.1732	-0.0641
843.3387	-0.0566
843.5042	-0.051
843.6696	-0.0076
843.835	-0.0444
844.0004	0.0145
844.1657	0.0297
844.3311	-0.047
844.4964	-0.0964
844.6617	-0.0556
844.827	-0.0528
844.9923	-0.0004
845.1575	-0.0705
845.3227	0.0161
845.4879	-0.0591
845.6531	-0.0886
845.8183	-0.0583
845.9834	-0.0397
846.1485	-0.0236
846.3136	-0.0518
846.4787	-0.0746
846.6438	0.0166
846.8088	0.0616
846.9738	-0.1033
847.1388	0.0241
847.3038	-0.0504
847.4687	-0.1204
847.6337	-0.0094
847.7986	-0.0397
847.9635	-0.0411
848.1284	0.0148
848.2932	0.0625
848.458	-0.0073
848.6228	0.0717
848.7876	0.0777
848.9524	-0.0462
849.1172	-0.1084
849.2819	-0.0442
849.4466	-0.1446
849.6113	-0.1227
849.7759	-0.0443
849.9406	-0.0074
850.1052	-0.0068
850.2698	0.0431
850.4344	0.0277
850.599	-0.0669
850.7635	-0.0204
850.928	-0.0289
851.0925	-0.058
851.257	0.0441
851.4215	-0.0352
851.5859	-0.1586
851.7503	0.0215
851.9147	-0.0214
852.0791	-0.1331
852.2434	-0.0752
852.4078	0.0732
852.5721	-0.0346
852.7364	-0.0167
852.9007	-0.1866
853.0649	0.074
853.2291	-0.0274
853.3934	-0.1544
853.5575	0.117
853.7217	-0.0172
853.8859	-0.1544
854.05	-0.0954
854.2141	-0.0702
854.3782	-0.1038
854.5423	-0.0811
854.7063	0.0625
854.8703	0.0612
855.0343	0.0523
855.1983	-0.2042
855.3623	0.0923
855.5262	-0.0249
855.6901	0.0294
855.854	0.0589
856.0179	-0.0095
856.1818	0.026
856.3456	0.0452
856.5094	-0.1323
856.6732	-0.1067
856.837	0.0173
857.0008	-0.0334
857.1645	-0.063
857.3282	-0.1603
857.4919	-0.0463
857.6556	-0.0134
857.8192	-0.0762
857.9828	-0.1191
858.1465	-0.086
858.31	-0.1074
858.4736	-0.1038
858.6372	-0.3812
858.8007	-0.0537
858.9642	-0.006
859.1277	0.1259
859.2911	0.1319
859.4546	0.0019
859.618	-0.4089
859.7814	-0.0664
859.9448	-0.0656
860.1081	-0.1002
860.2715	0.2575
860.4348	-0.2043
860.5981	0.0534
860.7614	0.0625
860.9246	-0.1342
861.0879	-0.0715
861.2511	-0.0921
861.4143	-0.16
861.5774	0.0971
861.7406	-0.198
861.9037	-0.0013
862.0668	-0.2486
862.2299	-0.0435
862.393	-0.587
862.556	-0.0704
862.7191	-0.4572
862.8821	-0.2193
863.0451	-0.1329
863.208	-0.0844
863.371	0.0075
863.5339	-0.1301
863.6968	-0.0481
863.8597	-0.1301
864.0225	-0.0971
864.1854	-0.2337
864.3482	-0.0157
864.511	0.1071
864.6737	-0.0852
864.8365	-0.0025
864.9992	-0.4599
865.1619	-0.3619
865.3246	-0.1059
865.4873	0.0395
865.65	-0.3099
865.8126	0.3895
865.9752	-0.0621
866.1378	-0.3528
866.3004	0.1819
866.4629	0.3176
866.6254	-0.2523
866.7879	-0.251
866.9504	0.3596
867.1129	-0
867.2753	0.2313
867.4377	0.253
867.6001	-0.2693
867.7625	-0.0901
867.9249	-0
868.0872	-0.0813
868.2495	0.3205
868.4118	0.2067
868.5741	-0.3697
868.7363	-0.3379
868.8986	-0.4928
869.0608	-0.2722
869.223	0.6732
869.3851	0.105
869.5473	-0
869.7094	-0.0308
869.8715	0.6872
870.0336	-1.1761
870.1957	-0.26
870.3577	-0.9271
870.5197	0.0521
870.6817	-0.3324
870.8437	-0.0217
871.0057	-0.5458
871.1676	-0
871.3295	0.6061
871.4914	-0
871.6533	-0.3515
871.8151	-0.4588
871.977	-0
872.1388	-0
872.3006	-0.3149
872.4623	0.1027
872.6241	0.0705
872.7858	-0
872.9475	-0.315
873.1092	0.2507
873.2709	0.8846
873.4325	-0.3021
873.5941	0.1729
873.7557	-0
873.9173	-0
874.0789	0.1729
874.2404	-0
874.4019	-0
874.5634	-0.2553
874.7249	-0.2375
874.8863	-0.2166
875.0478	-0.0251
875.2092	-0
875.3706	0.4837
875.5319	-0.8608
875.6933	1.1825
875.8546	-0.5594
876.0159	-0
876.1772	0.2985
876.3385	-0.0404
876.4997	0.6619
876.6609	-0.0845
876.8221	0.1053
876.9833	0.0292
877.1445	-0
877.3056	0.1123
877.4667	-0.4855
877.6278	0.0609
877.7889	-0.5076
877.9499	-0
878.111	-0
878.272	-0
878.433	-0
878.5939	0.3587
878.7549	0.0081
878.9158	-0.639
879.0767	-0
879.2376	0.4285
879.3984	-0
879.5593	-0
879.7201	-0.3737
879.8809	-0.7212
880.0417	-0.0094
880.2024	-0.0505
880.3632	-0
880.5239	0.3701
880.6846	-0.3501
880.8452	-2.6675
881.0059	-0
881.1665	0.0041
881.3271	0.1004
881.4877	-0.6961
881.6483	-0.5289
881.8088	-0.434
881.9693	-0
882.1298	-0
882.2903	-0
