Data from MonoPyChalIsomerACN10uM420nmA_Absorbance_15-09-57-334.txt Node
Date: Fri Jul 05 15:09:57 BST 2024
User: LASERRRRR
Spectrometer: FLMT03099
Trigger mode: 0
Integration Time (sec): 1.000000E-1
Scans to average: 1
Electric dark correction enabled: true
Nonlinearity correction enabled: false
Boxcar width: 0
XAxis mode: Wavelengths
Number of Pixels in Spectrum: 3648
>>>>>Begin Spectral Data<<<<<
179.3399	0.1489
179.5586	0.1489
179.7771	0.1489
179.9957	-0
180.2143	-0
180.4329	-0.1514
180.6514	0.4375
180.8699	-0
181.0885	-0.172
181.307	0.6909
181.5255	-0.6657
181.744	-0
181.9625	-0
182.181	-0
182.3994	-0
182.6179	0.4726
182.8363	0.2211
183.0547	-0.3781
183.2732	-0.1636
183.4916	0.3722
183.71	-0.0635
183.9284	0.053
184.1467	0.0548
184.3651	-0.0958
184.5835	-0.1331
184.8018	-0.1662
185.0201	-0.0214
185.2385	-0.0076
185.4568	0.0743
185.6751	0.0931
185.8934	0.1019
186.1117	0.1374
186.3299	-0.0595
186.5482	0.2915
186.7664	-0.2153
186.9847	-0.1475
187.2029	-0.0733
187.4211	0.1387
187.6393	-0.0706
187.8575	-0.121
188.0757	0.2239
188.2939	-0.0421
188.512	0.0741
188.7302	0.1246
188.9483	-0.1472
189.1665	0.0821
189.3846	-0.1879
189.6027	0.0303
189.8208	0.121
190.0389	-0.0268
190.257	0.0979
190.475	0.1226
190.6931	0.2663
190.9111	0.3213
191.1292	0.2049
191.3472	0.3027
191.5652	0.2754
191.7832	0.123
192.0012	0.5087
192.2192	0.4348
192.4371	0.3511
192.6551	0.3604
192.873	0.3037
193.091	0.3166
193.3089	0.4066
193.5268	0.4157
193.7447	0.2922
193.9626	0.3687
194.1805	0.4323
194.3984	0.753
194.6162	0.5168
194.8341	0.4737
195.0519	0.5433
195.2697	0.6528
195.4875	0.6779
195.7054	0.5278
195.9231	0.5215
196.1409	0.5822
196.3587	0.5904
196.5765	0.5005
196.7942	0.4605
197.012	0.538
197.2297	0.5559
197.4474	0.6633
197.6651	0.5829
197.8828	0.5106
198.1005	0.6135
198.3182	0.6602
198.5358	0.7858
198.7535	0.6399
198.9711	0.5963
199.1888	0.5233
199.4064	0.7062
199.624	0.7477
199.8416	0.4543
200.0592	0.5512
200.2767	0.6757
200.4943	0.5395
200.7119	0.8115
200.9294	0.5985
201.1469	0.5678
201.3645	0.5904
201.582	0.5918
201.7995	0.6445
202.017	0.5671
202.2344	0.5232
202.4519	0.6866
202.6694	0.5454
202.8868	0.6336
203.1042	0.7607
203.3217	0.663
203.5391	0.5538
203.7565	0.6315
203.9739	0.5724
204.1913	0.5701
204.4086	0.7396
204.626	0.7323
204.8433	0.6254
205.0607	0.6247
205.278	0.7433
205.4953	0.5454
205.7126	0.7992
205.9299	0.7201
206.1472	0.7435
206.3644	0.5777
206.5817	0.6294
206.7989	0.6136
207.0162	0.6384
207.2334	0.642
207.4506	0.591
207.6678	0.6165
207.885	0.6784
208.1022	0.6434
208.3194	0.6383
208.5365	0.6948
208.7537	0.669
208.9708	0.5941
209.1879	0.6286
209.405	0.7131
209.6222	0.6783
209.8392	0.6475
210.0563	0.6436
210.2734	0.6433
210.4905	0.6425
210.7075	0.6043
210.9245	0.5666
211.1416	0.6392
211.3586	0.6154
211.5756	0.5865
211.7926	0.5466
212.0096	0.5589
212.2265	0.5919
212.4435	0.601
212.6604	0.55
212.8774	0.5746
213.0943	0.6262
213.3112	0.5295
213.5281	0.5014
213.745	0.5205
213.9619	0.5008
214.1788	0.4694
214.3956	0.4755
214.6125	0.5024
214.8293	0.4296
215.0461	0.4738
215.2629	0.4484
215.4798	0.49
215.6965	0.4265
215.9133	0.3846
216.1301	0.4043
216.3469	0.4356
216.5636	0.3841
216.7803	0.4149
216.9971	0.3573
217.2138	0.3796
217.4305	0.4019
217.6472	0.3469
217.8639	0.3688
218.0805	0.3337
218.2972	0.3516
218.5138	0.3292
218.7305	0.3138
218.9471	0.3057
219.1637	0.2782
219.3803	0.2711
219.5969	0.2914
219.8135	0.2198
220.0301	0.2631
220.2466	0.2657
220.4632	0.2628
220.6797	0.2184
220.8962	0.2401
221.1127	0.2573
221.3292	0.2381
221.5457	0.2556
221.7622	0.2201
221.9787	0.242
222.1951	0.222
222.4116	0.2733
222.628	0.247
222.8444	0.2507
223.0608	0.2466
223.2772	0.239
223.4936	0.2683
223.71	0.2327
223.9264	0.2543
224.1427	0.2315
224.3591	0.221
224.5754	0.2475
224.7917	0.2619
225.008	0.2467
225.2243	0.2369
225.4406	0.2603
225.6569	0.2629
225.8732	0.2421
226.0894	0.2699
226.3057	0.272
226.5219	0.2711
226.7381	0.2716
226.9543	0.2856
227.1705	0.2809
227.3867	0.2661
227.6029	0.2968
227.8191	0.2897
228.0352	0.3054
228.2513	0.3002
228.4675	0.3029
228.6836	0.2994
228.8997	0.2809
229.1158	0.3108
229.3319	0.2945
229.548	0.2987
229.764	0.3215
229.9801	0.3151
230.1961	0.3307
230.4121	0.3213
230.6282	0.3351
230.8442	0.3115
231.0602	0.3434
231.2761	0.3507
231.4921	0.3119
231.7081	0.3433
231.924	0.3423
232.14	0.343
232.3559	0.3495
232.5718	0.357
232.7877	0.3684
233.0036	0.3381
233.2195	0.3606
233.4353	0.3327
233.6512	0.3317
233.867	0.3622
234.0829	0.3658
234.2987	0.3831
234.5145	0.3711
234.7303	0.3612
234.9461	0.3938
235.1619	0.3658
235.3776	0.3607
235.5934	0.3879
235.8091	0.3523
236.0249	0.3756
236.2406	0.3725
236.4563	0.3773
236.672	0.3853
236.8877	0.3972
237.1034	0.3911
237.319	0.3814
237.5347	0.3873
237.7503	0.4007
237.966	0.3878
238.1816	0.3974
238.3972	0.4025
238.6128	0.4072
238.8284	0.3982
239.0439	0.3992
239.2595	0.4091
239.475	0.42
239.6906	0.3998
239.9061	0.4048
240.1216	0.4123
240.3371	0.3947
240.5526	0.3875
240.7681	0.4188
240.9836	0.3952
241.199	0.4035
241.4145	0.3998
241.6299	0.3864
241.8453	0.3906
242.0607	0.4093
242.2761	0.3743
242.4915	0.3806
242.7069	0.3857
242.9223	0.376
243.1376	0.371
243.353	0.3747
243.5683	0.3848
243.7836	0.3669
243.9989	0.3532
244.2142	0.3232
244.4295	0.3371
244.6448	0.3387
244.86	0.3169
245.0753	0.3194
245.2905	0.3161
245.5057	0.3029
245.721	0.3025
245.9362	0.2945
246.1514	0.2934
246.3665	0.2852
246.5817	0.2866
246.7969	0.2715
247.012	0.2677
247.2271	0.269
247.4423	0.2652
247.6574	0.2683
247.8725	0.2494
248.0876	0.2595
248.3026	0.2436
248.5177	0.2448
248.7328	0.2419
248.9478	0.2237
249.1628	0.2462
249.3779	0.235
249.5929	0.2125
249.8079	0.2306
250.0228	0.2112
250.2378	0.2097
250.4528	0.2221
250.6677	0.195
250.8827	0.2125
251.0976	0.2092
251.3125	0.1946
251.5274	0.1931
251.7423	0.2016
251.9572	0.1923
252.172	0.1939
252.3869	0.1981
252.6017	0.182
252.8166	0.1781
253.0314	0.1905
253.2462	0.1751
253.461	0.1883
253.6758	0.1833
253.8906	0.1859
254.1053	0.1771
254.3201	0.1814
254.5348	0.1895
254.7496	0.1851
254.9643	0.1843
255.179	0.1696
255.3937	0.1779
255.6083	0.186
255.823	0.1752
256.0377	0.1725
256.2523	0.1708
256.467	0.148
256.6816	0.1714
256.8962	0.1703
257.1108	0.159
257.3254	0.182
257.54	0.1631
257.7545	0.1745
257.9691	0.1804
258.1836	0.1619
258.3981	0.1817
258.6127	0.1749
258.8272	0.1691
259.0417	0.1579
259.2561	0.1691
259.4706	0.1673
259.6851	0.1715
259.8995	0.1535
260.114	0.1559
260.3284	0.1732
260.5428	0.1599
260.7572	0.1898
260.9716	0.1708
261.186	0.174
261.4003	0.1789
261.6147	0.1732
261.829	0.1724
262.0433	0.1857
262.2577	0.1762
262.472	0.17
262.6863	0.1642
262.9005	0.1727
263.1148	0.1737
263.3291	0.165
263.5433	0.1676
263.7576	0.1657
263.9718	0.1797
264.186	0.1711
264.4002	0.1755
264.6144	0.1679
264.8286	0.1814
265.0427	0.182
265.2569	0.172
265.471	0.1704
265.6851	0.1611
265.8993	0.1707
266.1134	0.168
266.3275	0.1692
266.5415	0.1673
266.7556	0.1842
266.9697	0.1769
267.1837	0.1633
267.3978	0.1646
267.6118	0.1778
267.8258	0.1905
268.0398	0.173
268.2538	0.1872
268.4677	0.169
268.6817	0.1626
268.8957	0.173
269.1096	0.1773
269.3235	0.1709
269.5374	0.16
269.7514	0.1807
269.9652	0.1595
270.1791	0.1614
270.393	0.1621
270.6068	0.1767
270.8207	0.1651
271.0345	0.1669
271.2483	0.1833
271.4622	0.1586
271.676	0.1725
271.8897	0.1613
272.1035	0.1618
272.3173	0.1621
272.531	0.1748
272.7448	0.1618
272.9585	0.1548
273.1722	0.1723
273.3859	0.17
273.5996	0.1613
273.8133	0.186
274.0269	0.1576
274.2406	0.1698
274.4542	0.1661
274.6679	0.1617
274.8815	0.1783
275.0951	0.1759
275.3087	0.1737
275.5223	0.1765
275.7358	0.1674
275.9494	0.1731
276.1629	0.1616
276.3765	0.1791
276.59	0.1692
276.8035	0.1654
277.017	0.1672
277.2305	0.1719
277.444	0.176
277.6574	0.1728
277.8709	0.1734
278.0843	0.1673
278.2978	0.1626
278.5112	0.1633
278.7246	0.1707
278.938	0.1824
279.1513	0.1686
279.3647	0.1825
279.5781	0.1666
279.7914	0.1835
280.0047	0.1783
280.2181	0.1826
280.4314	0.1822
280.6447	0.1684
280.8579	0.1741
281.0712	0.1818
281.2845	0.1777
281.4977	0.1729
281.711	0.1617
281.9242	0.1677
282.1374	0.1815
282.3506	0.1764
282.5638	0.1841
282.7769	0.1729
282.9901	0.172
283.2033	0.1777
283.4164	0.1698
283.6295	0.1636
283.8426	0.1822
284.0557	0.1777
284.2688	0.1812
284.4819	0.171
284.695	0.166
284.908	0.1769
285.1211	0.1675
285.3341	0.1637
285.5471	0.1764
285.7601	0.1744
285.9731	0.16
286.1861	0.1663
286.3991	0.1758
286.612	0.1753
286.825	0.1554
287.0379	0.177
287.2508	0.1687
287.4637	0.1602
287.6766	0.154
287.8895	0.162
288.1024	0.1644
288.3152	0.1653
288.5281	0.1576
288.7409	0.1679
288.9538	0.1677
289.1666	0.1614
289.3794	0.1556
289.5922	0.1453
289.8049	0.1509
290.0177	0.159
290.2304	0.152
290.4432	0.1594
290.6559	0.1611
290.8686	0.1657
291.0813	0.1393
291.294	0.1523
291.5067	0.1562
291.7194	0.1582
291.932	0.1744
292.1447	0.1443
292.3573	0.1441
292.5699	0.1521
292.7825	0.1569
292.9951	0.1474
293.2077	0.1526
293.4203	0.1452
293.6328	0.1438
293.8454	0.1604
294.0579	0.1493
294.2704	0.1468
294.4829	0.1479
294.6954	0.1509
294.9079	0.1479
295.1204	0.1453
295.3328	0.1375
295.5453	0.1503
295.7577	0.146
295.9701	0.1408
296.1825	0.1571
296.3949	0.1411
296.6073	0.1475
296.8197	0.1358
297.0321	0.1504
297.2444	0.1271
297.4567	0.1473
297.6691	0.1427
297.8814	0.1418
298.0937	0.1366
298.306	0.1482
298.5182	0.147
298.7305	0.1443
298.9428	0.1348
299.155	0.1555
299.3672	0.1384
299.5794	0.1439
299.7916	0.142
300.0038	0.1506
300.216	0.1618
300.4282	0.1465
300.6403	0.129
300.8525	0.1444
301.0646	0.1425
301.2767	0.1406
301.4888	0.1499
301.7009	0.1463
301.913	0.1368
302.125	0.146
302.3371	0.1434
302.5491	0.1331
302.7612	0.1474
302.9732	0.1511
303.1852	0.145
303.3972	0.1382
303.6092	0.1436
303.8211	0.1401
304.0331	0.1323
304.245	0.1362
304.457	0.1396
304.6689	0.1261
304.8808	0.1431
305.0927	0.1378
305.3046	0.129
305.5164	0.1449
305.7283	0.1298
305.9401	0.1485
306.152	0.134
306.3638	0.1442
306.5756	0.1421
306.7874	0.133
306.9992	0.1393
307.2109	0.1322
307.4227	0.1176
307.6344	0.1329
307.8462	0.1259
308.0579	0.1263
308.2696	0.1266
308.4813	0.1257
308.693	0.1281
308.9046	0.1328
309.1163	0.1292
309.328	0.1161
309.5396	0.1204
309.7512	0.1241
309.9628	0.1144
310.1744	0.1192
310.386	0.1174
310.5976	0.1173
310.8091	0.1185
311.0207	0.1265
311.2322	0.1316
311.4437	0.1169
311.6552	0.1176
311.8667	0.125
312.0782	0.0997
312.2897	0.1034
312.5012	0.118
312.7126	0.1106
312.924	0.1093
313.1355	0.124
313.3469	0.1189
313.5583	0.1134
313.7696	0.1246
313.981	0.1086
314.1924	0.1078
314.4037	0.1118
314.6151	0.1273
314.8264	0.108
315.0377	0.1062
315.249	0.1141
315.4603	0.1136
315.6716	0.1138
315.8828	0.1117
316.0941	0.116
316.3053	0.1183
316.5165	0.117
316.7277	0.104
316.9389	0.1265
317.1501	0.1057
317.3613	0.1137
317.5724	0.0943
317.7836	0.1068
317.9947	0.1169
318.2058	0.1183
318.417	0.1085
318.6281	0.1048
318.8391	0.1092
319.0502	0.1044
319.2613	0.1084
319.4723	0.118
319.6834	0.1153
319.8944	0.1063
320.1054	0.1129
320.3164	0.1261
320.5274	0.1076
320.7383	0.1047
320.9493	0.1155
321.1602	0.1146
321.3712	0.1103
321.5821	0.1168
321.793	0.1101
322.0039	0.121
322.2148	0.1046
322.4257	0.117
322.6365	0.1241
322.8474	0.1186
323.0582	0.1069
323.269	0.1212
323.4798	0.1274
323.6906	0.1163
323.9014	0.1179
324.1122	0.1157
324.3229	0.0977
324.5337	0.1274
324.7444	0.1087
324.9551	0.1412
325.1658	0.1197
325.3765	0.1147
325.5872	0.1314
325.7979	0.1181
326.0085	0.1287
326.2192	0.1215
326.4298	0.1304
326.6404	0.1073
326.851	0.1127
327.0616	0.1176
327.2722	0.1259
327.4828	0.1229
327.6933	0.1271
327.9039	0.1316
328.1144	0.1246
328.3249	0.1254
328.5354	0.107
328.7459	0.1253
328.9564	0.115
329.1669	0.1208
329.3773	0.1217
329.5878	0.1237
329.7982	0.1256
330.0086	0.121
330.219	0.1201
330.4294	0.1294
330.6398	0.121
330.8502	0.1266
331.0605	0.1146
331.2708	0.1316
331.4812	0.1187
331.6915	0.1195
331.9018	0.1198
332.1121	0.1123
332.3224	0.1282
332.5326	0.1258
332.7429	0.1333
332.9531	0.1329
333.1633	0.1277
333.3735	0.1261
333.5837	0.1247
333.7939	0.1275
334.0041	0.1379
334.2143	0.1349
334.4244	0.131
334.6346	0.1155
334.8447	0.1349
335.0548	0.1285
335.2649	0.114
335.475	0.1296
335.685	0.1185
335.8951	0.149
336.1051	0.1371
336.3152	0.1333
336.5252	0.1177
336.7352	0.1357
336.9452	0.1235
337.1552	0.1282
337.3652	0.1265
337.5751	0.1311
337.7851	0.1287
337.995	0.1206
338.2049	0.1249
338.4148	0.1323
338.6247	0.1339
338.8346	0.1259
339.0445	0.1253
339.2543	0.1327
339.4642	0.1327
339.674	0.1213
339.8838	0.1385
340.0936	0.1381
340.3034	0.1446
340.5132	0.1443
340.7229	0.1433
340.9327	0.1193
341.1424	0.1282
341.3522	0.149
341.5619	0.1374
341.7716	0.1426
341.9813	0.1454
342.1909	0.1425
342.4006	0.1401
342.6102	0.1424
342.8199	0.1304
343.0295	0.1404
343.2391	0.1436
343.4487	0.1325
343.6583	0.1403
343.8679	0.1454
344.0774	0.1479
344.287	0.1403
344.4965	0.1373
344.706	0.1361
344.9155	0.1439
345.125	0.1442
345.3345	0.1413
345.544	0.1419
345.7534	0.138
345.9629	0.1455
346.1723	0.1411
346.3817	0.1382
346.5911	0.1389
346.8005	0.142
347.0099	0.1404
347.2193	0.1477
347.4286	0.1485
347.638	0.1497
347.8473	0.1409
348.0566	0.1445
348.2659	0.1383
348.4752	0.1533
348.6845	0.1396
348.8937	0.1405
349.103	0.1594
349.3122	0.1378
349.5214	0.1398
349.7306	0.1515
349.9398	0.1532
350.149	0.1528
350.3582	0.145
350.5674	0.1447
350.7765	0.157
350.9856	0.139
351.1948	0.1533
351.4039	0.1379
351.613	0.1374
351.822	0.1439
352.0311	0.1515
352.2402	0.158
352.4492	0.1548
352.6582	0.149
352.8672	0.1458
353.0762	0.1507
353.2852	0.1523
353.4942	0.1489
353.7032	0.1644
353.9121	0.1525
354.1211	0.1478
354.33	0.1598
354.5389	0.1526
354.7478	0.1563
354.9567	0.1383
355.1655	0.1467
355.3744	0.149
355.5833	0.1681
355.7921	0.1772
356.0009	0.1721
356.2097	0.1715
356.4185	0.1666
356.6273	0.1632
356.8361	0.1714
357.0448	0.1551
357.2536	0.16
357.4623	0.1685
357.671	0.1654
357.8797	0.1604
358.0884	0.1655
358.2971	0.1575
358.5057	0.153
358.7144	0.17
358.923	0.1587
359.1316	0.1706
359.3402	0.1587
359.5488	0.1635
359.7574	0.1577
359.966	0.188
360.1746	0.1684
360.3831	0.1633
360.5916	0.1569
360.8002	0.1579
361.0087	0.1711
361.2172	0.1731
361.4256	0.1811
361.6341	0.1843
361.8426	0.17
362.051	0.1657
362.2594	0.1783
362.4678	0.165
362.6762	0.188
362.8846	0.1824
363.093	0.1684
363.3014	0.1816
363.5097	0.1535
363.718	0.1768
363.9264	0.184
364.1347	0.1712
364.343	0.1709
364.5513	0.1969
364.7595	0.1896
364.9678	0.1894
365.176	0.191
365.3842	0.1693
365.5925	0.1777
365.8007	0.1729
366.0089	0.1756
366.217	0.1796
366.4252	0.1833
366.6333	0.1982
366.8415	0.1881
367.0496	0.1716
367.2577	0.184
367.4658	0.1913
367.6739	0.1977
367.882	0.1842
368.09	0.1861
368.2981	0.1748
368.5061	0.1853
368.7141	0.1788
368.9221	0.1885
369.1301	0.1921
369.3381	0.1669
369.5461	0.1751
369.754	0.1746
369.962	0.192
370.1699	0.2068
370.3778	0.1819
370.5857	0.1875
370.7936	0.1832
371.0015	0.1847
371.2093	0.1796
371.4172	0.1987
371.625	0.1942
371.8328	0.1947
372.0406	0.1988
372.2484	0.1856
372.4562	0.1949
372.664	0.1974
372.8717	0.2129
373.0795	0.1663
373.2872	0.1956
373.4949	0.1884
373.7026	0.1913
373.9103	0.1937
374.118	0.1856
374.3256	0.1918
374.5333	0.1968
374.7409	0.1781
374.9485	0.2022
375.1561	0.1831
375.3637	0.1999
375.5713	0.1924
375.7789	0.1785
375.9864	0.1735
376.194	0.1916
376.4015	0.2117
376.609	0.1977
376.8165	0.1944
377.024	0.1881
377.2315	0.1744
377.4389	0.2007
377.6464	0.1876
377.8538	0.1877
378.0612	0.1834
378.2686	0.2168
378.476	0.2012
378.6834	0.1966
378.8908	0.1829
379.0981	0.2031
379.3055	0.1905
379.5128	0.1789
379.7201	0.2062
379.9274	0.1949
380.1347	0.19
380.342	0.2137
380.5492	0.1784
380.7565	0.2102
380.9637	0.199
381.1709	0.1743
381.3781	0.1982
381.5853	0.204
381.7925	0.2051
381.9997	0.1984
382.2068	0.2124
382.4139	0.1962
382.6211	0.179
382.8282	0.1945
383.0353	0.1996
383.2424	0.1941
383.4494	0.2248
383.6565	0.1821
383.8635	0.1794
384.0706	0.1835
384.2776	0.1901
384.4846	0.1961
384.6916	0.1803
384.8986	0.1821
385.1055	0.2064
385.3125	0.1901
385.5194	0.1767
385.7263	0.2127
385.9333	0.2007
386.1402	0.1989
386.347	0.2062
386.5539	0.1922
386.7608	0.1992
386.9676	0.188
387.1744	0.1967
387.3813	0.1883
387.5881	0.1944
387.7948	0.1856
388.0016	0.1841
388.2084	0.1908
388.4151	0.1734
388.6219	0.2028
388.8286	0.1912
389.0353	0.1973
389.242	0.2183
389.4487	0.1816
389.6553	0.1759
389.862	0.1604
390.0686	0.1717
390.2753	0.1861
390.4819	0.1764
390.6885	0.1805
390.8951	0.1821
391.1016	0.1849
391.3082	0.1731
391.5147	0.178
391.7213	0.1737
391.9278	0.1704
392.1343	0.1683
392.3408	0.1841
392.5473	0.1737
392.7537	0.1661
392.9602	0.1623
393.1666	0.1818
393.373	0.18
393.5794	0.1829
393.7858	0.1864
393.9922	0.1659
394.1986	0.1709
394.4049	0.1663
394.6113	0.1568
394.8176	0.1385
395.0239	0.1613
395.2302	0.1698
395.4365	0.1548
395.6428	0.1778
395.8491	0.1485
396.0553	0.1537
396.2615	0.1465
396.4678	0.1559
396.674	0.1468
396.8802	0.1584
397.0863	0.1614
397.2925	0.1518
397.4987	0.1636
397.7048	0.1638
397.9109	0.1597
398.117	0.1493
398.3231	0.1394
398.5292	0.1617
398.7353	0.1673
398.9413	0.1536
399.1474	0.1388
399.3534	0.1622
399.5594	0.1264
399.7654	0.1709
399.9714	0.1683
400.1774	0.1578
400.3833	0.1507
400.5893	0.1511
400.7952	0.156
401.0011	0.1501
401.207	0.1699
401.4129	0.1604
401.6188	0.1553
401.8247	0.1485
402.0305	0.1345
402.2364	0.1501
402.4422	0.1467
402.648	0.1515
402.8538	0.1616
403.0596	0.1419
403.2654	0.1675
403.4711	0.1403
403.6768	0.1589
403.8826	0.1653
404.0883	0.1627
404.294	0.1416
404.4997	0.1552
404.7054	0.1666
404.911	0.1376
405.1167	0.1491
405.3223	0.1564
405.5279	0.1409
405.7335	0.1742
405.9391	0.1514
406.1447	0.1574
406.3502	0.1776
406.5558	0.1619
406.7613	0.1541
406.9668	0.1588
407.1724	0.1446
407.3778	0.1496
407.5833	0.1338
407.7888	0.1424
407.9942	0.1651
408.1997	0.1465
408.4051	0.1522
408.6105	0.1532
408.8159	0.1452
409.0213	0.1281
409.2267	0.1477
409.432	0.1278
409.6374	0.1538
409.8427	0.1225
410.048	0.1477
410.2533	0.1436
410.4586	0.1421
410.6639	0.1223
410.8691	0.143
411.0744	0.1502
411.2796	0.1392
411.4848	0.146
411.69	0.1281
411.8952	0.1595
412.1004	0.1208
412.3056	0.1647
412.5107	0.137
412.7158	0.1562
412.921	0.1533
413.1261	0.1357
413.3312	0.141
413.5362	0.1387
413.7413	0.1245
413.9464	0.1465
414.1514	0.147
414.3564	0.1338
414.5614	0.1317
414.7664	0.1244
414.9714	0.1475
415.1764	0.132
415.3813	0.138
415.5863	0.1385
415.7912	0.1462
415.9961	0.1422
416.201	0.1417
416.4059	0.1423
416.6108	0.1308
416.8156	0.1447
417.0205	0.1338
417.2253	0.1359
417.4301	0.124
417.6349	0.1341
417.8397	0.1347
418.0445	0.1366
418.2492	0.1386
418.454	0.1334
418.6587	0.1412
418.8634	0.1337
419.0681	0.1147
419.2728	0.1355
419.4775	0.1356
419.6822	0.1284
419.8868	0.1123
420.0915	0.1406
420.2961	0.1139
420.5007	0.122
420.7053	0.1339
420.9099	0.1429
421.1144	0.1357
421.319	0.1297
421.5235	0.1338
421.728	0.1315
421.9325	0.1489
422.137	0.1358
422.3415	0.1262
422.546	0.1132
422.7504	0.1262
422.9549	0.1196
423.1593	0.1298
423.3637	0.1387
423.5681	0.1236
423.7725	0.111
423.9769	0.13
424.1812	0.1153
424.3856	0.1065
424.5899	0.1279
424.7942	0.1202
424.9985	0.1243
425.2028	0.1043
425.4071	0.1391
425.6113	0.1048
425.8156	0.1139
426.0198	0.1195
426.224	0.098
426.4282	0.1122
426.6324	0.1172
426.8366	0.1113
427.0407	0.1052
427.2449	0.1108
427.449	0.1231
427.6531	0.1028
427.8572	0.1051
428.0613	0.1139
428.2654	0.1064
428.4694	0.114
428.6735	0.0904
428.8775	0.1162
429.0815	0.1012
429.2855	0.0937
429.4895	0.1051
429.6935	0.1103
429.8975	0.1094
430.1014	0.0988
430.3053	0.0793
430.5093	0.1
430.7132	0.0927
430.9171	0.0801
431.1209	0.1105
431.3248	0.0879
431.5286	0.101
431.7325	0.0937
431.9363	0.0871
432.1401	0.0907
432.3439	0.0882
432.5477	0.0706
432.7514	0.0739
432.9552	0.0737
433.1589	0.086
433.3627	0.0701
433.5664	0.0909
433.7701	0.0782
433.9737	0.0731
434.1774	0.0723
434.3811	0.0634
434.5847	0.0836
434.7883	0.064
434.9919	0.0687
435.1955	0.0636
435.3991	0.0727
435.6027	0.0609
435.8062	0.067
436.0098	0.0598
436.2133	0.059
436.4168	0.056
436.6203	0.059
436.8238	0.0627
437.0272	0.0655
437.2307	0.0495
437.4341	0.0692
437.6375	0.0685
437.841	0.0627
438.0443	0.0716
438.2477	0.0694
438.4511	0.047
438.6545	0.0571
438.8578	0.0635
439.0611	0.0539
439.2644	0.0527
439.4677	0.0468
439.671	0.052
439.8743	0.0658
440.0775	0.0564
440.2808	0.0533
440.484	0.0331
440.6872	0.0345
440.8904	0.0375
441.0936	0.0559
441.2967	0.0416
441.4999	0.0419
441.703	0.0417
441.9062	0.0371
442.1093	0.0525
442.3124	0.0485
442.5155	0.0359
442.7185	0.0402
442.9216	0.0215
443.1246	0.0441
443.3276	0.0301
443.5307	0.0375
443.7337	0.0353
443.9366	0.0346
444.1396	0.0374
444.3426	0.0228
444.5455	0.0343
444.7484	0.0361
444.9513	0.0369
445.1542	0.0531
445.3571	0.0299
445.56	0.0329
445.7628	0.0204
445.9657	0.0292
446.1685	0.0444
446.3713	0.0236
446.5741	0.0155
446.7769	0.0238
446.9797	0.0243
447.1824	0.0282
447.3852	0.0096
447.5879	0.0253
447.7906	0.0224
447.9933	0.0153
448.196	0.01
448.3986	0.032
448.6013	0.0143
448.8039	0.0051
449.0066	0.0206
449.2092	0.0364
449.4118	0.0198
449.6143	0.0202
449.8169	0.0262
450.0195	0.0212
450.222	-0.0019
450.4245	0.0242
450.627	0.0246
450.8295	0.0196
451.032	0.0273
451.2345	0.0087
451.4369	0.0173
451.6394	0.0119
451.8418	-0.0012
452.0442	0.0061
452.2466	0.0247
452.449	-0.0015
452.6513	0.0186
452.8537	0.0132
453.056	-0.0018
453.2583	0.0179
453.4607	0.0131
453.663	0.0107
453.8652	0.0186
454.0675	-0.0027
454.2697	0.0018
454.472	-0.0049
454.6742	0.0124
454.8764	0.0096
455.0786	0.007
455.2808	-0.0113
455.4829	0.0031
455.6851	-0.0001
455.8872	0.008
456.0893	0.0191
456.2915	-0.0076
456.4935	0.0075
456.6956	-0.0094
456.8977	0.0229
457.0997	-0.0043
457.3018	-0.0048
457.5038	0.0028
457.7058	0.0077
457.9078	-0.0087
458.1098	0.0034
458.3117	0.0066
458.5137	-0.0061
458.7156	-0.0033
458.9175	0.0012
459.1194	0.0096
459.3213	0.0054
459.5232	0.007
459.725	-0.0194
459.9269	-0.002
460.1287	-0.0029
460.3305	0.0002
460.5323	0.0066
460.7341	-0.0065
460.9359	-0.0147
461.1376	0.0061
461.3394	0.0007
461.5411	0.0117
461.7428	-0.0064
461.9445	0.0172
462.1462	0.0111
462.3479	0.0085
462.5495	-0.0084
462.7512	0.0194
462.9528	-0.0044
463.1544	-0.0268
463.356	-0.0032
463.5576	0.0009
463.7592	-0.0009
463.9607	0.0036
464.1623	0.0183
464.3638	0.0152
464.5653	-0.0087
464.7668	0.0078
464.9683	0.007
465.1697	0.0001
465.3712	-0.0102
465.5726	-0.011
465.7741	-0.0036
465.9755	-0.0148
466.1769	-0.0038
466.3782	-0.017
466.5796	-0.0017
466.7809	0.0087
466.9823	-0.0214
467.1836	-0.0053
467.3849	-0.0048
467.5862	-0.0049
467.7875	-0.0148
467.9887	0.0039
468.19	-0.0143
468.3912	-0.0117
468.5924	-0.0085
468.7936	-0.0085
468.9948	-0.0094
469.196	-0.0048
469.3972	-0.0182
469.5983	-0.0096
469.7994	-0.0324
470.0006	-0.0052
470.2017	-0.0187
470.4027	-0.0065
470.6038	0.0109
470.8049	-0.0158
471.0059	-0.0163
471.2069	-0.0345
471.408	0.0056
471.6089	0.0014
471.8099	-0.0113
472.0109	-0.0007
472.2119	-0.0159
472.4128	-0.01
472.6137	0.0025
472.8146	-0.0228
473.0155	-0.0086
473.2164	-0.0122
473.4173	0.0044
473.6181	-0.0102
473.819	-0.0022
474.0198	-0.0049
474.2206	-0.0116
474.4214	-0.0071
474.6222	-0.0136
474.8229	-0.0095
475.0237	-0.0179
475.2244	-0.0151
475.4251	-0.0124
475.6258	-0.0113
475.8265	-0.0037
476.0272	0.0056
476.2278	-0.0094
476.4285	-0.0121
476.6291	-0.0162
476.8297	-0.0221
477.0303	-0.0072
477.2309	-0.0011
477.4315	-0.0115
477.632	-0.0097
477.8326	-0.003
478.0331	0.004
478.2336	-0.0037
478.4341	-0.0076
478.6346	-0.0013
478.8351	-0.0041
479.0355	-0.0025
479.236	-0.0027
479.4364	-0.002
479.6368	-0.003
479.8372	-0.0232
480.0376	-0.0035
480.2379	-0.025
480.4383	-0.0095
480.6386	0.0076
480.8389	-0.0074
481.0392	-0.0148
481.2395	-0.016
481.4398	0.0041
481.6401	-0.0021
481.8403	0.0061
482.0405	-0.006
482.2408	-0.0044
482.441	0.0013
482.6411	-0.0124
482.8413	-0.0076
483.0415	-0.0148
483.2416	-0.0103
483.4417	-0.0025
483.6419	-0.0145
483.8419	0.0015
484.042	0.0066
484.2421	0.0053
484.4422	-0.0059
484.6422	0.0002
484.8422	-0.0031
485.0422	-0.0045
485.2422	0.001
485.4422	-0.0168
485.6422	-0.012
485.8421	-0.0087
486.042	-0.0023
486.242	-0.0064
486.4419	-0.013
486.6417	-0.0145
486.8416	-0.0105
487.0415	-0.0049
487.2413	-0.0121
487.4411	-0.0068
487.641	-0.0172
487.8408	-0.0001
488.0405	-0.01
488.2403	-0.0211
488.4401	0.0009
488.6398	-0.0118
488.8395	-0.0076
489.0392	-0.0109
489.2389	-0.0084
489.4386	-0.0047
489.6383	-0.006
489.8379	0.0011
490.0376	-0.0014
490.2372	-0.0114
490.4368	-0.0075
490.6364	-0.0022
490.836	-0.0026
491.0355	-0.0036
491.2351	-0.008
491.4346	-0.0127
491.6341	-0.0255
491.8336	0.0037
492.0331	-0.0104
492.2326	-0.0142
492.432	-0.0133
492.6315	-0.0028
492.8309	-0.014
493.0303	-0.011
493.2297	-0.0031
493.4291	-0.0113
493.6284	-0.01
493.8278	-0.0106
494.0271	-0.0064
494.2264	0.004
494.4257	-0.0249
494.625	-0.0005
494.8243	-0.0137
495.0236	-0.0075
495.2228	-0.0149
495.422	-0.0064
495.6213	-0.0047
495.8205	-0.0054
496.0196	-0.0005
496.2188	0.0013
496.418	-0.0094
496.6171	-0.0035
496.8162	-0.0182
497.0153	0.0023
497.2144	-0.0212
497.4135	-0.0136
497.6126	-0.015
497.8116	-0.0235
498.0107	-0.0014
498.2097	-0.0134
498.4087	-0.0167
498.6077	-0.0042
498.8067	-0.0149
499.0056	-0.0035
499.2046	-0.0106
499.4035	-0.026
499.6024	-0.0081
499.8013	-0.0177
500.0002	-0.0105
500.199	-0.0151
500.3979	-0.0038
500.5967	-0.0226
500.7956	-0.0014
500.9944	-0.0102
501.1932	-0.0143
501.3919	-0.0054
501.5907	-0.017
501.7895	-0.0077
501.9882	-0.0081
502.1869	-0.0165
502.3856	-0.0117
502.5843	-0.0199
502.783	-0.0107
502.9816	-0.0188
503.1803	-0.0183
503.3789	-0.0146
503.5775	-0.001
503.7761	-0.0193
503.9747	-0.0136
504.1732	-0.016
504.3718	-0.0009
504.5703	0.0015
504.7689	-0.015
504.9674	-0.0113
505.1658	-0.0073
505.3643	-0.0081
505.5628	-0.0068
505.7612	-0.0152
505.9597	-0.0021
506.1581	-0.0136
506.3565	-0.0012
506.5549	-0.0103
506.7532	-0.0181
506.9516	-0.0023
507.1499	-0.0059
507.3482	-0.0259
507.5465	-0.0115
507.7448	-0.0058
507.9431	-0.0074
508.1414	-0.0039
508.3396	-0.0112
508.5379	-0.0077
508.7361	-0.0146
508.9343	-0.0103
509.1325	-0.0114
509.3306	-0.0139
509.5288	-0.013
509.7269	-0.0145
509.9251	-0.0041
510.1232	-0.0129
510.3213	0.0012
510.5193	0.01
510.7174	-0.0106
510.9154	-0.0145
511.1135	-0.0067
511.3115	-0.0114
511.5095	-0.0159
511.7075	0.0015
511.9055	-0.0116
512.1034	-0.0034
512.3014	-0.0028
512.4993	-0.0058
512.6972	-0.0083
512.8951	-0.0263
513.093	-0.0088
513.2908	-0.0123
513.4887	-0.0072
513.6865	-0.0147
513.8844	-0.0132
514.0822	-0.0173
514.2799	-0.0154
514.4777	-0.0195
514.6755	-0.0228
514.8732	-0.0172
515.0709	-0.0036
515.2687	-0.0112
515.4664	-0.0068
515.664	-0.0167
515.8617	-0.011
516.0594	-0.0174
516.257	-0.0052
516.4546	-0.0278
516.6522	-0.0057
516.8498	-0.0039
517.0474	-0.0036
517.2449	-0.0083
517.4425	-0.023
517.64	-0.0176
517.8375	-0.009
518.035	-0.0073
518.2325	-0.0133
518.43	-0.0069
518.6274	-0.0061
518.8249	-0.0134
519.0223	-0.0068
519.2197	-0.0088
519.4171	-0.0052
519.6145	-0.0113
519.8118	-0.0046
520.0092	-0.0111
520.2065	-0.0035
520.4038	-0.0182
520.6011	-0.0064
520.7984	-0.012
520.9956	-0.0168
521.1929	-0.0145
521.3901	-0.0015
521.5874	-0.0104
521.7846	0
521.9818	-0.0146
522.1789	-0.0065
522.3761	-0.0071
522.5732	-0.0101
522.7704	-0.0049
522.9675	-0.0048
523.1646	-0.0099
523.3617	-0.0047
523.5587	-0.0083
523.7558	-0.0054
523.9528	-0.0137
524.1498	-0.0011
524.3468	-0.0121
524.5438	0.0025
524.7408	-0.0054
524.9378	-0.0012
525.1347	-0.0075
525.3316	-0.0061
525.5285	-0.0143
525.7254	-0.0097
525.9223	-0.0095
526.1192	-0.0031
526.316	-0.0201
526.5129	0.0021
526.7097	-0.0027
526.9065	-0.0123
527.1033	-0.0184
527.3	0.0002
527.4968	-0.0035
527.6935	-0.009
527.8903	-0.0148
528.087	-0.0123
528.2837	-0.0061
528.4804	-0.003
528.677	-0.0065
528.8737	0.0047
529.0703	0.0039
529.2669	-0.0016
529.4635	-0.0051
529.6601	-0.0058
529.8567	-0.0088
530.0532	-0.0141
530.2498	-0.0028
530.4463	0.0008
530.6428	-0.0099
530.8393	0.007
531.0358	-0.008
531.2322	-0.0058
531.4287	-0.0096
531.6251	-0.0179
531.8215	0.0067
532.0179	-0.0021
532.2143	-0.0023
532.4107	-0.0035
532.607	-0.0006
532.8034	-0.0085
532.9997	-0.0038
533.196	-0.0098
533.3923	-0.0144
533.5886	-0.0065
533.7848	0.003
533.9811	0.0008
534.1773	-0.0074
534.3735	-0.0003
534.5697	0.0005
534.7659	-0.0068
534.9621	0.0009
535.1582	-0.0095
535.3544	-0.0086
535.5505	-0.0093
535.7466	-0.0111
535.9427	-0.0092
536.1387	-0.0068
536.3348	-0.0138
536.5308	-0.0055
536.7269	-0.0197
536.9229	-0.0049
537.1189	-0.0078
537.3148	-0.007
537.5108	-0.0121
537.7068	-0.0009
537.9027	-0.0016
538.0986	-0.0117
538.2945	-0.0173
538.4904	-0.0026
538.6863	-0.0008
538.8821	-0.0046
539.078	-0.002
539.2738	-0.0038
539.4696	-0.0093
539.6654	0.0078
539.8611	0.0083
540.0569	-0.0078
540.2526	-0.007
540.4484	-0.0054
540.6441	0
540.8398	-0.0032
541.0355	0.002
541.2311	-0.0077
541.4268	-0.0127
541.6224	-0.0065
541.818	-0.0044
542.0136	-0.013
542.2092	-0.0057
542.4048	0.0007
542.6003	0.0004
542.7959	-0.0062
542.9914	-0.0128
543.1869	-0.0083
543.3824	-0.0011
543.5779	0.001
543.7734	-0.0067
543.9688	-0.0058
544.1642	-0.0106
544.3596	0.0007
544.555	-0.0092
544.7504	-0.0007
544.9458	-0.012
545.1411	-0.003
545.3365	-0.0093
545.5318	-0.0082
545.7271	-0.0004
545.9224	-0.0049
546.1177	0.0016
546.3129	0.0034
546.5081	-0.0055
546.7034	-0.0017
546.8986	-0.0096
547.0938	-0.004
547.289	-0.006
547.4841	-0.0052
547.6793	0.0067
547.8744	-0.0062
548.0695	-0.0055
548.2646	-0.0104
548.4597	-0.0047
548.6548	0.0006
548.8498	-0.002
549.0448	-0.0045
549.2399	-0.0081
549.4349	0.0065
549.6298	-0.0013
549.8248	0.0084
550.0198	-0.0078
550.2147	-0.0051
550.4096	-0.0118
550.6045	-0.0087
550.7994	0.0035
550.9943	-0.0018
551.1892	-0.0026
551.384	-0.0014
551.5788	-0.0118
551.7737	-0.0039
551.9685	-0.0014
552.1632	0.006
552.358	-0.0066
552.5528	0.0017
552.7475	-0.0094
552.9422	-0.0058
553.1369	-0.0004
553.3316	0.0025
553.5263	-0.0099
553.7209	0.0011
553.9156	0.0004
554.1102	-0.0087
554.3048	-0.009
554.4994	0.0064
554.694	-0.0035
554.8885	0.0075
555.0831	-0.0035
555.2776	-0.0033
555.4721	-0.0017
555.6666	-0.0062
555.8611	0.0035
556.0555	-0.0027
556.25	-0.0016
556.4444	-0.001
556.6388	0.0035
556.8332	-0.0064
557.0276	-0.0011
557.222	-0.0025
557.4163	-0.0051
557.6107	-0.0117
557.805	0.0124
557.9993	-0.0055
558.1936	0.0059
558.3879	0.0059
558.5821	0.0027
558.7764	-0.0045
558.9706	-0.0002
559.1648	0.0022
559.359	-0.0076
559.5532	-0.0093
559.7473	-0.0062
559.9415	-0.0055
560.1356	-0.0083
560.3297	-0.0069
560.5238	-0.0078
560.7179	-0.0062
560.9119	-0.0008
561.106	-0.0096
561.3	-0.0075
561.494	-0.004
561.688	-0.0074
561.882	-0.0121
562.076	-0.0064
562.2699	-0.0011
562.4639	-0.0063
562.6578	0.0023
562.8517	-0.0012
563.0456	0.001
563.2395	0.0094
563.4333	-0.0012
563.6272	-0.0024
563.821	-0.0011
564.0148	-0.0024
564.2086	-0.008
564.4024	0.0018
564.5961	-0.0056
564.7899	-0.0006
564.9836	-0.0025
565.1773	0.0007
565.371	0.0073
565.5647	0.0079
565.7584	0.0018
565.952	0.0007
566.1456	-0.0019
566.3393	-0.0058
566.5329	-0.0044
566.7264	-0.0028
566.92	-0.0081
567.1136	-0.0059
567.3071	-0.0105
567.5006	0.0006
567.6941	0.0006
567.8876	0.0014
568.0811	-0.0023
568.2745	-0.0045
568.468	0.0053
568.6614	0.0041
568.8548	0.0049
569.0482	-0.0035
569.2416	-0.0011
569.4349	0.0022
569.6283	0.0031
569.8216	-0.0082
570.0149	-0.0134
570.2082	0.0024
570.4015	-0.0036
570.5947	0.0067
570.788	-0.0014
570.9812	0.0003
571.1744	-0.0028
571.3676	-0.0109
571.5608	-0.0078
571.754	0.001
571.9471	0.0021
572.1402	0.0035
572.3333	-0.0037
572.5264	-0.0047
572.7195	-0.0018
572.9126	-0.0052
573.1057	-0.0013
573.2987	-0.0044
573.4917	0.0004
573.6847	-0.0103
573.8777	-0.0056
574.0707	-0.0025
574.2636	-0.006
574.4566	0.0006
574.6495	0.0079
574.8424	0.0048
575.0353	-0.004
575.2281	0.0049
575.421	0.0023
575.6138	-0.0003
575.8067	0.0022
575.9995	-0.0005
576.1923	0.0116
576.385	-0.0065
576.5778	-0.0045
576.7706	-0.0032
576.9633	-0.0015
577.156	-0.0006
577.3487	-0.0027
577.5414	0.007
577.734	-0.009
577.9267	0.0008
578.1193	-0.0132
578.3119	-0.0064
578.5045	-0.0056
578.6971	-0.0033
578.8897	0.0032
579.0822	-0.0036
579.2747	-0.0014
579.4673	-0.0074
579.6598	-0.0045
579.8522	-0.0013
580.0447	-0.0113
580.2372	-0.0048
580.4296	0.0018
580.622	-0.0066
580.8144	-0.0042
581.0068	-0.0037
581.1992	-0.011
581.3915	-0.0094
581.5839	-0.01
581.7762	-0.0127
581.9685	-0.0075
582.1608	0.0019
582.353	-0.0038
582.5453	-0.0048
582.7375	-0.0024
582.9298	-0.0051
583.122	-0.0042
583.3142	-0.0032
583.5063	-0.0021
583.6985	-0.0071
583.8906	-0.0067
584.0827	-0.001
584.2749	0.0032
584.4669	0.0011
584.659	-0.0067
584.8511	-0.0056
585.0431	-0.0006
585.2352	0.0006
585.4272	-0.0041
585.6192	0.0024
585.8111	-0.0011
586.0031	-0.0009
586.195	0
586.387	0.0011
586.5789	-0.0029
586.7708	0.0006
586.9627	0.0001
587.1545	-0.0058
587.3464	0.0046
587.5382	0.0042
587.73	0.0025
587.9218	0.0032
588.1136	-0.0029
588.3053	-0.0015
588.4971	-0.0053
588.6888	-0.0156
588.8805	0.0032
589.0722	0.0036
589.2639	0.0031
589.4556	0.001
589.6472	-0.0028
589.8389	-0.011
590.0305	-0.0105
590.2221	0.0036
590.4137	-0.0086
590.6052	-0.0003
590.7968	0.0021
590.9883	0.0011
591.1798	0.0026
591.3713	0.0014
591.5628	0.0014
591.7543	-0.0037
591.9458	-0.0014
592.1372	0.0071
592.3286	0.0053
592.52	0.007
592.7114	-0.0057
592.9028	-0.0006
593.0941	0.0049
593.2855	-0.0069
593.4768	-0.0095
593.6681	-0.0075
593.8594	-0.0042
594.0506	0.0073
594.2419	0.0036
594.4331	-0.0019
594.6244	0.0081
594.8156	-0.004
595.0067	-0.0013
595.1979	-0.0037
595.3891	-0.0029
595.5802	-0.0021
595.7713	-0.0031
595.9624	-0.0022
596.1535	0.0086
596.3446	0.0052
596.5357	0.0043
596.7267	0.0088
596.9177	-0.0001
597.1087	-0.006
597.2997	-0.0033
597.4907	0.001
597.6817	-0.005
597.8726	0.0065
598.0635	0.0031
598.2544	0.0023
598.4453	0.0076
598.6362	-0.0004
598.827	-0.0016
599.0179	0.0067
599.2087	0
599.3995	0.004
599.5903	0.0076
599.7811	0.0056
599.9718	-0.0034
600.1626	-0.0059
600.3533	-0.0033
600.544	-0.0019
600.7347	0.0021
600.9254	0.0021
601.116	-0.0027
601.3067	-0.0012
601.4973	-0.0027
601.6879	0.0068
601.8785	-0.0059
602.0691	0.0027
602.2596	0.0069
602.4502	-0.0002
602.6407	0.0024
602.8312	0.0006
603.0217	-0.0047
603.2122	0.0029
603.4027	0.0022
603.5931	0.0011
603.7835	-0.0017
603.9739	-0.0081
604.1643	0.0005
604.3547	-0.004
604.5451	0.0007
604.7354	-0.009
604.9257	-0.0012
605.116	-0.003
605.3063	0.0041
605.4966	0.0001
605.6869	0.0098
605.8771	0.0067
606.0673	0.0037
606.2575	0.0034
606.4477	0.0004
606.6379	-0.0034
606.8281	-0.002
607.0182	0.0021
607.2083	0.0091
607.3985	-0.0053
607.5885	-0.0017
607.7786	0.0006
607.9687	-0.0038
608.1587	0.0069
608.3488	0.0003
608.5388	-0.0004
608.7288	-0.0035
608.9187	-0.004
609.1087	0.0022
609.2986	-0.0028
609.4886	0.0001
609.6785	-0.0018
609.8684	0.0033
610.0582	0.0056
610.2481	-0.0013
610.4379	0.0064
610.6278	-0.0038
610.8176	-0.0059
611.0074	-0.0058
611.1971	-0.0007
611.3869	0.0002
611.5766	-0.01
611.7664	-0.0013
611.9561	0.0042
612.1458	-0.0014
612.3354	-0.0092
612.5251	-0.0023
612.7147	0.0025
612.9044	0.0079
613.094	-0.0044
613.2836	0.0003
613.4731	0.0016
613.6627	-0.0059
613.8522	-0.0012
614.0417	-0.0001
614.2313	-0.0034
614.4207	-0.0091
614.6102	0.003
614.7997	0.0009
614.9891	-0.004
615.1785	-0.0021
615.3679	-0.0076
615.5573	0.0077
615.7467	-0.0072
615.9361	-0.0031
616.1254	0.0017
616.3147	-0.003
616.504	0.006
616.6933	-0.0021
616.8826	0.007
617.0718	0.0066
617.2611	0.0008
617.4503	-0.006
617.6395	-0.0053
617.8287	-0.0087
618.0179	-0.0006
618.207	-0
618.3961	0.0005
618.5853	-0.0065
618.7744	0.0052
618.9634	0.0031
619.1525	0.0057
619.3416	0.0002
619.5306	0.0036
619.7196	-0.0038
619.9086	-0.0033
620.0976	0.0044
620.2866	0.0044
620.4755	0.0018
620.6645	0.0025
620.8534	0.0045
621.0423	0.0021
621.2312	0.0068
621.42	-0.0031
621.6089	-0.0059
621.7977	0.0041
621.9865	-0.0043
622.1753	0.0031
622.3641	-0.0034
622.5529	0.0035
622.7416	0.0083
622.9303	-0.0045
623.1191	0.0003
623.3078	-0.0035
623.4964	-0.0013
623.6851	-0.0034
623.8737	-0.0001
624.0624	0.0058
624.251	-0.0049
624.4396	-0.0045
624.6282	-0.0024
624.8167	0.0013
625.0053	-0.0009
625.1938	0.0072
625.3823	0.0039
625.5708	0.0041
625.7593	-0.007
625.9477	-0.0069
626.1362	0.0021
626.3246	0.0065
626.513	0.0065
626.7014	0.0136
626.8898	-0.0011
627.0781	0.0064
627.2665	-0.0082
627.4548	0.0067
627.6431	-0.0069
627.8314	0.0075
628.0197	0.0114
628.2079	-0.006
628.3962	0.0025
628.5844	0.0073
628.7726	0.0033
628.9608	-0.0003
629.1489	0.0085
629.3371	0.0065
629.5252	-0.0065
629.7134	0.0139
629.9015	-0.0049
630.0895	-0.0002
630.2776	-0.0017
630.4657	0.0035
630.6537	0.0019
630.8417	-0.0028
631.0297	0.0007
631.2177	-0.004
631.4057	-0.0064
631.5936	0.0037
631.7815	0.0047
631.9695	-0.0025
632.1574	0.002
632.3452	0.0151
632.5331	0.0002
632.7209	-0.0024
632.9088	0.0028
633.0966	0.01
633.2844	-0.0087
633.4722	0.0011
633.6599	0.0073
633.8477	-0.0031
634.0354	0.0102
634.2231	-0.0025
634.4108	0.0032
634.5985	0.0039
634.7861	0.003
634.9738	-0.005
635.1614	-0.0062
635.349	-0.0007
635.5366	-0.0038
635.7242	-0.0033
635.9117	0.001
636.0993	-0.0036
636.2868	-0.0012
636.4743	-0.0055
636.6618	0.0118
636.8492	0.0009
637.0367	-0.0031
637.2241	-0.0001
637.4115	0.0012
637.5989	-0.0037
637.7863	-0.0009
637.9737	-0.0009
638.161	0.0026
638.3484	-0.0041
638.5357	0.0053
638.723	-0.002
638.9103	0.0091
639.0975	0.0126
639.2848	0.0104
639.472	0.0025
639.6592	0.0039
639.8464	0.0156
640.0336	0.0047
640.2208	0.0007
640.4079	-0.0019
640.595	0.0048
640.7821	0.0061
640.9692	-0.0033
641.1563	0.0002
641.3434	0.0036
641.5304	0.0046
641.7174	0.0035
641.9044	0.0025
642.0914	0.0083
642.2784	0.0079
642.4653	0.0066
642.6523	0.0003
642.8392	0.0016
643.0261	0.0062
643.213	0.0052
643.3999	0.0015
643.5867	0.0051
643.7735	0.0009
643.9604	-0.0022
644.1472	0.0048
644.3339	0.0052
644.5207	0.001
644.7075	0.009
644.8942	0.0072
645.0809	0.0122
645.2676	0.0115
645.4543	0.0046
645.6409	0.0001
645.8276	0.0047
646.0142	0.0029
646.2008	-0.0029
646.3874	-0.0044
646.574	0.003
646.7605	-0.0023
646.9471	-0.0111
647.1336	0.001
647.3201	0.0008
647.5066	-0.0021
647.6931	0.0025
647.8795	-0.0025
648.0659	0.0096
648.2524	0.0061
648.4388	-0.0002
648.6252	0.0081
648.8115	0.0005
648.9979	-0.0016
649.1842	0.0006
649.3705	0.0021
649.5568	0.0084
649.7431	0.0058
649.9294	-0.0032
650.1156	0.0046
650.3018	-0.0038
650.488	0.0021
650.6742	0.012
650.8604	0.0092
651.0466	-0.0025
651.2327	0.0002
651.4188	0.0039
651.6049	-0.006
651.791	0.0024
651.9771	0.0024
652.1632	0.0035
652.3492	0.0081
652.5352	0.0016
652.7212	-0.0004
652.9072	0.0031
653.0932	0.0024
653.2791	-0.0029
653.465	-0.0023
653.651	-0.0109
653.8369	0.002
654.0227	-0.0044
654.2086	0.0082
654.3944	0.0031
654.5803	0.0033
654.7661	-0.0056
654.9519	0.0059
655.1377	0.0013
655.3234	-0.0011
655.5092	-0.0064
655.6949	-0.0061
655.8806	-0.007
656.0663	-0.0056
656.2519	-0.0045
656.4376	-0.0099
656.6232	-0.0028
656.8088	-0.0008
656.9945	0.0025
657.18	0.0038
657.3656	0.001
657.5511	-0.0006
657.7367	-0.0001
657.9222	0.0035
658.1077	0.004
658.2932	0.005
658.4786	-0.0026
658.6641	0.002
658.8495	0.005
659.0349	0.003
659.2203	0.0041
659.4057	0.0093
659.591	0.0062
659.7764	-0.0059
659.9617	-0.0014
660.147	0.0085
660.3323	0.0009
660.5176	0.0142
660.7028	0.0035
660.888	0.0019
661.0733	0.0034
661.2585	0.0045
661.4436	0.0015
661.6288	0.0041
661.8139	0.0038
661.9991	0.0081
662.1842	-0.0004
662.3693	0.0037
662.5544	-0.0034
662.7394	0.0068
662.9245	0.0037
663.1095	-0.0006
663.2945	-0.0002
663.4795	-0.0058
663.6644	0.0064
663.8494	-0.006
664.0343	-0.0028
664.2193	-0.0064
664.4042	-0.0028
664.589	-0.008
664.7739	-0.0018
664.9587	-0.007
665.1436	-0.0019
665.3284	0.0027
665.5132	-0.001
665.698	-0.0059
665.8827	-0.0013
666.0675	-0.0018
666.2522	-0.0113
666.4369	0.0079
666.6216	0.0082
666.8063	0.0026
666.9909	0.0053
667.1756	-0.0024
667.3602	0.0049
667.5448	-0.0007
667.7294	0.009
667.9139	0.0071
668.0985	0.0141
668.283	0.0017
668.4675	0.0064
668.652	-0.0022
668.8365	0.0013
669.0209	0.0117
669.2054	0.0049
669.3898	0.0062
669.5742	0.007
669.7586	0.008
669.943	0.012
670.1273	0.0056
670.3117	0.0063
670.496	0.0081
670.6803	0.0116
670.8646	0.0102
671.0488	-0.0023
671.2331	0.0123
671.4173	0.013
671.6015	-0.0014
671.7857	0.005
671.9699	0.0092
672.1541	0.0063
672.3382	0.0056
672.5223	0.0123
672.7064	0.0088
672.8905	0.0093
673.0746	0.003
673.2587	0.0011
673.4427	0.0096
673.6267	0.0098
673.8107	0.0115
673.9947	0.008
674.1787	0.0111
674.3626	-0
674.5465	0.005
674.7304	0.0028
674.9143	0.0072
675.0982	0.013
675.2821	-0.0069
675.4659	0.0152
675.6497	-0.0007
675.8335	0.0019
676.0173	0.0039
676.2011	0.0078
676.3849	0.0002
676.5686	-0.004
676.7523	0.0038
676.936	0.0013
677.1197	-0.0012
677.3034	0.0008
677.487	0.0076
677.6706	0.0075
677.8542	0.0078
678.0378	0.0042
678.2214	0.0032
678.405	0.0027
678.5885	-0.0014
678.772	0.0043
678.9555	-0.001
679.139	0.0049
679.3225	0.0059
679.5059	-0.0053
679.6894	0.0058
679.8728	0.0005
680.0562	-0.0091
680.2395	-0.0082
680.4229	0.0001
680.6062	0.0067
680.7896	-0.0009
680.9729	-0.0026
681.1562	0.0128
681.3394	0.0019
681.5227	-0.0047
681.7059	-0.0001
681.8891	-0.0032
682.0723	0.0036
682.2555	0.0049
682.4387	0.0024
682.6218	0.0008
682.805	0.0045
682.9881	0.0034
683.1712	0.0015
683.3542	0.0034
683.5373	0.008
683.7203	0.0018
683.9034	0.0052
684.0864	-0.0029
684.2694	-0.001
684.4523	0.0054
684.6353	-0.0035
684.8182	-0.001
685.0011	-0.002
685.184	0.007
685.3669	0.0058
685.5498	0.0073
685.7326	0.0111
685.9154	0.0005
686.0982	0.0073
686.281	0.0115
686.4638	0.0075
686.6465	0.0014
686.8293	0.0031
687.012	0.0095
687.1947	0.0002
687.3774	-0.0001
687.56	0.0001
687.7427	0.0037
687.9253	-0.0058
688.1079	-0.008
688.2905	0.013
688.4731	0.0008
688.6556	-0.0017
688.8382	0.0074
689.0207	0.0044
689.2032	-0.0013
689.3857	-0.0003
689.5681	0.0059
689.7506	-0.0001
689.933	0.0001
690.1154	-0.0021
690.2978	-0.0015
690.4802	0.0056
690.6626	-0.0067
690.8449	-0.0032
691.0272	0.0063
691.2095	-0.0075
691.3918	-0.0032
691.5741	0.0031
691.7563	-0.0072
691.9386	-0.0061
692.1208	-0.0023
692.303	-0.005
692.4852	0.0007
692.6673	0.0012
692.8495	-0.0027
693.0316	0.0053
693.2137	-0.0027
693.3958	0.006
693.5778	-0.0044
693.7599	0.004
693.9419	0.0043
694.1239	0.0057
694.3059	0.0017
694.4879	0.0131
694.6699	0.0059
694.8518	0.0009
695.0337	-0.0018
695.2157	-0.0024
695.3975	0.003
695.5794	0.0046
695.7613	0.0043
695.9431	-0.0044
696.1249	0.0086
696.3067	0.0093
696.4885	0.0094
696.6703	-0.0081
696.852	-0.0025
697.0337	0.0017
697.2154	-0.0069
697.3971	0.0035
697.5788	0.011
697.7605	-0.0021
697.9421	0.0011
698.1237	0.0017
698.3053	0.0001
698.4869	-0.0003
698.6685	-0.0109
698.85	0.0041
699.0315	0.0003
699.213	-0.0054
699.3945	0.0034
699.576	-0.002
699.7575	0.0025
699.9389	0.0057
700.1203	-0.0013
700.3017	-0.0108
700.4831	-0.0105
700.6645	0.0012
700.8458	-0.0074
701.0271	-0.0062
701.2084	0.0033
701.3897	-0.001
701.571	0.0071
701.7523	-0.0136
701.9335	0.0045
702.1147	-0.0056
702.2959	-0.0049
702.4771	-0.0014
702.6583	-0.0025
702.8394	-0.0073
703.0205	0.0044
703.2016	-0.0071
703.3827	0
703.5638	0.0137
703.7449	0.0092
703.9259	0.0077
704.1069	-0.0087
704.2879	0.0057
704.4689	0.0083
704.6499	0.0001
704.8308	-0.0024
705.0117	0.0018
705.1927	0.0056
705.3735	-0.0007
705.5544	-0.0075
705.7353	-0.0036
705.9161	-0.003
706.0969	-0.0055
706.2777	-0.0032
706.4585	-0.0094
706.6393	0.0007
706.82	-0.0091
707.0007	0.0001
707.1815	-0.0039
707.3621	0.0092
707.5428	0.0011
707.7235	0.0045
707.9041	0.0027
708.0847	-0.0046
708.2653	-0.0013
708.4459	-0.0104
708.6265	0.0017
708.807	-0.0095
708.9875	-0.0013
709.168	-0.0021
709.3485	-0.0036
709.529	0.0007
709.7095	-0.0075
709.8899	-0.0067
710.0703	-0.015
710.2507	0.0074
710.4311	0.0059
710.6115	-0.013
710.7918	-0.0088
710.9721	-0.0039
711.1524	-0.0138
711.3327	0.0016
711.513	-0.002
711.6932	-0.0017
711.8735	0.0053
712.0537	-0.0023
712.2339	-0.0017
712.4141	-0.0073
712.5942	-0.0032
712.7744	0.0035
712.9545	-0.002
713.1346	0.004
713.3147	0.0036
713.4947	-0.0061
713.6748	0.0064
713.8548	0.0038
714.0348	0.0026
714.2148	-0.0024
714.3948	0.0058
714.5748	-0.0064
714.7547	0.0018
714.9346	0.0085
715.1145	0.0024
715.2944	-0.0054
715.4743	0.0019
715.6541	-0.0025
715.834	0.0054
716.0138	0.0037
716.1936	-0.0063
716.3733	-0.009
716.5531	-0.0043
716.7328	-0.0014
716.9126	-0.0005
717.0923	0.0008
717.2719	0.0058
717.4516	0.0016
717.6312	0.0035
717.8109	0.0017
717.9905	-0.0004
718.1701	-0.0003
718.3496	-0.0013
718.5292	0.0054
718.7087	0.0079
718.8882	0.0016
719.0677	0.006
719.2472	0.0016
719.4267	0.0024
719.6061	-0.0008
719.7856	0.0089
719.965	0.0076
720.1443	0.0007
720.3237	0.0191
720.5031	0.0073
720.6824	0.0064
720.8617	0.0002
721.041	-0.0054
721.2203	0.0057
721.3995	0.0056
721.5788	0.0021
721.758	0.0042
721.9372	0.0024
722.1164	0.002
722.2956	0.0092
722.4747	0.0055
722.6538	-0.0054
722.8329	0.0157
723.012	-0.0042
723.1911	-0.0046
723.3702	-0.0024
723.5492	-0.0014
723.7282	-0.0042
723.9072	-0.0008
724.0862	-0.0076
724.2652	-0.0018
724.4441	-0.0005
724.623	0
724.8019	-0.0012
724.9808	0.0017
725.1597	-0.0035
725.3385	0.0071
725.5174	0.0026
725.6962	0.002
725.875	0.0085
726.0538	0.0126
726.2325	-0.0031
726.4112	0.0079
726.59	-0.0036
726.7687	-0.01
726.9474	0.0042
727.126	0.0059
727.3047	-0.0045
727.4833	-0.0016
727.6619	-0.0121
727.8405	-0.007
728.0191	-0.005
728.1976	0.0045
728.3762	0.0013
728.5547	-0.001
728.7332	-0.015
728.9116	-0.0007
729.0901	0.0062
729.2686	-0.0029
729.447	0
729.6254	-0.0014
729.8038	0.0038
729.9821	-0.0101
730.1605	0.0025
730.3388	0.0033
730.5171	0.0063
730.6954	-0.0106
730.8737	0.0028
731.0519	0.001
731.2302	-0.0062
731.4084	0.0155
731.5866	0.0063
731.7648	-0.0039
731.9429	0.0077
732.1211	-0.0076
732.2992	-0.003
732.4773	-0.0057
732.6554	-0.0084
732.8335	0.0009
733.0115	0.0066
733.1896	0.0114
733.3676	-0.0026
733.5456	0.0083
733.7235	0.0049
733.9015	-0.0002
734.0794	0.0004
734.2574	-0.0065
734.4353	-0.001
734.6131	0.0074
734.791	0.0023
734.9689	-0.005
735.1467	-0.0027
735.3245	0.0003
735.5023	-0.0087
735.68	-0.0036
735.8578	0.0009
736.0355	-0.0159
736.2132	-0.0006
736.3909	-0.0036
736.5686	-0.0105
736.7463	0.0018
736.9239	0.0005
737.1015	-0.0158
737.2791	-0.0074
737.4567	-0.0002
737.6343	-0.0089
737.8118	-0.0084
737.9894	-0.0055
738.1669	-0.0069
738.3444	-0.0125
738.5218	-0.0047
738.6993	0.0005
738.8767	-0.0053
739.0541	0.0052
739.2315	-0.0059
739.4089	0.0045
739.5863	0.0091
739.7636	-0.0114
739.9409	0.0064
740.1182	0.0142
740.2955	0.0025
740.4728	0.0025
740.65	0.0068
740.8272	-0.0008
741.0044	-0.01
741.1816	0.0005
741.3588	-0.0031
741.5359	0.0013
741.7131	-0.0114
741.8902	-0.0039
742.0673	0.004
742.2444	-0.0019
742.4214	-0.0117
742.5985	-0.0054
742.7755	-0.0022
742.9525	-0.0144
743.1295	0.0031
743.3064	0.0037
743.4834	-0.0043
743.6603	-0.006
743.8372	-0.0119
744.0141	0.0028
744.191	0.0014
744.3678	0.001
744.5446	0.003
744.7215	0.0176
744.8982	-0.0008
745.075	0.0007
745.2518	-0.0019
745.4285	0.0082
745.6052	-0.0022
745.7819	-0.0017
745.9586	-0.0065
746.1353	-0.0019
746.3119	-0.0068
746.4885	-0.011
746.6651	-0.0072
746.8417	-0.0012
747.0183	-0.0009
747.1948	-0.0031
747.3714	-0.0041
747.5479	0.002
747.7244	-0.0028
747.9008	0.0147
748.0773	0.0012
748.2537	-0.0021
748.4301	-0.0053
748.6065	-0.0074
748.7829	0.0067
748.9593	-0.0049
749.1356	0.005
749.3119	0.0028
749.4882	-0.0121
749.6645	0.0008
749.8408	-0.0008
750.017	-0.0043
750.1933	0.006
750.3695	-0.0098
750.5457	0.0014
750.7218	-0.0007
750.898	-0.0047
751.0741	-0.0073
751.2502	-0.001
751.4263	-0.008
751.6024	-0.0024
751.7784	-0.0112
751.9545	-0.0081
752.1305	-0.0043
752.3065	-0.0086
752.4825	0.0022
752.6584	-0.0098
752.8344	-0.0092
753.0103	-0.0106
753.1862	-0.011
753.3621	-0.0067
753.5379	-0.0113
753.7138	-0.0068
753.8896	-0.0109
754.0654	-0.0014
754.2412	0.0045
754.417	-0.0067
754.5927	-0.0082
754.7685	-0.0012
754.9442	-0.0076
755.1199	0.0003
755.2956	-0.0035
755.4712	0.0021
755.6469	0.0031
755.8225	-0.0082
755.9981	0.0055
756.1736	-0.0008
756.3492	0.0002
756.5248	-0.0129
756.7003	-0.0075
756.8758	0.0006
757.0513	-0.0086
757.2267	-0.0082
757.4022	-0.0043
757.5776	-0.0119
757.753	0.0079
757.9284	0.0052
758.1038	0.016
758.2791	0.0056
758.4545	-0.0074
758.6298	0.0035
758.8051	0.0034
758.9803	0.0035
759.1556	0.0103
759.3308	0.0009
759.506	0.0079
759.6812	0.0116
759.8564	0.0064
760.0316	-0.002
760.2067	0.0038
760.3819	0.003
760.557	0.0115
760.732	-0.0076
760.9071	-0.005
761.0821	0.0002
761.2572	-0.0023
761.4322	0.002
761.6072	-0.0038
761.7821	0.0077
761.9571	0.0053
762.132	-0.0032
762.3069	-0.0061
762.4818	-0.0124
762.6567	-0.0051
762.8316	-0.0087
763.0064	0.0002
763.1812	-0.0052
763.356	-0.0114
763.5308	-0.012
763.7055	-0.0084
763.8803	-0.0135
764.055	-0.0065
764.2297	-0.0115
764.4044	-0.0099
764.579	-0.0107
764.7537	-0.0165
764.9283	-0.0017
765.1029	-0.0144
765.2775	-0.0004
765.4521	-0.0055
765.6266	-0.0109
765.8011	-0.0064
765.9756	-0.0059
766.1501	0.0098
766.3246	-0.0014
766.4991	-0.0081
766.6735	-0.0054
766.8479	-0.0179
767.0223	0.0033
767.1967	-0.0026
767.371	-0.0033
767.5454	0.0006
767.7197	-0.0048
767.894	0.0003
768.0683	-0.0108
768.2425	-0.0038
768.4168	-0.0008
768.591	-0.0025
768.7652	-0.0016
768.9394	-0.0056
769.1135	-0.003
769.2877	-0.0046
769.4618	-0.0031
769.6359	-0.0064
769.81	0.0026
769.984	-0.0122
770.1581	-0.0025
770.3321	-0.005
770.5061	-0.0117
770.6801	-0.0097
770.8541	0.0018
771.028	0.0071
771.202	-0.0212
771.3759	0.0013
771.5498	-0.0067
771.7236	0.0003
771.8975	-0.0005
772.0713	0.009
772.2451	0.0133
772.4189	0.0079
772.5927	0.0126
772.7665	0.0039
772.9402	-0.0005
773.1139	0.0089
773.2876	0.0009
773.4613	0.0054
773.635	0.012
773.8086	-0.0009
773.9822	0.0147
774.1558	-0.0049
774.3294	-0.022
774.503	0.0037
774.6765	-0.004
774.8501	-0.0019
775.0236	0.0012
775.1971	-0.0041
775.3705	-0.0113
775.544	0.0004
775.7174	-0.0074
775.8908	-0.0085
776.0642	-0.0129
776.2376	0.0026
776.4109	-0.0084
776.5843	0.0025
776.7576	0.0031
776.9309	0.0124
777.1041	-0.002
777.2774	0.0087
777.4506	-0.0067
777.6238	-0.0004
777.797	0.0054
777.9702	0.0002
778.1434	-0.0041
778.3165	-0.0088
778.4896	-0.0108
778.6627	0.0012
778.8358	0.0022
779.0089	0.0029
779.1819	0.0014
779.3549	0.0182
779.5279	0.0049
779.7009	0.0083
779.8739	0.009
780.0468	-0.0008
780.2197	0.0101
780.3926	0.004
780.5655	-0.0087
780.7384	-0.0058
780.9112	-0.0038
781.0841	-0.0107
781.2569	0.0059
781.4297	0.0007
781.6024	0.0099
781.7752	-0.0024
781.9479	0.0084
782.1206	0.0027
782.2933	-0.0053
782.466	-0.0047
782.6386	0.0135
782.8113	0.0056
782.9839	0.0001
783.1565	0.0088
783.329	0.0011
783.5016	-0.0042
783.6741	0.009
783.8466	0.001
784.0191	0.0189
784.1916	-0.0125
784.3641	0.0056
784.5365	0.0085
784.7089	-0.0096
784.8813	-0.0079
785.0537	-0.0105
785.2261	-0.0094
785.3984	-0.0126
785.5707	-0.002
785.743	0.0041
785.9153	-0.0122
786.0876	-0.003
786.2598	-0.0142
786.432	-0.0234
786.6042	0.0031
786.7764	-0.0139
786.9486	0.0023
787.1207	-0.0102
787.2928	-0.0013
787.4649	0.0027
787.637	0.0017
787.8091	-0.0122
787.9811	-0.0191
788.1532	-0.0077
788.3252	-0.0006
788.4972	-0.0154
788.6691	-0.005
788.8411	-0.0039
789.013	-0.0267
789.1849	0.0085
789.3568	-0.0041
789.5287	-0.0093
789.7005	0.0019
789.8723	0.0065
790.0442	0.0131
790.2159	0.0031
790.3877	-0.0041
790.5595	-0.0203
790.7312	-0.0007
790.9029	-0.0141
791.0746	-0.029
791.2463	-0.0119
791.4179	-0.0098
791.5896	-0.0258
791.7612	-0.0099
791.9328	0.0032
792.1044	-0.0121
792.2759	-0.0244
792.4474	-0.0241
792.619	-0.0166
792.7905	-0.0021
792.9619	-0.0047
793.1334	0.0041
793.3048	-0.004
793.4762	0.0022
793.6476	-0.0052
793.819	-0.0056
793.9904	0.0119
794.1617	-0.0034
794.333	0.0013
794.5043	-0.011
794.6756	-0.0073
794.8469	-0.007
795.0181	-0.0064
795.1893	-0.0112
795.3605	0.0011
795.5317	-0.0099
795.7029	-0.0141
795.874	-0.0176
796.0452	-0.0107
796.2163	-0.0226
796.3873	0.0103
796.5584	-0.0202
796.7294	-0.0064
796.9005	0.0143
797.0715	-0.007
797.2425	-0.0388
797.4134	-0.0126
797.5844	-0.0079
797.7553	-0.0172
797.9262	-0.0187
798.0971	-0.0257
798.2679	-0.0257
798.4388	-0.0264
798.6096	-0.0028
798.7804	-0.0031
798.9512	-0.0182
799.122	-0.0312
799.2927	-0.0122
799.4635	-0.0003
799.6342	-0.0299
799.8049	-0.0148
799.9755	-0.0169
800.1462	-0.0197
800.3168	-0.0076
800.4874	-0.0032
800.658	0.0096
800.8286	-0.008
800.9991	0.0053
801.1696	0.0056
801.3402	0.0022
801.5106	-0.0256
801.6811	-0.0052
801.8516	0.011
802.022	-0.0224
802.1924	0.0149
802.3628	0.0023
802.5332	0.0009
802.7035	0.0009
802.8739	-0.0134
803.0442	-0.022
803.2145	0.0024
803.3847	-0.03
803.555	-0.0096
803.7252	-0.0199
803.8954	-0.0217
804.0656	-0.0315
804.2358	-0.019
804.4059	-0.0072
804.5761	-0.0166
804.7462	-0.0071
804.9163	-0.0123
805.0864	-0.0345
805.2564	-0.0252
805.4264	-0.0222
805.5965	-0.0223
805.7665	-0.0138
805.9364	-0.0041
806.1064	0.0148
806.2763	-0.0016
806.4462	0.019
806.6161	-0.0001
806.786	-0.0123
806.9559	-0.0066
807.1257	0.005
807.2955	-0.015
807.4653	-0.0055
807.6351	-0.0237
807.8048	-0.0036
807.9746	-0.0046
808.1443	-0.0051
808.314	-0.0115
808.4837	-0.0133
808.6533	-0.0074
808.8229	-0.0004
808.9926	-0.0202
809.1622	-0.002
809.3317	-0.0285
809.5013	-0.03
809.6708	-0.0047
809.8403	-0.0089
810.0098	-0.0267
810.1793	-0.0069
810.3488	-0.0193
810.5182	-0.0186
810.6876	-0.0198
810.857	-0.0235
811.0264	0.0149
811.1958	0.0121
811.3651	-0.0135
811.5344	-0.0172
811.7037	-0.0204
811.873	-0.0161
812.0422	-0.0123
812.2115	-0.0129
812.3807	-0.0458
812.5499	0.0018
812.7191	-0.0113
812.8882	-0.0247
813.0574	-0.0121
813.2265	-0.0185
813.3956	-0.0068
813.5646	-0.0261
813.7337	-0.0093
813.9027	0.0164
814.0718	0.0204
814.2407	0.0208
814.4097	-0.0147
814.5787	-0.0071
814.7476	-0.0035
814.9165	-0.0119
815.0854	-0.0147
815.2543	-0.0076
815.4232	-0.0191
815.592	-0.0013
815.7608	-0.0057
815.9296	-0.0004
816.0984	0.0078
816.2671	-0.0221
816.4359	0.0029
816.6046	-0.0033
816.7733	-0.0328
816.942	-0.011
817.1106	-0.0002
817.2793	0.009
817.4479	-0.0184
817.6165	0.0032
817.785	-0.0172
817.9536	-0.0219
818.1221	-0.0254
818.2906	0.0095
818.4591	-0.0292
818.6276	-0.0245
818.7961	-0.0164
818.9645	-0.0315
819.1329	-0.0045
819.3013	-0.0232
819.4697	-0.0143
819.638	-0.0212
819.8064	-0.0025
819.9747	0.0023
820.143	-0.0297
820.3113	-0.0473
820.4795	-0.017
820.6477	-0.0239
820.816	-0.02
820.9842	-0.0115
821.1523	-0.0287
821.3205	-0.0462
821.4886	-0.0066
821.6567	-0.016
821.8248	0.0096
821.9929	-0.0053
822.1609	-0.0404
822.329	0.0192
822.497	0.0155
822.665	-0.0329
822.833	-0.0253
823.0009	0.0261
823.1688	0.0032
823.3367	0.017
823.5046	0.0025
823.6725	0.0487
823.8404	0.0118
824.0082	0.0182
824.176	0.0249
824.3438	-0.0096
824.5116	-0.0171
824.6793	-0.023
824.847	-0.0055
825.0147	-0.0057
825.1824	0.0023
825.3501	-0.0123
825.5177	-0.0298
825.6854	-0.015
825.853	-0.0154
826.0206	-0.0286
826.1881	-0.0175
826.3557	-0.0477
826.5232	-0.0062
826.6907	-0.0397
826.8582	-0.0387
827.0257	-0.0478
827.1931	0.0066
827.3605	-0.0051
827.528	0.0082
827.6953	-0.062
827.8627	-0.0185
828.03	0.0023
828.1974	-0.02
828.3647	-0.0401
828.532	-0.0447
828.6992	-0.0214
828.8665	-0.0355
829.0337	-0.0552
829.2009	0.0048
829.3681	-0.035
829.5352	0.0026
829.7024	-0.0461
829.8695	-0.0295
830.0366	0.0236
830.2037	-0.0078
830.3707	0.0002
830.5378	-0.0124
830.7048	-0.0199
830.8718	-0.0083
831.0388	-0.0439
831.2057	0.0144
831.3727	-0.0409
831.5396	-0.0326
831.7065	-0.0248
831.8734	-0.0244
832.0402	-0.0417
832.2071	-0.0042
832.3739	-0.0581
832.5407	-0.0456
832.7075	-0.0275
832.8742	-0.0457
833.041	-0.0397
833.2077	-0.0275
833.3744	-0.0026
833.541	-0.0356
833.7077	-0.0322
833.8743	-0.0088
834.0409	0.0015
834.2075	0.0165
834.3741	-0.0088
834.5407	-0.0238
834.7072	0.0016
834.8737	-0.0056
835.0402	-0.054
835.2067	-0.0009
835.3731	-0.0088
835.5395	-0.0054
835.706	-0.0266
835.8723	-0.0221
836.0387	-0.0103
836.2051	0.0217
836.3714	-0.0482
836.5377	-0.0212
836.704	-0.0424
836.8703	-0.0422
837.0365	0.004
837.2027	-0.0116
837.3689	0.0144
837.5351	-0.0425
837.7013	-0.0425
837.8674	-0.06
838.0335	-0.0419
838.1997	-0.0385
838.3657	-0.0542
838.5318	-0.0485
838.6978	-0.0124
838.8639	0.0319
839.0299	0.0056
839.1958	-0.024
839.3618	-0.0097
839.5277	-0.0189
839.6937	-0.039
839.8596	-0.041
840.0254	-0.0361
840.1913	-0.0004
840.3571	-0.0333
840.523	-0.0413
840.6888	-0.0268
840.8545	-0.085
841.0203	-0.0577
841.186	-0.0147
841.3517	0.0187
841.5174	-0.053
841.6831	-0.0348
841.8488	0.0322
842.0144	-0.0041
842.18	-0.0353
842.3456	0.0052
842.5112	-0.0365
842.6767	-0.0784
842.8422	-0.0274
843.0077	-0.0573
843.1732	-0.0682
843.3387	-0.0865
843.5042	-0.0634
843.6696	-0.0495
843.835	-0.0347
844.0004	-0.012
844.1657	0.0035
844.3311	-0.0861
844.4964	-0.1049
844.6617	-0.0616
844.827	-0.0922
844.9923	-0.0074
845.1575	0.0066
845.3227	-0.0371
845.4879	-0.0474
845.6531	-0.0788
845.8183	-0.0918
845.9834	-0.0489
846.1485	0.0116
846.3136	-0.0642
846.4787	-0.11
846.6438	0.0315
846.8088	-0.0192
846.9738	-0.1236
847.1388	0.0007
847.3038	-0.0573
847.4687	-0.1484
847.6337	-0.033
847.7986	-0.0176
847.9635	-0.1024
848.1284	-0.0545
848.2932	0.0936
848.458	-0.0475
848.6228	0.0847
848.7876	0.0298
848.9524	-0.1003
849.1172	-0.0976
849.2819	0.0251
849.4466	-0.1488
849.6113	-0.0709
849.7759	-0.1206
849.9406	-0.0509
850.1052	-0.0095
850.2698	-0.0213
850.4344	-0.0126
850.599	-0.0672
850.7635	0.026
850.928	-0.0253
851.0925	-0.0764
851.257	-0.0398
851.4215	0.0288
851.5859	0.0011
851.7503	-0.0008
851.9147	0.0263
852.0791	-0.0733
852.2434	-0.0674
852.4078	-0.0296
852.5721	0.0292
852.7364	-0.1179
852.9007	-0.1696
853.0649	-0.0747
853.2291	-0.0461
853.3934	0.0058
853.5575	0.0551
853.7217	-0.1083
853.8859	-0.2309
854.05	-0.1225
854.2141	0.0065
854.3782	-0.1195
854.5423	-0.0639
854.7063	0.1078
854.8703	0.0098
855.0343	-0.0047
855.1983	-0.1841
855.3623	0.0536
855.5262	0.0796
855.6901	-0.0156
855.854	-0.029
856.0179	0.0605
856.1818	-0.0585
856.3456	-0.0644
856.5094	-0.1371
856.6732	-0.1275
856.837	-0.1759
857.0008	0.0652
857.1645	-0.0888
857.3282	-0.1129
857.4919	0.0709
857.6556	-0.1403
857.8192	0.0219
857.9828	-0.0595
858.1465	-0.0284
858.31	-0.2374
858.4736	-0.0391
858.6372	-0.1275
858.8007	-0.2786
858.9642	-0.0495
859.1277	-0.2325
859.2911	0.1909
859.4546	-0.0043
859.618	-0.3329
859.7814	0.0442
859.9448	0.0629
860.1081	0.2949
860.2715	0.0958
860.4348	-0.0479
860.5981	-0.0675
860.7614	0.1321
860.9246	-0.1679
861.0879	-0.3533
861.2511	-0.0254
861.4143	-0.3752
861.5774	-0.0388
861.7406	-0.2415
861.9037	0.0267
862.0668	-0.1288
862.2299	-0.1876
862.393	-0.6021
862.556	-0.1191
862.7191	-0.2912
862.8821	-0.3429
863.0451	0.3713
863.208	-0.1017
863.371	0.1905
863.5339	-0.148
863.6968	-0.129
863.8597	0.1094
864.0225	0.003
864.1854	-0.265
864.3482	0.0577
864.511	0.0687
864.6737	-0.0407
864.8365	0.0686
864.9992	-0.3176
865.1619	-0.5554
865.3246	0.9153
865.4873	-0.0868
865.65	-0.2285
865.8126	-0.069
865.9752	0.0672
866.1378	-0.0818
866.3004	0.1383
866.4629	0.3163
866.6254	-0.3099
866.7879	0.1825
866.9504	-0.0125
867.1129	-0
867.2753	-0.0495
867.4377	-0.0021
867.6001	-0.4213
867.7625	0.3362
867.9249	-0.6972
868.0872	0.2137
868.2495	-0.0795
868.4118	0.0943
868.5741	0.2006
868.7363	-0.5159
868.8986	-0.1667
869.0608	-0.2318
869.223	0.079
869.3851	0.7582
869.5473	-0
869.7094	0.0861
869.8715	-0.4289
870.0336	-0
870.1957	-0.7899
870.3577	-0
870.5197	-0.0529
870.6817	-0.0101
870.8437	-0.1337
871.0057	-0.2041
871.1676	-0.633
871.3295	-0.6735
871.4914	-0
871.6533	-0.3913
871.8151	-0.4786
871.977	-0
872.1388	-0
872.3006	0.1875
872.4623	-0
872.6241	0.2084
872.7858	-0.0198
872.9475	-0.209
873.1092	-0.2964
873.2709	-0.1748
873.4325	0.0455
873.5941	-0.0547
873.7557	-0
873.9173	-0
874.0789	-0.394
874.2404	-0.8229
874.4019	0.241
874.5634	-0.3731
874.7249	-0.0136
874.8863	-0.2244
875.0478	-0.0472
875.2092	-0
875.3706	0.1728
875.5319	-0.7874
875.6933	-0
875.8546	0.0876
876.0159	-0
876.1772	0.1308
876.3385	-0
876.4997	0.0622
876.6609	-0.6528
876.8221	-0.0563
876.9833	-0
877.1445	-0
877.3056	-0.2961
877.4667	-0.0806
877.6278	-0
877.7889	-0.8808
877.9499	-0
878.111	-0.6609
878.272	-0
878.433	-0
878.5939	-0
878.7549	-0.195
878.9158	-0.9558
879.0767	-0
879.2376	-0
879.3984	-0.0297
879.5593	-0
879.7201	-0.3263
879.8809	-0.8358
880.0417	-0.4787
880.2024	-0.3031
880.3632	-1.284
880.5239	-0.1409
880.6846	0.2864
880.8452	-2.3304
881.0059	-0
881.1665	0.2252
881.3271	-0
881.4877	-0.3081
881.6483	-0.7537
881.8088	-0.559
881.9693	-0
882.1298	-0
882.2903	-0
