Data from MonoPyChalIsomerACN10uM420nmA_Absorbance_15-09-50-834.txt Node
Date: Fri Jul 05 15:09:50 BST 2024
User: LASERRRRR
Spectrometer: FLMT03099
Trigger mode: 0
Integration Time (sec): 1.000000E-1
Scans to average: 1
Electric dark correction enabled: true
Nonlinearity correction enabled: false
Boxcar width: 0
XAxis mode: Wavelengths
Number of Pixels in Spectrum: 3648
>>>>>Begin Spectral Data<<<<<
179.3399	-0.529
179.5586	-0.529
179.7771	-0.529
179.9957	-0.1817
180.2143	-0
180.4329	-0.0411
180.6514	-0
180.8699	-0
181.0885	1.9518
181.307	0.4998
181.5255	-0
181.744	-0
181.9625	-0
182.181	-0
182.3994	0.3922
182.6179	1.0746
182.8363	0.243
183.0547	0.3292
183.2732	0.0227
183.4916	0.1306
183.71	0.2559
183.9284	0.1515
184.1467	-0.0946
184.3651	0.0696
184.5835	-0.0284
184.8018	0.0988
185.0201	0.2541
185.2385	-0.0683
185.4568	0.1816
185.6751	0.0457
185.8934	0.3004
186.1117	0.1125
186.3299	-0.009
186.5482	0.5301
186.7664	-0.0164
186.9847	0.0259
187.2029	0.1258
187.4211	0.0593
187.6393	0.5994
187.8575	0.0213
188.0757	0.2489
188.2939	0.015
188.512	0.9098
188.7302	0.183
188.9483	0.5398
189.1665	0.2251
189.3846	0.1415
189.6027	0.2836
189.8208	0.16
190.0389	0.2948
190.257	0.0045
190.475	0.2253
190.6931	0.382
190.9111	1.292
191.1292	0.2229
191.3472	0.4696
191.5652	0.2754
191.7832	0.298
192.0012	0.4753
192.2192	0.3777
192.4371	0.5447
192.6551	0.4494
192.873	0.4629
193.091	0.5369
193.3089	0.5781
193.5268	0.5572
193.7447	0.6297
193.9626	0.6382
194.1805	0.4774
194.3984	0.6846
194.6162	0.5298
194.8341	0.5314
195.0519	0.6197
195.2697	0.604
195.4875	1.1051
195.7054	0.7826
195.9231	0.6798
196.1409	0.6966
196.3587	0.5522
196.5765	0.5586
196.7942	0.6549
197.012	0.5476
197.2297	0.629
197.4474	0.7352
197.6651	0.4266
197.8828	0.7745
198.1005	0.6025
198.3182	0.6413
198.5358	0.795
198.7535	0.5947
198.9711	0.5677
199.1888	0.6274
199.4064	0.7915
199.624	0.6578
199.8416	0.6267
200.0592	0.7039
200.2767	0.6921
200.4943	0.6806
200.7119	0.9246
200.9294	0.7501
201.1469	0.5369
201.3645	0.7029
201.582	0.5726
201.7995	0.7381
202.017	0.697
202.2344	0.6727
202.4519	0.724
202.6694	0.6557
202.8868	0.6598
203.1042	0.7511
203.3217	0.6736
203.5391	0.6685
203.7565	0.649
203.9739	0.5798
204.1913	0.6627
204.4086	0.7105
204.626	0.7636
204.8433	0.6598
205.0607	0.7458
205.278	0.6873
205.4953	0.6965
205.7126	0.709
205.9299	0.766
206.1472	0.6951
206.3644	0.6339
206.5817	0.6422
206.7989	0.6883
207.0162	0.72
207.2334	0.6456
207.4506	0.667
207.6678	0.6448
207.885	0.8179
208.1022	0.7253
208.3194	0.7304
208.5365	0.644
208.7537	0.7441
208.9708	0.5653
209.1879	0.6789
209.405	0.7016
209.6222	0.7597
209.8392	0.7182
210.0563	0.5797
210.2734	0.6696
210.4905	0.6119
210.7075	0.6015
210.9245	0.6037
211.1416	0.7639
211.3586	0.6942
211.5756	0.6788
211.7926	0.6076
212.0096	0.6281
212.2265	0.5908
212.4435	0.5929
212.6604	0.6976
212.8774	0.6323
213.0943	0.6321
213.3112	0.5323
213.5281	0.5527
213.745	0.5332
213.9619	0.5081
214.1788	0.4742
214.3956	0.4707
214.6125	0.5048
214.8293	0.4832
215.0461	0.4954
215.2629	0.4416
215.4798	0.5277
215.6965	0.4456
215.9133	0.4744
216.1301	0.4626
216.3469	0.446
216.5636	0.4201
216.7803	0.3938
216.9971	0.4239
217.2138	0.3906
217.4305	0.3898
217.6472	0.3635
217.8639	0.4129
218.0805	0.3536
218.2972	0.3291
218.5138	0.3206
218.7305	0.3295
218.9471	0.3194
219.1637	0.2995
219.3803	0.2582
219.5969	0.3091
219.8135	0.2695
220.0301	0.3127
220.2466	0.2832
220.4632	0.2628
220.6797	0.2342
220.8962	0.2549
221.1127	0.2804
221.3292	0.2623
221.5457	0.2343
221.7622	0.2417
221.9787	0.2633
222.1951	0.2314
222.4116	0.2675
222.628	0.2692
222.8444	0.2621
223.0608	0.2608
223.2772	0.2526
223.4936	0.2798
223.71	0.2586
223.9264	0.2965
224.1427	0.265
224.3591	0.2446
224.5754	0.2686
224.7917	0.2607
225.008	0.2606
225.2243	0.2727
225.4406	0.2769
225.6569	0.2753
225.8732	0.2832
226.0894	0.2485
226.3057	0.2949
226.5219	0.3039
226.7381	0.2722
226.9543	0.2907
227.1705	0.2823
227.3867	0.3021
227.6029	0.3035
227.8191	0.2935
228.0352	0.2964
228.2513	0.3329
228.4675	0.3376
228.6836	0.3138
228.8997	0.3057
229.1158	0.3117
229.3319	0.3054
229.548	0.3166
229.764	0.3349
229.9801	0.3366
230.1961	0.3273
230.4121	0.3359
230.6282	0.3312
230.8442	0.3381
231.0602	0.3578
231.2761	0.3476
231.4921	0.3425
231.7081	0.3455
231.924	0.3333
232.14	0.3875
232.3559	0.3408
232.5718	0.3939
232.7877	0.3692
233.0036	0.3692
233.2195	0.3398
233.4353	0.3723
233.6512	0.3619
233.867	0.3679
234.0829	0.3719
234.2987	0.3661
234.5145	0.3889
234.7303	0.3779
234.9461	0.3817
235.1619	0.3902
235.3776	0.3873
235.5934	0.387
235.8091	0.3793
236.0249	0.3812
236.2406	0.3875
236.4563	0.385
236.672	0.4192
236.8877	0.4026
237.1034	0.3936
237.319	0.3972
237.5347	0.4217
237.7503	0.3925
237.966	0.4127
238.1816	0.4143
238.3972	0.4129
238.6128	0.4064
238.8284	0.404
239.0439	0.4241
239.2595	0.4031
239.475	0.4374
239.6906	0.4221
239.9061	0.4141
240.1216	0.4134
240.3371	0.42
240.5526	0.413
240.7681	0.4222
240.9836	0.4047
241.199	0.4047
241.4145	0.3915
241.6299	0.3844
241.8453	0.4013
242.0607	0.3748
242.2761	0.3675
242.4915	0.3852
242.7069	0.3753
242.9223	0.3641
243.1376	0.3513
243.353	0.3641
243.5683	0.3541
243.7836	0.3174
243.9989	0.3418
244.2142	0.3279
244.4295	0.3234
244.6448	0.3242
244.86	0.2954
245.0753	0.3107
245.2905	0.2939
245.5057	0.28
245.721	0.3018
245.9362	0.2966
246.1514	0.2776
246.3665	0.2702
246.5817	0.2737
246.7969	0.2632
247.012	0.2641
247.2271	0.2443
247.4423	0.273
247.6574	0.2484
247.8725	0.2468
248.0876	0.2385
248.3026	0.2323
248.5177	0.2375
248.7328	0.2289
248.9478	0.2119
249.1628	0.2169
249.3779	0.2149
249.5929	0.2002
249.8079	0.2199
250.0228	0.2229
250.2378	0.2031
250.4528	0.2169
250.6677	0.1883
250.8827	0.2093
251.0976	0.2123
251.3125	0.1988
251.5274	0.1768
251.7423	0.183
251.9572	0.2074
252.172	0.196
252.3869	0.1837
252.6017	0.1844
252.8166	0.1804
253.0314	0.1805
253.2462	0.1895
253.461	0.1768
253.6758	0.1756
253.8906	0.1914
254.1053	0.1739
254.3201	0.166
254.5348	0.1898
254.7496	0.1876
254.9643	0.1698
255.179	0.1852
255.3937	0.1731
255.6083	0.184
255.823	0.1826
256.0377	0.1731
256.2523	0.1839
256.467	0.1635
256.6816	0.1855
256.8962	0.1648
257.1108	0.1766
257.3254	0.1704
257.54	0.1615
257.7545	0.1747
257.9691	0.1755
258.1836	0.1645
258.3981	0.1806
258.6127	0.18
258.8272	0.1688
259.0417	0.1685
259.2561	0.1652
259.4706	0.1721
259.6851	0.1852
259.8995	0.1681
260.114	0.1715
260.3284	0.1733
260.5428	0.1627
260.7572	0.1783
260.9716	0.1746
261.186	0.1672
261.4003	0.182
261.6147	0.1768
261.829	0.1763
262.0433	0.1672
262.2577	0.1677
262.472	0.1787
262.6863	0.1569
262.9005	0.1726
263.1148	0.1748
263.3291	0.1481
263.5433	0.1705
263.7576	0.1651
263.9718	0.1847
264.186	0.1693
264.4002	0.1705
264.6144	0.1686
264.8286	0.1738
265.0427	0.1847
265.2569	0.1753
265.471	0.1662
265.6851	0.1532
265.8993	0.1786
266.1134	0.1699
266.3275	0.1652
266.5415	0.1638
266.7556	0.1718
266.9697	0.1767
267.1837	0.1812
267.3978	0.1659
267.6118	0.1754
267.8258	0.1817
268.0398	0.1569
268.2538	0.1727
268.4677	0.1585
268.6817	0.167
268.8957	0.1654
269.1096	0.1672
269.3235	0.1665
269.5374	0.1556
269.7514	0.1592
269.9652	0.1572
270.1791	0.1595
270.393	0.1592
270.6068	0.1622
270.8207	0.1507
271.0345	0.1487
271.2483	0.1628
271.4622	0.1437
271.676	0.1589
271.8897	0.1423
272.1035	0.1569
272.3173	0.1586
272.531	0.1572
272.7448	0.1429
272.9585	0.1449
273.1722	0.1629
273.3859	0.1637
273.5996	0.1453
273.8133	0.1453
274.0269	0.1552
274.2406	0.1472
274.4542	0.1453
274.6679	0.1417
274.8815	0.1429
275.0951	0.1568
275.3087	0.1623
275.5223	0.1591
275.7358	0.151
275.9494	0.1424
276.1629	0.1392
276.3765	0.1511
276.59	0.154
276.8035	0.1542
277.017	0.1492
277.2305	0.1454
277.444	0.1584
277.6574	0.144
277.8709	0.1526
278.0843	0.148
278.2978	0.1403
278.5112	0.1502
278.7246	0.1492
278.938	0.1515
279.1513	0.1558
279.3647	0.1591
279.5781	0.1631
279.7914	0.1584
280.0047	0.1564
280.2181	0.1573
280.4314	0.1617
280.6447	0.1735
280.8579	0.1632
281.0712	0.1595
281.2845	0.1594
281.4977	0.1642
281.711	0.1587
281.9242	0.1615
282.1374	0.1652
282.3506	0.1497
282.5638	0.1577
282.7769	0.1728
282.9901	0.1547
283.2033	0.1715
283.4164	0.1602
283.6295	0.147
283.8426	0.1628
284.0557	0.1582
284.2688	0.1672
284.4819	0.1629
284.695	0.1663
284.908	0.165
285.1211	0.1669
285.3341	0.1701
285.5471	0.1746
285.7601	0.1594
285.9731	0.1554
286.1861	0.1587
286.3991	0.166
286.612	0.1667
286.825	0.1577
287.0379	0.1707
287.2508	0.1611
287.4637	0.1736
287.6766	0.1583
287.8895	0.166
288.1024	0.1769
288.3152	0.1773
288.5281	0.1486
288.7409	0.1638
288.9538	0.1661
289.1666	0.1621
289.3794	0.1681
289.5922	0.1616
289.8049	0.1676
290.0177	0.1586
290.2304	0.1625
290.4432	0.1735
290.6559	0.1659
290.8686	0.1649
291.0813	0.1691
291.294	0.1693
291.5067	0.1746
291.7194	0.1634
291.932	0.1854
292.1447	0.1641
292.3573	0.161
292.5699	0.1694
292.7825	0.1634
292.9951	0.159
293.2077	0.1635
293.4203	0.172
293.6328	0.1584
293.8454	0.169
294.0579	0.1706
294.2704	0.1725
294.4829	0.1642
294.6954	0.1664
294.9079	0.1707
295.1204	0.1598
295.3328	0.1636
295.5453	0.1615
295.7577	0.1645
295.9701	0.1609
296.1825	0.1683
296.3949	0.1601
296.6073	0.162
296.8197	0.159
297.0321	0.166
297.2444	0.1579
297.4567	0.1607
297.6691	0.1648
297.8814	0.1616
298.0937	0.175
298.306	0.1768
298.5182	0.157
298.7305	0.173
298.9428	0.1604
299.155	0.1687
299.3672	0.1674
299.5794	0.1614
299.7916	0.1658
300.0038	0.1671
300.216	0.167
300.4282	0.1745
300.6403	0.1567
300.8525	0.1697
301.0646	0.1552
301.2767	0.1696
301.4888	0.1638
301.7009	0.1622
301.913	0.1619
302.125	0.1676
302.3371	0.1602
302.5491	0.177
302.7612	0.1788
302.9732	0.1672
303.1852	0.1748
303.3972	0.1546
303.6092	0.1623
303.8211	0.1528
304.0331	0.1507
304.245	0.1609
304.457	0.1569
304.6689	0.1444
304.8808	0.1597
305.0927	0.1459
305.3046	0.1557
305.5164	0.1501
305.7283	0.1516
305.9401	0.1513
306.152	0.1568
306.3638	0.1513
306.5756	0.1438
306.7874	0.1458
306.9992	0.1608
307.2109	0.1421
307.4227	0.1336
307.6344	0.1403
307.8462	0.1423
308.0579	0.1334
308.2696	0.1421
308.4813	0.1404
308.693	0.1275
308.9046	0.1397
309.1163	0.126
309.328	0.1344
309.5396	0.1335
309.7512	0.1276
309.9628	0.1215
310.1744	0.1281
310.386	0.1227
310.5976	0.1228
310.8091	0.1295
311.0207	0.1226
311.2322	0.1308
311.4437	0.1159
311.6552	0.1163
311.8667	0.1258
312.0782	0.0987
312.2897	0.1097
312.5012	0.1214
312.7126	0.1093
312.924	0.1076
313.1355	0.1234
313.3469	0.1026
313.5583	0.1061
313.7696	0.1046
313.981	0.1117
314.1924	0.1025
314.4037	0.101
314.6151	0.108
314.8264	0.1053
315.0377	0.102
315.249	0.1073
315.4603	0.1154
315.6716	0.1083
315.8828	0.0891
316.0941	0.0935
316.3053	0.0965
316.5165	0.0966
316.7277	0.1024
316.9389	0.1115
317.1501	0.108
317.3613	0.1007
317.5724	0.0922
317.7836	0.1025
317.9947	0.1033
318.2058	0.105
318.417	0.0971
318.6281	0.0907
318.8391	0.0945
319.0502	0.0967
319.2613	0.1043
319.4723	0.1085
319.6834	0.1134
319.8944	0.0979
320.1054	0.1065
320.3164	0.1005
320.5274	0.0972
320.7383	0.1027
320.9493	0.1042
321.1602	0.1111
321.3712	0.0922
321.5821	0.1021
321.793	0.1055
322.0039	0.0978
322.2148	0.0992
322.4257	0.1039
322.6365	0.1132
322.8474	0.0979
323.0582	0.1023
323.269	0.1141
323.4798	0.1188
323.6906	0.1057
323.9014	0.1198
324.1122	0.1051
324.3229	0.0995
324.5337	0.0983
324.7444	0.1014
324.9551	0.1164
325.1658	0.1118
325.3765	0.111
325.5872	0.1079
325.7979	0.1
326.0085	0.1054
326.2192	0.1156
326.4298	0.1059
326.6404	0.1045
326.851	0.0954
327.0616	0.1083
327.2722	0.0993
327.4828	0.1095
327.6933	0.1043
327.9039	0.1054
328.1144	0.108
328.3249	0.1079
328.5354	0.0961
328.7459	0.1093
328.9564	0.096
329.1669	0.1135
329.3773	0.1186
329.5878	0.1099
329.7982	0.1125
330.0086	0.1128
330.219	0.1068
330.4294	0.1032
330.6398	0.1015
330.8502	0.112
331.0605	0.1145
331.2708	0.1103
331.4812	0.1146
331.6915	0.1026
331.9018	0.1097
332.1121	0.1027
332.3224	0.1136
332.5326	0.1161
332.7429	0.1047
332.9531	0.1213
333.1633	0.1157
333.3735	0.1062
333.5837	0.1064
333.7939	0.1071
334.0041	0.1206
334.2143	0.1199
334.4244	0.1073
334.6346	0.1002
334.8447	0.1179
335.0548	0.1082
335.2649	0.1073
335.475	0.1106
335.685	0.1036
335.8951	0.1292
336.1051	0.1146
336.3152	0.1265
336.5252	0.1113
336.7352	0.1094
336.9452	0.1195
337.1552	0.1132
337.3652	0.1148
337.5751	0.1061
337.7851	0.1269
337.995	0.1025
338.2049	0.1207
338.4148	0.1155
338.6247	0.1321
338.8346	0.1083
339.0445	0.11
339.2543	0.1235
339.4642	0.117
339.674	0.112
339.8838	0.1162
340.0936	0.1107
340.3034	0.1146
340.5132	0.1166
340.7229	0.1159
340.9327	0.1193
341.1424	0.1183
341.3522	0.127
341.5619	0.1307
341.7716	0.1181
341.9813	0.116
342.1909	0.1212
342.4006	0.1363
342.6102	0.1305
342.8199	0.1342
343.0295	0.1208
343.2391	0.1211
343.4487	0.1418
343.6583	0.1134
343.8679	0.1265
344.0774	0.1199
344.287	0.1215
344.4965	0.1256
344.706	0.1347
344.9155	0.1311
345.125	0.1223
345.3345	0.1409
345.544	0.1265
345.7534	0.1154
345.9629	0.1339
346.1723	0.1446
346.3817	0.1378
346.5911	0.1296
346.8005	0.136
347.0099	0.134
347.2193	0.1487
347.4286	0.1315
347.638	0.1334
347.8473	0.1464
348.0566	0.1343
348.2659	0.1348
348.4752	0.1453
348.6845	0.1405
348.8937	0.1388
349.103	0.1635
349.3122	0.1424
349.5214	0.1283
349.7306	0.1414
349.9398	0.1375
350.149	0.1435
350.3582	0.1341
350.5674	0.149
350.7765	0.1457
350.9856	0.1367
351.1948	0.1383
351.4039	0.1258
351.613	0.1347
351.822	0.1418
352.0311	0.1545
352.2402	0.1428
352.4492	0.1615
352.6582	0.1423
352.8672	0.1415
353.0762	0.1514
353.2852	0.1539
353.4942	0.1428
353.7032	0.1511
353.9121	0.1422
354.1211	0.145
354.33	0.1557
354.5389	0.1624
354.7478	0.1494
354.9567	0.1545
355.1655	0.1364
355.3744	0.1676
355.5833	0.1665
355.7921	0.1803
356.0009	0.1553
356.2097	0.1653
356.4185	0.1659
356.6273	0.1703
356.8361	0.162
357.0448	0.146
357.2536	0.1611
357.4623	0.1604
357.671	0.177
357.8797	0.1778
358.0884	0.1674
358.2971	0.1555
358.5057	0.1726
358.7144	0.1723
358.923	0.1724
359.1316	0.1846
359.3402	0.1754
359.5488	0.165
359.7574	0.1631
359.966	0.1763
360.1746	0.1815
360.3831	0.1714
360.5916	0.1605
360.8002	0.1711
361.0087	0.1829
361.2172	0.1844
361.4256	0.1717
361.6341	0.1886
361.8426	0.1751
362.051	0.1746
362.2594	0.1828
362.4678	0.1727
362.6762	0.2009
362.8846	0.187
363.093	0.1904
363.3014	0.1753
363.5097	0.165
363.718	0.1942
363.9264	0.1947
364.1347	0.198
364.343	0.1834
364.5513	0.1905
364.7595	0.205
364.9678	0.1883
365.176	0.1934
365.3842	0.1921
365.5925	0.2052
365.8007	0.2086
366.0089	0.1911
366.217	0.1918
366.4252	0.1926
366.6333	0.2051
366.8415	0.2052
367.0496	0.1996
367.2577	0.2058
367.4658	0.2107
367.6739	0.2196
367.882	0.21
368.09	0.2019
368.2981	0.2165
368.5061	0.2106
368.7141	0.2085
368.9221	0.2238
369.1301	0.209
369.3381	0.2108
369.5461	0.2124
369.754	0.2152
369.962	0.2318
370.1699	0.2097
370.3778	0.2131
370.5857	0.1937
370.7936	0.2134
371.0015	0.2254
371.2093	0.2281
371.4172	0.2252
371.625	0.2124
371.8328	0.2173
372.0406	0.2125
372.2484	0.2101
372.4562	0.2331
372.664	0.2043
372.8717	0.2398
373.0795	0.2013
373.2872	0.2106
373.4949	0.2213
373.7026	0.2258
373.9103	0.2337
374.118	0.2154
374.3256	0.2136
374.5333	0.227
374.7409	0.2157
374.9485	0.2355
375.1561	0.243
375.3637	0.2415
375.5713	0.2241
375.7789	0.2286
375.9864	0.2287
376.194	0.2352
376.4015	0.2544
376.609	0.2407
376.8165	0.2413
377.024	0.2369
377.2315	0.2327
377.4389	0.2326
377.6464	0.2647
377.8538	0.2462
378.0612	0.229
378.2686	0.2565
378.476	0.2532
378.6834	0.24
378.8908	0.2372
379.0981	0.2429
379.3055	0.2461
379.5128	0.2468
379.7201	0.2316
379.9274	0.2326
380.1347	0.2399
380.342	0.2685
380.5492	0.2323
380.7565	0.2419
380.9637	0.2447
381.1709	0.2554
381.3781	0.2479
381.5853	0.2715
381.7925	0.2538
381.9997	0.2521
382.2068	0.2768
382.4139	0.2462
382.6211	0.2446
382.8282	0.2433
383.0353	0.2622
383.2424	0.2519
383.4494	0.2607
383.6565	0.2366
383.8635	0.2493
384.0706	0.2563
384.2776	0.261
384.4846	0.2429
384.6916	0.2404
384.8986	0.2387
385.1055	0.2653
385.3125	0.2592
385.5194	0.2208
385.7263	0.2666
385.9333	0.2483
386.1402	0.2514
386.347	0.2514
386.5539	0.2477
386.7608	0.2649
386.9676	0.2438
387.1744	0.2545
387.3813	0.2436
387.5881	0.2643
387.7948	0.2602
388.0016	0.2428
388.2084	0.264
388.4151	0.2406
388.6219	0.2447
388.8286	0.2505
389.0353	0.2587
389.242	0.2528
389.4487	0.2452
389.6553	0.2269
389.862	0.2195
390.0686	0.2403
390.2753	0.2507
390.4819	0.2379
390.6885	0.2331
390.8951	0.2341
391.1016	0.2415
391.3082	0.2339
391.5147	0.2449
391.7213	0.2211
391.9278	0.2171
392.1343	0.227
392.3408	0.2244
392.5473	0.2289
392.7537	0.2332
392.9602	0.2302
393.1666	0.2268
393.373	0.2356
393.5794	0.2199
393.7858	0.221
393.9922	0.2207
394.1986	0.2299
394.4049	0.2247
394.6113	0.2167
394.8176	0.1935
395.0239	0.2196
395.2302	0.2145
395.4365	0.2316
395.6428	0.2242
395.8491	0.2259
396.0553	0.2033
396.2615	0.2299
396.4678	0.2176
396.674	0.2073
396.8802	0.2173
397.0863	0.2235
397.2925	0.2013
397.4987	0.2254
397.7048	0.2099
397.9109	0.2082
398.117	0.1968
398.3231	0.2132
398.5292	0.2226
398.7353	0.2134
398.9413	0.2091
399.1474	0.2036
399.3534	0.2197
399.5594	0.2045
399.7654	0.2155
399.9714	0.215
400.1774	0.1999
400.3833	0.221
400.5893	0.2136
400.7952	0.2098
401.0011	0.2219
401.207	0.2271
401.4129	0.2162
401.6188	0.2111
401.8247	0.2232
402.0305	0.2029
402.2364	0.2049
402.4422	0.2276
402.648	0.214
402.8538	0.2361
403.0596	0.213
403.2654	0.244
403.4711	0.2068
403.6768	0.2018
403.8826	0.2231
404.0883	0.2148
404.294	0.2085
404.4997	0.2035
404.7054	0.2045
404.911	0.1933
405.1167	0.2118
405.3223	0.2143
405.5279	0.2052
405.7335	0.2172
405.9391	0.2155
406.1447	0.2044
406.3502	0.2332
406.5558	0.2156
406.7613	0.2072
406.9668	0.2071
407.1724	0.1962
407.3778	0.2043
407.5833	0.196
407.7888	0.2074
407.9942	0.2386
408.1997	0.2072
408.4051	0.2114
408.6105	0.2157
408.8159	0.1923
409.0213	0.2025
409.2267	0.2125
409.432	0.1924
409.6374	0.2271
409.8427	0.2001
410.048	0.2008
410.2533	0.1969
410.4586	0.2049
410.6639	0.1981
410.8691	0.1938
411.0744	0.1893
411.2796	0.1918
411.4848	0.2198
411.69	0.1917
411.8952	0.2281
412.1004	0.1937
412.3056	0.2064
412.5107	0.1907
412.7158	0.2079
412.921	0.1938
413.1261	0.2074
413.3312	0.1917
413.5362	0.2113
413.7413	0.1868
413.9464	0.1952
414.1514	0.1888
414.3564	0.2006
414.5614	0.2018
414.7664	0.1899
414.9714	0.2025
415.1764	0.2056
415.3813	0.2222
415.5863	0.1953
415.7912	0.2267
415.9961	0.2029
416.201	0.1911
416.4059	0.1969
416.6108	0.1951
416.8156	0.1903
417.0205	0.2042
417.2253	0.1942
417.4301	0.2089
417.6349	0.1896
417.8397	0.1863
418.0445	0.2138
418.2492	0.1974
418.454	0.1966
418.6587	0.1941
418.8634	0.2077
419.0681	0.1872
419.2728	0.2022
419.4775	0.1772
419.6822	0.1735
419.8868	0.1639
420.0915	0.1848
420.2961	0.1732
420.5007	0.189
420.7053	0.1794
420.9099	0.1835
421.1144	0.1911
421.319	0.1945
421.5235	0.2031
421.728	0.1803
421.9325	0.1805
422.137	0.1846
422.3415	0.1778
422.546	0.2027
422.7504	0.1864
422.9549	0.1821
423.1593	0.1839
423.3637	0.1909
423.5681	0.1816
423.7725	0.1859
423.9769	0.1626
424.1812	0.1721
424.3856	0.1633
424.5899	0.1866
424.7942	0.1765
424.9985	0.1793
425.2028	0.1692
425.4071	0.2064
425.6113	0.1399
425.8156	0.1711
426.0198	0.1718
426.224	0.1547
426.4282	0.1565
426.6324	0.1502
426.8366	0.1754
427.0407	0.1624
427.2449	0.1522
427.449	0.1698
427.6531	0.1457
427.8572	0.151
428.0613	0.15
428.2654	0.1595
428.4694	0.1473
428.6735	0.1612
428.8775	0.1522
429.0815	0.1604
429.2855	0.1509
429.4895	0.1578
429.6935	0.1626
429.8975	0.1478
430.1014	0.1375
430.3053	0.1238
430.5093	0.1537
430.7132	0.1335
430.9171	0.1215
431.1209	0.1317
431.3248	0.1321
431.5286	0.1322
431.7325	0.1432
431.9363	0.126
432.1401	0.1375
432.3439	0.1198
432.5477	0.1123
432.7514	0.1135
432.9552	0.1326
433.1589	0.1151
433.3627	0.118
433.5664	0.1024
433.7701	0.1063
433.9737	0.1022
434.1774	0.1079
434.3811	0.1152
434.5847	0.1113
434.7883	0.1062
434.9919	0.114
435.1955	0.1161
435.3991	0.1085
435.6027	0.1037
435.8062	0.1153
436.0098	0.0929
436.2133	0.108
436.4168	0.0918
436.6203	0.0802
436.8238	0.103
437.0272	0.0923
437.2307	0.08
437.4341	0.1163
437.6375	0.0873
437.841	0.0869
438.0443	0.1004
438.2477	0.0902
438.4511	0.0722
438.6545	0.0759
438.8578	0.093
439.0611	0.0744
439.2644	0.0823
439.4677	0.0758
439.671	0.0725
439.8743	0.075
440.0775	0.0778
440.2808	0.0673
440.484	0.0676
440.6872	0.0561
440.8904	0.0568
441.0936	0.0876
441.2967	0.0708
441.4999	0.0748
441.703	0.0661
441.9062	0.0648
442.1093	0.0593
442.3124	0.0776
442.5155	0.0567
442.7185	0.0687
442.9216	0.0504
443.1246	0.0748
443.3276	0.0602
443.5307	0.0604
443.7337	0.0684
443.9366	0.066
444.1396	0.0589
444.3426	0.0436
444.5455	0.06
444.7484	0.0447
444.9513	0.0433
445.1542	0.0594
445.3571	0.0513
445.56	0.0631
445.7628	0.0395
445.9657	0.0471
446.1685	0.042
446.3713	0.0487
446.5741	0.0481
446.7769	0.041
446.9797	0.0451
447.1824	0.0469
447.3852	0.0475
447.5879	0.0379
447.7906	0.0511
447.9933	0.0259
448.196	0.025
448.3986	0.0279
448.6013	0.0246
448.8039	0.03
449.0066	0.0405
449.2092	0.0427
449.4118	0.0329
449.6143	0.0235
449.8169	0.041
450.0195	0.0271
450.222	0.0158
450.4245	0.0297
450.627	0.0333
450.8295	0.022
451.032	0.0234
451.2345	0.0281
451.4369	0.0374
451.6394	0.0368
451.8418	0.0009
452.0442	0.0078
452.2466	0.0367
452.449	0.0113
452.6513	0.0273
452.8537	0.0219
453.056	0.0093
453.2583	0.023
453.4607	0.0105
453.663	0.0271
453.8652	0.0323
454.0675	0.0032
454.2697	0.0259
454.472	0.0055
454.6742	0.0235
454.8764	0.0201
455.0786	0.0232
455.2808	0.0011
455.4829	0.012
455.6851	0.0106
455.8872	0.0171
456.0893	0.0201
456.2915	-0.0016
456.4935	0.0255
456.6956	0.0215
456.8977	0.0186
457.0997	-0.003
457.3018	0.01
457.5038	0.0242
457.7058	0.0012
457.9078	0.0068
458.1098	0.0166
458.3117	0.0125
458.5137	0.0093
458.7156	0.0308
458.9175	-0.0014
459.1194	0.0186
459.3213	0.016
459.5232	0.006
459.725	0.0028
459.9269	-0.0077
460.1287	-0.0017
460.3305	0.0046
460.5323	0.0084
460.7341	0.0064
460.9359	0.0012
461.1376	0.0154
461.3394	0.0022
461.5411	0.003
461.7428	-0.0029
461.9445	0.0024
462.1462	0.0224
462.3479	0.0028
462.5495	0.0062
462.7512	0.0128
462.9528	-0.0096
463.1544	-0.0144
463.356	0.0133
463.5576	0.0164
463.7592	-0.0014
463.9607	0.0055
464.1623	0.0227
464.3638	0.0094
464.5653	-0.0075
464.7668	0.0004
464.9683	0.0114
465.1697	0.015
465.3712	-0.0023
465.5726	-0.0229
465.7741	-0.0023
465.9755	-0.0062
466.1769	-0.0081
466.3782	-0.0151
466.5796	0.0053
466.7809	0.0059
466.9823	-0.0103
467.1836	0.0063
467.3849	-0.0061
467.5862	0.0042
467.7875	-0.0023
467.9887	-0.0004
468.19	-0.006
468.3912	-0.0081
468.5924	-0.0201
468.7936	-0.0168
468.9948	-0.011
469.196	0.0089
469.3972	-0.0094
469.5983	0.0035
469.7994	-0.0191
470.0006	0.0004
470.2017	-0.0004
470.4027	0.0104
470.6038	-0.0009
470.8049	-0.0249
471.0059	-0.0088
471.2069	-0.0247
471.408	0.0111
471.6089	-0.0122
471.8099	-0.0048
472.0109	0.0052
472.2119	-0.0132
472.4128	-0.0224
472.6137	0.0076
472.8146	-0.0115
473.0155	-0.0078
473.2164	-0.0011
473.4173	0.0086
473.6181	0.002
473.819	-0.0007
474.0198	-0.0075
474.2206	-0.0083
474.4214	-0.0038
474.6222	0.0022
474.8229	-0.0005
475.0237	-0.0043
475.2244	-0.0088
475.4251	0.0001
475.6258	-0.0146
475.8265	-0.0089
476.0272	0.0024
476.2278	-0.0111
476.4285	0.0023
476.6291	-0.0093
476.8297	-0.0015
477.0303	-0.006
477.2309	0.0026
477.4315	-0.0164
477.632	-0.0054
477.8326	-0.0203
478.0331	-0.0029
478.2336	0.009
478.4341	-0.0054
478.6346	-0.0125
478.8351	-0.0098
479.0355	-0.0011
479.236	-0.0041
479.4364	0.0001
479.6368	-0.0003
479.8372	-0.0043
480.0376	-0.0007
480.2379	-0.0277
480.4383	-0.0096
480.6386	0.0018
480.8389	-0.006
481.0392	-0.0172
481.2395	-0.0108
481.4398	0.0082
481.6401	0.0007
481.8403	-0.0158
482.0405	-0.0098
482.2408	-0.0063
482.441	0.0028
482.6411	-0.0047
482.8413	-0.0066
483.0415	-0.0108
483.2416	-0.0055
483.4417	-0.0052
483.6419	-0.0064
483.8419	0.0004
484.042	0.0037
484.2421	0.0042
484.4422	-0.0117
484.6422	0.0016
484.8422	-0.0041
485.0422	-0.0086
485.2422	0.0034
485.4422	-0.0112
485.6422	-0.0139
485.8421	-0.0021
486.042	-0.0109
486.242	-0.0054
486.4419	-0.0138
486.6417	-0.0156
486.8416	-0.0041
487.0415	-0.0072
487.2413	-0.0126
487.4411	-0.0085
487.641	-0.0103
487.8408	0.007
488.0405	0.0026
488.2403	-0.0039
488.4401	0.0081
488.6398	-0.0051
488.8395	-0.0071
489.0392	-0.0068
489.2389	-0.016
489.4386	-0.009
489.6383	0.011
489.8379	0.0032
490.0376	-0.0026
490.2372	-0.0151
490.4368	-0.0236
490.6364	-0.0042
490.836	-0.0103
491.0355	-0.0084
491.2351	-0.0167
491.4346	-0.0107
491.6341	-0.0219
491.8336	0.0028
492.0331	-0.0156
492.2326	-0.0119
492.432	-0.0186
492.6315	0.0022
492.8309	-0.0161
493.0303	-0.0073
493.2297	-0.0105
493.4291	-0.0049
493.6284	-0.0102
493.8278	-0.0049
494.0271	-0.0065
494.2264	0.0036
494.4257	-0.0137
494.625	-0.007
494.8243	-0.0224
495.0236	-0.0212
495.2228	-0.0248
495.422	-0.0077
495.6213	-0.0019
495.8205	-0.0059
496.0196	-0.0119
496.2188	0.0004
496.418	-0.0141
496.6171	-0.0057
496.8162	-0.0109
497.0153	-0.0019
497.2144	-0.0145
497.4135	-0.0105
497.6126	-0.0153
497.8116	-0.015
498.0107	-0.0076
498.2097	-0.0106
498.4087	-0.02
498.6077	-0.0015
498.8067	-0.0127
499.0056	-0.0017
499.2046	-0.0106
499.4035	-0.029
499.6024	-0.0072
499.8013	-0.0037
500.0002	-0.0093
500.199	-0.003
500.3979	-0.0087
500.5967	-0.0262
500.7956	-0.01
500.9944	-0.0083
501.1932	-0.0083
501.3919	-0.0145
501.5907	-0.0248
501.7895	-0.0153
501.9882	-0.0119
502.1869	-0.0201
502.3856	-0.006
502.5843	-0.0158
502.783	-0.0139
502.9816	-0.0003
503.1803	-0.0168
503.3789	-0.0111
503.5775	-0.0019
503.7761	-0.0181
503.9747	-0.0042
504.1732	-0.0133
504.3718	-0.0003
504.5703	-0.0058
504.7689	-0.0099
504.9674	-0.0066
505.1658	-0.0144
505.3643	-0.0056
505.5628	-0.0062
505.7612	-0.0129
505.9597	-0.0009
506.1581	-0.0142
506.3565	0.0006
506.5549	-0.0128
506.7532	-0.0203
506.9516	-0.007
507.1499	-0.0149
507.3482	-0.0211
507.5465	-0.0093
507.7448	-0.0079
507.9431	-0.0112
508.1414	0.0025
508.3396	-0.0087
508.5379	-0.0115
508.7361	-0.0118
508.9343	-0.0083
509.1325	-0.0078
509.3306	-0.0014
509.5288	-0.0091
509.7269	-0.013
509.9251	-0.0088
510.1232	-0.0205
510.3213	-0.0058
510.5193	0.0114
510.7174	-0.0103
510.9154	-0.0203
511.1135	-0.02
511.3115	-0.01
511.5095	-0.0146
511.7075	-0.0101
511.9055	-0.0075
512.1034	-0.0131
512.3014	-0.0018
512.4993	-0.0096
512.6972	-0.0118
512.8951	-0.0172
513.093	-0.0118
513.2908	-0.012
513.4887	-0.0147
513.6865	-0.0096
513.8844	-0.0155
514.0822	-0.0182
514.2799	-0.0235
514.4777	-0.0179
514.6755	-0.0176
514.8732	-0.0163
515.0709	-0.0099
515.2687	-0.0175
515.4664	-0.0061
515.664	-0.0016
515.8617	-0.013
516.0594	-0.0141
516.257	-0.0153
516.4546	-0.0243
516.6522	-0.009
516.8498	-0.0215
517.0474	0.0082
517.2449	0.0054
517.4425	-0.003
517.64	-0.0162
517.8375	-0.0005
518.035	-0.0041
518.2325	-0.0117
518.43	-0.0134
518.6274	-0.0144
518.8249	-0.0213
519.0223	-0.0014
519.2197	-0.0134
519.4171	-0.0147
519.6145	-0.0075
519.8118	-0.0008
520.0092	-0.0069
520.2065	-0.0192
520.4038	-0.018
520.6011	-0.0048
520.7984	-0.0158
520.9956	-0.0046
521.1929	-0.0172
521.3901	-0.0076
521.5874	-0.003
521.7846	-0.0015
521.9818	-0.0102
522.1789	-0.0178
522.3761	-0.0145
522.5732	-0.013
522.7704	-0.0125
522.9675	-0.0023
523.1646	-0.02
523.3617	0.0081
523.5587	0.0026
523.7558	-0.0126
523.9528	-0.0024
524.1498	-0.0113
524.3468	-0.0068
524.5438	-0.0141
524.7408	-0.009
524.9378	0.0068
525.1347	-0
525.3316	-0.0034
525.5285	-0.0221
525.7254	-0.014
525.9223	-0.0048
526.1192	-0.0053
526.316	-0.0126
526.5129	0.002
526.7097	-0.002
526.9065	0.0019
527.1033	-0.0102
527.3	-0.0089
527.4968	-0.0043
527.6935	0.0026
527.8903	-0.0051
528.087	-0.0103
528.2837	-0.0107
528.4804	0.0021
528.677	-0.0036
528.8737	0.0069
529.0703	-0.0053
529.2669	-0.014
529.4635	-0.0062
529.6601	-0.0074
529.8567	-0.0135
530.0532	-0.0072
530.2498	0.0069
530.4463	0.0084
530.6428	-0.0038
530.8393	0.0014
531.0358	-0.0106
531.2322	-0.002
531.4287	-0.0062
531.6251	-0.0149
531.8215	0.0047
532.0179	-0
532.2143	0.0061
532.4107	-0.0117
532.607	-0.0088
532.8034	0.0069
532.9997	-0.0048
533.196	-0.0021
533.3923	-0.0194
533.5886	-0.0023
533.7848	-0.0038
533.9811	-0.0008
534.1773	0.0038
534.3735	0.007
534.5697	-0.0035
534.7659	-0.012
534.9621	-0.0044
535.1582	-0.0107
535.3544	-0.0091
535.5505	-0.0137
535.7466	-0.0111
535.9427	-0.0096
536.1387	-0.0036
536.3348	-0.0092
536.5308	0.0018
536.7269	-0.0127
536.9229	-0.0047
537.1189	-0.003
537.3148	-0.0129
537.5108	-0.0023
537.7068	0.0079
537.9027	-0.0014
538.0986	-0.003
538.2945	-0.0089
538.4904	-0.0064
538.6863	-0.0068
538.8821	0.0023
539.078	-0.0061
539.2738	0.003
539.4696	-0.0063
539.6654	0.0031
539.8611	0.0007
540.0569	-0.0068
540.2526	0.0005
540.4484	-0.0009
540.6441	0.0122
540.8398	-0.013
541.0355	-0.0074
541.2311	-0.0015
541.4268	-0.0145
541.6224	-0.005
541.818	0.0001
542.0136	-0.012
542.2092	0.0024
542.4048	0.001
542.6003	-0.0003
542.7959	-0.0113
542.9914	-0.0032
543.1869	0.0004
543.3824	-0.0031
543.5779	-0.0068
543.7734	-0.0079
543.9688	-0.0065
544.1642	-0.0002
544.3596	-0.0003
544.555	-0.0072
544.7504	-0.0044
544.9458	-0.0012
545.1411	-0.008
545.3365	-0.0009
545.5318	-0.0071
545.7271	0.0029
545.9224	0.0003
546.1177	0.0029
546.3129	0.0006
546.5081	-0.007
546.7034	-0.004
546.8986	-0.0036
547.0938	-0.0139
547.289	-0.0017
547.4841	-0.013
547.6793	0.0055
547.8744	-0.009
548.0695	-0.0028
548.2646	-0.0036
548.4597	0.0078
548.6548	0.0009
548.8498	-0.0009
549.0448	0.0085
549.2399	0.0047
549.4349	0.0041
549.6298	-0.0091
549.8248	0.007
550.0198	-0.0015
550.2147	-0.0032
550.4096	-0.0085
550.6045	-0.0033
550.7994	0.0085
550.9943	-0.0062
551.1892	0.0011
551.384	0.0092
551.5788	-0.0057
551.7737	-0.0008
551.9685	-0.0062
552.1632	0.0012
552.358	-0.0058
552.5528	-0.004
552.7475	-0.0032
552.9422	-0.0055
553.1369	0.0026
553.3316	-0.0037
553.5263	-0.0035
553.7209	0.0032
553.9156	-0.0142
554.1102	-0.0062
554.3048	-0.0014
554.4994	0.0127
554.694	-0.0062
554.8885	0.0019
555.0831	-0.007
555.2776	-0.0042
555.4721	0.0005
555.6666	-0.0088
555.8611	0.002
556.0555	0.0048
556.25	-0.0005
556.4444	-0.0098
556.6388	-0.0011
556.8332	0.0003
557.0276	0.0002
557.222	-0.0046
557.4163	-0.0003
557.6107	-0.0062
557.805	0.0071
557.9993	-0.0102
558.1936	0.0017
558.3879	-0.0034
558.5821	0.0083
558.7764	0.0027
558.9706	-0.0039
559.1648	0.004
559.359	-0.0024
559.5532	-0.0063
559.7473	-0.003
559.9415	0.002
560.1356	-0.0061
560.3297	-0.0117
560.5238	-0.0057
560.7179	-0.0103
560.9119	-0.0092
561.106	0.0034
561.3	-0.005
561.494	0.0013
561.688	0.0001
561.882	-0.0095
562.076	-0.0087
562.2699	0.0088
562.4639	-0.0051
562.6578	-0.0023
562.8517	-0.004
563.0456	0.01
563.2395	0.0022
563.4333	0.0034
563.6272	-0.0016
563.821	-0.0071
564.0148	-0.0043
564.2086	-0.0011
564.4024	0.0064
564.5961	-0.0041
564.7899	0.0096
564.9836	-0.0025
565.1773	0.0011
565.371	0.0017
565.5647	0.0129
565.7584	0.004
565.952	0.0076
566.1456	0.0017
566.3393	-0.0047
566.5329	-0.0089
566.7264	-0.0027
566.92	-0.0087
567.1136	0.0047
567.3071	-0.0004
567.5006	0.0056
567.6941	0.0022
567.8876	-0.005
568.0811	-0.0077
568.2745	0.0011
568.468	0.0097
568.6614	-0.0003
568.8548	-0.0021
569.0482	0.0031
569.2416	-0.0047
569.4349	-0.0021
569.6283	-0.0026
569.8216	-0
570.0149	0.0004
570.2082	0.0015
570.4015	0.0019
570.5947	0.0048
570.788	-0.0041
570.9812	0.0036
571.1744	-0.0049
571.3676	-0.0144
571.5608	-0.0017
571.754	0.0032
571.9471	0.0001
572.1402	-0.0041
572.3333	-0.0078
572.5264	-0.0086
572.7195	-0.0042
572.9126	0.0001
573.1057	-0.0011
573.2987	-0.0004
573.4917	0.0016
573.6847	-0.0095
573.8777	0.0049
574.0707	0.0014
574.2636	-0.0018
574.4566	-0.0024
574.6495	0.006
574.8424	0.0008
575.0353	0.0006
575.2281	0.0033
575.421	0.0044
575.6138	0.005
575.8067	-0.0044
575.9995	-0.0015
576.1923	-0.0021
576.385	-0.0008
576.5778	-0.0055
576.7706	-0.0034
576.9633	-0.004
577.156	0.0024
577.3487	-0.001
577.5414	0.0034
577.734	-0.0052
577.9267	0.0029
578.1193	-0.0144
578.3119	-0.0106
578.5045	-0.0017
578.6971	0.0015
578.8897	0.0002
579.0822	-0.0019
579.2747	-0.0007
579.4673	-0.0047
579.6598	-0.0039
579.8522	-0.0043
580.0447	-0.0088
580.2372	0.0026
580.4296	0.0057
580.622	-0.0033
580.8144	0.0032
581.0068	-0.0044
581.1992	-0.013
581.3915	-0.0044
581.5839	-0.014
581.7762	-0.0079
581.9685	-0.0048
582.1608	-0.0036
582.353	-0.0039
582.5453	-0.0029
582.7375	-0.0003
582.9298	-0.0006
583.122	-0.0007
583.3142	0.0004
583.5063	-0.0012
583.6985	-0.0037
583.8906	-0.0065
584.0827	-0.0041
584.2749	-0.0043
584.4669	0.0028
584.659	-0.004
584.8511	-0.0001
585.0431	-0.0049
585.2352	0.0018
585.4272	-0.0079
585.6192	-0.003
585.8111	-0.0055
586.0031	-0.008
586.195	0.0062
586.387	0.0019
586.5789	0.0075
586.7708	0.0005
586.9627	0.0015
587.1545	-0.0033
587.3464	-0.0045
587.5382	0.0089
587.73	0.0037
587.9218	0.0046
588.1136	-0.0045
588.3053	0.0017
588.4971	-0.0047
588.6888	-0.0073
588.8805	0.0053
589.0722	0.003
589.2639	-0.0061
589.4556	-0.0018
589.6472	0.0013
589.8389	-0.0067
590.0305	-0.006
590.2221	0.0022
590.4137	-0.0047
590.6052	-0.0032
590.7968	-0.0013
590.9883	0.0035
591.1798	0.0011
591.3713	0.0013
591.5628	0.0059
591.7543	0.0037
591.9458	0.0008
592.1372	0.002
592.3286	0.0102
592.52	0.0033
592.7114	-0.0004
592.9028	0.0025
593.0941	-0.0058
593.2855	-0.0042
593.4768	-0.003
593.6681	-0.0096
593.8594	-0.0027
594.0506	-0.0028
594.2419	0.0026
594.4331	0.0056
594.6244	0.0024
594.8156	-0.0079
595.0067	0.0047
595.1979	-0.0046
595.3891	-0.0025
595.5802	-0.003
595.7713	-0.0079
595.9624	-0.0004
596.1535	0.0043
596.3446	-0.0017
596.5357	0.0056
596.7267	0.0046
596.9177	0.0029
597.1087	-0.004
597.2997	-0.0036
597.4907	0.008
597.6817	0.0001
597.8726	0.0022
598.0635	-0.0019
598.2544	-0.0018
598.4453	0.0052
598.6362	-0.0019
598.827	-0.0032
599.0179	0.0045
599.2087	0.0065
599.3995	0.0064
599.5903	0.0022
599.7811	0.0057
599.9718	-0.0027
600.1626	-0.0024
600.3533	-0.0056
600.544	0.0051
600.7347	-0.0003
600.9254	0.0046
601.116	-0.0041
601.3067	-0.001
601.4973	-0.0032
601.6879	0.001
601.8785	0.0048
602.0691	0.0073
602.2596	0.0103
602.4502	0.0069
602.6407	0.0063
602.8312	0.0059
603.0217	-0.0061
603.2122	0.0057
603.4027	0.0009
603.5931	0.0033
603.7835	0.0041
603.9739	-0.002
604.1643	-0.0031
604.3547	0.0012
604.5451	0.0034
604.7354	-0.0026
604.9257	0.0053
605.116	-0.0008
605.3063	0.0014
605.4966	0.0064
605.6869	-0.0001
605.8771	0.0016
606.0673	-0
606.2575	0.0087
606.4477	0.0069
606.6379	0.0021
606.8281	0.0018
607.0182	-0.0036
607.2083	0.0002
607.3985	-0.0074
607.5885	-0.0015
607.7786	-0.0031
607.9687	-0.0016
608.1587	0.0063
608.3488	0.0044
608.5388	0.0003
608.7288	-0.0028
608.9187	-0.0074
609.1087	-0.0043
609.2986	-0.0009
609.4886	-0.0029
609.6785	0.0006
609.8684	0.0014
610.0582	0.0058
610.2481	-0.0021
610.4379	0.0012
610.6278	-0.0015
610.8176	-0.0061
611.0074	-0.003
611.1971	-0.0004
611.3869	-0.0024
611.5766	-0.0052
611.7664	0.0059
611.9561	0.0059
612.1458	0.0022
612.3354	0.0003
612.5251	-0.0002
612.7147	0.0085
612.9044	0.0079
613.094	-0.0026
613.2836	0
613.4731	-0.0008
613.6627	0.0019
613.8522	0.0083
614.0417	0.0057
614.2313	-0.0069
614.4207	-0.0079
614.6102	0.0037
614.7997	-0.0041
614.9891	-0.0038
615.1785	0.0013
615.3679	-0.006
615.5573	0.0043
615.7467	0.0011
615.9361	-0.0015
616.1254	-0.0014
616.3147	-0.001
616.504	0.0017
616.6933	0.0051
616.8826	-0.0033
617.0718	-0.002
617.2611	0.0034
617.4503	-0.0077
617.6395	0.0002
617.8287	-0.0004
618.0179	0.0015
618.207	0.0032
618.3961	0.0026
618.5853	0.0019
618.7744	0.0035
618.9634	0.002
619.1525	0.0024
619.3416	0.0055
619.5306	0.0094
619.7196	0.0031
619.9086	-0.0034
620.0976	0.0035
620.2866	-0.0043
620.4755	-0.0015
620.6645	0.0056
620.8534	-0.0016
621.0423	-0.0011
621.2312	-0.001
621.42	-0.0013
621.6089	-0.0057
621.7977	0.0014
621.9865	-0.0026
622.1753	-0.0025
622.3641	-0.0012
622.5529	0.0108
622.7416	0.0089
622.9303	0.0024
623.1191	0.0049
623.3078	-0.007
623.4964	0.0043
623.6851	-0.0046
623.8737	0.0034
624.0624	0.0023
624.251	-0.0003
624.4396	0.0033
624.6282	-0.0016
624.8167	0.0058
625.0053	0.009
625.1938	0.0109
625.3823	0.0023
625.5708	0.003
625.7593	-0.0012
625.9477	0.0021
626.1362	-0.0073
626.3246	0.0061
626.513	0.0098
626.7014	0.0055
626.8898	-0.0044
627.0781	0.0023
627.2665	0.0027
627.4548	0.0058
627.6431	0.0041
627.8314	0.0016
628.0197	0.008
628.2079	-0.0012
628.3962	0.0057
628.5844	0.0119
628.7726	0.009
628.9608	0.0019
629.1489	-0.0008
629.3371	0.0028
629.5252	0.0004
629.7134	0.005
629.9015	-0.002
630.0895	0.0006
630.2776	0.0056
630.4657	0.0052
630.6537	0.0068
630.8417	0.0014
631.0297	0.0002
631.2177	0.0046
631.4057	-0.0014
631.5936	-0.0029
631.7815	-0.0055
631.9695	-0.0015
632.1574	0.006
632.3452	0.0072
632.5331	0.0025
632.7209	0.0028
632.9088	0.0109
633.0966	0.0121
633.2844	-0.0076
633.4722	0.0034
633.6599	0.0133
633.8477	0.0122
634.0354	0.0071
634.2231	0.0037
634.4108	0.015
634.5985	0.0115
634.7861	0.0083
634.9738	-0.008
635.1614	-0.0023
635.349	0.003
635.5366	-0.0062
635.7242	0.001
635.9117	0.007
636.0993	-0.0047
636.2868	0.0061
636.4743	-0.007
636.6618	0.0088
636.8492	0.0042
637.0367	0.003
637.2241	-0.0042
637.4115	-0.0061
637.5989	-0.0038
637.7863	0.0011
637.9737	-0.0031
638.161	-0.0028
638.3484	0.0008
638.5357	0.0077
638.723	-0.004
638.9103	0.0067
639.0975	0.008
639.2848	0.0094
639.472	0.0043
639.6592	0.0072
639.8464	0.0104
640.0336	0.0076
640.2208	-0.0003
640.4079	0.0045
640.595	0.003
640.7821	0.0039
640.9692	0.0059
641.1563	-0.0014
641.3434	0.0036
641.5304	0.0035
641.7174	0.0073
641.9044	0.008
642.0914	0.0061
642.2784	0.0075
642.4653	0.0078
642.6523	0.0035
642.8392	0.0043
643.0261	0.0059
643.213	0.007
643.3999	0.0027
643.5867	0.0034
643.7735	-0.0004
643.9604	-0.004
644.1472	0.0036
644.3339	0.0072
644.5207	0.0028
644.7075	0.0077
644.8942	0.004
645.0809	0.0094
645.2676	0.0038
645.4543	0.001
645.6409	0.0085
645.8276	0.0012
646.0142	0.0014
646.2008	0.0003
646.3874	-0.0064
646.574	0.005
646.7605	-0.0007
646.9471	-0.0048
647.1336	-0.0096
647.3201	0.0137
647.5066	-0.0017
647.6931	0.0074
647.8795	-0.001
648.0659	0.0032
648.2524	0.0077
648.4388	0.0016
648.6252	0.0009
648.8115	0.0012
648.9979	0.0009
649.1842	0.0054
649.3705	0.0064
649.5568	0.0009
649.7431	0.0088
649.9294	0.0011
650.1156	0.0047
650.3018	-0.0051
650.488	-0.0034
650.6742	-0.001
650.8604	-0.001
651.0466	-0.0061
651.2327	0.0082
651.4188	0.0023
651.6049	0.0001
651.791	-0.0006
651.9771	0.0127
652.1632	0.0122
652.3492	0.0084
652.5352	0.0013
652.7212	0.0029
652.9072	0.0107
653.0932	0.0029
653.2791	0.0009
653.465	0.0042
653.651	0.0033
653.8369	0.0005
654.0227	-0.005
654.2086	0.0073
654.3944	0.0125
654.5803	0.0067
654.7661	-0.001
654.9519	0.0043
655.1377	-0.0029
655.3234	0.0003
655.5092	-0.0051
655.6949	-0.0007
655.8806	-0.0035
656.0663	-0.0057
656.2519	-0.0052
656.4376	-0.0104
656.6232	0.0037
656.8088	0.0027
656.9945	-0.0053
657.18	0.0035
657.3656	0.0034
657.5511	0.004
657.7367	0.0013
657.9222	0.0101
658.1077	0.0093
658.2932	0.0088
658.4786	0.0006
658.6641	-0.0007
658.8495	0.0104
659.0349	0.0001
659.2203	0.0096
659.4057	0.0119
659.591	0.0077
659.7764	0.0012
659.9617	0.0048
660.147	0.0027
660.3323	0.0068
660.5176	0.0121
660.7028	0.0131
660.888	0.0073
661.0733	0.0067
661.2585	-0.0028
661.4436	0.0045
661.6288	0.008
661.8139	0.0013
661.9991	0.0071
662.1842	0.0051
662.3693	0.0091
662.5544	0.0001
662.7394	0.0038
662.9245	0.0022
663.1095	0.0009
663.2945	-0.0045
663.4795	-0.0034
663.6644	0.0008
663.8494	0.0016
664.0343	-0.0027
664.2193	-0.0097
664.4042	-0.0024
664.589	-0.0018
664.7739	-0.0031
664.9587	-0.0064
665.1436	0.0021
665.3284	-0.0022
665.5132	-0.004
665.698	-0.0001
665.8827	0.0013
666.0675	0.0082
666.2522	0.0031
666.4369	0.0088
666.6216	0.0045
666.8063	0.0022
666.9909	0.0013
667.1756	0.0019
667.3602	0.0001
667.5448	0.002
667.7294	0.0091
667.9139	0.0107
668.0985	0.0116
668.283	0.0005
668.4675	0.002
668.652	0.0024
668.8365	0.0023
669.0209	0.0054
669.2054	0.0133
669.3898	-0.0071
669.5742	0.0058
669.7586	0.006
669.943	0.0055
670.1273	0.0051
670.3117	0.0091
670.496	0.005
670.6803	0.0129
670.8646	0.0077
671.0488	-0.0002
671.2331	0.0109
671.4173	0.0101
671.6015	0.0055
671.7857	0.0073
671.9699	0.0037
672.1541	0.0106
672.3382	0.0102
672.5223	0.0139
672.7064	0.0035
672.8905	0.0177
673.0746	0.0093
673.2587	0.0009
673.4427	0.0095
673.6267	0.0078
673.8107	0.0081
673.9947	0.0051
674.1787	0.0128
674.3626	-0.0023
674.5465	0.0113
674.7304	0.0015
674.9143	0.0128
675.0982	0.0132
675.2821	0.0026
675.4659	0.0144
675.6497	0.004
675.8335	0.0056
676.0173	0.0075
676.2011	0.0083
676.3849	0.0088
676.5686	-0.0011
676.7523	0.0024
676.936	0.012
677.1197	-0.0039
677.3034	-0.0026
677.487	0.0077
677.6706	0.0059
677.8542	0.0094
678.0378	0.0086
678.2214	0.0074
678.405	0.0087
678.5885	-0.0007
678.772	-0.0008
678.9555	-0.0009
679.139	0.0106
679.3225	0.0061
679.5059	0.0027
679.6894	0.0045
679.8728	0.0005
680.0562	-0.0098
680.2395	-0.0036
680.4229	-0.0017
680.6062	0.0061
680.7896	0.0039
680.9729	0.0015
681.1562	0.0054
681.3394	0.009
681.5227	-0.0028
681.7059	0.0036
681.8891	0.0102
682.0723	0.004
682.2555	0.0062
682.4387	-0.0032
682.6218	-0.0044
682.805	0.0033
682.9881	0.0068
683.1712	0.0035
683.3542	0.0062
683.5373	0.0036
683.7203	-0.0016
683.9034	0.0024
684.0864	-0.0043
684.2694	-0.0016
684.4523	0.0091
684.6353	0.0027
684.8182	0.0041
685.0011	0.0017
685.184	0.0096
685.3669	0.0053
685.5498	0.0085
685.7326	0.008
685.9154	-0.0026
686.0982	0.0124
686.281	0.0119
686.4638	0.0048
686.6465	0.0005
686.8293	0.0031
687.012	0.0081
687.1947	-0.0009
687.3774	0.0076
687.56	0.0003
687.7427	0.0075
687.9253	-0.0055
688.1079	-0.003
688.2905	0.0018
688.4731	-0.0025
688.6556	0.0005
688.8382	0.0011
689.0207	0.0063
689.2032	-0.0022
689.3857	-0.0028
689.5681	0.0058
689.7506	0.0036
689.933	0.0053
690.1154	-0.0064
690.2978	0.0033
690.4802	0.0045
690.6626	-0.0082
690.8449	-0.0032
691.0272	0.0119
691.2095	-0.0101
691.3918	-0.0006
691.5741	-0.0044
691.7563	-0.0031
691.9386	-0.0003
692.1208	0.001
692.303	-0.002
692.4852	-0.0011
692.6673	0.0001
692.8495	-0.0042
693.0316	0.0049
693.2137	0.011
693.3958	0.0021
693.5778	0.0006
693.7599	0.0122
693.9419	0.0031
694.1239	0.0095
694.3059	0.0016
694.4879	0.0091
694.6699	0.0145
694.8518	-0.0055
695.0337	-0.0053
695.2157	0.0032
695.3975	-0.0008
695.5794	0.0025
695.7613	0.0012
695.9431	-0.0067
696.1249	0.0045
696.3067	-0.002
696.4885	0.0039
696.6703	-0.011
696.852	0.002
697.0337	0.0017
697.2154	0.0007
697.3971	0.0056
697.5788	0.0101
697.7605	-0.0042
697.9421	0.0114
698.1237	0.0014
698.3053	-0.0013
698.4869	-0.0006
698.6685	-0.0066
698.85	-0.0045
699.0315	0.0081
699.213	0.0009
699.3945	0.002
699.576	0.0073
699.7575	-0.0009
699.9389	0.0096
700.1203	-0.0028
700.3017	-0.0065
700.4831	-0.0116
700.6645	-0.0023
700.8458	-0.0005
701.0271	-0.0051
701.2084	-0.0013
701.3897	-0.0043
701.571	0.0029
701.7523	-0.0109
701.9335	-0.0071
702.1147	0.0054
702.2959	-0.0012
702.4771	0.0027
702.6583	-0
702.8394	-0.0052
703.0205	0.0075
703.2016	0.0064
703.3827	0.0015
703.5638	0.0045
703.7449	0.005
703.9259	0.0143
704.1069	0.0016
704.2879	0.0011
704.4689	0.003
704.6499	0.0005
704.8308	0.0029
705.0117	-0.0024
705.1927	-0.0005
705.3735	-0.0007
705.5544	-0.0039
705.7353	-0.0048
705.9161	-0.0003
706.0969	0.0017
706.2777	0.0026
706.4585	-0.0005
706.6393	-0.0014
706.82	-0.0012
707.0007	0.0081
707.1815	0.0048
707.3621	0.0087
707.5428	-0.0019
707.7235	0.0095
707.9041	0.006
708.0847	-0.002
708.2653	-0.0039
708.4459	-0.0049
708.6265	-0.0004
708.807	-0.0051
708.9875	-0.0037
709.168	-0.0019
709.3485	-0.0007
709.529	0.0028
709.7095	-0.0114
709.8899	0.0107
710.0703	-0.0071
710.2507	0.0059
710.4311	-0.0006
710.6115	-0.0132
710.7918	-0.0056
710.9721	0.001
711.1524	-0.0024
711.3327	-0.0042
711.513	0.0019
711.6932	0.0066
711.8735	0.0018
712.0537	-0.0006
712.2339	-0.001
712.4141	-0.009
712.5942	-0.0007
712.7744	0.0013
712.9545	-0.0021
713.1346	0.0013
713.3147	-0.002
713.4947	-0.0001
713.6748	0.0037
713.8548	-0.0008
714.0348	0.0009
714.2148	0.0055
714.3948	0.0138
714.5748	0.0034
714.7547	0.0046
714.9346	0.0041
715.1145	-0.0012
715.2944	-0.0001
715.4743	0.0047
715.6541	0.003
715.834	0.0115
716.0138	0.0076
716.1936	-0.0085
716.3733	0.0007
716.5531	0.0084
716.7328	0.0028
716.9126	-0.0049
717.0923	0.0099
717.2719	0.0103
717.4516	0.011
717.6312	0.0066
717.8109	0.0016
717.9905	0.0045
718.1701	-0.0073
718.3496	-0.0047
718.5292	0.0055
718.7087	0.0058
718.8882	0.0134
719.0677	0.008
719.2472	-0.0035
719.4267	0.0004
719.6061	-0.0002
719.7856	0.0128
719.965	0.0051
720.1443	-0.0006
720.3237	0.0178
720.5031	0.0075
720.6824	0.0081
720.8617	-0.0052
721.041	0.0099
721.2203	0.0093
721.3995	0.0039
721.5788	0.0077
721.758	0.0101
721.9372	0.0017
722.1164	0.0015
722.2956	0.0106
722.4747	-0.0033
722.6538	0.0019
722.8329	0.0094
723.012	-0.0067
723.1911	-0.005
723.3702	-0.0022
723.5492	-0.0055
723.7282	-0.003
723.9072	-0.0023
724.0862	-0.0068
724.2652	-0.0037
724.4441	-0.0074
724.623	0.0067
724.8019	-0.0016
724.9808	0.0058
725.1597	-0.0033
725.3385	0.0071
725.5174	0.0049
725.6962	0.0051
725.875	0.0039
726.0538	0.0127
726.2325	0.0039
726.4112	0.0071
726.59	-0.0027
726.7687	0.0024
726.9474	0.0042
727.126	0.001
727.3047	-0.0016
727.4833	0.0053
727.6619	-0.0082
727.8405	-0.0053
728.0191	0.001
728.1976	-0.0017
728.3762	-0.0044
728.5547	-0.0054
728.7332	-0.0073
728.9116	0.0107
729.0901	0.0123
729.2686	-0.0025
729.447	0.0007
729.6254	0.0052
729.8038	0.0027
729.9821	-0.0121
730.1605	-0.0035
730.3388	0.0041
730.5171	-0.0044
730.6954	-0.0016
730.8737	0.0012
731.0519	0.0057
731.2302	0.0049
731.4084	0.0069
731.5866	0.0063
731.7648	0.003
731.9429	-0.001
732.1211	-0.0056
732.2992	0.0002
732.4773	0.001
732.6554	0
732.8335	0.0089
733.0115	0.0087
733.1896	0.0036
733.3676	-0.0069
733.5456	0.0089
733.7235	0.004
733.9015	0.0032
734.0794	0.0006
734.2574	0.0044
734.4353	-0.0049
734.6131	0.005
734.791	0.0024
734.9689	0.0067
735.1467	0.0018
735.3245	-0.0104
735.5023	-0.0055
735.68	-0.0039
735.8578	0.0111
736.0355	-0.0154
736.2132	-0.003
736.3909	-0.0021
736.5686	-0.0107
736.7463	0.0022
736.9239	-0.0135
737.1015	-0.0012
737.2791	-0.0035
737.4567	-0.0016
737.6343	-0.0144
737.8118	0.0043
737.9894	-0.0014
738.1669	-0.0078
738.3444	-0.0106
738.5218	-0.0015
738.6993	0.0042
738.8767	-0.0066
739.0541	0.0157
739.2315	-0.0003
739.4089	0.0026
739.5863	-0.0013
739.7636	-0.0041
739.9409	-0.0005
740.1182	0.0122
740.2955	0.0095
740.4728	0.0072
740.65	0.0008
740.8272	0.0029
741.0044	-0.0029
741.1816	-0.0029
741.3588	0.0025
741.5359	-0.0029
741.7131	-0.0075
741.8902	-0.0035
742.0673	-0.0018
742.2444	-0.0059
742.4214	-0.0062
742.5985	0.0001
742.7755	0.0011
742.9525	-0.0046
743.1295	0.0035
743.3064	0.0032
743.4834	0.0129
743.6603	-0.0001
743.8372	-0.0025
744.0141	0.0116
744.191	0.0066
744.3678	-0.009
744.5446	-0.0029
744.7215	0.0014
744.8982	0.0069
745.075	-0.0037
745.2518	0.004
745.4285	-0.001
745.6052	-0.0037
745.7819	-0
745.9586	-0.0059
746.1353	-0.0071
746.3119	-0.0022
746.4885	-0.0067
746.6651	-0.0043
746.8417	0.0075
747.0183	0.0061
747.1948	-0.0048
747.3714	0.0062
747.5479	0.0006
747.7244	-0.0074
747.9008	0.0084
748.0773	0.0032
748.2537	-0.0003
748.4301	-0
748.6065	0.0032
748.7829	0.0029
748.9593	-0.0027
749.1356	-0.0052
749.3119	0.0088
749.4882	-0.0053
749.6645	0.0101
749.8408	-0.0035
750.017	0.0043
750.1933	-0.0026
750.3695	-0.0023
750.5457	0.0025
750.7218	-0.0075
750.898	-0.0003
751.0741	-0.0045
751.2502	-0.0006
751.4263	-0.0038
751.6024	0.0029
751.7784	-0.0049
751.9545	-0.0133
752.1305	0.0007
752.3065	-0.0155
752.4825	0.0036
752.6584	-0.0067
752.8344	-0.0054
753.0103	-0.0093
753.1862	-0.006
753.3621	-0.006
753.5379	-0.0038
753.7138	0.0058
753.8896	-0.0017
754.0654	0.0056
754.2412	0.0035
754.417	0.0035
754.5927	-0.0035
754.7685	-0.006
754.9442	0.0016
755.1199	0.0085
755.2956	-0.0041
755.4712	0.0037
755.6469	-0.0071
755.8225	-0.0035
755.9981	-0.0045
756.1736	0.0049
756.3492	-0.0082
756.5248	-0.012
756.7003	-0.0043
756.8758	0.0031
757.0513	-0.0127
757.2267	-0.0056
757.4022	0.0013
757.5776	-0.0081
757.753	0.0051
757.9284	0.0087
758.1038	0.0131
758.2791	0.012
758.4545	0.0019
758.6298	0.008
758.8051	0.0095
758.9803	-0.0064
759.1556	0.009
759.3308	-0.0028
759.506	0.0193
759.6812	0.0051
759.8564	0.0124
760.0316	-0.0002
760.2067	0.0146
760.3819	0.0005
760.557	0.0197
760.732	0.004
760.9071	-0.0068
761.0821	0.0048
761.2572	0.0168
761.4322	0.0006
761.6072	-0.0051
761.7821	-0.0046
761.9571	0.0053
762.132	-0.0037
762.3069	-0.0081
762.4818	-0.0102
762.6567	0.0083
762.8316	0.0016
763.0064	-0.0042
763.1812	-0.0058
763.356	-0.0142
763.5308	-0.0056
763.7055	-0.0021
763.8803	-0.0103
764.055	0.0043
764.2297	-0.0091
764.4044	-0.0075
764.579	-0.0143
764.7537	-0.0212
764.9283	-0.0081
765.1029	0.0014
765.2775	-0.0101
765.4521	-0.0137
765.6266	-0.0049
765.8011	-0.0003
765.9756	-0.01
766.1501	-0.0047
766.3246	-0.0051
766.4991	-0.0034
766.6735	0.0125
766.8479	-0.0062
767.0223	0.0098
767.1967	0.0013
767.371	0.0047
767.5454	0.0041
767.7197	-0.006
767.894	-0.0041
768.0683	-0.0149
768.2425	-0.0041
768.4168	0.0066
768.591	0.006
768.7652	0.0004
768.9394	-0.013
769.1135	-0.0017
769.2877	-0.0032
769.4618	-0.004
769.6359	-0.0067
769.81	0.0032
769.984	-0.0082
770.1581	-0.0032
770.3321	0.0042
770.5061	-0.0046
770.6801	0.0023
770.8541	-0.0028
771.028	0.0079
771.202	-0.0093
771.3759	0.0048
771.5498	-0.011
771.7236	-0.003
771.8975	0.003
772.0713	0.0053
772.2451	0.0044
772.4189	0.011
772.5927	0.0095
772.7665	0.0072
772.9402	0.0065
773.1139	0.0066
773.2876	0.0009
773.4613	0.001
773.635	0.0189
773.8086	-0.0042
773.9822	0.0156
774.1558	-0.0048
774.3294	-0.0059
774.503	-0.0015
774.6765	0.0028
774.8501	0.0057
775.0236	0.0087
775.1971	0.0129
775.3705	-0.0095
775.544	0.0051
775.7174	-0.0034
775.8908	0.0133
776.0642	-0.0115
776.2376	-0.0001
776.4109	-0.0045
776.5843	0.0054
776.7576	0.0094
776.9309	0.0239
777.1041	0.0051
777.2774	0.0136
777.4506	0.0037
777.6238	0.0005
777.797	-0.005
777.9702	0.0087
778.1434	-0.0095
778.3165	-0.0009
778.4896	-0.0072
778.6627	0.0077
778.8358	0.0014
779.0089	0.0073
779.1819	0.0046
779.3549	0.0033
779.5279	0.0233
779.7009	0.0045
779.8739	0.0104
780.0468	0.0085
780.2197	0.0004
780.3926	0.0067
780.5655	0.0067
780.7384	-0.0054
780.9112	0.015
781.0841	-0.01
781.2569	0.0122
781.4297	0.0109
781.6024	0.0109
781.7752	0.0097
781.9479	-0.009
782.1206	0.0033
782.2933	-0.0107
782.466	0.0137
782.6386	0.0031
782.8113	0.0084
782.9839	0.0021
783.1565	0.0196
783.329	0.0001
783.5016	-0.0029
783.6741	0.0081
783.8466	-0.0047
784.0191	0.0045
784.1916	-0.0042
784.3641	0.0056
784.5365	0.0038
784.7089	-0.0084
784.8813	0.0037
785.0537	0.0037
785.2261	-0.018
785.3984	-0.0137
785.5707	0.0067
785.743	0.0033
785.9153	-0.0035
786.0876	-0.003
786.2598	-0.0152
786.432	-0.0206
786.6042	0.0181
786.7764	0.005
786.9486	-0.004
787.1207	-0.0067
787.2928	-0.0108
787.4649	-0.0081
787.637	0.0019
787.8091	-0.0138
787.9811	-0.0131
788.1532	0.0015
788.3252	0.0159
788.4972	-0.0151
788.6691	-0.0023
788.8411	0.001
789.013	-0.0211
789.1849	0.0063
789.3568	0.0016
789.5287	-0.0062
789.7005	-0.0028
789.8723	0.0116
790.0442	0.004
790.2159	0.0043
790.3877	-0.0011
790.5595	-0.0188
790.7312	-0.0004
790.9029	-0.0061
791.0746	-0.011
791.2463	0.0049
791.4179	-0.0052
791.5896	-0.0212
791.7612	0.0056
791.9328	0.006
792.1044	-0.0193
792.2759	-0.0282
792.4474	-0.0131
792.619	-0.0056
792.7905	0.0073
792.9619	-0.0012
793.1334	0.003
793.3048	0.0162
793.4762	0.0059
793.6476	0.0024
793.819	0.0014
793.9904	0.008
794.1617	-0.0106
794.333	0.0127
794.5043	0.0017
794.6756	0.0035
794.8469	0.0052
795.0181	-0.004
795.1893	-0.0039
795.3605	-0.0023
795.5317	-0.0051
795.7029	-0.0111
795.874	-0.0033
796.0452	-0.0144
796.2163	-0.005
796.3873	0.0108
796.5584	-0.0027
796.7294	0.0049
796.9005	0.0036
797.0715	0.0082
797.2425	-0.0256
797.4134	-0.0169
797.5844	0.0015
797.7553	-0.0196
797.9262	-0.0023
798.0971	-0.0345
798.2679	-0.0187
798.4388	-0.0157
798.6096	-0.0184
798.7804	-0.0143
798.9512	-0.0051
799.122	-0.0128
799.2927	-0.0069
799.4635	0.0065
799.6342	-0.0249
799.8049	-0.0198
799.9755	-0.007
800.1462	-0.0287
800.3168	-0.0049
800.4874	-0.0066
800.658	0.0129
800.8286	0.0042
800.9991	0.0073
801.1696	0.014
801.3402	0.0003
801.5106	-0.0121
801.6811	-0.0025
801.8516	0.0081
802.022	0.0086
802.1924	-0.0017
802.3628	-0.019
802.5332	-0.0023
802.7035	0.0214
802.8739	0.0093
803.0442	0.0018
803.2145	0.0022
803.3847	-0.0195
803.555	0.0055
803.7252	-0.0209
803.8954	-0.0263
804.0656	-0.022
804.2358	-0.0199
804.4059	-0.0088
804.5761	-0.0135
804.7462	-0.0058
804.9163	-0.0117
805.0864	-0.0259
805.2564	-0.0203
805.4264	0.0023
805.5965	-0.0054
805.7665	-0.0035
805.9364	-0.005
806.1064	0.0133
806.2763	0.001
806.4462	0.0204
806.6161	0.0106
806.786	0.0034
806.9559	0.0044
807.1257	0.0172
807.2955	-0.0057
807.4653	-0.0114
807.6351	0.003
807.8048	0.0029
807.9746	-0.0057
808.1443	0.0068
808.314	-0.0039
808.4837	-0.0087
808.6533	-0.0006
808.8229	-0.0083
808.9926	-0.0001
809.1622	-0.0004
809.3317	-0.0213
809.5013	-0.0249
809.6708	-0.0067
809.8403	-0.0043
810.0098	-0.0039
810.1793	-0.0069
810.3488	0.0004
810.5182	-0.0341
810.6876	0.0103
810.857	-0.0295
811.0264	0.025
811.1958	0.0198
811.3651	0.0235
811.5344	0.0046
811.7037	-0.0226
811.873	-0.0127
812.0422	-0.0128
812.2115	-0.0026
812.3807	-0.0108
812.5499	0.0039
812.7191	-0.0063
812.8882	0.003
813.0574	-0.0097
813.2265	-0.0098
813.3956	-0.0039
813.5646	-0.0004
813.7337	-0.0275
813.9027	0.0125
814.0718	0.0223
814.2407	0.0259
814.4097	-0.0144
814.5787	0.0016
814.7476	0.0033
814.9165	0.0007
815.0854	-0.0107
815.2543	-0.0123
815.4232	0.0053
815.592	0.006
815.7608	0.022
815.9296	0.0055
816.0984	0.0169
816.2671	-0.0049
816.4359	-0.0196
816.6046	-0.0176
816.7733	-0.0151
816.942	-0.0243
817.1106	-0.0022
817.2793	-0.002
817.4479	-0.0053
817.6165	-0.0104
817.785	-0.0138
817.9536	0.0101
818.1221	-0.0065
818.2906	-0.0217
818.4591	-0.013
818.6276	-0.0072
818.7961	-0.0106
818.9645	0.0062
819.1329	-0.0025
819.3013	0.0043
819.4697	0.0405
819.638	-0.0012
819.8064	-0.0109
819.9747	0.0058
820.143	-0.0317
820.3113	-0.0235
820.4795	0.004
820.6477	-0.0005
820.816	-0.0173
820.9842	-0.0314
821.1523	-0.0157
821.3205	-0.0267
821.4886	-0.0102
821.6567	-0.0115
821.8248	0.0125
821.9929	-0.0026
822.1609	-0.0131
822.329	0.017
822.497	0.003
822.665	-0.0092
822.833	-0.0213
823.0009	0.037
823.1688	0.0257
823.3367	-0.0048
823.5046	0.0206
823.6725	0.0151
823.8404	0.0102
824.0082	0.0141
824.176	0.0237
824.3438	0.0054
824.5116	0.0108
824.6793	0.0148
824.847	-0.0255
825.0147	0.0088
825.1824	0.0217
825.3501	0.0022
825.5177	-0.0155
825.6854	-0.0167
825.853	0.0104
826.0206	-0.018
826.1881	0.0182
826.3557	-0.0339
826.5232	0.0037
826.6907	-0.0519
826.8582	-0.0179
827.0257	-0.0139
827.1931	-0.0222
827.3605	-0.017
827.528	-0.0021
827.6953	-0.032
827.8627	-0.0274
828.03	0.0228
828.1974	0.0189
828.3647	-0.0411
828.532	-0.0007
828.6992	-0.0095
828.8665	-0.0031
829.0337	0.0013
829.2009	-0.0002
829.3681	0.0044
829.5352	-0.0172
829.7024	-0.0263
829.8695	-0.03
830.0366	0.0317
830.2037	0.0174
830.3707	-0.009
830.5378	-0.017
830.7048	-0.0137
830.8718	0.0074
831.0388	-0.0313
831.2057	0.0329
831.3727	0.0023
831.5396	-0.0224
831.7065	-0.0227
831.8734	0.0247
832.0402	-0.0395
832.2071	-0.0239
832.3739	0.0064
832.5407	-0.0033
832.7075	-0.0138
832.8742	-0.0395
833.041	-0.0342
833.2077	-0.0509
833.3744	0.0141
833.541	-0.0003
833.7077	-0.042
833.8743	-0.0391
834.0409	0.0114
834.2075	0.0067
834.3741	-0.0106
834.5407	-0.0016
834.7072	0.0035
834.8737	-0.0179
835.0402	-0.0432
835.2067	-0.0257
835.3731	0.001
835.5395	-0.0154
835.706	-0.0035
835.8723	-0.0368
836.0387	0.0232
836.2051	-0.0167
836.3714	-0.0184
836.5377	-0.0231
836.704	-0.0293
836.8703	-0.0004
837.0365	-0.028
837.2027	-0.0218
837.3689	0.0152
837.5351	-0.0237
837.7013	-0.0463
837.8674	-0.01
838.0335	-0.0435
838.1997	-0.0093
838.3657	-0.0367
838.5318	-0.0175
838.6978	-0.0068
838.8639	0.0256
839.0299	-0.0132
839.1958	-0.0058
839.3618	0.0494
839.5277	-0.0466
839.6937	0.0233
839.8596	-0.0225
840.0254	0.034
840.1913	-0.0118
840.3571	0.0398
840.523	-0.0228
840.6888	-0.0088
840.8545	-0.0452
841.0203	-0.0292
841.186	0.0039
841.3517	0.0369
841.5174	-0.0013
841.6831	-0.0198
841.8488	-0.0076
842.0144	0.0088
842.18	-0.0066
842.3456	0.0408
842.5112	-0.0475
842.6767	-0.039
842.8422	-0.0566
843.0077	-0.0196
843.1732	-0.0405
843.3387	-0.015
843.5042	-0.0491
843.6696	0.0411
843.835	-0.0456
844.0004	0.0434
844.1657	0.0538
844.3311	-0.0221
844.4964	-0.0605
844.6617	-0.0597
844.827	-0.0404
844.9923	-0.0239
845.1575	0.1205
845.3227	-0.0486
845.4879	-0.0573
845.6531	-0.0378
845.8183	-0.0971
845.9834	0.025
846.1485	-0.0144
846.3136	-0.044
846.4787	-0.0696
846.6438	0.107
846.8088	-0.0236
846.9738	-0.1069
847.1388	0.0239
847.3038	0.0162
847.4687	-0.1017
847.6337	0.0649
847.7986	-0.0085
847.9635	0.0127
848.1284	0.0246
848.2932	0.2194
848.458	0.0009
848.6228	0.0191
848.7876	0.0498
848.9524	-0.0496
849.1172	-0.0989
849.2819	0.0193
849.4466	-0.101
849.6113	-0.0344
849.7759	-0.0243
849.9406	-0.0875
850.1052	-0.0231
850.2698	-0.1619
850.4344	0.0554
850.599	-0.0192
850.7635	0.0751
850.928	0.0247
851.0925	-0.0341
851.257	0.0027
851.4215	0.0386
851.5859	-0.0771
851.7503	-0.0202
851.9147	-0.0445
852.0791	0.0036
852.2434	0.0029
852.4078	0.0058
852.5721	0.0344
852.7364	0.0262
852.9007	-0.1771
853.0649	0.0488
853.2291	-0.0416
853.3934	-0.0449
853.5575	0.0466
853.7217	-0.0629
853.8859	0.0021
854.05	-0.1145
854.2141	-0.0571
854.3782	-0.018
854.5423	0.0013
854.7063	0.0492
854.8703	0.036
855.0343	-0.0289
855.1983	-0.1979
855.3623	0.2132
855.5262	0.1069
855.6901	-0.0929
855.854	-0.0031
856.0179	0.1634
856.1818	-0.0213
856.3456	0.0446
856.5094	-0.1259
856.6732	-0.0932
856.837	-0.0299
857.0008	-0.0233
857.1645	0.1402
857.3282	-0.0589
857.4919	0.2668
857.6556	-0.0372
857.8192	0.0505
857.9828	0.0308
858.1465	0.022
858.31	-0.0516
858.4736	-0.0072
858.6372	-0.2585
858.8007	-0.1775
858.9642	-0.0847
859.1277	0.1169
859.2911	0.1632
859.4546	-0.0887
859.618	-0.3412
859.7814	0.0017
859.9448	0.19
860.1081	-0.1293
860.2715	0.2567
860.4348	0.2163
860.5981	0.0267
860.7614	0.2943
860.9246	-0.0406
861.0879	-0.1839
861.2511	0.0903
861.4143	-0.3662
861.5774	0.3148
861.7406	-0.1804
861.9037	-0.0059
862.0668	0.0843
862.2299	0.0746
862.393	-0.5525
862.556	0.3311
862.7191	-0.2852
862.8821	-0.2685
863.0451	0.0946
863.208	0.2568
863.371	-0.1352
863.5339	-0.156
863.6968	0.1997
863.8597	-0.148
864.0225	-0.1026
864.1854	0.2906
864.3482	-0
864.511	0.2063
864.6737	0.1246
864.8365	0.2506
864.9992	0.0128
865.1619	0.0128
865.3246	0.3132
865.4873	0.1696
865.65	-0.1376
865.8126	-0.1541
865.9752	0.121
866.1378	-0.2026
866.3004	-0
866.4629	0.1339
866.6254	-0
866.7879	0.433
866.9504	-0.2376
867.1129	-0
867.2753	0.2062
867.4377	0.309
867.6001	-0.1059
867.7625	0.4194
867.9249	-0.359
868.0872	-0.0605
868.2495	0.1286
868.4118	-0.3112
868.5741	-0.6906
868.7363	1.243
868.8986	-0.0118
869.0608	-0.0041
869.223	0.172
869.3851	-0.101
869.5473	1.8162
869.7094	0.3831
869.8715	-0
870.0336	-0
870.1957	1.1833
870.3577	-1.1891
870.5197	-0.0043
870.6817	-0.2617
870.8437	-0.0352
871.0057	-0.6021
871.1676	-0
871.3295	-0
871.4914	-0
871.6533	-0.3223
871.8151	-0.1835
871.977	-0
872.1388	0.98
872.3006	-0
872.4623	-0
872.6241	-0
872.7858	0.1333
872.9475	-0.2477
873.1092	1.6698
873.2709	-0
873.4325	0.0455
873.5941	-0.5394
873.7557	-0
873.9173	-0
874.0789	-0.2879
874.2404	-0
874.4019	0.0041
874.5634	-0.0965
874.7249	-0.1567
874.8863	-0.1368
875.0478	0.151
875.2092	-0.3701
875.3706	0.0049
875.5319	-0.9915
875.6933	-0.2471
875.8546	0.3447
876.0159	-0
876.1772	-0
876.3385	-0
876.4997	0.1391
876.6609	-0.4001
876.8221	-0
876.9833	0.7527
877.1445	-0
877.3056	0.1266
877.4667	0.099
877.6278	-0.2011
877.7889	-0
877.9499	-0
878.111	-0
878.272	-0
878.433	0.1263
878.5939	-0
878.7549	-0.1714
878.9158	-1.0245
879.0767	0.0224
879.2376	-0
879.3984	-0.4041
879.5593	-0
879.7201	-0
879.8809	-0.8102
880.0417	0.0452
880.2024	-0.1411
880.3632	-0
880.5239	0.1022
880.6846	-0
880.8452	-2.2923
881.0059	-1.2648
881.1665	0.0446
881.3271	0.026
881.4877	-0.5571
881.6483	-0.1958
881.8088	-0.2386
881.9693	-0
882.1298	-0
882.2903	-0
