Data from MonoPyChalIsomerACN10uM420nmA_Absorbance_15-09-49-935.txt Node
Date: Fri Jul 05 15:09:49 BST 2024
User: LASERRRRR
Spectrometer: FLMT03099
Trigger mode: 0
Integration Time (sec): 1.000000E-1
Scans to average: 1
Electric dark correction enabled: true
Nonlinearity correction enabled: false
Boxcar width: 0
XAxis mode: Wavelengths
Number of Pixels in Spectrum: 3648
>>>>>Begin Spectral Data<<<<<
179.3399	-0.5219
179.5586	-0.5219
179.7771	-0.5219
179.9957	0.3636
180.2143	-0
180.4329	-0.1317
180.6514	-0
180.8699	-0
181.0885	-0.257
181.307	-0.1936
181.5255	-0
181.744	0.143
181.9625	-0
182.181	-0
182.3994	-0
182.6179	-0
182.8363	0.0835
183.0547	-0.0677
183.2732	0.0251
183.4916	0.1785
183.71	-0.0188
183.9284	0.076
184.1467	-0.1682
184.3651	0.0509
184.5835	-0.0547
184.8018	-0.0917
185.0201	0.2252
185.2385	-0.0657
185.4568	0.0051
185.6751	0.5954
185.8934	0.1933
186.1117	0.2257
186.3299	-0.0313
186.5482	0.2088
186.7664	-0.0658
186.9847	-0.1082
187.2029	0.1463
187.4211	0.0264
187.6393	0.1897
187.8575	-0.0499
188.0757	0.1985
188.2939	0.4312
188.512	0.0088
188.7302	-0.1169
188.9483	0.6849
189.1665	0.1272
189.3846	-0.2304
189.6027	0.1711
189.8208	0.1195
190.0389	0.0978
190.257	0.2102
190.475	0.1079
190.6931	0.1061
190.9111	0.4051
191.1292	0.4661
191.3472	0.4392
191.5652	0.413
191.7832	0.3283
192.0012	0.6422
192.2192	0.376
192.4371	0.5172
192.6551	0.3052
192.873	0.4091
193.091	0.5285
193.3089	0.5912
193.5268	0.592
193.7447	0.4112
193.9626	0.4882
194.1805	0.6472
194.3984	0.5667
194.6162	0.6909
194.8341	0.5215
195.0519	0.6366
195.2697	0.7602
195.4875	0.643
195.7054	0.5408
195.9231	0.5338
196.1409	0.5975
196.3587	0.6009
196.5765	0.6319
196.7942	0.5823
197.012	0.5274
197.2297	0.5439
197.4474	0.5496
197.6651	0.4909
197.8828	0.5647
198.1005	0.721
198.3182	0.6011
198.5358	0.7662
198.7535	0.6219
198.9711	0.6648
199.1888	0.6503
199.4064	0.6527
199.624	0.7691
199.8416	0.5408
200.0592	0.6846
200.2767	0.6286
200.4943	0.7529
200.7119	0.6493
200.9294	0.7415
201.1469	0.5601
201.3645	0.6221
201.582	0.6292
201.7995	0.6671
202.017	0.6026
202.2344	0.6454
202.4519	0.8271
202.6694	0.6415
202.8868	0.5866
203.1042	0.7691
203.3217	0.7086
203.5391	0.6831
203.7565	0.6179
203.9739	0.6389
204.1913	0.6141
204.4086	0.6612
204.626	0.744
204.8433	0.5599
205.0607	0.6159
205.278	0.6262
205.4953	0.6591
205.7126	0.6854
205.9299	0.773
206.1472	0.62
206.3644	0.6426
206.5817	0.7411
206.7989	0.7093
207.0162	0.7171
207.2334	0.6595
207.4506	0.6663
207.6678	0.6545
207.885	0.7372
208.1022	0.6313
208.3194	0.6138
208.5365	0.6367
208.7537	0.6002
208.9708	0.6315
209.1879	0.6174
209.405	0.6877
209.6222	0.674
209.8392	0.6302
210.0563	0.5873
210.2734	0.7106
210.4905	0.6581
210.7075	0.601
210.9245	0.5695
211.1416	0.7461
211.3586	0.6447
211.5756	0.586
211.7926	0.6071
212.0096	0.6225
212.2265	0.5666
212.4435	0.6272
212.6604	0.636
212.8774	0.5895
213.0943	0.6131
213.3112	0.58
213.5281	0.5396
213.745	0.5001
213.9619	0.5519
214.1788	0.5039
214.3956	0.4632
214.6125	0.5084
214.8293	0.4442
215.0461	0.5282
215.2629	0.4708
215.4798	0.5065
215.6965	0.4688
215.9133	0.4639
216.1301	0.4228
216.3469	0.4232
216.5636	0.4059
216.7803	0.4127
216.9971	0.4071
217.2138	0.3692
217.4305	0.3823
217.6472	0.372
217.8639	0.3797
218.0805	0.3513
218.2972	0.3388
218.5138	0.3346
218.7305	0.3279
218.9471	0.3242
219.1637	0.3037
219.3803	0.2821
219.5969	0.2777
219.8135	0.2505
220.0301	0.2753
220.2466	0.2826
220.4632	0.2645
220.6797	0.234
220.8962	0.2671
221.1127	0.2476
221.3292	0.2437
221.5457	0.2395
221.7622	0.2331
221.9787	0.2527
222.1951	0.2486
222.4116	0.2603
222.628	0.2703
222.8444	0.2649
223.0608	0.2507
223.2772	0.244
223.4936	0.2543
223.71	0.2499
223.9264	0.2706
224.1427	0.2378
224.3591	0.261
224.5754	0.266
224.7917	0.2665
225.008	0.2718
225.2243	0.2522
225.4406	0.3054
225.6569	0.2781
225.8732	0.2715
226.0894	0.2709
226.3057	0.2537
226.5219	0.3035
226.7381	0.2792
226.9543	0.2607
227.1705	0.2959
227.3867	0.2913
227.6029	0.2956
227.8191	0.3017
228.0352	0.3019
228.2513	0.3142
228.4675	0.3089
228.6836	0.3072
228.8997	0.3041
229.1158	0.3099
229.3319	0.3084
229.548	0.3149
229.764	0.3211
229.9801	0.3153
230.1961	0.3332
230.4121	0.3391
230.6282	0.3411
230.8442	0.3285
231.0602	0.3363
231.2761	0.3638
231.4921	0.3457
231.7081	0.3562
231.924	0.3505
232.14	0.383
232.3559	0.3371
232.5718	0.3594
232.7877	0.3571
233.0036	0.3512
233.2195	0.3716
233.4353	0.3624
233.6512	0.3755
233.867	0.3738
234.0829	0.3575
234.2987	0.3706
234.5145	0.3997
234.7303	0.3794
234.9461	0.3867
235.1619	0.3748
235.3776	0.3983
235.5934	0.3861
235.8091	0.3778
236.0249	0.3855
236.2406	0.3827
236.4563	0.3844
236.672	0.3966
236.8877	0.4066
237.1034	0.4073
237.319	0.3873
237.5347	0.4108
237.7503	0.3908
237.966	0.3988
238.1816	0.4058
238.3972	0.4032
238.6128	0.4
238.8284	0.4242
239.0439	0.425
239.2595	0.4051
239.475	0.4199
239.6906	0.4127
239.9061	0.4042
240.1216	0.3983
240.3371	0.433
240.5526	0.4036
240.7681	0.4137
240.9836	0.4074
241.199	0.4153
241.4145	0.3964
241.6299	0.3825
241.8453	0.3867
242.0607	0.3835
242.2761	0.3655
242.4915	0.3718
242.7069	0.37
242.9223	0.3449
243.1376	0.3464
243.353	0.3477
243.5683	0.3593
243.7836	0.3174
243.9989	0.34
244.2142	0.3066
244.4295	0.3077
244.6448	0.3108
244.86	0.3028
245.0753	0.305
245.2905	0.2899
245.5057	0.2562
245.721	0.2769
245.9362	0.2685
246.1514	0.2882
246.3665	0.2603
246.5817	0.2621
246.7969	0.2523
247.012	0.2514
247.2271	0.2429
247.4423	0.247
247.6574	0.2308
247.8725	0.2285
248.0876	0.2363
248.3026	0.241
248.5177	0.2308
248.7328	0.225
248.9478	0.2035
249.1628	0.2156
249.3779	0.2182
249.5929	0.2
249.8079	0.2175
250.0228	0.2018
250.2378	0.2022
250.4528	0.207
250.6677	0.1982
250.8827	0.2007
251.0976	0.2092
251.3125	0.2028
251.5274	0.1895
251.7423	0.1893
251.9572	0.1822
252.172	0.1931
252.3869	0.1924
252.6017	0.1945
252.8166	0.1706
253.0314	0.1658
253.2462	0.1728
253.461	0.1979
253.6758	0.1766
253.8906	0.1868
254.1053	0.1752
254.3201	0.1801
254.5348	0.188
254.7496	0.1783
254.9643	0.182
255.179	0.1789
255.3937	0.1736
255.6083	0.1691
255.823	0.1882
256.0377	0.1596
256.2523	0.1818
256.467	0.1547
256.6816	0.1708
256.8962	0.1696
257.1108	0.1654
257.3254	0.1825
257.54	0.1685
257.7545	0.1684
257.9691	0.1825
258.1836	0.1617
258.3981	0.1864
258.6127	0.1808
258.8272	0.1635
259.0417	0.1642
259.2561	0.1692
259.4706	0.1688
259.6851	0.1711
259.8995	0.1763
260.114	0.1641
260.3284	0.171
260.5428	0.1611
260.7572	0.175
260.9716	0.1633
261.186	0.1583
261.4003	0.1724
261.6147	0.1693
261.829	0.1646
262.0433	0.1648
262.2577	0.1638
262.472	0.1712
262.6863	0.1714
262.9005	0.1704
263.1148	0.1655
263.3291	0.1491
263.5433	0.17
263.7576	0.1694
263.9718	0.1692
264.186	0.1638
264.4002	0.1668
264.6144	0.1623
264.8286	0.1675
265.0427	0.163
265.2569	0.1541
265.471	0.1551
265.6851	0.1539
265.8993	0.1545
266.1134	0.1625
266.3275	0.157
266.5415	0.1541
266.7556	0.1724
266.9697	0.1657
267.1837	0.1782
267.3978	0.1572
267.6118	0.1732
267.8258	0.1815
268.0398	0.1616
268.2538	0.1725
268.4677	0.166
268.6817	0.1647
268.8957	0.1631
269.1096	0.1626
269.3235	0.1674
269.5374	0.1442
269.7514	0.1594
269.9652	0.1657
270.1791	0.1479
270.393	0.1443
270.6068	0.1596
270.8207	0.1464
271.0345	0.1499
271.2483	0.1498
271.4622	0.1536
271.676	0.1613
271.8897	0.1475
272.1035	0.1439
272.3173	0.1396
272.531	0.1536
272.7448	0.1468
272.9585	0.1341
273.1722	0.1429
273.3859	0.1462
273.5996	0.1422
273.8133	0.1563
274.0269	0.1483
274.2406	0.1295
274.4542	0.1418
274.6679	0.1427
274.8815	0.1427
275.0951	0.1418
275.3087	0.1535
275.5223	0.153
275.7358	0.1524
275.9494	0.1414
276.1629	0.1449
276.3765	0.1353
276.59	0.1465
276.8035	0.1468
277.017	0.1456
277.2305	0.1366
277.444	0.1571
277.6574	0.146
277.8709	0.1519
278.0843	0.1544
278.2978	0.1464
278.5112	0.1418
278.7246	0.1433
278.938	0.147
279.1513	0.148
279.3647	0.1495
279.5781	0.1479
279.7914	0.1535
280.0047	0.1547
280.2181	0.1542
280.4314	0.1523
280.6447	0.1608
280.8579	0.1545
281.0712	0.1497
281.2845	0.1493
281.4977	0.1472
281.711	0.1475
281.9242	0.1662
282.1374	0.1475
282.3506	0.1453
282.5638	0.1601
282.7769	0.1596
282.9901	0.156
283.2033	0.1537
283.4164	0.1597
283.6295	0.153
283.8426	0.1504
284.0557	0.162
284.2688	0.1711
284.4819	0.1655
284.695	0.1566
284.908	0.1678
285.1211	0.1513
285.3341	0.1559
285.5471	0.1638
285.7601	0.1635
285.9731	0.1661
286.1861	0.153
286.3991	0.1607
286.612	0.1766
286.825	0.1681
287.0379	0.1623
287.2508	0.153
287.4637	0.1566
287.6766	0.1634
287.8895	0.1695
288.1024	0.1804
288.3152	0.1644
288.5281	0.1506
288.7409	0.1684
288.9538	0.1579
289.1666	0.1592
289.3794	0.1692
289.5922	0.1635
289.8049	0.1614
290.0177	0.1612
290.2304	0.1669
290.4432	0.1745
290.6559	0.1727
290.8686	0.1695
291.0813	0.1627
291.294	0.1669
291.5067	0.1757
291.7194	0.1665
291.932	0.1702
292.1447	0.1726
292.3573	0.158
292.5699	0.1672
292.7825	0.1736
292.9951	0.1739
293.2077	0.1715
293.4203	0.1614
293.6328	0.1618
293.8454	0.1627
294.0579	0.1712
294.2704	0.1732
294.4829	0.1589
294.6954	0.1851
294.9079	0.1669
295.1204	0.1618
295.3328	0.1583
295.5453	0.1719
295.7577	0.1698
295.9701	0.1596
296.1825	0.1652
296.3949	0.1645
296.6073	0.1664
296.8197	0.1555
297.0321	0.1771
297.2444	0.1587
297.4567	0.1643
297.6691	0.1692
297.8814	0.1693
298.0937	0.1565
298.306	0.1803
298.5182	0.169
298.7305	0.1804
298.9428	0.1577
299.155	0.1764
299.3672	0.1689
299.5794	0.1617
299.7916	0.1619
300.0038	0.1679
300.216	0.1684
300.4282	0.1748
300.6403	0.1586
300.8525	0.1718
301.0646	0.163
301.2767	0.1662
301.4888	0.1621
301.7009	0.1727
301.913	0.165
302.125	0.1727
302.3371	0.1631
302.5491	0.1641
302.7612	0.1677
302.9732	0.1588
303.1852	0.1698
303.3972	0.1721
303.6092	0.1617
303.8211	0.154
304.0331	0.1679
304.245	0.1608
304.457	0.1531
304.6689	0.1553
304.8808	0.1545
305.0927	0.1459
305.3046	0.1558
305.5164	0.1601
305.7283	0.1486
305.9401	0.1605
306.152	0.1412
306.3638	0.1432
306.5756	0.1457
306.7874	0.1664
306.9992	0.1555
307.2109	0.1413
307.4227	0.1223
307.6344	0.1476
307.8462	0.1472
308.0579	0.1348
308.2696	0.1359
308.4813	0.1255
308.693	0.1404
308.9046	0.1269
309.1163	0.1236
309.328	0.1263
309.5396	0.1268
309.7512	0.1206
309.9628	0.1302
310.1744	0.1251
310.386	0.1206
310.5976	0.1209
310.8091	0.114
311.0207	0.1137
311.2322	0.128
311.4437	0.1153
311.6552	0.1039
311.8667	0.1273
312.0782	0.1009
312.2897	0.1089
312.5012	0.116
312.7126	0.1106
312.924	0.105
313.1355	0.1061
313.3469	0.1018
313.5583	0.1147
313.7696	0.1048
313.981	0.1142
314.1924	0.1038
314.4037	0.1019
314.6151	0.11
314.8264	0.0945
315.0377	0.1078
315.249	0.0988
315.4603	0.1182
315.6716	0.1074
315.8828	0.0874
316.0941	0.0946
316.3053	0.0929
316.5165	0.0908
316.7277	0.0878
316.9389	0.101
317.1501	0.0997
317.3613	0.0983
317.5724	0.0961
317.7836	0.11
317.9947	0.0982
318.2058	0.0947
318.417	0.0864
318.6281	0.0828
318.8391	0.0956
319.0502	0.0915
319.2613	0.0973
319.4723	0.0957
319.6834	0.1074
319.8944	0.0901
320.1054	0.0948
320.3164	0.0954
320.5274	0.0965
320.7383	0.0926
320.9493	0.1016
321.1602	0.1062
321.3712	0.0878
321.5821	0.1017
321.793	0.0963
322.0039	0.093
322.2148	0.0992
322.4257	0.0899
322.6365	0.111
322.8474	0.1021
323.0582	0.0972
323.269	0.1063
323.4798	0.1018
323.6906	0.1015
323.9014	0.0963
324.1122	0.1035
324.3229	0.1002
324.5337	0.0936
324.7444	0.0923
324.9551	0.1106
325.1658	0.1081
325.3765	0.0975
325.5872	0.0967
325.7979	0.0945
326.0085	0.0988
326.2192	0.109
326.4298	0.109
326.6404	0.0936
326.851	0.0988
327.0616	0.0996
327.2722	0.1081
327.4828	0.1037
327.6933	0.1085
327.9039	0.106
328.1144	0.1066
328.3249	0.1052
328.5354	0.0937
328.7459	0.097
328.9564	0.0971
329.1669	0.1008
329.3773	0.105
329.5878	0.1027
329.7982	0.1018
330.0086	0.1009
330.219	0.1081
330.4294	0.0968
330.6398	0.0989
330.8502	0.0961
331.0605	0.0978
331.2708	0.1014
331.4812	0.1041
331.6915	0.1042
331.9018	0.1037
332.1121	0.1022
332.3224	0.1051
332.5326	0.1248
332.7429	0.1155
332.9531	0.107
333.1633	0.1184
333.3735	0.1121
333.5837	0.1156
333.7939	0.1067
334.0041	0.1031
334.2143	0.1038
334.4244	0.1042
334.6346	0.084
334.8447	0.1223
335.0548	0.0963
335.2649	0.0887
335.475	0.1049
335.685	0.0892
335.8951	0.1133
336.1051	0.1126
336.3152	0.1141
336.5252	0.1179
336.7352	0.1046
336.9452	0.1111
337.1552	0.1081
337.3652	0.1079
337.5751	0.1073
337.7851	0.1108
337.995	0.1106
338.2049	0.1125
338.4148	0.1094
338.6247	0.1112
338.8346	0.1055
339.0445	0.1047
339.2543	0.1036
339.4642	0.1236
339.674	0.1061
339.8838	0.1088
340.0936	0.1231
340.3034	0.1206
340.5132	0.1146
340.7229	0.113
340.9327	0.1123
341.1424	0.1137
341.3522	0.1268
341.5619	0.11
341.7716	0.1173
341.9813	0.1219
342.1909	0.1095
342.4006	0.1241
342.6102	0.1274
342.8199	0.1126
343.0295	0.1158
343.2391	0.1285
343.4487	0.1259
343.6583	0.1149
343.8679	0.1213
344.0774	0.1133
344.287	0.1348
344.4965	0.1228
344.706	0.1259
344.9155	0.124
345.125	0.1259
345.3345	0.1317
345.544	0.1278
345.7534	0.117
345.9629	0.1146
346.1723	0.1326
346.3817	0.1185
346.5911	0.1204
346.8005	0.1403
347.0099	0.1227
347.2193	0.1331
347.4286	0.1312
347.638	0.1347
347.8473	0.1257
348.0566	0.1453
348.2659	0.1504
348.4752	0.1346
348.6845	0.1326
348.8937	0.1353
349.103	0.1527
349.3122	0.1301
349.5214	0.1354
349.7306	0.1523
349.9398	0.1345
350.149	0.134
350.3582	0.1401
350.5674	0.1426
350.7765	0.1348
350.9856	0.1422
351.1948	0.1428
351.4039	0.132
351.613	0.1341
351.822	0.1371
352.0311	0.144
352.2402	0.145
352.4492	0.14
352.6582	0.148
352.8672	0.1546
353.0762	0.1477
353.2852	0.1388
353.4942	0.1447
353.7032	0.1464
353.9121	0.1519
354.1211	0.1533
354.33	0.155
354.5389	0.1585
354.7478	0.1323
354.9567	0.1447
355.1655	0.1419
355.3744	0.1562
355.5833	0.1604
355.7921	0.175
356.0009	0.1483
356.2097	0.1633
356.4185	0.1567
356.6273	0.1603
356.8361	0.1569
357.0448	0.1624
357.2536	0.1382
357.4623	0.1545
357.671	0.1551
357.8797	0.1575
358.0884	0.1573
358.2971	0.1576
358.5057	0.1672
358.7144	0.1617
358.923	0.1686
359.1316	0.1698
359.3402	0.1762
359.5488	0.1656
359.7574	0.1551
359.966	0.176
360.1746	0.1776
360.3831	0.1862
360.5916	0.1542
360.8002	0.1533
361.0087	0.1891
361.2172	0.1591
361.4256	0.18
361.6341	0.1862
361.8426	0.1787
362.051	0.184
362.2594	0.1836
362.4678	0.1901
362.6762	0.1983
362.8846	0.1883
363.093	0.1791
363.3014	0.1872
363.5097	0.1664
363.718	0.1806
363.9264	0.181
364.1347	0.1755
364.343	0.1942
364.5513	0.2054
364.7595	0.197
364.9678	0.2004
365.176	0.1884
365.3842	0.1816
365.5925	0.207
365.8007	0.2033
366.0089	0.2028
366.217	0.1837
366.4252	0.2125
366.6333	0.2059
366.8415	0.2149
367.0496	0.1885
367.2577	0.2154
367.4658	0.2024
367.6739	0.2153
367.882	0.2009
368.09	0.198
368.2981	0.2001
368.5061	0.1958
368.7141	0.2047
368.9221	0.2199
369.1301	0.2093
369.3381	0.2137
369.5461	0.2315
369.754	0.2205
369.962	0.2263
370.1699	0.2044
370.3778	0.225
370.5857	0.2119
370.7936	0.2173
371.0015	0.2226
371.2093	0.2164
371.4172	0.2346
371.625	0.207
371.8328	0.2228
372.0406	0.2285
372.2484	0.2145
372.4562	0.2194
372.664	0.2332
372.8717	0.2503
373.0795	0.2105
373.2872	0.2394
373.4949	0.2223
373.7026	0.2192
373.9103	0.2273
374.118	0.2123
374.3256	0.2369
374.5333	0.2289
374.7409	0.2145
374.9485	0.2352
375.1561	0.237
375.3637	0.2366
375.5713	0.2408
375.7789	0.2253
375.9864	0.2379
376.194	0.234
376.4015	0.2465
376.609	0.2424
376.8165	0.2447
377.024	0.2315
377.2315	0.2283
377.4389	0.2382
377.6464	0.2533
377.8538	0.2493
378.0612	0.2471
378.2686	0.245
378.476	0.2616
378.6834	0.2373
378.8908	0.2512
379.0981	0.2631
379.3055	0.2419
379.5128	0.237
379.7201	0.2608
379.9274	0.2316
380.1347	0.258
380.342	0.2688
380.5492	0.2427
380.7565	0.2584
380.9637	0.2366
381.1709	0.2476
381.3781	0.2517
381.5853	0.2597
381.7925	0.2629
381.9997	0.2641
382.2068	0.2672
382.4139	0.2466
382.6211	0.2479
382.8282	0.2393
383.0353	0.2647
383.2424	0.2504
383.4494	0.264
383.6565	0.2446
383.8635	0.2342
384.0706	0.2632
384.2776	0.2654
384.4846	0.2584
384.6916	0.2577
384.8986	0.2408
385.1055	0.2682
385.3125	0.2504
385.5194	0.2493
385.7263	0.2798
385.9333	0.2543
386.1402	0.2577
386.347	0.2593
386.5539	0.2687
386.7608	0.273
386.9676	0.2394
387.1744	0.2649
387.3813	0.2494
387.5881	0.2481
387.7948	0.2456
388.0016	0.2616
388.2084	0.2379
388.4151	0.2472
388.6219	0.2564
388.8286	0.2586
389.0353	0.266
389.242	0.254
389.4487	0.2429
389.6553	0.2562
389.862	0.2212
390.0686	0.2412
390.2753	0.2427
390.4819	0.2502
390.6885	0.2444
390.8951	0.2532
391.1016	0.2522
391.3082	0.2278
391.5147	0.2476
391.7213	0.2465
391.9278	0.2486
392.1343	0.2301
392.3408	0.2357
392.5473	0.2459
392.7537	0.2387
392.9602	0.2293
393.1666	0.2273
393.373	0.2457
393.5794	0.2385
393.7858	0.2294
393.9922	0.2183
394.1986	0.2385
394.4049	0.2371
394.6113	0.2208
394.8176	0.2148
395.0239	0.2116
395.2302	0.2375
395.4365	0.2172
395.6428	0.2199
395.8491	0.2176
396.0553	0.234
396.2615	0.2409
396.4678	0.2182
396.674	0.2032
396.8802	0.219
397.0863	0.2403
397.2925	0.2391
397.4987	0.2099
397.7048	0.2226
397.9109	0.2256
398.117	0.2067
398.3231	0.2064
398.5292	0.2201
398.7353	0.2384
398.9413	0.2107
399.1474	0.2191
399.3534	0.2225
399.5594	0.2027
399.7654	0.2277
399.9714	0.2253
400.1774	0.2181
400.3833	0.2198
400.5893	0.2227
400.7952	0.2122
401.0011	0.2082
401.207	0.2306
401.4129	0.2263
401.6188	0.2257
401.8247	0.2391
402.0305	0.2219
402.2364	0.2091
402.4422	0.2145
402.648	0.2202
402.8538	0.2034
403.0596	0.2167
403.2654	0.2291
403.4711	0.21
403.6768	0.231
403.8826	0.2276
404.0883	0.2184
404.294	0.2231
404.4997	0.2155
404.7054	0.2338
404.911	0.2075
405.1167	0.221
405.3223	0.2275
405.5279	0.2295
405.7335	0.2238
405.9391	0.2342
406.1447	0.2181
406.3502	0.2269
406.5558	0.1962
406.7613	0.2172
406.9668	0.2147
407.1724	0.2042
407.3778	0.2157
407.5833	0.2218
407.7888	0.2031
407.9942	0.2348
408.1997	0.2293
408.4051	0.2081
408.6105	0.2132
408.8159	0.1911
409.0213	0.2092
409.2267	0.2323
409.432	0.1923
409.6374	0.2358
409.8427	0.2189
410.048	0.2271
410.2533	0.2137
410.4586	0.2331
410.6639	0.199
410.8691	0.1985
411.0744	0.1962
411.2796	0.2099
411.4848	0.2081
411.69	0.2063
411.8952	0.228
412.1004	0.1971
412.3056	0.2103
412.5107	0.2032
412.7158	0.2443
412.921	0.2082
413.1261	0.227
413.3312	0.1967
413.5362	0.2069
413.7413	0.2098
413.9464	0.2119
414.1514	0.201
414.3564	0.1988
414.5614	0.2
414.7664	0.2141
414.9714	0.22
415.1764	0.2033
415.3813	0.2067
415.5863	0.2147
415.7912	0.1892
415.9961	0.2172
416.201	0.2119
416.4059	0.2143
416.6108	0.1992
416.8156	0.1881
417.0205	0.1953
417.2253	0.2004
417.4301	0.2154
417.6349	0.2023
417.8397	0.1956
418.0445	0.2076
418.2492	0.2104
418.454	0.212
418.6587	0.1991
418.8634	0.2208
419.0681	0.1821
419.2728	0.2148
419.4775	0.1862
419.6822	0.1772
419.8868	0.1831
420.0915	0.1996
420.2961	0.1786
420.5007	0.1914
420.7053	0.1934
420.9099	0.2015
421.1144	0.193
421.319	0.1928
421.5235	0.1841
421.728	0.2101
421.9325	0.1974
422.137	0.1839
422.3415	0.1852
422.546	0.1979
422.7504	0.1932
422.9549	0.1983
423.1593	0.1974
423.3637	0.1983
423.5681	0.193
423.7725	0.1718
423.9769	0.1727
424.1812	0.1789
424.3856	0.1758
424.5899	0.1843
424.7942	0.1836
424.9985	0.1871
425.2028	0.19
425.4071	0.1922
425.6113	0.1645
425.8156	0.1845
426.0198	0.1841
426.224	0.1657
426.4282	0.1832
426.6324	0.1619
426.8366	0.1654
427.0407	0.173
427.2449	0.1714
427.449	0.1591
427.6531	0.1631
427.8572	0.1678
428.0613	0.1585
428.2654	0.1675
428.4694	0.1634
428.6735	0.1432
428.8775	0.1723
429.0815	0.1741
429.2855	0.1483
429.4895	0.1557
429.6935	0.1745
429.8975	0.1491
430.1014	0.1442
430.3053	0.1383
430.5093	0.1478
430.7132	0.1347
430.9171	0.144
431.1209	0.1363
431.3248	0.1419
431.5286	0.1409
431.7325	0.1412
431.9363	0.1373
432.1401	0.1345
432.3439	0.1351
432.5477	0.1205
432.7514	0.112
432.9552	0.1387
433.1589	0.1255
433.3627	0.1146
433.5664	0.1282
433.7701	0.1248
433.9737	0.1124
434.1774	0.0995
434.3811	0.1212
434.5847	0.1191
434.7883	0.1155
434.9919	0.1127
435.1955	0.1177
435.3991	0.1104
435.6027	0.1089
435.8062	0.0976
436.0098	0.0908
436.2133	0.1075
436.4168	0.1044
436.6203	0.0901
436.8238	0.0913
437.0272	0.0929
437.2307	0.108
437.4341	0.1079
437.6375	0.1028
437.841	0.0834
438.0443	0.1049
438.2477	0.0949
438.4511	0.0753
438.6545	0.0892
438.8578	0.1052
439.0611	0.088
439.2644	0.0746
439.4677	0.0724
439.671	0.0804
439.8743	0.0887
440.0775	0.0827
440.2808	0.0748
440.484	0.0722
440.6872	0.0525
440.8904	0.068
441.0936	0.0861
441.2967	0.0725
441.4999	0.0695
441.703	0.0555
441.9062	0.0638
442.1093	0.0589
442.3124	0.0672
442.5155	0.0529
442.7185	0.0591
442.9216	0.0393
443.1246	0.0783
443.3276	0.0533
443.5307	0.0652
443.7337	0.0632
443.9366	0.0458
444.1396	0.0723
444.3426	0.0489
444.5455	0.0552
444.7484	0.0486
444.9513	0.0536
445.1542	0.0471
445.3571	0.0465
445.56	0.0473
445.7628	0.0346
445.9657	0.0308
446.1685	0.0521
446.3713	0.0512
446.5741	0.0482
446.7769	0.0248
446.9797	0.0417
447.1824	0.0543
447.3852	0.024
447.5879	0.0469
447.7906	0.0495
447.9933	0.0314
448.196	0.0343
448.3986	0.0475
448.6013	0.0225
448.8039	0.0161
449.0066	0.0271
449.2092	0.0323
449.4118	0.0315
449.6143	0.0375
449.8169	0.0346
450.0195	0.0245
450.222	0.0149
450.4245	0.0273
450.627	0.0252
450.8295	0.0178
451.032	0.0437
451.2345	0.0318
451.4369	0.0412
451.6394	0.0333
451.8418	0.0154
452.0442	0.0221
452.2466	0.0395
452.449	-0.0022
452.6513	0.0175
452.8537	0.0309
453.056	0.0083
453.2583	0.0142
453.4607	0.0153
453.663	0.03
453.8652	0.0197
454.0675	0.0089
454.2697	0.016
454.472	0.0011
454.6742	0.012
454.8764	0.0175
455.0786	0.0229
455.2808	0.0182
455.4829	0.0116
455.6851	0.018
455.8872	0.0221
456.0893	0.0213
456.2915	0.003
456.4935	0.0071
456.6956	0.0133
456.8977	0.0122
457.0997	0.013
457.3018	-0.0166
457.5038	0.0201
457.7058	0.0061
457.9078	-0.0087
458.1098	0.0126
458.3117	-0.0061
458.5137	0.0075
458.7156	0.0087
458.9175	-0.0019
459.1194	0.013
459.3213	0.0103
459.5232	0.0094
459.725	0.0005
459.9269	-0.0013
460.1287	-0.0155
460.3305	0.003
460.5323	-0.0004
460.7341	0.0013
460.9359	-0.0014
461.1376	0.0116
461.3394	0.0093
461.5411	-0.0032
461.7428	-0.0153
461.9445	0.0182
462.1462	0.006
462.3479	0
462.5495	0.0083
462.7512	0.012
462.9528	-0.0028
463.1544	-0.0098
463.356	-0.0065
463.5576	0.0074
463.7592	0.0015
463.9607	-0.0019
464.1623	0.0045
464.3638	0.0117
464.5653	0.0019
464.7668	0.0002
464.9683	-0.0036
465.1697	0.009
465.3712	-0.0072
465.5726	-0.0055
465.7741	-0.003
465.9755	-0.0014
466.1769	0.0015
466.3782	-0.0159
466.5796	0.0013
466.7809	0.0104
466.9823	-0.019
467.1836	-0.0001
467.3849	0.0035
467.5862	-0.017
467.7875	-0.0034
467.9887	0.0104
468.19	-0.0102
468.3912	-0.0119
468.5924	-0.0167
468.7936	0.0017
468.9948	0.0002
469.196	0.0074
469.3972	-0.017
469.5983	0.0014
469.7994	-0.0097
470.0006	-0.0041
470.2017	-0.0203
470.4027	-0.0068
470.6038	0.0059
470.8049	-0.0093
471.0059	-0.0167
471.2069	-0.0118
471.408	0.0033
471.6089	0.0079
471.8099	-0.0003
472.0109	0.0012
472.2119	-0.0129
472.4128	0.0028
472.6137	-0.0032
472.8146	-0.0263
473.0155	-0.0082
473.2164	-0.0034
473.4173	-0.0072
473.6181	-0.0067
473.819	0.0018
474.0198	0.0055
474.2206	-0.0184
474.4214	-0.0208
474.6222	-0.0084
474.8229	-0.0145
475.0237	-0.0214
475.2244	-0.0126
475.4251	0.0062
475.6258	-0.0012
475.8265	-0.003
476.0272	-0.0074
476.2278	0.002
476.4285	-0.0043
476.6291	-0.0085
476.8297	-0.0161
477.0303	-0.0111
477.2309	-0.0172
477.4315	-0.0119
477.632	-0.0039
477.8326	-0.0033
478.0331	-0.0111
478.2336	-0.0002
478.4341	-0.0045
478.6346	-0.0098
478.8351	-0.0013
479.0355	0.0007
479.236	-0.0099
479.4364	-0.0093
479.6368	0.0008
479.8372	-0.0178
480.0376	0.0044
480.2379	-0.0208
480.4383	-0.0253
480.6386	0.005
480.8389	-0.0027
481.0392	-0.0253
481.2395	-0.015
481.4398	-0.0007
481.6401	-0.0082
481.8403	-0.0056
482.0405	-0.0146
482.2408	-0.0068
482.441	0.0077
482.6411	-0.009
482.8413	-0.0108
483.0415	-0.0084
483.2416	-0.0207
483.4417	0.0025
483.6419	-0.0082
483.8419	-0.0061
484.042	0.0036
484.2421	0.0044
484.4422	-0.0044
484.6422	-0.0192
484.8422	-0.0103
485.0422	-0.0159
485.2422	-0.0077
485.4422	-0.0135
485.6422	-0.0146
485.8421	-0.0091
486.042	-0.0029
486.242	-0.0012
486.4419	-0.0128
486.6417	-0.0148
486.8416	-0.0055
487.0415	-0.0094
487.2413	-0.003
487.4411	-0.012
487.641	-0.0177
487.8408	0.0039
488.0405	-0.0143
488.2403	-0.0053
488.4401	-0.0124
488.6398	-0.0062
488.8395	-0.0181
489.0392	0.0008
489.2389	-0.0092
489.4386	-0.0045
489.6383	-0.0045
489.8379	-0.0056
490.0376	-0.0125
490.2372	-0.0174
490.4368	-0.0228
490.6364	-0.019
490.836	-0.0111
491.0355	-0.0127
491.2351	-0.006
491.4346	-0.0148
491.6341	-0.02
491.8336	-0.0056
492.0331	-0.0218
492.2326	-0.0147
492.432	-0.0145
492.6315	-0.0079
492.8309	-0.0143
493.0303	-0.0188
493.2297	-0.0169
493.4291	-0.0076
493.6284	-0.008
493.8278	-0.0094
494.0271	-0.0052
494.2264	-0.0018
494.4257	-0.0094
494.625	-0.014
494.8243	-0.0205
495.0236	-0.013
495.2228	-0.0055
495.422	-0.0015
495.6213	-0.0177
495.8205	-0.0094
496.0196	-0.0054
496.2188	-0.0069
496.418	-0.0173
496.6171	-0.0123
496.8162	-0.0142
497.0153	-0.008
497.2144	-0.0167
497.4135	0.0015
497.6126	-0.0124
497.8116	-0.0206
498.0107	0.002
498.2097	-0.026
498.4087	-0.0214
498.6077	-0.0092
498.8067	-0.019
499.0056	-0.0125
499.2046	-0.0168
499.4035	-0.0173
499.6024	-0.0097
499.8013	-0.0029
500.0002	-0.0185
500.199	-0.0095
500.3979	-0.0171
500.5967	-0.0265
500.7956	-0.017
500.9944	-0.0128
501.1932	-0.0152
501.3919	-0.0067
501.5907	-0.0235
501.7895	-0.012
501.9882	-0.0184
502.1869	-0.0151
502.3856	-0.0116
502.5843	-0.0175
502.783	-0.0196
502.9816	-0.016
503.1803	-0.0193
503.3789	-0.0174
503.5775	0.0009
503.7761	-0.023
503.9747	-0.01
504.1732	-0.0257
504.3718	-0.0049
504.5703	-0.0108
504.7689	-0.0103
504.9674	-0.0031
505.1658	-0.0184
505.3643	-0.0171
505.5628	-0.0083
505.7612	-0.0203
505.9597	-0.0088
506.1581	-0.0112
506.3565	0.0114
506.5549	-0.0126
506.7532	-0.0094
506.9516	-0.0165
507.1499	-0.0091
507.3482	-0.0155
507.5465	-0.0159
507.7448	-0.0079
507.9431	-0.0085
508.1414	-0.0048
508.3396	-0.0121
508.5379	-0.0086
508.7361	-0.0084
508.9343	-0.0066
509.1325	-0.0111
509.3306	-0.0103
509.5288	-0.015
509.7269	-0.0129
509.9251	-0.0119
510.1232	-0.0155
510.3213	-0.0113
510.5193	0.0035
510.7174	-0.0114
510.9154	-0.0222
511.1135	-0.0087
511.3115	-0.0047
511.5095	-0.0034
511.7075	-0.007
511.9055	-0.0073
512.1034	-0.0069
512.3014	-0.0023
512.4993	-0.0025
512.6972	-0.0205
512.8951	-0.0141
513.093	-0.0108
513.2908	-0.0018
513.4887	-0.0086
513.6865	-0.0146
513.8844	-0.0076
514.0822	-0.0133
514.2799	-0.0182
514.4777	-0.0125
514.6755	-0.0117
514.8732	-0.0072
515.0709	-0.0182
515.2687	-0.0093
515.4664	-0.0172
515.664	-0.0052
515.8617	-0.0123
516.0594	-0.014
516.257	-0.0102
516.4546	-0.0143
516.6522	-0.0093
516.8498	-0.0133
517.0474	0.0061
517.2449	-0.0062
517.4425	-0.0237
517.64	-0.0075
517.8375	-0.0081
518.035	-0.0071
518.2325	-0.0156
518.43	-0.0147
518.6274	-0.0071
518.8249	-0.0156
519.0223	-0.0077
519.2197	-0.0112
519.4171	-0.017
519.6145	-0.0049
519.8118	-0.0044
520.0092	-0.0126
520.2065	-0.0119
520.4038	-0.0135
520.6011	-0.0055
520.7984	-0.0133
520.9956	-0.0173
521.1929	-0.0166
521.3901	-0.0155
521.5874	-0.0064
521.7846	-0.0096
521.9818	-0.0165
522.1789	-0.014
522.3761	-0.0095
522.5732	-0.014
522.7704	-0.0162
522.9675	-0.0084
523.1646	-0.0069
523.3617	-0.0079
523.5587	-0.0004
523.7558	-0.0078
523.9528	-0.0179
524.1498	-0.0116
524.3468	-0.0224
524.5438	-0.0137
524.7408	-0.0093
524.9378	-0.0064
525.1347	0.0001
525.3316	-0.0148
525.5285	-0.0101
525.7254	-0.0151
525.9223	-0.0102
526.1192	-0.0056
526.316	-0.0084
526.5129	0.0038
526.7097	-0.0089
526.9065	-0.0134
527.1033	-0.0065
527.3	-0.0056
527.4968	-0.0126
527.6935	-0.01
527.8903	-0.0168
528.087	-0.0032
528.2837	-0.0071
528.4804	-0.0061
528.677	-0.0085
528.8737	0.0078
529.0703	-0.0038
529.2669	-0.008
529.4635	-0.0158
529.6601	0.0003
529.8567	-0.007
530.0532	-0.0225
530.2498	0.0088
530.4463	-0.0055
530.6428	-0.0124
530.8393	0.0034
531.0358	-0.009
531.2322	-0.0108
531.4287	-0.0006
531.6251	-0.0097
531.8215	-0.0009
532.0179	0.0004
532.2143	0.0011
532.4107	-0.0097
532.607	-0.0057
532.8034	-0.0053
532.9997	-0.0094
533.196	-0.0078
533.3923	-0.0043
533.5886	-0.0032
533.7848	-0.0104
533.9811	-0.0014
534.1773	-0.0013
534.3735	0.0018
534.5697	-0.0147
534.7659	-0.0124
534.9621	-0.005
535.1582	-0.0193
535.3544	-0.0113
535.5505	-0.0107
535.7466	-0.0068
535.9427	-0.0054
536.1387	-0.0132
536.3348	-0.0105
536.5308	-0.0022
536.7269	-0.0116
536.9229	0.0018
537.1189	-0.0033
537.3148	-0.0147
537.5108	-0.0112
537.7068	0.0012
537.9027	-0.0048
538.0986	-0.0104
538.2945	-0.012
538.4904	-0.0043
538.6863	-0.0133
538.8821	-0.0094
539.078	-0.0012
539.2738	-0.0029
539.4696	-0.0078
539.6654	0.009
539.8611	0.0145
540.0569	-0.0046
540.2526	-0.015
540.4484	-0.0068
540.6441	-0.0011
540.8398	-0.001
541.0355	0.0023
541.2311	0.0011
541.4268	-0.0161
541.6224	-0.0029
541.818	-0.0053
542.0136	-0.0082
542.2092	-0.0038
542.4048	0.0008
542.6003	-0.0017
542.7959	-0.0107
542.9914	-0.007
543.1869	0.0004
543.3824	-0.0002
543.5779	0.0011
543.7734	-0.0128
543.9688	-0.0103
544.1642	0.0042
544.3596	-0.0048
544.555	-0.0081
544.7504	-0.0024
544.9458	-0.011
545.1411	-0.0088
545.3365	-0.0078
545.5318	-0.0107
545.7271	-0.008
545.9224	-0.0051
546.1177	-0.0091
546.3129	0.0007
546.5081	-0.017
546.7034	-0.0062
546.8986	-0.014
547.0938	-0.0077
547.289	-0.0079
547.4841	-0.0058
547.6793	0.0044
547.8744	-0.0053
548.0695	0.0041
548.2646	-0.015
548.4597	-0.0028
548.6548	-0.0011
548.8498	0
549.0448	-0.001
549.2399	-0.0063
549.4349	0.0118
549.6298	0.0032
549.8248	0.0009
550.0198	-0.0005
550.2147	-0.0029
550.4096	-0.0005
550.6045	-0.0002
550.7994	-0.0006
550.9943	0.0045
551.1892	-0.0045
551.384	0.0059
551.5788	-0.0104
551.7737	0.0043
551.9685	-0.0004
552.1632	0.0001
552.358	-0.0071
552.5528	0.0012
552.7475	-0.0124
552.9422	-0.0043
553.1369	0.0047
553.3316	0.0017
553.5263	-0.0101
553.7209	0.0011
553.9156	-0.0063
554.1102	-0.0121
554.3048	-0.0011
554.4994	0.0074
554.694	-0.0136
554.8885	0.0007
555.0831	-0.0059
555.2776	-0.0054
555.4721	-0.0059
555.6666	-0.008
555.8611	-0.0011
556.0555	0.001
556.25	0.002
556.4444	-0.0115
556.6388	-0.0092
556.8332	0.0049
557.0276	-0.0085
557.222	-0.0044
557.4163	-0.0013
557.6107	-0.0083
557.805	0.0075
557.9993	-0.0061
558.1936	-0.0019
558.3879	-0.0052
558.5821	0.0023
558.7764	-0.0085
558.9706	-0.0032
559.1648	0.0051
559.359	0.0029
559.5532	-0.0085
559.7473	-0.0058
559.9415	-0.0047
560.1356	-0.0093
560.3297	-0.0062
560.5238	-0.0131
560.7179	-0.0033
560.9119	-0.005
561.106	-0.0082
561.3	-0.0062
561.494	-0.0003
561.688	-0.0108
561.882	-0.0101
562.076	-0.0001
562.2699	-0.0044
562.4639	-0.0035
562.6578	-0.0073
562.8517	-0.0037
563.0456	-0.0037
563.2395	-0.0011
563.4333	-0.0042
563.6272	0.0083
563.821	-0.0042
564.0148	-0.0019
564.2086	-0.0028
564.4024	-0.0068
564.5961	-0.0009
564.7899	0.0012
564.9836	-0.0068
565.1773	-0.0016
565.371	0.0036
565.5647	0.0066
565.7584	0.0031
565.952	0.0059
566.1456	0.0032
566.3393	-0.003
566.5329	-0.0057
566.7264	-0.0025
566.92	-0.0047
567.1136	0.0058
567.3071	-0.0047
567.5006	-0.0017
567.6941	0.0017
567.8876	-0.006
568.0811	0.0017
568.2745	0.0007
568.468	0.0064
568.6614	0.0007
568.8548	-0.0046
569.0482	-0.0032
569.2416	-0.0019
569.4349	-0.0028
569.6283	-0.0004
569.8216	-0.0032
570.0149	-0.0101
570.2082	0.0021
570.4015	-0.003
570.5947	-0.0019
570.788	0.0005
570.9812	0.0112
571.1744	-0.0069
571.3676	-0.0077
571.5608	-0.0086
571.754	-0.0006
571.9471	-0.0022
572.1402	-0.0015
572.3333	-0.0015
572.5264	-0.0005
572.7195	-0.0037
572.9126	-0.005
573.1057	-0.0028
573.2987	-0.0075
573.4917	-0.0026
573.6847	-0.0142
573.8777	-0.0015
574.0707	0.0081
574.2636	-0.0016
574.4566	-0.0075
574.6495	0.0024
574.8424	-0.0028
575.0353	0.0016
575.2281	0.0016
575.421	0.0001
575.6138	0.008
575.8067	-0.0036
575.9995	0.0016
576.1923	0.0042
576.385	0.0031
576.5778	-0.0067
576.7706	-0.0106
576.9633	0.0008
577.156	-0.003
577.3487	-0.0037
577.5414	-0.0023
577.734	-0.0056
577.9267	0.0022
578.1193	-0.0124
578.3119	-0.0118
578.5045	-0.0064
578.6971	-0.0021
578.8897	0.0024
579.0822	-0.002
579.2747	0.0013
579.4673	-0.0053
579.6598	-0.0039
579.8522	0.0033
580.0447	-0.0091
580.2372	-0.0028
580.4296	0.0005
580.622	-0.0087
580.8144	-0.0042
581.0068	-0.0027
581.1992	-0.0125
581.3915	-0.0101
581.5839	-0.0092
581.7762	-0.0111
581.9685	-0.008
582.1608	0.0002
582.353	-0.006
582.5453	-0.0038
582.7375	-0.0021
582.9298	0.0004
583.122	0.0007
583.3142	-0.0009
583.5063	-0.0059
583.6985	-0.0053
583.8906	-0.0038
584.0827	-0.0093
584.2749	0.0004
584.4669	0.0021
584.659	-0.0012
584.8511	-0.0092
585.0431	-0.0055
585.2352	-0.0005
585.4272	-0.007
585.6192	0.0035
585.8111	0.0001
586.0031	-0.0024
586.195	-0.0097
586.387	0.0051
586.5789	-0.0055
586.7708	-0.0026
586.9627	0.0029
587.1545	-0.0014
587.3464	0.004
587.5382	0.0039
587.73	0.0108
587.9218	0.0011
588.1136	-0.0043
588.3053	0.0028
588.4971	-0.003
588.6888	-0.0073
588.8805	0.0026
589.0722	-0.0005
589.2639	0.0019
589.4556	-0.0053
589.6472	0.0003
589.8389	-0.007
590.0305	-0.0079
590.2221	0.0032
590.4137	-0.0124
590.6052	0.0092
590.7968	-0.0011
590.9883	0.0004
591.1798	-0.001
591.3713	0.0024
591.5628	0.0041
591.7543	0.007
591.9458	0.0012
592.1372	0.0034
592.3286	0.004
592.52	0.0009
592.7114	-0.0054
592.9028	-0.0027
593.0941	-0.003
593.2855	0.0027
593.4768	-0.0054
593.6681	-0.008
593.8594	-0.0036
594.0506	-0.0071
594.2419	0.0074
594.4331	0.0037
594.6244	0.0029
594.8156	-0.0041
595.0067	0.0035
595.1979	0.0003
595.3891	0.0062
595.5802	0.0005
595.7713	-0.0047
595.9624	0.0002
596.1535	0.0068
596.3446	0.0016
596.5357	-0.0027
596.7267	0.005
596.9177	0.0014
597.1087	-0.0116
597.2997	-0.0072
597.4907	0.0119
597.6817	-0.0092
597.8726	-0.0001
598.0635	-0.0014
598.2544	0.0043
598.4453	0.0008
598.6362	-0.0005
598.827	-0.0064
599.0179	0.0021
599.2087	-0.0003
599.3995	0.0028
599.5903	0.0034
599.7811	0.0088
599.9718	-0.0006
600.1626	-0.0068
600.3533	-0.0069
600.544	0.004
600.7347	0.0023
600.9254	0.0011
601.116	-0.0102
601.3067	0.0001
601.4973	0.0056
601.6879	0.0073
601.8785	-0.0025
602.0691	0.0129
602.2596	0.009
602.4502	0.0072
602.6407	0.0032
602.8312	0.0013
603.0217	-0.0093
603.2122	0.0057
603.4027	0.0015
603.5931	0.0002
603.7835	-0.0019
603.9739	0.0033
604.1643	-0.0031
604.3547	-0.0009
604.5451	0.0066
604.7354	0.0021
604.9257	0
605.116	-0.0027
605.3063	0.0091
605.4966	0.0011
605.6869	-0.0009
605.8771	0.0056
606.0673	0.0049
606.2575	0.0021
606.4477	-0.0034
606.6379	0.0037
606.8281	-0.0003
607.0182	-0.0026
607.2083	0.0091
607.3985	-0.0033
607.5885	0.0075
607.7786	0.0015
607.9687	-0.0021
608.1587	0.0005
608.3488	0.0041
608.5388	-0.0002
608.7288	-0.0077
608.9187	-0.0048
609.1087	-0.0084
609.2986	-0.0022
609.4886	0.0019
609.6785	0.0009
609.8684	-0.0021
610.0582	-0.0007
610.2481	0.0018
610.4379	-0.0042
610.6278	-0.0049
610.8176	-0.0065
611.0074	-0.0076
611.1971	-0.0067
611.3869	-0.0042
611.5766	-0.0058
611.7664	0.0087
611.9561	0.0031
612.1458	0.0017
612.3354	-0.0037
612.5251	-0.0012
612.7147	0.0019
612.9044	0.0055
613.094	-0.0035
613.2836	0.0042
613.4731	-0.0053
613.6627	0.0029
613.8522	0.0046
614.0417	0.0042
614.2313	-0.0051
614.4207	-0.0011
614.6102	-0.0042
614.7997	-0.0043
614.9891	-0.0042
615.1785	-0.0035
615.3679	-0.0068
615.5573	0.0022
615.7467	-0.0054
615.9361	-0.007
616.1254	-0.0052
616.3147	0.0035
616.504	0.0062
616.6933	0.0013
616.8826	0.0072
617.0718	0.0034
617.2611	0.001
617.4503	0.0009
617.6395	-0.0022
617.8287	-0.0068
618.0179	-0.0001
618.207	0.0075
618.3961	-0.0001
618.5853	-0.0063
618.7744	0.0039
618.9634	0.0043
619.1525	0.0046
619.3416	0.0079
619.5306	0.0062
619.7196	0.0072
619.9086	-0.0044
620.0976	0.001
620.2866	-0.0065
620.4755	0.0028
620.6645	-0.001
620.8534	0.0029
621.0423	0.0069
621.2312	0.0058
621.42	0.0061
621.6089	0.0026
621.7977	0.0094
621.9865	-0.0129
622.1753	-0.002
622.3641	-0.0027
622.5529	0.0082
622.7416	-0.0007
622.9303	-0.011
623.1191	0.009
623.3078	-0.0072
623.4964	0.0052
623.6851	-0.0076
623.8737	-0.0023
624.0624	0.002
624.251	0.0008
624.4396	-0.0022
624.6282	-0.0069
624.8167	0.0074
625.0053	0.0057
625.1938	0.0069
625.3823	0.0046
625.5708	0.003
625.7593	-0.0029
625.9477	-0.0045
626.1362	0.0044
626.3246	0.0016
626.513	0.0052
626.7014	0.0037
626.8898	0.0104
627.0781	0.0038
627.2665	-0.001
627.4548	0.0076
627.6431	0.0074
627.8314	0.0022
628.0197	0.0054
628.2079	-0.008
628.3962	-0.0006
628.5844	0.0105
628.7726	0.0107
628.9608	0.0094
629.1489	0.0015
629.3371	-0.0012
629.5252	0.0028
629.7134	0.0113
629.9015	0.008
630.0895	0.0062
630.2776	-0.0001
630.4657	0.0001
630.6537	0.0007
630.8417	-0.0011
631.0297	0.0052
631.2177	-0.0009
631.4057	-0.0054
631.5936	-0.0035
631.7815	0.0027
631.9695	-0.0004
632.1574	0.0065
632.3452	0.0079
632.5331	-0.0011
632.7209	-0.0038
632.9088	0.0028
633.0966	0.0092
633.2844	-0.0004
633.4722	-0.0012
633.6599	0.0096
633.8477	0.0021
634.0354	0.0011
634.2231	0.0031
634.4108	0.009
634.5985	0.0069
634.7861	0.0019
634.9738	-0.0038
635.1614	-0.0046
635.349	0.0022
635.5366	-0.0019
635.7242	0.0009
635.9117	0.0078
636.0993	-0.0027
636.2868	0.0092
636.4743	-0.0025
636.6618	0.0061
636.8492	0.0044
637.0367	-0.0002
637.2241	-0.0056
637.4115	-0.0026
637.5989	-0.009
637.7863	0.0006
637.9737	-0.0042
638.161	0.0024
638.3484	-0.002
638.5357	0.0081
638.723	-0.0026
638.9103	0.0072
639.0975	0.0064
639.2848	0.0062
639.472	0.0008
639.6592	0.0025
639.8464	0.0089
640.0336	0.0059
640.2208	0.0017
640.4079	-0.0003
640.595	0.0058
640.7821	-0.0006
640.9692	0.0066
641.1563	-0.0036
641.3434	0.0072
641.5304	0.0038
641.7174	0.0033
641.9044	0.002
642.0914	0.0025
642.2784	-0
642.4653	0.0084
642.6523	0.0026
642.8392	0.002
643.0261	-0.0005
643.213	0.0073
643.3999	0.0033
643.5867	0.0041
643.7735	0.0023
643.9604	-0.0081
644.1472	0.0004
644.3339	0.0042
644.5207	0.0021
644.7075	0
644.8942	0.0037
645.0809	0.0134
645.2676	0.003
645.4543	0.0017
645.6409	0.0096
645.8276	0.0028
646.0142	0.0057
646.2008	-0.0012
646.3874	-0.0025
646.574	-0.0022
646.7605	-0.0026
646.9471	-0.0116
647.1336	-0
647.3201	0.0104
647.5066	0.0068
647.6931	0.003
647.8795	-0.0047
648.0659	0.0006
648.2524	0.0099
648.4388	-0.0004
648.6252	-0.002
648.8115	-0.0008
648.9979	0.0041
649.1842	0.0044
649.3705	0.0026
649.5568	0.0053
649.7431	0.0011
649.9294	-0.0005
650.1156	-0.0013
650.3018	0.0017
650.488	0.003
650.6742	0.0068
650.8604	0.0083
651.0466	0.0007
651.2327	-0.0002
651.4188	0.0047
651.6049	0.0028
651.791	0.0023
651.9771	0.0035
652.1632	0.0091
652.3492	0.0028
652.5352	0.0064
652.7212	-0.0038
652.9072	0.0054
653.0932	0.0054
653.2791	-0.0008
653.465	0.0065
653.651	-0.0016
653.8369	-0.0063
654.0227	0.0081
654.2086	0.0096
654.3944	-0.0018
654.5803	-0.001
654.7661	-0.0008
654.9519	0.0002
655.1377	0.0023
655.3234	-0.0052
655.5092	-0.0037
655.6949	-0.0079
655.8806	-0.0001
656.0663	-0.0038
656.2519	-0.0071
656.4376	-0.0099
656.6232	0.0048
656.8088	0.0069
656.9945	0.0037
657.18	-0.0012
657.3656	0.006
657.5511	-0.0057
657.7367	-0.0008
657.9222	0.0089
658.1077	0.0036
658.2932	0.0088
658.4786	-0.0116
658.6641	0
658.8495	0.0057
659.0349	-0.003
659.2203	0.0052
659.4057	0.0055
659.591	0.0033
659.7764	0.0015
659.9617	0.01
660.147	-0.0001
660.3323	0.0054
660.5176	0.0099
660.7028	0.01
660.888	0.0056
661.0733	0.0016
661.2585	0.0009
661.4436	0.0034
661.6288	0.0027
661.8139	-0.0011
661.9991	0.0061
662.1842	0.0032
662.3693	0.0127
662.5544	0.0026
662.7394	0.0068
662.9245	-0.0002
663.1095	0.0011
663.2945	-0.001
663.4795	-0.0032
663.6644	0.0028
663.8494	-0.0027
664.0343	-0.0016
664.2193	-0.0076
664.4042	-0.0035
664.589	-0.002
664.7739	0.001
664.9587	-0.0057
665.1436	-0.0038
665.3284	0.0006
665.5132	-0.0019
665.698	0.0033
665.8827	0.0026
666.0675	-0.0021
666.2522	0.0013
666.4369	0.0013
666.6216	0.0106
666.8063	0.0058
666.9909	0.0041
667.1756	0.0025
667.3602	0.0018
667.5448	-0.002
667.7294	0.0076
667.9139	0.0042
668.0985	0.0097
668.283	0.0093
668.4675	0.0048
668.652	0.0006
668.8365	0.001
669.0209	0.0043
669.2054	0.0086
669.3898	0.0025
669.5742	0.0059
669.7586	0.0017
669.943	0.017
670.1273	0.0033
670.3117	0.0139
670.496	0.0096
670.6803	0.0166
670.8646	0.0078
671.0488	0.0015
671.2331	0.0079
671.4173	0.0059
671.6015	0.0055
671.7857	0.0049
671.9699	0.0103
672.1541	0.0026
672.3382	0.0062
672.5223	0.0142
672.7064	0.0075
672.8905	0.0132
673.0746	0.0071
673.2587	-0.0027
673.4427	0.0047
673.6267	0.005
673.8107	0.0071
673.9947	0.0161
674.1787	0.0143
674.3626	0.0022
674.5465	0.0118
674.7304	0.0011
674.9143	0.0106
675.0982	0.0131
675.2821	0.0011
675.4659	0.0119
675.6497	0.0074
675.8335	0.0045
676.0173	0.0069
676.2011	0.0056
676.3849	0.0072
676.5686	0.001
676.7523	0.0026
676.936	-0.0002
677.1197	-0.0042
677.3034	-0.0036
677.487	0.0102
677.6706	0.009
677.8542	0.004
678.0378	0.0033
678.2214	0.0058
678.405	0.0058
678.5885	-0.0045
678.772	0.0106
678.9555	0.0014
679.139	0.0013
679.3225	0.0137
679.5059	-0.0012
679.6894	0.0089
679.8728	-0.0027
680.0562	-0.0036
680.2395	-0.007
680.4229	0.0038
680.6062	0.0133
680.7896	0.0018
680.9729	-0.0017
681.1562	0.0107
681.3394	0.0068
681.5227	0.0002
681.7059	-0.0014
681.8891	-0.0044
682.0723	-0.0001
682.2555	0.0116
682.4387	-0.001
682.6218	-0.0054
682.805	0.0004
682.9881	-0.0027
683.1712	-0.0008
683.3542	0.0039
683.5373	0.0013
683.7203	0.0001
683.9034	0.0016
684.0864	-0.0058
684.2694	0.0028
684.4523	0.0089
684.6353	-0.001
684.8182	0.0033
685.0011	-0.0017
685.184	0.0139
685.3669	0.0034
685.5498	0.0008
685.7326	0.0091
685.9154	-0.0051
686.0982	0.0144
686.281	0.012
686.4638	0.0059
686.6465	0.0064
686.8293	0.002
687.012	0.0038
687.1947	-0.0052
687.3774	0.0047
687.56	-0.0022
687.7427	-0.0007
687.9253	-0.001
688.1079	0.0006
688.2905	0.0074
688.4731	-0.0006
688.6556	-0.0033
688.8382	0.0071
689.0207	0.0093
689.2032	-0.0064
689.3857	-0.002
689.5681	0.0027
689.7506	-0.0069
689.933	-0.0018
690.1154	0.0024
690.2978	-0.0002
690.4802	0.0077
690.6626	-0.0093
690.8449	0.0007
691.0272	0.0007
691.2095	-0.0059
691.3918	-0.0042
691.5741	-0.0065
691.7563	-0.0067
691.9386	0.0015
692.1208	0.0022
692.303	-0.0012
692.4852	0.0041
692.6673	0.0013
692.8495	-0.0061
693.0316	0.0042
693.2137	-0.0008
693.3958	0.0038
693.5778	0.0042
693.7599	0.0014
693.9419	-0.0033
694.1239	0.0019
694.3059	-0.0029
694.4879	0.0094
694.6699	0.0098
694.8518	0.0052
695.0337	0.0022
695.2157	0.0097
695.3975	0.0003
695.5794	0.0057
695.7613	0.0026
695.9431	0.0023
696.1249	-0.002
696.3067	0.0067
696.4885	0.0044
696.6703	-0.0027
696.852	0.0077
697.0337	0.0039
697.2154	-0.0014
697.3971	-0.0058
697.5788	0.0074
697.7605	-0.0002
697.9421	0.0053
698.1237	0.0068
698.3053	0.0066
698.4869	0.0019
698.6685	-0.0109
698.85	-0.0014
699.0315	0.0104
699.213	0.002
699.3945	0.0051
699.576	0.0123
699.7575	0.0027
699.9389	0.015
700.1203	-0.0053
700.3017	-0.0102
700.4831	-0.0119
700.6645	-0.0032
700.8458	-0.0034
701.0271	-0.0091
701.2084	-0.0047
701.3897	-0.0047
701.571	0.002
701.7523	-0.0072
701.9335	-0.0009
702.1147	-0.0077
702.2959	-0.0017
702.4771	0.0037
702.6583	0.0055
702.8394	-0.0053
703.0205	0.0041
703.2016	-0.0052
703.3827	0.0013
703.5638	0.0055
703.7449	0.0008
703.9259	0.01
704.1069	-0.0085
704.2879	-0.0011
704.4689	0.0066
704.6499	0.0006
704.8308	0.0056
705.0117	0.0004
705.1927	0.0047
705.3735	0.0058
705.5544	-0.0029
705.7353	0.0023
705.9161	-0.0014
706.0969	0.0046
706.2777	-0.0021
706.4585	-0.0016
706.6393	0.0057
706.82	0.0031
707.0007	0.0054
707.1815	-0.0006
707.3621	0.0052
707.5428	0.0039
707.7235	0.0093
707.9041	0.0036
708.0847	-0.0061
708.2653	-0.0013
708.4459	-0.0077
708.6265	0.0078
708.807	-0.0025
708.9875	0.0011
709.168	0.0012
709.3485	-0.0005
709.529	-0.0065
709.7095	-0.0098
709.8899	-0.0018
710.0703	-0.009
710.2507	0.0025
710.4311	-0.0042
710.6115	-0.0099
710.7918	-0.0058
710.9721	0.001
711.1524	-0.0063
711.3327	0.0007
711.513	0.0055
711.6932	0.0079
711.8735	0.004
712.0537	0.0072
712.2339	-0.0009
712.4141	-0.0043
712.5942	-0.0021
712.7744	-0.0053
712.9545	-0.002
713.1346	-0.0091
713.3147	-0.0012
713.4947	-0.0017
713.6748	-0.0045
713.8548	-0.0055
714.0348	-0.0005
714.2148	0.0018
714.3948	0.0112
714.5748	0.0017
714.7547	0.001
714.9346	0.0039
715.1145	-0.0002
715.2944	0.0013
715.4743	0.005
715.6541	0.0048
715.834	0.0093
716.0138	-0.0011
716.1936	-0.005
716.3733	-0.0068
716.5531	0.0087
716.7328	-0.0024
716.9126	-0.0018
717.0923	0.0028
717.2719	0.0009
717.4516	0.0037
717.6312	0.0013
717.8109	-0.0066
717.9905	0.0023
718.1701	-0.0018
718.3496	-0.0068
718.5292	0.0055
718.7087	0.0067
718.8882	0.0059
719.0677	-0.0042
719.2472	0.0082
719.4267	0.0093
719.6061	-0.0042
719.7856	0.0075
719.965	0.0083
720.1443	0.0029
720.3237	0.012
720.5031	0.0044
720.6824	0.0028
720.8617	0.0022
721.041	0.0025
721.2203	0.0043
721.3995	-0.0004
721.5788	0.0061
721.758	0.0007
721.9372	0.0004
722.1164	-0.0015
722.2956	0.0037
722.4747	0.0026
722.6538	0.0038
722.8329	0.0119
723.012	0.0018
723.1911	-0.001
723.3702	-0.0009
723.5492	0.0046
723.7282	-0.0132
723.9072	0
724.0862	-0.0052
724.2652	-0.0003
724.4441	0.0053
724.623	0.0045
724.8019	0.0006
724.9808	0.0025
725.1597	-0.0066
725.3385	0.0071
725.5174	-0.0052
725.6962	0.0048
725.875	-0.0077
726.0538	0.0044
726.2325	0.0059
726.4112	0.0041
726.59	-0.0088
726.7687	0.0008
726.9474	0.0097
727.126	-0.0024
727.3047	-0.0045
727.4833	0.0015
727.6619	-0.0134
727.8405	-0.0026
728.0191	-0.0011
728.1976	0.0057
728.3762	-0.006
728.5547	0.0062
728.7332	-0.0056
728.9116	0.002
729.0901	0.0102
729.2686	-0.0059
729.447	-0.0044
729.6254	-0.0015
729.8038	-0.0025
729.9821	-0.0149
730.1605	-0.0032
730.3388	0.0004
730.5171	-0.002
730.6954	-0.0071
730.8737	0.0046
731.0519	0.0004
731.2302	-0.0061
731.4084	0.0115
731.5866	0.0048
731.7648	-0.0032
731.9429	-0.0045
732.1211	-0.0033
732.2992	-0.0014
732.4773	0.0005
732.6554	0.0008
732.8335	0.0112
733.0115	0.0144
733.1896	0.0102
733.3676	-0.0043
733.5456	0.0066
733.7235	0.0076
733.9015	0.0017
734.0794	-0.0008
734.2574	0.0032
734.4353	0.0049
734.6131	0.0071
734.791	0.001
734.9689	-0.0007
735.1467	-0.0041
735.3245	-0.0047
735.5023	-0.0035
735.68	-0.0018
735.8578	0.002
736.0355	-0.0129
736.2132	-0.0057
736.3909	0.0057
736.5686	-0.0042
736.7463	-0.0022
736.9239	-0.0082
737.1015	-0.009
737.2791	0.0029
737.4567	-0.0015
737.6343	-0.0134
737.8118	-0.0035
737.9894	-0.0033
738.1669	-0.0082
738.3444	-0.0037
738.5218	0.0021
738.6993	-0.0047
738.8767	-0.008
739.0541	0.0107
739.2315	-0.0068
739.4089	-0.0029
739.5863	0.01
739.7636	-0.0029
739.9409	0.0045
740.1182	0.0096
740.2955	0.0083
740.4728	0.0028
740.65	0.0017
740.8272	0.005
741.0044	-0.0019
741.1816	0.0026
741.3588	-0.0032
741.5359	-0.0025
741.7131	-0.0062
741.8902	-0.0023
742.0673	-0.0012
742.2444	-0.0162
742.4214	-0.0075
742.5985	-0.0054
742.7755	-0.0045
742.9525	-0.0155
743.1295	0.0078
743.3064	0.0004
743.4834	0.0053
743.6603	-0.0015
743.8372	-0.0012
744.0141	0.0013
744.191	0.0082
744.3678	0.003
744.5446	0.0026
744.7215	0.0058
744.8982	-0.0047
745.075	-0.013
745.2518	0.0045
745.4285	0.0077
745.6052	-0.0006
745.7819	0.0037
745.9586	-0.006
746.1353	-0.0013
746.3119	0.0013
746.4885	-0.0072
746.6651	-0.0025
746.8417	0.0009
747.0183	0.0049
747.1948	0.0037
747.3714	-0.0075
747.5479	0.003
747.7244	-0.0015
747.9008	0.0053
748.0773	-0.0006
748.2537	0.0041
748.4301	-0.0084
748.6065	-0.0048
748.7829	0.004
748.9593	-0.0001
749.1356	0.004
749.3119	0.0051
749.4882	0.0015
749.6645	0.0013
749.8408	-0.0095
750.017	-0.0014
750.1933	0.0003
750.3695	-0.0058
750.5457	0.0028
750.7218	-0.0068
750.898	0.0065
751.0741	-0.0095
751.2502	-0.0024
751.4263	-0.0059
751.6024	-0.0059
751.7784	-0.0108
751.9545	-0.0134
752.1305	0.0018
752.3065	-0.0096
752.4825	-0.0047
752.6584	-0.0037
752.8344	-0.0127
753.0103	-0.0126
753.1862	-0.0177
753.3621	-0.0104
753.5379	-0.0089
753.7138	-0.0013
753.8896	0.001
754.0654	-0.0004
754.2412	0.0058
754.417	0.0033
754.5927	-0.0088
754.7685	-0.0078
754.9442	0.0014
755.1199	0.0128
755.2956	-0.0039
755.4712	0.0046
755.6469	0.0032
755.8225	-0.0111
755.9981	-0.0017
756.1736	0.0002
756.3492	-0.0034
756.5248	-0.0062
756.7003	-0.0023
756.8758	0.0021
757.0513	-0.0202
757.2267	-0.0118
757.4022	-0.0024
757.5776	-0.011
757.753	0.002
757.9284	0.0005
758.1038	0.0134
758.2791	0.0062
758.4545	-0.0105
758.6298	0.0016
758.8051	0.0062
758.9803	0.0105
759.1556	0.0028
759.3308	-0.0028
759.506	0.0078
759.6812	0.0023
759.8564	0.0054
760.0316	0.0041
760.2067	0.0073
760.3819	0.0149
760.557	0.0182
760.732	0.0074
760.9071	0.0023
761.0821	0.0055
761.2572	-0.0002
761.4322	0.0003
761.6072	-0.0017
761.7821	-0.0035
761.9571	0.003
762.132	-0.0039
762.3069	-0.0013
762.4818	0.0019
762.6567	0.0063
762.8316	0.0024
763.0064	0.0025
763.1812	0.002
763.356	-0.0187
763.5308	-0.0075
763.7055	0.0005
763.8803	-0.0009
764.055	0.0025
764.2297	-0.0072
764.4044	-0.0117
764.579	-0.0052
764.7537	-0.0108
764.9283	-0.0059
765.1029	-0.0119
765.2775	-0.0015
765.4521	-0.0159
765.6266	-0.0095
765.8011	-0.0142
765.9756	-0.0139
766.1501	0.0016
766.3246	-0.0146
766.4991	-0.0022
766.6735	-0.0026
766.8479	-0.0102
767.0223	0.0035
767.1967	0.0011
767.371	-0.002
767.5454	-0.0081
767.7197	-0.0059
767.894	-0.0125
768.0683	-0.0087
768.2425	-0.0061
768.4168	-0.0026
768.591	-0.0054
768.7652	-0.0082
768.9394	-0.0029
769.1135	-0.0047
769.2877	0.0082
769.4618	-0.0116
769.6359	-0.0022
769.81	-0.0053
769.984	-0.0117
770.1581	-0.0011
770.3321	-0.0049
770.5061	-0.0015
770.6801	0.0032
770.8541	-0.0037
771.028	-0.0028
771.202	-0.0053
771.3759	0.0001
771.5498	0.0067
771.7236	0.0035
771.8975	-0.0021
772.0713	0.0047
772.2451	0.0042
772.4189	0.0058
772.5927	0.0027
772.7665	0.0107
772.9402	-0.0055
773.1139	-0.0045
773.2876	-0.0029
773.4613	0.0097
773.635	0.0102
773.8086	-0.0019
773.9822	-0.0003
774.1558	0.0066
774.3294	-0.0081
774.503	-0.0054
774.6765	0.004
774.8501	0.0039
775.0236	-0.0034
775.1971	0.0017
775.3705	0.0042
775.544	0.0015
775.7174	-0.0108
775.8908	-0.0021
776.0642	-0.0139
776.2376	-0.008
776.4109	-0.0066
776.5843	0.0126
776.7576	0.0053
776.9309	0.0046
777.1041	0.0027
777.2774	0.0113
777.4506	0.0031
777.6238	-0.0076
777.797	-0.0048
777.9702	-0.0037
778.1434	-0.0002
778.3165	-0.0092
778.4896	-0.0014
778.6627	-0.0021
778.8358	-0.0045
779.0089	-0.0021
779.1819	-0.0026
779.3549	0.0144
779.5279	0.0162
779.7009	0.0071
779.8739	0.0129
780.0468	-0.0034
780.2197	0.0192
780.3926	-0.0063
780.5655	-0.008
780.7384	0.0078
780.9112	-0.0013
781.0841	0.0123
781.2569	0.0004
781.4297	0.004
781.6024	0.01
781.7752	0.0075
781.9479	0.012
782.1206	0.0025
782.2933	-0.0062
782.466	0.0133
782.6386	0.0077
782.8113	0.0072
782.9839	0.0062
783.1565	0.0148
783.329	0.0012
783.5016	0.0035
783.6741	0.0091
783.8466	-0.0017
784.0191	0.0058
784.1916	-0.0012
784.3641	0.0049
784.5365	0.0123
784.7089	0.0046
784.8813	-0.0024
785.0537	-0.0093
785.2261	-0.0053
785.3984	-0.0179
785.5707	-0.005
785.743	-0.0029
785.9153	-0.001
786.0876	-0.005
786.2598	-0.0207
786.432	-0.0153
786.6042	0.0063
786.7764	-0.001
786.9486	0.0031
787.1207	-0.0053
787.2928	-0.0079
787.4649	-0.0032
787.637	0.0083
787.8091	-0.0089
787.9811	-0.0116
788.1532	-0.0025
788.3252	0.0021
788.4972	-0.0153
788.6691	-0.0173
788.8411	-0.0028
789.013	-0.0152
789.1849	0.0044
789.3568	-0.0126
789.5287	0.0018
789.7005	0.0083
789.8723	0.0032
790.0442	0.0157
790.2159	0.0123
790.3877	-0.0139
790.5595	-0.0072
790.7312	-0.0043
790.9029	-0.0045
791.0746	-0.0086
791.2463	-0.0134
791.4179	-0.0248
791.5896	-0.0193
791.7612	0.0038
791.9328	-0.0025
792.1044	-0.0273
792.2759	-0.0165
792.4474	-0.0038
792.619	0.0005
792.7905	-0.0014
792.9619	0.0071
793.1334	-0.0009
793.3048	0.0014
793.4762	0.0024
793.6476	0
793.819	-0.0006
793.9904	0.007
794.1617	-0.0091
794.333	-0.0047
794.5043	-0.007
794.6756	0.0054
794.8469	-0.0068
795.0181	-0.0103
795.1893	0.0059
795.3605	0.002
795.5317	-0.0141
795.7029	-0.0128
795.874	0.0036
796.0452	-0.0216
796.2163	-0.0203
796.3873	0.0007
796.5584	-0.0061
796.7294	-0.0023
796.9005	-0.0076
797.0715	-0.0098
797.2425	-0.0138
797.4134	-0.0077
797.5844	-0.0142
797.7553	-0.0247
797.9262	-0.0203
798.0971	-0.0215
798.2679	-0.0252
798.4388	-0.0272
798.6096	-0.0047
798.7804	0.0006
798.9512	-0.0134
799.122	-0.0062
799.2927	-0.0106
799.4635	-0.0022
799.6342	-0.0316
799.8049	0.0024
799.9755	-0.0117
800.1462	-0.0019
800.3168	-0.0027
800.4874	-0.0093
800.658	0.0048
800.8286	-0.0041
800.9991	-0.0146
801.1696	-0.0058
801.3402	-0.0004
801.5106	-0.0094
801.6811	-0.0148
801.8516	0.002
802.022	0.0085
802.1924	-0.0032
802.3628	0.008
802.5332	0.0131
802.7035	-0.003
802.8739	-0.0106
803.0442	-0.0372
803.2145	-0.0065
803.3847	-0.027
803.555	-0.0128
803.7252	-0.0158
803.8954	-0.0163
804.0656	-0.0377
804.2358	-0.022
804.4059	-0.0037
804.5761	-0.0198
804.7462	-0.0136
804.9163	-0.003
805.0864	-0.0085
805.2564	-0.0213
805.4264	0.0002
805.5965	-0.0203
805.7665	-0.0083
805.9364	-0.0064
806.1064	0.0179
806.2763	-0.0103
806.4462	0.0229
806.6161	-0.0045
806.786	0.0084
806.9559	-0.004
807.1257	0.0005
807.2955	-0.0142
807.4653	-0.0134
807.6351	0.001
807.8048	-0.0081
807.9746	-0.0093
808.1443	-0.0148
808.314	-0.0028
808.4837	-0.0028
808.6533	-0.0092
808.8229	0.0079
808.9926	-0.0158
809.1622	-0.0019
809.3317	-0.0235
809.5013	-0.0149
809.6708	-0.0012
809.8403	0.008
810.0098	-0.0132
810.1793	-0.0105
810.3488	-0.003
810.5182	-0.0284
810.6876	-0.018
810.857	-0.0172
811.0264	0.0267
811.1958	0.0091
811.3651	0.0077
811.5344	-0.0078
811.7037	-0.0096
811.873	-0.0141
812.0422	-0.019
812.2115	-0.014
812.3807	-0.0366
812.5499	-0.0085
812.7191	-0.0132
812.8882	-0.0275
813.0574	-0.0093
813.2265	-0.0073
813.3956	-0.0027
813.5646	-0.0165
813.7337	-0.0179
813.9027	0.0033
814.0718	0.0268
814.2407	0.0142
814.4097	-0.005
814.5787	-0.0123
814.7476	0.0144
814.9165	-0.0118
815.0854	0.0036
815.2543	-0.0158
815.4232	-0.0151
815.592	0.0079
815.7608	0.0027
815.9296	-0.002
816.0984	-0.0081
816.2671	-0.0091
816.4359	-0.0101
816.6046	0.0028
816.7733	-0.0257
816.942	-0.0062
817.1106	0.0169
817.2793	0.0063
817.4479	-0.0033
817.6165	-0.007
817.785	-0.0103
817.9536	0.004
818.1221	-0.0271
818.2906	0.0003
818.4591	-0.0306
818.6276	-0.0185
818.7961	-0.0123
818.9645	0.0077
819.1329	-0.0063
819.3013	0.0096
819.4697	0.0223
819.638	-0.0118
819.8064	0.0041
819.9747	0.006
820.143	-0.0217
820.3113	-0.0382
820.4795	-0.0079
820.6477	-0.0139
820.816	-0.0031
820.9842	-0.0217
821.1523	-0.0258
821.3205	-0.0074
821.4886	-0.0149
821.6567	0.0007
821.8248	0.0045
821.9929	-0.0003
822.1609	-0.0022
822.329	0.0051
822.497	0.0043
822.665	-0.0027
822.833	-0.0046
823.0009	0.018
823.1688	0.0145
823.3367	0.0035
823.5046	0.02
823.6725	0.0313
823.8404	-0.0124
824.0082	0.0254
824.176	0.0084
824.3438	0.0179
824.5116	-0.0204
824.6793	0.0075
824.847	0.0152
825.0147	-0.008
825.1824	0.0046
825.3501	0.0157
825.5177	-0.0161
825.6854	-0.0177
825.853	-0.0004
826.0206	-0.0173
826.1881	-0.0102
826.3557	-0.0508
826.5232	-0.0115
826.6907	-0.0436
826.8582	-0.0045
827.0257	-0.0447
827.1931	-0.019
827.3605	-0.0058
827.528	-0.0173
827.6953	-0.0376
827.8627	-0.0128
828.03	0.0217
828.1974	0
828.3647	-0.0578
828.532	-0.0044
828.6992	-0.0202
828.8665	-0.0268
829.0337	-0.0423
829.2009	0.0117
829.3681	-0.0209
829.5352	0.0043
829.7024	-0.036
829.8695	-0.0223
830.0366	0.0578
830.2037	-0.006
830.3707	0.0228
830.5378	-0.0284
830.7048	-0.0043
830.8718	0.0066
831.0388	-0.0146
831.2057	-0.0037
831.3727	-0.0036
831.5396	-0.0112
831.7065	-0.0321
831.8734	-0.0032
832.0402	-0.0392
832.2071	-0.0278
832.3739	-0.0262
832.5407	-0.0146
832.7075	-0.0219
832.8742	-0.0475
833.041	-0.0376
833.2077	-0.0237
833.3744	-0.0173
833.541	-0.0234
833.7077	-0.0371
833.8743	-0.0285
834.0409	-0.0289
834.2075	-0.0062
834.3741	0.0081
834.5407	0.0013
834.7072	0.0169
834.8737	-0.0207
835.0402	-0.026
835.2067	-0.0104
835.3731	-0.0142
835.5395	-0.0284
835.706	-0.0177
835.8723	-0.0237
836.0387	0.0138
836.2051	-0.0129
836.3714	-0.0187
836.5377	-0.0162
836.704	-0.0035
836.8703	-0.0305
837.0365	-0.0384
837.2027	-0.0431
837.3689	0.0343
837.5351	-0.04
837.7013	-0.0631
837.8674	-0.058
838.0335	-0.0399
838.1997	-0.0476
838.3657	0.001
838.5318	-0.0336
838.6978	0.0125
838.8639	-0.0058
839.0299	-0.0042
839.1958	-0.0294
839.3618	-0.005
839.5277	-0.0192
839.6937	-0.0264
839.8596	-0.0297
840.0254	-0.004
840.1913	-0.0185
840.3571	-0.0246
840.523	-0.0344
840.6888	-0.011
840.8545	-0.0386
841.0203	-0.0095
841.186	0.0105
841.3517	-0.0044
841.5174	0.0243
841.6831	-0.0308
841.8488	0.0064
842.0144	-0.0063
842.18	-0.019
842.3456	-0.0147
842.5112	-0.0944
842.6767	-0.0247
842.8422	-0.0358
843.0077	-0.0268
843.1732	0.0036
843.3387	-0.0441
843.5042	-0.0453
843.6696	-0.0467
843.835	-0.0537
844.0004	0.022
844.1657	-0.0214
844.3311	-0.0152
844.4964	-0.0655
844.6617	-0.0362
844.827	-0.008
844.9923	-0.0371
845.1575	-0.0105
845.3227	-0.0322
845.4879	-0.0458
845.6531	-0.1218
845.8183	-0.0012
845.9834	0.0559
846.1485	0.0045
846.3136	-0.0329
846.4787	-0.1638
846.6438	0.0533
846.8088	-0.0639
846.9738	-0.0608
847.1388	-0.0922
847.3038	-0.0657
847.4687	-0.1954
847.6337	0.0186
847.7986	-0.0052
847.9635	-0.0577
848.1284	0.0728
848.2932	-0.0014
848.458	-0.0263
848.6228	-0.0307
848.7876	0.0904
848.9524	-0.0084
849.1172	-0.1368
849.2819	0.0015
849.4466	-0.0802
849.6113	-0.0861
849.7759	0.0556
849.9406	0.0194
850.1052	-0.0162
850.2698	-0.1113
850.4344	-0.0374
850.599	-0.0807
850.7635	0.0401
850.928	-0.0691
851.0925	-0.0093
851.257	0.0449
851.4215	0.0445
851.5859	-0.0254
851.7503	0.0032
851.9147	-0.0376
852.0791	-0.1108
852.2434	0.0097
852.4078	-0.0161
852.5721	-0.0031
852.7364	0.0168
852.9007	-0.2274
853.0649	0.0061
853.2291	0.0078
853.3934	-0.052
853.5575	-0.0587
853.7217	0.0171
853.8859	-0.1503
854.05	-0.0591
854.2141	0.0862
854.3782	-0.1786
854.5423	-0.0466
854.7063	0.0168
854.8703	0.0086
855.0343	-0.0388
855.1983	-0.0717
855.3623	0.0549
855.5262	0.1694
855.6901	-0.1222
855.854	0.0768
856.0179	0.0069
856.1818	0.0002
856.3456	-0.026
856.5094	-0.0373
856.6732	-0.1418
856.837	-0.1468
857.0008	-0.0297
857.1645	-0.0205
857.3282	0.1736
857.4919	-0.0783
857.6556	-0.0677
857.8192	-0.0095
857.9828	0.1057
858.1465	0.0163
858.31	-0.2074
858.4736	-0.1658
858.6372	-0.315
858.8007	-0.1619
858.9642	0.0436
859.1277	-0.1513
859.2911	0.005
859.4546	0.0485
859.618	-0.4848
859.7814	-0.0475
859.9448	0.0136
860.1081	-0.0351
860.2715	0.1208
860.4348	-0.1051
860.5981	0.1511
860.7614	0.0825
860.9246	0.0085
861.0879	-0.0825
861.2511	-0.0237
861.4143	-0.3815
861.5774	0.0989
861.7406	-0.1681
861.9037	0.0207
862.0668	-0.1358
862.2299	-0.1242
862.393	-0.5049
862.556	-0.1772
862.7191	-0.2996
862.8821	-0.2446
863.0451	-0.0513
863.208	0.0583
863.371	-0.1589
863.5339	-0.2996
863.6968	-0.1449
863.8597	0.0125
864.0225	-0.1183
864.1854	-0.1032
864.3482	0.08
864.511	0.3521
864.6737	0.1863
864.8365	0.0918
864.9992	-0.229
865.1619	-0.4096
865.3246	-0.0268
865.4873	-0.1554
865.65	-0.2138
865.8126	-0.0442
865.9752	-0.0155
866.1378	-0.2132
866.3004	1.0047
866.4629	0.0544
866.6254	-0.2009
866.7879	0.2385
866.9504	0.0283
867.1129	-0
867.2753	0.037
867.4377	0.323
867.6001	-0.307
867.7625	-0.1464
867.9249	-0.2367
868.0872	-0.0079
868.2495	-0.0816
868.4118	0.1057
868.5741	-0.5389
868.7363	-0.2348
868.8986	-0.5738
869.0608	-0.2747
869.223	0.0208
869.3851	-0
869.5473	-0
869.7094	0.1865
869.8715	-0
870.0336	-0
870.1957	-0.3922
870.3577	-0
870.5197	-0.139
870.6817	-0.4074
870.8437	-0.1406
871.0057	-0.074
871.1676	-0.3369
871.3295	-0.375
871.4914	-0
871.6533	-0.4291
871.8151	-0.6308
871.977	-0
872.1388	-0
872.3006	-0
872.4623	-0
872.6241	0.0747
872.7858	-0
872.9475	0.3422
873.1092	-0
873.2709	-0
873.4325	-0.2468
873.5941	1.0132
873.7557	-0
873.9173	-0
874.0789	-0.2961
874.2404	1.9345
874.4019	0.3264
874.5634	0.014
874.7249	0.21
874.8863	-0.1711
875.0478	0.4144
875.2092	-0
875.3706	-0.0632
875.5319	-0.6862
875.6933	-0
875.8546	-0.1958
876.0159	0.2593
876.1772	-0
876.3385	-0.5255
876.4997	-0.0567
876.6609	-0.7331
876.8221	-0
876.9833	-0
877.1445	-0
877.3056	-0.1317
877.4667	0.19
877.6278	-0
877.7889	-0.4372
877.9499	-0
878.111	-0.369
878.272	-0
878.433	-0
878.5939	0.0925
878.7549	-0.1414
878.9158	-1.1198
879.0767	0.783
879.2376	-0
879.3984	-0.1806
879.5593	-0
879.7201	-0.1146
879.8809	-0.7569
880.0417	0.0642
880.2024	-0.1174
880.3632	-0
880.5239	0.1956
880.6846	0.4889
880.8452	-2.5031
881.0059	-0.3617
881.1665	-0.144
881.3271	-0.1997
881.4877	0.0996
881.6483	-0.7199
881.8088	-0.52
881.9693	-0
882.1298	-0
882.2903	-0
