Data from MonoPyChalIsomerACN10uM420nmA_Absorbance_15-09-48-635.txt Node
Date: Fri Jul 05 15:09:48 BST 2024
User: LASERRRRR
Spectrometer: FLMT03099
Trigger mode: 0
Integration Time (sec): 1.000000E-1
Scans to average: 1
Electric dark correction enabled: true
Nonlinearity correction enabled: false
Boxcar width: 0
XAxis mode: Wavelengths
Number of Pixels in Spectrum: 3648
>>>>>Begin Spectral Data<<<<<
179.3399	-0.3481
179.5586	-0.3481
179.7771	-0.3481
179.9957	0.255
180.2143	-0
180.4329	0.5306
180.6514	-0
180.8699	-0
181.0885	-0.3148
181.307	-0.143
181.5255	-0.7646
181.744	-0
181.9625	-0
182.181	-0.0474
182.3994	0.514
182.6179	1
182.8363	0.0299
183.0547	0.4073
183.2732	0.0778
183.4916	0.1262
183.71	0.0994
183.9284	0.1008
184.1467	-0.1189
184.3651	0.0232
184.5835	0.2019
184.8018	0.016
185.0201	0.401
185.2385	0.0528
185.4568	0.262
185.6751	0.3268
185.8934	0.5716
186.1117	0.1335
186.3299	0.092
186.5482	0.2849
186.7664	-0.2087
186.9847	-0.1094
187.2029	0.1586
187.4211	0.0459
187.6393	0.2297
187.8575	-0.1243
188.0757	0.1181
188.2939	0.0241
188.512	-0.2079
188.7302	-0.0405
188.9483	0.0246
189.1665	0.134
189.3846	-0.2686
189.6027	0.2533
189.8208	0.3723
190.0389	0.042
190.257	0.1026
190.475	0.1108
190.6931	0.256
190.9111	0.807
191.1292	0.2477
191.3472	0.489
191.5652	0.4412
191.7832	0.1965
192.0012	0.918
192.2192	0.3432
192.4371	0.5661
192.6551	0.4227
192.873	0.464
193.091	0.4278
193.3089	0.5721
193.5268	0.7075
193.7447	0.5532
193.9626	0.5728
194.1805	0.5145
194.3984	1.1337
194.6162	0.4617
194.8341	0.5895
195.0519	0.8801
195.2697	0.8745
195.4875	0.565
195.7054	0.5621
195.9231	0.5729
196.1409	0.6183
196.3587	0.5422
196.5765	0.5971
196.7942	0.5966
197.012	0.542
197.2297	0.5161
197.4474	1.2204
197.6651	0.5944
197.8828	0.65
198.1005	0.7291
198.3182	0.6385
198.5358	0.8505
198.7535	0.5894
198.9711	0.597
199.1888	0.6223
199.4064	0.7927
199.624	0.6132
199.8416	0.6654
200.0592	0.5623
200.2767	0.6483
200.4943	0.7665
200.7119	0.7365
200.9294	0.6338
201.1469	0.6272
201.3645	0.6
201.582	0.537
201.7995	0.6753
202.017	0.5819
202.2344	0.5944
202.4519	0.7527
202.6694	0.7165
202.8868	0.6318
203.1042	0.6874
203.3217	0.6824
203.5391	0.6957
203.7565	0.6633
203.9739	0.6173
204.1913	0.6376
204.4086	0.6403
204.626	0.7431
204.8433	0.6358
205.0607	0.7038
205.278	0.7359
205.4953	0.6694
205.7126	0.6157
205.9299	0.8461
206.1472	0.6229
206.3644	0.6142
206.5817	0.696
206.7989	0.7745
207.0162	0.7006
207.2334	0.6353
207.4506	0.645
207.6678	0.6628
207.885	0.6886
208.1022	0.6488
208.3194	0.6875
208.5365	0.7047
208.7537	0.6931
208.9708	0.6081
209.1879	0.6759
209.405	0.6336
209.6222	0.7313
209.8392	0.6686
210.0563	0.6211
210.2734	0.6797
210.4905	0.6372
210.7075	0.6074
210.9245	0.6446
211.1416	0.7067
211.3586	0.6852
211.5756	0.5705
211.7926	0.6266
212.0096	0.6272
212.2265	0.5608
212.4435	0.5863
212.6604	0.626
212.8774	0.6098
213.0943	0.6277
213.3112	0.589
213.5281	0.5187
213.745	0.493
213.9619	0.5175
214.1788	0.4951
214.3956	0.4774
214.6125	0.4652
214.8293	0.4632
215.0461	0.4534
215.2629	0.452
215.4798	0.482
215.6965	0.4248
215.9133	0.4351
216.1301	0.4201
216.3469	0.461
216.5636	0.4488
216.7803	0.3934
216.9971	0.4087
217.2138	0.4155
217.4305	0.398
217.6472	0.3456
217.8639	0.3904
218.0805	0.3763
218.2972	0.3537
218.5138	0.341
218.7305	0.3593
218.9471	0.3355
219.1637	0.2825
219.3803	0.299
219.5969	0.3015
219.8135	0.253
220.0301	0.2811
220.2466	0.2759
220.4632	0.2387
220.6797	0.2415
220.8962	0.2595
221.1127	0.255
221.3292	0.2678
221.5457	0.2488
221.7622	0.2666
221.9787	0.2634
222.1951	0.2385
222.4116	0.2558
222.628	0.267
222.8444	0.2641
223.0608	0.2593
223.2772	0.2595
223.4936	0.2612
223.71	0.2488
223.9264	0.2869
224.1427	0.2745
224.3591	0.2656
224.5754	0.293
224.7917	0.2828
225.008	0.2696
225.2243	0.2698
225.4406	0.2796
225.6569	0.2849
225.8732	0.2677
226.0894	0.2708
226.3057	0.2938
226.5219	0.2802
226.7381	0.2731
226.9543	0.2989
227.1705	0.2903
227.3867	0.2941
227.6029	0.3168
227.8191	0.3185
228.0352	0.3052
228.2513	0.3027
228.4675	0.3211
228.6836	0.3259
228.8997	0.2921
229.1158	0.3033
229.3319	0.3196
229.548	0.3098
229.764	0.3361
229.9801	0.3526
230.1961	0.3377
230.4121	0.3315
230.6282	0.3364
230.8442	0.33
231.0602	0.3518
231.2761	0.3681
231.4921	0.3462
231.7081	0.3505
231.924	0.3418
232.14	0.3716
232.3559	0.349
232.5718	0.3732
232.7877	0.3693
233.0036	0.3415
233.2195	0.3743
233.4353	0.3687
233.6512	0.384
233.867	0.3595
234.0829	0.3648
234.2987	0.3721
234.5145	0.3767
234.7303	0.3785
234.9461	0.3991
235.1619	0.3798
235.3776	0.3991
235.5934	0.4041
235.8091	0.3654
236.0249	0.4079
236.2406	0.3982
236.4563	0.3954
236.672	0.4012
236.8877	0.4101
237.1034	0.3966
237.319	0.4029
237.5347	0.4102
237.7503	0.3977
237.966	0.4034
238.1816	0.4202
238.3972	0.4071
238.6128	0.4044
238.8284	0.4118
239.0439	0.4236
239.2595	0.4097
239.475	0.4049
239.6906	0.4303
239.9061	0.4069
240.1216	0.3974
240.3371	0.4105
240.5526	0.4046
240.7681	0.4152
240.9836	0.3968
241.199	0.3997
241.4145	0.3883
241.6299	0.3778
241.8453	0.3914
242.0607	0.376
242.2761	0.3565
242.4915	0.3867
242.7069	0.3501
242.9223	0.3662
243.1376	0.3445
243.353	0.3372
243.5683	0.3541
243.7836	0.3163
243.9989	0.3207
244.2142	0.3059
244.4295	0.3177
244.6448	0.2993
244.86	0.295
245.0753	0.287
245.2905	0.2803
245.5057	0.262
245.721	0.2756
245.9362	0.2694
246.1514	0.2699
246.3665	0.2745
246.5817	0.2461
246.7969	0.2502
247.012	0.2463
247.2271	0.2442
247.4423	0.2427
247.6574	0.2428
247.8725	0.2271
248.0876	0.2181
248.3026	0.2257
248.5177	0.2152
248.7328	0.2147
248.9478	0.1961
249.1628	0.219
249.3779	0.2183
249.5929	0.205
249.8079	0.2182
250.0228	0.2034
250.2378	0.2124
250.4528	0.2009
250.6677	0.1821
250.8827	0.2
251.0976	0.194
251.3125	0.1892
251.5274	0.1828
251.7423	0.1833
251.9572	0.1987
252.172	0.1784
252.3869	0.1843
252.6017	0.1836
252.8166	0.1911
253.0314	0.1741
253.2462	0.1892
253.461	0.1863
253.6758	0.1773
253.8906	0.1879
254.1053	0.1815
254.3201	0.1774
254.5348	0.1871
254.7496	0.1888
254.9643	0.1793
255.179	0.1841
255.3937	0.1689
255.6083	0.1675
255.823	0.1734
256.0377	0.1714
256.2523	0.1819
256.467	0.1552
256.6816	0.1751
256.8962	0.1717
257.1108	0.1683
257.3254	0.1693
257.54	0.1655
257.7545	0.1796
257.9691	0.1769
258.1836	0.1652
258.3981	0.1701
258.6127	0.1853
258.8272	0.1569
259.0417	0.1699
259.2561	0.1602
259.4706	0.1803
259.6851	0.1761
259.8995	0.1637
260.114	0.1789
260.3284	0.1731
260.5428	0.1705
260.7572	0.1805
260.9716	0.1751
261.186	0.1737
261.4003	0.1785
261.6147	0.1696
261.829	0.1654
262.0433	0.1767
262.2577	0.1803
262.472	0.168
262.6863	0.1496
262.9005	0.165
263.1148	0.1606
263.3291	0.1539
263.5433	0.1627
263.7576	0.1565
263.9718	0.1649
264.186	0.1556
264.4002	0.1593
264.6144	0.1571
264.8286	0.1789
265.0427	0.1595
265.2569	0.1742
265.471	0.1577
265.6851	0.1597
265.8993	0.1578
266.1134	0.1578
266.3275	0.1589
266.5415	0.1506
266.7556	0.1839
266.9697	0.1683
267.1837	0.1666
267.3978	0.1579
267.6118	0.1664
267.8258	0.1884
268.0398	0.1602
268.2538	0.1783
268.4677	0.1586
268.6817	0.1509
268.8957	0.162
269.1096	0.1625
269.3235	0.1696
269.5374	0.1545
269.7514	0.1601
269.9652	0.1481
270.1791	0.1475
270.393	0.1319
270.6068	0.1548
270.8207	0.1386
271.0345	0.1458
271.2483	0.1518
271.4622	0.1362
271.676	0.1479
271.8897	0.1319
272.1035	0.1504
272.3173	0.1491
272.531	0.14
272.7448	0.14
272.9585	0.1331
273.1722	0.1432
273.3859	0.1458
273.5996	0.1321
273.8133	0.1486
274.0269	0.1403
274.2406	0.1286
274.4542	0.143
274.6679	0.1215
274.8815	0.1357
275.0951	0.1373
275.3087	0.147
275.5223	0.1472
275.7358	0.1488
275.9494	0.1503
276.1629	0.1296
276.3765	0.1432
276.59	0.1407
276.8035	0.1413
277.017	0.1511
277.2305	0.129
277.444	0.1454
277.6574	0.1345
277.8709	0.1602
278.0843	0.1329
278.2978	0.1481
278.5112	0.1363
278.7246	0.1476
278.938	0.1411
279.1513	0.1372
279.3647	0.145
279.5781	0.1464
279.7914	0.1413
280.0047	0.1415
280.2181	0.1525
280.4314	0.1467
280.6447	0.1484
280.8579	0.1427
281.0712	0.1597
281.2845	0.1551
281.4977	0.152
281.711	0.1407
281.9242	0.1541
282.1374	0.1539
282.3506	0.1436
282.5638	0.1606
282.7769	0.1423
282.9901	0.1472
283.2033	0.166
283.4164	0.1571
283.6295	0.1528
283.8426	0.1434
284.0557	0.1484
284.2688	0.1577
284.4819	0.1428
284.695	0.1433
284.908	0.1551
285.1211	0.1371
285.3341	0.1654
285.5471	0.1684
285.7601	0.154
285.9731	0.1516
286.1861	0.1536
286.3991	0.1656
286.612	0.1673
286.825	0.1598
287.0379	0.1645
287.2508	0.1636
287.4637	0.177
287.6766	0.1459
287.8895	0.1703
288.1024	0.1828
288.3152	0.1749
288.5281	0.1611
288.7409	0.1666
288.9538	0.1568
289.1666	0.164
289.3794	0.1723
289.5922	0.1696
289.8049	0.1696
290.0177	0.1708
290.2304	0.1685
290.4432	0.1761
290.6559	0.1697
290.8686	0.1742
291.0813	0.1743
291.294	0.1802
291.5067	0.1805
291.7194	0.16
291.932	0.1704
292.1447	0.1712
292.3573	0.1644
292.5699	0.1724
292.7825	0.1777
292.9951	0.174
293.2077	0.1723
293.4203	0.1762
293.6328	0.166
293.8454	0.1805
294.0579	0.1771
294.2704	0.1717
294.4829	0.1621
294.6954	0.1763
294.9079	0.1768
295.1204	0.1666
295.3328	0.177
295.5453	0.1758
295.7577	0.1869
295.9701	0.1599
296.1825	0.1735
296.3949	0.1719
296.6073	0.1675
296.8197	0.1677
297.0321	0.1785
297.2444	0.1631
297.4567	0.1705
297.6691	0.1814
297.8814	0.1787
298.0937	0.1746
298.306	0.1806
298.5182	0.1806
298.7305	0.1759
298.9428	0.1712
299.155	0.1842
299.3672	0.1665
299.5794	0.1612
299.7916	0.1694
300.0038	0.1832
300.216	0.1774
300.4282	0.1815
300.6403	0.17
300.8525	0.1824
301.0646	0.1643
301.2767	0.1726
301.4888	0.1709
301.7009	0.1731
301.913	0.1706
302.125	0.1713
302.3371	0.1706
302.5491	0.1772
302.7612	0.1806
302.9732	0.1762
303.1852	0.1816
303.3972	0.1674
303.6092	0.1636
303.8211	0.1598
304.0331	0.1532
304.245	0.1645
304.457	0.1635
304.6689	0.1597
304.8808	0.1745
305.0927	0.1625
305.3046	0.1564
305.5164	0.1564
305.7283	0.1548
305.9401	0.1612
306.152	0.153
306.3638	0.1625
306.5756	0.1565
306.7874	0.1603
306.9992	0.1462
307.2109	0.1542
307.4227	0.1369
307.6344	0.1455
307.8462	0.1437
308.0579	0.1369
308.2696	0.1387
308.4813	0.1393
308.693	0.1301
308.9046	0.1395
309.1163	0.1327
309.328	0.1251
309.5396	0.123
309.7512	0.1293
309.9628	0.1295
310.1744	0.1243
310.386	0.1242
310.5976	0.1214
310.8091	0.1238
311.0207	0.1233
311.2322	0.1203
311.4437	0.1172
311.6552	0.1073
311.8667	0.105
312.0782	0.0998
312.2897	0.1048
312.5012	0.1073
312.7126	0.101
312.924	0.0956
313.1355	0.1089
313.3469	0.1071
313.5583	0.1161
313.7696	0.1068
313.981	0.1138
314.1924	0.1036
314.4037	0.1
314.6151	0.1115
314.8264	0.0831
315.0377	0.1038
315.249	0.1011
315.4603	0.115
315.6716	0.0952
315.8828	0.0909
316.0941	0.1002
316.3053	0.0941
316.5165	0.0934
316.7277	0.0855
316.9389	0.1141
317.1501	0.0968
317.3613	0.1057
317.5724	0.0791
317.7836	0.0916
317.9947	0.0988
318.2058	0.0851
318.417	0.0788
318.6281	0.0801
318.8391	0.0858
319.0502	0.0949
319.2613	0.0968
319.4723	0.1005
319.6834	0.097
319.8944	0.087
320.1054	0.1005
320.3164	0.0914
320.5274	0.0864
320.7383	0.0867
320.9493	0.0792
321.1602	0.1066
321.3712	0.0939
321.5821	0.108
321.793	0.0943
322.0039	0.091
322.2148	0.0972
322.4257	0.0957
322.6365	0.103
322.8474	0.1002
323.0582	0.0967
323.269	0.0972
323.4798	0.1055
323.6906	0.0968
323.9014	0.0968
324.1122	0.0928
324.3229	0.095
324.5337	0.0868
324.7444	0.0847
324.9551	0.1084
325.1658	0.1096
325.3765	0.0944
325.5872	0.0976
325.7979	0.0913
326.0085	0.0988
326.2192	0.0975
326.4298	0.1027
326.6404	0.086
326.851	0.0879
327.0616	0.0867
327.2722	0.0945
327.4828	0.1101
327.6933	0.0946
327.9039	0.1008
328.1144	0.107
328.3249	0.1032
328.5354	0.0977
328.7459	0.0996
328.9564	0.0892
329.1669	0.0962
329.3773	0.0969
329.5878	0.0936
329.7982	0.094
330.0086	0.0969
330.219	0.103
330.4294	0.0894
330.6398	0.0981
330.8502	0.0931
331.0605	0.1031
331.2708	0.0901
331.4812	0.1041
331.6915	0.1033
331.9018	0.1044
332.1121	0.1016
332.3224	0.0978
332.5326	0.1034
332.7429	0.0982
332.9531	0.1097
333.1633	0.1068
333.3735	0.1116
333.5837	0.101
333.7939	0.0952
334.0041	0.109
334.2143	0.1148
334.4244	0.1086
334.6346	0.086
334.8447	0.0989
335.0548	0.1037
335.2649	0.0896
335.475	0.1151
335.685	0.0996
335.8951	0.1178
336.1051	0.1103
336.3152	0.1072
336.5252	0.0981
336.7352	0.1144
336.9452	0.1077
337.1552	0.1019
337.3652	0.0945
337.5751	0.1066
337.7851	0.1135
337.995	0.087
338.2049	0.1157
338.4148	0.1024
338.6247	0.1048
338.8346	0.1081
339.0445	0.0954
339.2543	0.0966
339.4642	0.1139
339.674	0.101
339.8838	0.096
340.0936	0.1078
340.3034	0.1108
340.5132	0.1088
340.7229	0.1232
340.9327	0.114
341.1424	0.102
341.3522	0.1252
341.5619	0.1152
341.7716	0.1096
341.9813	0.1186
342.1909	0.114
342.4006	0.1243
342.6102	0.1315
342.8199	0.1191
343.0295	0.1173
343.2391	0.1249
343.4487	0.1159
343.6583	0.1164
343.8679	0.1202
344.0774	0.1254
344.287	0.12
344.4965	0.1193
344.706	0.126
344.9155	0.1082
345.125	0.1154
345.3345	0.1322
345.544	0.1129
345.7534	0.1229
345.9629	0.1197
346.1723	0.1147
346.3817	0.1251
346.5911	0.1156
346.8005	0.1256
347.0099	0.123
347.2193	0.1427
347.4286	0.1282
347.638	0.1315
347.8473	0.128
348.0566	0.1236
348.2659	0.1292
348.4752	0.1293
348.6845	0.1305
348.8937	0.1381
349.103	0.1438
349.3122	0.1275
349.5214	0.1269
349.7306	0.1331
349.9398	0.1357
350.149	0.1327
350.3582	0.131
350.5674	0.1458
350.7765	0.1393
350.9856	0.1362
351.1948	0.1426
351.4039	0.1235
351.613	0.1202
351.822	0.1339
352.0311	0.1415
352.2402	0.1439
352.4492	0.138
352.6582	0.1506
352.8672	0.1395
353.0762	0.1526
353.2852	0.1406
353.4942	0.124
353.7032	0.1464
353.9121	0.1398
354.1211	0.1608
354.33	0.1442
354.5389	0.1528
354.7478	0.1405
354.9567	0.1444
355.1655	0.1303
355.3744	0.1503
355.5833	0.1533
355.7921	0.1663
356.0009	0.158
356.2097	0.1741
356.4185	0.1689
356.6273	0.1715
356.8361	0.1602
357.0448	0.1479
357.2536	0.1541
357.4623	0.1465
357.671	0.1659
357.8797	0.1621
358.0884	0.1623
358.2971	0.1599
358.5057	0.1767
358.7144	0.1699
358.923	0.1771
359.1316	0.1572
359.3402	0.1678
359.5488	0.1736
359.7574	0.1614
359.966	0.1734
360.1746	0.182
360.3831	0.1672
360.5916	0.1614
360.8002	0.1686
361.0087	0.1835
361.2172	0.1682
361.4256	0.1736
361.6341	0.191
361.8426	0.1794
362.051	0.1848
362.2594	0.1852
362.4678	0.1877
362.6762	0.1988
362.8846	0.1965
363.093	0.1831
363.3014	0.2027
363.5097	0.1753
363.718	0.1855
363.9264	0.1925
364.1347	0.1923
364.343	0.1971
364.5513	0.2014
364.7595	0.2112
364.9678	0.2032
365.176	0.2124
365.3842	0.1845
365.5925	0.1932
365.8007	0.2008
366.0089	0.2083
366.217	0.1872
366.4252	0.2165
366.6333	0.222
366.8415	0.2127
367.0496	0.2063
367.2577	0.214
367.4658	0.2227
367.6739	0.2057
367.882	0.2226
368.09	0.2056
368.2981	0.2148
368.5061	0.2113
368.7141	0.2099
368.9221	0.2167
369.1301	0.2256
369.3381	0.2006
369.5461	0.2306
369.754	0.2254
369.962	0.2279
370.1699	0.2207
370.3778	0.22
370.5857	0.2106
370.7936	0.2313
371.0015	0.2219
371.2093	0.2432
371.4172	0.2286
371.625	0.2106
371.8328	0.2293
372.0406	0.2221
372.2484	0.2252
372.4562	0.238
372.664	0.2355
372.8717	0.242
373.0795	0.2163
373.2872	0.2342
373.4949	0.2401
373.7026	0.2275
373.9103	0.2436
374.118	0.2533
374.3256	0.2407
374.5333	0.2301
374.7409	0.2245
374.9485	0.2517
375.1561	0.2532
375.3637	0.2453
375.5713	0.2521
375.7789	0.2432
375.9864	0.2275
376.194	0.2353
376.4015	0.2624
376.609	0.2552
376.8165	0.2569
377.024	0.2448
377.2315	0.2533
377.4389	0.2515
377.6464	0.2627
377.8538	0.2514
378.0612	0.2597
378.2686	0.2646
378.476	0.2939
378.6834	0.2524
378.8908	0.2764
379.0981	0.2631
379.3055	0.2722
379.5128	0.2625
379.7201	0.2545
379.9274	0.2682
380.1347	0.2705
380.342	0.2748
380.5492	0.2583
380.7565	0.2671
380.9637	0.2691
381.1709	0.2518
381.3781	0.27
381.5853	0.2871
381.7925	0.2709
381.9997	0.2877
382.2068	0.2733
382.4139	0.2683
382.6211	0.2376
382.8282	0.2762
383.0353	0.2716
383.2424	0.2655
383.4494	0.3028
383.6565	0.2754
383.8635	0.2699
384.0706	0.2848
384.2776	0.2613
384.4846	0.2574
384.6916	0.2849
384.8986	0.2615
385.1055	0.285
385.3125	0.2896
385.5194	0.2652
385.7263	0.2822
385.9333	0.2785
386.1402	0.2865
386.347	0.2484
386.5539	0.2497
386.7608	0.2977
386.9676	0.2695
387.1744	0.2825
387.3813	0.2715
387.5881	0.2563
387.7948	0.2762
388.0016	0.2528
388.2084	0.2796
388.4151	0.2807
388.6219	0.2807
388.8286	0.2745
389.0353	0.2914
389.242	0.2724
389.4487	0.2689
389.6553	0.2599
389.862	0.2711
390.0686	0.2522
390.2753	0.2786
390.4819	0.2714
390.6885	0.2626
390.8951	0.2539
391.1016	0.2531
391.3082	0.2719
391.5147	0.245
391.7213	0.2425
391.9278	0.2514
392.1343	0.2466
392.3408	0.2519
392.5473	0.2577
392.7537	0.2553
392.9602	0.2513
393.1666	0.2659
393.373	0.2624
393.5794	0.2677
393.7858	0.2585
393.9922	0.231
394.1986	0.2547
394.4049	0.2464
394.6113	0.2379
394.8176	0.243
395.0239	0.2469
395.2302	0.2357
395.4365	0.221
395.6428	0.241
395.8491	0.2433
396.0553	0.2332
396.2615	0.2326
396.4678	0.2319
396.674	0.2282
396.8802	0.2336
397.0863	0.2504
397.2925	0.2237
397.4987	0.2242
397.7048	0.2242
397.9109	0.2219
398.117	0.2227
398.3231	0.2386
398.5292	0.2251
398.7353	0.2591
398.9413	0.2264
399.1474	0.2259
399.3534	0.2244
399.5594	0.2236
399.7654	0.2452
399.9714	0.2501
400.1774	0.2171
400.3833	0.2225
400.5893	0.2442
400.7952	0.2276
401.0011	0.2425
401.207	0.2359
401.4129	0.2467
401.6188	0.2448
401.8247	0.2242
402.0305	0.2364
402.2364	0.2259
402.4422	0.2477
402.648	0.2238
402.8538	0.2506
403.0596	0.2287
403.2654	0.2367
403.4711	0.2253
403.6768	0.2366
403.8826	0.2539
404.0883	0.2407
404.294	0.2315
404.4997	0.2298
404.7054	0.2339
404.911	0.2236
405.1167	0.2162
405.3223	0.2605
405.5279	0.2483
405.7335	0.2489
405.9391	0.2517
406.1447	0.2251
406.3502	0.2417
406.5558	0.2345
406.7613	0.2394
406.9668	0.2419
407.1724	0.2329
407.3778	0.2268
407.5833	0.2171
407.7888	0.2383
407.9942	0.2648
408.1997	0.2207
408.4051	0.2152
408.6105	0.236
408.8159	0.221
409.0213	0.2315
409.2267	0.25
409.432	0.2216
409.6374	0.225
409.8427	0.2149
410.048	0.2182
410.2533	0.2428
410.4586	0.241
410.6639	0.2113
410.8691	0.229
411.0744	0.2364
411.2796	0.2178
411.4848	0.2308
411.69	0.2258
411.8952	0.2435
412.1004	0.2189
412.3056	0.2468
412.5107	0.2268
412.7158	0.2222
412.921	0.2305
413.1261	0.2249
413.3312	0.2128
413.5362	0.224
413.7413	0.2188
413.9464	0.2322
414.1514	0.2208
414.3564	0.2271
414.5614	0.2058
414.7664	0.2254
414.9714	0.226
415.1764	0.2234
415.3813	0.2373
415.5863	0.2425
415.7912	0.2408
415.9961	0.2255
416.201	0.2264
416.4059	0.2134
416.6108	0.1947
416.8156	0.2137
417.0205	0.2361
417.2253	0.2173
417.4301	0.2298
417.6349	0.2319
417.8397	0.2251
418.0445	0.2247
418.2492	0.228
418.454	0.2108
418.6587	0.2322
418.8634	0.2243
419.0681	0.2189
419.2728	0.2145
419.4775	0.2271
419.6822	0.1997
419.8868	0.1981
420.0915	0.2089
420.2961	0.1891
420.5007	0.1873
420.7053	0.2083
420.9099	0.2107
421.1144	0.2165
421.319	0.2037
421.5235	0.2068
421.728	0.207
421.9325	0.2172
422.137	0.2165
422.3415	0.2015
422.546	0.2096
422.7504	0.1956
422.9549	0.2142
423.1593	0.1961
423.3637	0.2189
423.5681	0.2132
423.7725	0.2093
423.9769	0.1938
424.1812	0.188
424.3856	0.1872
424.5899	0.2049
424.7942	0.1915
424.9985	0.2171
425.2028	0.189
425.4071	0.2164
425.6113	0.1807
425.8156	0.1948
426.0198	0.1838
426.224	0.1805
426.4282	0.1736
426.6324	0.1805
426.8366	0.1983
427.0407	0.1849
427.2449	0.1718
427.449	0.1808
427.6531	0.158
427.8572	0.1719
428.0613	0.1755
428.2654	0.1681
428.4694	0.1733
428.6735	0.1766
428.8775	0.1898
429.0815	0.1828
429.2855	0.1583
429.4895	0.1891
429.6935	0.1756
429.8975	0.1715
430.1014	0.159
430.3053	0.153
430.5093	0.1609
430.7132	0.1469
430.9171	0.1541
431.1209	0.1614
431.3248	0.1377
431.5286	0.1646
431.7325	0.148
431.9363	0.1504
432.1401	0.1441
432.3439	0.1323
432.5477	0.1149
432.7514	0.1425
432.9552	0.1471
433.1589	0.1297
433.3627	0.1324
433.5664	0.1382
433.7701	0.1315
433.9737	0.1345
434.1774	0.1095
434.3811	0.1384
434.5847	0.1336
434.7883	0.1311
434.9919	0.1261
435.1955	0.1137
435.3991	0.1303
435.6027	0.1112
435.8062	0.1167
436.0098	0.1187
436.2133	0.1179
436.4168	0.1
436.6203	0.1009
436.8238	0.1124
437.0272	0.1151
437.2307	0.1017
437.4341	0.1067
437.6375	0.1169
437.841	0.1024
438.0443	0.0963
438.2477	0.1042
438.4511	0.0896
438.6545	0.0983
438.8578	0.1069
439.0611	0.0912
439.2644	0.097
439.4677	0.0799
439.671	0.0841
439.8743	0.0949
440.0775	0.0876
440.2808	0.0953
440.484	0.0732
440.6872	0.0548
440.8904	0.0806
441.0936	0.0969
441.2967	0.0828
441.4999	0.0952
441.703	0.0642
441.9062	0.0702
442.1093	0.0704
442.3124	0.0634
442.5155	0.0694
442.7185	0.0695
442.9216	0.042
443.1246	0.0796
443.3276	0.0776
443.5307	0.0558
443.7337	0.0578
443.9366	0.0729
444.1396	0.0568
444.3426	0.0466
444.5455	0.0472
444.7484	0.0552
444.9513	0.0512
445.1542	0.0807
445.3571	0.0573
445.56	0.0703
445.7628	0.0413
445.9657	0.0403
446.1685	0.0568
446.3713	0.0392
446.5741	0.048
446.7769	0.0409
446.9797	0.0486
447.1824	0.0477
447.3852	0.0358
447.5879	0.0549
447.7906	0.0459
447.9933	0.0458
448.196	0.0216
448.3986	0.0441
448.6013	0.0399
448.8039	0.0229
449.0066	0.029
449.2092	0.0383
449.4118	0.0395
449.6143	0.0262
449.8169	0.051
450.0195	0.0366
450.222	0.0152
450.4245	0.0394
450.627	0.0372
450.8295	0.0468
451.032	0.0146
451.2345	0.0397
451.4369	0.0291
451.6394	0.0194
451.8418	0.0167
452.0442	0.009
452.2466	0.0231
452.449	0.0186
452.6513	0.0275
452.8537	0.0077
453.056	0.0073
453.2583	0.014
453.4607	0.0289
453.663	0.0143
453.8652	0.0126
454.0675	0.0115
454.2697	0.0147
454.472	0.0157
454.6742	0.009
454.8764	0.0051
455.0786	0.0209
455.2808	0.0082
455.4829	0.0154
455.6851	0.0209
455.8872	0.0189
456.0893	0.0109
456.2915	-0.0034
456.4935	0.0229
456.6956	0.0126
456.8977	0.0098
457.0997	0.0029
457.3018	0.0051
457.5038	0.0239
457.7058	0.0151
457.9078	0.0145
458.1098	0.0153
458.3117	0.0207
458.5137	0.0046
458.7156	0.0069
458.9175	-0.0034
459.1194	0.0075
459.3213	0.0164
459.5232	0.01
459.725	-0.0019
459.9269	-0.0077
460.1287	-0.004
460.3305	0.0065
460.5323	0.0141
460.7341	0.0153
460.9359	0.0113
461.1376	0.0117
461.3394	0.0068
461.5411	0.0076
461.7428	0.0035
461.9445	0.0204
462.1462	0.023
462.3479	-0.0029
462.5495	0.0127
462.7512	0.001
462.9528	-0.0077
463.1544	-0.0099
463.356	-0.0028
463.5576	0.004
463.7592	-0.0052
463.9607	0.0073
464.1623	0.0139
464.3638	0.0009
464.5653	-0.006
464.7668	-0.0005
464.9683	-0.0027
465.1697	0.0192
465.3712	-0.0007
465.5726	0.0054
465.7741	-0.0013
465.9755	-0.0071
466.1769	0.0019
466.3782	0.0006
466.5796	-0.0057
466.7809	0.0125
466.9823	0.0001
467.1836	0.0067
467.3849	-0.0014
467.5862	-0.0004
467.7875	-0.0042
467.9887	0.0135
468.19	-0.0008
468.3912	-0.0087
468.5924	0.0027
468.7936	0.0034
468.9948	-0.0013
469.196	0.0045
469.3972	-0.021
469.5983	0.0179
469.7994	-0.0151
470.0006	-0.007
470.2017	-0.0073
470.4027	0.0048
470.6038	-0.0212
470.8049	0.0001
471.0059	-0.0134
471.2069	-0.0228
471.408	0.015
471.6089	0.0041
471.8099	-0.0046
472.0109	0.0028
472.2119	-0.0086
472.4128	-0.0128
472.6137	0.0035
472.8146	-0.0268
473.0155	-0.0084
473.2164	-0.0054
473.4173	0.0021
473.6181	0.0054
473.819	-0.0076
474.0198	-0.0097
474.2206	-0.006
474.4214	-0.006
474.6222	-0.0116
474.8229	-0.0114
475.0237	-0.02
475.2244	-0.0158
475.4251	-0.0022
475.6258	0.0006
475.8265	-0.0022
476.0272	0.0098
476.2278	0.0074
476.4285	-0.0035
476.6291	-0.016
476.8297	-0.0105
477.0303	-0.0227
477.2309	-0.0073
477.4315	-0.0083
477.632	-0.008
477.8326	-0.0129
478.0331	-0.0017
478.2336	-0.0085
478.4341	-0.0102
478.6346	-0.0092
478.8351	-0.0144
479.0355	-0.0131
479.236	-0.0015
479.4364	-0.0014
479.6368	-0.0064
479.8372	-0.0131
480.0376	-0.0093
480.2379	-0.0227
480.4383	-0.007
480.6386	-0.0064
480.8389	-0.0007
481.0392	-0.0071
481.2395	-0.0137
481.4398	0.0029
481.6401	-0.0006
481.8403	-0.0027
482.0405	-0.0147
482.2408	-0.003
482.441	0.0099
482.6411	-0.0029
482.8413	-0.0094
483.0415	-0.0146
483.2416	-0.0096
483.4417	-0.0035
483.6419	-0.0091
483.8419	-0.009
484.042	0.0035
484.2421	-0.0027
484.4422	-0.0153
484.6422	-0.0084
484.8422	-0.0019
485.0422	-0.016
485.2422	-0.0017
485.4422	-0.014
485.6422	-0.0134
485.8421	-0.0034
486.042	-0.0119
486.242	-0.0089
486.4419	-0.0085
486.6417	-0.014
486.8416	-0.004
487.0415	-0.0017
487.2413	-0.0169
487.4411	-0.0104
487.641	-0.014
487.8408	0.0036
488.0405	-0.0048
488.2403	-0.007
488.4401	-0.0003
488.6398	0.0012
488.8395	-0.0087
489.0392	-0.0026
489.2389	-0.0103
489.4386	-0.0135
489.6383	-0.0076
489.8379	-0.0084
490.0376	-0.0052
490.2372	-0.0188
490.4368	-0.0144
490.6364	-0.0074
490.836	-0.0069
491.0355	-0.0005
491.2351	-0.0154
491.4346	-0.006
491.6341	-0.0158
491.8336	0.0014
492.0331	-0.0159
492.2326	-0.0163
492.432	-0.0125
492.6315	-0.0067
492.8309	-0.0175
493.0303	-0.0206
493.2297	-0.003
493.4291	-0.0083
493.6284	-0.0186
493.8278	-0.0027
494.0271	-0.0035
494.2264	0.0033
494.4257	-0.0232
494.625	-0.0175
494.8243	-0.0339
495.0236	-0.0174
495.2228	-0.0135
495.422	-0.0118
495.6213	-0.0143
495.8205	-0.0124
496.0196	-0.0017
496.2188	-0.0054
496.418	-0.0146
496.6171	-0.0099
496.8162	-0.0198
497.0153	-0.0122
497.2144	-0.0134
497.4135	-0.015
497.6126	-0.0217
497.8116	-0.0164
498.0107	-0.0062
498.2097	-0.0142
498.4087	-0.0091
498.6077	-0.0056
498.8067	-0.0115
499.0056	-0.0086
499.2046	-0.0039
499.4035	-0.0253
499.6024	-0.0097
499.8013	0.0007
500.0002	-0.0109
500.199	-0.0073
500.3979	-0.0123
500.5967	-0.0308
500.7956	-0.0035
500.9944	-0.0054
501.1932	-0.0162
501.3919	-0.0161
501.5907	-0.0139
501.7895	-0.0077
501.9882	-0.0112
502.1869	-0.0077
502.3856	-0.0174
502.5843	-0.0128
502.783	-0.0122
502.9816	-0.0168
503.1803	-0.0263
503.3789	-0.0117
503.5775	-0.0048
503.7761	-0.0189
503.9747	-0.0146
504.1732	-0.0063
504.3718	-0.002
504.5703	-0.0156
504.7689	-0.0096
504.9674	-0.013
505.1658	-0.0184
505.3643	-0.0157
505.5628	-0.0107
505.7612	-0.013
505.9597	0.0031
506.1581	-0.0115
506.3565	-0.003
506.5549	-0.014
506.7532	-0.0221
506.9516	-0.0169
507.1499	-0.0099
507.3482	-0.0079
507.5465	-0.012
507.7448	-0.0076
507.9431	-0.0135
508.1414	-0.0028
508.3396	-0.0028
508.5379	-0.0033
508.7361	-0.0105
508.9343	-0.0148
509.1325	-0.0061
509.3306	-0.0116
509.5288	-0.0059
509.7269	-0.0181
509.9251	-0.0171
510.1232	-0.0226
510.3213	-0.0025
510.5193	-0.0017
510.7174	-0.0204
510.9154	-0.0092
511.1135	-0.0081
511.3115	-0.0149
511.5095	-0.0089
511.7075	-0.0105
511.9055	-0.004
512.1034	-0.01
512.3014	-0.0011
512.4993	-0.0109
512.6972	-0.0122
512.8951	-0.0222
513.093	-0.0123
513.2908	-0.0095
513.4887	-0.0107
513.6865	-0.0203
513.8844	-0.0221
514.0822	-0.021
514.2799	-0.0181
514.4777	-0.017
514.6755	-0.0218
514.8732	-0.0168
515.0709	-0.013
515.2687	-0.0116
515.4664	-0.0045
515.664	-0.0112
515.8617	-0.01
516.0594	-0.0176
516.257	-0.0074
516.4546	-0.0227
516.6522	-0.0075
516.8498	-0.0057
517.0474	-0.002
517.2449	-0.0054
517.4425	-0.0169
517.64	-0.0097
517.8375	0.0053
518.035	-0.0076
518.2325	-0.02
518.43	-0.0135
518.6274	-0.0111
518.8249	-0.0167
519.0223	-0.0089
519.2197	-0.0137
519.4171	-0.0103
519.6145	-0.0058
519.8118	-0.0069
520.0092	-0.0111
520.2065	-0.0148
520.4038	-0.017
520.6011	-0.0033
520.7984	-0.0135
520.9956	-0.0031
521.1929	-0.0132
521.3901	-0.0061
521.5874	-0.001
521.7846	-0.0159
521.9818	-0.0113
522.1789	-0.0085
522.3761	-0.0011
522.5732	-0.0112
522.7704	-0.0112
522.9675	-0.0138
523.1646	-0.0111
523.3617	-0.0071
523.5587	-0.013
523.7558	0.0028
523.9528	-0.0104
524.1498	-0.0044
524.3468	-0.0089
524.5438	-0.014
524.7408	-0.0115
524.9378	0.0097
525.1347	-0.0104
525.3316	-0.0033
525.5285	-0.0103
525.7254	-0.0076
525.9223	-0.0121
526.1192	-0.006
526.316	-0.0123
526.5129	-0.0042
526.7097	0.0018
526.9065	-0.0129
527.1033	-0.004
527.3	-0.0063
527.4968	-0.0027
527.6935	-0.007
527.8903	-0.0176
528.087	-0.0022
528.2837	-0.0077
528.4804	-0.012
528.677	-0.0064
528.8737	0.0046
529.0703	-0.0044
529.2669	-0.0075
529.4635	-0.0107
529.6601	-0.0053
529.8567	-0.0048
530.0532	-0.0123
530.2498	-0.0028
530.4463	-0.0058
530.6428	-0.0015
530.8393	0.0039
531.0358	-0.0014
531.2322	-0.0104
531.4287	0.001
531.6251	-0.0149
531.8215	0.0009
532.0179	-0.0006
532.2143	-0.0022
532.4107	-0.0125
532.607	-0.0118
532.8034	-0.0039
532.9997	-0.0086
533.196	0.0022
533.3923	-0.0071
533.5886	0.0035
533.7848	-0.0081
533.9811	-0.01
534.1773	0.0032
534.3735	-0.0073
534.5697	-0.002
534.7659	-0.0137
534.9621	-0.01
535.1582	-0.0143
535.3544	-0.009
535.5505	-0.0086
535.7466	-0.0115
535.9427	-0.0131
536.1387	-0.0061
536.3348	-0.0057
536.5308	-0.004
536.7269	-0.0196
536.9229	-0.0062
537.1189	-0.0025
537.3148	-0.0104
537.5108	-0.0091
537.7068	-0.0038
537.9027	0.002
538.0986	-0.0121
538.2945	-0.0058
538.4904	-0.0007
538.6863	-0.0088
538.8821	-0.0094
539.078	-0.0034
539.2738	-0.0024
539.4696	-0.0124
539.6654	0.0136
539.8611	0.014
540.0569	-0
540.2526	-0.0007
540.4484	-0.0097
540.6441	0.0044
540.8398	-0.0024
541.0355	0.0012
541.2311	-0.0099
541.4268	-0.015
541.6224	-0.0053
541.818	-0.0031
542.0136	0.0006
542.2092	0.0049
542.4048	0.0056
542.6003	0.0008
542.7959	-0.009
542.9914	-0.0025
543.1869	-0.004
543.3824	-0.0063
543.5779	-0.0053
543.7734	-0.009
543.9688	-0.0143
544.1642	-0.0026
544.3596	-0.0045
544.555	-0.0063
544.7504	-0.001
544.9458	-0.0113
545.1411	-0.004
545.3365	-0.0077
545.5318	-0.0017
545.7271	-0.0006
545.9224	-0.0025
546.1177	-0.002
546.3129	0.0017
546.5081	-0.0063
546.7034	-0.0116
546.8986	-0.0101
547.0938	-0.0022
547.289	-0.0043
547.4841	0.0026
547.6793	0.007
547.8744	-0.0085
548.0695	-0.0084
548.2646	-0.0019
548.4597	0.0021
548.6548	0.0014
548.8498	0.0028
549.0448	0.0005
549.2399	-0.0057
549.4349	0.0082
549.6298	-0.0049
549.8248	-0.0072
550.0198	-0.0111
550.2147	-0.0047
550.4096	-0.0083
550.6045	-0.0083
550.7994	0.0101
550.9943	0.0044
551.1892	0.0021
551.384	0.0035
551.5788	-0.0081
551.7737	0.0003
551.9685	-0.0036
552.1632	-0.007
552.358	-0.0062
552.5528	0.0005
552.7475	-0.0051
552.9422	-0.0072
553.1369	-0.0034
553.3316	0.0043
553.5263	-0.0032
553.7209	0.0055
553.9156	-0.001
554.1102	-0.0022
554.3048	0.0004
554.4994	0.0053
554.694	-0.0016
554.8885	0.0021
555.0831	-0.0104
555.2776	-0.0117
555.4721	-0.008
555.6666	-0.0057
555.8611	0.0039
556.0555	-0.0066
556.25	-0.0009
556.4444	-0.0102
556.6388	-0.0075
556.8332	-0
557.0276	-0.0084
557.222	-0.0089
557.4163	-0.0026
557.6107	-0.0118
557.805	0.0032
557.9993	0.0004
558.1936	-0.0026
558.3879	0.0003
558.5821	0.0062
558.7764	0.0001
558.9706	0.0005
559.1648	0.0083
559.359	-0.0053
559.5532	-0.0037
559.7473	-0.0012
559.9415	-0.0054
560.1356	-0.0071
560.3297	-0.0163
560.5238	-0.0039
560.7179	-0.0086
560.9119	-0.0024
561.106	-0
561.3	-0.0098
561.494	0.0045
561.688	-0.0079
561.882	-0.0084
562.076	-0.0076
562.2699	-0.001
562.4639	-0.0032
562.6578	-0.0024
562.8517	-0.0075
563.0456	-0.0002
563.2395	-0.0044
563.4333	-0.0025
563.6272	0.0003
563.821	0.0004
564.0148	-0.0027
564.2086	-0.0094
564.4024	-0.0069
564.5961	-0.0113
564.7899	0.007
564.9836	-0.0003
565.1773	-0.004
565.371	0.0043
565.5647	0.0063
565.7584	0.0006
565.952	-0.0033
566.1456	-0.0005
566.3393	-0.008
566.5329	-0.0072
566.7264	0.0033
566.92	-0.0079
567.1136	0.0075
567.3071	-0.0074
567.5006	0.0002
567.6941	0.007
567.8876	-0.0051
568.0811	-0.0031
568.2745	-0.0009
568.468	0.0037
568.6614	0.0032
568.8548	0.0008
569.0482	0.0014
569.2416	0.0002
569.4349	0.0023
569.6283	0.001
569.8216	0.0002
570.0149	-0.0021
570.2082	0.0093
570.4015	-0.0025
570.5947	0.003
570.788	-0.0018
570.9812	0.0039
571.1744	0.0005
571.3676	-0.0104
571.5608	-0.0008
571.754	-0.0015
571.9471	-0.0015
572.1402	-0.0088
572.3333	-0.0014
572.5264	-0.007
572.7195	-0.0044
572.9126	-0.0021
573.1057	-0.0048
573.2987	-0.0078
573.4917	-0.003
573.6847	-0.0141
573.8777	-0.0024
574.0707	0.0071
574.2636	0.0004
574.4566	-0.0066
574.6495	0.0019
574.8424	-0.0028
575.0353	-0.008
575.2281	0.0107
575.421	0.0075
575.6138	0.0028
575.8067	-0.0023
575.9995	0.005
576.1923	-0.0013
576.385	-0.0026
576.5778	-0.0029
576.7706	-0.0059
576.9633	-0.0009
577.156	-0.0041
577.3487	-0.0007
577.5414	-0.0064
577.734	-0.0046
577.9267	-0.0007
578.1193	-0.013
578.3119	-0.0079
578.5045	-0.0082
578.6971	-0.0008
578.8897	0.0048
579.0822	-0.0022
579.2747	0.0025
579.4673	-0.001
579.6598	-0.008
579.8522	-0.0094
580.0447	-0.0035
580.2372	-0.0084
580.4296	0.0034
580.622	-0.0026
580.8144	-0.0009
581.0068	-0.0067
581.1992	-0.0148
581.3915	-0.0022
581.5839	-0.007
581.7762	-0.0107
581.9685	-0.0013
582.1608	-0.0056
582.353	-0.0064
582.5453	-0.0012
582.7375	-0.0029
582.9298	0.0028
583.122	0.0019
583.3142	0.0008
583.5063	-0.0068
583.6985	0.0012
583.8906	-0.0059
584.0827	-0.0072
584.2749	0.0024
584.4669	0.0009
584.659	-0.0029
584.8511	0.0011
585.0431	-0.0104
585.2352	0.0072
585.4272	-0.0044
585.6192	0.0049
585.8111	-0.0023
586.0031	-0.0027
586.195	0.0005
586.387	0.0045
586.5789	-0.0012
586.7708	-0.0007
586.9627	-0.0005
587.1545	-0.0083
587.3464	0.0027
587.5382	-0.0008
587.73	0.0029
587.9218	0.0031
588.1136	0.0027
588.3053	-0.0021
588.4971	-0.0078
588.6888	-0.0082
588.8805	-0.0021
589.0722	0.0068
589.2639	-0.001
589.4556	-0.0039
589.6472	0.0019
589.8389	-0.0104
590.0305	-0.0141
590.2221	0.0003
590.4137	-0.0108
590.6052	0.0075
590.7968	-0.002
590.9883	-0.0047
591.1798	-0.003
591.3713	0.0021
591.5628	0.0059
591.7543	-0.0011
591.9458	0.009
592.1372	0.0058
592.3286	0.0066
592.52	0.0032
592.7114	-0.0039
592.9028	-0.0047
593.0941	-0.006
593.2855	0.0024
593.4768	-0.0065
593.6681	-0.0066
593.8594	-0.0013
594.0506	0.0041
594.2419	0.0001
594.4331	-0.0021
594.6244	0.0023
594.8156	-0.0005
595.0067	0.0037
595.1979	0.003
595.3891	-0.0042
595.5802	-0.0012
595.7713	0.002
595.9624	-0.0014
596.1535	0.002
596.3446	0.0014
596.5357	0.0043
596.7267	0.0016
596.9177	0.0028
597.1087	-0.0007
597.2997	-0.0063
597.4907	0.0015
597.6817	-0.0001
597.8726	0.0023
598.0635	-0.0003
598.2544	-0.001
598.4453	0.0015
598.6362	-0.0008
598.827	0.001
599.0179	0.0075
599.2087	0.0068
599.3995	-0.0007
599.5903	0
599.7811	0.004
599.9718	0.0027
600.1626	-0.0026
600.3533	-0.0065
600.544	0.0001
600.7347	-0.002
600.9254	-0.0001
601.116	-0
601.3067	-0.0045
601.4973	-0.0022
601.6879	0.009
601.8785	0.0034
602.0691	0.0015
602.2596	0.0078
602.4502	0.0099
602.6407	0.0018
602.8312	0.0043
603.0217	-0.0057
603.2122	0.0036
603.4027	0.0016
603.5931	-0.0042
603.7835	-0.0019
603.9739	-0.0063
604.1643	0.0046
604.3547	0.0053
604.5451	0.002
604.7354	-0.0002
604.9257	-0.0007
605.116	-0.0008
605.3063	0.0066
605.4966	-0.0018
605.6869	0.0012
605.8771	0.0028
606.0673	-0.0005
606.2575	0.0055
606.4477	0.0035
606.6379	-0.0017
606.8281	0.0012
607.0182	-0.0038
607.2083	0.0067
607.3985	-0.0008
607.5885	-0.0006
607.7786	0.0003
607.9687	-0.0013
608.1587	-0.0001
608.3488	-0.0042
608.5388	0.0004
608.7288	-0.0015
608.9187	-0.0029
609.1087	-0.0041
609.2986	-0.0041
609.4886	-0.0046
609.6785	-0.0004
609.8684	0.0047
610.0582	0.0077
610.2481	-0.0004
610.4379	0.0004
610.6278	-0.0042
610.8176	-0.0037
611.0074	-0.0095
611.1971	-0.0061
611.3869	-0.0065
611.5766	-0.0051
611.7664	0.0029
611.9561	0.0005
612.1458	0.0026
612.3354	-0.0021
612.5251	0.0007
612.7147	0.0057
612.9044	0.0103
613.094	-0.002
613.2836	0.0021
613.4731	0.0007
613.6627	-0.0057
613.8522	0.002
614.0417	0.0025
614.2313	-0.0018
614.4207	-0.0058
614.6102	-0.0068
614.7997	-0.0031
614.9891	-0.0101
615.1785	-0.0047
615.3679	-0.0016
615.5573	0.0057
615.7467	-0.0067
615.9361	-0.0033
616.1254	-0.0058
616.3147	-0.0026
616.504	-0.002
616.6933	-0.0061
616.8826	-0.0021
617.0718	0.0035
617.2611	0.0044
617.4503	-0.0036
617.6395	-0.0028
617.8287	0.0004
618.0179	-0.0028
618.207	0.0026
618.3961	-0.0014
618.5853	-0.007
618.7744	0.0044
618.9634	0.0036
619.1525	0.0062
619.3416	0.0056
619.5306	0.003
619.7196	0.0041
619.9086	0.0031
620.0976	0.0028
620.2866	0.0019
620.4755	0.0001
620.6645	-0.0004
620.8534	0.007
621.0423	0.0021
621.2312	0.0012
621.42	0.0068
621.6089	0.0027
621.7977	-0.0009
621.9865	-0.0055
622.1753	0.0033
622.3641	-0.0069
622.5529	0.0071
622.7416	0.008
622.9303	0.0014
623.1191	0.0043
623.3078	0.0005
623.4964	0.0006
623.6851	-0.0035
623.8737	-0.004
624.0624	0.0093
624.251	-0.004
624.4396	0.0019
624.6282	-0.0039
624.8167	0.0024
625.0053	0.0036
625.1938	0.0045
625.3823	0.004
625.5708	-0.0015
625.7593	-0.0033
625.9477	0.0009
626.1362	0.002
626.3246	0.0099
626.513	0.013
626.7014	0.0061
626.8898	0.0003
627.0781	0.0063
627.2665	-0.0016
627.4548	0.0033
627.6431	0.003
627.8314	0.0039
628.0197	0.0023
628.2079	0.0007
628.3962	0.0029
628.5844	0.0092
628.7726	0.006
628.9608	0.0111
629.1489	0.0077
629.3371	0.0075
629.5252	0.0073
629.7134	0.0061
629.9015	0.001
630.0895	0.0003
630.2776	0.0092
630.4657	-0.0005
630.6537	0.0027
630.8417	-0.0021
631.0297	-0.0051
631.2177	-0.0007
631.4057	-0.0069
631.5936	0.0031
631.7815	0.0033
631.9695	0.0056
632.1574	0.0043
632.3452	0.0114
632.5331	-0.0008
632.7209	-0.0048
632.9088	0.0103
633.0966	0.0097
633.2844	0.0007
633.4722	-0.001
633.6599	0.0036
633.8477	0.0032
634.0354	0.0051
634.2231	-0.0016
634.4108	0.0054
634.5985	0.0087
634.7861	-0.0005
634.9738	0.0023
635.1614	-0.0003
635.349	-0.0007
635.5366	0.001
635.7242	-0.0023
635.9117	0.0011
636.0993	0.0038
636.2868	0.0036
636.4743	-0.0061
636.6618	0.0068
636.8492	-0
637.0367	0.0004
637.2241	-0.006
637.4115	-0.0057
637.5989	0.0017
637.7863	-0.0024
637.9737	0.001
638.161	-0.0039
638.3484	0.0005
638.5357	0.0101
638.723	0.0011
638.9103	0.0067
639.0975	0.0107
639.2848	0.0022
639.472	0.0067
639.6592	0.0068
639.8464	0.009
640.0336	0.0044
640.2208	0.0014
640.4079	0.0077
640.595	-0.0001
640.7821	0.0054
640.9692	0.0026
641.1563	0.0018
641.3434	0.0105
641.5304	0.0021
641.7174	0.0055
641.9044	0.0053
642.0914	0.0075
642.2784	-0.0051
642.4653	0.0056
642.6523	0.0065
642.8392	-0.0021
643.0261	0.0098
643.213	0.005
643.3999	0.0013
643.5867	-0.0028
643.7735	0.007
643.9604	-0.0011
644.1472	-0.0017
644.3339	0.0024
644.5207	0.0042
644.7075	-0.0017
644.8942	0.0026
645.0809	0.0121
645.2676	0.0133
645.4543	0.0029
645.6409	0.001
645.8276	0.0082
646.0142	0.0073
646.2008	-0.0018
646.3874	-0.0041
646.574	0.0075
646.7605	-0.0054
646.9471	-0.0104
647.1336	0.003
647.3201	-0.0014
647.5066	-0.0001
647.6931	0.0035
647.8795	-0.0061
648.0659	0.0066
648.2524	0.0047
648.4388	-0.0022
648.6252	-0.0001
648.8115	0.0026
648.9979	0.0015
649.1842	0.0045
649.3705	0.002
649.5568	0.0058
649.7431	0.0056
649.9294	-0.003
650.1156	0.0044
650.3018	-0.0003
650.488	0.0036
650.6742	0.0011
650.8604	0.0025
651.0466	-0.0036
651.2327	0.0043
651.4188	0.0024
651.6049	0.0029
651.791	0.0082
651.9771	0.0009
652.1632	0.0054
652.3492	0.0071
652.5352	0.0029
652.7212	0.0023
652.9072	0.0085
653.0932	0.0023
653.2791	-0.0037
653.465	0.0031
653.651	-0.0011
653.8369	-0.0063
654.0227	-0.0012
654.2086	0.0005
654.3944	0.0119
654.5803	0.0046
654.7661	-0.0008
654.9519	0.0048
655.1377	-0.0003
655.3234	-0.0013
655.5092	-0.0065
655.6949	-0.0054
655.8806	-0.0042
656.0663	-0.0008
656.2519	-0.007
656.4376	-0.0049
656.6232	0.0002
656.8088	0.002
656.9945	0.0027
657.18	0.0049
657.3656	0.0085
657.5511	0.0007
657.7367	0.0004
657.9222	0.0096
658.1077	0.0099
658.2932	0.0084
658.4786	-0.0068
658.6641	-0.001
658.8495	0.0016
659.0349	0.0003
659.2203	0.0065
659.4057	0.0028
659.591	0.001
659.7764	0.0053
659.9617	0.0062
660.147	0.009
660.3323	0.0019
660.5176	0.0043
660.7028	0.0077
660.888	0.0082
661.0733	0.002
661.2585	-0.0025
661.4436	-0.0006
661.6288	0.0014
661.8139	-0.0004
661.9991	0.0078
662.1842	0.0026
662.3693	0.0046
662.5544	0.0033
662.7394	-0.0027
662.9245	0.0038
663.1095	0.0015
663.2945	-0.0005
663.4795	-0.0068
663.6644	-0.0017
663.8494	0.001
664.0343	-0.0021
664.2193	-0.0056
664.4042	0.0039
664.589	-0.0057
664.7739	-0.0086
664.9587	-0.0041
665.1436	-0.0015
665.3284	-0.0024
665.5132	-0.0055
665.698	-0.0026
665.8827	0.006
666.0675	-0.0019
666.2522	-0.0052
666.4369	0.0066
666.6216	0.0055
666.8063	0.001
666.9909	0.0056
667.1756	0.0072
667.3602	0.0006
667.5448	0.0033
667.7294	0.0092
667.9139	0.0037
668.0985	0.0094
668.283	0.0015
668.4675	-0.0011
668.652	0.0019
668.8365	0.0025
669.0209	0.0033
669.2054	0.0069
669.3898	0.0006
669.5742	0.0124
669.7586	0.0129
669.943	0.0161
670.1273	0.0069
670.3117	0.0103
670.496	0.0094
670.6803	0.0192
670.8646	0.0115
671.0488	0.006
671.2331	0.0097
671.4173	0.0052
671.6015	-0.0015
671.7857	-0.0015
671.9699	0.0059
672.1541	0.0076
672.3382	0.0058
672.5223	0.0116
672.7064	0.0073
672.8905	0.0122
673.0746	0.0062
673.2587	0.0003
673.4427	0.0042
673.6267	0.0081
673.8107	0.009
673.9947	0.003
674.1787	0.0041
674.3626	0.0006
674.5465	0.0113
674.7304	0.0072
674.9143	0.0117
675.0982	0.0111
675.2821	-0.0052
675.4659	0.0122
675.6497	0.0042
675.8335	0.0096
676.0173	0.0064
676.2011	0.0004
676.3849	0.0041
676.5686	-0.0011
676.7523	0.0068
676.936	-0.0011
677.1197	0.0019
677.3034	-0.0047
677.487	-0.0009
677.6706	0.0031
677.8542	0.0124
678.0378	0.0115
678.2214	0.0013
678.405	0.0027
678.5885	-0.0066
678.772	0.0037
678.9555	0.0035
679.139	-0.0019
679.3225	0.0057
679.5059	-0.0004
679.6894	0.0107
679.8728	0.0015
680.0562	-0.0087
680.2395	-0.0007
680.4229	0.0014
680.6062	0.0122
680.7896	0.0033
680.9729	-0.002
681.1562	0.0055
681.3394	0.0011
681.5227	-0.0066
681.7059	0.0046
681.8891	0.0045
682.0723	0.0058
682.2555	0.004
682.4387	0.0021
682.6218	-0.0038
682.805	0.004
682.9881	0.0064
683.1712	-0.0029
683.3542	-0.0005
683.5373	0.0046
683.7203	-0.0025
683.9034	0.0056
684.0864	-0.0021
684.2694	-0.0001
684.4523	0.0046
684.6353	-0.0032
684.8182	0.0075
685.0011	0.0019
685.184	0.0022
685.3669	0.0072
685.5498	0.0025
685.7326	0.0126
685.9154	0.0062
686.0982	0.0137
686.281	0.015
686.4638	0.0116
686.6465	0.001
686.8293	-0.003
687.012	0.003
687.1947	-0.0037
687.3774	0.0026
687.56	-0
687.7427	0.0052
687.9253	-0.003
688.1079	-0.0043
688.2905	0.0124
688.4731	-0.0012
688.6556	0.0014
688.8382	-0.0011
689.0207	0.0015
689.2032	0.0003
689.3857	-0.0058
689.5681	0.0014
689.7506	0.003
689.933	-0.0084
690.1154	0.0004
690.2978	-0.0008
690.4802	0.0087
690.6626	-0.0063
690.8449	-0.0024
691.0272	0.003
691.2095	-0.0049
691.3918	-0.0044
691.5741	0.0056
691.7563	-0.0059
691.9386	-0.0043
692.1208	-0.0099
692.303	0.0025
692.4852	-0.0056
692.6673	0.0039
692.8495	-0.0083
693.0316	0.0042
693.2137	0.0006
693.3958	-0.0047
693.5778	0.0054
693.7599	-0.0026
693.9419	0.003
694.1239	0.0122
694.3059	-0.0035
694.4879	0.0128
694.6699	0.0045
694.8518	0.0042
695.0337	-0.0065
695.2157	0.0088
695.3975	-0.0026
695.5794	-0.0009
695.7613	0.0007
695.9431	0.0009
696.1249	0.0062
696.3067	-0.0004
696.4885	0.0067
696.6703	-0.0085
696.852	0.0042
697.0337	0.0081
697.2154	0.0016
697.3971	0.0028
697.5788	-0.0014
697.7605	-0.0055
697.9421	0.0108
698.1237	-0.0014
698.3053	0.0052
698.4869	-0.0037
698.6685	-0.013
698.85	-0.0012
699.0315	0.0091
699.213	-0.0005
699.3945	0.0006
699.576	0.0125
699.7575	0.0043
699.9389	0.0093
700.1203	0.0004
700.3017	-0.0038
700.4831	-0.0117
700.6645	-0.0018
700.8458	0
701.0271	-0.0044
701.2084	-0.0015
701.3897	-0.0006
701.571	0.004
701.7523	-0.0088
701.9335	-0.0012
702.1147	0.001
702.2959	-0.0012
702.4771	-0.0055
702.6583	0.0007
702.8394	-0.0044
703.0205	0.0107
703.2016	-0.0065
703.3827	-0.0037
703.5638	0.0123
703.7449	-0.0007
703.9259	0.0102
704.1069	-0.0117
704.2879	-0.0015
704.4689	0.0036
704.6499	0.003
704.8308	0.0045
705.0117	0.003
705.1927	0.0086
705.3735	-0.0012
705.5544	0.0045
705.7353	0.0014
705.9161	-0.0012
706.0969	-0.0046
706.2777	0.001
706.4585	-0.0017
706.6393	0.0012
706.82	-0.0063
707.0007	0.0003
707.1815	0.001
707.3621	0.0127
707.5428	0.0013
707.7235	0.0113
707.9041	0.0086
708.0847	-0.0094
708.2653	-0.0017
708.4459	-0.0088
708.6265	0.001
708.807	-0.0051
708.9875	-0.0023
709.168	-0.0074
709.3485	-0.0078
709.529	-0.003
709.7095	-0.0161
709.8899	0.0061
710.0703	-0.0053
710.2507	0.0017
710.4311	-0.0043
710.6115	-0.0113
710.7918	-0.0081
710.9721	-0.0082
711.1524	-0.0046
711.3327	-0.0029
711.513	0.0029
711.6932	0.0031
711.8735	0.0064
712.0537	0.0015
712.2339	-0.0103
712.4141	-0.0124
712.5942	-0.0057
712.7744	-0.0057
712.9545	-0.0013
713.1346	-0.0044
713.3147	0.0079
713.4947	-0.0056
713.6748	0.0005
713.8548	0.0018
714.0348	0.0041
714.2148	0.0016
714.3948	0.0132
714.5748	-0.0009
714.7547	-0.0011
714.9346	0.0107
715.1145	-0.0004
715.2944	-0.0022
715.4743	0.0086
715.6541	0.0002
715.834	0.0052
716.0138	0.007
716.1936	-0.0112
716.3733	-0.0015
716.5531	0.0099
716.7328	-0.0013
716.9126	0.0013
717.0923	0.0088
717.2719	0.0053
717.4516	-0.0025
717.6312	0.0048
717.8109	0.004
717.9905	0
718.1701	-0.0062
718.3496	-0.0026
718.5292	0.0028
718.7087	0.0012
718.8882	0.0068
719.0677	0.008
719.2472	0.0021
719.4267	0.0042
719.6061	0.0074
719.7856	0.0118
719.965	0.0074
720.1443	-0.001
720.3237	0.0134
720.5031	0.0099
720.6824	0.0095
720.8617	-0.0003
721.041	0.0041
721.2203	0.0052
721.3995	0.002
721.5788	0.0081
721.758	0.0038
721.9372	-0.0103
722.1164	-0.0016
722.2956	0.0081
722.4747	0.0026
722.6538	0.008
722.8329	0.0128
723.012	0.0059
723.1911	-0.0055
723.3702	-0.0078
723.5492	0.001
723.7282	-0.0065
723.9072	-0.0042
724.0862	0.0008
724.2652	-0.0081
724.4441	0.0041
724.623	0.0056
724.8019	0.0021
724.9808	-0.0052
725.1597	-0.0068
725.3385	0.0029
725.5174	0.0013
725.6962	-0.003
725.875	0.0053
726.0538	0.0016
726.2325	-0.0054
726.4112	0.0143
726.59	0.0083
726.7687	-0.0006
726.9474	0.0041
727.126	0.0071
727.3047	0.0054
727.4833	0.0029
727.6619	-0.0101
727.8405	-0.0069
728.0191	-0.0021
728.1976	-0.0019
728.3762	0.0009
728.5547	-0.0041
728.7332	-0.0093
728.9116	-0.0045
729.0901	0.0023
729.2686	-0.0052
729.447	-0.0033
729.6254	-0.0005
729.8038	0.0037
729.9821	-0.0114
730.1605	0.0006
730.3388	0.0002
730.5171	0.0025
730.6954	-0.0045
730.8737	-0.0022
731.0519	0.003
731.2302	0.0008
731.4084	0.0015
731.5866	0.0043
731.7648	-0.0013
731.9429	0.0071
732.1211	-0.0023
732.2992	-0.0027
732.4773	0.0023
732.6554	0.0003
732.8335	0.0075
733.0115	0.0051
733.1896	0.0112
733.3676	-0.0153
733.5456	0.0052
733.7235	0.0063
733.9015	-0.0024
734.0794	0.001
734.2574	-0.0025
734.4353	-0.0011
734.6131	0.0029
734.791	0.0059
734.9689	0.0032
735.1467	0.003
735.3245	-0.0093
735.5023	-0.0104
735.68	-0.0071
735.8578	0.0036
736.0355	-0.0094
736.2132	-0.0021
736.3909	-0
736.5686	-0.0182
736.7463	-0.0035
736.9239	-0.0096
737.1015	-0.0052
737.2791	0.0001
737.4567	-0.0066
737.6343	-0.0119
737.8118	-0.0023
737.9894	-0.0014
738.1669	-0.0067
738.3444	-0.007
738.5218	0.005
738.6993	0.0059
738.8767	-0.0017
739.0541	0.002
739.2315	-0.0064
739.4089	0.0027
739.5863	0.0051
739.7636	-0.0006
739.9409	0.0022
740.1182	0.0082
740.2955	0.0057
740.4728	0.0015
740.65	0.0032
740.8272	-0.0005
741.0044	-0.009
741.1816	0.0054
741.3588	-0.0035
741.5359	-0.0004
741.7131	-0.0156
741.8902	0.0008
742.0673	0.003
742.2444	-0.0156
742.4214	-0.0001
742.5985	0.0024
742.7755	0.001
742.9525	-0.0218
743.1295	0.0103
743.3064	0.0033
743.4834	0.0035
743.6603	0.0056
743.8372	-0.002
744.0141	0.0065
744.191	0.0056
744.3678	0.0012
744.5446	0.0031
744.7215	0.0072
744.8982	0.0009
745.075	0.0051
745.2518	0.0045
745.4285	0.0068
745.6052	0.0028
745.7819	-0.0015
745.9586	0.0003
746.1353	0.0006
746.3119	-0.0045
746.4885	-0.0059
746.6651	-0.0038
746.8417	0.0019
747.0183	0.0031
747.1948	-0
747.3714	0.0039
747.5479	0.0063
747.7244	-0.0038
747.9008	0.0121
748.0773	0.0088
748.2537	-0.0001
748.4301	-0.0087
748.6065	-0.0017
748.7829	-0.0004
748.9593	-0.0023
749.1356	-0.0032
749.3119	0.0049
749.4882	-0.0108
749.6645	0.0101
749.8408	-0.0007
750.017	-0.0065
750.1933	-0
750.3695	-0.0023
750.5457	-0.0054
750.7218	-0.0083
750.898	-0.0036
751.0741	-0.0059
751.2502	-0.0097
751.4263	-0.0106
751.6024	-0.0028
751.7784	-0.0025
751.9545	-0.0083
752.1305	0.0004
752.3065	-0.0135
752.4825	-0.0046
752.6584	-0.0144
752.8344	-0.0025
753.0103	-0.0093
753.1862	-0.0038
753.3621	-0.0103
753.5379	-0.0082
753.7138	-0.004
753.8896	-0.0125
754.0654	0.001
754.2412	0.0017
754.417	-0.0014
754.5927	-0.0085
754.7685	-0.0087
754.9442	0.007
755.1199	0.0083
755.2956	0.006
755.4712	0.0067
755.6469	-0.0038
755.8225	-0.0036
755.9981	-0.0041
756.1736	-0.0005
756.3492	-0.0026
756.5248	-0.0041
756.7003	-0.0033
756.8758	0.0039
757.0513	-0.0065
757.2267	-0.0087
757.4022	0.0037
757.5776	-0.012
757.753	0.0088
757.9284	-0.0091
758.1038	0.003
758.2791	0.0014
758.4545	-0.0125
758.6298	0.0098
758.8051	0.0051
758.9803	0.0086
759.1556	0.0061
759.3308	0.0068
759.506	0.0064
759.6812	0.0084
759.8564	0.0146
760.0316	0.0038
760.2067	0.0093
760.3819	0.0096
760.557	0.0211
760.732	0.004
760.9071	-0.003
761.0821	0.0018
761.2572	0.0095
761.4322	-0.005
761.6072	-0.0038
761.7821	-0.003
761.9571	0.0084
762.132	-0.0035
762.3069	-0.0053
762.4818	-0.0024
762.6567	0.0057
762.8316	-0.005
763.0064	0.0027
763.1812	-0.0073
763.356	-0.0125
763.5308	-0.0039
763.7055	0.0007
763.8803	-0.0075
764.055	-0.005
764.2297	-0.0096
764.4044	-0.0004
764.579	-0.0046
764.7537	-0.0083
764.9283	-0.0027
765.1029	-0.0084
765.2775	-0.0089
765.4521	-0.0076
765.6266	-0.0149
765.8011	-0.0037
765.9756	-0.0042
766.1501	0.0012
766.3246	-0.003
766.4991	-0.0005
766.6735	-0.0026
766.8479	-0.0095
767.0223	0.0073
767.1967	0.0026
767.371	-0.0028
767.5454	-0.0076
767.7197	-0.003
767.894	-0.0127
768.0683	-0.0132
768.2425	-0.0036
768.4168	-0.0065
768.591	-0.0058
768.7652	-0.0058
768.9394	-0.002
769.1135	-0.0027
769.2877	0.0037
769.4618	-0.0108
769.6359	0.0005
769.81	-0.001
769.984	-0.0127
770.1581	-0
770.3321	0.0069
770.5061	-0.003
770.6801	0.0009
770.8541	-0
771.028	-0
771.202	-0.0131
771.3759	0.0029
771.5498	-0.0017
771.7236	0.0053
771.8975	-0.0035
772.0713	0.0085
772.2451	0.0125
772.4189	0.0095
772.5927	0.0167
772.7665	0.0094
772.9402	0.0066
773.1139	0.0096
773.2876	0.0064
773.4613	0.0077
773.635	0.0105
773.8086	-0.006
773.9822	0.0104
774.1558	0.0082
774.3294	-0.007
774.503	-0.0062
774.6765	0.0029
774.8501	0.0024
775.0236	0.006
775.1971	0.014
775.3705	-0.0119
775.544	-0.0026
775.7174	-0.0045
775.8908	0.0012
776.0642	-0.0028
776.2376	0.0007
776.4109	-0.006
776.5843	-0.0011
776.7576	-0.0026
776.9309	0.0087
777.1041	0.007
777.2774	0.014
777.4506	-0.0001
777.6238	-0.0035
777.797	0.0024
777.9702	0.0041
778.1434	0.0044
778.3165	-0.0154
778.4896	0.0007
778.6627	0.0109
778.8358	-0.0046
779.0089	0.0044
779.1819	-0.0083
779.3549	0.0141
779.5279	0.0142
779.7009	0.004
779.8739	0.0038
780.0468	0.0107
780.2197	0.0105
780.3926	-0.0028
780.5655	0.0029
780.7384	0.0037
780.9112	-0
781.0841	-0.0056
781.2569	0.0025
781.4297	0.006
781.6024	0.0018
781.7752	0.0066
781.9479	0.009
782.1206	-0.0015
782.2933	-0.0112
782.466	0.0141
782.6386	0.0031
782.8113	0.0027
782.9839	0.0094
783.1565	0.0114
783.329	0.0048
783.5016	0.0121
783.6741	0.0044
783.8466	-0.0154
784.0191	0.02
784.1916	-0.0032
784.3641	-0.0007
784.5365	0.0001
784.7089	-0.0055
784.8813	-0.0002
785.0537	0.0013
785.2261	-0.0063
785.3984	-0.0047
785.5707	-0.0091
785.743	0.0119
785.9153	-0.0027
786.0876	-0.0013
786.2598	-0.0027
786.432	-0.025
786.6042	0.0055
786.7764	-0.0073
786.9486	-0.0069
787.1207	-0.012
787.2928	-0.0041
787.4649	-0.0006
787.637	-0.0014
787.8091	-0.0117
787.9811	-0.0066
788.1532	-0.0014
788.3252	0.0059
788.4972	-0.0127
788.6691	-0.0079
788.8411	0.0004
789.013	-0.0205
789.1849	0.0039
789.3568	-0.0043
789.5287	-0.0033
789.7005	-0.007
789.8723	-0.0024
790.0442	0.0126
790.2159	0.0079
790.3877	0.0062
790.5595	-0.013
790.7312	0.0088
790.9029	0.0018
791.0746	-0.0121
791.2463	0.0083
791.4179	0.0052
791.5896	-0.0235
791.7612	-0.001
791.9328	0.0018
792.1044	-0.0106
792.2759	-0.0248
792.4474	0.0009
792.619	-0.0049
792.7905	0.0053
792.9619	-0.0015
793.1334	0.0155
793.3048	0.003
793.4762	0.0064
793.6476	0.0121
793.819	-0.0068
793.9904	0.0035
794.1617	-0.0085
794.333	0.0065
794.5043	0.0022
794.6756	-0.018
794.8469	0.0098
795.0181	-0.0057
795.1893	-0.0024
795.3605	0.0122
795.5317	-0.0046
795.7029	0.0024
795.874	-0.0006
796.0452	-0.0118
796.2163	-0.0053
796.3873	-0.0061
796.5584	0.0022
796.7294	-0.0108
796.9005	0.0043
797.0715	0.0001
797.2425	-0.0303
797.4134	-0.0042
797.5844	-0.0211
797.7553	-0.0147
797.9262	-0.0055
798.0971	-0.0171
798.2679	-0.0153
798.4388	-0.0271
798.6096	-0.0189
798.7804	-0.0055
798.9512	-0.0255
799.122	-0.0184
799.2927	-0
799.4635	-0
799.6342	-0.0273
799.8049	-0.0085
799.9755	-0.0016
800.1462	-0.01
800.3168	-0.0047
800.4874	0.004
800.658	0.022
800.8286	-0.0035
800.9991	0.0046
801.1696	0.011
801.3402	0.0146
801.5106	-0.0085
801.6811	0.0013
801.8516	0.0036
802.022	-0.0114
802.1924	-0.0021
802.3628	-0.0051
802.5332	-0.0013
802.7035	0.0127
802.8739	-0.0223
803.0442	-0.008
803.2145	-0.0027
803.3847	-0.0289
803.555	-0.0026
803.7252	-0.0198
803.8954	-0.0263
804.0656	-0.0335
804.2358	-0.024
804.4059	-0.01
804.5761	-0.0107
804.7462	0.0006
804.9163	-0.018
805.0864	-0.0205
805.2564	-0.0232
805.4264	-0.0124
805.5965	-0.0174
805.7665	-0.003
805.9364	-0.0139
806.1064	0.0181
806.2763	-0.0131
806.4462	0.0104
806.6161	0.0054
806.786	0.0037
806.9559	-0.0178
807.1257	0.0011
807.2955	-0.0052
807.4653	0.002
807.6351	-0.0138
807.8048	-0.013
807.9746	0.0156
808.1443	0.0013
808.314	-0.0091
808.4837	-0.014
808.6533	-0.0076
808.8229	-0.0036
808.9926	-0.0096
809.1622	-0.0135
809.3317	-0.036
809.5013	-0.0234
809.6708	0.0053
809.8403	0.0175
810.0098	-0.016
810.1793	-0.0071
810.3488	-0.0163
810.5182	-0.0238
810.6876	-0.0098
810.857	-0.0117
811.0264	0.0175
811.1958	0.0064
811.3651	0.0015
811.5344	-0.022
811.7037	-0.0068
811.873	-0.0089
812.0422	-0.0221
812.2115	0.0067
812.3807	-0.013
812.5499	0.0007
812.7191	0.0133
812.8882	-0.0289
813.0574	-0.0134
813.2265	-0.0142
813.3956	-0.0084
813.5646	0.0151
813.7337	-0.0227
813.9027	0.025
814.0718	0.0243
814.2407	0.0024
814.4097	0.0104
814.5787	-0.0121
814.7476	0.0008
814.9165	0.0106
815.0854	0.0186
815.2543	-0.0106
815.4232	0.0039
815.592	0.0173
815.7608	0.002
815.9296	0.0085
816.0984	0.0049
816.2671	-0.0016
816.4359	-0.0031
816.6046	-0.0035
816.7733	-0.0043
816.942	-0.0038
817.1106	-0.0007
817.2793	0.0053
817.4479	-0.0254
817.6165	0.0095
817.785	-0.0082
817.9536	-0.0139
818.1221	-0.003
818.2906	-0.0033
818.4591	-0.0174
818.6276	-0.0196
818.7961	-0.0131
818.9645	-0.0157
819.1329	-0.0024
819.3013	-0.0111
819.4697	0.0129
819.638	-0.0156
819.8064	-0.0055
819.9747	-0.0008
820.143	-0.0343
820.3113	-0.0137
820.4795	-0.0018
820.6477	-0.0008
820.816	-0.0115
820.9842	-0.0055
821.1523	-0.0343
821.3205	-0.0123
821.4886	-0.0391
821.6567	0.013
821.8248	-0.0028
821.9929	0.0182
822.1609	-0.0035
822.329	0.0042
822.497	0.0077
822.665	0.0185
822.833	-0.0442
823.0009	0.004
823.1688	-0.0001
823.3367	0.008
823.5046	-0.0012
823.6725	0.0391
823.8404	0.0035
824.0082	0.0315
824.176	0.0155
824.3438	-0.0052
824.5116	-0.0039
824.6793	0.004
824.847	-0.0246
825.0147	-0.0027
825.1824	0.027
825.3501	0.0011
825.5177	-0.0305
825.6854	-0.0082
825.853	0.0003
826.0206	-0.0237
826.1881	0.006
826.3557	-0.0182
826.5232	-0.0188
826.6907	-0.025
826.8582	-0.0028
827.0257	-0.0351
827.1931	-0.0398
827.3605	-0.0255
827.528	-0.0192
827.6953	-0.0419
827.8627	0.0013
828.03	0.0134
828.1974	-0.0357
828.3647	-0.0315
828.532	-0.0241
828.6992	-0.0246
828.8665	0.0047
829.0337	-0.017
829.2009	0.0074
829.3681	0.0139
829.5352	0.034
829.7024	-0.0297
829.8695	-0.0392
830.0366	0.0364
830.2037	0.0144
830.3707	0.0004
830.5378	-0.0355
830.7048	0.0239
830.8718	-0.0125
831.0388	-0.0181
831.2057	0.02
831.3727	0.0025
831.5396	-0.0293
831.7065	-0.0104
831.8734	0.0042
832.0402	-0.0142
832.2071	0.0078
832.3739	-0.037
832.5407	-0.0137
832.7075	-0.0452
832.8742	-0.0146
833.041	-0.0365
833.2077	-0.0074
833.3744	0.0082
833.541	-0.0202
833.7077	-0.0076
833.8743	-0.0431
834.0409	-0.0285
834.2075	-0.0325
834.3741	0.0067
834.5407	-0.0237
834.7072	-0.0046
834.8737	-0.0466
835.0402	0.0052
835.2067	0.0055
835.3731	0.0349
835.5395	0.0122
835.706	-0.0148
835.8723	0.0326
836.0387	0.0053
836.2051	-0.0251
836.3714	0.0208
836.5377	0.011
836.704	-0.0397
836.8703	0.006
837.0365	-0.0074
837.2027	-0.0385
837.3689	0.006
837.5351	-0.0127
837.7013	-0.0152
837.8674	-0.0298
838.0335	-0.0363
838.1997	-0.0537
838.3657	-0.064
838.5318	-0.0619
838.6978	0.0189
838.8639	0.0013
839.0299	-0.0357
839.1958	-0.0223
839.3618	-0.0268
839.5277	-0.0464
839.6937	-0.0092
839.8596	-0.0417
840.0254	-0.0019
840.1913	-0.0132
840.3571	-0.0063
840.523	-0.0216
840.6888	-0.031
840.8545	-0.0291
841.0203	-0.0174
841.186	-0.0028
841.3517	0.0342
841.5174	0.0185
841.6831	-0.0267
841.8488	-0.0178
842.0144	-0.0259
842.18	0.0263
842.3456	0.0035
842.5112	-0.0239
842.6767	-0.0657
842.8422	0.0073
843.0077	-0.0377
843.1732	-0.0072
843.3387	-0.0093
843.5042	-0.0488
843.6696	0.0058
843.835	-0.012
844.0004	0.0436
844.1657	-0.0042
844.3311	-0.0696
844.4964	-0.0857
844.6617	0.002
844.827	-0.0433
844.9923	0.0184
845.1575	0.0033
845.3227	0.0259
845.4879	-0.0254
845.6531	-0.0387
845.8183	-0.064
845.9834	-0.0693
846.1485	-0.0205
846.3136	0.0061
846.4787	-0.0836
846.6438	0.0694
846.8088	-0.0776
846.9738	-0.1066
847.1388	0.0568
847.3038	-0.0079
847.4687	-0.1815
847.6337	0.0447
847.7986	0.0037
847.9635	0.0011
848.1284	0.0038
848.2932	0.0417
848.458	-0.0738
848.6228	0.0403
848.7876	0.1021
848.9524	-0.0889
849.1172	-0.1461
849.2819	-0.0208
849.4466	-0.0665
849.6113	-0.0196
849.7759	-0.0405
849.9406	-0.0413
850.1052	0.0469
850.2698	-0.0244
850.4344	-0.0024
850.599	-0.0812
850.7635	0.0837
850.928	-0.075
851.0925	-0.0043
851.257	-0.0489
851.4215	-0.0093
851.5859	-0.054
851.7503	0.0657
851.9147	0.0464
852.0791	-0.0006
852.2434	-0.0522
852.4078	0.0813
852.5721	0.0545
852.7364	-0.0223
852.9007	-0.2369
853.0649	-0.0102
853.2291	-0.0295
853.3934	0.0231
853.5575	0.1376
853.7217	-0.0623
853.8859	-0.0325
854.05	-0.124
854.2141	-0.0134
854.3782	-0.0853
854.5423	-0.0722
854.7063	0.037
854.8703	0.0191
855.0343	0.0024
855.1983	-0.1128
855.3623	0.0763
855.5262	0.0548
855.6901	0.0244
855.854	-0.0226
856.0179	0.1153
856.1818	0.2421
856.3456	-0.0008
856.5094	-0.095
856.6732	-0.1707
856.837	-0.0458
857.0008	0.0284
857.1645	-0.03
857.3282	0.0211
857.4919	-0.0315
857.6556	-0.0051
857.8192	-0.0868
857.9828	-0.0146
858.1465	0.0149
858.31	-0.1071
858.4736	-0.1985
858.6372	-0.1795
858.8007	-0.1307
858.9642	0.0786
859.1277	-0.0351
859.2911	-0.0103
859.4546	0.0167
859.618	-0.4858
859.7814	-0.0574
859.9448	0.0121
860.1081	-0.1164
860.2715	0.2721
860.4348	-0
860.5981	-0.1735
860.7614	0.1873
860.9246	0.0058
861.0879	-0.4175
861.2511	0.0344
861.4143	-0.3873
861.5774	-0.0113
861.7406	-0.2795
861.9037	0.0406
862.0668	-0.0083
862.2299	-0.0744
862.393	-0.4703
862.556	-0.0207
862.7191	-0.265
862.8821	-0.1579
863.0451	-0.0901
863.208	-0.0052
863.371	-0.0516
863.5339	-0.2205
863.6968	0.1641
863.8597	1.0481
864.0225	-0.1243
864.1854	-0.3191
864.3482	0.0215
864.511	-0.0011
864.6737	0.3235
864.8365	0.4141
864.9992	-0.1704
865.1619	-0.2189
865.3246	0.8344
865.4873	-0.0251
865.65	-0.2528
865.8126	0.0306
865.9752	0.1301
866.1378	-0.2439
866.3004	0.76
866.4629	0.0994
866.6254	-0.1201
866.7879	-0.3062
866.9504	-0.0961
867.1129	-0
867.2753	0.8197
867.4377	0.2856
867.6001	-0.3613
867.7625	0.0578
867.9249	0.3784
868.0872	0.0337
868.2495	-0.0075
868.4118	-0.1348
868.5741	-0.3025
868.7363	-0.229
868.8986	-0.1943
869.0608	-0.1688
869.223	0.1889
869.3851	-0
869.5473	-0
869.7094	0.2594
869.8715	-0.3979
870.0336	-0
870.1957	-0.65
870.3577	-1.0709
870.5197	0.1274
870.6817	-0.3938
870.8437	0.0475
871.0057	-0
871.1676	-0
871.3295	-0.5146
871.4914	-0.4796
871.6533	-0.5527
871.8151	-0.1609
871.977	-0
872.1388	-0
872.3006	0.9088
872.4623	0.6453
872.6241	0.1982
872.7858	0.4499
872.9475	0.787
873.1092	-0.242
873.2709	-0
873.4325	-0.0495
873.5941	-0.476
873.7557	-0
873.9173	-0
874.0789	-0
874.2404	-0
874.4019	0.104
874.5634	0.1117
874.7249	0.0461
874.8863	-0.101
875.0478	-0.1266
875.2092	-0
875.3706	0.0176
875.5319	-0.5021
875.6933	0.4787
875.8546	-0.087
876.0159	-0
876.1772	1.2603
876.3385	-0
876.4997	0.7947
876.6609	-0.4468
876.8221	-0
876.9833	0.4905
877.1445	-0
877.3056	0.1532
877.4667	-0.0535
877.6278	-0
877.7889	-0.8117
877.9499	-0
878.111	-0.3808
878.272	-0
878.433	-0
878.5939	-0.0622
878.7549	-0.0892
878.9158	-0.0205
879.0767	0.0667
879.2376	-0
879.3984	-0.4483
879.5593	-0.3559
879.7201	0.0475
879.8809	-0.9192
880.0417	-0
880.2024	-0.0604
880.3632	-0
880.5239	0.5989
880.6846	-0.0621
880.8452	-1.752
881.0059	-0.8976
881.1665	0.1817
881.3271	0.2792
881.4877	0.4736
881.6483	-0.5565
881.8088	-0.2589
881.9693	-0.0568
882.1298	-0.0568
882.2903	-0.0568
