Data from MonoPyChalIsomerACN10uM420nmA_Absorbance_15-09-54-635.txt Node
Date: Fri Jul 05 15:09:54 BST 2024
User: LASERRRRR
Spectrometer: FLMT03099
Trigger mode: 0
Integration Time (sec): 1.000000E-1
Scans to average: 1
Electric dark correction enabled: true
Nonlinearity correction enabled: false
Boxcar width: 0
XAxis mode: Wavelengths
Number of Pixels in Spectrum: 3648
>>>>>Begin Spectral Data<<<<<
179.3399	-0.5356
179.5586	-0.5356
179.7771	-0.5356
179.9957	-0
180.2143	-0
180.4329	-0.301
180.6514	0.2957
180.8699	-0.0476
181.0885	-0.1753
181.307	0.1277
181.5255	-0
181.744	-0
181.9625	-0
182.181	-0
182.3994	0.64
182.6179	-0
182.8363	0.0021
183.0547	-0.2621
183.2732	-0.0427
183.4916	-0.0265
183.71	0.1465
183.9284	0.2423
184.1467	0.0045
184.3651	0.039
184.5835	-0.0008
184.8018	-0.0391
185.0201	0.275
185.2385	0.077
185.4568	0.2216
185.6751	0.3403
185.8934	0.0896
186.1117	-0.008
186.3299	-0.0488
186.5482	-0.0432
186.7664	0.1316
186.9847	0.079
187.2029	0.1832
187.4211	0.1402
187.6393	0.1639
187.8575	0.3824
188.0757	0.2663
188.2939	0.0446
188.512	0.2241
188.7302	-0.0558
188.9483	0.1232
189.1665	0.3444
189.3846	0.0376
189.6027	0.1548
189.8208	0.2321
190.0389	0.1193
190.257	0.26
190.475	0.306
190.6931	0.3769
190.9111	0.7729
191.1292	0.2385
191.3472	0.7161
191.5652	0.4574
191.7832	0.2692
192.0012	0.6215
192.2192	0.4002
192.4371	0.9077
192.6551	0.4342
192.873	0.3617
193.091	0.3716
193.3089	0.4861
193.5268	0.4215
193.7447	0.6423
193.9626	0.4016
194.1805	0.5919
194.3984	0.7197
194.6162	0.6084
194.8341	0.5369
195.0519	0.5255
195.2697	0.6433
195.4875	0.8041
195.7054	0.5435
195.9231	0.5848
196.1409	0.642
196.3587	0.525
196.5765	0.6931
196.7942	0.6798
197.012	0.5651
197.2297	0.684
197.4474	0.8378
197.6651	0.557
197.8828	0.5214
198.1005	0.6111
198.3182	0.5042
198.5358	0.9256
198.7535	0.6309
198.9711	0.6054
199.1888	0.7091
199.4064	0.9297
199.624	0.6978
199.8416	0.6526
200.0592	0.6533
200.2767	0.7139
200.4943	0.7171
200.7119	0.8342
200.9294	0.6098
201.1469	0.597
201.3645	0.5669
201.582	0.6449
201.7995	0.6819
202.017	0.6587
202.2344	0.6499
202.4519	0.5847
202.6694	0.6566
202.8868	0.6656
203.1042	0.7716
203.3217	0.7698
203.5391	0.5238
203.7565	0.6729
203.9739	0.6786
204.1913	0.6077
204.4086	0.611
204.626	0.6205
204.8433	0.6501
205.0607	0.6116
205.278	0.6762
205.4953	0.6564
205.7126	0.6915
205.9299	0.7433
206.1472	0.7585
206.3644	0.5951
206.5817	0.6264
206.7989	0.6928
207.0162	0.7027
207.2334	0.6572
207.4506	0.6765
207.6678	0.6576
207.885	0.709
208.1022	0.6732
208.3194	0.7106
208.5365	0.6719
208.7537	0.6984
208.9708	0.6082
209.1879	0.6368
209.405	0.759
209.6222	0.6896
209.8392	0.6328
210.0563	0.6633
210.2734	0.6814
210.4905	0.6824
210.7075	0.6517
210.9245	0.5922
211.1416	0.724
211.3586	0.6471
211.5756	0.6319
211.7926	0.5764
212.0096	0.6002
212.2265	0.5993
212.4435	0.535
212.6604	0.6049
212.8774	0.5937
213.0943	0.5941
213.3112	0.5468
213.5281	0.5234
213.745	0.5457
213.9619	0.5367
214.1788	0.4951
214.3956	0.4678
214.6125	0.5226
214.8293	0.4528
215.0461	0.4867
215.2629	0.4556
215.4798	0.4769
215.6965	0.4616
215.9133	0.4587
216.1301	0.4615
216.3469	0.4764
216.5636	0.4424
216.7803	0.4221
216.9971	0.4223
217.2138	0.3798
217.4305	0.3957
217.6472	0.3626
217.8639	0.3796
218.0805	0.3654
218.2972	0.3274
218.5138	0.3096
218.7305	0.3555
218.9471	0.3286
219.1637	0.3009
219.3803	0.2986
219.5969	0.3048
219.8135	0.2571
220.0301	0.265
220.2466	0.2733
220.4632	0.2478
220.6797	0.2475
220.8962	0.2332
221.1127	0.2378
221.3292	0.2642
221.5457	0.2468
221.7622	0.2221
221.9787	0.2491
222.1951	0.2536
222.4116	0.2628
222.628	0.2626
222.8444	0.252
223.0608	0.2516
223.2772	0.2758
223.4936	0.2557
223.71	0.2625
223.9264	0.2693
224.1427	0.2717
224.3591	0.2402
224.5754	0.2785
224.7917	0.2819
225.008	0.2651
225.2243	0.2672
225.4406	0.2961
225.6569	0.2621
225.8732	0.2503
226.0894	0.27
226.3057	0.2706
226.5219	0.2976
226.7381	0.2641
226.9543	0.2897
227.1705	0.2886
227.3867	0.2723
227.6029	0.2912
227.8191	0.2814
228.0352	0.3106
228.2513	0.3197
228.4675	0.3278
228.6836	0.3176
228.8997	0.2984
229.1158	0.3058
229.3319	0.3105
229.548	0.317
229.764	0.3402
229.9801	0.3312
230.1961	0.3291
230.4121	0.3335
230.6282	0.3375
230.8442	0.3169
231.0602	0.351
231.2761	0.3457
231.4921	0.3342
231.7081	0.3536
231.924	0.3476
232.14	0.371
232.3559	0.3286
232.5718	0.3493
232.7877	0.3339
233.0036	0.3588
233.2195	0.3588
233.4353	0.3587
233.6512	0.3585
233.867	0.3787
234.0829	0.3711
234.2987	0.347
234.5145	0.3837
234.7303	0.3805
234.9461	0.3842
235.1619	0.3884
235.3776	0.3678
235.5934	0.3914
235.8091	0.374
236.0249	0.3876
236.2406	0.3658
236.4563	0.3771
236.672	0.4015
236.8877	0.3866
237.1034	0.3808
237.319	0.4151
237.5347	0.411
237.7503	0.3967
237.966	0.3948
238.1816	0.4036
238.3972	0.399
238.6128	0.3757
238.8284	0.4181
239.0439	0.4102
239.2595	0.4094
239.475	0.4103
239.6906	0.4139
239.9061	0.4059
240.1216	0.4145
240.3371	0.4137
240.5526	0.3996
240.7681	0.3966
240.9836	0.411
241.199	0.3982
241.4145	0.4064
241.6299	0.3897
241.8453	0.3678
242.0607	0.3903
242.2761	0.3655
242.4915	0.3817
242.7069	0.3957
242.9223	0.3833
243.1376	0.3576
243.353	0.365
243.5683	0.3805
243.7836	0.3434
243.9989	0.3586
244.2142	0.3301
244.4295	0.3372
244.6448	0.3351
244.86	0.3157
245.0753	0.3221
245.2905	0.3047
245.5057	0.2956
245.721	0.2988
245.9362	0.2791
246.1514	0.3042
246.3665	0.2878
246.5817	0.2767
246.7969	0.2664
247.012	0.2562
247.2271	0.2654
247.4423	0.2673
247.6574	0.2545
247.8725	0.2483
248.0876	0.24
248.3026	0.2428
248.5177	0.2292
248.7328	0.2302
248.9478	0.2286
249.1628	0.2372
249.3779	0.2375
249.5929	0.2311
249.8079	0.2407
250.0228	0.2141
250.2378	0.2046
250.4528	0.2163
250.6677	0.1988
250.8827	0.2049
251.0976	0.2058
251.3125	0.2093
251.5274	0.1918
251.7423	0.1932
251.9572	0.1893
252.172	0.1868
252.3869	0.1921
252.6017	0.1923
252.8166	0.1821
253.0314	0.1705
253.2462	0.1837
253.461	0.1913
253.6758	0.1839
253.8906	0.1893
254.1053	0.1801
254.3201	0.1777
254.5348	0.1852
254.7496	0.182
254.9643	0.1751
255.179	0.1875
255.3937	0.1767
255.6083	0.183
255.823	0.1676
256.0377	0.1633
256.2523	0.1744
256.467	0.16
256.6816	0.1819
256.8962	0.1826
257.1108	0.1748
257.3254	0.1828
257.54	0.1685
257.7545	0.1722
257.9691	0.1831
258.1836	0.1704
258.3981	0.1891
258.6127	0.1867
258.8272	0.1625
259.0417	0.1751
259.2561	0.1664
259.4706	0.1768
259.6851	0.1594
259.8995	0.1723
260.114	0.1707
260.3284	0.1758
260.5428	0.1667
260.7572	0.1605
260.9716	0.1717
261.186	0.1531
261.4003	0.1712
261.6147	0.1748
261.829	0.1695
262.0433	0.1779
262.2577	0.1623
262.472	0.1738
262.6863	0.1636
262.9005	0.1658
263.1148	0.172
263.3291	0.1616
263.5433	0.1657
263.7576	0.1696
263.9718	0.1744
264.186	0.1732
264.4002	0.1738
264.6144	0.1675
264.8286	0.1829
265.0427	0.1771
265.2569	0.1751
265.471	0.1593
265.6851	0.1575
265.8993	0.1789
266.1134	0.1737
266.3275	0.1721
266.5415	0.166
266.7556	0.1934
266.9697	0.1626
267.1837	0.1687
267.3978	0.1804
267.6118	0.172
267.8258	0.1814
268.0398	0.1721
268.2538	0.1791
268.4677	0.1718
268.6817	0.1669
268.8957	0.1825
269.1096	0.1779
269.3235	0.1767
269.5374	0.1764
269.7514	0.1629
269.9652	0.1678
270.1791	0.1666
270.393	0.167
270.6068	0.1735
270.8207	0.1732
271.0345	0.1531
271.2483	0.1641
271.4622	0.165
271.676	0.1727
271.8897	0.1717
272.1035	0.1615
272.3173	0.1598
272.531	0.1619
272.7448	0.1648
272.9585	0.1633
273.1722	0.1533
273.3859	0.1682
273.5996	0.1593
273.8133	0.1656
274.0269	0.1576
274.2406	0.1692
274.4542	0.1758
274.6679	0.1519
274.8815	0.165
275.0951	0.1655
275.3087	0.1738
275.5223	0.1712
275.7358	0.1782
275.9494	0.1635
276.1629	0.1602
276.3765	0.1701
276.59	0.1645
276.8035	0.1618
277.017	0.1649
277.2305	0.1554
277.444	0.182
277.6574	0.1478
277.8709	0.1599
278.0843	0.1534
278.2978	0.1528
278.5112	0.1583
278.7246	0.1632
278.938	0.1707
279.1513	0.1615
279.3647	0.1681
279.5781	0.1607
279.7914	0.1745
280.0047	0.1678
280.2181	0.178
280.4314	0.1774
280.6447	0.1704
280.8579	0.1785
281.0712	0.1764
281.2845	0.1744
281.4977	0.1761
281.711	0.1667
281.9242	0.1732
282.1374	0.1653
282.3506	0.1625
282.5638	0.1694
282.7769	0.1698
282.9901	0.1762
283.2033	0.1862
283.4164	0.1795
283.6295	0.1653
283.8426	0.1717
284.0557	0.164
284.2688	0.1807
284.4819	0.1711
284.695	0.1673
284.908	0.1632
285.1211	0.1632
285.3341	0.1715
285.5471	0.1778
285.7601	0.1555
285.9731	0.162
286.1861	0.1668
286.3991	0.1733
286.612	0.1652
286.825	0.1657
287.0379	0.1625
287.2508	0.1646
287.4637	0.1621
287.6766	0.1628
287.8895	0.1701
288.1024	0.1787
288.3152	0.1791
288.5281	0.1639
288.7409	0.1593
288.9538	0.1627
289.1666	0.159
289.3794	0.1739
289.5922	0.1476
289.8049	0.1589
290.0177	0.1596
290.2304	0.1606
290.4432	0.1612
290.6559	0.1659
290.8686	0.168
291.0813	0.1583
291.294	0.1641
291.5067	0.1657
291.7194	0.1525
291.932	0.1722
292.1447	0.1586
292.3573	0.1563
292.5699	0.1504
292.7825	0.1532
292.9951	0.1535
293.2077	0.1581
293.4203	0.1663
293.6328	0.1479
293.8454	0.1564
294.0579	0.1578
294.2704	0.1594
294.4829	0.1406
294.6954	0.1614
294.9079	0.1499
295.1204	0.1606
295.3328	0.1548
295.5453	0.1568
295.7577	0.1547
295.9701	0.1421
296.1825	0.1502
296.3949	0.1535
296.6073	0.1535
296.8197	0.1422
297.0321	0.159
297.2444	0.145
297.4567	0.1507
297.6691	0.1501
297.8814	0.1326
298.0937	0.1521
298.306	0.1586
298.5182	0.1469
298.7305	0.162
298.9428	0.1379
299.155	0.1554
299.3672	0.149
299.5794	0.1541
299.7916	0.154
300.0038	0.1625
300.216	0.1517
300.4282	0.1521
300.6403	0.1495
300.8525	0.1559
301.0646	0.1393
301.2767	0.1487
301.4888	0.1455
301.7009	0.1585
301.913	0.1435
302.125	0.1555
302.3371	0.1447
302.5491	0.1522
302.7612	0.1589
302.9732	0.1561
303.1852	0.1549
303.3972	0.1524
303.6092	0.1469
303.8211	0.1507
304.0331	0.1468
304.245	0.1389
304.457	0.1452
304.6689	0.1399
304.8808	0.1589
305.0927	0.1372
305.3046	0.1363
305.5164	0.1458
305.7283	0.1293
305.9401	0.1505
306.152	0.1282
306.3638	0.1527
306.5756	0.1311
306.7874	0.1481
306.9992	0.1448
307.2109	0.1334
307.4227	0.133
307.6344	0.1355
307.8462	0.1247
308.0579	0.1355
308.2696	0.1312
308.4813	0.127
308.693	0.1367
308.9046	0.1397
309.1163	0.1263
309.328	0.1271
309.5396	0.1218
309.7512	0.1297
309.9628	0.1291
310.1744	0.1176
310.386	0.1236
310.5976	0.1094
310.8091	0.132
311.0207	0.1162
311.2322	0.1261
311.4437	0.1195
311.6552	0.1239
311.8667	0.1158
312.0782	0.1059
312.2897	0.1107
312.5012	0.1125
312.7126	0.1121
312.924	0.1048
313.1355	0.1155
313.3469	0.1193
313.5583	0.1107
313.7696	0.1132
313.981	0.1157
314.1924	0.1113
314.4037	0.1
314.6151	0.1239
314.8264	0.1088
315.0377	0.1097
315.249	0.1142
315.4603	0.1145
315.6716	0.1076
315.8828	0.1095
316.0941	0.1028
316.3053	0.1141
316.5165	0.1147
316.7277	0.0987
316.9389	0.1223
317.1501	0.1015
317.3613	0.1107
317.5724	0.1053
317.7836	0.1205
317.9947	0.104
318.2058	0.1053
318.417	0.0999
318.6281	0.0972
318.8391	0.1028
319.0502	0.1046
319.2613	0.1147
319.4723	0.1105
319.6834	0.1171
319.8944	0.1095
320.1054	0.1221
320.3164	0.1214
320.5274	0.1039
320.7383	0.1086
320.9493	0.1142
321.1602	0.1179
321.3712	0.0964
321.5821	0.1126
321.793	0.1198
322.0039	0.1035
322.2148	0.1062
322.4257	0.1063
322.6365	0.1216
322.8474	0.1045
323.0582	0.1061
323.269	0.1156
323.4798	0.1219
323.6906	0.1107
323.9014	0.113
324.1122	0.1094
324.3229	0.1152
324.5337	0.1089
324.7444	0.1103
324.9551	0.1205
325.1658	0.1258
325.3765	0.1163
325.5872	0.1134
325.7979	0.1159
326.0085	0.1141
326.2192	0.1239
326.4298	0.1216
326.6404	0.106
326.851	0.1081
327.0616	0.1109
327.2722	0.118
327.4828	0.1305
327.6933	0.1234
327.9039	0.1258
328.1144	0.1203
328.3249	0.115
328.5354	0.1061
328.7459	0.1212
328.9564	0.1231
329.1669	0.1233
329.3773	0.1192
329.5878	0.1234
329.7982	0.1166
330.0086	0.1098
330.219	0.1146
330.4294	0.1144
330.6398	0.1172
330.8502	0.1108
331.0605	0.1197
331.2708	0.1156
331.4812	0.1249
331.6915	0.1243
331.9018	0.1094
332.1121	0.1217
332.3224	0.1343
332.5326	0.1252
332.7429	0.1208
332.9531	0.1239
333.1633	0.1205
333.3735	0.1138
333.5837	0.1062
333.7939	0.1156
334.0041	0.1222
334.2143	0.1377
334.4244	0.138
334.6346	0.109
334.8447	0.1306
335.0548	0.1175
335.2649	0.113
335.475	0.1213
335.685	0.1261
335.8951	0.1228
336.1051	0.1123
336.3152	0.1337
336.5252	0.118
336.7352	0.132
336.9452	0.136
337.1552	0.1251
337.3652	0.1239
337.5751	0.1328
337.7851	0.1333
337.995	0.1199
338.2049	0.131
338.4148	0.1322
338.6247	0.1341
338.8346	0.1307
339.0445	0.1254
339.2543	0.1174
339.4642	0.125
339.674	0.1248
339.8838	0.1373
340.0936	0.1192
340.3034	0.1389
340.5132	0.1367
340.7229	0.1379
340.9327	0.1294
341.1424	0.1291
341.3522	0.1466
341.5619	0.1428
341.7716	0.1364
341.9813	0.1423
342.1909	0.1341
342.4006	0.1358
342.6102	0.143
342.8199	0.1252
343.0295	0.1348
343.2391	0.1452
343.4487	0.1516
343.6583	0.1382
343.8679	0.1326
344.0774	0.1361
344.287	0.153
344.4965	0.1406
344.706	0.1494
344.9155	0.1408
345.125	0.1452
345.3345	0.1404
345.544	0.1428
345.7534	0.1358
345.9629	0.1432
346.1723	0.1399
346.3817	0.1256
346.5911	0.1469
346.8005	0.1457
347.0099	0.1472
347.2193	0.1398
347.4286	0.1392
347.638	0.1414
347.8473	0.1544
348.0566	0.1502
348.2659	0.1482
348.4752	0.1341
348.6845	0.1436
348.8937	0.1393
349.103	0.1488
349.3122	0.1366
349.5214	0.1387
349.7306	0.1444
349.9398	0.1447
350.149	0.1514
350.3582	0.1432
350.5674	0.158
350.7765	0.1445
350.9856	0.1488
351.1948	0.159
351.4039	0.143
351.613	0.1461
351.822	0.1574
352.0311	0.1522
352.2402	0.1513
352.4492	0.1581
352.6582	0.1462
352.8672	0.154
353.0762	0.1295
353.2852	0.1452
353.4942	0.1455
353.7032	0.1568
353.9121	0.1496
354.1211	0.1614
354.33	0.1555
354.5389	0.1631
354.7478	0.1532
354.9567	0.1548
355.1655	0.1401
355.3744	0.1607
355.5833	0.1615
355.7921	0.1758
356.0009	0.1674
356.2097	0.1727
356.4185	0.1651
356.6273	0.165
356.8361	0.1602
357.0448	0.1596
357.2536	0.1536
357.4623	0.1585
357.671	0.1682
357.8797	0.1696
358.0884	0.1667
358.2971	0.1587
358.5057	0.1693
358.7144	0.1801
358.923	0.1904
359.1316	0.1681
359.3402	0.1786
359.5488	0.1734
359.7574	0.1498
359.966	0.1675
360.1746	0.1924
360.3831	0.1764
360.5916	0.1602
360.8002	0.1599
361.0087	0.1931
361.2172	0.1719
361.4256	0.1678
361.6341	0.1758
361.8426	0.1862
362.051	0.1646
362.2594	0.1785
362.4678	0.188
362.6762	0.1847
362.8846	0.1869
363.093	0.1896
363.3014	0.1824
363.5097	0.1495
363.718	0.1838
363.9264	0.1877
364.1347	0.162
364.343	0.1764
364.5513	0.1909
364.7595	0.1904
364.9678	0.1885
365.176	0.1837
365.3842	0.1777
365.5925	0.1792
365.8007	0.1778
366.0089	0.1936
366.217	0.1921
366.4252	0.1903
366.6333	0.1977
366.8415	0.1882
367.0496	0.1838
367.2577	0.1987
367.4658	0.2025
367.6739	0.1858
367.882	0.2046
368.09	0.1979
368.2981	0.2031
368.5061	0.1821
368.7141	0.2107
368.9221	0.2097
369.1301	0.2006
369.3381	0.2103
369.5461	0.1907
369.754	0.1916
369.962	0.2005
370.1699	0.1979
370.3778	0.213
370.5857	0.1889
370.7936	0.2032
371.0015	0.2028
371.2093	0.2045
371.4172	0.2206
371.625	0.202
371.8328	0.1973
372.0406	0.1917
372.2484	0.1955
372.4562	0.2193
372.664	0.2044
372.8717	0.1977
373.0795	0.2043
373.2872	0.198
373.4949	0.1955
373.7026	0.2069
373.9103	0.2191
374.118	0.1995
374.3256	0.2039
374.5333	0.2024
374.7409	0.2104
374.9485	0.204
375.1561	0.2179
375.3637	0.1974
375.5713	0.2069
375.7789	0.2157
375.9864	0.205
376.194	0.2199
376.4015	0.2265
376.609	0.2171
376.8165	0.2074
377.024	0.2046
377.2315	0.1998
377.4389	0.2159
377.6464	0.2217
377.8538	0.1979
378.0612	0.1947
378.2686	0.2199
378.476	0.2268
378.6834	0.2176
378.8908	0.2203
379.0981	0.2136
379.3055	0.2175
379.5128	0.2051
379.7201	0.2174
379.9274	0.2117
380.1347	0.2081
380.342	0.2291
380.5492	0.1985
380.7565	0.2168
380.9637	0.2156
381.1709	0.2274
381.3781	0.206
381.5853	0.2158
381.7925	0.2295
381.9997	0.2214
382.2068	0.2434
382.4139	0.23
382.6211	0.2042
382.8282	0.2212
383.0353	0.2161
383.2424	0.2247
383.4494	0.2295
383.6565	0.2185
383.8635	0.213
384.0706	0.2035
384.2776	0.2179
384.4846	0.2268
384.6916	0.2154
384.8986	0.207
385.1055	0.2092
385.3125	0.2167
385.5194	0.2055
385.7263	0.2363
385.9333	0.2088
386.1402	0.22
386.347	0.2157
386.5539	0.2002
386.7608	0.219
386.9676	0.2017
387.1744	0.2182
387.3813	0.2108
387.5881	0.2079
387.7948	0.2126
388.0016	0.2124
388.2084	0.2078
388.4151	0.2082
388.6219	0.2287
388.8286	0.1928
389.0353	0.2129
389.242	0.2177
389.4487	0.2014
389.6553	0.2071
389.862	0.1992
390.0686	0.2086
390.2753	0.2066
390.4819	0.2095
390.6885	0.2224
390.8951	0.2027
391.1016	0.1974
391.3082	0.2046
391.5147	0.2051
391.7213	0.1974
391.9278	0.1895
392.1343	0.188
392.3408	0.1827
392.5473	0.1934
392.7537	0.1924
392.9602	0.1923
393.1666	0.1978
393.373	0.2107
393.5794	0.2043
393.7858	0.1856
393.9922	0.174
394.1986	0.2027
394.4049	0.1832
394.6113	0.1774
394.8176	0.1816
395.0239	0.1788
395.2302	0.1778
395.4365	0.1814
395.6428	0.2093
395.8491	0.1767
396.0553	0.1747
396.2615	0.1864
396.4678	0.1782
396.674	0.1587
396.8802	0.1675
397.0863	0.1936
397.2925	0.1762
397.4987	0.1655
397.7048	0.1791
397.9109	0.1834
398.117	0.1552
398.3231	0.1648
398.5292	0.1834
398.7353	0.1865
398.9413	0.1818
399.1474	0.1678
399.3534	0.171
399.5594	0.1628
399.7654	0.1899
399.9714	0.1984
400.1774	0.1738
400.3833	0.1731
400.5893	0.163
400.7952	0.1773
401.0011	0.1641
401.207	0.1866
401.4129	0.1898
401.6188	0.1837
401.8247	0.171
402.0305	0.1714
402.2364	0.1638
402.4422	0.191
402.648	0.1875
402.8538	0.1761
403.0596	0.1733
403.2654	0.1846
403.4711	0.1769
403.6768	0.1762
403.8826	0.1785
404.0883	0.1852
404.294	0.1803
404.4997	0.176
404.7054	0.1768
404.911	0.1814
405.1167	0.1734
405.3223	0.1784
405.5279	0.1744
405.7335	0.1915
405.9391	0.1881
406.1447	0.1564
406.3502	0.1753
406.5558	0.1649
406.7613	0.1816
406.9668	0.1745
407.1724	0.169
407.3778	0.1549
407.5833	0.1702
407.7888	0.152
407.9942	0.1819
408.1997	0.167
408.4051	0.1786
408.6105	0.1713
408.8159	0.159
409.0213	0.1664
409.2267	0.1807
409.432	0.1409
409.6374	0.1724
409.8427	0.159
410.048	0.1691
410.2533	0.166
410.4586	0.1624
410.6639	0.1585
410.8691	0.169
411.0744	0.1564
411.2796	0.1452
411.4848	0.1625
411.69	0.1555
411.8952	0.1735
412.1004	0.1602
412.3056	0.1719
412.5107	0.1522
412.7158	0.194
412.921	0.1659
413.1261	0.1678
413.3312	0.1507
413.5362	0.1601
413.7413	0.1732
413.9464	0.1618
414.1514	0.1664
414.3564	0.1724
414.5614	0.1497
414.7664	0.1699
414.9714	0.1666
415.1764	0.1642
415.3813	0.1785
415.5863	0.1741
415.7912	0.1613
415.9961	0.1593
416.201	0.1621
416.4059	0.1707
416.6108	0.159
416.8156	0.1863
417.0205	0.1474
417.2253	0.1506
417.4301	0.1556
417.6349	0.1509
417.8397	0.1639
418.0445	0.164
418.2492	0.1709
418.454	0.1626
418.6587	0.1474
418.8634	0.1495
419.0681	0.1493
419.2728	0.1483
419.4775	0.1573
419.6822	0.1543
419.8868	0.1376
420.0915	0.1582
420.2961	0.1395
420.5007	0.1451
420.7053	0.1434
420.9099	0.1557
421.1144	0.1645
421.319	0.1569
421.5235	0.1752
421.728	0.1564
421.9325	0.1613
422.137	0.1621
422.3415	0.1509
422.546	0.1599
422.7504	0.1444
422.9549	0.1488
423.1593	0.1501
423.3637	0.1533
423.5681	0.1402
423.7725	0.1395
423.9769	0.1414
424.1812	0.15
424.3856	0.1538
424.5899	0.139
424.7942	0.1321
424.9985	0.1476
425.2028	0.1372
425.4071	0.1608
425.6113	0.1282
425.8156	0.1385
426.0198	0.1378
426.224	0.1379
426.4282	0.1379
426.6324	0.1238
426.8366	0.1342
427.0407	0.1347
427.2449	0.135
427.449	0.124
427.6531	0.1186
427.8572	0.1291
428.0613	0.1273
428.2654	0.1429
428.4694	0.1202
428.6735	0.1338
428.8775	0.1369
429.0815	0.126
429.2855	0.1176
429.4895	0.1253
429.6935	0.1185
429.8975	0.1236
430.1014	0.1157
430.3053	0.0898
430.5093	0.1056
430.7132	0.1204
430.9171	0.1048
431.1209	0.1086
431.3248	0.1109
431.5286	0.1251
431.7325	0.1131
431.9363	0.093
432.1401	0.1244
432.3439	0.1028
432.5477	0.0788
432.7514	0.0805
432.9552	0.1075
433.1589	0.0785
433.3627	0.1009
433.5664	0.0932
433.7701	0.1012
433.9737	0.0959
434.1774	0.09
434.3811	0.0823
434.5847	0.0988
434.7883	0.0985
434.9919	0.0857
435.1955	0.0863
435.3991	0.0926
435.6027	0.0903
435.8062	0.092
436.0098	0.0715
436.2133	0.0722
436.4168	0.0688
436.6203	0.0818
436.8238	0.0835
437.0272	0.0834
437.2307	0.0893
437.4341	0.0926
437.6375	0.0658
437.841	0.0622
438.0443	0.0839
438.2477	0.0639
438.4511	0.066
438.6545	0.059
438.8578	0.077
439.0611	0.0752
439.2644	0.0658
439.4677	0.0519
439.671	0.0617
439.8743	0.0704
440.0775	0.0643
440.2808	0.0649
440.484	0.0531
440.6872	0.0333
440.8904	0.0538
441.0936	0.0734
441.2967	0.0572
441.4999	0.0634
441.703	0.0645
441.9062	0.0458
442.1093	0.0497
442.3124	0.053
442.5155	0.0353
442.7185	0.0569
442.9216	0.0343
443.1246	0.0533
443.3276	0.0383
443.5307	0.0496
443.7337	0.0424
443.9366	0.0469
444.1396	0.0412
444.3426	0.0431
444.5455	0.0365
444.7484	0.037
444.9513	0.031
445.1542	0.0519
445.3571	0.0463
445.56	0.0516
445.7628	0.0347
445.9657	0.0361
446.1685	0.051
446.3713	0.037
446.5741	0.0338
446.7769	0.0221
446.9797	0.0463
447.1824	0.0345
447.3852	0.0266
447.5879	0.0357
447.7906	0.0407
447.9933	0.0342
448.196	0.0239
448.3986	0.0284
448.6013	0.0239
448.8039	0.0114
449.0066	0.0226
449.2092	0.033
449.4118	0.0392
449.6143	0.0182
449.8169	0.0377
450.0195	0.0177
450.222	0.0055
450.4245	0.0205
450.627	0.0314
450.8295	0.0273
451.032	0.0062
451.2345	0.0283
451.4369	0.0306
451.6394	0.0204
451.8418	-0.0007
452.0442	0.0131
452.2466	0.0378
452.449	0.0091
452.6513	0.0183
452.8537	-0.0002
453.056	-0.0012
453.2583	0.018
453.4607	0.0043
453.663	0.0104
453.8652	0.0192
454.0675	0.0136
454.2697	0.0152
454.472	0.0176
454.6742	0.021
454.8764	0.0216
455.0786	0.0211
455.2808	0.0029
455.4829	0.0077
455.6851	0.0041
455.8872	0.0069
456.0893	0.0099
456.2915	-0.001
456.4935	0.0207
456.6956	0.0166
456.8977	0.0249
457.0997	0.0012
457.3018	0.0034
457.5038	0.0184
457.7058	-0.0026
457.9078	-0.0005
458.1098	0.0042
458.3117	0.0093
458.5137	0.018
458.7156	0.0184
458.9175	-0.001
459.1194	0.0111
459.3213	0.0079
459.5232	0.0036
459.725	0.0022
459.9269	-0.0101
460.1287	-0.0058
460.3305	-0.0025
460.5323	-0.0056
460.7341	0.008
460.9359	0.0038
461.1376	0.0109
461.3394	0.0028
461.5411	0.0064
461.7428	-0.0047
461.9445	0.0376
462.1462	0.0211
462.3479	-0.0131
462.5495	0.008
462.7512	0.0128
462.9528	0.0047
463.1544	-0.0245
463.356	-0.0002
463.5576	-0.002
463.7592	-0.006
463.9607	-0.0047
464.1623	0.0014
464.3638	0.0087
464.5653	-0.0058
464.7668	-0.0029
464.9683	0.0154
465.1697	0.019
465.3712	-0.0132
465.5726	-0.0052
465.7741	-0.0067
465.9755	-0.0062
466.1769	0.0108
466.3782	-0.006
466.5796	-0.0089
466.7809	0.0252
466.9823	-0.0075
467.1836	-0.0082
467.3849	-0.0066
467.5862	-0.0008
467.7875	-0.0166
467.9887	0.013
468.19	-0.0119
468.3912	-0.011
468.5924	-0.0002
468.7936	-0.0064
468.9948	-0.0079
469.196	0.0068
469.3972	-0.0089
469.5983	0.0135
469.7994	-0.0073
470.0006	-0.0099
470.2017	-0.0185
470.4027	-0.0047
470.6038	-0.0048
470.8049	-0.0095
471.0059	-0.0185
471.2069	-0.0224
471.408	0.005
471.6089	0.0028
471.8099	0.004
472.0109	-0.0114
472.2119	-0.0063
472.4128	-0.0198
472.6137	-0.0024
472.8146	-0.011
473.0155	-0.0088
473.2164	-0.0142
473.4173	0.0024
473.6181	0.0051
473.819	-0.0043
474.0198	-0.0113
474.2206	-0.0059
474.4214	-0.0098
474.6222	-0.005
474.8229	-0.0129
475.0237	-0.0207
475.2244	-0.0098
475.4251	-0.0065
475.6258	-0.0043
475.8265	0.0026
476.0272	-0.0008
476.2278	-0.0114
476.4285	0.0006
476.6291	-0.016
476.8297	-0.0141
477.0303	-0.0086
477.2309	0.011
477.4315	-0.0154
477.632	-0.0046
477.8326	-0.0135
478.0331	-0.001
478.2336	0.0065
478.4341	-0.0114
478.6346	-0.0048
478.8351	-0.0077
479.0355	-0.0071
479.236	-0.0062
479.4364	0.0015
479.6368	-0.0031
479.8372	-0.0159
480.0376	-0.0046
480.2379	-0.0222
480.4383	-0.0166
480.6386	0.0063
480.8389	-0.0031
481.0392	-0.0118
481.2395	-0.0017
481.4398	0.0024
481.6401	-0.0035
481.8403	-0.0083
482.0405	-0.0057
482.2408	0.0032
482.441	0.0079
482.6411	0.0007
482.8413	-0.0017
483.0415	-0.0049
483.2416	-0.0192
483.4417	0.0083
483.6419	-0.0113
483.8419	-0.0118
484.042	0.0056
484.2421	0.0012
484.4422	-0.0045
484.6422	-0.0111
484.8422	0.0017
485.0422	-0.0092
485.2422	0.002
485.4422	-0.0141
485.6422	-0.0083
485.8421	-0.0089
486.042	-0.0122
486.242	-0
486.4419	-0.0089
486.6417	-0.0117
486.8416	-0.0059
487.0415	-0.0062
487.2413	-0.0125
487.4411	-0.0046
487.641	-0.0137
487.8408	0.0002
488.0405	-0.0109
488.2403	-0.0105
488.4401	0.0011
488.6398	-0.0008
488.8395	-0.0123
489.0392	-0.0029
489.2389	-0.0095
489.4386	-0.0063
489.6383	-0.0061
489.8379	-0.0069
490.0376	-0.0084
490.2372	-0.0122
490.4368	-0.0042
490.6364	-0.0131
490.836	-0.0217
491.0355	-0.0088
491.2351	-0.0244
491.4346	-0.0077
491.6341	-0.0054
491.8336	-0.0028
492.0331	-0.0183
492.2326	-0.0171
492.432	-0.0124
492.6315	-0.0085
492.8309	-0.0169
493.0303	-0.0086
493.2297	-0.0103
493.4291	-0.0129
493.6284	-0.0114
493.8278	0.0082
494.0271	-0.0031
494.2264	0.0118
494.4257	-0.0096
494.625	0.0013
494.8243	-0.0215
495.0236	-0.0075
495.2228	-0.0166
495.422	-0.0062
495.6213	-0.0129
495.8205	-0.0063
496.0196	-0.0049
496.2188	-0.0014
496.418	-0.0135
496.6171	-0.0092
496.8162	-0.0075
497.0153	-0.0021
497.2144	-0.0066
497.4135	-0.0072
497.6126	-0.0155
497.8116	-0.0167
498.0107	-0.0094
498.2097	-0.0164
498.4087	-0.0156
498.6077	-0.0041
498.8067	-0.0112
499.0056	-0.0034
499.2046	-0.0168
499.4035	-0.0241
499.6024	0.0013
499.8013	-0.0081
500.0002	-0.011
500.199	-0.006
500.3979	-0.0102
500.5967	-0.0162
500.7956	-0.0035
500.9944	-0.0107
501.1932	-0.0148
501.3919	-0.0089
501.5907	-0.0165
501.7895	-0.008
501.9882	-0.0159
502.1869	-0.0002
502.3856	-0.0228
502.5843	-0.0099
502.783	-0.0164
502.9816	-0.0067
503.1803	-0.0239
503.3789	-0.0232
503.5775	0.0015
503.7761	-0.0034
503.9747	-0.0063
504.1732	-0.0016
504.3718	-0.0087
504.5703	-0.0073
504.7689	-0.0166
504.9674	-0.0073
505.1658	-0.0141
505.3643	-0.019
505.5628	-0.0105
505.7612	-0.015
505.9597	0.0022
506.1581	-0.0046
506.3565	0.0008
506.5549	-0.0009
506.7532	-0.021
506.9516	-0.0057
507.1499	-0.0004
507.3482	-0.0108
507.5465	-0.015
507.7448	-0.0017
507.9431	-0.0059
508.1414	-0.0041
508.3396	-0.0027
508.5379	-0.0128
508.7361	-0.0208
508.9343	-0.0104
509.1325	-0.0111
509.3306	-0.0103
509.5288	-0.0136
509.7269	-0.0149
509.9251	-0.0078
510.1232	-0.0043
510.3213	0.002
510.5193	0.0016
510.7174	-0.0151
510.9154	-0.0063
511.1135	-0.0151
511.3115	-0.0002
511.5095	-0.0052
511.7075	-0.0044
511.9055	-0.0038
512.1034	-0.006
512.3014	-0.0046
512.4993	-0.0077
512.6972	-0.0172
512.8951	-0.024
513.093	-0.0097
513.2908	0.0007
513.4887	-0.0031
513.6865	-0.0068
513.8844	-0.0022
514.0822	-0.0152
514.2799	-0.0171
514.4777	-0.0105
514.6755	-0.0173
514.8732	-0.0113
515.0709	-0.0057
515.2687	0.0019
515.4664	-0.0014
515.664	-0.0102
515.8617	-0.0089
516.0594	-0.0148
516.257	0.0001
516.4546	-0.0184
516.6522	-0.0146
516.8498	-0.0039
517.0474	-0.011
517.2449	-0.0083
517.4425	-0.0202
517.64	-0.0084
517.8375	0.0028
518.035	-0.0065
518.2325	-0.0022
518.43	-0.0102
518.6274	-0.0047
518.8249	-0.0248
519.0223	0.0007
519.2197	-0.0093
519.4171	-0.006
519.6145	-0.0049
519.8118	-0.0069
520.0092	-0.008
520.2065	-0.0152
520.4038	-0.0196
520.6011	-0.0151
520.7984	-0.0212
520.9956	0.0001
521.1929	-0.0168
521.3901	-0.006
521.5874	-0.0081
521.7846	-0.006
521.9818	-0.0126
522.1789	-0.0164
522.3761	-0.0178
522.5732	-0.0161
522.7704	-0.0099
522.9675	-0.005
523.1646	-0.0166
523.3617	-0.0049
523.5587	-0.0056
523.7558	-0.0019
523.9528	-0.0068
524.1498	0.01
524.3468	-0.0125
524.5438	-0.0149
524.7408	-0.0024
524.9378	-0.0011
525.1347	-0.0077
525.3316	0.0029
525.5285	-0.0037
525.7254	-0.0091
525.9223	-0.0008
526.1192	-0.0146
526.316	-0.0152
526.5129	-0.0064
526.7097	0.0008
526.9065	-0.0088
527.1033	-0.0081
527.3	0.001
527.4968	-0.0105
527.6935	-0.0128
527.8903	-0.0198
528.087	-0.0077
528.2837	-0.0033
528.4804	-0.0078
528.677	-0.0054
528.8737	0.0048
529.0703	-0.0022
529.2669	-0.0021
529.4635	-0.0057
529.6601	0.0017
529.8567	-0.0051
530.0532	-0.0143
530.2498	-0.0005
530.4463	0.0115
530.6428	0.0016
530.8393	-0.0056
531.0358	-0.0052
531.2322	0.0022
531.4287	0.0013
531.6251	-0.0133
531.8215	0.0061
532.0179	-0.0027
532.2143	0.0003
532.4107	-0.0069
532.607	-0.003
532.8034	-0.0043
532.9997	0.0005
533.196	-0.0018
533.3923	-0.0118
533.5886	-0.0022
533.7848	0.0034
533.9811	-0.0027
534.1773	-0.0001
534.3735	0.002
534.5697	-0.0007
534.7659	-0.0099
534.9621	-0.0038
535.1582	-0.0066
535.3544	-0.0116
535.5505	-0.0144
535.7466	-0.004
535.9427	-0.0047
536.1387	-0.0087
536.3348	-0.014
536.5308	-0.0035
536.7269	-0.0117
536.9229	0.0048
537.1189	-0.0046
537.3148	-0.0044
537.5108	-0.0049
537.7068	-0.0026
537.9027	-0.0008
538.0986	-0.0055
538.2945	-0.0088
538.4904	0.0015
538.6863	-0.0116
538.8821	0.0011
539.078	-0.009
539.2738	-0.0025
539.4696	-0.0069
539.6654	-0.0021
539.8611	0.0106
540.0569	-0.0124
540.2526	-0.004
540.4484	-0.0052
540.6441	-0.0003
540.8398	-0.0022
541.0355	-0.0045
541.2311	0.0005
541.4268	-0.0164
541.6224	-0.0035
541.818	0.004
542.0136	-0.0095
542.2092	0.0005
542.4048	-0.0015
542.6003	-0.0115
542.7959	-0.0113
542.9914	-0.0102
543.1869	0.0001
543.3824	-0.0075
543.5779	-0.0068
543.7734	-0.0049
543.9688	0.0011
544.1642	0.0043
544.3596	-0.0079
544.555	-0.0038
544.7504	0.001
544.9458	-0.0017
545.1411	-0.0055
545.3365	-0.0005
545.5318	-0.0075
545.7271	-0.007
545.9224	-0.0107
546.1177	-0.0024
546.3129	-0.0105
546.5081	-0.0036
546.7034	-0.0079
546.8986	-0.0015
547.0938	-0.0075
547.289	-0.0071
547.4841	-0.0097
547.6793	-0.0024
547.8744	-0.0074
548.0695	0.0018
548.2646	-0.0137
548.4597	-0.004
548.6548	-0.0024
548.8498	0.0023
549.0448	0.004
549.2399	-0.0117
549.4349	0.0009
549.6298	0.0033
549.8248	0.0006
550.0198	-0.0045
550.2147	0.0008
550.4096	-0.0018
550.6045	-0.0078
550.7994	0.0041
550.9943	-0.0031
551.1892	0.0007
551.384	0.0056
551.5788	-0.0091
551.7737	0.012
551.9685	-0.0037
552.1632	-0.0016
552.358	-0.0008
552.5528	-0.0043
552.7475	-0.0092
552.9422	-0.0008
553.1369	-0.0029
553.3316	0.0023
553.5263	-0.0033
553.7209	0.0117
553.9156	-0.0042
554.1102	-0.0047
554.3048	0.004
554.4994	0.0009
554.694	-0.0089
554.8885	0.005
555.0831	-0.0065
555.2776	-0.0126
555.4721	-0.0031
555.6666	-0.0046
555.8611	0.0033
556.0555	0.0021
556.25	-0.0001
556.4444	-0.0026
556.6388	0.0071
556.8332	-0.0037
557.0276	0.0009
557.222	-0.0019
557.4163	-0.0046
557.6107	-0.0056
557.805	-0.0058
557.9993	-0.0066
558.1936	0.0031
558.3879	0.0059
558.5821	-0.0036
558.7764	-0.0134
558.9706	0.0102
559.1648	0.0013
559.359	-0.005
559.5532	-0.0113
559.7473	0.0016
559.9415	0.0053
560.1356	0.0008
560.3297	-0.0045
560.5238	-0.006
560.7179	-0.0081
560.9119	-0.0058
561.106	-0.0108
561.3	-0.003
561.494	-0.0029
561.688	-0.01
561.882	-0.0101
562.076	-0.0091
562.2699	-0.0004
562.4639	-0.0042
562.6578	-0.0011
562.8517	-0.0104
563.0456	-0.0042
563.2395	0.0049
563.4333	-0.0069
563.6272	0.0123
563.821	-0.0031
564.0148	-0.0003
564.2086	-0.0065
564.4024	-0.0013
564.5961	0.0039
564.7899	0.0015
564.9836	0.0044
565.1773	-0.0027
565.371	0.0057
565.5647	0.0058
565.7584	0.0046
565.952	0.004
566.1456	-0.0036
566.3393	-0.0026
566.5329	-0.0095
566.7264	-0.0083
566.92	0.0017
567.1136	0.0066
567.3071	-0.0089
567.5006	0.0044
567.6941	0.0039
567.8876	-0.0012
568.0811	0.0025
568.2745	0.0018
568.468	0.0073
568.6614	-0.0005
568.8548	0.0059
569.0482	-0.0069
569.2416	-0.007
569.4349	0.0012
569.6283	0.005
569.8216	-0.0069
570.0149	0.0018
570.2082	0.0109
570.4015	0.0083
570.5947	0.0055
570.788	0.0068
570.9812	-0.0003
571.1744	0.0027
571.3676	-0.006
571.5608	-0.0008
571.754	0.0031
571.9471	-0.0006
572.1402	-0.0006
572.3333	-0.011
572.5264	-0.0059
572.7195	-0.0005
572.9126	-0.0021
573.1057	-0.002
573.2987	-0.0044
573.4917	0.0011
573.6847	-0.0051
573.8777	-0.0032
574.0707	0.0034
574.2636	-0.0034
574.4566	-0.0034
574.6495	0.0078
574.8424	-0.0037
575.0353	-0.0042
575.2281	0.0105
575.421	0.0007
575.6138	0.0074
575.8067	-0.0013
575.9995	0.0026
576.1923	0.0066
576.385	-0.0036
576.5778	-0.0019
576.7706	-0.0026
576.9633	-0.0009
577.156	0.0039
577.3487	-0.0015
577.5414	-0.0023
577.734	-0.0029
577.9267	0.0025
578.1193	-0.0101
578.3119	-0.0096
578.5045	-0.0027
578.6971	-0.0041
578.8897	0.0031
579.0822	-0.0014
579.2747	-0.0051
579.4673	-0.0051
579.6598	-0.0027
579.8522	-0.0076
580.0447	-0.007
580.2372	-0.0017
580.4296	0.0037
580.622	0.001
580.8144	-0.0007
581.0068	-0.0058
581.1992	-0.0109
581.3915	-0.0103
581.5839	-0.0108
581.7762	-0.0137
581.9685	-0.0094
582.1608	-0.0009
582.353	-0.0004
582.5453	-0.0025
582.7375	-0.0032
582.9298	-0.0028
583.122	-0.0047
583.3142	-0.004
583.5063	0.0007
583.6985	-0.0056
583.8906	-0.0086
584.0827	-0.0037
584.2749	0.0042
584.4669	0.0009
584.659	-0.0038
584.8511	-0.004
585.0431	-0.008
585.2352	0.0028
585.4272	-0.0032
585.6192	0.0047
585.8111	-0.0034
586.0031	-0.0028
586.195	0.0074
586.387	0.0039
586.5789	-0.0006
586.7708	0.0001
586.9627	-0.0046
587.1545	-0.0062
587.3464	0.0029
587.5382	-0.0018
587.73	-0.0012
587.9218	0.0016
588.1136	-0.0011
588.3053	-0.0026
588.4971	-0.0048
588.6888	-0.0051
588.8805	-0.0065
589.0722	0.005
589.2639	0.0043
589.4556	0.0038
589.6472	-0.0023
589.8389	-0.0066
590.0305	-0.0065
590.2221	-0.001
590.4137	-0.0137
590.6052	0.001
590.7968	-0.0005
590.9883	0.0119
591.1798	-0.0046
591.3713	-0.0013
591.5628	0.0032
591.7543	0.0009
591.9458	0.0075
592.1372	0.0057
592.3286	0.0069
592.52	0.0067
592.7114	-0.0028
592.9028	0.0029
593.0941	-0.0017
593.2855	0.0014
593.4768	-0.0098
593.6681	-0.0065
593.8594	-0.0045
594.0506	-0.0026
594.2419	0.0109
594.4331	0.0046
594.6244	0.0028
594.8156	-0.0078
595.0067	0.0039
595.1979	0.0012
595.3891	0.0008
595.5802	0.0022
595.7713	0.0022
595.9624	-0.0015
596.1535	0.0085
596.3446	0.0085
596.5357	-0.0004
596.7267	0.0062
596.9177	-0.0025
597.1087	-0.005
597.2997	-0.0046
597.4907	0.011
597.6817	0.0001
597.8726	0.0029
598.0635	-0.0019
598.2544	0.0083
598.4453	-0.0079
598.6362	0.0022
598.827	-0.0025
599.0179	0.0058
599.2087	0.0084
599.3995	0.0036
599.5903	0.0034
599.7811	-0.0028
599.9718	0.0056
600.1626	-0.0005
600.3533	-0.004
600.544	0.0031
600.7347	-0.0005
600.9254	0.0042
601.116	-0.0092
601.3067	0.0011
601.4973	-0.0023
601.6879	0.0085
601.8785	0.0016
602.0691	0.0043
602.2596	0.0023
602.4502	0.0041
602.6407	0.0103
602.8312	0.0072
603.0217	0.0026
603.2122	0.0059
603.4027	-0.0006
603.5931	0.0025
603.7835	0.0005
603.9739	0.0021
604.1643	-0.005
604.3547	-0.007
604.5451	0.007
604.7354	0.0035
604.9257	-0.0022
605.116	-0.0003
605.3063	0.0019
605.4966	-0.0005
605.6869	0.0057
605.8771	0.003
606.0673	0.0009
606.2575	0.0065
606.4477	0.0062
606.6379	-0.0033
606.8281	-0.0077
607.0182	-0.0016
607.2083	0.0074
607.3985	-0.004
607.5885	0.0037
607.7786	0.0096
607.9687	-0.0006
608.1587	0.0015
608.3488	0.0069
608.5388	0.0071
608.7288	-0.0042
608.9187	-0.0036
609.1087	-0.0039
609.2986	-0.0012
609.4886	-0.0037
609.6785	-0.0017
609.8684	-0.0003
610.0582	-0.0001
610.2481	0.0031
610.4379	-0.0041
610.6278	-0.0062
610.8176	-0.0066
611.0074	-0.0008
611.1971	-0.0098
611.3869	0.0022
611.5766	-0.0095
611.7664	0.0056
611.9561	0.0019
612.1458	0.0053
612.3354	-0.0028
612.5251	-0.0045
612.7147	0.0018
612.9044	0.0149
613.094	-0.0027
613.2836	-0.001
613.4731	-0.0046
613.6627	-0.001
613.8522	0.0046
614.0417	0.0065
614.2313	0.0024
614.4207	0.0003
614.6102	0.0008
614.7997	-0.0058
614.9891	-0.0025
615.1785	0.0053
615.3679	-0.0009
615.5573	-0.0016
615.7467	-0
615.9361	-0.0024
616.1254	-0.0003
616.3147	0.0058
616.504	0.0016
616.6933	0.0039
616.8826	0.0007
617.0718	0.0048
617.2611	0.0003
617.4503	-0.0051
617.6395	0.0006
617.8287	-0.001
618.0179	-0.0083
618.207	0.0048
618.3961	0.0024
618.5853	-0.0055
618.7744	0.0072
618.9634	0.0046
619.1525	0.0046
619.3416	-0.002
619.5306	0.0075
619.7196	0.0059
619.9086	-0.0054
620.0976	0.0013
620.2866	-0.0008
620.4755	0.0044
620.6645	0.005
620.8534	0.0074
621.0423	0.0014
621.2312	0.005
621.42	-0.004
621.6089	-0.001
621.7977	0.0062
621.9865	-0.0061
622.1753	-0.0021
622.3641	0.0019
622.5529	0.0047
622.7416	0.0041
622.9303	-0.0076
623.1191	0.0049
623.3078	-0.0055
623.4964	0.0011
623.6851	-0.0053
623.8737	-0.0031
624.0624	0.0044
624.251	-0.0002
624.4396	-0.0014
624.6282	-0.0017
624.8167	-0.0027
625.0053	0.0035
625.1938	0.0016
625.3823	-0.001
625.5708	0.0054
625.7593	-0.0013
625.9477	-0.0059
626.1362	-0.0018
626.3246	0.0042
626.513	0.0072
626.7014	0.0118
626.8898	0.0051
627.0781	0.0054
627.2665	0.0017
627.4548	0.0105
627.6431	0.0021
627.8314	0.0047
628.0197	0.0039
628.2079	-0.0015
628.3962	0.0018
628.5844	0.0046
628.7726	0.0084
628.9608	0.0083
629.1489	0.005
629.3371	0.0053
629.5252	0.0043
629.7134	0.0138
629.9015	0.0044
630.0895	0.0103
630.2776	-0.0011
630.4657	0.0012
630.6537	0.004
630.8417	0.0006
631.0297	0.0087
631.2177	0.0036
631.4057	-0.008
631.5936	0.0012
631.7815	-0.0009
631.9695	0.0012
632.1574	0.0072
632.3452	0.0121
632.5331	-0.001
632.7209	0.0031
632.9088	0.0108
633.0966	0.0076
633.2844	-0.0039
633.4722	0.0138
633.6599	0.0061
633.8477	0.0072
634.0354	0.0054
634.2231	0.0025
634.4108	0.0041
634.5985	0.0047
634.7861	0.0044
634.9738	0.0014
635.1614	-0.0069
635.349	-0.0016
635.5366	0.0009
635.7242	0.0024
635.9117	0.0066
636.0993	-0.0027
636.2868	0.0069
636.4743	-0.0017
636.6618	0.0084
636.8492	0.0047
637.0367	-0.0005
637.2241	-0.002
637.4115	-0.0041
637.5989	0.0045
637.7863	-0.0025
637.9737	-0.0017
638.161	0.0028
638.3484	0.0001
638.5357	0.002
638.723	0.0071
638.9103	0.0015
639.0975	0.0035
639.2848	0.0065
639.472	0.0074
639.6592	0.0109
639.8464	0.0052
640.0336	0.0087
640.2208	0.0029
640.4079	-0.0024
640.595	0.0074
640.7821	0.0017
640.9692	0.0015
641.1563	0.0053
641.3434	0.0103
641.5304	0.0062
641.7174	-0
641.9044	-0.0004
642.0914	0.0049
642.2784	0.0044
642.4653	0.0053
642.6523	0.0084
642.8392	0.0028
643.0261	0.011
643.213	0.0051
643.3999	0.0032
643.5867	0.0025
643.7735	0.0079
643.9604	-0.0048
644.1472	0.0046
644.3339	0.0029
644.5207	0.0022
644.7075	-0.0013
644.8942	0.0159
645.0809	0.0099
645.2676	0.0104
645.4543	0.0021
645.6409	0.0065
645.8276	0.0064
646.0142	0.0086
646.2008	-0.0072
646.3874	0.0013
646.574	0.0076
646.7605	0.0027
646.9471	-0.0185
647.1336	-0.0033
647.3201	0.0033
647.5066	0.0007
647.6931	0.0024
647.8795	-0.0021
648.0659	0.0077
648.2524	0.0147
648.4388	0.0007
648.6252	-0.0008
648.8115	0.004
648.9979	-0.0007
649.1842	-0.003
649.3705	-0.0035
649.5568	-0.0011
649.7431	0.0026
649.9294	0.0034
650.1156	0.0089
650.3018	-0.0056
650.488	0.0103
650.6742	0.0062
650.8604	0.0061
651.0466	0.0018
651.2327	0.0018
651.4188	0.0068
651.6049	0.0009
651.791	-0.0011
651.9771	0.0097
652.1632	0.0059
652.3492	0.0004
652.5352	0.0063
652.7212	0.0023
652.9072	-0.0005
653.0932	0.0062
653.2791	0.0028
653.465	0.0047
653.651	-0.0001
653.8369	-0.002
654.0227	0.0069
654.2086	-0.0007
654.3944	0.0028
654.5803	0.0101
654.7661	-0.002
654.9519	0.0083
655.1377	0.0019
655.3234	0.001
655.5092	-0.0069
655.6949	-0.0035
655.8806	-0.0002
656.0663	-0.0042
656.2519	-0.0045
656.4376	-0.0147
656.6232	0.0091
656.8088	0.0039
656.9945	0.0057
657.18	0.0043
657.3656	0.0052
657.5511	-0.0016
657.7367	-0.0039
657.9222	0.0051
658.1077	0.0039
658.2932	0.0074
658.4786	-0.0017
658.6641	0.0033
658.8495	0.0023
659.0349	-0.0018
659.2203	0.0099
659.4057	0.0031
659.591	0.0082
659.7764	0.0008
659.9617	0.0033
660.147	0.0008
660.3323	0.0008
660.5176	0.0131
660.7028	0.0068
660.888	0.0059
661.0733	0.0086
661.2585	-0.0022
661.4436	0.0036
661.6288	0.0013
661.8139	0.0056
661.9991	0.0073
662.1842	0.0056
662.3693	0.0032
662.5544	0.0034
662.7394	0.0019
662.9245	-0.0016
663.1095	0.0006
663.2945	-0.0005
663.4795	-0.0025
663.6644	0.0131
663.8494	0.0012
664.0343	-0.005
664.2193	-0.01
664.4042	0.0009
664.589	-0.0078
664.7739	-0.0012
664.9587	-0.0039
665.1436	0.0021
665.3284	0.0039
665.5132	0.0027
665.698	-0.0002
665.8827	0.0055
666.0675	0.0006
666.2522	-0.0004
666.4369	0.0044
666.6216	0.0162
666.8063	0.0086
666.9909	0.0027
667.1756	0.0056
667.3602	0.0094
667.5448	0.0022
667.7294	0.0091
667.9139	0.0097
668.0985	0.0207
668.283	0.0029
668.4675	0.0035
668.652	-0.0005
668.8365	-0.0017
669.0209	0.0086
669.2054	0.0129
669.3898	0.0017
669.5742	0.0082
669.7586	0.0092
669.943	0.0108
670.1273	0.0112
670.3117	0.0102
670.496	0.0068
670.6803	0.013
670.8646	0.0089
671.0488	0.0075
671.2331	0.0132
671.4173	0.0044
671.6015	0.0029
671.7857	0.0074
671.9699	0.0058
672.1541	0.0057
672.3382	0.0042
672.5223	0.008
672.7064	0.0102
672.8905	0.012
673.0746	0.0039
673.2587	0.0023
673.4427	0.012
673.6267	0.0108
673.8107	0.0096
673.9947	0.0041
674.1787	0.0156
674.3626	-0.0005
674.5465	0.0056
674.7304	0.0129
674.9143	0.0137
675.0982	0.0127
675.2821	0.0044
675.4659	0.0054
675.6497	-0.0015
675.8335	0.0072
676.0173	0.0026
676.2011	0.0019
676.3849	-0.0014
676.5686	-0.003
676.7523	0.0029
676.936	0.0057
677.1197	0.0013
677.3034	-0.0038
677.487	0.0066
677.6706	0.0023
677.8542	0.0134
678.0378	0.0043
678.2214	0.0042
678.405	0.0076
678.5885	0.0028
678.772	0.0026
678.9555	-0.0018
679.139	0.0032
679.3225	0.004
679.5059	0.0017
679.6894	0.0079
679.8728	0.0061
680.0562	-0.0031
680.2395	-0.0028
680.4229	0.0024
680.6062	0.0134
680.7896	0.0023
680.9729	-0.0052
681.1562	0.0096
681.3394	0.0044
681.5227	-0.0065
681.7059	0.0009
681.8891	0.0008
682.0723	0.0099
682.2555	0.013
682.4387	-0.0009
682.6218	-0.0032
682.805	0.0074
682.9881	0.0095
683.1712	0.0015
683.3542	0.004
683.5373	0.0115
683.7203	-0.0007
683.9034	0.0036
684.0864	-0.0036
684.2694	-0.0015
684.4523	0.0064
684.6353	-0.0026
684.8182	0.0086
685.0011	0.0053
685.184	0.007
685.3669	0.0051
685.5498	0.0105
685.7326	0.0042
685.9154	0.004
686.0982	0.0095
686.281	0.014
686.4638	-0.0011
686.6465	-0.0034
686.8293	0.0117
687.012	0.003
687.1947	-0.0046
687.3774	-0.004
687.56	0.0012
687.7427	0.0119
687.9253	-0.0046
688.1079	-0.0019
688.2905	0.0091
688.4731	0.0026
688.6556	-0.0026
688.8382	0.0061
689.0207	0.0028
689.2032	-0.0093
689.3857	0.0042
689.5681	0.0078
689.7506	-0.0004
689.933	-0.0029
690.1154	0.0003
690.2978	0.0044
690.4802	0.005
690.6626	-0.0035
690.8449	-0.0036
691.0272	0.0042
691.2095	-0.0044
691.3918	-0.0007
691.5741	0.007
691.7563	0.0007
691.9386	-0.0036
692.1208	-0.0022
692.303	-0.0009
692.4852	-0.008
692.6673	-0.0058
692.8495	-0.0002
693.0316	0.0029
693.2137	0.0036
693.3958	0.0031
693.5778	-0.0009
693.7599	0.0041
693.9419	-0.0016
694.1239	0.0041
694.3059	-0.0048
694.4879	0.0095
694.6699	0.0078
694.8518	0.0022
695.0337	-0.0052
695.2157	0.004
695.3975	0.0094
695.5794	0.007
695.7613	0.0015
695.9431	-0.0034
696.1249	0.0013
696.3067	0
696.4885	0.0058
696.6703	-0.0002
696.852	0.0073
697.0337	0.0033
697.2154	0.0088
697.3971	0.0032
697.5788	-0.006
697.7605	0.0086
697.9421	0.0079
698.1237	0.0042
698.3053	0.0053
698.4869	-0.002
698.6685	-0.008
698.85	0.0066
699.0315	0.0131
699.213	0.0073
699.3945	0.0003
699.576	0.0105
699.7575	0.0054
699.9389	0.007
700.1203	-0.0045
700.3017	-0.0017
700.4831	-0.0073
700.6645	-0.0012
700.8458	0.0027
701.0271	-0.0072
701.2084	0.0074
701.3897	-0.004
701.571	-0.0012
701.7523	-0.0092
701.9335	-0.0026
702.1147	-0.0054
702.2959	-0.0018
702.4771	-0.0023
702.6583	0.0059
702.8394	-0.0067
703.0205	0.0042
703.2016	0.002
703.3827	0.0057
703.5638	0.0062
703.7449	0.0008
703.9259	0.0118
704.1069	-0.0031
704.2879	0.0043
704.4689	-0
704.6499	-0.0037
704.8308	0.0035
705.0117	-0.0022
705.1927	0.0045
705.3735	0.0035
705.5544	-0.0052
705.7353	-0.0002
705.9161	-0.0057
706.0969	-0.0066
706.2777	-0.0031
706.4585	-0.0006
706.6393	0.0062
706.82	-0.0008
707.0007	0.0056
707.1815	0.0061
707.3621	0.0082
707.5428	0.0092
707.7235	0.0037
707.9041	0.0032
708.0847	-0.0065
708.2653	-0.0005
708.4459	-0.0092
708.6265	0.0023
708.807	-0.005
708.9875	-0.0045
709.168	-0.0011
709.3485	-0.0057
709.529	-0.0021
709.7095	-0.006
709.8899	0.0101
710.0703	-0.0081
710.2507	0.0028
710.4311	-0.0023
710.6115	-0.0079
710.7918	-0.0041
710.9721	0.0012
711.1524	-0.015
711.3327	0.003
711.513	0.0076
711.6932	0.0022
711.8735	0.0057
712.0537	0.0003
712.2339	-0.0061
712.4141	-0.0102
712.5942	-0.0005
712.7744	0.0007
712.9545	-0.0004
713.1346	-0.0025
713.3147	0.0011
713.4947	0.0022
713.6748	0.0002
713.8548	0.0099
714.0348	0.0035
714.2148	0.0013
714.3948	0.0124
714.5748	-0.0002
714.7547	-0.0019
714.9346	0.0074
715.1145	-0.0035
715.2944	0.0035
715.4743	0.0116
715.6541	-0.0002
715.834	0.013
716.0138	-0.0001
716.1936	-0.0031
716.3733	-0
716.5531	0.0042
716.7328	0.0016
716.9126	-0.0055
717.0923	-0.0007
717.2719	0.0002
717.4516	0.0068
717.6312	-0.0004
717.8109	-0.0094
717.9905	0.0061
718.1701	-0.0027
718.3496	-0.0029
718.5292	-0.0008
718.7087	0.0098
718.8882	-0.0007
719.0677	0.0084
719.2472	0.0009
719.4267	0.0089
719.6061	0.0014
719.7856	0.0122
719.965	0.0109
720.1443	-0.0033
720.3237	0.0078
720.5031	0.0115
720.6824	0.0128
720.8617	0.0012
721.041	0.0059
721.2203	0.0065
721.3995	0.0061
721.5788	-0.0011
721.758	0.011
721.9372	0.004
722.1164	0.0068
722.2956	0.0038
722.4747	0.0037
722.6538	-0.0029
722.8329	0.0175
723.012	-0.002
723.1911	0.0001
723.3702	-0.0053
723.5492	0.0008
723.7282	-0.0051
723.9072	-0.0003
724.0862	-0.0063
724.2652	-0.0009
724.4441	0.0006
724.623	0.0093
724.8019	0.0064
724.9808	0.0048
725.1597	-0.0098
725.3385	0.007
725.5174	-0
725.6962	0.0036
725.875	-0.0031
726.0538	0.0082
726.2325	0.009
726.4112	0.0042
726.59	0.0021
726.7687	-0.0024
726.9474	0.0067
727.126	-0.0016
727.3047	-0.0037
727.4833	-0.0053
727.6619	-0.0051
727.8405	-0.0087
728.0191	-0.0008
728.1976	0.0087
728.3762	-0.0048
728.5547	-0.0014
728.7332	-0.0119
728.9116	-0.0004
729.0901	0.0078
729.2686	-0.0007
729.447	0.0014
729.6254	0.0054
729.8038	0.002
729.9821	-0.0109
730.1605	-0
730.3388	-0.0025
730.5171	-0.0038
730.6954	-0.0025
730.8737	0.0054
731.0519	0.0073
731.2302	0.0011
731.4084	0.0082
731.5866	0.0034
731.7648	-0.0007
731.9429	-0.0016
732.1211	-0.0014
732.2992	0.0049
732.4773	0.0005
732.6554	-0.0012
732.8335	0.0003
733.0115	0.0085
733.1896	0.0125
733.3676	-0.0022
733.5456	0.0084
733.7235	0.0066
733.9015	-0.0011
734.0794	0.0109
734.2574	-0.0032
734.4353	0.003
734.6131	-0.0057
734.791	-0.0062
734.9689	0.0001
735.1467	0.0024
735.3245	-0.0095
735.5023	-0.0087
735.68	-0.0023
735.8578	0.0023
736.0355	-0.0172
736.2132	-0.0058
736.3909	0.003
736.5686	-0.0048
736.7463	0.0107
736.9239	-0.0099
737.1015	-0.0079
737.2791	0.0035
737.4567	-0.0009
737.6343	-0.0095
737.8118	-0.0043
737.9894	0.0017
738.1669	-0.0089
738.3444	-0.0055
738.5218	0.0016
738.6993	-0.0018
738.8767	-0.001
739.0541	0.0105
739.2315	-0.01
739.4089	0.0135
739.5863	0.0085
739.7636	-0.0046
739.9409	0.0054
740.1182	0.0035
740.2955	0.0164
740.4728	0.0112
740.65	0.0049
740.8272	-0.0017
741.0044	-0.0046
741.1816	0.0051
741.3588	-0.0042
741.5359	-0.0041
741.7131	-0.0056
741.8902	-0.0033
742.0673	0.0006
742.2444	-0.002
742.4214	-0.0013
742.5985	-0.0051
742.7755	-0.0053
742.9525	-0.0062
743.1295	0.0075
743.3064	0.0004
743.4834	0.0138
743.6603	-0.0015
743.8372	0.0039
744.0141	-0.0002
744.191	0.0007
744.3678	-0.0029
744.5446	0.0077
744.7215	0.0074
744.8982	-0.0061
745.075	-0.01
745.2518	-0.0021
745.4285	0.0055
745.6052	-0.0007
745.7819	-0.0061
745.9586	-0.001
746.1353	0.0113
746.3119	-0.0045
746.4885	-0.0041
746.6651	-0.0002
746.8417	-0.0038
747.0183	0.0001
747.1948	0.0071
747.3714	-0.0014
747.5479	-0.0013
747.7244	-0.008
747.9008	0.0053
748.0773	0.0032
748.2537	-0.0095
748.4301	-0.0081
748.6065	0.0155
748.7829	0.0088
748.9593	-0.0031
749.1356	0.0052
749.3119	0.0062
749.4882	0.002
749.6645	0.0123
749.8408	-0.0001
750.017	-0.01
750.1933	-0.0019
750.3695	-0.0021
750.5457	0.0026
750.7218	-0.0032
750.898	-0.0012
751.0741	-0.0033
751.2502	0.0004
751.4263	-0.009
751.6024	-0.0047
751.7784	-0.0044
751.9545	-0.0069
752.1305	-0.0036
752.3065	-0.0128
752.4825	0.0073
752.6584	-0.0075
752.8344	-0.0033
753.0103	-0.0028
753.1862	0.0001
753.3621	-0.0017
753.5379	-0.009
753.7138	-0.0055
753.8896	-0.0045
754.0654	0.0022
754.2412	0.0035
754.417	0.0022
754.5927	-0.0055
754.7685	-0.0066
754.9442	-0.0071
755.1199	0.0051
755.2956	-0.0019
755.4712	0.0058
755.6469	-0.0063
755.8225	-0.0039
755.9981	0.0002
756.1736	0.0066
756.3492	0.0003
756.5248	-0.0092
756.7003	0.0021
756.8758	0.0047
757.0513	-0.0156
757.2267	-0.0087
757.4022	-0.0001
757.5776	-0.0066
757.753	0.0012
757.9284	0.0086
758.1038	0.0143
758.2791	0.0061
758.4545	0.0013
758.6298	0.0079
758.8051	0.0069
758.9803	0.0068
759.1556	0.0137
759.3308	0.0036
759.506	0.0133
759.6812	0.0038
759.8564	0.0114
760.0316	0.004
760.2067	0.0079
760.3819	0.0083
760.557	0.0152
760.732	0.0044
760.9071	-0.0123
761.0821	-0.0005
761.2572	0.0028
761.4322	-0.0022
761.6072	-0.0013
761.7821	0.0012
761.9571	0.0028
762.132	0.001
762.3069	-0.0107
762.4818	0.0014
762.6567	-0.0076
762.8316	-0.0108
763.0064	-0.0015
763.1812	-0
763.356	-0.0059
763.5308	-0.0089
763.7055	0.0064
763.8803	-0.0083
764.055	-0.008
764.2297	-0.0078
764.4044	-0.0164
764.579	-0.0072
764.7537	-0.0102
764.9283	0.0028
765.1029	-0.0155
765.2775	-0.0106
765.4521	-0.0067
765.6266	-0.0011
765.8011	-0.0043
765.9756	0.0053
766.1501	-0.0041
766.3246	0.0095
766.4991	0.0027
766.6735	-0.0097
766.8479	-0.0049
767.0223	0.006
767.1967	0.0005
767.371	0.0013
767.5454	-0.0073
767.7197	0.0004
767.894	-0.0115
768.0683	-0.0105
768.2425	0.0005
768.4168	0.0008
768.591	0.0011
768.7652	-0.0039
768.9394	-0.0041
769.1135	-0.0097
769.2877	0.0105
769.4618	-0.0013
769.6359	0.0008
769.81	-0.0012
769.984	-0.0059
770.1581	-0.0049
770.3321	0.0051
770.5061	-0.0047
770.6801	-0.0088
770.8541	0.0087
771.028	0.0066
771.202	-0.0056
771.3759	-0.0008
771.5498	-0.0096
771.7236	-0.0049
771.8975	0.0064
772.0713	0.0112
772.2451	0.0084
772.4189	0.0039
772.5927	0.0003
772.7665	0.0068
772.9402	-0.0002
773.1139	0.0041
773.2876	-0.004
773.4613	0.0143
773.635	0.0139
773.8086	0.0006
773.9822	0.0079
774.1558	0.0058
774.3294	-0.0146
774.503	0.0048
774.6765	0.0067
774.8501	0.0049
775.0236	0.0125
775.1971	-0.0022
775.3705	-0.0115
775.544	-0.0013
775.7174	-0.0092
775.8908	-0.0133
776.0642	-0.0063
776.2376	-0.006
776.4109	-0.0122
776.5843	-0.0082
776.7576	0.0011
776.9309	0.012
777.1041	0.0095
777.2774	0.0016
777.4506	0.0046
777.6238	-0.0031
777.797	-0.0004
777.9702	-0.0035
778.1434	0.0079
778.3165	-0.0148
778.4896	-0.0034
778.6627	0.0061
778.8358	-0.0031
779.0089	0.007
779.1819	0.003
779.3549	0.02
779.5279	0.0102
779.7009	0.0164
779.8739	-0.0008
780.0468	0.0079
780.2197	0.0146
780.3926	0.0054
780.5655	-0.0135
780.7384	0.0058
780.9112	0.0072
781.0841	-0.0042
781.2569	0.0115
781.4297	0.0026
781.6024	0.0008
781.7752	0.0187
781.9479	0.0125
782.1206	0.007
782.2933	-0.0031
782.466	0.0142
782.6386	-0.0006
782.8113	0.0078
782.9839	0.0108
783.1565	0.0223
783.329	0.0066
783.5016	0.0024
783.6741	0.015
783.8466	-0.0057
784.0191	0.0154
784.1916	0.0027
784.3641	0.0015
784.5365	0.0033
784.7089	0.0004
784.8813	0.0012
785.0537	0.0088
785.2261	0.0131
785.3984	-0.027
785.5707	-0.0006
785.743	-0.0035
785.9153	-0.0095
786.0876	0.0108
786.2598	-0.0023
786.432	-0.0092
786.6042	0.0114
786.7764	0.001
786.9486	0.002
787.1207	-0.0051
787.2928	0.014
787.4649	0.0036
787.637	-0.0028
787.8091	0.0037
787.9811	0.001
788.1532	-0.0115
788.3252	0.0036
788.4972	-0.0041
788.6691	-0.009
788.8411	0.0062
789.013	-0.0024
789.1849	0.014
789.3568	-0.0022
789.5287	-0.0002
789.7005	-0.006
789.8723	0.0052
790.0442	0.0155
790.2159	0.0018
790.3877	0.005
790.5595	-0.0159
790.7312	-0.0053
790.9029	-0.0002
791.0746	-0.0179
791.2463	-0.0204
791.4179	0.0029
791.5896	-0.0191
791.7612	-0.003
791.9328	-0.014
792.1044	-0.0023
792.2759	-0.0132
792.4474	-0.0157
792.619	-0.0048
792.7905	0.0004
792.9619	-0.0057
793.1334	0.0026
793.3048	0.0042
793.4762	0.0092
793.6476	-0.0044
793.819	-0.0087
793.9904	0.0095
794.1617	-0.0158
794.333	-0.0002
794.5043	-0.0037
794.6756	0.0026
794.8469	-0.0046
795.0181	-0.0051
795.1893	0.004
795.3605	0.0139
795.5317	-0.0086
795.7029	-0.0084
795.874	0.0114
796.0452	-0.0047
796.2163	0.0081
796.3873	0.0159
796.5584	-0.0044
796.7294	-0.0046
796.9005	0.0143
797.0715	-0.0052
797.2425	-0.0188
797.4134	-0.0131
797.5844	-0.0103
797.7553	-0.0177
797.9262	-0.0197
798.0971	-0.0121
798.2679	-0.0178
798.4388	-0.0111
798.6096	-0.0108
798.7804	0.0045
798.9512	-0.0208
799.122	-0.0081
799.2927	0.0112
799.4635	0.0101
799.6342	-0.0271
799.8049	-0.0085
799.9755	-0.0127
800.1462	-0.005
800.3168	0.0137
800.4874	-0.005
800.658	0.0029
800.8286	-0.0041
800.9991	-0.0012
801.1696	-0.0047
801.3402	0.0128
801.5106	-0.0129
801.6811	-0.0026
801.8516	0.0144
802.022	-0.0075
802.1924	0.0028
802.3628	0.0002
802.5332	0.0047
802.7035	0.0092
802.8739	-0.008
803.0442	-0.0111
803.2145	-0.0023
803.3847	-0.0121
803.555	-0.0143
803.7252	-0.0198
803.8954	-0.0235
804.0656	-0.0226
804.2358	-0.0135
804.4059	0.0065
804.5761	-0.0075
804.7462	-0.0066
804.9163	-0.0293
805.0864	-0.0311
805.2564	-0.0124
805.4264	-0.0179
805.5965	-0.029
805.7665	-0.0071
805.9364	-0.0056
806.1064	0.0155
806.2763	-0.003
806.4462	0.0141
806.6161	-0.0054
806.786	0.0239
806.9559	-0.0101
807.1257	-0.0092
807.2955	0.0086
807.4653	-0.0034
807.6351	0.0031
807.8048	-0.0052
807.9746	-0.0026
808.1443	-0.0051
808.314	-0.005
808.4837	-0.0219
808.6533	-0.0177
808.8229	0.0209
808.9926	-0.0203
809.1622	-0.0169
809.3317	-0.0167
809.5013	-0.0203
809.6708	-0.001
809.8403	-0.0167
810.0098	-0.0083
810.1793	-0.0127
810.3488	-0.0075
810.5182	-0.0267
810.6876	0.0022
810.857	-0.0361
811.0264	0.0158
811.1958	-0
811.3651	0.0034
811.5344	-0.012
811.7037	-0.0104
811.873	-0.0157
812.0422	0.0034
812.2115	0.0054
812.3807	-0.0168
812.5499	0.004
812.7191	0.0084
812.8882	-0.0195
813.0574	-0.0176
813.2265	-0.0132
813.3956	-0.0091
813.5646	-0.0006
813.7337	-0.0238
813.9027	0.0106
814.0718	0.017
814.2407	0.0059
814.4097	0.0033
814.5787	-0.0124
814.7476	0.0005
814.9165	0.0053
815.0854	0.0053
815.2543	-0.0189
815.4232	-0.0043
815.592	0.0116
815.7608	0.008
815.9296	0.0088
816.0984	0.0115
816.2671	0.0077
816.4359	-0.0099
816.6046	-0.0172
816.7733	0.0111
816.942	-0.0173
817.1106	-0.009
817.2793	0.0009
817.4479	-0.0046
817.6165	0.0052
817.785	0.0053
817.9536	-0.0117
818.1221	-0.0068
818.2906	-0.0139
818.4591	-0.0161
818.6276	-0.0304
818.7961	-0.0056
818.9645	0.0151
819.1329	-0.005
819.3013	0.0054
819.4697	0.0038
819.638	-0.0102
819.8064	-0.0242
819.9747	-0.0066
820.143	-0.0201
820.3113	-0.038
820.4795	0.0042
820.6477	0.0051
820.816	-0.0232
820.9842	-0.0201
821.1523	-0.0208
821.3205	-0.0259
821.4886	0.005
821.6567	-0.0281
821.8248	0.0097
821.9929	0.0259
822.1609	-0.0119
822.329	0.013
822.497	0.0095
822.665	-0.0198
822.833	-0.0047
823.0009	0.025
823.1688	0.018
823.3367	0.0296
823.5046	0.0143
823.6725	0.0526
823.8404	0.0164
824.0082	-0.0024
824.176	-0.0036
824.3438	0.0112
824.5116	-0.0005
824.6793	0.024
824.847	0.0066
825.0147	-0.0047
825.1824	0.0086
825.3501	0.0302
825.5177	-0.0247
825.6854	-0.0005
825.853	0.0388
826.0206	-0.0174
826.1881	0.0086
826.3557	-0.0368
826.5232	-0.0027
826.6907	-0.0305
826.8582	-0.0055
827.0257	-0.0265
827.1931	-0.0001
827.3605	0.0164
827.528	-0.001
827.6953	-0.0293
827.8627	-0.0157
828.03	0.0173
828.1974	-0.0171
828.3647	-0.0479
828.532	-0.0351
828.6992	-0.0306
828.8665	0.0076
829.0337	-0.016
829.2009	0.011
829.3681	-0.0132
829.5352	-0.0189
829.7024	-0.0386
829.8695	-0.034
830.0366	0.0576
830.2037	0.0155
830.3707	0.014
830.5378	-0.0204
830.7048	0.0263
830.8718	-0.0044
831.0388	-0.0125
831.2057	0.0167
831.3727	0.0512
831.5396	-0.0157
831.7065	-0.0317
831.8734	0.0053
832.0402	-0.0083
832.2071	-0.0205
832.3739	0.0005
832.5407	0.0071
832.7075	-0.0268
832.8742	-0.0286
833.041	-0.0504
833.2077	-0.0174
833.3744	0.0113
833.541	-0.0055
833.7077	-0.019
833.8743	-0.0174
834.0409	-0.021
834.2075	0.0069
834.3741	-0.0056
834.5407	0.0141
834.7072	0.0121
834.8737	-0.0345
835.0402	0.0073
835.2067	0.0151
835.3731	0.0119
835.5395	-0.0007
835.706	-0.0153
835.8723	-0.0044
836.0387	0.063
836.2051	-0.0348
836.3714	0.0089
836.5377	0.0033
836.704	-0.037
836.8703	-0.0175
837.0365	0.008
837.2027	-0.0287
837.3689	-0.0268
837.5351	-0.0249
837.7013	-0.0603
837.8674	-0.0559
838.0335	-0.081
838.1997	-0.0009
838.3657	-0.0699
838.5318	-0.0123
838.6978	0.0153
838.8639	0.0006
839.0299	0.0265
839.1958	-0.0094
839.3618	0.005
839.5277	-0.0086
839.6937	-0.0179
839.8596	-0.0162
840.0254	-0.0464
840.1913	-0.0001
840.3571	-0.0173
840.523	-0.0081
840.6888	0.0132
840.8545	-0.029
841.0203	-0.008
841.186	-0.0061
841.3517	0.0025
841.5174	-0.0189
841.6831	-0.0363
841.8488	-0.0028
842.0144	0.0341
842.18	0.0007
842.3456	0.021
842.5112	-0.0702
842.6767	-0.0351
842.8422	-0.0321
843.0077	-0.0232
843.1732	-0.0294
843.3387	0.0044
843.5042	-0.0207
843.6696	-0.0086
843.835	-0.0643
844.0004	0.0157
844.1657	0.0131
844.3311	-0.0254
844.4964	-0.0802
844.6617	-0.0271
844.827	-0.0014
844.9923	0.0185
845.1575	-0.0061
845.3227	-0.0594
845.4879	-0.0113
845.6531	-0.0784
845.8183	-0.0627
845.9834	0.0403
846.1485	-0.0224
846.3136	-0.066
846.4787	-0.0757
846.6438	0.0476
846.8088	-0.0866
846.9738	-0.0927
847.1388	0.004
847.3038	-0.0447
847.4687	-0.1588
847.6337	0.021
847.7986	0.016
847.9635	0.0271
848.1284	0.015
848.2932	0.1408
848.458	-0.0591
848.6228	0.0704
848.7876	0.1451
848.9524	-0.0521
849.1172	-0.1109
849.2819	-0.0415
849.4466	-0.1718
849.6113	-0.1257
849.7759	-0.0293
849.9406	-0.0713
850.1052	0.0235
850.2698	-0.0587
850.4344	-0.0641
850.599	-0.0518
850.7635	0.0692
850.928	-0.123
851.0925	0.0213
851.257	0.0425
851.4215	-0.0391
851.5859	0.013
851.7503	0.0234
851.9147	0.0411
852.0791	-0.15
852.2434	-0.0115
852.4078	0.0638
852.5721	0.0639
852.7364	0.0679
852.9007	-0.1886
853.0649	-0.0758
853.2291	0.0441
853.3934	0.0536
853.5575	0.0618
853.7217	-0.114
853.8859	-0.1736
854.05	0.0049
854.2141	0.0668
854.3782	-0.0117
854.5423	-0.112
854.7063	0.1863
854.8703	-0.0324
855.0343	-0.0037
855.1983	-0.0694
855.3623	0.1478
855.5262	0.1525
855.6901	-0.0531
855.854	-0.0024
856.0179	-0.0134
856.1818	0.1854
856.3456	0.069
856.5094	-0.0996
856.6732	-0.0388
856.837	-0.0006
857.0008	0.1186
857.1645	0.0277
857.3282	-0.1157
857.4919	0.1879
857.6556	0.0202
857.8192	-0.0866
857.9828	0.0288
858.1465	-0.0822
858.31	-0.1306
858.4736	-0.0464
858.6372	-0.3546
858.8007	-0.2531
858.9642	0.0179
859.1277	0.1194
859.2911	0.0377
859.4546	-0.0033
859.618	-0.323
859.7814	-0.0601
859.9448	-0.0093
860.1081	0.0377
860.2715	0.1133
860.4348	-0.0923
860.5981	-0.0859
860.7614	0.1048
860.9246	-0.2252
861.0879	-0.171
861.2511	0.1031
861.4143	-0.1514
861.5774	0.2135
861.7406	-0.2902
861.9037	0.0074
862.0668	0.071
862.2299	-0.339
862.393	-0.4823
862.556	0.3922
862.7191	-0.1883
862.8821	-0.3194
863.0451	0.0901
863.208	0.1768
863.371	-0.0225
863.5339	-0.2465
863.6968	0.0404
863.8597	1.2137
864.0225	-0.101
864.1854	-0.1705
864.3482	0.1216
864.511	-0.0541
864.6737	-0.0677
864.8365	0.0139
864.9992	-0.5161
865.1619	-0.301
865.3246	0.2665
865.4873	0.1576
865.65	-0.3587
865.8126	0.1581
865.9752	-0.158
866.1378	-0.0474
866.3004	1.1257
866.4629	0.0901
866.6254	0.3825
866.7879	0.2343
866.9504	-0
867.1129	-0
867.2753	0.2454
867.4377	0.1457
867.6001	-0.3393
867.7625	0.0666
867.9249	-0
868.0872	0.0948
868.2495	0.0636
868.4118	0.046
868.5741	-0.6336
868.7363	-0.4346
868.8986	-0.193
869.0608	-0.2536
869.223	0.2053
869.3851	-0.1322
869.5473	-0.3391
869.7094	0.1269
869.8715	-0
870.0336	-0
870.1957	0.0371
870.3577	-1.1109
870.5197	0.1908
870.6817	-0.2579
870.8437	-0.2771
871.0057	-0.8539
871.1676	-0.0839
871.3295	-0.0489
871.4914	-0
871.6533	-0.4493
871.8151	-0.3861
871.977	-0
872.1388	-0
872.3006	-0
872.4623	-0
872.6241	-0
872.7858	-0.0647
872.9475	-0.106
873.1092	-0.1995
873.2709	-0
873.4325	0.0104
873.5941	-0.191
873.7557	-0.5472
873.9173	-0.3998
874.0789	-0
874.2404	-0.7168
874.4019	0.2362
874.5634	-0.2323
874.7249	0.0901
874.8863	0.07
875.0478	0.4073
875.2092	-0
875.3706	-0.1426
875.5319	-0.9432
875.6933	-0
875.8546	-0.3642
876.0159	0.6284
876.1772	-0
876.3385	-0
876.4997	0.8822
876.6609	-0.53
876.8221	0.0969
876.9833	0.3593
877.1445	-0
877.3056	0.0627
877.4667	-0
877.6278	-0
877.7889	-0.7729
877.9499	-0
878.111	-0
878.272	-0
878.433	-0
878.5939	-0
878.7549	-0.058
878.9158	-0
879.0767	-0
879.2376	-0
879.3984	-0
879.5593	-0
879.7201	0.0226
879.8809	-0.6396
880.0417	-0.4248
880.2024	-0.0021
880.3632	-0
880.5239	0.0522
880.6846	0.732
880.8452	-0
881.0059	-1.4886
881.1665	0.082
881.3271	-0
881.4877	-0.0472
881.6483	-0.4968
881.8088	-0.4476
881.9693	-0
882.1298	-0
882.2903	-0
