Data from MonoPyChalIsomerACN10uM420nmA_Absorbance_15-09-49-235.txt Node
Date: Fri Jul 05 15:09:49 BST 2024
User: LASERRRRR
Spectrometer: FLMT03099
Trigger mode: 0
Integration Time (sec): 1.000000E-1
Scans to average: 1
Electric dark correction enabled: true
Nonlinearity correction enabled: false
Boxcar width: 0
XAxis mode: Wavelengths
Number of Pixels in Spectrum: 3648
>>>>>Begin Spectral Data<<<<<
179.3399	-0.2706
179.5586	-0.2706
179.7771	-0.2706
179.9957	0.5627
180.2143	0.1012
180.4329	0.4081
180.6514	-0
180.8699	-0
181.0885	0.3552
181.307	0.1324
181.5255	-0.4921
181.744	-0
181.9625	-0
182.181	-0
182.3994	0.0842
182.6179	-0
182.8363	0.0796
183.0547	-0.1867
183.2732	-0.0445
183.4916	-0.0327
183.71	0.0511
183.9284	-0.1093
184.1467	0.0989
184.3651	0.122
184.5835	-0.1468
184.8018	0.07
185.0201	-0.0313
185.2385	0.0121
185.4568	-0.0433
185.6751	0.387
185.8934	0.4076
186.1117	0.0012
186.3299	0.1794
186.5482	0.0245
186.7664	0.0416
186.9847	0.0348
187.2029	0.152
187.4211	0.1423
187.6393	0.2932
187.8575	0.0141
188.0757	0.1479
188.2939	0.0675
188.512	-0.1286
188.7302	-0.1861
188.9483	0.0086
189.1665	0.2042
189.3846	0.4253
189.6027	0.2695
189.8208	0.4734
190.0389	0.1615
190.257	0.2737
190.475	0.2189
190.6931	0.3507
190.9111	0.4704
191.1292	0.1098
191.3472	0.446
191.5652	0.3191
191.7832	0.3354
192.0012	0.338
192.2192	0.505
192.4371	0.5633
192.6551	0.2818
192.873	0.4579
193.091	0.2652
193.3089	0.9128
193.5268	0.5623
193.7447	0.5297
193.9626	0.5356
194.1805	0.7827
194.3984	0.7301
194.6162	0.5705
194.8341	0.693
195.0519	0.4551
195.2697	0.7476
195.4875	0.6391
195.7054	0.6693
195.9231	0.6645
196.1409	0.7794
196.3587	0.7353
196.5765	0.4887
196.7942	0.5393
197.012	0.4955
197.2297	0.518
197.4474	0.5927
197.6651	0.5118
197.8828	0.5462
198.1005	0.5539
198.3182	0.8437
198.5358	0.8644
198.7535	0.4984
198.9711	0.5879
199.1888	0.5667
199.4064	0.7283
199.624	0.4235
199.8416	0.5591
200.0592	0.6265
200.2767	0.6593
200.4943	0.5788
200.7119	0.8877
200.9294	0.6164
201.1469	0.5983
201.3645	0.5471
201.582	0.6633
201.7995	0.5974
202.017	0.6404
202.2344	0.6335
202.4519	0.8281
202.6694	0.6828
202.8868	0.6173
203.1042	0.7833
203.3217	0.7886
203.5391	0.6706
203.7565	0.6442
203.9739	0.6394
204.1913	0.6895
204.4086	0.6572
204.626	0.6934
204.8433	0.6722
205.0607	0.5807
205.278	0.8232
205.4953	0.7155
205.7126	0.6582
205.9299	0.7102
206.1472	0.7502
206.3644	0.6046
206.5817	0.7632
206.7989	0.7664
207.0162	0.6696
207.2334	0.7919
207.4506	0.6311
207.6678	0.6428
207.885	0.6395
208.1022	0.7054
208.3194	0.6275
208.5365	0.7039
208.7537	0.6821
208.9708	0.626
209.1879	0.6299
209.405	0.6937
209.6222	0.711
209.8392	0.7107
210.0563	0.6741
210.2734	0.6757
210.4905	0.6737
210.7075	0.6748
210.9245	0.6096
211.1416	0.754
211.3586	0.6422
211.5756	0.626
211.7926	0.6026
212.0096	0.5821
212.2265	0.5465
212.4435	0.6079
212.6604	0.5928
212.8774	0.6383
213.0943	0.6739
213.3112	0.558
213.5281	0.5625
213.745	0.5151
213.9619	0.5603
214.1788	0.4972
214.3956	0.4944
214.6125	0.5078
214.8293	0.4488
215.0461	0.4807
215.2629	0.4532
215.4798	0.458
215.6965	0.4329
215.9133	0.4848
216.1301	0.446
216.3469	0.4883
216.5636	0.4318
216.7803	0.3992
216.9971	0.3971
217.2138	0.4006
217.4305	0.3796
217.6472	0.3469
217.8639	0.3885
218.0805	0.3923
218.2972	0.3295
218.5138	0.3427
218.7305	0.3391
218.9471	0.3321
219.1637	0.3372
219.3803	0.2818
219.5969	0.3078
219.8135	0.2792
220.0301	0.3058
220.2466	0.2819
220.4632	0.2705
220.6797	0.2455
220.8962	0.2418
221.1127	0.2775
221.3292	0.237
221.5457	0.2426
221.7622	0.2387
221.9787	0.2522
222.1951	0.2503
222.4116	0.2665
222.628	0.2406
222.8444	0.2404
223.0608	0.2813
223.2772	0.261
223.4936	0.2765
223.71	0.2545
223.9264	0.2877
224.1427	0.2641
224.3591	0.2589
224.5754	0.2758
224.7917	0.2663
225.008	0.2647
225.2243	0.2611
225.4406	0.2887
225.6569	0.2691
225.8732	0.2628
226.0894	0.2766
226.3057	0.2716
226.5219	0.3024
226.7381	0.2645
226.9543	0.2872
227.1705	0.296
227.3867	0.2855
227.6029	0.2948
227.8191	0.3043
228.0352	0.2994
228.2513	0.3297
228.4675	0.2993
228.6836	0.3048
228.8997	0.3087
229.1158	0.3326
229.3319	0.314
229.548	0.3067
229.764	0.3197
229.9801	0.3246
230.1961	0.3253
230.4121	0.3224
230.6282	0.3464
230.8442	0.3247
231.0602	0.3361
231.2761	0.3561
231.4921	0.3421
231.7081	0.3608
231.924	0.3511
232.14	0.3712
232.3559	0.3554
232.5718	0.3751
232.7877	0.3553
233.0036	0.3768
233.2195	0.346
233.4353	0.345
233.6512	0.3821
233.867	0.3681
234.0829	0.3546
234.2987	0.3783
234.5145	0.3863
234.7303	0.3825
234.9461	0.4093
235.1619	0.3759
235.3776	0.3859
235.5934	0.3895
235.8091	0.3714
236.0249	0.3919
236.2406	0.3924
236.4563	0.3689
236.672	0.4075
236.8877	0.407
237.1034	0.4173
237.319	0.3939
237.5347	0.415
237.7503	0.3949
237.966	0.4113
238.1816	0.4171
238.3972	0.4218
238.6128	0.4008
238.8284	0.4212
239.0439	0.4194
239.2595	0.413
239.475	0.4249
239.6906	0.4225
239.9061	0.4107
240.1216	0.4267
240.3371	0.4227
240.5526	0.4053
240.7681	0.402
240.9836	0.3776
241.199	0.397
241.4145	0.3849
241.6299	0.3921
241.8453	0.3787
242.0607	0.3821
242.2761	0.367
242.4915	0.3837
242.7069	0.3787
242.9223	0.3567
243.1376	0.3652
243.353	0.3339
243.5683	0.3585
243.7836	0.3319
243.9989	0.3169
244.2142	0.2976
244.4295	0.3227
244.6448	0.3244
244.86	0.3075
245.0753	0.2921
245.2905	0.2835
245.5057	0.2803
245.721	0.2898
245.9362	0.2658
246.1514	0.2786
246.3665	0.2592
246.5817	0.2669
246.7969	0.2575
247.012	0.2518
247.2271	0.2453
247.4423	0.2507
247.6574	0.2531
247.8725	0.2348
248.0876	0.2261
248.3026	0.2252
248.5177	0.218
248.7328	0.2277
248.9478	0.2113
249.1628	0.2125
249.3779	0.2145
249.5929	0.2082
249.8079	0.2273
250.0228	0.1985
250.2378	0.2066
250.4528	0.2081
250.6677	0.1977
250.8827	0.1972
251.0976	0.202
251.3125	0.1912
251.5274	0.1732
251.7423	0.1813
251.9572	0.1983
252.172	0.1835
252.3869	0.1925
252.6017	0.1922
252.8166	0.1634
253.0314	0.1805
253.2462	0.1636
253.461	0.1873
253.6758	0.169
253.8906	0.1954
254.1053	0.1864
254.3201	0.1798
254.5348	0.1833
254.7496	0.1795
254.9643	0.1634
255.179	0.1743
255.3937	0.172
255.6083	0.1846
255.823	0.172
256.0377	0.1759
256.2523	0.1731
256.467	0.1592
256.6816	0.1839
256.8962	0.1765
257.1108	0.1689
257.3254	0.176
257.54	0.178
257.7545	0.1703
257.9691	0.1702
258.1836	0.1828
258.3981	0.1951
258.6127	0.1787
258.8272	0.1709
259.0417	0.1674
259.2561	0.1683
259.4706	0.182
259.6851	0.1718
259.8995	0.1717
260.114	0.1812
260.3284	0.1652
260.5428	0.1637
260.7572	0.1683
260.9716	0.1696
261.186	0.1591
261.4003	0.1732
261.6147	0.1688
261.829	0.1786
262.0433	0.1731
262.2577	0.1617
262.472	0.1817
262.6863	0.1669
262.9005	0.1839
263.1148	0.1633
263.3291	0.155
263.5433	0.167
263.7576	0.1667
263.9718	0.1647
264.186	0.1758
264.4002	0.1733
264.6144	0.168
264.8286	0.1671
265.0427	0.1657
265.2569	0.1625
265.471	0.1644
265.6851	0.1621
265.8993	0.1687
266.1134	0.1627
266.3275	0.1554
266.5415	0.1703
266.7556	0.1696
266.9697	0.1681
267.1837	0.1641
267.3978	0.1638
267.6118	0.1777
267.8258	0.1746
268.0398	0.1491
268.2538	0.1596
268.4677	0.1713
268.6817	0.1591
268.8957	0.1715
269.1096	0.1806
269.3235	0.1628
269.5374	0.1561
269.7514	0.1443
269.9652	0.1523
270.1791	0.1592
270.393	0.1404
270.6068	0.1511
270.8207	0.1561
271.0345	0.1472
271.2483	0.1594
271.4622	0.1506
271.676	0.1649
271.8897	0.142
272.1035	0.1358
272.3173	0.1447
272.531	0.1464
272.7448	0.1348
272.9585	0.1485
273.1722	0.1446
273.3859	0.1496
273.5996	0.1286
273.8133	0.1371
274.0269	0.1437
274.2406	0.1428
274.4542	0.1496
274.6679	0.13
274.8815	0.1429
275.0951	0.1422
275.3087	0.1505
275.5223	0.1498
275.7358	0.1532
275.9494	0.1423
276.1629	0.1352
276.3765	0.1391
276.59	0.1369
276.8035	0.1426
277.017	0.149
277.2305	0.1386
277.444	0.1476
277.6574	0.1291
277.8709	0.142
278.0843	0.1494
278.2978	0.141
278.5112	0.1393
278.7246	0.1396
278.938	0.1432
279.1513	0.1462
279.3647	0.1521
279.5781	0.1471
279.7914	0.1452
280.0047	0.1577
280.2181	0.1494
280.4314	0.1485
280.6447	0.1485
280.8579	0.143
281.0712	0.1446
281.2845	0.1581
281.4977	0.154
281.711	0.1384
281.9242	0.1531
282.1374	0.1547
282.3506	0.145
282.5638	0.1582
282.7769	0.1468
282.9901	0.1513
283.2033	0.1556
283.4164	0.1521
283.6295	0.1502
283.8426	0.1487
284.0557	0.1618
284.2688	0.1655
284.4819	0.1629
284.695	0.1487
284.908	0.1612
285.1211	0.1487
285.3341	0.1632
285.5471	0.1672
285.7601	0.1711
285.9731	0.1594
286.1861	0.1586
286.3991	0.1714
286.612	0.1629
286.825	0.1684
287.0379	0.1704
287.2508	0.1634
287.4637	0.1719
287.6766	0.1639
287.8895	0.179
288.1024	0.1776
288.3152	0.1823
288.5281	0.1665
288.7409	0.1698
288.9538	0.1633
289.1666	0.1675
289.3794	0.1643
289.5922	0.1576
289.8049	0.1708
290.0177	0.1684
290.2304	0.1788
290.4432	0.1733
290.6559	0.1678
290.8686	0.1668
291.0813	0.1741
291.294	0.1566
291.5067	0.1685
291.7194	0.1763
291.932	0.1823
292.1447	0.175
292.3573	0.1535
292.5699	0.167
292.7825	0.1703
292.9951	0.1699
293.2077	0.1801
293.4203	0.1751
293.6328	0.1602
293.8454	0.18
294.0579	0.1775
294.2704	0.1683
294.4829	0.1692
294.6954	0.1724
294.9079	0.1802
295.1204	0.1683
295.3328	0.1802
295.5453	0.1786
295.7577	0.1729
295.9701	0.1549
296.1825	0.176
296.3949	0.1755
296.6073	0.1656
296.8197	0.1695
297.0321	0.1781
297.2444	0.1618
297.4567	0.163
297.6691	0.1693
297.8814	0.1742
298.0937	0.1766
298.306	0.1733
298.5182	0.1669
298.7305	0.1712
298.9428	0.1715
299.155	0.1677
299.3672	0.1644
299.5794	0.1703
299.7916	0.1655
300.0038	0.173
300.216	0.1728
300.4282	0.178
300.6403	0.1773
300.8525	0.1772
301.0646	0.1619
301.2767	0.1797
301.4888	0.1645
301.7009	0.1736
301.913	0.1622
302.125	0.1729
302.3371	0.1654
302.5491	0.1663
302.7612	0.1758
302.9732	0.172
303.1852	0.1747
303.3972	0.1707
303.6092	0.1619
303.8211	0.1493
304.0331	0.1597
304.245	0.1614
304.457	0.1552
304.6689	0.1596
304.8808	0.1632
305.0927	0.1462
305.3046	0.1577
305.5164	0.1585
305.7283	0.1547
305.9401	0.1476
306.152	0.1499
306.3638	0.1627
306.5756	0.1462
306.7874	0.156
306.9992	0.1649
307.2109	0.1481
307.4227	0.1349
307.6344	0.1466
307.8462	0.1406
308.0579	0.138
308.2696	0.1374
308.4813	0.132
308.693	0.1368
308.9046	0.144
309.1163	0.13
309.328	0.1284
309.5396	0.1244
309.7512	0.1223
309.9628	0.1178
310.1744	0.1257
310.386	0.1271
310.5976	0.1186
310.8091	0.1171
311.0207	0.113
311.2322	0.1197
311.4437	0.1039
311.6552	0.1111
311.8667	0.1193
312.0782	0.1068
312.2897	0.1097
312.5012	0.1246
312.7126	0.0982
312.924	0.1039
313.1355	0.1156
313.3469	0.1
313.5583	0.1187
313.7696	0.1078
313.981	0.1033
314.1924	0.0937
314.4037	0.1003
314.6151	0.1061
314.8264	0.0933
315.0377	0.1025
315.249	0.1037
315.4603	0.1131
315.6716	0.1011
315.8828	0.0976
316.0941	0.0983
316.3053	0.096
316.5165	0.0957
316.7277	0.0908
316.9389	0.1007
317.1501	0.0965
317.3613	0.0989
317.5724	0.0863
317.7836	0.0945
317.9947	0.0947
318.2058	0.0942
318.417	0.0822
318.6281	0.0783
318.8391	0.0881
319.0502	0.0852
319.2613	0.0986
319.4723	0.0993
319.6834	0.1056
319.8944	0.0951
320.1054	0.0951
320.3164	0.0965
320.5274	0.0967
320.7383	0.0965
320.9493	0.1031
321.1602	0.1093
321.3712	0.078
321.5821	0.0983
321.793	0.0984
322.0039	0.0985
322.2148	0.0827
322.4257	0.0907
322.6365	0.1033
322.8474	0.0983
323.0582	0.0982
323.269	0.1055
323.4798	0.0959
323.6906	0.0956
323.9014	0.0947
324.1122	0.0997
324.3229	0.1008
324.5337	0.0978
324.7444	0.0908
324.9551	0.1118
325.1658	0.0975
325.3765	0.1058
325.5872	0.1042
325.7979	0.0931
326.0085	0.095
326.2192	0.0938
326.4298	0.1136
326.6404	0.0917
326.851	0.0943
327.0616	0.097
327.2722	0.0991
327.4828	0.1055
327.6933	0.0904
327.9039	0.1204
328.1144	0.1089
328.3249	0.1054
328.5354	0.0886
328.7459	0.1024
328.9564	0.0935
329.1669	0.0948
329.3773	0.1033
329.5878	0.102
329.7982	0.1052
330.0086	0.1028
330.219	0.103
330.4294	0.0971
330.6398	0.111
330.8502	0.0922
331.0605	0.1014
331.2708	0.1066
331.4812	0.1008
331.6915	0.1059
331.9018	0.1064
332.1121	0.0907
332.3224	0.1079
332.5326	0.1113
332.7429	0.102
332.9531	0.12
333.1633	0.1102
333.3735	0.1029
333.5837	0.1022
333.7939	0.1068
334.0041	0.1161
334.2143	0.1014
334.4244	0.1205
334.6346	0.1035
334.8447	0.1125
335.0548	0.1015
335.2649	0.103
335.475	0.1039
335.685	0.106
335.8951	0.1148
336.1051	0.1068
336.3152	0.1101
336.5252	0.1013
336.7352	0.1103
336.9452	0.1133
337.1552	0.1203
337.3652	0.1055
337.5751	0.1084
337.7851	0.106
337.995	0.1036
338.2049	0.1036
338.4148	0.1134
338.6247	0.1139
338.8346	0.1093
339.0445	0.1044
339.2543	0.1061
339.4642	0.1119
339.674	0.1059
339.8838	0.1101
340.0936	0.1117
340.3034	0.1184
340.5132	0.1158
340.7229	0.1198
340.9327	0.111
341.1424	0.095
341.3522	0.1192
341.5619	0.1272
341.7716	0.1217
341.9813	0.1211
342.1909	0.1141
342.4006	0.1194
342.6102	0.1365
342.8199	0.1038
343.0295	0.1084
343.2391	0.122
343.4487	0.1242
343.6583	0.122
343.8679	0.1197
344.0774	0.1236
344.287	0.1201
344.4965	0.1199
344.706	0.1264
344.9155	0.1168
345.125	0.1238
345.3345	0.1283
345.544	0.1261
345.7534	0.135
345.9629	0.1174
346.1723	0.1222
346.3817	0.1146
346.5911	0.1383
346.8005	0.1199
347.0099	0.1237
347.2193	0.1241
347.4286	0.1298
347.638	0.1322
347.8473	0.1307
348.0566	0.122
348.2659	0.1302
348.4752	0.1445
348.6845	0.127
348.8937	0.1306
349.103	0.1354
349.3122	0.1344
349.5214	0.1404
349.7306	0.1372
349.9398	0.1368
350.149	0.1343
350.3582	0.1296
350.5674	0.147
350.7765	0.1317
350.9856	0.1355
351.1948	0.1362
351.4039	0.1354
351.613	0.1377
351.822	0.1501
352.0311	0.1385
352.2402	0.1425
352.4492	0.1533
352.6582	0.1497
352.8672	0.1349
353.0762	0.1343
353.2852	0.1445
353.4942	0.1515
353.7032	0.1469
353.9121	0.1442
354.1211	0.1436
354.33	0.1555
354.5389	0.1534
354.7478	0.1401
354.9567	0.1496
355.1655	0.1331
355.3744	0.1489
355.5833	0.1675
355.7921	0.1567
356.0009	0.1524
356.2097	0.165
356.4185	0.1672
356.6273	0.1751
356.8361	0.177
357.0448	0.1546
357.2536	0.1588
357.4623	0.1492
357.671	0.1682
357.8797	0.1651
358.0884	0.1527
358.2971	0.1658
358.5057	0.1681
358.7144	0.1697
358.923	0.1657
359.1316	0.1752
359.3402	0.1754
359.5488	0.1732
359.7574	0.1588
359.966	0.1792
360.1746	0.1832
360.3831	0.1825
360.5916	0.1598
360.8002	0.1678
361.0087	0.1867
361.2172	0.1696
361.4256	0.1868
361.6341	0.1887
361.8426	0.1901
362.051	0.1904
362.2594	0.1714
362.4678	0.176
362.6762	0.1987
362.8846	0.1861
363.093	0.1938
363.3014	0.1803
363.5097	0.163
363.718	0.1939
363.9264	0.1975
364.1347	0.1869
364.343	0.2056
364.5513	0.1903
364.7595	0.2032
364.9678	0.1976
365.176	0.2072
365.3842	0.1986
365.5925	0.1889
365.8007	0.2059
366.0089	0.1874
366.217	0.1855
366.4252	0.2133
366.6333	0.2021
366.8415	0.2195
367.0496	0.1939
367.2577	0.2185
367.4658	0.2261
367.6739	0.2163
367.882	0.2168
368.09	0.2054
368.2981	0.2117
368.5061	0.216
368.7141	0.2158
368.9221	0.2151
369.1301	0.2106
369.3381	0.2201
369.5461	0.2242
369.754	0.2243
369.962	0.2332
370.1699	0.2254
370.3778	0.2295
370.5857	0.2105
370.7936	0.2239
371.0015	0.2317
371.2093	0.2353
371.4172	0.2212
371.625	0.2251
371.8328	0.2202
372.0406	0.2344
372.2484	0.2264
372.4562	0.2172
372.664	0.2231
372.8717	0.2341
373.0795	0.2091
373.2872	0.2447
373.4949	0.2356
373.7026	0.2413
373.9103	0.2405
374.118	0.2506
374.3256	0.2486
374.5333	0.2413
374.7409	0.2292
374.9485	0.2492
375.1561	0.228
375.3637	0.2501
375.5713	0.2452
375.7789	0.2328
375.9864	0.2263
376.194	0.2389
376.4015	0.2566
376.609	0.2458
376.8165	0.2385
377.024	0.2565
377.2315	0.2345
377.4389	0.2674
377.6464	0.2578
377.8538	0.2469
378.0612	0.2385
378.2686	0.2634
378.476	0.2752
378.6834	0.2383
378.8908	0.2594
379.0981	0.2534
379.3055	0.2573
379.5128	0.2493
379.7201	0.2553
379.9274	0.2634
380.1347	0.2602
380.342	0.2568
380.5492	0.258
380.7565	0.2557
380.9637	0.2584
381.1709	0.2618
381.3781	0.2488
381.5853	0.2745
381.7925	0.2568
381.9997	0.2777
382.2068	0.2728
382.4139	0.267
382.6211	0.2573
382.8282	0.2597
383.0353	0.2756
383.2424	0.2726
383.4494	0.271
383.6565	0.263
383.8635	0.2551
384.0706	0.269
384.2776	0.2891
384.4846	0.2456
384.6916	0.2776
384.8986	0.2609
385.1055	0.2665
385.3125	0.2731
385.5194	0.2486
385.7263	0.2729
385.9333	0.2655
386.1402	0.259
386.347	0.2673
386.5539	0.2652
386.7608	0.2754
386.9676	0.2471
387.1744	0.2564
387.3813	0.2595
387.5881	0.2719
387.7948	0.2578
388.0016	0.2681
388.2084	0.2596
388.4151	0.2747
388.6219	0.2686
388.8286	0.2705
389.0353	0.2807
389.242	0.2567
389.4487	0.2663
389.6553	0.251
389.862	0.2363
390.0686	0.2454
390.2753	0.2782
390.4819	0.2656
390.6885	0.26
390.8951	0.2348
391.1016	0.2516
391.3082	0.2618
391.5147	0.2551
391.7213	0.2506
391.9278	0.2454
392.1343	0.2554
392.3408	0.239
392.5473	0.2297
392.7537	0.2482
392.9602	0.2453
393.1666	0.2389
393.373	0.2569
393.5794	0.2596
393.7858	0.2231
393.9922	0.2255
394.1986	0.2591
394.4049	0.2438
394.6113	0.2282
394.8176	0.2325
395.0239	0.2507
395.2302	0.229
395.4365	0.2372
395.6428	0.2499
395.8491	0.2337
396.0553	0.2421
396.2615	0.2405
396.4678	0.2269
396.674	0.2096
396.8802	0.2148
397.0863	0.2377
397.2925	0.2265
397.4987	0.2249
397.7048	0.2167
397.9109	0.2344
398.117	0.2313
398.3231	0.2192
398.5292	0.2395
398.7353	0.2407
398.9413	0.2201
399.1474	0.2271
399.3534	0.2324
399.5594	0.1947
399.7654	0.2442
399.9714	0.2346
400.1774	0.2367
400.3833	0.2091
400.5893	0.225
400.7952	0.2242
401.0011	0.2264
401.207	0.2266
401.4129	0.2188
401.6188	0.2229
401.8247	0.2379
402.0305	0.2125
402.2364	0.219
402.4422	0.2505
402.648	0.2335
402.8538	0.238
403.0596	0.2127
403.2654	0.2376
403.4711	0.2306
403.6768	0.2375
403.8826	0.2354
404.0883	0.2262
404.294	0.2209
404.4997	0.2348
404.7054	0.2301
404.911	0.2153
405.1167	0.217
405.3223	0.2362
405.5279	0.2516
405.7335	0.2329
405.9391	0.2321
406.1447	0.2285
406.3502	0.2464
406.5558	0.2233
406.7613	0.2254
406.9668	0.2393
407.1724	0.215
407.3778	0.2052
407.5833	0.2203
407.7888	0.2279
407.9942	0.2393
408.1997	0.2194
408.4051	0.2354
408.6105	0.2313
408.8159	0.2223
409.0213	0.2262
409.2267	0.2228
409.432	0.2036
409.6374	0.2362
409.8427	0.2318
410.048	0.2231
410.2533	0.2145
410.4586	0.2419
410.6639	0.205
410.8691	0.2169
411.0744	0.2352
411.2796	0.2138
411.4848	0.2137
411.69	0.2154
411.8952	0.2111
412.1004	0.2193
412.3056	0.241
412.5107	0.2095
412.7158	0.2184
412.921	0.2266
413.1261	0.2372
413.3312	0.2184
413.5362	0.2318
413.7413	0.2023
413.9464	0.2183
414.1514	0.2176
414.3564	0.2035
414.5614	0.2047
414.7664	0.2313
414.9714	0.2209
415.1764	0.2021
415.3813	0.2198
415.5863	0.2102
415.7912	0.217
415.9961	0.2165
416.201	0.2073
416.4059	0.2494
416.6108	0.2135
416.8156	0.2041
417.0205	0.2159
417.2253	0.2047
417.4301	0.2149
417.6349	0.2064
417.8397	0.2095
418.0445	0.1953
418.2492	0.2159
418.454	0.2094
418.6587	0.201
418.8634	0.2049
419.0681	0.2087
419.2728	0.2029
419.4775	0.2041
419.6822	0.2107
419.8868	0.1885
420.0915	0.1938
420.2961	0.185
420.5007	0.1999
420.7053	0.1866
420.9099	0.2208
421.1144	0.2214
421.319	0.1888
421.5235	0.2106
421.728	0.2117
421.9325	0.197
422.137	0.2061
422.3415	0.2139
422.546	0.1774
422.7504	0.2003
422.9549	0.1835
423.1593	0.1958
423.3637	0.2212
423.5681	0.2051
423.7725	0.2031
423.9769	0.1926
424.1812	0.1937
424.3856	0.1912
424.5899	0.2083
424.7942	0.1916
424.9985	0.1906
425.2028	0.184
425.4071	0.1911
425.6113	0.1866
425.8156	0.2094
426.0198	0.1788
426.224	0.1634
426.4282	0.2008
426.6324	0.1785
426.8366	0.1706
427.0407	0.1688
427.2449	0.1724
427.449	0.19
427.6531	0.1529
427.8572	0.1734
428.0613	0.1686
428.2654	0.1687
428.4694	0.1689
428.6735	0.163
428.8775	0.1821
429.0815	0.1633
429.2855	0.1744
429.4895	0.1652
429.6935	0.1747
429.8975	0.1735
430.1014	0.1688
430.3053	0.1478
430.5093	0.1548
430.7132	0.1472
430.9171	0.1542
431.1209	0.1492
431.3248	0.1352
431.5286	0.154
431.7325	0.1349
431.9363	0.1477
432.1401	0.1543
432.3439	0.1204
432.5477	0.1309
432.7514	0.1252
432.9552	0.1241
433.1589	0.1118
433.3627	0.1396
433.5664	0.1159
433.7701	0.1127
433.9737	0.1105
434.1774	0.1239
434.3811	0.1215
434.5847	0.1215
434.7883	0.1153
434.9919	0.1148
435.1955	0.1176
435.3991	0.1111
435.6027	0.1258
435.8062	0.1055
436.0098	0.0994
436.2133	0.1198
436.4168	0.1063
436.6203	0.0974
436.8238	0.1153
437.0272	0.1025
437.2307	0.103
437.4341	0.1051
437.6375	0.1164
437.841	0.0838
438.0443	0.1161
438.2477	0.0925
438.4511	0.0842
438.6545	0.0874
438.8578	0.0986
439.0611	0.098
439.2644	0.0995
439.4677	0.0693
439.671	0.0755
439.8743	0.0895
440.0775	0.091
440.2808	0.0884
440.484	0.0672
440.6872	0.0691
440.8904	0.0696
441.0936	0.089
441.2967	0.0745
441.4999	0.0748
441.703	0.0821
441.9062	0.0711
442.1093	0.0619
442.3124	0.0716
442.5155	0.053
442.7185	0.0558
442.9216	0.0434
443.1246	0.069
443.3276	0.0605
443.5307	0.0611
443.7337	0.0645
443.9366	0.065
444.1396	0.0602
444.3426	0.0575
444.5455	0.0585
444.7484	0.0444
444.9513	0.0426
445.1542	0.0612
445.3571	0.0488
445.56	0.0529
445.7628	0.0364
445.9657	0.0518
446.1685	0.0543
446.3713	0.0529
446.5741	0.0384
446.7769	0.0376
446.9797	0.0449
447.1824	0.0548
447.3852	0.0251
447.5879	0.063
447.7906	0.0517
447.9933	0.0508
448.196	0.0297
448.3986	0.0383
448.6013	0.0351
448.8039	0.0149
449.0066	0.0263
449.2092	0.0433
449.4118	0.0325
449.6143	0.032
449.8169	0.0348
450.0195	0.0192
450.222	0.0022
450.4245	0.0261
450.627	0.0473
450.8295	0.0351
451.032	0.0295
451.2345	0.0274
451.4369	0.039
451.6394	0.0299
451.8418	0.0093
452.0442	0.0261
452.2466	0.042
452.449	-0.0034
452.6513	0.0235
452.8537	0.0114
453.056	0.0072
453.2583	0.016
453.4607	0.011
453.663	0.0226
453.8652	0.0259
454.0675	0.0058
454.2697	0.0203
454.472	0.0037
454.6742	0.0035
454.8764	0.002
455.0786	0.0244
455.2808	0.0074
455.4829	0.0175
455.6851	0.0101
455.8872	0.0114
456.0893	0.0129
456.2915	-0.0008
456.4935	0.0121
456.6956	-0.0008
456.8977	0.0112
457.0997	0.0153
457.3018	0.0033
457.5038	0.0117
457.7058	-0.0121
457.9078	0.0016
458.1098	0.0314
458.3117	0.0142
458.5137	0.0018
458.7156	0.0104
458.9175	-0.0083
459.1194	0.0036
459.3213	-0.0009
459.5232	0.0055
459.725	-0.013
459.9269	0.0062
460.1287	-0.0055
460.3305	0.0022
460.5323	0.0075
460.7341	-0.0021
460.9359	-0.0037
461.1376	0.01
461.3394	0.0052
461.5411	0.0006
461.7428	-0.0015
461.9445	0.0073
462.1462	0.0162
462.3479	-0.0047
462.5495	-0.0074
462.7512	0.0016
462.9528	-0.0081
463.1544	-0.0045
463.356	0.0105
463.5576	0.0034
463.7592	0.0048
463.9607	0.0035
464.1623	0.0196
464.3638	0.019
464.5653	-0.0039
464.7668	-0.0077
464.9683	0.0064
465.1697	0.0127
465.3712	-0.0063
465.5726	-0.0158
465.7741	-0.0014
465.9755	-0.0049
466.1769	-0.0003
466.3782	0.0043
466.5796	-0.0045
466.7809	0.0014
466.9823	0.0041
467.1836	0.0039
467.3849	-0.0001
467.5862	0.0063
467.7875	0.0092
467.9887	0.0132
468.19	-0.0009
468.3912	-0.0084
468.5924	-0.0056
468.7936	-0.0017
468.9948	0.0036
469.196	0.0058
469.3972	-0.0088
469.5983	0.0123
469.7994	-0.0164
470.0006	-0.0009
470.2017	-0.0189
470.4027	-0.0056
470.6038	0.0099
470.8049	-0.0187
471.0059	-0.0165
471.2069	-0.0188
471.408	-0.0088
471.6089	0.0028
471.8099	-0.0083
472.0109	0.0076
472.2119	-0.0077
472.4128	-0.0187
472.6137	-0.0054
472.8146	-0.0168
473.0155	-0.0153
473.2164	-0.0053
473.4173	0.0056
473.6181	-0.0073
473.819	-0.0091
474.0198	-0.0166
474.2206	-0.0002
474.4214	-0.015
474.6222	-0.0136
474.8229	-0.0047
475.0237	-0.0173
475.2244	-0.0175
475.4251	-0.0108
475.6258	-0.0066
475.8265	-0.0032
476.0272	0.0139
476.2278	-0.0008
476.4285	-0.0101
476.6291	-0.0239
476.8297	-0.0142
477.0303	0.0033
477.2309	-0.0044
477.4315	-0.025
477.632	-0.017
477.8326	0.005
478.0331	-0.0099
478.2336	-0.0028
478.4341	-0.0013
478.6346	-0.014
478.8351	-0.0073
479.0355	-0.0062
479.236	-0.0131
479.4364	-0.0164
479.6368	-0.0033
479.8372	-0.0182
480.0376	0.008
480.2379	-0.0258
480.4383	-0.0077
480.6386	-0.0084
480.8389	-0.0004
481.0392	-0.0103
481.2395	-0.0132
481.4398	0.0023
481.6401	-0.0102
481.8403	-0.005
482.0405	-0.0117
482.2408	-0.01
482.441	0.0134
482.6411	-0.0126
482.8413	-0.0134
483.0415	-0.0152
483.2416	-0.0091
483.4417	-0.0128
483.6419	-0.0072
483.8419	-0.0079
484.042	0.0055
484.2421	-0.0023
484.4422	-0.007
484.6422	-0.004
484.8422	-0.0087
485.0422	-0.0064
485.2422	0.0065
485.4422	-0.0139
485.6422	-0.0085
485.8421	-0.0112
486.042	-0.0026
486.242	-0.0038
486.4419	-0.0169
486.6417	-0.0171
486.8416	0.0008
487.0415	-0.0102
487.2413	-0.0083
487.4411	-0.0206
487.641	-0.0132
487.8408	-0.0002
488.0405	-0.0084
488.2403	-0.0106
488.4401	0.0006
488.6398	-0.0019
488.8395	-0.0133
489.0392	-0.0127
489.2389	-0.009
489.4386	-0.0116
489.6383	-0.0049
489.8379	-0.0026
490.0376	-0.0155
490.2372	-0.0166
490.4368	-0.0123
490.6364	-0.0055
490.836	-0.0125
491.0355	-0.0066
491.2351	-0.0184
491.4346	-0.0099
491.6341	-0.0204
491.8336	-0.0082
492.0331	-0.0138
492.2326	-0.0168
492.432	-0.0093
492.6315	-0.011
492.8309	-0.0151
493.0303	-0.0149
493.2297	-0.0062
493.4291	-0.0025
493.6284	-0.008
493.8278	-0.0067
494.0271	0.0031
494.2264	0.0103
494.4257	-0.0161
494.625	-0.0063
494.8243	-0.0188
495.0236	-0.0258
495.2228	-0.021
495.422	-0.0145
495.6213	-0.0089
495.8205	-0.013
496.0196	-0.002
496.2188	-0.001
496.418	-0.0223
496.6171	-0.0121
496.8162	-0.0129
497.0153	-0.0088
497.2144	-0.0146
497.4135	-0.0071
497.6126	-0.0081
497.8116	-0.01
498.0107	-0.0016
498.2097	-0.0192
498.4087	-0.0121
498.6077	-0.0055
498.8067	-0.0099
499.0056	-0.0118
499.2046	-0.02
499.4035	-0.0289
499.6024	-0.0039
499.8013	-0.0022
500.0002	-0.0167
500.199	-0.0086
500.3979	-0.0126
500.5967	-0.0295
500.7956	-0.0123
500.9944	-0.0184
501.1932	-0.0185
501.3919	-0.017
501.5907	-0.0168
501.7895	-0.0107
501.9882	-0.0228
502.1869	-0.0245
502.3856	-0.0153
502.5843	-0.0177
502.783	-0.0078
502.9816	-0.0191
503.1803	-0.0159
503.3789	-0.0193
503.5775	0.0048
503.7761	-0.0132
503.9747	-0.0074
504.1732	-0.0121
504.3718	-0.0096
504.5703	-0.0157
504.7689	-0.0113
504.9674	-0.0098
505.1658	-0.0124
505.3643	-0.0102
505.5628	-0.0152
505.7612	-0.01
505.9597	-0.0083
506.1581	-0.0049
506.3565	-0.0023
506.5549	-0.0055
506.7532	-0.0281
506.9516	-0.0152
507.1499	-0.011
507.3482	-0.0191
507.5465	-0.0132
507.7448	-0.007
507.9431	-0.0145
508.1414	-0.0117
508.3396	-0.0134
508.5379	-0.0022
508.7361	-0.0073
508.9343	-0.0142
509.1325	-0.0016
509.3306	-0.0142
509.5288	-0.0059
509.7269	-0.0117
509.9251	-0.014
510.1232	-0.0173
510.3213	-0.0049
510.5193	-0.003
510.7174	-0.0156
510.9154	-0.0103
511.1135	-0.0105
511.3115	-0.01
511.5095	-0.0173
511.7075	-0.0088
511.9055	-0.0048
512.1034	-0.0183
512.3014	-0.0066
512.4993	-0.0047
512.6972	-0.0122
512.8951	-0.0166
513.093	-0.0088
513.2908	-0.011
513.4887	-0.0151
513.6865	-0.0113
513.8844	-0.0129
514.0822	-0.0184
514.2799	-0.011
514.4777	-0.0178
514.6755	-0.0123
514.8732	-0.0113
515.0709	-0.0152
515.2687	-0.0171
515.4664	-0.0015
515.664	-0.0106
515.8617	-0.0068
516.0594	-0.0226
516.257	-0.0111
516.4546	-0.0233
516.6522	-0.0124
516.8498	-0.0056
517.0474	-0.0047
517.2449	-0.0037
517.4425	-0.0211
517.64	-0.0041
517.8375	-0.0025
518.035	-0.0016
518.2325	-0.01
518.43	-0.0037
518.6274	-0.0084
518.8249	-0.0208
519.0223	-0.0092
519.2197	-0.0117
519.4171	-0.0108
519.6145	-0.0158
519.8118	-0.0041
520.0092	-0.0112
520.2065	-0.0149
520.4038	-0.0169
520.6011	-0.0109
520.7984	-0.0281
520.9956	-0.02
521.1929	-0.0063
521.3901	-0.0035
521.5874	-0.0077
521.7846	0.0025
521.9818	-0.0167
522.1789	-0.0154
522.3761	-0.0092
522.5732	-0.0117
522.7704	-0.0094
522.9675	-0.0153
523.1646	-0.0112
523.3617	-0.0046
523.5587	0.0061
523.7558	-0.0168
523.9528	-0.0071
524.1498	-0.0081
524.3468	-0.015
524.5438	-0.0109
524.7408	-0.0129
524.9378	-0.0042
525.1347	-0.0061
525.3316	0.0083
525.5285	-0.0162
525.7254	-0.0129
525.9223	-0.0068
526.1192	-0.0119
526.316	-0.0179
526.5129	-0.0019
526.7097	-0.0109
526.9065	-0.0086
527.1033	-0.0126
527.3	-0.0041
527.4968	-0.0079
527.6935	-0.0056
527.8903	-0.0187
528.087	-0.011
528.2837	-0.0102
528.4804	-0.0065
528.677	-0.0135
528.8737	0.0008
529.0703	-0.0014
529.2669	-0.01
529.4635	-0.0021
529.6601	-0.004
529.8567	-0.0124
530.0532	-0.0069
530.2498	0.0004
530.4463	-0.0045
530.6428	-0.0087
530.8393	0.0001
531.0358	-0.0152
531.2322	-0.0093
531.4287	-0.0008
531.6251	-0.0111
531.8215	0.0068
532.0179	-0.0053
532.2143	0.002
532.4107	-0.0123
532.607	-0.0139
532.8034	0.003
532.9997	-0.0078
533.196	-0.0004
533.3923	-0.0172
533.5886	-0.0051
533.7848	-0.0051
533.9811	0.0073
534.1773	-0.0002
534.3735	0.0027
534.5697	-0.015
534.7659	-0.0014
534.9621	0.0011
535.1582	-0.0123
535.3544	-0.0178
535.5505	-0.016
535.7466	-0.0162
535.9427	-0.0173
536.1387	-0.0047
536.3348	-0.0004
536.5308	0.0002
536.7269	-0.0204
536.9229	0.0011
537.1189	-0.0069
537.3148	-0.0137
537.5108	-0.0138
537.7068	-0.0084
537.9027	-0.0079
538.0986	-0.0029
538.2945	-0.0146
538.4904	-0.0118
538.6863	-0.0022
538.8821	-0.0133
539.078	-0.0107
539.2738	0.0021
539.4696	-0.0022
539.6654	-0.0006
539.8611	0.0037
540.0569	-0.0078
540.2526	-0.0087
540.4484	-0.0069
540.6441	0.0007
540.8398	-0.007
541.0355	-0.0081
541.2311	-0.0087
541.4268	-0.0122
541.6224	0.0008
541.818	-0.0026
542.0136	-0.0044
542.2092	-0.0027
542.4048	0.0046
542.6003	-0.0009
542.7959	-0.0091
542.9914	-0.0148
543.1869	-0.0091
543.3824	0.0014
543.5779	-0.0027
543.7734	-0.0104
543.9688	-0.0055
544.1642	0.0058
544.3596	-0.0002
544.555	-0.0109
544.7504	-0.0016
544.9458	-0.0087
545.1411	-0.0035
545.3365	-0.0044
545.5318	-0.0085
545.7271	-0.0061
545.9224	-0.0077
546.1177	-0.0057
546.3129	-0.0068
546.5081	-0.0093
546.7034	-0.0077
546.8986	-0.0018
547.0938	-0.0097
547.289	-0.0007
547.4841	-0.0028
547.6793	0.002
547.8744	-0.0062
548.0695	-0.0057
548.2646	-0.0065
548.4597	-0.0011
548.6548	-0.0036
548.8498	0.001
549.0448	0.0045
549.2399	0.0002
549.4349	0.0043
549.6298	0.0003
549.8248	-0.0027
550.0198	-0.003
550.2147	-0.0037
550.4096	-0.0094
550.6045	-0.0063
550.7994	0.0027
550.9943	-0.0032
551.1892	-0.0043
551.384	0.0059
551.5788	-0.0056
551.7737	0.0029
551.9685	-0.0038
552.1632	-0.0006
552.358	-0.0063
552.5528	0.003
552.7475	-0.0031
552.9422	-0.0091
553.1369	-0.0009
553.3316	-0.0003
553.5263	-0.0059
553.7209	-0.0007
553.9156	-0.0015
554.1102	-0.007
554.3048	-0.0007
554.4994	-0.0047
554.694	-0.0099
554.8885	-0.0027
555.0831	-0.0063
555.2776	-0.0066
555.4721	-0.0032
555.6666	-0.0046
555.8611	0.0066
556.0555	-0.0033
556.25	-0.002
556.4444	-0.0134
556.6388	-0.0054
556.8332	-0.0006
557.0276	-0.0016
557.222	-0.0076
557.4163	-0.0039
557.6107	-0.0112
557.805	0.0016
557.9993	-0.0075
558.1936	-0.0025
558.3879	-0.0085
558.5821	0.0033
558.7764	-0.0012
558.9706	0.0043
559.1648	0.0015
559.359	-0.0007
559.5532	-0.0128
559.7473	0.0009
559.9415	-0.0013
560.1356	-0.0058
560.3297	-0.0026
560.5238	-0.0044
560.7179	-0.0076
560.9119	-0.0072
561.106	-0.0028
561.3	-0.0065
561.494	-0.005
561.688	-0.0055
561.882	-0.0165
562.076	-0.0054
562.2699	0.0017
562.4639	0.0073
562.6578	0.0019
562.8517	0.0006
563.0456	0.0033
563.2395	0.001
563.4333	0.003
563.6272	0.0014
563.821	-0.0016
564.0148	0.0025
564.2086	-0.0095
564.4024	-0.0039
564.5961	-0.0049
564.7899	0.0028
564.9836	0.002
565.1773	0.0043
565.371	0.0079
565.5647	0.0085
565.7584	0.0021
565.952	0.0011
566.1456	0.0011
566.3393	0.0002
566.5329	0.0006
566.7264	-0.0041
566.92	-0.0111
567.1136	-0.0033
567.3071	-0.0065
567.5006	0.0037
567.6941	0.0016
567.8876	0.0061
568.0811	-0.0062
568.2745	0.0063
568.468	0.0049
568.6614	0.0064
568.8548	-0.0002
569.0482	-0.0017
569.2416	-0.0035
569.4349	-0.0017
569.6283	0.0067
569.8216	-0.0025
570.0149	-0.0085
570.2082	-0.0031
570.4015	0.0038
570.5947	0.0029
570.788	0.0073
570.9812	0.0024
571.1744	-0.0026
571.3676	-0.0055
571.5608	-0.0137
571.754	-0.0012
571.9471	0.007
572.1402	-0.0013
572.3333	-0.0007
572.5264	0.0002
572.7195	-0.0064
572.9126	-0.0007
573.1057	-0.0057
573.2987	-0.0034
573.4917	-0.0066
573.6847	-0.0115
573.8777	-0.0023
574.0707	0.0054
574.2636	-0.0046
574.4566	-0.0057
574.6495	0.0054
574.8424	-0.0038
575.0353	-0.0041
575.2281	0.0063
575.421	-0.0012
575.6138	0
575.8067	-0.0036
575.9995	0.0033
576.1923	-0.0027
576.385	-0.0046
576.5778	-0.0044
576.7706	-0.0066
576.9633	0.0037
577.156	0.0019
577.3487	-0.0032
577.5414	-0.0048
577.734	-0.0064
577.9267	0.0006
578.1193	-0.0142
578.3119	-0.0113
578.5045	-0.0013
578.6971	-0.0062
578.8897	-0.0019
579.0822	-0.0044
579.2747	-0.0017
579.4673	-0.0049
579.6598	-0.0056
579.8522	-0.011
580.0447	-0.0067
580.2372	-0.0049
580.4296	0.0046
580.622	-0.0031
580.8144	-0.0025
581.0068	-0.0106
581.1992	-0.0149
581.3915	-0.0113
581.5839	-0.0098
581.7762	-0.0075
581.9685	-0.0071
582.1608	0.0006
582.353	0.002
582.5453	-0.0057
582.7375	0.0023
582.9298	-0.0001
583.122	-0.0038
583.3142	0.0018
583.5063	-0.0011
583.6985	-0.0038
583.8906	-0.0013
584.0827	-0.0044
584.2749	-0.006
584.4669	-0.0017
584.659	-0.0049
584.8511	-0.0081
585.0431	-0.0057
585.2352	-0.0016
585.4272	-0.0006
585.6192	-0.0008
585.8111	0.0018
586.0031	-0.0033
586.195	-0.0025
586.387	0.0029
586.5789	-0.0022
586.7708	0.0013
586.9627	-0.0057
587.1545	-0.0079
587.3464	-0.0014
587.5382	0.0017
587.73	0.0022
587.9218	0.0061
588.1136	-0.0033
588.3053	0.003
588.4971	-0.0083
588.6888	-0.0126
588.8805	0.0021
589.0722	0.0003
589.2639	0.0017
589.4556	-0.001
589.6472	0.0017
589.8389	-0.0072
590.0305	-0.0104
590.2221	-0.0035
590.4137	-0.0099
590.6052	0.0032
590.7968	-0.0016
590.9883	0.0002
591.1798	-0.0038
591.3713	0.0031
591.5628	0.0044
591.7543	0.0006
591.9458	0.0002
592.1372	0.0008
592.3286	0.0102
592.52	0.0092
592.7114	-0.009
592.9028	-0.0005
593.0941	-0.0058
593.2855	-0.001
593.4768	-0.0145
593.6681	-0.0056
593.8594	-0.0018
594.0506	0.0034
594.2419	0.0058
594.4331	-0.0031
594.6244	0.0043
594.8156	-0.0065
595.0067	0.0075
595.1979	-0.0022
595.3891	0.0024
595.5802	0.0043
595.7713	-0.0046
595.9624	-0.0027
596.1535	-0.002
596.3446	-0.0055
596.5357	0.0017
596.7267	0.0137
596.9177	0.0025
597.1087	-0.0055
597.2997	-0.003
597.4907	-0.003
597.6817	-0.0027
597.8726	0.0039
598.0635	-0.0064
598.2544	-0.0019
598.4453	0.0004
598.6362	-0.0013
598.827	-0.0005
599.0179	0.0099
599.2087	0.0078
599.3995	0.0016
599.5903	0.0065
599.7811	-0.0045
599.9718	0.0039
600.1626	0.0026
600.3533	-0.0028
600.544	0.0025
600.7347	0.0067
600.9254	0.0023
601.116	-0.0053
601.3067	-0.0053
601.4973	0.0021
601.6879	0.0072
601.8785	-0.0017
602.0691	0.0045
602.2596	0.0083
602.4502	0.0021
602.6407	0.0024
602.8312	0.0057
603.0217	-0.0022
603.2122	0.0034
603.4027	0.0067
603.5931	0.0054
603.7835	0.0016
603.9739	-0.0025
604.1643	-0.0028
604.3547	0.0028
604.5451	0.0029
604.7354	0.0026
604.9257	0.004
605.116	-0.0009
605.3063	0.0023
605.4966	0.0014
605.6869	-0.0007
605.8771	0.0064
606.0673	0.0068
606.2575	0.0056
606.4477	0.0085
606.6379	0.0022
606.8281	0.0019
607.0182	0.0014
607.2083	0.0069
607.3985	-0.0035
607.5885	-0.0017
607.7786	0.0047
607.9687	-0.0039
608.1587	0.0058
608.3488	-0.0004
608.5388	0.0004
608.7288	-0.0002
608.9187	-0.0016
609.1087	-0.0067
609.2986	-0.0047
609.4886	-0.0009
609.6785	-0.005
609.8684	-0.0001
610.0582	-0.0003
610.2481	-0.0015
610.4379	-0.0095
610.6278	-0.0079
610.8176	-0.0025
611.0074	0.0007
611.1971	-0.0036
611.3869	0.0007
611.5766	-0.007
611.7664	0.0012
611.9561	0.0054
612.1458	0.0004
612.3354	-0.007
612.5251	0.0006
612.7147	0.0001
612.9044	0.0042
613.094	-0.0031
613.2836	0.0014
613.4731	-0.0077
613.6627	-0.0054
613.8522	0.0032
614.0417	-0.0004
614.2313	-0.0036
614.4207	-0.006
614.6102	-0.0041
614.7997	-0.0052
614.9891	-0.0076
615.1785	-0.001
615.3679	-0.0007
615.5573	0.0072
615.7467	-0.0015
615.9361	-0.0011
616.1254	-0.0052
616.3147	0.0013
616.504	0.0031
616.6933	0.0026
616.8826	-0.0017
617.0718	0.0074
617.2611	0.003
617.4503	-0.0027
617.6395	-0.0089
617.8287	-0.0058
618.0179	-0.002
618.207	0.0099
618.3961	0.0017
618.5853	-0.0056
618.7744	0.0047
618.9634	0
619.1525	0.0035
619.3416	0.0017
619.5306	0.0036
619.7196	-0.003
619.9086	-0.0098
620.0976	0.0031
620.2866	0.0019
620.4755	0.0048
620.6645	0.0081
620.8534	0.0048
621.0423	0.0063
621.2312	0.0031
621.42	0.0004
621.6089	-0.0011
621.7977	-0.0015
621.9865	-0.0084
622.1753	0.0051
622.3641	-0.0015
622.5529	0.0078
622.7416	0.0104
622.9303	-0.0044
623.1191	0.0059
623.3078	-0.0054
623.4964	-0.0027
623.6851	0.0005
623.8737	-0.007
624.0624	0.0021
624.251	-0.003
624.4396	0.0038
624.6282	0.0007
624.8167	-0
625.0053	0.0063
625.1938	0.0042
625.3823	-0.0041
625.5708	0.0012
625.7593	-0.0041
625.9477	-0.0038
626.1362	0.0019
626.3246	0.0051
626.513	0.0082
626.7014	0.0085
626.8898	0.0001
627.0781	0.0028
627.2665	-0.0032
627.4548	0.0086
627.6431	0.0079
627.8314	0.0041
628.0197	0.0032
628.2079	-0.001
628.3962	-0.0029
628.5844	0.0083
628.7726	0.0036
628.9608	0.0065
629.1489	0.0037
629.3371	0.0124
629.5252	0.0046
629.7134	0.0103
629.9015	0.0052
630.0895	-0.0031
630.2776	0.006
630.4657	0.0011
630.6537	0.0036
630.8417	0.0037
631.0297	-0.0031
631.2177	0.0023
631.4057	-0.0027
631.5936	0.0007
631.7815	-0.0019
631.9695	-0.0006
632.1574	0.0041
632.3452	0.0069
632.5331	0.0002
632.7209	-0.0013
632.9088	0.008
633.0966	0.0061
633.2844	-0.0034
633.4722	0.0038
633.6599	0.0143
633.8477	0.0076
634.0354	0.003
634.2231	0.0012
634.4108	0.0054
634.5985	0.0076
634.7861	-0.0015
634.9738	0.002
635.1614	0.0072
635.349	0.0029
635.5366	-0.0058
635.7242	0.0002
635.9117	0.0022
636.0993	0.0076
636.2868	0.0049
636.4743	-0.0061
636.6618	0.0124
636.8492	0.0002
637.0367	-0.0022
637.2241	0.004
637.4115	-0.0055
637.5989	-0.0028
637.7863	0.0022
637.9737	-0.0026
638.161	0.0037
638.3484	-0.0002
638.5357	0.0085
638.723	0.0021
638.9103	0.0039
639.0975	0.0086
639.2848	0.003
639.472	0.01
639.6592	0.0049
639.8464	0.0151
640.0336	0.0089
640.2208	-0.0029
640.4079	0.0043
640.595	0.0051
640.7821	0.0006
640.9692	0.0045
641.1563	0.0053
641.3434	0.0091
641.5304	0.0051
641.7174	0.0039
641.9044	0.0012
642.0914	0.011
642.2784	0.0064
642.4653	0.0077
642.6523	0.0021
642.8392	-0.0018
643.0261	0.0118
643.213	0.0056
643.3999	0.0009
643.5867	0.0037
643.7735	0.0049
643.9604	-0.0053
644.1472	0.0017
644.3339	0.0057
644.5207	0.0013
644.7075	0.0005
644.8942	0.007
645.0809	0.0112
645.2676	0.0058
645.4543	0.0033
645.6409	0.0063
645.8276	0.0046
646.0142	0.0079
646.2008	-0.0002
646.3874	0.0076
646.574	0.0035
646.7605	0.0001
646.9471	-0.0046
647.1336	0.0007
647.3201	-0.0022
647.5066	0.0038
647.6931	0.0001
647.8795	0.0004
648.0659	0.003
648.2524	0.0103
648.4388	0.0005
648.6252	0.0076
648.8115	0.0017
648.9979	0.0055
649.1842	-0.0022
649.3705	0.0106
649.5568	0.0007
649.7431	0.0076
649.9294	0.0043
650.1156	0.0032
650.3018	0.0047
650.488	0.004
650.6742	0.0019
650.8604	-0.001
651.0466	-0.0019
651.2327	-0.0021
651.4188	0.0034
651.6049	0.0046
651.791	0.0012
651.9771	0.0072
652.1632	0.0003
652.3492	0.0104
652.5352	0.0049
652.7212	-0.0034
652.9072	0.0113
653.0932	0.0047
653.2791	0.0042
653.465	0.0001
653.651	-0.0044
653.8369	-0.0024
654.0227	-0.0037
654.2086	0.0115
654.3944	0.0089
654.5803	0.0061
654.7661	-0.0025
654.9519	0.0052
655.1377	-0.0016
655.3234	-0.0029
655.5092	-0.0051
655.6949	-0.0047
655.8806	-0.0041
656.0663	-0.0045
656.2519	-0.005
656.4376	-0.0091
656.6232	0.0063
656.8088	0.0047
656.9945	-0.0023
657.18	0.0036
657.3656	0.0081
657.5511	0.0027
657.7367	-0.002
657.9222	0.0023
658.1077	0.0042
658.2932	0.0095
658.4786	-0.0084
658.6641	-0.0001
658.8495	0.0017
659.0349	-0.0086
659.2203	0.0098
659.4057	0.007
659.591	0.0017
659.7764	0.0038
659.9617	0.0064
660.147	-0.0008
660.3323	0.009
660.5176	0.0114
660.7028	0.0138
660.888	0.0033
661.0733	0.002
661.2585	0.0028
661.4436	0.0063
661.6288	0.0022
661.8139	-0.0022
661.9991	0.0044
662.1842	-0.0011
662.3693	0.0016
662.5544	0.0021
662.7394	0.0069
662.9245	0.0015
663.1095	0.0008
663.2945	0.0004
663.4795	-0.0027
663.6644	0.0067
663.8494	-0.0008
664.0343	-0.0011
664.2193	-0.0044
664.4042	-0.0003
664.589	-0.0022
664.7739	-0.0048
664.9587	-0.0063
665.1436	-0.0023
665.3284	-0.0003
665.5132	0.0003
665.698	0.0062
665.8827	0.0054
666.0675	0.0066
666.2522	-0.0009
666.4369	0.0059
666.6216	0.0138
666.8063	0.0094
666.9909	0.0059
667.1756	-0.0055
667.3602	0.0031
667.5448	0.0061
667.7294	0.0096
667.9139	0.0111
668.0985	0.0203
668.283	0.0019
668.4675	0.0074
668.652	-0.0004
668.8365	-0.0005
669.0209	0.0064
669.2054	0.0086
669.3898	-0.0016
669.5742	-0.0025
669.7586	0.0057
669.943	0.0162
670.1273	0.0166
670.3117	0.0066
670.496	0.0037
670.6803	0.018
670.8646	0.0059
671.0488	0.0004
671.2331	0.0145
671.4173	0.0063
671.6015	0.0022
671.7857	0.0033
671.9699	0.0125
672.1541	0.0048
672.3382	0.0078
672.5223	0.0183
672.7064	0.0085
672.8905	0.0098
673.0746	0.007
673.2587	0.0016
673.4427	0.0132
673.6267	0.0063
673.8107	0.0141
673.9947	0.0046
674.1787	0.0096
674.3626	-0.0016
674.5465	0.0124
674.7304	0.0037
674.9143	0.0117
675.0982	0.0064
675.2821	-0.0003
675.4659	0.0062
675.6497	0.0017
675.8335	0.0024
676.0173	0.0072
676.2011	0.0044
676.3849	0.0023
676.5686	-0.0074
676.7523	0.0034
676.936	0.0004
677.1197	0.0048
677.3034	-0.0017
677.487	0.0057
677.6706	0.0034
677.8542	0.0097
678.0378	0.006
678.2214	0.0011
678.405	0.0038
678.5885	-0.0031
678.772	0.0109
678.9555	0.0021
679.139	0.002
679.3225	0.0005
679.5059	0.0066
679.6894	0.0073
679.8728	0.0084
680.0562	0.0015
680.2395	-0.0068
680.4229	-0.0012
680.6062	0.0083
680.7896	0.0001
680.9729	-0.0017
681.1562	0.011
681.3394	0.0011
681.5227	-0.0054
681.7059	0.0069
681.8891	0.0015
682.0723	0.0111
682.2555	0.0046
682.4387	0.0024
682.6218	-0.0063
682.805	0.0096
682.9881	0.0029
683.1712	-0.0042
683.3542	-0.0017
683.5373	0.0091
683.7203	-0.0008
683.9034	0.0064
684.0864	-0.0078
684.2694	0.0052
684.4523	0.0077
684.6353	0.0023
684.8182	0.0008
685.0011	-0.0028
685.184	0.0155
685.3669	0.0085
685.5498	0.009
685.7326	0.0093
685.9154	-0.0029
686.0982	0.0097
686.281	0.0147
686.4638	0.0033
686.6465	0.0008
686.8293	0.0006
687.012	0.0071
687.1947	-0.0048
687.3774	0.0133
687.56	0.0005
687.7427	0.0027
687.9253	-0.0038
688.1079	-0.0006
688.2905	0.0103
688.4731	0.0046
688.6556	-0.0009
688.8382	-0.005
689.0207	0.0069
689.2032	-0.009
689.3857	-0.0035
689.5681	0.004
689.7506	0.0003
689.933	-0.0064
690.1154	-0.0016
690.2978	0.0001
690.4802	0.0021
690.6626	-0.0007
690.8449	0
691.0272	0.0043
691.2095	-0.0061
691.3918	-0.0093
691.5741	-0.0047
691.7563	-0.0032
691.9386	0.0013
692.1208	-0.003
692.303	-0.0006
692.4852	0.0015
692.6673	-0.0016
692.8495	-0.0069
693.0316	0.0025
693.2137	0.0019
693.3958	0.0037
693.5778	0.0074
693.7599	0.0049
693.9419	0.0033
694.1239	-0.0008
694.3059	-0.0026
694.4879	0.0095
694.6699	0.0071
694.8518	0.0009
695.0337	-0.0054
695.2157	0.0075
695.3975	-0.0037
695.5794	0.0027
695.7613	0.0064
695.9431	-0.0024
696.1249	0.0048
696.3067	-0.0011
696.4885	0.012
696.6703	-0.0073
696.852	0.0024
697.0337	0.0018
697.2154	-0.0009
697.3971	-0.0022
697.5788	0.0031
697.7605	0.0044
697.9421	0.0057
698.1237	-0.0002
698.3053	-0.0025
698.4869	-0.0019
698.6685	-0.0072
698.85	-0.001
699.0315	0.0065
699.213	-0.0013
699.3945	0.0083
699.576	0.0071
699.7575	0.0092
699.9389	0.0061
700.1203	-0.0051
700.3017	-0.0068
700.4831	-0.004
700.6645	-0.0049
700.8458	-0.0004
701.0271	-0.0046
701.2084	0.0057
701.3897	-0.0039
701.571	0.001
701.7523	-0.0027
701.9335	0.0034
702.1147	0.0057
702.2959	-0.0019
702.4771	0.0047
702.6583	0.0058
702.8394	-0.0026
703.0205	0.0054
703.2016	-0.0009
703.3827	-0.0014
703.5638	0.0131
703.7449	0.0034
703.9259	0.0146
704.1069	-0.0064
704.2879	0.008
704.4689	0.01
704.6499	0.0049
704.8308	0.002
705.0117	-0.0018
705.1927	0.0042
705.3735	-0.0057
705.5544	-0.0028
705.7353	0.0032
705.9161	-0.0101
706.0969	-0.0047
706.2777	-0.001
706.4585	0.005
706.6393	-0
706.82	0.0011
707.0007	0.006
707.1815	0.0045
707.3621	0.0008
707.5428	0.0128
707.7235	0.0089
707.9041	0.0035
708.0847	-0.0008
708.2653	-0.0012
708.4459	-0.012
708.6265	-0.0011
708.807	0.0002
708.9875	-0.0042
709.168	-0.0063
709.3485	-0.0018
709.529	-0.0078
709.7095	-0.0083
709.8899	0.0002
710.0703	-0.0034
710.2507	-0.0052
710.4311	0.0059
710.6115	-0.0085
710.7918	-0.0031
710.9721	-0.0003
711.1524	-0.0123
711.3327	-0.0004
711.513	-0.0027
711.6932	0.0025
711.8735	0.0088
712.0537	-0.0003
712.2339	-0.0033
712.4141	-0.0134
712.5942	0.0001
712.7744	-0.0054
712.9545	-0.0122
713.1346	-0.0047
713.3147	-0.0016
713.4947	-0.001
713.6748	-0.0003
713.8548	0.0048
714.0348	0.002
714.2148	0.0029
714.3948	0.008
714.5748	0.0099
714.7547	0.0005
714.9346	0.0078
715.1145	-0.0033
715.2944	-0.0007
715.4743	0.0046
715.6541	0.0069
715.834	0.0101
716.0138	0.0046
716.1936	-0.0061
716.3733	0.0005
716.5531	0.0092
716.7328	-0.0006
716.9126	-0.0089
717.0923	0.0052
717.2719	-0.0007
717.4516	-0.0014
717.6312	0.0022
717.8109	-0.0068
717.9905	0.0124
718.1701	0.0025
718.3496	-0.0022
718.5292	0.0048
718.7087	0.0088
718.8882	0.0026
719.0677	0.0109
719.2472	-0.0037
719.4267	0.0058
719.6061	0.0051
719.7856	0.0022
719.965	0.0115
720.1443	0.0052
720.3237	0.0194
720.5031	0.0089
720.6824	0.0103
720.8617	0.0105
721.041	0.0031
721.2203	0.0051
721.3995	0.0036
721.5788	0.0119
721.758	0.0091
721.9372	-0.0008
722.1164	0.003
722.2956	0.0069
722.4747	-0.0013
722.6538	0.0005
722.8329	0.0041
723.012	-0.0029
723.1911	-0.0078
723.3702	-0.0065
723.5492	0.0016
723.7282	-0.008
723.9072	0.001
724.0862	-0.0103
724.2652	0.0028
724.4441	0.008
724.623	-0.0027
724.8019	0.0031
724.9808	0.0073
725.1597	-0.0044
725.3385	0.0017
725.5174	-0.0011
725.6962	0.0021
725.875	0.0165
726.0538	0.0082
726.2325	0.0007
726.4112	-0.0006
726.59	-0.0018
726.7687	0.0071
726.9474	0.0064
727.126	-0.0043
727.3047	-0.0026
727.4833	-0.0041
727.6619	-0.0061
727.8405	-0.0011
728.0191	0.0002
728.1976	0.0061
728.3762	-0.0068
728.5547	-0.0015
728.7332	-0.0087
728.9116	-0.0041
729.0901	0.002
729.2686	0.0053
729.447	0.0005
729.6254	0.0003
729.8038	-0.0036
729.9821	-0.0044
730.1605	0.0021
730.3388	0.0028
730.5171	-0.0007
730.6954	-0.0052
730.8737	0.0068
731.0519	0.0057
731.2302	0.0123
731.4084	0.0016
731.5866	0.0034
731.7648	0.0054
731.9429	0.007
732.1211	-0.0073
732.2992	0.0057
732.4773	0.002
732.6554	-0.0047
732.8335	0.0071
733.0115	0.0045
733.1896	0.0118
733.3676	-0.0012
733.5456	0.0116
733.7235	0.0067
733.9015	-0.0014
734.0794	0.0049
734.2574	0.0051
734.4353	-0.0002
734.6131	0.0066
734.791	0.0027
734.9689	-0.0044
735.1467	-0.0008
735.3245	-0.0099
735.5023	-0.0045
735.68	0.0031
735.8578	0.0038
736.0355	-0.0136
736.2132	-0.009
736.3909	-0.0031
736.5686	-0.0099
736.7463	0.0008
736.9239	-0.0085
737.1015	-0.0046
737.2791	-0.0056
737.4567	-0.004
737.6343	-0.0127
737.8118	0.0042
737.9894	0.0025
738.1669	-0.0078
738.3444	-0.0027
738.5218	0.0041
738.6993	-0.0053
738.8767	-0.0059
739.0541	0.0087
739.2315	-0.0038
739.4089	0.0022
739.5863	0.0059
739.7636	-0.0043
739.9409	0.0036
740.1182	0.0078
740.2955	0.0019
740.4728	0.0038
740.65	0.0013
740.8272	0.0032
741.0044	-0.0037
741.1816	0.0002
741.3588	-0.0007
741.5359	0.0059
741.7131	-0.0144
741.8902	0.0028
742.0673	-0.0019
742.2444	-0.0031
742.4214	-0.0075
742.5985	-0.0024
742.7755	-0.0044
742.9525	-0.0071
743.1295	0.0042
743.3064	-0.0031
743.4834	0.0084
743.6603	0.0002
743.8372	-0.0013
744.0141	0.0064
744.191	-0.0063
744.3678	0.0061
744.5446	0.0049
744.7215	-0.0003
744.8982	-0.0028
745.075	-0.004
745.2518	0.0045
745.4285	0.0049
745.6052	0.0011
745.7819	-0.0016
745.9586	-0.0087
746.1353	-0.0043
746.3119	-0.0021
746.4885	-0.0135
746.6651	-0.002
746.8417	0.0089
747.0183	-0.0049
747.1948	0.0004
747.3714	-0.0034
747.5479	0.0116
747.7244	-0.006
747.9008	0.0084
748.0773	0.0055
748.2537	0.0033
748.4301	-0.008
748.6065	0.0096
748.7829	0.0038
748.9593	-0.0054
749.1356	-0.0004
749.3119	0.003
749.4882	-0.006
749.6645	0.0032
749.8408	-0.0054
750.017	0.0013
750.1933	0.0038
750.3695	-0.0041
750.5457	0.0049
750.7218	-0.002
750.898	0.0041
751.0741	-0.0054
751.2502	-0.0091
751.4263	-0.0027
751.6024	-0.0048
751.7784	-0.0053
751.9545	-0.0114
752.1305	0.0037
752.3065	-0.0105
752.4825	-0.0031
752.6584	-0.008
752.8344	-0.0065
753.0103	-0.0125
753.1862	-0.0099
753.3621	-0.0015
753.5379	-0.0031
753.7138	-0.0066
753.8896	-0.0037
754.0654	0.006
754.2412	0.0019
754.417	0.0007
754.5927	-0.0118
754.7685	-0.004
754.9442	0.0033
755.1199	0.0092
755.2956	-0.0051
755.4712	0.007
755.6469	0.0001
755.8225	-0.002
755.9981	-0.0071
756.1736	-0.0106
756.3492	0.0027
756.5248	-0.0008
756.7003	-0.0092
756.8758	0.0028
757.0513	-0.013
757.2267	-0.0083
757.4022	-0.0011
757.5776	-0.0059
757.753	-0.0057
757.9284	-0.0001
758.1038	0.0081
758.2791	0.0073
758.4545	-0.0094
758.6298	0.008
758.8051	0.0048
758.9803	0.0043
759.1556	0.0051
759.3308	0.0084
759.506	0.0161
759.6812	0.0068
759.8564	0.0149
760.0316	-0.0029
760.2067	0.0039
760.3819	0.0148
760.557	0.0117
760.732	-0.0025
760.9071	-0.008
761.0821	-0.0039
761.2572	0.0104
761.4322	0.0003
761.6072	0.001
761.7821	-0.0025
761.9571	0.0098
762.132	0.0038
762.3069	-0.004
762.4818	-0.0058
762.6567	-0.0047
762.8316	-0.0039
763.0064	-0.0049
763.1812	-0.0008
763.356	-0.0049
763.5308	-0.0086
763.7055	0.0028
763.8803	-0.0093
764.055	-0.0068
764.2297	-0.0037
764.4044	-0.0122
764.579	-0.0127
764.7537	-0.0183
764.9283	0.0024
765.1029	-0.0055
765.2775	-0.0108
765.4521	-0.0107
765.6266	-0.0044
765.8011	-0.0046
765.9756	-0.0051
766.1501	0.0066
766.3246	-0.0032
766.4991	-0.0033
766.6735	-0.0037
766.8479	-0.0095
767.0223	-0.0067
767.1967	-0.0049
767.371	0.0004
767.5454	-0.0004
767.7197	0.008
767.894	-0.0093
768.0683	-0.0119
768.2425	-0.003
768.4168	0.0029
768.591	-0.0012
768.7652	0.008
768.9394	-0.0061
769.1135	0.0017
769.2877	0.009
769.4618	-0.003
769.6359	-0.009
769.81	0.0021
769.984	-0.0063
770.1581	-0.0097
770.3321	-0.0004
770.5061	-0.0081
770.6801	0.0004
770.8541	0.0006
771.028	0.0076
771.202	-0.0071
771.3759	-0.0063
771.5498	-0.0097
771.7236	-0.0071
771.8975	0.0007
772.0713	0.0076
772.2451	0.0008
772.4189	0.0139
772.5927	0.0134
772.7665	0.0095
772.9402	0.0001
773.1139	-0.002
773.2876	-0.0016
773.4613	0.0121
773.635	0.0076
773.8086	-0.0048
773.9822	-0.007
774.1558	0.0044
774.3294	-0.0056
774.503	-0.0009
774.6765	-0.0049
774.8501	0.0021
775.0236	0.0024
775.1971	0.0033
775.3705	-0.0042
775.544	0.0056
775.7174	-0.0019
775.8908	-0.0107
776.0642	-0.003
776.2376	-0.0042
776.4109	-0.014
776.5843	-0.0052
776.7576	0.0087
776.9309	0.0107
777.1041	0.0011
777.2774	0.0147
777.4506	-0.0013
777.6238	-0.0117
777.797	0.0048
777.9702	0.0062
778.1434	0.0004
778.3165	-0.0043
778.4896	-0.004
778.6627	0.0097
778.8358	-0.0036
779.0089	-0.0003
779.1819	0.0081
779.3549	0.0235
779.5279	0.0093
779.7009	0.0008
779.8739	0.0023
780.0468	0.0118
780.2197	0.0075
780.3926	-0.006
780.5655	0.0091
780.7384	0.0012
780.9112	0.0055
781.0841	-0.0014
781.2569	0.0014
781.4297	0.0132
781.6024	0.01
781.7752	0.0108
781.9479	0.0101
782.1206	-0.0018
782.2933	-0.0057
782.466	0.0148
782.6386	0.0061
782.8113	0.0071
782.9839	0.0071
783.1565	0.0139
783.329	0.0158
783.5016	0
783.6741	-0.003
783.8466	-0.0182
784.0191	0.01
784.1916	-0.0062
784.3641	0.0054
784.5365	0.0087
784.7089	-0.0024
784.8813	-0.007
785.0537	-0.0008
785.2261	0.0006
785.3984	-0.0055
785.5707	-0.0091
785.743	-0.013
785.9153	-0.0128
786.0876	-0.0099
786.2598	-0.0071
786.432	-0.0101
786.6042	0.0023
786.7764	-0.0103
786.9486	0.0055
787.1207	-0.015
787.2928	0.0064
787.4649	-0.0129
787.637	0.0007
787.8091	-0.0026
787.9811	-0.0135
788.1532	-0.0053
788.3252	0.0118
788.4972	-0.007
788.6691	-0.0081
788.8411	-0.0045
789.013	-0.0078
789.1849	-0.0065
789.3568	-0.006
789.5287	-0.0062
789.7005	0.0019
789.8723	-0.0084
790.0442	0.0136
790.2159	-0.0067
790.3877	0.0011
790.5595	-0.006
790.7312	0.0035
790.9029	-0.0013
791.0746	-0.0137
791.2463	0.0005
791.4179	-0.0048
791.5896	-0.0194
791.7612	0.0106
791.9328	-0.0018
792.1044	-0.0176
792.2759	-0.0291
792.4474	-0.0105
792.619	-0.0036
792.7905	0.0038
792.9619	-0.0009
793.1334	0.0077
793.3048	0.007
793.4762	0.008
793.6476	-0.0087
793.819	-0.0134
793.9904	0.0064
794.1617	-0.0184
794.333	0.0015
794.5043	-0.0071
794.6756	0.0038
794.8469	-0.0072
795.0181	-0.004
795.1893	0.0051
795.3605	0.0113
795.5317	-0.0028
795.7029	0.0065
795.874	-0.0038
796.0452	0.0027
796.2163	-0.0006
796.3873	0.0183
796.5584	-0.0038
796.7294	-0.0017
796.9005	-0.0029
797.0715	-0.005
797.2425	-0.021
797.4134	-0.0098
797.5844	0.0057
797.7553	-0.0207
797.9262	0.0065
798.0971	-0.0167
798.2679	-0.0172
798.4388	-0.0108
798.6096	-0.0066
798.7804	-0.0024
798.9512	-0.004
799.122	-0.0102
799.2927	-0.0024
799.4635	0.0041
799.6342	-0.024
799.8049	-0.0146
799.9755	-0.0007
800.1462	-0.0028
800.3168	-0.0011
800.4874	-0.0168
800.658	0.0115
800.8286	-0.0141
800.9991	-0.0061
801.1696	0.0026
801.3402	0.0045
801.5106	-0.0094
801.6811	-0.0138
801.8516	0.0128
802.022	0.0151
802.1924	0.0064
802.3628	-0.0032
802.5332	0.0042
802.7035	0.0176
802.8739	-0.0102
803.0442	-0.0269
803.2145	0.0003
803.3847	-0.0243
803.555	0.0076
803.7252	-0.0323
803.8954	-0.023
804.0656	-0.0325
804.2358	-0.0216
804.4059	-0.0258
804.5761	-0.0036
804.7462	-0.009
804.9163	-0.0075
805.0864	-0.0236
805.2564	-0.0167
805.4264	0.0133
805.5965	-0.0061
805.7665	-0.0008
805.9364	-0.0059
806.1064	0.0191
806.2763	0.0129
806.4462	0.0194
806.6161	-0.0021
806.786	0.012
806.9559	-0.0067
807.1257	-0.0179
807.2955	-0.0028
807.4653	-0.0149
807.6351	-0.0067
807.8048	-0.016
807.9746	-0.0009
808.1443	-0.0119
808.314	-0.0122
808.4837	-0.0186
808.6533	-0.0058
808.8229	0.0087
808.9926	0.0043
809.1622	-0.0006
809.3317	-0.0036
809.5013	-0.0144
809.6708	0.0122
809.8403	0.0167
810.0098	-0.0099
810.1793	-0.0064
810.3488	0.0062
810.5182	-0.0229
810.6876	-0.0106
810.857	-0.0182
811.0264	0.0116
811.1958	-0.019
811.3651	0.0142
811.5344	-0.0025
811.7037	-0.0087
811.873	-0.013
812.0422	-0.0136
812.2115	-0.0189
812.3807	-0.0267
812.5499	0.0031
812.7191	-0.005
812.8882	-0.0053
813.0574	-0.0086
813.2265	-0.0109
813.3956	-0.0223
813.5646	-0.0016
813.7337	-0.0114
813.9027	-0.0042
814.0718	0.0215
814.2407	0.0235
814.4097	0.0007
814.5787	-0.006
814.7476	-0.0069
814.9165	0.0001
815.0854	0.0079
815.2543	-0.0127
815.4232	0.001
815.592	0.0121
815.7608	-0.0081
815.9296	0.0172
816.0984	0.0093
816.2671	-0.0142
816.4359	0.0105
816.6046	-0.0131
816.7733	-0.0202
816.942	-0.0168
817.1106	0.0126
817.2793	-0.0015
817.4479	0.0032
817.6165	0.0032
817.785	0.0065
817.9536	-0.0223
818.1221	-0.0079
818.2906	-0.022
818.4591	-0.0035
818.6276	-0.0155
818.7961	-0.009
818.9645	-0.0222
819.1329	-0.0019
819.3013	0.0104
819.4697	0.0117
819.638	-0.0183
819.8064	0.0171
819.9747	-0.0033
820.143	-0.0027
820.3113	-0.0372
820.4795	-0.002
820.6477	0.0008
820.816	-0.0247
820.9842	-0.0147
821.1523	-0.0271
821.3205	-0.0152
821.4886	-0.0326
821.6567	-0.001
821.8248	-0.004
821.9929	-0.0094
822.1609	-0.0103
822.329	0.0136
822.497	0.0015
822.665	-0.0181
822.833	-0.0121
823.0009	0.0268
823.1688	-0.0147
823.3367	0.0071
823.5046	0.0229
823.6725	0.0413
823.8404	0.0049
824.0082	0.0238
824.176	0.0215
824.3438	0.0192
824.5116	-0.0175
824.6793	0.0182
824.847	-0.0228
825.0147	-0.0041
825.1824	0.0548
825.3501	0.0122
825.5177	-0.0012
825.6854	-0.0213
825.853	0.0052
826.0206	-0.0287
826.1881	-0.0237
826.3557	-0.0211
826.5232	-0.0284
826.6907	-0.0184
826.8582	-0.0114
827.0257	-0.0289
827.1931	-0.0123
827.3605	0.0102
827.528	-0.0185
827.6953	-0.0236
827.8627	-0.0031
828.03	0.0196
828.1974	-0.0142
828.3647	-0.0215
828.532	-0.0326
828.6992	0.0102
828.8665	-0.0126
829.0337	-0.0376
829.2009	-0.0146
829.3681	0.0038
829.5352	0.012
829.7024	-0.0269
829.8695	-0.0275
830.0366	0.0311
830.2037	0.0079
830.3707	0.0214
830.5378	-0.0046
830.7048	-0.0052
830.8718	-0.0036
831.0388	-0.026
831.2057	0.0237
831.3727	0.0007
831.5396	-0.0154
831.7065	-0.0134
831.8734	-0.023
832.0402	-0.0664
832.2071	-0.0197
832.3739	-0.0221
832.5407	0.0093
832.7075	-0.0241
832.8742	-0.0077
833.041	-0.0148
833.2077	-0.0281
833.3744	0.0067
833.541	-0.034
833.7077	-0.0163
833.8743	-0.0127
834.0409	0.0002
834.2075	-0.0202
834.3741	-0.0035
834.5407	0.0184
834.7072	-0.0142
834.8737	-0.0487
835.0402	-0.0004
835.2067	-0.0121
835.3731	0.0002
835.5395	0.0307
835.706	0.0174
835.8723	-0.0201
836.0387	0.016
836.2051	0.0108
836.3714	-0.0139
836.5377	0.0257
836.704	-0.0159
836.8703	0.0041
837.0365	-0.0205
837.2027	-0.0154
837.3689	0.0064
837.5351	0.0109
837.7013	0.0071
837.8674	-0.0293
838.0335	-0.0444
838.1997	-0.0288
838.3657	0.0083
838.5318	-0.0259
838.6978	0.0301
838.8639	0.0216
839.0299	-0.063
839.1958	-0.0013
839.3618	0.0444
839.5277	0.0003
839.6937	0.0311
839.8596	0.0039
840.0254	0.0338
840.1913	-0.0047
840.3571	0.0154
840.523	-0.0105
840.6888	-0.0357
840.8545	-0.0497
841.0203	0.0218
841.186	0.002
841.3517	0.0319
841.5174	-0.0382
841.6831	-0.0358
841.8488	0.034
842.0144	-0.0423
842.18	0.0344
842.3456	0.0396
842.5112	0.0024
842.6767	-0.04
842.8422	0.0057
843.0077	-0.0663
843.1732	-0.0375
843.3387	-0.0397
843.5042	-0.0246
843.6696	-0.0231
843.835	-0.0197
844.0004	0.0497
844.1657	0.0013
844.3311	-0.0852
844.4964	-0.0503
844.6617	-0.0695
844.827	-0.0255
844.9923	-0.0197
845.1575	0.039
845.3227	0.0454
845.4879	-0.0353
845.6531	-0.0801
845.8183	-0.0746
845.9834	-0.0179
846.1485	0.0204
846.3136	-0.0255
846.4787	-0.055
846.6438	0.0391
846.8088	-0.0179
846.9738	-0.1014
847.1388	-0.0637
847.3038	-0.033
847.4687	-0.2007
847.6337	0.0203
847.7986	-0.0401
847.9635	-0.0154
848.1284	0.0346
848.2932	0.1292
848.458	-0.0112
848.6228	0.0146
848.7876	0.0326
848.9524	-0.059
849.1172	-0.1365
849.2819	0.0415
849.4466	-0.1396
849.6113	-0.1562
849.7759	-0.0358
849.9406	-0.0481
850.1052	0.0407
850.2698	0.0122
850.4344	-0.0581
850.599	-0.0418
850.7635	0.083
850.928	0.0587
851.0925	-0.1032
851.257	0.0594
851.4215	-0.0025
851.5859	-0.0737
851.7503	0.0776
851.9147	-0.0203
852.0791	-0.0292
852.2434	-0.0742
852.4078	0.0227
852.5721	0.0574
852.7364	-0.0327
852.9007	-0.0774
853.0649	-0.0148
853.2291	0.0266
853.3934	-0.0347
853.5575	0.1192
853.7217	0.0009
853.8859	-0.0807
854.05	-0.0323
854.2141	0.0305
854.3782	-0.0955
854.5423	-0.0269
854.7063	0.1801
854.8703	-0.0537
855.0343	-0.1072
855.1983	-0.0024
855.3623	0.0753
855.5262	-0.0153
855.6901	-0.0893
855.854	0.0629
856.0179	0.1141
856.1818	0.1409
856.3456	-0.059
856.5094	-0.144
856.6732	-0.1598
856.837	-0.1859
857.0008	0.0066
857.1645	-0.0396
857.3282	-0.2215
857.4919	0.1954
857.6556	-0.0562
857.8192	-0.124
857.9828	0.0038
858.1465	0.1123
858.31	-0.1168
858.4736	-0.1012
858.6372	-0.1765
858.8007	-0.1977
858.9642	-0.217
859.1277	0.0652
859.2911	-0.0031
859.4546	-0.0294
859.618	-0.3811
859.7814	0.0948
859.9448	0.0377
860.1081	0.1029
860.2715	0.1183
860.4348	0.0419
860.5981	0.2671
860.7614	0.0235
860.9246	0.2201
861.0879	-0.3312
861.2511	-0.0051
861.4143	-0.3037
861.5774	0.1275
861.7406	-0.0319
861.9037	0.0944
862.0668	-0
862.2299	-0.2494
862.393	-0.5788
862.556	0.1089
862.7191	0.0039
862.8821	-0.2591
863.0451	0.1439
863.208	0.1322
863.371	0.006
863.5339	-0.2624
863.6968	-0.0271
863.8597	0.3305
864.0225	-0.0793
864.1854	0.003
864.3482	-0.1029
864.511	-0.0283
864.6737	0.7123
864.8365	-0.0538
864.9992	-0.4964
865.1619	-0.3073
865.3246	-0.0748
865.4873	-0.0362
865.65	-0.1718
865.8126	-0.0768
865.9752	0.0538
866.1378	0.4174
866.3004	1.5729
866.4629	0.3231
866.6254	-0.2695
866.7879	0.4836
866.9504	-0.2543
867.1129	-0
867.2753	0.0314
867.4377	0.0765
867.6001	-0.391
867.7625	0.3045
867.9249	-0.1227
868.0872	-0.0692
868.2495	0.0671
868.4118	0.2236
868.5741	-0.4038
868.7363	-0.258
868.8986	-0
869.0608	0.1594
869.223	0.2792
869.3851	0.6818
869.5473	2.1173
869.7094	0.0386
869.8715	-0.292
870.0336	-0
870.1957	0.1725
870.3577	-0.9176
870.5197	-0.2282
870.6817	-0.103
870.8437	-0.0174
871.0057	-0
871.1676	-0.37
871.3295	0.3653
871.4914	-0
871.6533	-0.1111
871.8151	-0.6477
871.977	-0
872.1388	-0
872.3006	0.1963
872.4623	-0.3933
872.6241	0.7629
872.7858	-0
872.9475	-0.1111
873.1092	-0.0842
873.2709	-0
873.4325	-0.216
873.5941	0.154
873.7557	-0
873.9173	-0
874.0789	-0.6226
874.2404	-0.6867
874.4019	-0.0844
874.5634	-0.0084
874.7249	-0.0574
874.8863	-0.1461
875.0478	0.5582
875.2092	-0
875.3706	0.2164
875.5319	-0
875.6933	-0
875.8546	0.3364
876.0159	-0
876.1772	-0
876.3385	-0.2848
876.4997	0.1636
876.6609	-0.5517
876.8221	-0.5114
876.9833	0.295
877.1445	-0
877.3056	0.2641
877.4667	-0.4882
877.6278	-0
877.7889	-0
877.9499	-0.5099
878.111	-0
878.272	-0
878.433	0.3392
878.5939	-0
878.7549	0.3871
878.9158	-0.3216
879.0767	-0
879.2376	-0
879.3984	-0
879.5593	-0
879.7201	-0.1646
879.8809	-0.7157
880.0417	-0.6569
880.2024	-0.0082
880.3632	-0
880.5239	0.0085
880.6846	1.2704
880.8452	-2.2529
881.0059	-0
881.1665	-0.11
881.3271	-0.3814
881.4877	0.0611
881.6483	-0.1318
881.8088	-0.3162
881.9693	2.2068
882.1298	2.2068
882.2903	2.2068
