Data from MonoPyChalIsomerACN10uM420nmA_Absorbance_15-09-49-735.txt Node
Date: Fri Jul 05 15:09:49 BST 2024
User: LASERRRRR
Spectrometer: FLMT03099
Trigger mode: 0
Integration Time (sec): 1.000000E-1
Scans to average: 1
Electric dark correction enabled: true
Nonlinearity correction enabled: false
Boxcar width: 0
XAxis mode: Wavelengths
Number of Pixels in Spectrum: 3648
>>>>>Begin Spectral Data<<<<<
179.3399	-0.5708
179.5586	-0.5708
179.7771	-0.5708
179.9957	-0
180.2143	-0
180.4329	-0.2207
180.6514	-0
180.8699	-0.3466
181.0885	0.025
181.307	0.3649
181.5255	-0
181.744	0.1214
181.9625	-0.7557
182.181	-1.2534
182.3994	0.4584
182.6179	-0
182.8363	0.0953
183.0547	0.0527
183.2732	-0.0691
183.4916	0.0533
183.71	0.0974
183.9284	0.0425
184.1467	-0.1818
184.3651	-0.0964
184.5835	-0.077
184.8018	0.4531
185.0201	0.0216
185.2385	-0.1626
185.4568	0.1876
185.6751	0.1138
185.8934	0.2919
186.1117	0.0572
186.3299	0.2259
186.5482	0.0799
186.7664	0.0364
186.9847	-0.0251
187.2029	-0.0627
187.4211	0.179
187.6393	0.3854
187.8575	-0.1804
188.0757	0.228
188.2939	0.0229
188.512	0.0821
188.7302	0.2284
188.9483	-0.052
189.1665	0.0635
189.3846	0.4605
189.6027	0.1724
189.8208	0.2698
190.0389	0.235
190.257	0.2466
190.475	0.1926
190.6931	0.2594
190.9111	0.5348
191.1292	0.139
191.3472	0.2606
191.5652	0.2347
191.7832	0.5541
192.0012	0.6541
192.2192	0.3341
192.4371	0.5769
192.6551	0.4044
192.873	0.4796
193.091	0.2465
193.3089	0.4638
193.5268	0.351
193.7447	0.5469
193.9626	0.5549
194.1805	0.8587
194.3984	0.7163
194.6162	0.5247
194.8341	0.466
195.0519	0.5585
195.2697	0.7405
195.4875	0.6658
195.7054	0.5843
195.9231	0.579
196.1409	0.5015
196.3587	0.4872
196.5765	0.6954
196.7942	0.5156
197.012	0.3529
197.2297	0.5084
197.4474	0.8485
197.6651	0.782
197.8828	0.4656
198.1005	0.5572
198.3182	0.5822
198.5358	0.6772
198.7535	0.6066
198.9711	0.6322
199.1888	0.6669
199.4064	0.8746
199.624	0.586
199.8416	0.554
200.0592	0.6085
200.2767	0.5801
200.4943	0.7763
200.7119	0.7247
200.9294	0.6085
201.1469	0.579
201.3645	0.568
201.582	0.5192
201.7995	0.6133
202.017	0.6058
202.2344	0.6095
202.4519	0.6594
202.6694	0.7957
202.8868	0.5749
203.1042	0.8042
203.3217	0.721
203.5391	0.7855
203.7565	0.505
203.9739	0.5739
204.1913	0.6942
204.4086	0.6438
204.626	0.6497
204.8433	0.7349
205.0607	0.57
205.278	0.6941
205.4953	0.5968
205.7126	0.735
205.9299	0.8167
206.1472	0.7431
206.3644	0.5925
206.5817	0.7464
206.7989	0.7058
207.0162	0.677
207.2334	0.6381
207.4506	0.6884
207.6678	0.6244
207.885	0.7059
208.1022	0.6705
208.3194	0.6749
208.5365	0.6588
208.7537	0.6326
208.9708	0.5766
209.1879	0.6838
209.405	0.7327
209.6222	0.7345
209.8392	0.5933
210.0563	0.5932
210.2734	0.6872
210.4905	0.6481
210.7075	0.6479
210.9245	0.6468
211.1416	0.6689
211.3586	0.6987
211.5756	0.5983
211.7926	0.5838
212.0096	0.6141
212.2265	0.5658
212.4435	0.5915
212.6604	0.6147
212.8774	0.5966
213.0943	0.5486
213.3112	0.6092
213.5281	0.5174
213.745	0.5177
213.9619	0.5314
214.1788	0.5235
214.3956	0.4627
214.6125	0.4693
214.8293	0.4503
215.0461	0.4969
215.2629	0.4872
215.4798	0.4876
215.6965	0.4428
215.9133	0.4541
216.1301	0.4198
216.3469	0.4374
216.5636	0.4312
216.7803	0.3847
216.9971	0.4121
217.2138	0.394
217.4305	0.3972
217.6472	0.3478
217.8639	0.375
218.0805	0.375
218.2972	0.3471
218.5138	0.3572
218.7305	0.3519
218.9471	0.3044
219.1637	0.3003
219.3803	0.275
219.5969	0.2683
219.8135	0.2714
220.0301	0.2899
220.2466	0.2781
220.4632	0.2795
220.6797	0.2393
220.8962	0.2377
221.1127	0.284
221.3292	0.2605
221.5457	0.231
221.7622	0.242
221.9787	0.2454
222.1951	0.2459
222.4116	0.2802
222.628	0.265
222.8444	0.25
223.0608	0.2576
223.2772	0.251
223.4936	0.2661
223.71	0.243
223.9264	0.2664
224.1427	0.2582
224.3591	0.2607
224.5754	0.2728
224.7917	0.2787
225.008	0.257
225.2243	0.2631
225.4406	0.2953
225.6569	0.2878
225.8732	0.2559
226.0894	0.2722
226.3057	0.2896
226.5219	0.2849
226.7381	0.2969
226.9543	0.2901
227.1705	0.3141
227.3867	0.2928
227.6029	0.3087
227.8191	0.2968
228.0352	0.295
228.2513	0.298
228.4675	0.3162
228.6836	0.2974
228.8997	0.2961
229.1158	0.3171
229.3319	0.3275
229.548	0.3338
229.764	0.3128
229.9801	0.3096
230.1961	0.3259
230.4121	0.3333
230.6282	0.3478
230.8442	0.3313
231.0602	0.3561
231.2761	0.3484
231.4921	0.3327
231.7081	0.356
231.924	0.3497
232.14	0.3634
232.3559	0.3317
232.5718	0.3674
232.7877	0.3596
233.0036	0.3584
233.2195	0.3702
233.4353	0.3515
233.6512	0.3605
233.867	0.3581
234.0829	0.3641
234.2987	0.3726
234.5145	0.3766
234.7303	0.3836
234.9461	0.403
235.1619	0.3748
235.3776	0.3936
235.5934	0.3887
235.8091	0.3848
236.0249	0.3737
236.2406	0.3874
236.4563	0.3762
236.672	0.3983
236.8877	0.4106
237.1034	0.3941
237.319	0.4001
237.5347	0.4163
237.7503	0.4114
237.966	0.4137
238.1816	0.4151
238.3972	0.4078
238.6128	0.4006
238.8284	0.4055
239.0439	0.4384
239.2595	0.4224
239.475	0.4255
239.6906	0.4283
239.9061	0.3925
240.1216	0.421
240.3371	0.4109
240.5526	0.3933
240.7681	0.4091
240.9836	0.3947
241.199	0.3996
241.4145	0.3977
241.6299	0.3965
241.8453	0.3686
242.0607	0.3824
242.2761	0.3627
242.4915	0.363
242.7069	0.3868
242.9223	0.3624
243.1376	0.3636
243.353	0.3592
243.5683	0.3598
243.7836	0.3341
243.9989	0.3337
244.2142	0.3108
244.4295	0.3164
244.6448	0.3138
244.86	0.3156
245.0753	0.2775
245.2905	0.2837
245.5057	0.2738
245.721	0.2746
245.9362	0.2748
246.1514	0.2706
246.3665	0.2741
246.5817	0.2559
246.7969	0.2601
247.012	0.2346
247.2271	0.231
247.4423	0.2586
247.6574	0.2505
247.8725	0.2329
248.0876	0.2219
248.3026	0.2373
248.5177	0.2269
248.7328	0.2027
248.9478	0.2159
249.1628	0.2151
249.3779	0.2158
249.5929	0.2116
249.8079	0.2288
250.0228	0.203
250.2378	0.2168
250.4528	0.1969
250.6677	0.1859
250.8827	0.1968
251.0976	0.1962
251.3125	0.1955
251.5274	0.1855
251.7423	0.1871
251.9572	0.1982
252.172	0.1837
252.3869	0.1955
252.6017	0.1824
252.8166	0.1778
253.0314	0.1703
253.2462	0.1693
253.461	0.1843
253.6758	0.1763
253.8906	0.1776
254.1053	0.1712
254.3201	0.1813
254.5348	0.1889
254.7496	0.1818
254.9643	0.1728
255.179	0.1786
255.3937	0.1765
255.6083	0.1786
255.823	0.1707
256.0377	0.1776
256.2523	0.1704
256.467	0.1508
256.6816	0.1804
256.8962	0.1838
257.1108	0.1663
257.3254	0.1763
257.54	0.1723
257.7545	0.173
257.9691	0.1822
258.1836	0.1801
258.3981	0.1696
258.6127	0.1768
258.8272	0.1703
259.0417	0.1728
259.2561	0.1747
259.4706	0.1726
259.6851	0.1739
259.8995	0.1668
260.114	0.1776
260.3284	0.1636
260.5428	0.1595
260.7572	0.1652
260.9716	0.18
261.186	0.1504
261.4003	0.1765
261.6147	0.1771
261.829	0.1718
262.0433	0.1614
262.2577	0.159
262.472	0.1673
262.6863	0.1678
262.9005	0.1704
263.1148	0.1721
263.3291	0.1593
263.5433	0.1721
263.7576	0.1646
263.9718	0.166
264.186	0.1762
264.4002	0.1716
264.6144	0.1714
264.8286	0.1741
265.0427	0.1739
265.2569	0.1628
265.471	0.1727
265.6851	0.1625
265.8993	0.161
266.1134	0.1648
266.3275	0.1619
266.5415	0.1615
266.7556	0.1672
266.9697	0.1644
267.1837	0.1794
267.3978	0.1597
267.6118	0.1758
267.8258	0.1661
268.0398	0.1529
268.2538	0.1666
268.4677	0.1594
268.6817	0.1655
268.8957	0.1612
269.1096	0.1736
269.3235	0.1677
269.5374	0.1527
269.7514	0.1616
269.9652	0.1575
270.1791	0.1498
270.393	0.1497
270.6068	0.1606
270.8207	0.1316
271.0345	0.1374
271.2483	0.1607
271.4622	0.1429
271.676	0.1596
271.8897	0.1566
272.1035	0.1488
272.3173	0.1308
272.531	0.1489
272.7448	0.1493
272.9585	0.1361
273.1722	0.1491
273.3859	0.1463
273.5996	0.1347
273.8133	0.1416
274.0269	0.1457
274.2406	0.1325
274.4542	0.1471
274.6679	0.1304
274.8815	0.1487
275.0951	0.1481
275.3087	0.1499
275.5223	0.1532
275.7358	0.1472
275.9494	0.153
276.1629	0.147
276.3765	0.1485
276.59	0.1413
276.8035	0.147
277.017	0.1441
277.2305	0.1344
277.444	0.1434
277.6574	0.1492
277.8709	0.149
278.0843	0.1397
278.2978	0.1365
278.5112	0.1435
278.7246	0.1392
278.938	0.1541
279.1513	0.1595
279.3647	0.1512
279.5781	0.1395
279.7914	0.1516
280.0047	0.1612
280.2181	0.1489
280.4314	0.1602
280.6447	0.1575
280.8579	0.1528
281.0712	0.1545
281.2845	0.1491
281.4977	0.1504
281.711	0.1487
281.9242	0.1432
282.1374	0.1571
282.3506	0.1539
282.5638	0.161
282.7769	0.162
282.9901	0.1483
283.2033	0.1615
283.4164	0.1607
283.6295	0.1498
283.8426	0.1446
284.0557	0.1418
284.2688	0.1684
284.4819	0.1662
284.695	0.1528
284.908	0.1529
285.1211	0.1572
285.3341	0.1576
285.5471	0.1681
285.7601	0.1512
285.9731	0.1507
286.1861	0.1623
286.3991	0.1692
286.612	0.1654
286.825	0.1505
287.0379	0.1752
287.2508	0.1667
287.4637	0.1617
287.6766	0.1595
287.8895	0.1654
288.1024	0.18
288.3152	0.1687
288.5281	0.162
288.7409	0.1727
288.9538	0.1619
289.1666	0.1616
289.3794	0.1696
289.5922	0.1625
289.8049	0.1686
290.0177	0.1702
290.2304	0.1762
290.4432	0.1675
290.6559	0.1812
290.8686	0.1747
291.0813	0.164
291.294	0.1737
291.5067	0.1783
291.7194	0.1695
291.932	0.1826
292.1447	0.1786
292.3573	0.1539
292.5699	0.1689
292.7825	0.1616
292.9951	0.176
293.2077	0.1836
293.4203	0.1793
293.6328	0.1645
293.8454	0.1702
294.0579	0.1729
294.2704	0.1797
294.4829	0.1591
294.6954	0.1742
294.9079	0.1797
295.1204	0.1678
295.3328	0.169
295.5453	0.1622
295.7577	0.1749
295.9701	0.1547
296.1825	0.1708
296.3949	0.1637
296.6073	0.1736
296.8197	0.1647
297.0321	0.1712
297.2444	0.158
297.4567	0.168
297.6691	0.1679
297.8814	0.1635
298.0937	0.1628
298.306	0.1647
298.5182	0.1685
298.7305	0.1778
298.9428	0.1576
299.155	0.1756
299.3672	0.1605
299.5794	0.1652
299.7916	0.1644
300.0038	0.1692
300.216	0.1715
300.4282	0.1708
300.6403	0.1708
300.8525	0.178
301.0646	0.1687
301.2767	0.1693
301.4888	0.1587
301.7009	0.176
301.913	0.1618
302.125	0.1659
302.3371	0.1649
302.5491	0.1738
302.7612	0.1666
302.9732	0.1722
303.1852	0.1653
303.3972	0.1708
303.6092	0.1605
303.8211	0.155
304.0331	0.1695
304.245	0.1616
304.457	0.1662
304.6689	0.161
304.8808	0.1644
305.0927	0.1568
305.3046	0.1486
305.5164	0.161
305.7283	0.1561
305.9401	0.1493
306.152	0.1535
306.3638	0.1628
306.5756	0.1464
306.7874	0.1551
306.9992	0.1507
307.2109	0.1424
307.4227	0.1267
307.6344	0.151
307.8462	0.1412
308.0579	0.1419
308.2696	0.1418
308.4813	0.1344
308.693	0.1475
308.9046	0.1495
309.1163	0.1252
309.328	0.1452
309.5396	0.1166
309.7512	0.1294
309.9628	0.1226
310.1744	0.123
310.386	0.1205
310.5976	0.1157
310.8091	0.1274
311.0207	0.121
311.2322	0.1213
311.4437	0.1135
311.6552	0.1191
311.8667	0.1239
312.0782	0.0997
312.2897	0.1031
312.5012	0.1067
312.7126	0.1083
312.924	0.0988
313.1355	0.1116
313.3469	0.1119
313.5583	0.1107
313.7696	0.1089
313.981	0.1112
314.1924	0.0998
314.4037	0.1024
314.6151	0.1043
314.8264	0.0977
315.0377	0.0959
315.249	0.1021
315.4603	0.1026
315.6716	0.1084
315.8828	0.0936
316.0941	0.0943
316.3053	0.1031
316.5165	0.0912
316.7277	0.0918
316.9389	0.1038
317.1501	0.0789
317.3613	0.1131
317.5724	0.0846
317.7836	0.1136
317.9947	0.0948
318.2058	0.0913
318.417	0.0943
318.6281	0.0781
318.8391	0.101
319.0502	0.0927
319.2613	0.0976
319.4723	0.1012
319.6834	0.1026
319.8944	0.0898
320.1054	0.0991
320.3164	0.097
320.5274	0.1028
320.7383	0.0925
320.9493	0.1027
321.1602	0.1106
321.3712	0.0789
321.5821	0.0917
321.793	0.1083
322.0039	0.101
322.2148	0.0903
322.4257	0.1106
322.6365	0.0946
322.8474	0.094
323.0582	0.0965
323.269	0.0959
323.4798	0.1115
323.6906	0.1001
323.9014	0.0972
324.1122	0.106
324.3229	0.1069
324.5337	0.1023
324.7444	0.0972
324.9551	0.1173
325.1658	0.0995
325.3765	0.1117
325.5872	0.1111
325.7979	0.0945
326.0085	0.1086
326.2192	0.1007
326.4298	0.1038
326.6404	0.0934
326.851	0.0869
327.0616	0.0903
327.2722	0.0894
327.4828	0.1156
327.6933	0.0991
327.9039	0.1139
328.1144	0.1002
328.3249	0.0954
328.5354	0.1011
328.7459	0.0966
328.9564	0.0948
329.1669	0.1118
329.3773	0.1015
329.5878	0.112
329.7982	0.106
330.0086	0.097
330.219	0.1023
330.4294	0.1045
330.6398	0.1043
330.8502	0.0967
331.0605	0.1046
331.2708	0.1049
331.4812	0.1107
331.6915	0.1147
331.9018	0.1054
332.1121	0.0998
332.3224	0.1067
332.5326	0.1055
332.7429	0.1002
332.9531	0.1166
333.1633	0.1102
333.3735	0.1146
333.5837	0.1
333.7939	0.1069
334.0041	0.1246
334.2143	0.1173
334.4244	0.1161
334.6346	0.09
334.8447	0.1216
335.0548	0.0938
335.2649	0.0962
335.475	0.1191
335.685	0.1048
335.8951	0.1171
336.1051	0.1084
336.3152	0.1153
336.5252	0.1178
336.7352	0.1017
336.9452	0.1145
337.1552	0.1089
337.3652	0.1069
337.5751	0.1021
337.7851	0.1088
337.995	0.1138
338.2049	0.1114
338.4148	0.1098
338.6247	0.0967
338.8346	0.0955
339.0445	0.1108
339.2543	0.1025
339.4642	0.1134
339.674	0.1036
339.8838	0.1058
340.0936	0.1002
340.3034	0.1274
340.5132	0.1078
340.7229	0.1159
340.9327	0.1121
341.1424	0.1157
341.3522	0.1233
341.5619	0.1204
341.7716	0.1151
341.9813	0.1115
342.1909	0.1105
342.4006	0.1275
342.6102	0.1245
342.8199	0.1246
343.0295	0.121
343.2391	0.1189
343.4487	0.1219
343.6583	0.1165
343.8679	0.1239
344.0774	0.1245
344.287	0.1211
344.4965	0.1246
344.706	0.1149
344.9155	0.1165
345.125	0.1108
345.3345	0.1272
345.544	0.1221
345.7534	0.1167
345.9629	0.116
346.1723	0.1341
346.3817	0.1292
346.5911	0.1174
346.8005	0.1301
347.0099	0.1189
347.2193	0.1319
347.4286	0.1334
347.638	0.1414
347.8473	0.1399
348.0566	0.1436
348.2659	0.136
348.4752	0.1467
348.6845	0.1266
348.8937	0.1309
349.103	0.1477
349.3122	0.1246
349.5214	0.134
349.7306	0.1339
349.9398	0.144
350.149	0.1381
350.3582	0.1327
350.5674	0.1531
350.7765	0.1511
350.9856	0.1347
351.1948	0.1321
351.4039	0.1263
351.613	0.1342
351.822	0.1392
352.0311	0.1352
352.2402	0.1352
352.4492	0.1373
352.6582	0.1533
352.8672	0.1462
353.0762	0.1505
353.2852	0.1469
353.4942	0.1452
353.7032	0.1584
353.9121	0.1516
354.1211	0.1444
354.33	0.159
354.5389	0.1518
354.7478	0.1504
354.9567	0.1515
355.1655	0.1405
355.3744	0.1543
355.5833	0.1514
355.7921	0.1699
356.0009	0.1672
356.2097	0.1776
356.4185	0.1663
356.6273	0.1725
356.8361	0.1614
357.0448	0.148
357.2536	0.1595
357.4623	0.1471
357.671	0.1674
357.8797	0.1522
358.0884	0.1727
358.2971	0.1593
358.5057	0.1621
358.7144	0.1658
358.923	0.174
359.1316	0.1685
359.3402	0.1658
359.5488	0.1783
359.7574	0.1646
359.966	0.1785
360.1746	0.1727
360.3831	0.1848
360.5916	0.1664
360.8002	0.1664
361.0087	0.174
361.2172	0.1942
361.4256	0.1818
361.6341	0.1895
361.8426	0.1934
362.051	0.1699
362.2594	0.1846
362.4678	0.1955
362.6762	0.1994
362.8846	0.1873
363.093	0.1808
363.3014	0.1746
363.5097	0.1614
363.718	0.1795
363.9264	0.2024
364.1347	0.1852
364.343	0.2033
364.5513	0.1805
364.7595	0.21
364.9678	0.2072
365.176	0.1891
365.3842	0.1967
365.5925	0.1915
365.8007	0.2067
366.0089	0.1948
366.217	0.1889
366.4252	0.2182
366.6333	0.2022
366.8415	0.2192
367.0496	0.1911
367.2577	0.1984
367.4658	0.2153
367.6739	0.2029
367.882	0.2097
368.09	0.2111
368.2981	0.1998
368.5061	0.2079
368.7141	0.2019
368.9221	0.2227
369.1301	0.2292
369.3381	0.2163
369.5461	0.214
369.754	0.217
369.962	0.2253
370.1699	0.2309
370.3778	0.2184
370.5857	0.2257
370.7936	0.2088
371.0015	0.2095
371.2093	0.2135
371.4172	0.2355
371.625	0.2087
371.8328	0.2046
372.0406	0.2271
372.2484	0.235
372.4562	0.2305
372.664	0.2161
372.8717	0.236
373.0795	0.2093
373.2872	0.2162
373.4949	0.2247
373.7026	0.2132
373.9103	0.2263
374.118	0.2378
374.3256	0.2292
374.5333	0.223
374.7409	0.2248
374.9485	0.2424
375.1561	0.2323
375.3637	0.236
375.5713	0.2413
375.7789	0.2392
375.9864	0.2375
376.194	0.2372
376.4015	0.2461
376.609	0.2451
376.8165	0.2362
377.024	0.2328
377.2315	0.2318
377.4389	0.2476
377.6464	0.25
377.8538	0.2511
378.0612	0.234
378.2686	0.2461
378.476	0.2619
378.6834	0.2544
378.8908	0.251
379.0981	0.247
379.3055	0.2415
379.5128	0.2482
379.7201	0.2391
379.9274	0.2319
380.1347	0.2431
380.342	0.2712
380.5492	0.2534
380.7565	0.2554
380.9637	0.2673
381.1709	0.2478
381.3781	0.257
381.5853	0.2605
381.7925	0.2591
381.9997	0.2705
382.2068	0.2632
382.4139	0.2616
382.6211	0.2477
382.8282	0.2409
383.0353	0.2619
383.2424	0.248
383.4494	0.2727
383.6565	0.2417
383.8635	0.2554
384.0706	0.2642
384.2776	0.2707
384.4846	0.2375
384.6916	0.2723
384.8986	0.2469
385.1055	0.2677
385.3125	0.2792
385.5194	0.2614
385.7263	0.2676
385.9333	0.262
386.1402	0.2475
386.347	0.2567
386.5539	0.2542
386.7608	0.2578
386.9676	0.242
387.1744	0.2533
387.3813	0.2395
387.5881	0.2416
387.7948	0.2381
388.0016	0.2442
388.2084	0.2732
388.4151	0.2376
388.6219	0.27
388.8286	0.2749
389.0353	0.2719
389.242	0.2565
389.4487	0.2478
389.6553	0.2505
389.862	0.2328
390.0686	0.2347
390.2753	0.237
390.4819	0.2644
390.6885	0.2354
390.8951	0.258
391.1016	0.2466
391.3082	0.2382
391.5147	0.2537
391.7213	0.2491
391.9278	0.2403
392.1343	0.2311
392.3408	0.2591
392.5473	0.2538
392.7537	0.225
392.9602	0.2251
393.1666	0.2511
393.373	0.2314
393.5794	0.2504
393.7858	0.2284
393.9922	0.22
394.1986	0.2354
394.4049	0.2338
394.6113	0.2311
394.8176	0.2161
395.0239	0.2164
395.2302	0.2249
395.4365	0.2199
395.6428	0.2372
395.8491	0.2153
396.0553	0.2393
396.2615	0.2168
396.4678	0.2235
396.674	0.2047
396.8802	0.2325
397.0863	0.2431
397.2925	0.2076
397.4987	0.2331
397.7048	0.2176
397.9109	0.2212
398.117	0.2118
398.3231	0.2096
398.5292	0.2232
398.7353	0.2394
398.9413	0.2304
399.1474	0.2221
399.3534	0.2037
399.5594	0.2051
399.7654	0.2288
399.9714	0.2472
400.1774	0.2243
400.3833	0.2073
400.5893	0.2159
400.7952	0.2132
401.0011	0.226
401.207	0.2252
401.4129	0.221
401.6188	0.2164
401.8247	0.222
402.0305	0.2143
402.2364	0.2156
402.4422	0.2297
402.648	0.2375
402.8538	0.2301
403.0596	0.2051
403.2654	0.2383
403.4711	0.2119
403.6768	0.2261
403.8826	0.2256
404.0883	0.2234
404.294	0.2223
404.4997	0.2233
404.7054	0.2153
404.911	0.2158
405.1167	0.2265
405.3223	0.219
405.5279	0.2314
405.7335	0.2493
405.9391	0.2223
406.1447	0.2159
406.3502	0.2316
406.5558	0.2367
406.7613	0.2215
406.9668	0.2246
407.1724	0.2054
407.3778	0.2253
407.5833	0.2138
407.7888	0.231
407.9942	0.2287
408.1997	0.2005
408.4051	0.2126
408.6105	0.2172
408.8159	0.2154
409.0213	0.2133
409.2267	0.2306
409.432	0.1914
409.6374	0.2234
409.8427	0.2027
410.048	0.2141
410.2533	0.2021
410.4586	0.2178
410.6639	0.1857
410.8691	0.2031
411.0744	0.1968
411.2796	0.2196
411.4848	0.2127
411.69	0.2068
411.8952	0.2289
412.1004	0.2232
412.3056	0.2161
412.5107	0.2202
412.7158	0.2221
412.921	0.2142
413.1261	0.2221
413.3312	0.1935
413.5362	0.2128
413.7413	0.2065
413.9464	0.215
414.1514	0.2041
414.3564	0.2053
414.5614	0.2146
414.7664	0.2053
414.9714	0.2214
415.1764	0.2051
415.3813	0.2235
415.5863	0.208
415.7912	0.2021
415.9961	0.2093
416.201	0.2137
416.4059	0.2136
416.6108	0.2013
416.8156	0.222
417.0205	0.2138
417.2253	0.1992
417.4301	0.2272
417.6349	0.2013
417.8397	0.2059
418.0445	0.2047
418.2492	0.2045
418.454	0.2028
418.6587	0.2191
418.8634	0.2117
419.0681	0.1882
419.2728	0.1908
419.4775	0.2056
419.6822	0.1954
419.8868	0.196
420.0915	0.1873
420.2961	0.1961
420.5007	0.1921
420.7053	0.191
420.9099	0.2002
421.1144	0.1941
421.319	0.1905
421.5235	0.2093
421.728	0.1981
421.9325	0.1797
422.137	0.2144
422.3415	0.1869
422.546	0.1972
422.7504	0.1901
422.9549	0.2031
423.1593	0.1866
423.3637	0.184
423.5681	0.1905
423.7725	0.1885
423.9769	0.1741
424.1812	0.1803
424.3856	0.1821
424.5899	0.1698
424.7942	0.1782
424.9985	0.1899
425.2028	0.1792
425.4071	0.1934
425.6113	0.1797
425.8156	0.187
426.0198	0.1832
426.224	0.1648
426.4282	0.1796
426.6324	0.1624
426.8366	0.1867
427.0407	0.1575
427.2449	0.1591
427.449	0.1721
427.6531	0.1531
427.8572	0.1633
428.0613	0.1703
428.2654	0.1765
428.4694	0.1591
428.6735	0.1709
428.8775	0.1767
429.0815	0.1549
429.2855	0.1547
429.4895	0.1773
429.6935	0.1524
429.8975	0.1485
430.1014	0.151
430.3053	0.1364
430.5093	0.1441
430.7132	0.146
430.9171	0.1471
431.1209	0.1332
431.3248	0.1309
431.5286	0.1507
431.7325	0.1379
431.9363	0.1311
432.1401	0.1496
432.3439	0.1237
432.5477	0.1234
432.7514	0.1396
432.9552	0.1622
433.1589	0.1294
433.3627	0.1216
433.5664	0.1179
433.7701	0.1293
433.9737	0.1183
434.1774	0.1137
434.3811	0.1208
434.5847	0.1262
434.7883	0.1213
434.9919	0.1206
435.1955	0.1197
435.3991	0.1072
435.6027	0.126
435.8062	0.1019
436.0098	0.0994
436.2133	0.1184
436.4168	0.1025
436.6203	0.0956
436.8238	0.1036
437.0272	0.102
437.2307	0.0919
437.4341	0.106
437.6375	0.1042
437.841	0.0875
438.0443	0.0985
438.2477	0.097
438.4511	0.0828
438.6545	0.0883
438.8578	0.1029
439.0611	0.1107
439.2644	0.0804
439.4677	0.0788
439.671	0.0833
439.8743	0.0936
440.0775	0.0869
440.2808	0.0766
440.484	0.0709
440.6872	0.0572
440.8904	0.0726
441.0936	0.0844
441.2967	0.0747
441.4999	0.0934
441.703	0.0538
441.9062	0.066
442.1093	0.0612
442.3124	0.0802
442.5155	0.0525
442.7185	0.063
442.9216	0.0419
443.1246	0.0659
443.3276	0.0623
443.5307	0.0454
443.7337	0.0531
443.9366	0.065
444.1396	0.0617
444.3426	0.0518
444.5455	0.0535
444.7484	0.0393
444.9513	0.052
445.1542	0.057
445.3571	0.058
445.56	0.048
445.7628	0.0327
445.9657	0.0385
446.1685	0.0566
446.3713	0.0409
446.5741	0.045
446.7769	0.0238
446.9797	0.0424
447.1824	0.0454
447.3852	0.0255
447.5879	0.0535
447.7906	0.0493
447.9933	0.0441
448.196	0.0356
448.3986	0.0406
448.6013	0.0366
448.8039	0.0195
449.0066	0.0227
449.2092	0.0394
449.4118	0.0337
449.6143	0.0454
449.8169	0.03
450.0195	0.0217
450.222	0.018
450.4245	0.0155
450.627	0.0358
450.8295	0.0184
451.032	0.0404
451.2345	0.0221
451.4369	0.0226
451.6394	0.0164
451.8418	0.0132
452.0442	0.0165
452.2466	0.0281
452.449	0.005
452.6513	0.0164
452.8537	0.0097
453.056	0.0252
453.2583	0.0298
453.4607	0.0007
453.663	0.0168
453.8652	0.0209
454.0675	0.0111
454.2697	0.0249
454.472	0.0073
454.6742	0.0106
454.8764	0.0224
455.0786	0.0235
455.2808	0.0129
455.4829	0.0269
455.6851	0.0299
455.8872	0.0199
456.0893	0.0296
456.2915	-0.01
456.4935	0.0253
456.6956	-0.0028
456.8977	0.0104
457.0997	-0.0023
457.3018	0.0079
457.5038	0.0115
457.7058	0.0013
457.9078	-0.0001
458.1098	0.0065
458.3117	0.011
458.5137	0.0096
458.7156	0.0073
458.9175	-0.0003
459.1194	0.0059
459.3213	0.0046
459.5232	0.0009
459.725	-0.0092
459.9269	0.0068
460.1287	-0.0127
460.3305	-0.001
460.5323	0.0087
460.7341	-0.0009
460.9359	0.0091
461.1376	0.017
461.3394	-0.0086
461.5411	0.0012
461.7428	0.0013
461.9445	0.0068
462.1462	0.0221
462.3479	-0.0015
462.5495	0.0137
462.7512	0.0002
462.9528	-0.0141
463.1544	-0.0005
463.356	0.0033
463.5576	0.0026
463.7592	-0.0011
463.9607	-0.0094
464.1623	0.0132
464.3638	0.018
464.5653	-0.0051
464.7668	0.0014
464.9683	0.0069
465.1697	0
465.3712	0.0015
465.5726	0.0008
465.7741	-0.0018
465.9755	-0.0027
466.1769	-0.0003
466.3782	-0.014
466.5796	-0.0113
466.7809	0.0032
466.9823	0.0025
467.1836	0.0115
467.3849	-0.0044
467.5862	-0.0028
467.7875	0.0023
467.9887	0.0047
468.19	-0.0028
468.3912	-0.0041
468.5924	-0.0049
468.7936	-0.0034
468.9948	-0.0102
469.196	0.0058
469.3972	-0.0098
469.5983	0.0052
469.7994	-0.0075
470.0006	-0.0088
470.2017	-0.0183
470.4027	-0.0092
470.6038	-0.0126
470.8049	-0.0045
471.0059	-0.0133
471.2069	-0.0312
471.408	0.0139
471.6089	-0.0052
471.8099	-0.0198
472.0109	-0.0001
472.2119	-0.009
472.4128	-0.0208
472.6137	-0.0018
472.8146	-0.0159
473.0155	-0.0194
473.2164	-0.0078
473.4173	-0.007
473.6181	-0.0046
473.819	-0.0099
474.0198	-0.014
474.2206	-0.0071
474.4214	-0.0073
474.6222	-0.0025
474.8229	-0.0129
475.0237	-0.0168
475.2244	-0.0184
475.4251	-0.0088
475.6258	-0.0074
475.8265	-0.0013
476.0272	0.0051
476.2278	-0.0029
476.4285	-0.0009
476.6291	-0.0084
476.8297	-0.0064
477.0303	-0.0103
477.2309	-0.0064
477.4315	-0.0232
477.632	-0.005
477.8326	-0.0013
478.0331	-0.0056
478.2336	0.0067
478.4341	-0.0088
478.6346	0.003
478.8351	-0.0115
479.0355	-0.004
479.236	-0.0066
479.4364	-0.0015
479.6368	0.0034
479.8372	-0.0124
480.0376	-0.0108
480.2379	-0.0345
480.4383	-0.0099
480.6386	-0.0018
480.8389	0.0026
481.0392	-0.0165
481.2395	-0.0135
481.4398	0.0042
481.6401	-0.0036
481.8403	-0.0054
482.0405	-0.0108
482.2408	-0.0099
482.441	-0.0018
482.6411	0.0036
482.8413	-0.0104
483.0415	-0.0122
483.2416	-0.0137
483.4417	-0.0098
483.6419	-0.0057
483.8419	-0.0148
484.042	-0.0004
484.2421	-0.0139
484.4422	-0.0098
484.6422	-0.0151
484.8422	-0.0142
485.0422	-0.0048
485.2422	-0.009
485.4422	-0.0081
485.6422	-0.0152
485.8421	-0.0045
486.042	-0.0031
486.242	-0.0094
486.4419	-0.0156
486.6417	-0.0143
486.8416	-0.0011
487.0415	-0.0071
487.2413	-0.0084
487.4411	-0.0101
487.641	-0.0048
487.8408	-0.0001
488.0405	-0.0005
488.2403	-0.0118
488.4401	-0.0032
488.6398	0.0054
488.8395	-0.0134
489.0392	-0.0004
489.2389	0.0006
489.4386	-0.0078
489.6383	-0.0112
489.8379	-0.0022
490.0376	-0.0064
490.2372	-0.0163
490.4368	-0.0209
490.6364	-0.0112
490.836	-0.0083
491.0355	-0.0136
491.2351	-0.0105
491.4346	-0.0147
491.6341	-0.009
491.8336	-0.0099
492.0331	-0.0196
492.2326	-0.0237
492.432	-0.0071
492.6315	0.0003
492.8309	-0.0155
493.0303	-0.0123
493.2297	-0.0146
493.4291	-0.008
493.6284	-0.0084
493.8278	-0.0068
494.0271	0.0002
494.2264	0.0033
494.4257	-0.016
494.625	-0.0108
494.8243	-0.024
495.0236	-0.0057
495.2228	-0.0183
495.422	0.0015
495.6213	0.0014
495.8205	-0.0062
496.0196	-0.0099
496.2188	-0.0022
496.418	-0.0148
496.6171	-0.009
496.8162	-0.0189
497.0153	-0.0039
497.2144	-0.0101
497.4135	-0.0148
497.6126	-0.0181
497.8116	-0.0077
498.0107	-0.004
498.2097	-0.0213
498.4087	-0.0125
498.6077	-0.0127
498.8067	-0.0104
499.0056	-0.0008
499.2046	-0.0087
499.4035	-0.0257
499.6024	-0.0009
499.8013	-0.0066
500.0002	-0.021
500.199	-0.0079
500.3979	-0.0131
500.5967	-0.0239
500.7956	-0.0117
500.9944	-0.014
501.1932	-0.0147
501.3919	-0.0149
501.5907	-0.0192
501.7895	-0.0035
501.9882	-0.014
502.1869	-0.0131
502.3856	-0.0202
502.5843	-0.019
502.783	-0.0099
502.9816	-0.0021
503.1803	-0.0292
503.3789	-0.0259
503.5775	-0.0064
503.7761	-0.0047
503.9747	-0.0172
504.1732	-0.0081
504.3718	-0.0031
504.5703	-0.0122
504.7689	-0.0165
504.9674	-0.0086
505.1658	-0.0218
505.3643	-0.0084
505.5628	-0.0115
505.7612	-0.0189
505.9597	0.004
506.1581	-0.0136
506.3565	-0.0061
506.5549	-0.0093
506.7532	-0.0207
506.9516	-0.0164
507.1499	-0.0044
507.3482	-0.0175
507.5465	-0.0126
507.7448	-0.0038
507.9431	-0.0114
508.1414	-0.0101
508.3396	-0.0016
508.5379	-0.007
508.7361	-0.0094
508.9343	-0.0079
509.1325	-0.0048
509.3306	-0.0121
509.5288	-0.0077
509.7269	-0.0106
509.9251	0.0007
510.1232	-0.0144
510.3213	-0.0092
510.5193	-0.0038
510.7174	-0.0238
510.9154	-0.0147
511.1135	-0.0181
511.3115	-0.0115
511.5095	-0.0089
511.7075	-0.0035
511.9055	-0.0169
512.1034	-0.0101
512.3014	-0.0015
512.4993	-0.011
512.6972	-0.0091
512.8951	-0.0152
513.093	-0.01
513.2908	-0.0142
513.4887	-0.0093
513.6865	-0.0116
513.8844	-0.0125
514.0822	-0.0185
514.2799	-0.0223
514.4777	-0.0071
514.6755	-0.0126
514.8732	-0.0133
515.0709	-0.0144
515.2687	-0.0165
515.4664	-0.0115
515.664	-0.0092
515.8617	-0.0064
516.0594	-0.0201
516.257	-0.0167
516.4546	-0.0192
516.6522	-0.0062
516.8498	-0.0005
517.0474	-0.0049
517.2449	-0.0099
517.4425	-0.0152
517.64	-0.0094
517.8375	-0.0102
518.035	-0.0112
518.2325	-0.0114
518.43	-0.0133
518.6274	-0.007
518.8249	-0.0152
519.0223	-0.0087
519.2197	-0.0048
519.4171	-0.0103
519.6145	-0.0196
519.8118	0.0002
520.0092	-0.0146
520.2065	-0.0074
520.4038	-0.0163
520.6011	-0.0145
520.7984	-0.0135
520.9956	-0.0042
521.1929	-0.0196
521.3901	-0.0059
521.5874	-0.0121
521.7846	-0.0075
521.9818	-0.0093
522.1789	-0.0213
522.3761	-0.0131
522.5732	-0.0114
522.7704	-0.0142
522.9675	-0.0015
523.1646	-0.0147
523.3617	-0.0049
523.5587	0.002
523.7558	-0.0074
523.9528	-0.0025
524.1498	-0.0052
524.3468	-0.0114
524.5438	-0.0135
524.7408	-0.0084
524.9378	0.0037
525.1347	-0.0048
525.3316	-0.0038
525.5285	-0.0103
525.7254	-0.0099
525.9223	-0.0087
526.1192	-0.0139
526.316	-0.006
526.5129	-0.0021
526.7097	-0.0065
526.9065	-0.0037
527.1033	-0.0069
527.3	-0.0041
527.4968	-0.0116
527.6935	-0.0049
527.8903	-0.0191
528.087	-0.0081
528.2837	-0.0075
528.4804	-0.0023
528.677	-0.0096
528.8737	0.0051
529.0703	-0.0061
529.2669	-0.0067
529.4635	-0.0036
529.6601	-0.0094
529.8567	-0.0091
530.0532	-0.0104
530.2498	0.0024
530.4463	0.0002
530.6428	-0.0085
530.8393	-0.0038
531.0358	0.0001
531.2322	-0.0069
531.4287	-0.008
531.6251	-0.009
531.8215	-0.0028
532.0179	-0.0029
532.2143	0.004
532.4107	-0.0019
532.607	-0.0121
532.8034	-0.0095
532.9997	-0.0016
533.196	-0.0114
533.3923	-0.0103
533.5886	0.0022
533.7848	-0.005
533.9811	-0.0086
534.1773	0.0007
534.3735	-0.0023
534.5697	-0.0041
534.7659	-0.0015
534.9621	-0.005
535.1582	-0.0074
535.3544	-0.0139
535.5505	-0.0102
535.7466	-0.0106
535.9427	-0.0122
536.1387	-0.0089
536.3348	-0.014
536.5308	-0.0056
536.7269	-0.0148
536.9229	-0.0004
537.1189	0.0004
537.3148	0.0008
537.5108	-0.0117
537.7068	0.0044
537.9027	0.0088
538.0986	-0.0141
538.2945	-0.0138
538.4904	-0.0107
538.6863	-0.0069
538.8821	-0.0089
539.078	-0.0078
539.2738	-0.0069
539.4696	-0.011
539.6654	-0.0023
539.8611	0.0112
540.0569	-0.0055
540.2526	-0.0101
540.4484	0.0044
540.6441	-0.0004
540.8398	0.0023
541.0355	-0.0037
541.2311	-0.0084
541.4268	-0.0019
541.6224	-0.0028
541.818	-0.0004
542.0136	-0.0019
542.2092	-0.0037
542.4048	0.0027
542.6003	-0.0032
542.7959	-0.0055
542.9914	-0.0073
543.1869	-0.0018
543.3824	0.002
543.5779	-0.0193
543.7734	-0.0068
543.9688	-0.008
544.1642	-0.0018
544.3596	0.0063
544.555	-0.0123
544.7504	-0.0071
544.9458	-0.0134
545.1411	-0.0106
545.3365	-0.0049
545.5318	-0.0087
545.7271	-0.0037
545.9224	-0.0101
546.1177	0.0019
546.3129	-0.0045
546.5081	-0.007
546.7034	-0.0075
546.8986	-0.0037
547.0938	-0.0103
547.289	-0.0112
547.4841	-0.0068
547.6793	0.0049
547.8744	-0.0078
548.0695	-0.007
548.2646	-0.0106
548.4597	-0.0033
548.6548	-0.0044
548.8498	-0.0036
549.0448	0.0013
549.2399	-0.0132
549.4349	0.007
549.6298	-0.0012
549.8248	-0.0024
550.0198	0.0017
550.2147	-0.0055
550.4096	-0.0038
550.6045	-0.0059
550.7994	0.0011
550.9943	-0.004
551.1892	-0.0019
551.384	-0.0041
551.5788	-0.0103
551.7737	0.0004
551.9685	-0.0055
552.1632	-0.0043
552.358	-0.0022
552.5528	-0.0051
552.7475	-0.0141
552.9422	0.0016
553.1369	-0.0027
553.3316	0.0038
553.5263	-0.0101
553.7209	0.006
553.9156	-0.0046
554.1102	-0.0057
554.3048	-0.0071
554.4994	0.0092
554.694	0.0046
554.8885	0.0066
555.0831	-0.0044
555.2776	-0.0095
555.4721	-0.0034
555.6666	0.001
555.8611	0.0062
556.0555	-0.006
556.25	-0.0043
556.4444	-0.0152
556.6388	-0.0002
556.8332	-0.0071
557.0276	0.0002
557.222	-0.0017
557.4163	-0.0014
557.6107	-0.0117
557.805	0.0021
557.9993	-0.0111
558.1936	-0.0042
558.3879	0.0006
558.5821	-0.0016
558.7764	-0.0075
558.9706	0.0011
559.1648	-0.0003
559.359	-0.0013
559.5532	0.0031
559.7473	-0.0086
559.9415	0.006
560.1356	-0.0077
560.3297	-0.0135
560.5238	-0.0109
560.7179	-0.0033
560.9119	-0.0063
561.106	-0.0052
561.3	-0.0065
561.494	-0.0007
561.688	-0.0039
561.882	-0.0132
562.076	-0.0082
562.2699	0.0044
562.4639	-0.0079
562.6578	-0.0059
562.8517	-0.0039
563.0456	-0.0066
563.2395	0.0036
563.4333	0.0036
563.6272	0.0016
563.821	0.0013
564.0148	-0.0011
564.2086	-0.0029
564.4024	-0.0068
564.5961	-0.007
564.7899	-0.001
564.9836	0.0031
565.1773	-0.0032
565.371	0.0089
565.5647	-0.0007
565.7584	0.0045
565.952	-0.0036
566.1456	0.0013
566.3393	-0.0031
566.5329	-0.0018
566.7264	0.0011
566.92	-0.0019
567.1136	0.0039
567.3071	-0.0064
567.5006	0.0003
567.6941	0.0043
567.8876	0.0021
568.0811	-0.0077
568.2745	0.0124
568.468	0.0047
568.6614	0.0036
568.8548	-0.0008
569.0482	-0.0019
569.2416	0.0038
569.4349	-0.0002
569.6283	-0.0016
569.8216	-0.0047
570.0149	-0.0035
570.2082	0.002
570.4015	-0.0005
570.5947	0.0014
570.788	0.0077
570.9812	0.004
571.1744	-0.0046
571.3676	-0.0126
571.5608	-0.0119
571.754	0.0014
571.9471	0.003
572.1402	-0.0045
572.3333	-0.0089
572.5264	-0.0036
572.7195	-0.0082
572.9126	0.0027
573.1057	0.0017
573.2987	-0.0099
573.4917	0.0027
573.6847	-0.0094
573.8777	0.0045
574.0707	0.0076
574.2636	-0.0063
574.4566	-0.0043
574.6495	0.0024
574.8424	0.0004
575.0353	-0.0065
575.2281	0.0056
575.421	-0.0006
575.6138	0.0036
575.8067	-0.002
575.9995	0.0025
576.1923	-0.0015
576.385	-0.0006
576.5778	0.0019
576.7706	-0.0045
576.9633	0.0037
577.156	0.0002
577.3487	-0.0061
577.5414	-0.0023
577.734	-0.0014
577.9267	0.002
578.1193	-0.011
578.3119	-0.0082
578.5045	-0.0029
578.6971	-0.0038
578.8897	0.0006
579.0822	-0.0032
579.2747	0.0043
579.4673	-0.0076
579.6598	-0.0089
579.8522	-0.0048
580.0447	-0.0073
580.2372	-0.0072
580.4296	0.0104
580.622	-0.0052
580.8144	-0.0008
581.0068	-0.0096
581.1992	-0.0149
581.3915	-0.0113
581.5839	-0.01
581.7762	-0.0102
581.9685	-0.0063
582.1608	-0.009
582.353	-0.0029
582.5453	-0.0023
582.7375	-0.0045
582.9298	0.0006
583.122	-0.0032
583.3142	0.0009
583.5063	-0.0075
583.6985	-0.0006
583.8906	-0.0054
584.0827	-0.0056
584.2749	0.0015
584.4669	0.001
584.659	-0.0024
584.8511	-0.0081
585.0431	-0.0059
585.2352	-0.0031
585.4272	0.0009
585.6192	-0.0005
585.8111	-0.002
586.0031	-0.0051
586.195	0.0013
586.387	0.0043
586.5789	-0.0037
586.7708	0.0021
586.9627	-0.0037
587.1545	-0.0062
587.3464	0.0056
587.5382	0.0015
587.73	0.0087
587.9218	0.0109
588.1136	-0.0025
588.3053	-0.0016
588.4971	-0.0054
588.6888	-0.0129
588.8805	0.0009
589.0722	0.0018
589.2639	-0.0041
589.4556	-0.0042
589.6472	-0.0012
589.8389	-0.0126
590.0305	-0.0128
590.2221	0.0025
590.4137	0.0011
590.6052	0.0055
590.7968	-0.0025
590.9883	0.0027
591.1798	-0.0001
591.3713	-0.0011
591.5628	0.0057
591.7543	0.0096
591.9458	0.0041
592.1372	0.0063
592.3286	0.007
592.52	0.0042
592.7114	-0.0061
592.9028	0.003
593.0941	-0.0007
593.2855	-0.0062
593.4768	-0.0041
593.6681	-0.01
593.8594	-0.0064
594.0506	-0.0066
594.2419	0.0078
594.4331	-0.0029
594.6244	0.0079
594.8156	-0.0092
595.0067	-0.0005
595.1979	0.0009
595.3891	-0.0008
595.5802	-0.0032
595.7713	-0.0066
595.9624	0.0035
596.1535	0.0064
596.3446	0.0082
596.5357	0.0032
596.7267	0.0028
596.9177	0.0052
597.1087	-0.0023
597.2997	-0.0005
597.4907	0.0056
597.6817	-0.0089
597.8726	0.0003
598.0635	-0.008
598.2544	0.0034
598.4453	0.0025
598.6362	-0.003
598.827	-0.0035
599.0179	-0.0028
599.2087	0.0017
599.3995	0.0029
599.5903	0.0053
599.7811	-0.0007
599.9718	0.0015
600.1626	-0.0009
600.3533	-0.0068
600.544	0.0026
600.7347	0.0023
600.9254	0.0044
601.116	-0.0029
601.3067	-0.0009
601.4973	-0.0064
601.6879	0.0082
601.8785	-0.0002
602.0691	0.0063
602.2596	-0.0007
602.4502	0.0061
602.6407	0.005
602.8312	-0.0002
603.0217	-0.0035
603.2122	0.0033
603.4027	0.0018
603.5931	-0.0002
603.7835	0.0052
603.9739	-0.0011
604.1643	0.002
604.3547	-0.0068
604.5451	-0.0057
604.7354	-0.0075
604.9257	-0.0031
605.116	-0.0027
605.3063	0.0044
605.4966	-0.0039
605.6869	0.004
605.8771	0.0011
606.0673	0.0046
606.2575	-0.0004
606.4477	0.003
606.6379	-0.0061
606.8281	-0.0072
607.0182	0.0001
607.2083	0.0099
607.3985	-0.0069
607.5885	0.0034
607.7786	0.0009
607.9687	-0.0036
608.1587	0.0064
608.3488	0.0089
608.5388	0.0006
608.7288	-0.0067
608.9187	-0.0032
609.1087	-0.0031
609.2986	-0.0016
609.4886	-0.0077
609.6785	-0.0021
609.8684	0.0051
610.0582	-0.0045
610.2481	0.0029
610.4379	-0.0023
610.6278	-0.0074
610.8176	-0.0038
611.0074	-0.0074
611.1971	-0.0035
611.3869	-0.0088
611.5766	-0.01
611.7664	0.0043
611.9561	0.0009
612.1458	0.0001
612.3354	-0.0074
612.5251	-0.0034
612.7147	0.003
612.9044	0.0022
613.094	-0.0045
613.2836	0.0018
613.4731	0.0005
613.6627	-0.0008
613.8522	0.0039
614.0417	0.0054
614.2313	-0.0013
614.4207	-0.0087
614.6102	-0.0034
614.7997	-0.0064
614.9891	-0.0064
615.1785	-0.0006
615.3679	-0.011
615.5573	0.0017
615.7467	-0.0086
615.9361	-0.001
616.1254	0
616.3147	0.0014
616.504	0.0022
616.6933	-0.0039
616.8826	0.0097
617.0718	0.0082
617.2611	-0.0021
617.4503	-0.002
617.6395	-0.0016
617.8287	-0.0084
618.0179	-0.0054
618.207	0.0015
618.3961	-0.0031
618.5853	-0.0094
618.7744	0.001
618.9634	0.0106
619.1525	0.0035
619.3416	0.005
619.5306	0.0095
619.7196	-0.002
619.9086	-0.0081
620.0976	0.0043
620.2866	-0.0007
620.4755	0.0072
620.6645	0.0006
620.8534	0.0088
621.0423	0.0039
621.2312	0.0098
621.42	-0.0034
621.6089	-0.0005
621.7977	0.0013
621.9865	-0.0045
622.1753	0.0099
622.3641	0.0003
622.5529	0.0062
622.7416	-0.0018
622.9303	-0.0036
623.1191	-0.0037
623.3078	-0.0058
623.4964	0.0056
623.6851	-0.0028
623.8737	0.0034
624.0624	0.0067
624.251	-0.0029
624.4396	-0.0049
624.6282	-0.0051
624.8167	-0.0017
625.0053	0.0047
625.1938	0.0077
625.3823	0.0041
625.5708	0.0024
625.7593	-0.0063
625.9477	-0.0053
626.1362	-0.0011
626.3246	0.0047
626.513	0.0103
626.7014	0.0121
626.8898	0.0022
627.0781	-0.0048
627.2665	-0.0062
627.4548	0.0086
627.6431	0.0076
627.8314	0.0112
628.0197	0.0076
628.2079	-0.0042
628.3962	-0.0011
628.5844	0.005
628.7726	0.0036
628.9608	0.0131
629.1489	0.0042
629.3371	0.0064
629.5252	0.0041
629.7134	0.0087
629.9015	0.0015
630.0895	0.0041
630.2776	0.0102
630.4657	0.0061
630.6537	0.0001
630.8417	0.0029
631.0297	-0.0014
631.2177	0.0063
631.4057	-0.0052
631.5936	-0.0041
631.7815	-0.0013
631.9695	-0.0021
632.1574	0.0009
632.3452	0.006
632.5331	0.0002
632.7209	0.0024
632.9088	0.0065
633.0966	0.0085
633.2844	-0.0005
633.4722	-0.001
633.6599	-0.0013
633.8477	0.0039
634.0354	0.0033
634.2231	0.0019
634.4108	0.004
634.5985	0.0091
634.7861	0.0038
634.9738	0.0001
635.1614	-0.0029
635.349	0.0028
635.5366	-0.007
635.7242	-0.0012
635.9117	0.0065
636.0993	0.0012
636.2868	0.0037
636.4743	0.0022
636.6618	0.0094
636.8492	0.0046
637.0367	-0.0006
637.2241	-0.0046
637.4115	-0.0044
637.5989	-0.001
637.7863	-0.0032
637.9737	-0.0044
638.161	0.0021
638.3484	-0.0024
638.5357	-0.0017
638.723	0.0006
638.9103	-0.0028
639.0975	0.0061
639.2848	0.0087
639.472	0.0049
639.6592	0.003
639.8464	0.009
640.0336	0.0069
640.2208	0.0006
640.4079	0.0001
640.595	-0.0001
640.7821	0.005
640.9692	0.0009
641.1563	0.0085
641.3434	0.0088
641.5304	0.0023
641.7174	0.002
641.9044	0.0033
642.0914	0.0017
642.2784	0.0044
642.4653	0.0078
642.6523	-0.0033
642.8392	0.001
643.0261	0.0097
643.213	0.0051
643.3999	-0.0025
643.5867	-0.0032
643.7735	0.004
643.9604	-0.0042
644.1472	0.0026
644.3339	0.0034
644.5207	0.0002
644.7075	0.0037
644.8942	0.0043
645.0809	0.0066
645.2676	0.0052
645.4543	0.0076
645.6409	0.0053
645.8276	0.0079
646.0142	0.0034
646.2008	-0.0043
646.3874	-0.0037
646.574	0.0045
646.7605	0.0067
646.9471	-0.0072
647.1336	-0.0021
647.3201	0.0029
647.5066	-0.0004
647.6931	0.0034
647.8795	-0.0057
648.0659	0.0067
648.2524	0.0054
648.4388	0.0018
648.6252	0.0015
648.8115	0.0014
648.9979	-0.0019
649.1842	0.0081
649.3705	-0.0012
649.5568	0.0032
649.7431	0.0066
649.9294	0.0021
650.1156	-0.0004
650.3018	-0.0029
650.488	0.0046
650.6742	0.0031
650.8604	-0.0022
651.0466	0.0039
651.2327	0.0015
651.4188	0.0029
651.6049	0.0019
651.791	0.0026
651.9771	0.0029
652.1632	0.0115
652.3492	0.0018
652.5352	0.0008
652.7212	-0.0001
652.9072	0.0062
653.0932	0.0001
653.2791	-0.0016
653.465	0.003
653.651	-0.0051
653.8369	0.0017
654.0227	0.0056
654.2086	0.0076
654.3944	0.0097
654.5803	0.006
654.7661	-0.0034
654.9519	-0.0007
655.1377	-0.0028
655.3234	-0.0029
655.5092	-0.0041
655.6949	-0.0041
655.8806	-0.0073
656.0663	-0.0066
656.2519	-0.0042
656.4376	-0.0052
656.6232	0.0024
656.8088	0.0038
656.9945	-0.0002
657.18	0.0015
657.3656	0.0005
657.5511	0.0015
657.7367	-0.0008
657.9222	0.0036
658.1077	-0.0016
658.2932	0.0037
658.4786	-0.0114
658.6641	-0.0025
658.8495	-0.0017
659.0349	0.0042
659.2203	0.0039
659.4057	0.0056
659.591	0.0061
659.7764	0.001
659.9617	0.0064
660.147	0.0014
660.3323	0.0078
660.5176	0.0125
660.7028	0.0063
660.888	0.0016
661.0733	0.0089
661.2585	-0.0056
661.4436	0.0032
661.6288	0.0058
661.8139	0.009
661.9991	0.009
662.1842	0.001
662.3693	0.0065
662.5544	-0.0007
662.7394	0.0096
662.9245	-0.0032
663.1095	0.0024
663.2945	-0.0007
663.4795	-0.0067
663.6644	0.0025
663.8494	-0.0104
664.0343	-0.001
664.2193	-0.007
664.4042	0.001
664.589	-0.006
664.7739	-0.0044
664.9587	-0.0113
665.1436	-0.0008
665.3284	0.0018
665.5132	-0.0069
665.698	0.0007
665.8827	0.008
666.0675	0
666.2522	-0.0061
666.4369	0.0044
666.6216	0.0131
666.8063	0.0034
666.9909	0.0071
667.1756	0.004
667.3602	0.0011
667.5448	0.0047
667.7294	0.0155
667.9139	-0.0023
668.0985	0.0138
668.283	0.0005
668.4675	-0.0014
668.652	0.0049
668.8365	-0.0005
669.0209	0.0101
669.2054	0.0092
669.3898	0.0061
669.5742	0.0046
669.7586	0.0098
669.943	0.0154
670.1273	0.0101
670.3117	0.0089
670.496	0.0094
670.6803	0.0106
670.8646	0.0051
671.0488	-0.0008
671.2331	0.0084
671.4173	0.0065
671.6015	0.0013
671.7857	0.0098
671.9699	0.0085
672.1541	0.0143
672.3382	0.005
672.5223	0.0057
672.7064	0.0104
672.8905	0.012
673.0746	0.0038
673.2587	0.0023
673.4427	0.0101
673.6267	0.0049
673.8107	0.0095
673.9947	0.0079
674.1787	0.0067
674.3626	0.0006
674.5465	0.009
674.7304	0.0015
674.9143	0.0116
675.0982	0.0115
675.2821	-0.0004
675.4659	0.01
675.6497	0.0022
675.8335	0.0032
676.0173	0.0084
676.2011	0.0047
676.3849	0.0113
676.5686	0.0018
676.7523	0.0074
676.936	0.0032
677.1197	-0.0034
677.3034	0.0029
677.487	0.0087
677.6706	0.0047
677.8542	0.0046
678.0378	0.0018
678.2214	0.0002
678.405	0.0013
678.5885	-0.0005
678.772	0.0083
678.9555	0.0005
679.139	0.0079
679.3225	0.0018
679.5059	0.008
679.6894	0.0121
679.8728	-0.0011
680.0562	-0.0075
680.2395	-0.0028
680.4229	0.0002
680.6062	0.011
680.7896	0.0029
680.9729	0.0016
681.1562	0.0123
681.3394	0.0017
681.5227	-0.0081
681.7059	0.0001
681.8891	0.0004
682.0723	0.008
682.2555	0.0032
682.4387	-0.0018
682.6218	0.0021
682.805	0.0061
682.9881	0.0083
683.1712	-0.0013
683.3542	0.0022
683.5373	0.0045
683.7203	-0.0033
683.9034	0.007
684.0864	0.0055
684.2694	-0.0006
684.4523	0.007
684.6353	0.0033
684.8182	0.0113
685.0011	-0.0032
685.184	0.0121
685.3669	-0.0019
685.5498	0.0075
685.7326	0.0033
685.9154	0.0024
686.0982	0.0144
686.281	0.0114
686.4638	0.0025
686.6465	0.0068
686.8293	0.0056
687.012	0.0093
687.1947	-0.0014
687.3774	0.0028
687.56	0.0039
687.7427	0.0051
687.9253	-0.0056
688.1079	-0.0031
688.2905	0.0075
688.4731	0.0055
688.6556	0.0018
688.8382	0.0036
689.0207	-0.0021
689.2032	-0.0084
689.3857	-0.0099
689.5681	0.004
689.7506	0
689.933	-0.0056
690.1154	-0.0007
690.2978	0.0061
690.4802	0.0006
690.6626	-0.0083
690.8449	-0.0038
691.0272	0.0048
691.2095	0.0006
691.3918	-0.008
691.5741	-0.0006
691.7563	0.0022
691.9386	-0.0021
692.1208	-0.0036
692.303	-0.0011
692.4852	-0.0061
692.6673	0.0006
692.8495	0.0006
693.0316	0.0041
693.2137	0.0061
693.3958	0.0013
693.5778	-0.0004
693.7599	-0.0025
693.9419	0.0047
694.1239	-0.0024
694.3059	-0.0093
694.4879	0.0096
694.6699	0.0049
694.8518	0.0074
695.0337	0.0018
695.2157	0.0058
695.3975	-0.0079
695.5794	0.0061
695.7613	0.0013
695.9431	-0.0011
696.1249	0.0075
696.3067	0.0052
696.4885	0.0014
696.6703	-0.0018
696.852	0.0035
697.0337	0.0066
697.2154	0.0023
697.3971	0.0057
697.5788	0.0043
697.7605	0.0008
697.9421	0.0083
698.1237	0.0044
698.3053	-0.0033
698.4869	-0.001
698.6685	-0.001
698.85	0.0019
699.0315	0.0042
699.213	-0.0022
699.3945	0.0097
699.576	0.0066
699.7575	0.0085
699.9389	0.0103
700.1203	-0.0015
700.3017	-0.004
700.4831	-0.0027
700.6645	0.0014
700.8458	-0.0014
701.0271	-0.0051
701.2084	-0.0009
701.3897	-0.0021
701.571	-0.0055
701.7523	-0.0067
701.9335	-0.0041
702.1147	-0.0082
702.2959	0.0022
702.4771	0.0039
702.6583	0.0048
702.8394	-0.0038
703.0205	0.0055
703.2016	-0.0069
703.3827	-0.002
703.5638	0.0049
703.7449	0.0054
703.9259	0.0067
704.1069	0.0021
704.2879	0.0049
704.4689	0.0085
704.6499	-0.0056
704.8308	0.0023
705.0117	0.0021
705.1927	-0.0013
705.3735	0.0026
705.5544	-0.0033
705.7353	-0.0012
705.9161	-0.0009
706.0969	-0.0027
706.2777	-0.0022
706.4585	-0.0011
706.6393	0.0065
706.82	-0.006
707.0007	0.0036
707.1815	0.0104
707.3621	0.0023
707.5428	0.0062
707.7235	0.0065
707.9041	0.0073
708.0847	-0.0061
708.2653	0.0067
708.4459	-0.0079
708.6265	0.0054
708.807	-0.0056
708.9875	0.002
709.168	-0.001
709.3485	-0.0079
709.529	0.0015
709.7095	-0.0124
709.8899	0.0007
710.0703	-0.0052
710.2507	0.0068
710.4311	-0.0032
710.6115	-0.0141
710.7918	-0.0053
710.9721	-0.0058
711.1524	-0.0078
711.3327	-0.003
711.513	0.0054
711.6932	0.0012
711.8735	0.0103
712.0537	0.0009
712.2339	0.0039
712.4141	-0.0118
712.5942	-0.0053
712.7744	0.001
712.9545	-0.0017
713.1346	-0.0075
713.3147	0.0028
713.4947	0.0034
713.6748	0.0043
713.8548	0.0017
714.0348	0.0078
714.2148	0.0044
714.3948	0.0092
714.5748	-0.0027
714.7547	0.0067
714.9346	0.009
715.1145	0.0071
715.2944	0.0041
715.4743	-0.0004
715.6541	0.0054
715.834	0.0114
716.0138	-0.0011
716.1936	-0.0084
716.3733	0.0003
716.5531	0.0089
716.7328	0.0019
716.9126	-0.0036
717.0923	0.0096
717.2719	0.0051
717.4516	-0.0014
717.6312	0.0073
717.8109	0.0016
717.9905	0.0048
718.1701	0.0016
718.3496	-0.0049
718.5292	0.0006
718.7087	0.0066
718.8882	0.0037
719.0677	0.0148
719.2472	0.0011
719.4267	0.0145
719.6061	0.0052
719.7856	0.0047
719.965	0.0114
720.1443	0.0048
720.3237	0.017
720.5031	0.0069
720.6824	0.0094
720.8617	0.0101
721.041	0.0078
721.2203	0.0124
721.3995	0.0005
721.5788	0.0019
721.758	0.0138
721.9372	-0.0008
722.1164	-0.001
722.2956	0.0099
722.4747	0.0104
722.6538	-0.0015
722.8329	0.0101
723.012	0.0079
723.1911	-0.0038
723.3702	-0.004
723.5492	-0.0041
723.7282	-0.0002
723.9072	-0.0084
724.0862	-0.0048
724.2652	-0.001
724.4441	-0.0059
724.623	-0.0052
724.8019	0.0089
724.9808	0.0052
725.1597	-0.0057
725.3385	0.0088
725.5174	0.0065
725.6962	0.0059
725.875	0.0032
726.0538	0.0031
726.2325	-0.0049
726.4112	-0.0016
726.59	0.0064
726.7687	-0.0008
726.9474	0.0123
727.126	0.0003
727.3047	-0.0024
727.4833	0.0045
727.6619	-0.0048
727.8405	-0.0058
728.0191	-0.0035
728.1976	0.006
728.3762	-0.0007
728.5547	-0.0013
728.7332	-0.0156
728.9116	0.0023
729.0901	0.0064
729.2686	-0.0028
729.447	-0.0052
729.6254	0.0038
729.8038	-0.002
729.9821	-0.0172
730.1605	0.0067
730.3388	-0.0006
730.5171	0.0024
730.6954	-0.0086
730.8737	0.0047
731.0519	0.0037
731.2302	0.0046
731.4084	0.0083
731.5866	0.0115
731.7648	0.0035
731.9429	0.0001
732.1211	0
732.2992	0.0022
732.4773	-0.0014
732.6554	0.0027
732.8335	0.0066
733.0115	0.0091
733.1896	0.0047
733.3676	-0.0113
733.5456	0.0135
733.7235	0.008
733.9015	0.0038
734.0794	0.006
734.2574	0.001
734.4353	-0.0017
734.6131	0.0013
734.791	0.0038
734.9689	0.0011
735.1467	0.0002
735.3245	-0.0036
735.5023	-0.008
735.68	-0.0004
735.8578	-0.0027
736.0355	-0.0134
736.2132	-0.0084
736.3909	0.0018
736.5686	-0.0026
736.7463	-0.0055
736.9239	-0.0092
737.1015	-0.006
737.2791	-0.0011
737.4567	-0.0102
737.6343	-0.0166
737.8118	-0.008
737.9894	0.0003
738.1669	-0.0062
738.3444	-0.0084
738.5218	-0.0007
738.6993	-0.0053
738.8767	-0.0004
739.0541	0.008
739.2315	-0.0074
739.4089	0.004
739.5863	0.0074
739.7636	0.0047
739.9409	0.0079
740.1182	0.004
740.2955	0.0074
740.4728	0.006
740.65	-0.001
740.8272	0.0011
741.0044	0.005
741.1816	0.002
741.3588	-0.0062
741.5359	0.0038
741.7131	-0.0126
741.8902	-0.0031
742.0673	-0.0027
742.2444	-0.0111
742.4214	-0.0055
742.5985	-0.0008
742.7755	-0.0066
742.9525	-0.0146
743.1295	0.0054
743.3064	-0.001
743.4834	0.0062
743.6603	-0.0017
743.8372	-0.0039
744.0141	0.0043
744.191	0.0118
744.3678	-0.0068
744.5446	-0.0024
744.7215	0.0031
744.8982	0.0014
745.075	0.0029
745.2518	0.0019
745.4285	-0.0034
745.6052	-0.0006
745.7819	-0.0001
745.9586	-0.0041
746.1353	-0.0007
746.3119	-0
746.4885	-0.0082
746.6651	-0.0052
746.8417	-0.0016
747.0183	-0
747.1948	-0.0056
747.3714	0.0066
747.5479	-0.0007
747.7244	0.0014
747.9008	0.0118
748.0773	0.0026
748.2537	-0.0047
748.4301	-0
748.6065	0.0083
748.7829	0.0066
748.9593	-0.0069
749.1356	-0.0035
749.3119	0.0177
749.4882	-0.0038
749.6645	0.004
749.8408	-0.0039
750.017	-0.0087
750.1933	-0.0003
750.3695	-0.0082
750.5457	0.0088
750.7218	0.0024
750.898	-0.006
751.0741	-0.0032
751.2502	-0.0047
751.4263	-0.0077
751.6024	0.002
751.7784	-0.0018
751.9545	-0.0069
752.1305	-0.0088
752.3065	-0.0053
752.4825	0.0022
752.6584	-0.0072
752.8344	-0.0103
753.0103	-0.01
753.1862	-0.0124
753.3621	-0.0113
753.5379	-0.0087
753.7138	-0.0054
753.8896	-0.0039
754.0654	-0.0021
754.2412	0.0072
754.417	-0.0028
754.5927	-0.0037
754.7685	-0.0073
754.9442	0.0034
755.1199	0.0029
755.2956	-0.0073
755.4712	-0.0006
755.6469	0.0063
755.8225	-0.0015
755.9981	-0.008
756.1736	0.0043
756.3492	-0.0017
756.5248	-0.0045
756.7003	-0.0004
756.8758	-0.0043
757.0513	-0.0236
757.2267	-0.0072
757.4022	-0.0013
757.5776	-0.0111
757.753	0.0011
757.9284	0.003
758.1038	0.0133
758.2791	0.0011
758.4545	-0.0132
758.6298	-0.0008
758.8051	0.0045
758.9803	0.0074
759.1556	0.0088
759.3308	0.0032
759.506	0.0135
759.6812	-0.0007
759.8564	0.0143
760.0316	0.0053
760.2067	0.0034
760.3819	-0.0013
760.557	0.0071
760.732	-0.0034
760.9071	-0.0121
761.0821	-0.0008
761.2572	0.0056
761.4322	-0.0038
761.6072	0.0029
761.7821	-0.0047
761.9571	0.0033
762.132	-0.0106
762.3069	-0.0036
762.4818	-0.0069
762.6567	0.0024
762.8316	0.0041
763.0064	-0.0016
763.1812	-0.0029
763.356	-0.0176
763.5308	-0.0027
763.7055	-0.0081
763.8803	-0.0056
764.055	-0.0048
764.2297	0.0009
764.4044	-0.0058
764.579	-0.0106
764.7537	-0.0278
764.9283	-0.0055
765.1029	-0.0092
765.2775	-0.0017
765.4521	-0.0116
765.6266	-0.0095
765.8011	-0.0048
765.9756	-0.006
766.1501	-0.0011
766.3246	-0.0042
766.4991	-0.0033
766.6735	-0.0058
766.8479	0.0025
767.0223	0.0084
767.1967	-0.0025
767.371	0.0069
767.5454	-0.005
767.7197	0.0022
767.894	-0.0091
768.0683	-0.004
768.2425	-0.0042
768.4168	0.0023
768.591	-0.0009
768.7652	0.0097
768.9394	-0.0066
769.1135	0.0035
769.2877	-0.0026
769.4618	-0.0032
769.6359	-0.0083
769.81	-0.0071
769.984	-0.0059
770.1581	0.0002
770.3321	0.0055
770.5061	0.0001
770.6801	-0.0104
770.8541	0.0018
771.028	0.0015
771.202	-0.0077
771.3759	-0.0084
771.5498	-0.0131
771.7236	0.0097
771.8975	-0.0065
772.0713	-0.003
772.2451	0.002
772.4189	0.0117
772.5927	0.0117
772.7665	0.0132
772.9402	-0.0009
773.1139	0.0038
773.2876	-0.0009
773.4613	0.0091
773.635	0.0104
773.8086	-0.0146
773.9822	0.0031
774.1558	0.0181
774.3294	-0.0161
774.503	0.0005
774.6765	0.0023
774.8501	-0.0041
775.0236	0.0078
775.1971	0.0052
775.3705	-0.0025
775.544	0.0052
775.7174	-0.0026
775.8908	-0.0019
776.0642	-0.007
776.2376	0.0096
776.4109	0.0004
776.5843	0.0002
776.7576	-0.0011
776.9309	0.0053
777.1041	0.0081
777.2774	0.0069
777.4506	-0.0065
777.6238	-0.0029
777.797	0.0052
777.9702	-0.0036
778.1434	-0.0009
778.3165	-0.0153
778.4896	-0.0066
778.6627	0.0117
778.8358	0.0075
779.0089	0.0041
779.1819	-0.0009
779.3549	0.0182
779.5279	0.01
779.7009	0.0014
779.8739	-0.0064
780.0468	0.0099
780.2197	0.0093
780.3926	-0.0004
780.5655	0.0021
780.7384	-0.0034
780.9112	0.0037
781.0841	0.0028
781.2569	0.0085
781.4297	0.0071
781.6024	0.0118
781.7752	0.0198
781.9479	0.0045
782.1206	-0.0001
782.2933	-0.0087
782.466	0.0145
782.6386	0.0058
782.8113	0.0003
782.9839	-0.0007
783.1565	0.0099
783.329	0.0051
783.5016	0.0069
783.6741	-0.0125
783.8466	-0.0083
784.0191	0.0206
784.1916	-0.0078
784.3641	-0.0006
784.5365	0.0048
784.7089	0.0008
784.8813	-0.0025
785.0537	-0.0089
785.2261	-0.0027
785.3984	-0.0101
785.5707	0.0046
785.743	-0.0111
785.9153	-0.0093
786.0876	-0.0005
786.2598	-0.0074
786.432	-0.0211
786.6042	0.0024
786.7764	-0.0179
786.9486	0.0063
787.1207	-0.0196
787.2928	0.0073
787.4649	-0.0023
787.637	0.0048
787.8091	0.0029
787.9811	-0.0101
788.1532	0.0075
788.3252	0.012
788.4972	-0.0074
788.6691	0.0026
788.8411	-0.0037
789.013	-0.0206
789.1849	0.0024
789.3568	0.0033
789.5287	-0.0046
789.7005	-0.0013
789.8723	0.0099
790.0442	0.0095
790.2159	0.0002
790.3877	-0.0046
790.5595	-0.0198
790.7312	0.002
790.9029	-0.0003
791.0746	-0.0104
791.2463	-0.0163
791.4179	-0.011
791.5896	-0.0179
791.7612	-0.016
791.9328	-0.0119
792.1044	-0.0127
792.2759	-0.0209
792.4474	-0.0172
792.619	-0.0047
792.7905	0.0087
792.9619	-0.0116
793.1334	0.0032
793.3048	-0.0054
793.4762	-0.0013
793.6476	0.0002
793.819	-0.0061
793.9904	0.0037
794.1617	-0.0195
794.333	-0.0045
794.5043	-0.0188
794.6756	0.0002
794.8469	-0.0042
795.0181	-0.0016
795.1893	-0.0028
795.3605	0.0039
795.5317	-0.0093
795.7029	-0.0001
795.874	-0.0028
796.0452	-0.0196
796.2163	-0.0184
796.3873	0.0124
796.5584	-0.0031
796.7294	-0.0119
796.9005	0.0124
797.0715	0.0046
797.2425	-0.0123
797.4134	-0.0116
797.5844	-0.0131
797.7553	-0.0282
797.9262	-0.0041
798.0971	-0.0181
798.2679	-0.0274
798.4388	-0.0311
798.6096	-0.0032
798.7804	0.0012
798.9512	-0.016
799.122	-0.0152
799.2927	-0.0011
799.4635	0.0001
799.6342	-0.0214
799.8049	-0.0189
799.9755	-0.011
800.1462	-0.0116
800.3168	0.002
800.4874	-0.0022
800.658	0.0125
800.8286	-0.0046
800.9991	0.0212
801.1696	-0.0009
801.3402	-0.0007
801.5106	0.0029
801.6811	-0.0047
801.8516	0.0054
802.022	0.0056
802.1924	0.0075
802.3628	0.0076
802.5332	0.0154
802.7035	0.0211
802.8739	0.0011
803.0442	-0.0226
803.2145	0.0059
803.3847	-0.0197
803.555	-0.0146
803.7252	-0.0199
803.8954	-0.0295
804.0656	-0.0329
804.2358	-0.0284
804.4059	0.0007
804.5761	-0.0147
804.7462	-0.0101
804.9163	-0.0272
805.0864	-0.0345
805.2564	-0.0288
805.4264	-0.0015
805.5965	-0.0239
805.7665	-0.0078
805.9364	0.0037
806.1064	0.0083
806.2763	0.0072
806.4462	0.0197
806.6161	-0.0156
806.786	0.0093
806.9559	0.0039
807.1257	0.0029
807.2955	0.0124
807.4653	-0.0015
807.6351	0.0041
807.8048	-0.0083
807.9746	-0.0055
808.1443	0.0086
808.314	-0.0196
808.4837	-0.022
808.6533	-0.013
808.8229	-0.0004
808.9926	-0.0034
809.1622	0.0039
809.3317	-0.0102
809.5013	-0.0093
809.6708	-0.0145
809.8403	-0.0089
810.0098	-0.008
810.1793	-0.0136
810.3488	-0.0179
810.5182	-0.01
810.6876	-0.0128
810.857	-0.0263
811.0264	-0.0038
811.1958	0.0042
811.3651	-0.0085
811.5344	-0.0046
811.7037	-0.0105
811.873	-0.0116
812.0422	0.0097
812.2115	-0.0251
812.3807	-0.0219
812.5499	0.0082
812.7191	-0.0142
812.8882	-0.0044
813.0574	-0.0183
813.2265	-0.0096
813.3956	-0.0197
813.5646	0.0031
813.7337	-0.0153
813.9027	0.0116
814.0718	0.0053
814.2407	0.0218
814.4097	-0.0198
814.5787	-0.0008
814.7476	-0.0069
814.9165	-0.0032
815.0854	0.0064
815.2543	0.01
815.4232	-0.0226
815.592	0.0175
815.7608	0.0079
815.9296	0.0027
816.0984	0.0039
816.2671	-0.0029
816.4359	-0.0005
816.6046	-0.0064
816.7733	-0.0054
816.942	-0.0249
817.1106	0.0046
817.2793	-0.0021
817.4479	0.0057
817.6165	-0.0087
817.785	-0.0077
817.9536	-0.0125
818.1221	-0.0221
818.2906	0.003
818.4591	-0.0077
818.6276	-0.0421
818.7961	0.0135
818.9645	-0.0101
819.1329	-0.0062
819.3013	0.0202
819.4697	0.0117
819.638	0.0084
819.8064	-0.0093
819.9747	0.0029
820.143	-0.0024
820.3113	-0.0142
820.4795	-0.0109
820.6477	0.0099
820.816	-0.0157
820.9842	-0.0192
821.1523	-0.0318
821.3205	-0.0307
821.4886	-0.0155
821.6567	-0.0205
821.8248	0.0092
821.9929	-0.004
822.1609	0.0081
822.329	0.0274
822.497	0.0206
822.665	-0.0241
822.833	0.0064
823.0009	0.0054
823.1688	0.0333
823.3367	0.0044
823.5046	0.0229
823.6725	0.0582
823.8404	0.0029
824.0082	-0.0137
824.176	0.0295
824.3438	-0.0105
824.5116	0.006
824.6793	0.0139
824.847	-0.0081
825.0147	-0.01
825.1824	-0.018
825.3501	0.0069
825.5177	-0.0389
825.6854	-0.0282
825.853	0.0027
826.0206	-0.0217
826.1881	-0.0105
826.3557	-0.0273
826.5232	-0.0042
826.6907	-0.0332
826.8582	-0.0052
827.0257	-0.0236
827.1931	0.0074
827.3605	-0.0162
827.528	-0.0312
827.6953	-0.0253
827.8627	-0.027
828.03	0.0275
828.1974	-0.0263
828.3647	-0.034
828.532	-0.0243
828.6992	-0.0238
828.8665	-0.0093
829.0337	-0.0399
829.2009	0.0123
829.3681	-0.028
829.5352	0.0277
829.7024	-0.0389
829.8695	-0.051
830.0366	0.0388
830.2037	0.0115
830.3707	-0.0067
830.5378	-0.0125
830.7048	-0.0278
830.8718	-0.0014
831.0388	-0.0398
831.2057	-0.0004
831.3727	-0.0009
831.5396	-0.0247
831.7065	-0.0319
831.8734	-0.0147
832.0402	-0.039
832.2071	-0.0093
832.3739	-0.0344
832.5407	-0.0063
832.7075	-0.0169
832.8742	-0.0668
833.041	-0.0658
833.2077	-0.013
833.3744	0.0073
833.541	-0.0105
833.7077	-0.0532
833.8743	-0.0504
834.0409	-0.0287
834.2075	-0.0304
834.3741	-0.0089
834.5407	-0.0117
834.7072	-0.0129
834.8737	-0.023
835.0402	-0.024
835.2067	0.0366
835.3731	0.0254
835.5395	0.0172
835.706	0.0187
835.8723	-0.0132
836.0387	-0.0025
836.2051	-0.0345
836.3714	0.005
836.5377	-0.0093
836.704	-0.022
836.8703	0.008
837.0365	-0.0294
837.2027	-0.0477
837.3689	-0.0229
837.5351	0.0018
837.7013	-0.0237
837.8674	-0.0639
838.0335	-0.058
838.1997	-0.0265
838.3657	-0.0178
838.5318	-0.0434
838.6978	0.006
838.8639	0.0146
839.0299	0.0116
839.1958	-0.0394
839.3618	-0.0065
839.5277	-0.0065
839.6937	-0.0331
839.8596	0.0076
840.0254	0.0511
840.1913	0.0364
840.3571	0.0145
840.523	-0.0495
840.6888	-0.0425
840.8545	-0.0795
841.0203	0.0082
841.186	-0.0198
841.3517	-0.0173
841.5174	-0.0135
841.6831	-0.0118
841.8488	0.0012
842.0144	-0.0497
842.18	-0.0322
842.3456	0.0542
842.5112	-0.0176
842.6767	-0.0337
842.8422	-0.0548
843.0077	-0.0247
843.1732	-0.0031
843.3387	-0.0418
843.5042	-0.0397
843.6696	-0.0344
843.835	-0.0207
844.0004	0.0453
844.1657	-0.0259
844.3311	-0.0947
844.4964	-0.0641
844.6617	-0.015
844.827	-0.0178
844.9923	-0.0098
845.1575	0.0016
845.3227	-0.0076
845.4879	-0.0007
845.6531	-0.023
845.8183	-0.0801
845.9834	0.017
846.1485	-0.0291
846.3136	-0.0314
846.4787	-0.0724
846.6438	0.0237
846.8088	-0.0399
846.9738	-0.0862
847.1388	0.0076
847.3038	-0.0931
847.4687	-0.1407
847.6337	-0.0047
847.7986	-0.0602
847.9635	0.0155
848.1284	-0.0324
848.2932	-0.0422
848.458	-0.0291
848.6228	0.0599
848.7876	0.0996
848.9524	-0.031
849.1172	-0.0734
849.2819	-0.0173
849.4466	-0.0845
849.6113	-0.0446
849.7759	-0.0413
849.9406	-0.0466
850.1052	0.0608
850.2698	-0.005
850.4344	-0.0864
850.599	-0.0789
850.7635	0.02
850.928	-0.043
851.0925	0.0516
851.257	0.0132
851.4215	0.0097
851.5859	-0.0774
851.7503	0.0407
851.9147	-0.0188
852.0791	-0.1084
852.2434	0.0141
852.4078	0.0072
852.5721	0.0359
852.7364	-0.0494
852.9007	-0.1163
853.0649	0.0354
853.2291	-0.0465
853.3934	0.027
853.5575	0.0517
853.7217	-0.0362
853.8859	-0.1349
854.05	-0.0248
854.2141	0.0593
854.3782	-0.0932
854.5423	-0.0365
854.7063	0.0951
854.8703	-0.018
855.0343	-0.138
855.1983	-0.1727
855.3623	0.0364
855.5262	0.0791
855.6901	0.0033
855.854	0.0726
856.0179	0.0097
856.1818	0.0039
856.3456	-0.0023
856.5094	-0.1589
856.6732	-0.0793
856.837	-0.0472
857.0008	0.0095
857.1645	-0.0559
857.3282	-0.0692
857.4919	0.0207
857.6556	-0.049
857.8192	0.0389
857.9828	0.1176
858.1465	-0.1522
858.31	0.0288
858.4736	-0.1516
858.6372	-0.2507
858.8007	-0.2164
858.9642	0.0348
859.1277	0.0933
859.2911	-0.0466
859.4546	0.0825
859.618	-0.358
859.7814	-0.0673
859.9448	0.0058
860.1081	-0.126
860.2715	-0.0168
860.4348	0.0125
860.5981	-0.0215
860.7614	-0.0682
860.9246	-0.1739
861.0879	-0.0522
861.2511	0.1012
861.4143	-0.3578
861.5774	0.1045
861.7406	-0.2884
861.9037	-0.0066
862.0668	-0.0827
862.2299	-0.1741
862.393	-0.5886
862.556	0.0067
862.7191	-0.4114
862.8821	-0.4719
863.0451	0.2983
863.208	0.0547
863.371	-0.0288
863.5339	-0.2025
863.6968	0.0116
863.8597	0.0654
864.0225	-0.1644
864.1854	0.0717
864.3482	-0.0527
864.511	0.3961
864.6737	0.0156
864.8365	0.0585
864.9992	-0.4071
865.1619	-0.1425
865.3246	-0.0625
865.4873	-0.0129
865.65	-0.1046
865.8126	-0.1324
865.9752	0.0662
866.1378	-0.0309
866.3004	-0
866.4629	0.3754
866.6254	-0
866.7879	-0.3357
866.9504	-0
867.1129	-0
867.2753	0.0789
867.4377	0.516
867.6001	-0.297
867.7625	0.2516
867.9249	-0.7491
868.0872	0.2717
868.2495	0.2266
868.4118	-0.4632
868.5741	-0.4442
868.7363	-0.0645
868.8986	-0.295
869.0608	-0.1926
869.223	0.0067
869.3851	0.7752
869.5473	-0
869.7094	0.2837
869.8715	0.4009
870.0336	-0.3378
870.1957	-0.5348
870.3577	-0
870.5197	-0.0765
870.6817	-0.3973
870.8437	-0.1296
871.0057	-0
871.1676	0.1725
871.3295	-0.5249
871.4914	-0
871.6533	-0.2634
871.8151	-0.4711
871.977	-0
872.1388	-0
872.3006	-0.5465
872.4623	-0
872.6241	0.22
872.7858	0.3665
872.9475	0.1816
873.1092	-0.2609
873.2709	0.1742
873.4325	-0.1426
873.5941	-0.2912
873.7557	-0
873.9173	-0
874.0789	-0.455
874.2404	-0.699
874.4019	0.0586
874.5634	0.1564
874.7249	-0.1827
874.8863	0.133
875.0478	0.1642
875.2092	-0
875.3706	-0
875.5319	-0.2329
875.6933	0.3514
875.8546	0.4479
876.0159	-0
876.1772	-0
876.3385	-0
876.4997	0.3494
876.6609	-0.2247
876.8221	-0
876.9833	0.699
877.1445	-0
877.3056	0.1253
877.4667	-0.24
877.6278	2.0294
877.7889	-0.2374
877.9499	-0
878.111	-0.8647
878.272	-0.888
878.433	-0
878.5939	0.5268
878.7549	-0.1214
878.9158	-0
879.0767	0.6847
879.2376	-0
879.3984	-0
879.5593	-0
879.7201	-0.298
879.8809	-0.4957
880.0417	-0.2938
880.2024	0.3466
880.3632	-0.5582
880.5239	0.2507
880.6846	-0.0084
880.8452	-2.6222
881.0059	-0.9345
881.1665	-0
881.3271	1.3452
881.4877	-0.5591
881.6483	-0.5951
881.8088	-0.4212
881.9693	-0
882.1298	-0
882.2903	-0
