Data from MonoPyChalIsomerACN10uM420nmA_Absorbance_15-09-49-135.txt Node
Date: Fri Jul 05 15:09:49 BST 2024
User: LASERRRRR
Spectrometer: FLMT03099
Trigger mode: 0
Integration Time (sec): 1.000000E-1
Scans to average: 1
Electric dark correction enabled: true
Nonlinearity correction enabled: false
Boxcar width: 0
XAxis mode: Wavelengths
Number of Pixels in Spectrum: 3648
>>>>>Begin Spectral Data<<<<<
179.3399	-0.0311
179.5586	-0.0311
179.7771	-0.0311
179.9957	0.715
180.2143	-0
180.4329	0.0735
180.6514	-0
180.8699	0.6255
181.0885	0.798
181.307	0.8771
181.5255	-0
181.744	-0
181.9625	-0
182.181	-1.0489
182.3994	0.5889
182.6179	-0.0496
182.8363	-0
183.0547	-0.5185
183.2732	0.2688
183.4916	0.0041
183.71	0.0238
183.9284	0.3263
184.1467	-0.2108
184.3651	-0.0706
184.5835	-0.0474
184.8018	-0.0005
185.0201	0.0795
185.2385	0.0424
185.4568	0.2383
185.6751	0.1663
185.8934	0.3853
186.1117	0.2247
186.3299	0.0108
186.5482	0.1663
186.7664	0.0343
186.9847	0.0135
187.2029	0.0063
187.4211	0.0794
187.6393	-0.0642
187.8575	0.099
188.0757	0.1264
188.2939	0.0274
188.512	0.0781
188.7302	-0.0288
188.9483	0.2181
189.1665	-0.0003
189.3846	-0.1675
189.6027	0.3665
189.8208	0.3734
190.0389	0.0589
190.257	0.2445
190.475	0.3065
190.6931	0.4532
190.9111	0.4422
191.1292	0.0945
191.3472	0.2555
191.5652	0.1391
191.7832	0.2142
192.0012	0.9034
192.2192	0.3593
192.4371	0.5102
192.6551	0.3347
192.873	0.4277
193.091	0.4103
193.3089	0.5655
193.5268	0.4879
193.7447	0.5816
193.9626	0.4396
194.1805	0.5599
194.3984	0.6937
194.6162	0.6475
194.8341	0.461
195.0519	0.5221
195.2697	0.6382
195.4875	0.8362
195.7054	0.6527
195.9231	0.6721
196.1409	0.6011
196.3587	0.6386
196.5765	0.5977
196.7942	0.6134
197.012	0.4138
197.2297	0.6479
197.4474	0.6798
197.6651	0.5443
197.8828	0.5961
198.1005	0.5724
198.3182	0.5744
198.5358	0.6937
198.7535	0.6379
198.9711	0.4905
199.1888	0.7094
199.4064	0.6688
199.624	0.5785
199.8416	0.5902
200.0592	0.5346
200.2767	0.6029
200.4943	0.7207
200.7119	0.7099
200.9294	0.6456
201.1469	0.6046
201.3645	0.5936
201.582	0.5689
201.7995	0.6149
202.017	0.721
202.2344	0.6399
202.4519	0.7597
202.6694	0.7489
202.8868	0.5486
203.1042	0.6771
203.3217	0.6538
203.5391	0.7741
203.7565	0.4901
203.9739	0.7004
204.1913	0.7125
204.4086	0.6964
204.626	0.6723
204.8433	0.7517
205.0607	0.6831
205.278	0.6811
205.4953	0.6631
205.7126	0.6049
205.9299	0.8339
206.1472	0.6857
206.3644	0.5935
206.5817	0.6265
206.7989	0.7701
207.0162	0.5956
207.2334	0.6555
207.4506	0.5398
207.6678	0.627
207.885	0.63
208.1022	0.6715
208.3194	0.7794
208.5365	0.6864
208.7537	0.7075
208.9708	0.58
209.1879	0.6594
209.405	0.6837
209.6222	0.6549
209.8392	0.6095
210.0563	0.5899
210.2734	0.7246
210.4905	0.6111
210.7075	0.6133
210.9245	0.5806
211.1416	0.7495
211.3586	0.6095
211.5756	0.6102
211.7926	0.6255
212.0096	0.6112
212.2265	0.6176
212.4435	0.6195
212.6604	0.6764
212.8774	0.6622
213.0943	0.6244
213.3112	0.5726
213.5281	0.5786
213.745	0.5218
213.9619	0.531
214.1788	0.4893
214.3956	0.4592
214.6125	0.4927
214.8293	0.4551
215.0461	0.4796
215.2629	0.4634
215.4798	0.4851
215.6965	0.4595
215.9133	0.4652
216.1301	0.4437
216.3469	0.443
216.5636	0.4418
216.7803	0.3833
216.9971	0.4337
217.2138	0.3747
217.4305	0.4157
217.6472	0.383
217.8639	0.3759
218.0805	0.3682
218.2972	0.3464
218.5138	0.3327
218.7305	0.3517
218.9471	0.3319
219.1637	0.2979
219.3803	0.2969
219.5969	0.275
219.8135	0.249
220.0301	0.2785
220.2466	0.2688
220.4632	0.236
220.6797	0.2384
220.8962	0.2478
221.1127	0.2575
221.3292	0.2621
221.5457	0.2596
221.7622	0.2452
221.9787	0.2655
222.1951	0.2508
222.4116	0.2549
222.628	0.2496
222.8444	0.2724
223.0608	0.241
223.2772	0.2726
223.4936	0.2703
223.71	0.2468
223.9264	0.2706
224.1427	0.2593
224.3591	0.2588
224.5754	0.2696
224.7917	0.2683
225.008	0.2616
225.2243	0.2469
225.4406	0.2897
225.6569	0.2664
225.8732	0.2692
226.0894	0.2891
226.3057	0.2874
226.5219	0.2945
226.7381	0.2788
226.9543	0.2795
227.1705	0.3158
227.3867	0.2701
227.6029	0.2845
227.8191	0.3154
228.0352	0.3118
228.2513	0.3092
228.4675	0.3366
228.6836	0.297
228.8997	0.3129
229.1158	0.3289
229.3319	0.3222
229.548	0.3037
229.764	0.3182
229.9801	0.3333
230.1961	0.3141
230.4121	0.3508
230.6282	0.3515
230.8442	0.3243
231.0602	0.3714
231.2761	0.3494
231.4921	0.3398
231.7081	0.3604
231.924	0.3708
232.14	0.3688
232.3559	0.3451
232.5718	0.3913
232.7877	0.3691
233.0036	0.3649
233.2195	0.3654
233.4353	0.3431
233.6512	0.3681
233.867	0.3726
234.0829	0.3759
234.2987	0.3818
234.5145	0.3982
234.7303	0.3621
234.9461	0.3928
235.1619	0.378
235.3776	0.3869
235.5934	0.381
235.8091	0.3894
236.0249	0.3868
236.2406	0.418
236.4563	0.3935
236.672	0.4048
236.8877	0.4005
237.1034	0.4103
237.319	0.3723
237.5347	0.4176
237.7503	0.4016
237.966	0.4155
238.1816	0.4353
238.3972	0.4103
238.6128	0.4125
238.8284	0.4065
239.0439	0.3996
239.2595	0.4124
239.475	0.4143
239.6906	0.4271
239.9061	0.3883
240.1216	0.3942
240.3371	0.41
240.5526	0.3838
240.7681	0.4042
240.9836	0.4073
241.199	0.4077
241.4145	0.3843
241.6299	0.3756
241.8453	0.3833
242.0607	0.395
242.2761	0.3831
242.4915	0.3634
242.7069	0.375
242.9223	0.3502
243.1376	0.3534
243.353	0.3462
243.5683	0.3539
243.7836	0.3272
243.9989	0.3421
244.2142	0.3029
244.4295	0.3223
244.6448	0.3034
244.86	0.2925
245.0753	0.2986
245.2905	0.28
245.5057	0.2806
245.721	0.2826
245.9362	0.2608
246.1514	0.2814
246.3665	0.2671
246.5817	0.2487
246.7969	0.2489
247.012	0.2465
247.2271	0.2457
247.4423	0.2433
247.6574	0.2396
247.8725	0.2255
248.0876	0.2235
248.3026	0.2296
248.5177	0.2233
248.7328	0.2105
248.9478	0.2174
249.1628	0.2205
249.3779	0.2335
249.5929	0.1979
249.8079	0.2058
250.0228	0.202
250.2378	0.2118
250.4528	0.2224
250.6677	0.1946
250.8827	0.2023
251.0976	0.1919
251.3125	0.1968
251.5274	0.1815
251.7423	0.1883
251.9572	0.1889
252.172	0.1839
252.3869	0.1931
252.6017	0.1952
252.8166	0.1852
253.0314	0.1777
253.2462	0.1771
253.461	0.1968
253.6758	0.1598
253.8906	0.1814
254.1053	0.1767
254.3201	0.1713
254.5348	0.1823
254.7496	0.1771
254.9643	0.1826
255.179	0.1751
255.3937	0.1729
255.6083	0.1798
255.823	0.1763
256.0377	0.1792
256.2523	0.18
256.467	0.1629
256.6816	0.1656
256.8962	0.1692
257.1108	0.165
257.3254	0.1789
257.54	0.175
257.7545	0.1837
257.9691	0.1667
258.1836	0.1654
258.3981	0.1751
258.6127	0.183
258.8272	0.1661
259.0417	0.1761
259.2561	0.1725
259.4706	0.1731
259.6851	0.1786
259.8995	0.1692
260.114	0.1728
260.3284	0.1642
260.5428	0.1623
260.7572	0.1679
260.9716	0.1758
261.186	0.1589
261.4003	0.1663
261.6147	0.1708
261.829	0.1651
262.0433	0.1722
262.2577	0.1697
262.472	0.1612
262.6863	0.1605
262.9005	0.1833
263.1148	0.1721
263.3291	0.1526
263.5433	0.1653
263.7576	0.1677
263.9718	0.1693
264.186	0.1653
264.4002	0.1637
264.6144	0.1592
264.8286	0.1682
265.0427	0.1653
265.2569	0.1686
265.471	0.156
265.6851	0.1629
265.8993	0.1728
266.1134	0.1581
266.3275	0.16
266.5415	0.1594
266.7556	0.1776
266.9697	0.1647
267.1837	0.1732
267.3978	0.1597
267.6118	0.1609
267.8258	0.1678
268.0398	0.1341
268.2538	0.171
268.4677	0.1657
268.6817	0.1589
268.8957	0.1651
269.1096	0.1633
269.3235	0.1664
269.5374	0.1552
269.7514	0.1527
269.9652	0.1586
270.1791	0.1422
270.393	0.1566
270.6068	0.1596
270.8207	0.137
271.0345	0.1431
271.2483	0.1574
271.4622	0.1445
271.676	0.1451
271.8897	0.144
272.1035	0.1419
272.3173	0.1314
272.531	0.1508
272.7448	0.1403
272.9585	0.1395
273.1722	0.1429
273.3859	0.1373
273.5996	0.143
273.8133	0.1528
274.0269	0.1439
274.2406	0.1336
274.4542	0.142
274.6679	0.1351
274.8815	0.1438
275.0951	0.1436
275.3087	0.1447
275.5223	0.1483
275.7358	0.1544
275.9494	0.1442
276.1629	0.1352
276.3765	0.14
276.59	0.146
276.8035	0.1454
277.017	0.1431
277.2305	0.1427
277.444	0.1452
277.6574	0.1277
277.8709	0.152
278.0843	0.1435
278.2978	0.1378
278.5112	0.1368
278.7246	0.1388
278.938	0.143
279.1513	0.1467
279.3647	0.1553
279.5781	0.1451
279.7914	0.144
280.0047	0.1599
280.2181	0.1419
280.4314	0.1513
280.6447	0.1394
280.8579	0.1424
281.0712	0.1535
281.2845	0.1546
281.4977	0.1565
281.711	0.1441
281.9242	0.1417
282.1374	0.1451
282.3506	0.1424
282.5638	0.1577
282.7769	0.1477
282.9901	0.1488
283.2033	0.1645
283.4164	0.1491
283.6295	0.1359
283.8426	0.1481
284.0557	0.1675
284.2688	0.1654
284.4819	0.154
284.695	0.1583
284.908	0.1623
285.1211	0.1529
285.3341	0.1502
285.5471	0.1645
285.7601	0.1608
285.9731	0.1546
286.1861	0.1543
286.3991	0.1687
286.612	0.1705
286.825	0.1731
287.0379	0.1603
287.2508	0.1614
287.4637	0.1609
287.6766	0.1674
287.8895	0.1692
288.1024	0.1773
288.3152	0.1633
288.5281	0.1599
288.7409	0.1701
288.9538	0.1718
289.1666	0.1632
289.3794	0.1709
289.5922	0.1593
289.8049	0.1718
290.0177	0.1618
290.2304	0.1636
290.4432	0.1789
290.6559	0.1714
290.8686	0.1797
291.0813	0.1733
291.294	0.1746
291.5067	0.1784
291.7194	0.1666
291.932	0.1765
292.1447	0.1761
292.3573	0.1704
292.5699	0.1764
292.7825	0.1744
292.9951	0.1707
293.2077	0.157
293.4203	0.1713
293.6328	0.1603
293.8454	0.1825
294.0579	0.1591
294.2704	0.1701
294.4829	0.1653
294.6954	0.1799
294.9079	0.1717
295.1204	0.1689
295.3328	0.1642
295.5453	0.1729
295.7577	0.1756
295.9701	0.1706
296.1825	0.1723
296.3949	0.1675
296.6073	0.171
296.8197	0.1506
297.0321	0.1854
297.2444	0.1701
297.4567	0.1783
297.6691	0.1724
297.8814	0.1681
298.0937	0.1715
298.306	0.1812
298.5182	0.1676
298.7305	0.189
298.9428	0.1653
299.155	0.1757
299.3672	0.1627
299.5794	0.1691
299.7916	0.1709
300.0038	0.1712
300.216	0.176
300.4282	0.1788
300.6403	0.1645
300.8525	0.1656
301.0646	0.1698
301.2767	0.1745
301.4888	0.1673
301.7009	0.1742
301.913	0.1725
302.125	0.1701
302.3371	0.1671
302.5491	0.1687
302.7612	0.1809
302.9732	0.1804
303.1852	0.1732
303.3972	0.1725
303.6092	0.1711
303.8211	0.1576
304.0331	0.1604
304.245	0.1556
304.457	0.1563
304.6689	0.1625
304.8808	0.1697
305.0927	0.1616
305.3046	0.1599
305.5164	0.1662
305.7283	0.1545
305.9401	0.1566
306.152	0.1505
306.3638	0.1539
306.5756	0.1516
306.7874	0.1475
306.9992	0.1579
307.2109	0.1539
307.4227	0.1333
307.6344	0.1604
307.8462	0.1403
308.0579	0.1286
308.2696	0.1383
308.4813	0.1415
308.693	0.1265
308.9046	0.1506
309.1163	0.1291
309.328	0.1198
309.5396	0.1249
309.7512	0.1305
309.9628	0.1112
310.1744	0.1274
310.386	0.1221
310.5976	0.1215
310.8091	0.129
311.0207	0.125
311.2322	0.1158
311.4437	0.1146
311.6552	0.1109
311.8667	0.1182
312.0782	0.1096
312.2897	0.0971
312.5012	0.1151
312.7126	0.1071
312.924	0.1094
313.1355	0.1165
313.3469	0.1074
313.5583	0.1102
313.7696	0.11
313.981	0.1003
314.1924	0.1013
314.4037	0.1014
314.6151	0.1116
314.8264	0.1017
315.0377	0.0887
315.249	0.1022
315.4603	0.1048
315.6716	0.1021
315.8828	0.0939
316.0941	0.0931
316.3053	0.0956
316.5165	0.0942
316.7277	0.0853
316.9389	0.1016
317.1501	0.0986
317.3613	0.0995
317.5724	0.0796
317.7836	0.0997
317.9947	0.0959
318.2058	0.0931
318.417	0.0844
318.6281	0.0879
318.8391	0.0937
319.0502	0.0903
319.2613	0.1019
319.4723	0.0921
319.6834	0.1
319.8944	0.0846
320.1054	0.0961
320.3164	0.1022
320.5274	0.0959
320.7383	0.1047
320.9493	0.0896
321.1602	0.1014
321.3712	0.0821
321.5821	0.0953
321.793	0.1037
322.0039	0.0937
322.2148	0.0996
322.4257	0.1002
322.6365	0.1099
322.8474	0.1004
323.0582	0.0871
323.269	0.0926
323.4798	0.1056
323.6906	0.0956
323.9014	0.0946
324.1122	0.0957
324.3229	0.0948
324.5337	0.1011
324.7444	0.0791
324.9551	0.111
325.1658	0.095
325.3765	0.103
325.5872	0.0995
325.7979	0.1039
326.0085	0.0901
326.2192	0.1058
326.4298	0.0984
326.6404	0.0872
326.851	0.0899
327.0616	0.093
327.2722	0.0975
327.4828	0.0993
327.6933	0.0948
327.9039	0.1044
328.1144	0.1117
328.3249	0.1007
328.5354	0.089
328.7459	0.0989
328.9564	0.0964
329.1669	0.1114
329.3773	0.1011
329.5878	0.107
329.7982	0.105
330.0086	0.0935
330.219	0.1041
330.4294	0.0955
330.6398	0.0974
330.8502	0.101
331.0605	0.1064
331.2708	0.0969
331.4812	0.1022
331.6915	0.1053
331.9018	0.1117
332.1121	0.0964
332.3224	0.1078
332.5326	0.1011
332.7429	0.1059
332.9531	0.1064
333.1633	0.1137
333.3735	0.1058
333.5837	0.108
333.7939	0.0905
334.0041	0.1043
334.2143	0.1088
334.4244	0.1009
334.6346	0.0886
334.8447	0.1124
335.0548	0.0957
335.2649	0.1001
335.475	0.117
335.685	0.1039
335.8951	0.1167
336.1051	0.1115
336.3152	0.0993
336.5252	0.1077
336.7352	0.1093
336.9452	0.101
337.1552	0.1121
337.3652	0.1119
337.5751	0.1104
337.7851	0.1166
337.995	0.1011
338.2049	0.114
338.4148	0.1067
338.6247	0.1155
338.8346	0.1009
339.0445	0.1135
339.2543	0.1025
339.4642	0.1102
339.674	0.0972
339.8838	0.1108
340.0936	0.1172
340.3034	0.1255
340.5132	0.1195
340.7229	0.1061
340.9327	0.1216
341.1424	0.1255
341.3522	0.118
341.5619	0.1178
341.7716	0.1142
341.9813	0.126
342.1909	0.1085
342.4006	0.1265
342.6102	0.1278
342.8199	0.1218
343.0295	0.1185
343.2391	0.1198
343.4487	0.1264
343.6583	0.1241
343.8679	0.1205
344.0774	0.1247
344.287	0.1266
344.4965	0.1259
344.706	0.1189
344.9155	0.1217
345.125	0.1191
345.3345	0.1179
345.544	0.122
345.7534	0.1261
345.9629	0.1168
346.1723	0.1265
346.3817	0.1189
346.5911	0.1186
346.8005	0.1251
347.0099	0.1285
347.2193	0.125
347.4286	0.1143
347.638	0.15
347.8473	0.1292
348.0566	0.1354
348.2659	0.1282
348.4752	0.1369
348.6845	0.1274
348.8937	0.1361
349.103	0.1484
349.3122	0.1302
349.5214	0.1335
349.7306	0.1411
349.9398	0.1308
350.149	0.1439
350.3582	0.1316
350.5674	0.1458
350.7765	0.1396
350.9856	0.1374
351.1948	0.1367
351.4039	0.1239
351.613	0.1164
351.822	0.1369
352.0311	0.1408
352.2402	0.1378
352.4492	0.1517
352.6582	0.1534
352.8672	0.1319
353.0762	0.1412
353.2852	0.1364
353.4942	0.1308
353.7032	0.147
353.9121	0.1526
354.1211	0.1498
354.33	0.1525
354.5389	0.1512
354.7478	0.1448
354.9567	0.1481
355.1655	0.1393
355.3744	0.1514
355.5833	0.1568
355.7921	0.1708
356.0009	0.1531
356.2097	0.1642
356.4185	0.161
356.6273	0.1685
356.8361	0.1679
357.0448	0.1503
357.2536	0.1511
357.4623	0.1575
357.671	0.1619
357.8797	0.1601
358.0884	0.1656
358.2971	0.1624
358.5057	0.1814
358.7144	0.1754
358.923	0.1713
359.1316	0.1777
359.3402	0.175
359.5488	0.1768
359.7574	0.1621
359.966	0.1856
360.1746	0.1744
360.3831	0.1759
360.5916	0.1746
360.8002	0.1681
361.0087	0.1825
361.2172	0.1712
361.4256	0.1709
361.6341	0.1803
361.8426	0.1768
362.051	0.1757
362.2594	0.1829
362.4678	0.1833
362.6762	0.2095
362.8846	0.1787
363.093	0.1782
363.3014	0.1817
363.5097	0.1775
363.718	0.1884
363.9264	0.1888
364.1347	0.1958
364.343	0.1947
364.5513	0.1973
364.7595	0.2045
364.9678	0.2012
365.176	0.206
365.3842	0.1962
365.5925	0.1875
365.8007	0.1999
366.0089	0.196
366.217	0.2076
366.4252	0.2062
366.6333	0.2163
366.8415	0.2062
367.0496	0.2162
367.2577	0.1947
367.4658	0.2093
367.6739	0.2313
367.882	0.2138
368.09	0.2067
368.2981	0.2078
368.5061	0.1993
368.7141	0.2197
368.9221	0.2154
369.1301	0.2214
369.3381	0.2179
369.5461	0.2058
369.754	0.2309
369.962	0.2454
370.1699	0.2312
370.3778	0.2294
370.5857	0.2183
370.7936	0.2238
371.0015	0.2293
371.2093	0.2263
371.4172	0.2348
371.625	0.2148
371.8328	0.239
372.0406	0.2232
372.2484	0.2151
372.4562	0.2412
372.664	0.234
372.8717	0.2493
373.0795	0.2271
373.2872	0.2263
373.4949	0.233
373.7026	0.2313
373.9103	0.2487
374.118	0.2467
374.3256	0.2373
374.5333	0.2403
374.7409	0.2316
374.9485	0.2522
375.1561	0.2505
375.3637	0.2509
375.5713	0.2421
375.7789	0.2411
375.9864	0.2476
376.194	0.2338
376.4015	0.2471
376.609	0.2631
376.8165	0.2438
377.024	0.2546
377.2315	0.2248
377.4389	0.2473
377.6464	0.2627
377.8538	0.2437
378.0612	0.2436
378.2686	0.2519
378.476	0.2626
378.6834	0.2725
378.8908	0.2617
379.0981	0.248
379.3055	0.2645
379.5128	0.246
379.7201	0.257
379.9274	0.2503
380.1347	0.2582
380.342	0.2881
380.5492	0.2659
380.7565	0.266
380.9637	0.2682
381.1709	0.2569
381.3781	0.267
381.5853	0.2611
381.7925	0.2662
381.9997	0.2725
382.2068	0.2776
382.4139	0.2676
382.6211	0.2607
382.8282	0.2532
383.0353	0.274
383.2424	0.2666
383.4494	0.2628
383.6565	0.2651
383.8635	0.2489
384.0706	0.2665
384.2776	0.2588
384.4846	0.2477
384.6916	0.2674
384.8986	0.2627
385.1055	0.2589
385.3125	0.2659
385.5194	0.2568
385.7263	0.2855
385.9333	0.2848
386.1402	0.2782
386.347	0.2742
386.5539	0.2566
386.7608	0.2796
386.9676	0.2569
387.1744	0.2627
387.3813	0.2638
387.5881	0.2679
387.7948	0.2615
388.0016	0.2477
388.2084	0.2531
388.4151	0.2551
388.6219	0.2723
388.8286	0.2766
389.0353	0.2854
389.242	0.2653
389.4487	0.2542
389.6553	0.2554
389.862	0.2388
390.0686	0.252
390.2753	0.2587
390.4819	0.2412
390.6885	0.2647
390.8951	0.2627
391.1016	0.2536
391.3082	0.2437
391.5147	0.2462
391.7213	0.2437
391.9278	0.236
392.1343	0.2502
392.3408	0.2547
392.5473	0.2482
392.7537	0.244
392.9602	0.2215
393.1666	0.2416
393.373	0.2359
393.5794	0.2538
393.7858	0.2435
393.9922	0.2176
394.1986	0.2293
394.4049	0.2417
394.6113	0.2269
394.8176	0.2214
395.0239	0.2311
395.2302	0.2248
395.4365	0.2378
395.6428	0.2272
395.8491	0.2569
396.0553	0.2347
396.2615	0.2225
396.4678	0.2327
396.674	0.2114
396.8802	0.2271
397.0863	0.2435
397.2925	0.2241
397.4987	0.2231
397.7048	0.2177
397.9109	0.2389
398.117	0.2244
398.3231	0.2212
398.5292	0.229
398.7353	0.2266
398.9413	0.2247
399.1474	0.2299
399.3534	0.2185
399.5594	0.1953
399.7654	0.2447
399.9714	0.2412
400.1774	0.2274
400.3833	0.2195
400.5893	0.2215
400.7952	0.2183
401.0011	0.231
401.207	0.2318
401.4129	0.2288
401.6188	0.2411
401.8247	0.2169
402.0305	0.2277
402.2364	0.2321
402.4422	0.2383
402.648	0.2402
402.8538	0.2547
403.0596	0.2199
403.2654	0.2253
403.4711	0.2278
403.6768	0.2401
403.8826	0.2372
404.0883	0.2351
404.294	0.2286
404.4997	0.24
404.7054	0.2339
404.911	0.1961
405.1167	0.2259
405.3223	0.2364
405.5279	0.2488
405.7335	0.23
405.9391	0.2389
406.1447	0.2307
406.3502	0.2639
406.5558	0.2256
406.7613	0.2331
406.9668	0.2318
407.1724	0.2325
407.3778	0.2278
407.5833	0.2255
407.7888	0.227
407.9942	0.2442
408.1997	0.2141
408.4051	0.211
408.6105	0.2186
408.8159	0.2188
409.0213	0.2253
409.2267	0.2281
409.432	0.2181
409.6374	0.243
409.8427	0.2033
410.048	0.2364
410.2533	0.2152
410.4586	0.2279
410.6639	0.2046
410.8691	0.2136
411.0744	0.2325
411.2796	0.2202
411.4848	0.2148
411.69	0.2115
411.8952	0.2454
412.1004	0.2139
412.3056	0.2224
412.5107	0.2193
412.7158	0.2331
412.921	0.2053
413.1261	0.2178
413.3312	0.2185
413.5362	0.2201
413.7413	0.2208
413.9464	0.2207
414.1514	0.2126
414.3564	0.2119
414.5614	0.2066
414.7664	0.2278
414.9714	0.2226
415.1764	0.2309
415.3813	0.2183
415.5863	0.2301
415.7912	0.2439
415.9961	0.2187
416.201	0.2277
416.4059	0.2104
416.6108	0.1976
416.8156	0.2227
417.0205	0.2168
417.2253	0.2163
417.4301	0.214
417.6349	0.2118
417.8397	0.214
418.0445	0.2149
418.2492	0.2124
418.454	0.2163
418.6587	0.2077
418.8634	0.2073
419.0681	0.1984
419.2728	0.1989
419.4775	0.2148
419.6822	0.2022
419.8868	0.1814
420.0915	0.2084
420.2961	0.1934
420.5007	0.1946
420.7053	0.1938
420.9099	0.203
421.1144	0.2127
421.319	0.2059
421.5235	0.1942
421.728	0.2008
421.9325	0.2124
422.137	0.2207
422.3415	0.1862
422.546	0.1958
422.7504	0.2085
422.9549	0.1882
423.1593	0.204
423.3637	0.1892
423.5681	0.1821
423.7725	0.1858
423.9769	0.1751
424.1812	0.1761
424.3856	0.1942
424.5899	0.1913
424.7942	0.1811
424.9985	0.2017
425.2028	0.1844
425.4071	0.1989
425.6113	0.1732
425.8156	0.1883
426.0198	0.2008
426.224	0.1683
426.4282	0.1677
426.6324	0.1761
426.8366	0.1703
427.0407	0.1716
427.2449	0.1832
427.449	0.1757
427.6531	0.1537
427.8572	0.1671
428.0613	0.1761
428.2654	0.1725
428.4694	0.1627
428.6735	0.1775
428.8775	0.189
429.0815	0.1754
429.2855	0.1554
429.4895	0.179
429.6935	0.1711
429.8975	0.1752
430.1014	0.1484
430.3053	0.1527
430.5093	0.1371
430.7132	0.1521
430.9171	0.1336
431.1209	0.1466
431.3248	0.1314
431.5286	0.1487
431.7325	0.1531
431.9363	0.1366
432.1401	0.1532
432.3439	0.1377
432.5477	0.1275
432.7514	0.1309
432.9552	0.1397
433.1589	0.1288
433.3627	0.1215
433.5664	0.1256
433.7701	0.1214
433.9737	0.1348
434.1774	0.1198
434.3811	0.1244
434.5847	0.1114
434.7883	0.1146
434.9919	0.1252
435.1955	0.1106
435.3991	0.1079
435.6027	0.1296
435.8062	0.1126
436.0098	0.0926
436.2133	0.1086
436.4168	0.109
436.6203	0.1036
436.8238	0.1116
437.0272	0.1066
437.2307	0.1038
437.4341	0.1171
437.6375	0.1177
437.841	0.0878
438.0443	0.1049
438.2477	0.0963
438.4511	0.0974
438.6545	0.084
438.8578	0.0954
439.0611	0.0924
439.2644	0.1006
439.4677	0.0755
439.671	0.0892
439.8743	0.0963
440.0775	0.0895
440.2808	0.0826
440.484	0.0727
440.6872	0.0586
440.8904	0.0621
441.0936	0.0889
441.2967	0.0741
441.4999	0.0745
441.703	0.0591
441.9062	0.0703
442.1093	0.0742
442.3124	0.0799
442.5155	0.0549
442.7185	0.0716
442.9216	0.0504
443.1246	0.0891
443.3276	0.0594
443.5307	0.0632
443.7337	0.061
443.9366	0.0664
444.1396	0.0638
444.3426	0.0643
444.5455	0.0516
444.7484	0.0479
444.9513	0.0559
445.1542	0.0673
445.3571	0.0478
445.56	0.0618
445.7628	0.0468
445.9657	0.0487
446.1685	0.0616
446.3713	0.0456
446.5741	0.0505
446.7769	0.0319
446.9797	0.0525
447.1824	0.0418
447.3852	0.0325
447.5879	0.0506
447.7906	0.0477
447.9933	0.0347
448.196	0.0446
448.3986	0.0478
448.6013	0.0233
448.8039	0.0309
449.0066	0.0315
449.2092	0.0453
449.4118	0.038
449.6143	0.0438
449.8169	0.0442
450.0195	0.029
450.222	0.0082
450.4245	0.0186
450.627	0.0376
450.8295	0.0201
451.032	0.0291
451.2345	0.016
451.4369	0.0356
451.6394	0.0242
451.8418	0.0089
452.0442	0.0237
452.2466	0.0292
452.449	0.0028
452.6513	0.0341
452.8537	0.0237
453.056	0.001
453.2583	0.0219
453.4607	0.0173
453.663	0.0231
453.8652	0.0236
454.0675	0.0144
454.2697	0.0294
454.472	0.0032
454.6742	0.0166
454.8764	0.02
455.0786	0.0215
455.2808	0.021
455.4829	0.0172
455.6851	0.018
455.8872	0.0118
456.0893	0.0281
456.2915	-0.0045
456.4935	0.02
456.6956	0.0057
456.8977	0.003
457.0997	0.014
457.3018	-0.0007
457.5038	0.0083
457.7058	0.0061
457.9078	0.007
458.1098	0.0206
458.3117	0.0145
458.5137	0.0104
458.7156	0.0042
458.9175	-0.0036
459.1194	0.0024
459.3213	0.0022
459.5232	0.001
459.725	-0.003
459.9269	-0.0013
460.1287	-0.0014
460.3305	-0.002
460.5323	0.0117
460.7341	0.0066
460.9359	-0.0002
461.1376	0.0141
461.3394	0.0058
461.5411	0.0116
461.7428	-0
461.9445	0.0174
462.1462	0.026
462.3479	-0.0071
462.5495	-0.0023
462.7512	0.0012
462.9528	0.0131
463.1544	-0.016
463.356	0.0012
463.5576	0.0062
463.7592	0.0093
463.9607	0.0144
464.1623	0.006
464.3638	0.0081
464.5653	-0.0089
464.7668	0.0047
464.9683	0.0089
465.1697	0.0104
465.3712	-0.0062
465.5726	0.0006
465.7741	0.0031
465.9755	-0.0138
466.1769	0.0088
466.3782	-0.0049
466.5796	-0.0098
466.7809	0.011
466.9823	-0.0024
467.1836	0.0003
467.3849	-0.013
467.5862	0.0099
467.7875	-0.0131
467.9887	0.0143
468.19	-0.0042
468.3912	-0.0079
468.5924	-0.0061
468.7936	-0.0072
468.9948	0.0018
469.196	-0.0003
469.3972	-0.0187
469.5983	0.0011
469.7994	-0.0108
470.0006	-0.0122
470.2017	-0.0134
470.4027	-0.0071
470.6038	-0.0013
470.8049	-0.0136
471.0059	-0.004
471.2069	-0.03
471.408	0.0092
471.6089	0.0121
471.8099	-0.0072
472.0109	0.016
472.2119	-0.018
472.4128	-0.0217
472.6137	0.0015
472.8146	-0.0233
473.0155	-0.0193
473.2164	0.0006
473.4173	0.0018
473.6181	0.0073
473.819	-0.0059
474.0198	-0.017
474.2206	-0.0109
474.4214	-0.013
474.6222	-0.0104
474.8229	-0.0014
475.0237	-0.0162
475.2244	-0.0127
475.4251	-0.0117
475.6258	-0.0196
475.8265	-0.0054
476.0272	0.0075
476.2278	0.0044
476.4285	-0.0097
476.6291	-0.0208
476.8297	-0.0092
477.0303	-0.0039
477.2309	-0.0189
477.4315	-0.0139
477.632	-0.0054
477.8326	-0.0117
478.0331	0.0018
478.2336	0.0027
478.4341	-0.0146
478.6346	-0.0152
478.8351	-0.0104
479.0355	-0.0007
479.236	-0.0122
479.4364	-0.0158
479.6368	-0.0095
479.8372	-0.015
480.0376	-0.0052
480.2379	-0.0267
480.4383	-0.0018
480.6386	0.0007
480.8389	-0.0086
481.0392	-0.0114
481.2395	-0.0085
481.4398	-0.0018
481.6401	-0.01
481.8403	-0.005
482.0405	-0.0049
482.2408	0.0009
482.441	-0.0091
482.6411	-0.0055
482.8413	-0.0041
483.0415	-0.014
483.2416	-0.0191
483.4417	-0.0165
483.6419	-0.0113
483.8419	-0.0088
484.042	0.0026
484.2421	-0.0049
484.4422	-0.0011
484.6422	-0.0086
484.8422	-0.0027
485.0422	-0.0137
485.2422	0.0058
485.4422	-0.0164
485.6422	-0.0144
485.8421	-0.0109
486.042	0.0005
486.242	-0.0071
486.4419	-0.0111
486.6417	-0.0143
486.8416	-0.0052
487.0415	-0.0053
487.2413	-0.0081
487.4411	-0.0015
487.641	-0.0216
487.8408	-0.0061
488.0405	-0.0118
488.2403	-0.0149
488.4401	0.0072
488.6398	-0.0073
488.8395	-0.0131
489.0392	-0.0026
489.2389	-0.0099
489.4386	-0.0122
489.6383	-0.0016
489.8379	-0.0028
490.0376	-0.0061
490.2372	-0.0163
490.4368	-0.0135
490.6364	-0.0067
490.836	-0.0043
491.0355	-0.0089
491.2351	-0.0206
491.4346	-0.007
491.6341	-0.0112
491.8336	-0.0057
492.0331	-0.0241
492.2326	-0.0172
492.432	-0.0143
492.6315	-0.0103
492.8309	-0.0169
493.0303	-0.0081
493.2297	-0.0146
493.4291	-0.0098
493.6284	-0.0103
493.8278	-0.0021
494.0271	0.0054
494.2264	-0.0026
494.4257	-0.0148
494.625	-0.0087
494.8243	-0.0283
495.0236	-0.0142
495.2228	-0.0193
495.422	-0.0042
495.6213	-0.0088
495.8205	-0.0032
496.0196	-0.0134
496.2188	-0.0015
496.418	-0.0103
496.6171	-0.0181
496.8162	-0.011
497.0153	-0.0095
497.2144	-0.0209
497.4135	-0.0143
497.6126	-0.0243
497.8116	-0.0228
498.0107	-0.0126
498.2097	-0.0154
498.4087	-0.008
498.6077	-0.0079
498.8067	-0.004
499.0056	-0.0024
499.2046	-0.0139
499.4035	-0.0275
499.6024	-0.0203
499.8013	-0.0032
500.0002	-0.0319
500.199	-0.0136
500.3979	-0.0184
500.5967	-0.0202
500.7956	-0.0037
500.9944	-0.012
501.1932	-0.0222
501.3919	-0.0122
501.5907	-0.0095
501.7895	-0.019
501.9882	-0.0138
502.1869	-0.0195
502.3856	-0.0101
502.5843	-0.0112
502.783	-0.0138
502.9816	-0.0164
503.1803	-0.0225
503.3789	-0.0113
503.5775	0.0023
503.7761	-0.0191
503.9747	-0.0096
504.1732	-0.0172
504.3718	-0.0013
504.5703	-0.0039
504.7689	-0.0086
504.9674	-0.0103
505.1658	-0.0214
505.3643	-0.0139
505.5628	-0.0224
505.7612	-0.0146
505.9597	0.0041
506.1581	-0.0219
506.3565	-0.0063
506.5549	-0.0115
506.7532	-0.0239
506.9516	-0.0094
507.1499	-0.016
507.3482	-0.0192
507.5465	-0.0106
507.7448	-0.0057
507.9431	-0.0101
508.1414	-0.0036
508.3396	-0.0127
508.5379	-0.0116
508.7361	-0.0099
508.9343	0.0006
509.1325	-0.0179
509.3306	-0.0148
509.5288	-0.0189
509.7269	-0.0146
509.9251	-0.0086
510.1232	-0.0181
510.3213	-0.018
510.5193	-0.0052
510.7174	-0.0238
510.9154	-0.0116
511.1135	-0.0139
511.3115	-0.0132
511.5095	-0.0144
511.7075	-0.0201
511.9055	-0.0091
512.1034	-0.0135
512.3014	-0.0065
512.4993	-0.0105
512.6972	-0.015
512.8951	-0.0163
513.093	-0.0061
513.2908	0.0016
513.4887	-0.0137
513.6865	-0.0154
513.8844	-0.0182
514.0822	-0.0121
514.2799	-0.0142
514.4777	-0.023
514.6755	-0.0071
514.8732	-0.0185
515.0709	-0.0113
515.2687	-0.015
515.4664	-0.0094
515.664	-0.008
515.8617	-0.013
516.0594	-0.0201
516.257	-0.0154
516.4546	-0.0161
516.6522	-0.0005
516.8498	-0.0114
517.0474	-0.0107
517.2449	-0.0091
517.4425	-0.0153
517.64	-0.0177
517.8375	-0.0016
518.035	-0.0145
518.2325	-0.0209
518.43	-0.0143
518.6274	-0.0121
518.8249	-0.0171
519.0223	-0.0052
519.2197	-0.0113
519.4171	-0.0135
519.6145	-0.0189
519.8118	-0.0075
520.0092	-0.0193
520.2065	-0.0186
520.4038	-0.016
520.6011	-0.003
520.7984	-0.0156
520.9956	-0.0117
521.1929	-0.0102
521.3901	-0.0007
521.5874	-0.0111
521.7846	-0.0188
521.9818	-0.0209
522.1789	-0.0177
522.3761	-0.0082
522.5732	-0.0219
522.7704	-0.01
522.9675	-0.011
523.1646	-0.0199
523.3617	-0.0027
523.5587	-0.0132
523.7558	-0.0114
523.9528	-0.0023
524.1498	-0.0127
524.3468	-0.013
524.5438	-0.0119
524.7408	-0.0114
524.9378	0.0013
525.1347	-0.0004
525.3316	0.0025
525.5285	-0.0196
525.7254	-0.0091
525.9223	-0.0082
526.1192	-0.0108
526.316	-0.0106
526.5129	0.0009
526.7097	-0.0015
526.9065	-0.0116
527.1033	-0.0091
527.3	-0.0143
527.4968	-0.017
527.6935	-0.0064
527.8903	-0.0125
528.087	-0.0048
528.2837	-0.0004
528.4804	-0.0099
528.677	-0.0081
528.8737	-0.0057
529.0703	-0.0042
529.2669	-0.0024
529.4635	-0.0057
529.6601	0.0014
529.8567	-0.01
530.0532	-0.0111
530.2498	-0.0015
530.4463	-0.0024
530.6428	0.001
530.8393	0.0016
531.0358	-0.0087
531.2322	-0.0089
531.4287	-0.0101
531.6251	-0.015
531.8215	-0.0032
532.0179	-0.007
532.2143	-0.0049
532.4107	-0.0104
532.607	-0.008
532.8034	-0.003
532.9997	-0.0078
533.196	-0.0121
533.3923	-0.0167
533.5886	-0.0063
533.7848	-0.0031
533.9811	0.0043
534.1773	0.0006
534.3735	0.0003
534.5697	-0.0091
534.7659	-0.0083
534.9621	0.002
535.1582	-0.0139
535.3544	-0.0084
535.5505	-0.0106
535.7466	-0.0119
535.9427	-0.0162
536.1387	-0.012
536.3348	-0.011
536.5308	-0.0046
536.7269	-0.0189
536.9229	-0.0032
537.1189	-0.0028
537.3148	-0.0085
537.5108	-0.0134
537.7068	-0.005
537.9027	-0.0011
538.0986	-0.0053
538.2945	-0.0035
538.4904	-0.0052
538.6863	-0.0119
538.8821	-0.0019
539.078	-0.0021
539.2738	-0.0069
539.4696	-0.0054
539.6654	0.0053
539.8611	0.0023
540.0569	-0.002
540.2526	-0.0084
540.4484	-0.0094
540.6441	0.0016
540.8398	-0.0066
541.0355	-0
541.2311	-0.0112
541.4268	-0.0177
541.6224	-0.0038
541.818	-0.0056
542.0136	-0.0049
542.2092	0.0003
542.4048	0.0014
542.6003	-0.0036
542.7959	-0.0159
542.9914	-0.005
543.1869	0.0072
543.3824	-0.0002
543.5779	-0.0078
543.7734	-0.0005
543.9688	-0.0068
544.1642	0.0035
544.3596	0.0037
544.555	-0.0089
544.7504	-0.0051
544.9458	-0.0043
545.1411	-0.0016
545.3365	-0.0036
545.5318	-0.0094
545.7271	-0.0056
545.9224	0.0004
546.1177	-0.0065
546.3129	-0.0018
546.5081	-0.0062
546.7034	-0.0083
546.8986	-0.0121
547.0938	-0.0088
547.289	-0.0123
547.4841	-0.0025
547.6793	0.0001
547.8744	-0.0074
548.0695	-0.0032
548.2646	-0.0073
548.4597	-0.0021
548.6548	-0.0068
548.8498	-0.0061
549.0448	-0.0002
549.2399	-0.0036
549.4349	-0.0008
549.6298	-0.0016
549.8248	-0.0038
550.0198	-0.0017
550.2147	-0.0034
550.4096	-0.0087
550.6045	-0.0064
550.7994	0.0014
550.9943	0.0011
551.1892	0.0013
551.384	-0.0056
551.5788	-0.0117
551.7737	0.0035
551.9685	-0.0035
552.1632	0.002
552.358	-0.0146
552.5528	-0.0051
552.7475	0.0008
552.9422	-0.0064
553.1369	-0.0019
553.3316	-0.0037
553.5263	-0.0127
553.7209	0.0034
553.9156	-0.0039
554.1102	-0.0028
554.3048	0.0004
554.4994	0.0062
554.694	-0.0069
554.8885	-0.0024
555.0831	-0.012
555.2776	-0.0111
555.4721	-0.0089
555.6666	-0.0084
555.8611	0.0036
556.0555	-0.0091
556.25	-0.0085
556.4444	-0.0062
556.6388	0.0038
556.8332	-0.0044
557.0276	-0.0026
557.222	-0.0072
557.4163	-0.0017
557.6107	-0.0001
557.805	0.0008
557.9993	-0.0067
558.1936	-0.0015
558.3879	0.0076
558.5821	0.005
558.7764	-0.0027
558.9706	0.0026
559.1648	0.0033
559.359	-0.0008
559.5532	-0.0107
559.7473	-0.0056
559.9415	0.0033
560.1356	-0.0115
560.3297	-0.0163
560.5238	-0.0089
560.7179	-0.0096
560.9119	-0.0055
561.106	-0.0073
561.3	-0.0068
561.494	-0.0037
561.688	-0.002
561.882	-0.0113
562.076	-0.0025
562.2699	-0.0027
562.4639	-0.0088
562.6578	0.0021
562.8517	0.0029
563.0456	0.0018
563.2395	0.0029
563.4333	0.0019
563.6272	0.0014
563.821	-0.0053
564.0148	0.0032
564.2086	-0.0057
564.4024	-0.0065
564.5961	-0.011
564.7899	0.0054
564.9836	-0.0015
565.1773	-0.003
565.371	0.0054
565.5647	0.0077
565.7584	0.0049
565.952	0.0022
566.1456	-0.0059
566.3393	0.0013
566.5329	-0.0078
566.7264	0.0023
566.92	0.003
567.1136	0.0012
567.3071	0.0021
567.5006	0.0005
567.6941	-0.0065
567.8876	-0.0059
568.0811	-0.0003
568.2745	0.0092
568.468	0.0093
568.6614	0.0013
568.8548	0.0029
569.0482	0.0013
569.2416	-0.0007
569.4349	0.001
569.6283	-0.0007
569.8216	-0.0014
570.0149	-0.0062
570.2082	0.006
570.4015	0.0057
570.5947	0.0044
570.788	0.0049
570.9812	0.006
571.1744	0.0018
571.3676	-0.0073
571.5608	-0.0024
571.754	-0.0002
571.9471	-0.0031
572.1402	-0.001
572.3333	-0.001
572.5264	0.0001
572.7195	0.0037
572.9126	-0.0108
573.1057	-0.0008
573.2987	-0.0026
573.4917	0.0012
573.6847	-0.0118
573.8777	-0.0011
574.0707	0.0035
574.2636	-0.0041
574.4566	-0.0036
574.6495	0.0079
574.8424	0.0009
575.0353	-0.0034
575.2281	0.0067
575.421	0.0019
575.6138	-0.0021
575.8067	0.0021
575.9995	-0.0034
576.1923	-0.0012
576.385	0.0006
576.5778	0.0005
576.7706	-0.0081
576.9633	-0.0014
577.156	0.0048
577.3487	-0.0022
577.5414	-0.0063
577.734	-0.0012
577.9267	-0.0038
578.1193	-0.0064
578.3119	-0.0045
578.5045	-0.0058
578.6971	0.0063
578.8897	0.0012
579.0822	-0.0004
579.2747	-0.0023
579.4673	-0.0055
579.6598	-0.0092
579.8522	-0.0076
580.0447	-0.0107
580.2372	-0.015
580.4296	0.0069
580.622	-0.0077
580.8144	-0.0028
581.0068	-0.0039
581.1992	-0.012
581.3915	-0.0081
581.5839	-0.0105
581.7762	-0.0085
581.9685	-0.0078
582.1608	-0.006
582.353	-0.0049
582.5453	-0.004
582.7375	-0.0016
582.9298	-0.0022
583.122	-0.0008
583.3142	-0.0053
583.5063	-0.0061
583.6985	-0.0042
583.8906	-0.001
584.0827	-0.0053
584.2749	-0.0036
584.4669	0.0045
584.659	-0.0044
584.8511	-0.0018
585.0431	-0.0036
585.2352	0.0013
585.4272	-0.0011
585.6192	-0.0019
585.8111	-0.0048
586.0031	-0.002
586.195	-0.0033
586.387	0.006
586.5789	-0.002
586.7708	-0.0008
586.9627	0.0009
587.1545	-0.0025
587.3464	0.0036
587.5382	0.003
587.73	0.0027
587.9218	0.0076
588.1136	-0.001
588.3053	0.0055
588.4971	-0.0016
588.6888	-0.0101
588.8805	-0.0041
589.0722	0.0032
589.2639	-0.0017
589.4556	0.0009
589.6472	-0.0079
589.8389	-0.0065
590.0305	-0.0087
590.2221	0
590.4137	-0.0126
590.6052	0.0028
590.7968	-0.0044
590.9883	-0.0037
591.1798	-0.0036
591.3713	0.0005
591.5628	-0.0067
591.7543	0.0057
591.9458	-0.0027
592.1372	0.0073
592.3286	0.0072
592.52	0.0001
592.7114	-0.0064
592.9028	-0.0072
593.0941	-0.0004
593.2855	-0.0033
593.4768	-0.0001
593.6681	-0.0107
593.8594	-0.0078
594.0506	-0.0032
594.2419	0.0081
594.4331	0.0025
594.6244	-0.0021
594.8156	-0.0077
595.0067	0.0002
595.1979	-0.0029
595.3891	0.0077
595.5802	-0.0017
595.7713	-0.0069
595.9624	-0.0015
596.1535	0.0022
596.3446	0.0013
596.5357	0.0015
596.7267	0.0122
596.9177	0.0024
597.1087	-0.004
597.2997	-0.0051
597.4907	0.0001
597.6817	-0.0032
597.8726	0.0012
598.0635	-0.0118
598.2544	-0.0007
598.4453	0.0003
598.6362	0.001
598.827	0.0006
599.0179	0.0039
599.2087	0.0006
599.3995	0.0042
599.5903	0.0029
599.7811	0.005
599.9718	-0.0021
600.1626	-0.0047
600.3533	-0.0068
600.544	0.0014
600.7347	-0.0002
600.9254	0.0062
601.116	-0.0078
601.3067	0.0052
601.4973	-0.003
601.6879	0.005
601.8785	-0.0005
602.0691	0.0087
602.2596	0.003
602.4502	0.0041
602.6407	0.0048
602.8312	0.0067
603.0217	-0.0052
603.2122	0.0056
603.4027	0.0051
603.5931	0.0008
603.7835	0.001
603.9739	-0.0032
604.1643	0.0068
604.3547	-0.0035
604.5451	0.0046
604.7354	0.0002
604.9257	-0.0051
605.116	0.0036
605.3063	-0.0003
605.4966	-0.0045
605.6869	0.0006
605.8771	-0.0001
606.0673	0.0034
606.2575	0.0016
606.4477	0.0076
606.6379	0.0047
606.8281	0.0015
607.0182	-0.0002
607.2083	0.0084
607.3985	-0.0045
607.5885	0.0048
607.7786	-0.0028
607.9687	0.0047
608.1587	0.0012
608.3488	-0.0037
608.5388	0.0062
608.7288	-0.004
608.9187	-0.0057
609.1087	-0.0046
609.2986	-0.0085
609.4886	-0.0015
609.6785	0.0026
609.8684	0.0058
610.0582	-0.0044
610.2481	0.0013
610.4379	0.0012
610.6278	0.0003
610.8176	0.0012
611.0074	-0.0049
611.1971	-0.0017
611.3869	-0.004
611.5766	-0.0057
611.7664	0.0004
611.9561	0.0056
612.1458	-0.0003
612.3354	-0.0033
612.5251	-0.0007
612.7147	0.007
612.9044	0.0045
613.094	-0.0072
613.2836	0.003
613.4731	0.0002
613.6627	-0.0064
613.8522	0.006
614.0417	0.0054
614.2313	0.0013
614.4207	0.0023
614.6102	0.0021
614.7997	-0.0086
614.9891	-0.0011
615.1785	0.0006
615.3679	-0.0055
615.5573	0.0046
615.7467	-0.0022
615.9361	-0.0029
616.1254	-0.0086
616.3147	0.0019
616.504	0.0059
616.6933	-0.0013
616.8826	0.0025
617.0718	0.005
617.2611	0.0031
617.4503	-0.0025
617.6395	0.0049
617.8287	-0.0054
618.0179	0.0005
618.207	-0.0015
618.3961	-0.0014
618.5853	-0.0024
618.7744	0.0046
618.9634	0.0061
619.1525	0.0039
619.3416	0.0049
619.5306	0.0044
619.7196	0.0043
619.9086	-0.0051
620.0976	0.0006
620.2866	-0.0039
620.4755	0.0062
620.6645	0.0035
620.8534	0.0108
621.0423	-0.001
621.2312	0.0033
621.42	-0.0015
621.6089	-0.0053
621.7977	0.0064
621.9865	-0.0126
622.1753	0.0002
622.3641	0.0038
622.5529	0.0056
622.7416	0.0021
622.9303	-0.0031
623.1191	0.0042
623.3078	-0.0006
623.4964	0.0034
623.6851	-0.0067
623.8737	-0.0033
624.0624	0.007
624.251	-0.0003
624.4396	-0.0029
624.6282	-0.005
624.8167	-0.003
625.0053	0.0031
625.1938	0.0057
625.3823	0.0004
625.5708	0.0029
625.7593	-0.0066
625.9477	-0.0056
626.1362	-0.0077
626.3246	0.0072
626.513	0.0083
626.7014	0.0008
626.8898	0.0016
627.0781	-0.0016
627.2665	-0.0007
627.4548	0.0081
627.6431	0.0055
627.8314	0.0052
628.0197	0.008
628.2079	-0.0021
628.3962	0
628.5844	0.0108
628.7726	0.0097
628.9608	0.0103
629.1489	0.0023
629.3371	0.011
629.5252	0.0055
629.7134	0.0122
629.9015	0.0006
630.0895	0.0046
630.2776	0.0074
630.4657	0.0019
630.6537	0.002
630.8417	0.0028
631.0297	-0.0024
631.2177	0.0037
631.4057	-0.0031
631.5936	0.0029
631.7815	-0.0064
631.9695	0.0011
632.1574	0.0061
632.3452	0.0102
632.5331	0.002
632.7209	-0.0018
632.9088	0.0063
633.0966	0.0019
633.2844	-0.0027
633.4722	0.0019
633.6599	0.0101
633.8477	0.0071
634.0354	-0
634.2231	0.0025
634.4108	0.0094
634.5985	0.011
634.7861	0.001
634.9738	-0.0008
635.1614	-0.0007
635.349	0.0022
635.5366	-0.001
635.7242	-0.0013
635.9117	0.0004
636.0993	-0.0053
636.2868	0.0049
636.4743	-0.0033
636.6618	0.0055
636.8492	0.0096
637.0367	-0.003
637.2241	-0.0021
637.4115	-0.0017
637.5989	-0.0018
637.7863	-0.0008
637.9737	0.0004
638.161	-0.0006
638.3484	-0.0055
638.5357	0.0027
638.723	0.0013
638.9103	0.0042
639.0975	0.0047
639.2848	0.0054
639.472	0.0026
639.6592	0.0074
639.8464	0.0084
640.0336	0.0061
640.2208	-0.0011
640.4079	0.0019
640.595	0.0026
640.7821	0.001
640.9692	0.0055
641.1563	0.0016
641.3434	0.0092
641.5304	0.0027
641.7174	0.0038
641.9044	0.0061
642.0914	0.005
642.2784	0.0096
642.4653	0.0078
642.6523	0.0013
642.8392	-0.0004
643.0261	0.008
643.213	0.006
643.3999	0.0036
643.5867	-0.0002
643.7735	-0.0042
643.9604	0.0028
644.1472	0.0043
644.3339	0.002
644.5207	0.0045
644.7075	0.0074
644.8942	0.002
645.0809	0.008
645.2676	0.0065
645.4543	0.009
645.6409	0.0034
645.8276	0.0026
646.0142	0.0056
646.2008	-0.0072
646.3874	-0.0021
646.574	0.0002
646.7605	-0.0003
646.9471	-0.0109
647.1336	0.005
647.3201	0.0014
647.5066	-0.0062
647.6931	0.0031
647.8795	-0.0004
648.0659	0.0033
648.2524	0.0045
648.4388	-0.0033
648.6252	0.0004
648.8115	0.0081
648.9979	0.0027
649.1842	0.0001
649.3705	0.0003
649.5568	0.0076
649.7431	0.0096
649.9294	-0.0005
650.1156	0.0025
650.3018	0.0001
650.488	0.0083
650.6742	0.0055
650.8604	0.0018
651.0466	0.001
651.2327	0.005
651.4188	0.0025
651.6049	-0.0014
651.791	0.0057
651.9771	0.0066
652.1632	0.008
652.3492	-0.0015
652.5352	0.0039
652.7212	0.0017
652.9072	0.0131
653.0932	0.0012
653.2791	-0.0022
653.465	-0.0037
653.651	-0.0042
653.8369	0.0026
654.0227	-0.0009
654.2086	0.0046
654.3944	0.0058
654.5803	0.0032
654.7661	-0.0046
654.9519	0.0042
655.1377	-0.0026
655.3234	-0.0009
655.5092	-0.0071
655.6949	-0.004
655.8806	-0.0061
656.0663	-0.0042
656.2519	-0.0133
656.4376	-0.0023
656.6232	0.0035
656.8088	0.0003
656.9945	0.0086
657.18	-0.0012
657.3656	0.0052
657.5511	0.0002
657.7367	-0.0017
657.9222	0.0049
658.1077	0.0048
658.2932	-0.0006
658.4786	-0.0049
658.6641	-0.0002
658.8495	0.0061
659.0349	0.0044
659.2203	0.0054
659.4057	0.0073
659.591	0.0046
659.7764	0.0015
659.9617	0.0072
660.147	0.0024
660.3323	0.0102
660.5176	0.0179
660.7028	-0.0005
660.888	0.0051
661.0733	0.0013
661.2585	0.001
661.4436	0.0026
661.6288	0.011
661.8139	0.0065
661.9991	0.0109
662.1842	0.0043
662.3693	0.0039
662.5544	-0.0006
662.7394	0.0001
662.9245	-0.0035
663.1095	0.0003
663.2945	-0.0049
663.4795	-0.0001
663.6644	0.0034
663.8494	-0.0005
664.0343	0.0029
664.2193	-0.0075
664.4042	-0.0067
664.589	-0.0169
664.7739	-0.0019
664.9587	-0.0063
665.1436	0.0011
665.3284	-0.0007
665.5132	-0.0045
665.698	-0.0012
665.8827	0.0061
666.0675	0.0015
666.2522	-0.0046
666.4369	0.0012
666.6216	0.0108
666.8063	0.0097
666.9909	0.0071
667.1756	0.0014
667.3602	0.0051
667.5448	0.0024
667.7294	0.0039
667.9139	0.0062
668.0985	0.0194
668.283	0.0025
668.4675	0.0032
668.652	0.0053
668.8365	0.0008
669.0209	0.0081
669.2054	0.0054
669.3898	-0.0019
669.5742	0.0073
669.7586	0.0091
669.943	0.007
670.1273	0.0023
670.3117	0.011
670.496	0.0046
670.6803	0.0141
670.8646	0.0079
671.0488	0.0074
671.2331	0.009
671.4173	0.0041
671.6015	0.0039
671.7857	0.0038
671.9699	0.01
672.1541	0.0119
672.3382	0.0112
672.5223	0.0058
672.7064	0.0017
672.8905	0.0113
673.0746	0.0062
673.2587	0.0009
673.4427	0.0067
673.6267	0.0126
673.8107	0.0135
673.9947	0.0029
674.1787	0.0045
674.3626	-0.0014
674.5465	0.0088
674.7304	0.0109
674.9143	0.0053
675.0982	0.011
675.2821	0.0041
675.4659	0.0117
675.6497	0.0074
675.8335	0.003
676.0173	0.0069
676.2011	0.0027
676.3849	0.0084
676.5686	0
676.7523	0.007
676.936	0.0047
677.1197	-0.0021
677.3034	-0.0015
677.487	0.0107
677.6706	0.0071
677.8542	0.0088
678.0378	0.004
678.2214	0.0031
678.405	0.0013
678.5885	-0.0003
678.772	0.0033
678.9555	-0.0051
679.139	0.0028
679.3225	0.008
679.5059	0.0046
679.6894	0.0009
679.8728	0.0039
680.0562	-0.0005
680.2395	-0.0047
680.4229	0.0016
680.6062	0.0034
680.7896	0.0065
680.9729	-0.0036
681.1562	0.013
681.3394	0.0073
681.5227	-0.0066
681.7059	0.0043
681.8891	0.0033
682.0723	0.0084
682.2555	0.005
682.4387	-0.0048
682.6218	-0.0002
682.805	0.0027
682.9881	0.0062
683.1712	-0.0078
683.3542	0.0007
683.5373	0.0087
683.7203	-0.0027
683.9034	-0.0025
684.0864	-0.01
684.2694	0.009
684.4523	-0.0006
684.6353	0.0021
684.8182	0.0033
685.0011	-0.0006
685.184	0.007
685.3669	0.0117
685.5498	0.0112
685.7326	0.0053
685.9154	-0.0018
686.0982	0.0137
686.281	0.011
686.4638	0.0026
686.6465	0.0012
686.8293	0.007
687.012	0.0039
687.1947	-0.0023
687.3774	-0.002
687.56	-0.0061
687.7427	-0.0022
687.9253	-0.006
688.1079	0.0002
688.2905	0.0076
688.4731	-0.0052
688.6556	0.0001
688.8382	-0.0021
689.0207	0.0032
689.2032	0.0009
689.3857	-0.007
689.5681	0.0025
689.7506	-0.0029
689.933	-0.0061
690.1154	0.0018
690.2978	-0.0002
690.4802	0.0014
690.6626	-0.0037
690.8449	0.0005
691.0272	0.0018
691.2095	0.0015
691.3918	-0.0032
691.5741	0.0033
691.7563	-0.0031
691.9386	0.0029
692.1208	0.0061
692.303	-0.0024
692.4852	-0.005
692.6673	0.0032
692.8495	0.0041
693.0316	0.0039
693.2137	-0.0006
693.3958	0.01
693.5778	0.0017
693.7599	0.0053
693.9419	0.0027
694.1239	0.0011
694.3059	-0.0043
694.4879	0.0062
694.6699	0.0099
694.8518	0.006
695.0337	-0.0067
695.2157	0.0065
695.3975	0.0004
695.5794	0.0019
695.7613	0.004
695.9431	0.0012
696.1249	0.0071
696.3067	-0.0008
696.4885	0.0013
696.6703	-0.0015
696.852	0.0007
697.0337	-0.0036
697.2154	0.0013
697.3971	0.005
697.5788	0.0004
697.7605	0.004
697.9421	0.0096
698.1237	0.0027
698.3053	0.0057
698.4869	0.0009
698.6685	-0.0062
698.85	-0.0006
699.0315	0.0042
699.213	0.0032
699.3945	0.0008
699.576	0.0087
699.7575	0.0053
699.9389	0.0059
700.1203	-0.0005
700.3017	-0.0105
700.4831	-0.009
700.6645	-0.0022
700.8458	0.0029
701.0271	-0.011
701.2084	0.0018
701.3897	-0.0046
701.571	-0.0069
701.7523	-0.0074
701.9335	-0.0033
702.1147	0.0069
702.2959	-0.0012
702.4771	-0.0069
702.6583	0.0004
702.8394	-0.0069
703.0205	0.0039
703.2016	-0.0017
703.3827	-0.0059
703.5638	0.0104
703.7449	0.0072
703.9259	0.0131
704.1069	-0.0042
704.2879	0.0075
704.4689	0.0056
704.6499	0.0013
704.8308	0.0014
705.0117	0.0015
705.1927	0.0005
705.3735	-0.0074
705.5544	-0.0063
705.7353	-0.003
705.9161	-0.0063
706.0969	-0.0077
706.2777	0.0014
706.4585	-0.0071
706.6393	0.004
706.82	0.0014
707.0007	0.0025
707.1815	0.0023
707.3621	0.0105
707.5428	0.0012
707.7235	0.0069
707.9041	0.0037
708.0847	-0.0029
708.2653	-0.0003
708.4459	-0.0058
708.6265	-0.0017
708.807	-0.0055
708.9875	0.0007
709.168	-0.0032
709.3485	-0.0014
709.529	0.0058
709.7095	-0.0088
709.8899	0.0046
710.0703	-0.0126
710.2507	0.0012
710.4311	0.0032
710.6115	-0.0087
710.7918	-0.0128
710.9721	-0.0015
711.1524	-0.0027
711.3327	-0.0002
711.513	0.0033
711.6932	0.0002
711.8735	0.0121
712.0537	0.0051
712.2339	-0.0003
712.4141	-0.006
712.5942	-0.0003
712.7744	0.0003
712.9545	-0.0075
713.1346	-0.0048
713.3147	0.0021
713.4947	-0.0023
713.6748	0.0018
713.8548	-0.0018
714.0348	0.0043
714.2148	-0.0046
714.3948	0.0146
714.5748	0.0077
714.7547	0.003
714.9346	0.0082
715.1145	0.0017
715.2944	0.0021
715.4743	0.0107
715.6541	0.0078
715.834	0.0062
716.0138	0.0031
716.1936	-0.0087
716.3733	-0.0081
716.5531	0.005
716.7328	-0.0032
716.9126	-0.0013
717.0923	0.0151
717.2719	-0
717.4516	0.0037
717.6312	0.009
717.8109	0.0017
717.9905	-0.0019
718.1701	0.0029
718.3496	-0.0031
718.5292	-0.0001
718.7087	-0.0017
718.8882	-0.0019
719.0677	0.0084
719.2472	0.0085
719.4267	0.0095
719.6061	0.0093
719.7856	0.0079
719.965	0.0144
720.1443	0.0065
720.3237	0.015
720.5031	0.006
720.6824	0.0136
720.8617	-0.0091
721.041	0.0079
721.2203	0.011
721.3995	0.0084
721.5788	0.0051
721.758	0.0027
721.9372	-0.0075
722.1164	-0.0015
722.2956	0.0052
722.4747	0.0024
722.6538	-0.0056
722.8329	0.013
723.012	-0.0027
723.1911	-0.0054
723.3702	-0.0026
723.5492	-0.0063
723.7282	-0.0061
723.9072	-0.0048
724.0862	-0.0044
724.2652	-0.0007
724.4441	0.0066
724.623	-0.0007
724.8019	-0.0069
724.9808	0.0056
725.1597	-0.0109
725.3385	0.0083
725.5174	-0.0058
725.6962	-0.0006
725.875	-0.0043
726.0538	0.012
726.2325	0.0051
726.4112	0.0025
726.59	0.0034
726.7687	-0.0036
726.9474	0.0005
727.126	-0.0003
727.3047	-0.0091
727.4833	-0.0044
727.6619	-0.0056
727.8405	-0.0034
728.0191	-0.008
728.1976	-0.0026
728.3762	-0.0089
728.5547	0.009
728.7332	-0.0112
728.9116	0.0069
729.0901	0.0072
729.2686	0.0027
729.447	-0.0038
729.6254	-0.0035
729.8038	0.0054
729.9821	-0.0086
730.1605	-0.0042
730.3388	-0.0027
730.5171	0.0021
730.6954	-0.0035
730.8737	-0
731.0519	0.0004
731.2302	0.0057
731.4084	0.007
731.5866	0.0003
731.7648	-0.0004
731.9429	0.0032
732.1211	-0.0056
732.2992	-0.0002
732.4773	-0.0041
732.6554	0.0081
732.8335	0.0072
733.0115	0.0116
733.1896	0.0049
733.3676	-0.004
733.5456	0.0044
733.7235	0.0073
733.9015	0.0022
734.0794	0.0033
734.2574	-0.0051
734.4353	-0.0063
734.6131	0.0045
734.791	0.0048
734.9689	-0.004
735.1467	-0.0001
735.3245	-0.0053
735.5023	0.0036
735.68	-0.0006
735.8578	0.0104
736.0355	-0.0075
736.2132	-0.001
736.3909	-0.0058
736.5686	-0.0078
736.7463	-0.003
736.9239	-0.0045
737.1015	-0.0041
737.2791	0.0016
737.4567	-0.0081
737.6343	-0.0061
737.8118	0.0003
737.9894	0.0079
738.1669	-0.0083
738.3444	-0.0065
738.5218	0.0072
738.6993	-0.0058
738.8767	-0.0057
739.0541	0.0034
739.2315	0.0001
739.4089	0.0019
739.5863	0.0067
739.7636	-0.0037
739.9409	-0.0038
740.1182	0.0129
740.2955	0.0047
740.4728	-0.0004
740.65	-0.0081
740.8272	-0.0039
741.0044	-0.0053
741.1816	0.0056
741.3588	0.0008
741.5359	0.0016
741.7131	-0.0074
741.8902	0.0011
742.0673	0.0044
742.2444	-0.0073
742.4214	-0.0112
742.5985	0.0039
742.7755	-0.0053
742.9525	-0.0164
743.1295	0.0086
743.3064	0.0072
743.4834	0.0078
743.6603	-0.0014
743.8372	-0.0074
744.0141	0.0039
744.191	0.0023
744.3678	-0.0024
744.5446	0.0069
744.7215	-0.0001
744.8982	-0.0003
745.075	-0.0082
745.2518	0.0028
745.4285	0.005
745.6052	-0.0054
745.7819	-0.0014
745.9586	-0.0034
746.1353	0.0007
746.3119	-0.0047
746.4885	-0.0048
746.6651	-0.0051
746.8417	0.0023
747.0183	-0.0019
747.1948	-0.0002
747.3714	0.008
747.5479	-0.0003
747.7244	-0.0038
747.9008	0.014
748.0773	0.004
748.2537	0.0009
748.4301	-0.0001
748.6065	0.0026
748.7829	0.0095
748.9593	-0.002
749.1356	-0.0032
749.3119	0.0064
749.4882	-0.0063
749.6645	0.0008
749.8408	-0.0012
750.017	-0.0037
750.1933	0.0098
750.3695	-0.0066
750.5457	0.0041
750.7218	-0.0065
750.898	0.0042
751.0741	0.003
751.2502	-0.0012
751.4263	-0.0009
751.6024	-0.0098
751.7784	-0.0095
751.9545	-0.0045
752.1305	-0.0096
752.3065	-0.0134
752.4825	0.0128
752.6584	-0.0054
752.8344	-0.0038
753.0103	-0.0097
753.1862	-0.0051
753.3621	-0.0066
753.5379	-0.0098
753.7138	-0.0003
753.8896	-0.0071
754.0654	0.0032
754.2412	-0.0001
754.417	0.0035
754.5927	-0.0053
754.7685	-0.009
754.9442	0.0063
755.1199	0.0123
755.2956	-0.0058
755.4712	0.0007
755.6469	-0.0099
755.8225	-0.0103
755.9981	-0.0106
756.1736	0.0113
756.3492	-0.01
756.5248	-0.0097
756.7003	-0.0084
756.8758	0.0015
757.0513	-0.0131
757.2267	-0.0116
757.4022	0.0007
757.5776	-0.0142
757.753	-0.0004
757.9284	0.0038
758.1038	0.0104
758.2791	0.013
758.4545	-0.006
758.6298	0.0027
758.8051	0.0111
758.9803	0.0058
759.1556	0.0022
759.3308	0.0052
759.506	0.0047
759.6812	0.0056
759.8564	0.0142
760.0316	0.0112
760.2067	0.0066
760.3819	0.008
760.557	0.0133
760.732	0.0056
760.9071	-0.0075
761.0821	0.0048
761.2572	0.0153
761.4322	-0.0009
761.6072	-0.0016
761.7821	-0.0052
761.9571	0.0067
762.132	0.0006
762.3069	-0.0125
762.4818	-0.0065
762.6567	0.0029
762.8316	0.0028
763.0064	-0.0077
763.1812	-0.001
763.356	-0.0127
763.5308	-0.0129
763.7055	-0.0013
763.8803	-0.009
764.055	-0.0036
764.2297	-0.0086
764.4044	-0.0114
764.579	-0.0071
764.7537	-0.0075
764.9283	-0.0102
765.1029	-0.0027
765.2775	-0.0062
765.4521	-0.0132
765.6266	-0.0116
765.8011	-0.0091
765.9756	-0.0048
766.1501	0.0033
766.3246	0.0007
766.4991	-0.0042
766.6735	0.0029
766.8479	-0.0101
767.0223	0.0057
767.1967	-0.0054
767.371	-0.0007
767.5454	0.003
767.7197	0.0037
767.894	-0
768.0683	-0.0056
768.2425	0.001
768.4168	0.0079
768.591	-0.0053
768.7652	-0.0061
768.9394	-0.0073
769.1135	-0.0043
769.2877	0.0031
769.4618	0.006
769.6359	-0.0062
769.81	0.0036
769.984	-0.0044
770.1581	-0.0085
770.3321	0.0017
770.5061	0.0011
770.6801	-0.0022
770.8541	0.004
771.028	0.0076
771.202	-0.0162
771.3759	0.0021
771.5498	-0.0045
771.7236	0.0001
771.8975	-0.0035
772.0713	0.0044
772.2451	-0.0003
772.4189	0.0054
772.5927	0.0048
772.7665	0.0045
772.9402	0.0048
773.1139	0.0063
773.2876	-0.0036
773.4613	0.0209
773.635	0.0129
773.8086	-0.0009
773.9822	-0.0016
774.1558	0.012
774.3294	-0.0104
774.503	-0.0071
774.6765	0.0017
774.8501	0.0044
775.0236	0.0013
775.1971	0.0097
775.3705	-0.0024
775.544	0.0012
775.7174	-0.0065
775.8908	-0.0035
776.0642	-0.0041
776.2376	0.0077
776.4109	-0.0075
776.5843	-0.0038
776.7576	0.0044
776.9309	0.0137
777.1041	0.0112
777.2774	-0.0008
777.4506	-0.0095
777.6238	-0.0094
777.797	-0.0023
777.9702	-0.0073
778.1434	-0.0069
778.3165	-0.0082
778.4896	-0.0077
778.6627	0.0189
778.8358	0.0034
779.0089	0.0087
779.1819	0.0118
779.3549	0.0183
779.5279	0.011
779.7009	0.0059
779.8739	0.0004
780.0468	0.0054
780.2197	0.0153
780.3926	0.0033
780.5655	0.0087
780.7384	0.0036
780.9112	0.0087
781.0841	-0.0028
781.2569	-0.0013
781.4297	0.0119
781.6024	0.006
781.7752	0.0187
781.9479	0.0058
782.1206	0.0009
782.2933	-0.0063
782.466	0.0176
782.6386	-0.0006
782.8113	0.0071
782.9839	0.0014
783.1565	0.0104
783.329	0.014
783.5016	0.0119
783.6741	0.0013
783.8466	-0.0003
784.0191	0.0065
784.1916	0.0016
784.3641	-0.0065
784.5365	-0.0043
784.7089	-0.0103
784.8813	-0.0046
785.0537	-0.0026
785.2261	-0.0061
785.3984	-0.0176
785.5707	-0.0057
785.743	0.0011
785.9153	-0.0029
786.0876	0.0012
786.2598	-0.0166
786.432	-0.0159
786.6042	0.0068
786.7764	-0.0175
786.9486	-0.0047
787.1207	-0.0082
787.2928	0.0039
787.4649	0.007
787.637	0.0076
787.8091	-0.0118
787.9811	-0.0141
788.1532	-0.0069
788.3252	0.0142
788.4972	-0.0106
788.6691	-0.0033
788.8411	-0.0077
789.013	-0.0165
789.1849	0.0016
789.3568	0.004
789.5287	-0.0053
789.7005	-0.0118
789.8723	0.0059
790.0442	-0.0026
790.2159	0.0004
790.3877	0.0012
790.5595	-0.0116
790.7312	-0.0044
790.9029	-0.004
791.0746	-0.0129
791.2463	0.0026
791.4179	0.0035
791.5896	0.0069
791.7612	-0.0013
791.9328	-0.0039
792.1044	-0.0226
792.2759	-0.0231
792.4474	-0.0141
792.619	0.0027
792.7905	0.0061
792.9619	-0.0013
793.1334	-0.0056
793.3048	0.0089
793.4762	0.0044
793.6476	-0.0102
793.819	0.0072
793.9904	0.0105
794.1617	-0.0027
794.333	0.011
794.5043	-0.0179
794.6756	-0.024
794.8469	-0.0023
795.0181	0.0023
795.1893	-0.0012
795.3605	-0.0109
795.5317	-0.0085
795.7029	-0.0068
795.874	0.0003
796.0452	-0.0062
796.2163	-0.0047
796.3873	0.0077
796.5584	-0.0068
796.7294	-0.0092
796.9005	-0.0019
797.0715	0.0079
797.2425	-0.0164
797.4134	-0.0143
797.5844	-0.0045
797.7553	-0.0067
797.9262	-0.0103
798.0971	-0.0175
798.2679	-0.0294
798.4388	-0.0305
798.6096	-0.001
798.7804	-0.0209
798.9512	-0.0112
799.122	-0.003
799.2927	-0.0189
799.4635	0.0075
799.6342	-0.0291
799.8049	-0.02
799.9755	-0.0191
800.1462	-0
800.3168	0.006
800.4874	-0.0052
800.658	0.0142
800.8286	-0.0077
800.9991	0.0115
801.1696	0.0081
801.3402	0.0152
801.5106	-0.0027
801.6811	-0.0226
801.8516	0.0088
802.022	-0.0175
802.1924	-0.0153
802.3628	-0.0035
802.5332	0.008
802.7035	0.0175
802.8739	-0.0148
803.0442	-0.0134
803.2145	-0.0134
803.3847	-0.0108
803.555	-0.0159
803.7252	-0.0314
803.8954	-0.0402
804.0656	-0.0136
804.2358	-0.0258
804.4059	-0.0027
804.5761	-0.0285
804.7462	0.0044
804.9163	-0.0005
805.0864	-0.0159
805.2564	-0.0189
805.4264	-0.0152
805.5965	-0.0113
805.7665	-0.0013
805.9364	0.0011
806.1064	0.0149
806.2763	-0.0009
806.4462	0.0042
806.6161	-0.0065
806.786	0.0004
806.9559	-0.0121
807.1257	-0.0126
807.2955	-0.0052
807.4653	-0.0072
807.6351	-0.0163
807.8048	0.0095
807.9746	-0.0158
808.1443	-0.0057
808.314	-0.006
808.4837	-0.0139
808.6533	-0.027
808.8229	0.0089
808.9926	-0.001
809.1622	-0.0071
809.3317	-0.0289
809.5013	-0.0229
809.6708	-0.0156
809.8403	-0.0047
810.0098	-0.0199
810.1793	0.0023
810.3488	-0.0124
810.5182	-0.042
810.6876	-0.01
810.857	-0.0231
811.0264	0.0148
811.1958	-0.0122
811.3651	0.0163
811.5344	-0.0071
811.7037	-0.02
811.873	-0.0214
812.0422	-0.0024
812.2115	-0.0059
812.3807	-0.0282
812.5499	-0
812.7191	-0.0091
812.8882	-0.0098
813.0574	-0.0125
813.2265	-0.0129
813.3956	-0.003
813.5646	-0.0077
813.7337	-0.0205
813.9027	0.0076
814.0718	0.0091
814.2407	0.0203
814.4097	0.0081
814.5787	-0.0067
814.7476	0.002
814.9165	-0.0126
815.0854	-0.0214
815.2543	0.0046
815.4232	-0.0224
815.592	0.0006
815.7608	0.012
815.9296	0.0053
816.0984	0.0115
816.2671	-0.0091
816.4359	-0.0078
816.6046	-0.0022
816.7733	-0.0037
816.942	-0.0442
817.1106	-0.003
817.2793	-0.0148
817.4479	-0.0067
817.6165	0.0021
817.785	-0.0035
817.9536	-0.0341
818.1221	-0.0118
818.2906	0.0019
818.4591	-0.0132
818.6276	-0.0291
818.7961	-0.0069
818.9645	0.0016
819.1329	-0.017
819.3013	0.0061
819.4697	-0.0057
819.638	-0.0135
819.8064	-0.0038
819.9747	0.0024
820.143	-0.0163
820.3113	-0.0343
820.4795	-0.0255
820.6477	-0.0082
820.816	-0.0011
820.9842	-0.0065
821.1523	-0.0359
821.3205	-0.0265
821.4886	-0.0195
821.6567	-0.025
821.8248	-0.021
821.9929	0.0122
822.1609	0.0049
822.329	0.0101
822.497	0.0132
822.665	-0.0094
822.833	-0.0043
823.0009	0.0243
823.1688	0.0315
823.3367	0.0228
823.5046	0.0004
823.6725	0.0191
823.8404	0.0111
824.0082	0.0171
824.176	0.0023
824.3438	0.0048
824.5116	0.0029
824.6793	-0.0078
824.847	0.0008
825.0147	0.0068
825.1824	0.0364
825.3501	0.0104
825.5177	-0.0296
825.6854	-0
825.853	-0.0176
826.0206	-0.0341
826.1881	0.0193
826.3557	-0.0555
826.5232	0.0109
826.6907	-0.0271
826.8582	-0.0335
827.0257	-0.0203
827.1931	-0.0134
827.3605	0.01
827.528	0.0248
827.6953	-0.0186
827.8627	-0.0033
828.03	0.0075
828.1974	-0.0193
828.3647	-0.0226
828.532	-0.0287
828.6992	-0.0245
828.8665	-0.0151
829.0337	-0.0051
829.2009	0.0085
829.3681	-0.0243
829.5352	0.0109
829.7024	-0.0336
829.8695	-0.0165
830.0366	0.0365
830.2037	-0.0076
830.3707	-0.0059
830.5378	0.001
830.7048	-0.0315
830.8718	0.0076
831.0388	-0.0197
831.2057	-0.0006
831.3727	0.0137
831.5396	-0.0006
831.7065	-0.0268
831.8734	-0.0139
832.0402	-0.0398
832.2071	-0.0263
832.3739	-0.0296
832.5407	-0.003
832.7075	-0.0337
832.8742	-0.0331
833.041	-0.0389
833.2077	0.0104
833.3744	0.0083
833.541	0.0066
833.7077	-0.0044
833.8743	-0.0353
834.0409	-0.0073
834.2075	0.0115
834.3741	-0.0428
834.5407	-0.0101
834.7072	-0.0169
834.8737	-0.0301
835.0402	-0.0094
835.2067	-0.005
835.3731	0.0113
835.5395	-0.0285
835.706	0.0245
835.8723	-0.0399
836.0387	0.002
836.2051	-0.0263
836.3714	-0.0068
836.5377	0.009
836.704	-0.0369
836.8703	0.0023
837.0365	0.0178
837.2027	-0.0207
837.3689	0.0015
837.5351	-0.0177
837.7013	-0.0367
837.8674	-0.041
838.0335	-0.0193
838.1997	-0.0017
838.3657	-0.078
838.5318	-0.0674
838.6978	0.0328
838.8639	0.0363
839.0299	-0.0186
839.1958	-0.0288
839.3618	-0.0077
839.5277	-0.006
839.6937	-0.0186
839.8596	-0.0247
840.0254	0.022
840.1913	0.0099
840.3571	0.0043
840.523	-0.0243
840.6888	-0.0121
840.8545	-0.0226
841.0203	-0.0214
841.186	-0.0052
841.3517	0.0324
841.5174	-0.0626
841.6831	-0.0212
841.8488	0.0099
842.0144	0.0018
842.18	0.0134
842.3456	-0.0184
842.5112	-0.0426
842.6767	-0.0304
842.8422	-0.021
843.0077	-0.0123
843.1732	-0.039
843.3387	0.0365
843.5042	-0.0059
843.6696	-0.0404
843.835	-0.0343
844.0004	-0.003
844.1657	-0.0129
844.3311	-0.0616
844.4964	-0.0341
844.6617	0.0066
844.827	-0.0347
844.9923	-0.0527
845.1575	0.0047
845.3227	-0.0104
845.4879	0.0044
845.6531	-0.047
845.8183	-0.0523
845.9834	-0.0702
846.1485	-0.0494
846.3136	-0.056
846.4787	-0.0973
846.6438	0.0321
846.8088	-0.0376
846.9738	-0.0323
847.1388	-0.0126
847.3038	-0.0265
847.4687	-0.13
847.6337	-0.0078
847.7986	-0.0028
847.9635	-0.0973
848.1284	-0.0392
848.2932	0.0719
848.458	-0.0453
848.6228	0.0656
848.7876	0.0665
848.9524	-0.0815
849.1172	-0.1067
849.2819	0.0098
849.4466	-0.0678
849.6113	-0.0435
849.7759	-0.0402
849.9406	0.012
850.1052	-0.0238
850.2698	-0.07
850.4344	-0.0377
850.599	-0.0935
850.7635	-0.0227
850.928	-0.0712
851.0925	0.0175
851.257	0.0311
851.4215	-0.0264
851.5859	0.0763
851.7503	-0.0032
851.9147	0.0082
852.0791	-0.0539
852.2434	-0.0077
852.4078	0.0698
852.5721	0.0735
852.7364	-0.0372
852.9007	-0.1932
853.0649	-0.0467
853.2291	-0.0384
853.3934	0.0644
853.5575	-0.0102
853.7217	-0.1243
853.8859	-0.1301
854.05	-0.0081
854.2141	-0.0002
854.3782	-0.112
854.5423	-0.0469
854.7063	0.0338
854.8703	-0.0057
855.0343	-0.1179
855.1983	-0.1364
855.3623	0.0632
855.5262	0.043
855.6901	-0.0999
855.854	0.0167
856.0179	0.0878
856.1818	0.09
856.3456	-0.0661
856.5094	-0.1383
856.6732	-0.0303
856.837	-0.1232
857.0008	0.0699
857.1645	-0.0752
857.3282	-0.0893
857.4919	-0.0034
857.6556	0.1495
857.8192	0.0339
857.9828	0.0737
858.1465	-0.0003
858.31	0.0101
858.4736	-0.0503
858.6372	-0.312
858.8007	-0.2022
858.9642	-0.1363
859.1277	-0.1221
859.2911	0.0331
859.4546	-0.0358
859.618	-0.2961
859.7814	0.0275
859.9448	0.1359
860.1081	0.0935
860.2715	0.0458
860.4348	0.4368
860.5981	0.0998
860.7614	0.0671
860.9246	-0.0376
861.0879	-0.2184
861.2511	0.1275
861.4143	-0.4901
861.5774	0.3105
861.7406	-0.1286
861.9037	0.2104
862.0668	-0.0448
862.2299	-0.2785
862.393	-0.6275
862.556	-0.0385
862.7191	-0.0658
862.8821	-0.2714
863.0451	0.2626
863.208	0.087
863.371	-0.0997
863.5339	-0.3541
863.6968	0.0805
863.8597	-0.2054
864.0225	-0.0179
864.1854	1.1709
864.3482	-0.4206
864.511	0.004
864.6737	0.0196
864.8365	0.38
864.9992	-0
865.1619	-0.5306
865.3246	-0.2782
865.4873	0.0095
865.65	-0.3302
865.8126	-0.2928
865.9752	0.005
866.1378	-0.2428
866.3004	0.3715
866.4629	0.1637
866.6254	-0
866.7879	0.1463
866.9504	-0.0717
867.1129	-0
867.2753	0.285
867.4377	0.0847
867.6001	-0.5214
867.7625	-0.0653
867.9249	0.1162
868.0872	0.0746
868.2495	0.2536
868.4118	-0.481
868.5741	-0.5799
868.7363	-0.1505
868.8986	-0.3346
869.0608	-0.0088
869.223	0.1751
869.3851	-0
869.5473	0.3971
869.7094	0.4405
869.8715	0.2248
870.0336	-0
870.1957	0.4953
870.3577	-0.4135
870.5197	-0.0177
870.6817	-0.384
870.8437	-0.2362
871.0057	-0
871.1676	-0
871.3295	-0.5486
871.4914	-0.3472
871.6533	-0.3381
871.8151	0.5802
871.977	-0
872.1388	-0
872.3006	-0
872.4623	-0
872.6241	0.6209
872.7858	0.4563
872.9475	-0
873.1092	-0
873.2709	-0.3329
873.4325	0.1614
873.5941	-0
873.7557	-0.2565
873.9173	0.3199
874.0789	-0.3874
874.2404	-0.2328
874.4019	0.2351
874.5634	-0.3312
874.7249	0.1143
874.8863	-0
875.0478	0.1122
875.2092	-0
875.3706	0.1366
875.5319	-0.7378
875.6933	0.063
875.8546	-0.4598
876.0159	-0
876.1772	0.3899
876.3385	-0
876.4997	0.1511
876.6609	-0
876.8221	-0
876.9833	0.665
877.1445	-0
877.3056	0.2932
877.4667	0.1465
877.6278	0.0824
877.7889	-0.8319
877.9499	-0
878.111	-0
878.272	-0
878.433	0.8119
878.5939	0.172
878.7549	-0.2144
878.9158	-1.0049
879.0767	-0
879.2376	-0
879.3984	0.2745
879.5593	-0
879.7201	-0.1598
879.8809	-0.6852
880.0417	-0
880.2024	-0
880.3632	-0.8751
880.5239	0.5786
880.6846	0.7377
880.8452	-2.3253
881.0059	-0
881.1665	-0
881.3271	0.9728
881.4877	-0
881.6483	-0
881.8088	-0.545
881.9693	0.2314
882.1298	0.2314
882.2903	0.2314
