Data from MonoPyChalIsomerACN10uM420nmA_Absorbance_15-09-52-434.txt Node
Date: Fri Jul 05 15:09:52 BST 2024
User: LASERRRRR
Spectrometer: FLMT03099
Trigger mode: 0
Integration Time (sec): 1.000000E-1
Scans to average: 1
Electric dark correction enabled: true
Nonlinearity correction enabled: false
Boxcar width: 0
XAxis mode: Wavelengths
Number of Pixels in Spectrum: 3648
>>>>>Begin Spectral Data<<<<<
179.3399	-0.1298
179.5586	-0.1298
179.7771	-0.1298
179.9957	-0.0143
180.2143	-0
180.4329	-0.2908
180.6514	1.2681
180.8699	0.616
181.0885	-0.3165
181.307	-0.1316
181.5255	1.2788
181.744	-0.817
181.9625	-0
182.181	-0
182.3994	0.5852
182.6179	-0
182.8363	-0.0127
183.0547	0.1392
183.2732	-0.0599
183.4916	-0.054
183.71	-0.0849
183.9284	0.1546
184.1467	-0.19
184.3651	0.0096
184.5835	0.1825
184.8018	0.0175
185.0201	0.2412
185.2385	-0.0101
185.4568	0.6189
185.6751	-0.1459
185.8934	0.3041
186.1117	0.1777
186.3299	0.0626
186.5482	-0.0044
186.7664	0.0347
186.9847	-0.094
187.2029	0.0519
187.4211	-0.0186
187.6393	0.173
187.8575	0.057
188.0757	0.1115
188.2939	0.1412
188.512	-0.0803
188.7302	0.0697
188.9483	-0.2005
189.1665	0.0991
189.3846	-0.3915
189.6027	0.0832
189.8208	0.183
190.0389	0.0178
190.257	0.1729
190.475	0.0674
190.6931	0.1631
190.9111	0.3972
191.1292	0.1303
191.3472	0.6171
191.5652	0.3256
191.7832	0.3946
192.0012	0.5052
192.2192	0.4564
192.4371	0.4711
192.6551	0.2114
192.873	0.5883
193.091	0.6117
193.3089	0.704
193.5268	0.3926
193.7447	0.434
193.9626	0.4162
194.1805	0.6867
194.3984	1.0565
194.6162	0.4626
194.8341	0.4755
195.0519	0.5694
195.2697	0.7312
195.4875	0.6374
195.7054	0.4694
195.9231	0.4044
196.1409	0.5181
196.3587	0.5504
196.5765	0.6163
196.7942	0.5668
197.012	0.655
197.2297	0.5684
197.4474	0.7161
197.6651	0.5675
197.8828	0.5244
198.1005	0.5935
198.3182	0.5941
198.5358	0.7245
198.7535	0.645
198.9711	0.5235
199.1888	0.5607
199.4064	0.4954
199.624	0.6984
199.8416	0.5308
200.0592	0.5875
200.2767	0.6677
200.4943	0.679
200.7119	0.835
200.9294	0.7037
201.1469	0.5466
201.3645	0.5825
201.582	0.593
201.7995	0.6124
202.017	0.585
202.2344	0.6878
202.4519	0.7285
202.6694	0.6211
202.8868	0.6143
203.1042	0.6936
203.3217	0.754
203.5391	0.6187
203.7565	0.5953
203.9739	0.6933
204.1913	0.612
204.4086	0.6073
204.626	0.6996
204.8433	0.6936
205.0607	0.6257
205.278	0.6606
205.4953	0.6589
205.7126	0.5533
205.9299	0.7361
206.1472	0.7736
206.3644	0.6255
206.5817	0.6821
206.7989	0.8471
207.0162	0.5911
207.2334	0.6902
207.4506	0.6644
207.6678	0.6288
207.885	0.6424
208.1022	0.7184
208.3194	0.6612
208.5365	0.6207
208.7537	0.6336
208.9708	0.5523
209.1879	0.6233
209.405	0.7341
209.6222	0.5884
209.8392	0.6391
210.0563	0.6523
210.2734	0.685
210.4905	0.6139
210.7075	0.6662
210.9245	0.583
211.1416	0.6762
211.3586	0.5808
211.5756	0.5742
211.7926	0.6034
212.0096	0.6113
212.2265	0.7003
212.4435	0.616
212.6604	0.5621
212.8774	0.6148
213.0943	0.5868
213.3112	0.5799
213.5281	0.4871
213.745	0.5449
213.9619	0.5022
214.1788	0.4746
214.3956	0.4817
214.6125	0.502
214.8293	0.423
215.0461	0.4618
215.2629	0.4671
215.4798	0.455
215.6965	0.4486
215.9133	0.4441
216.1301	0.4145
216.3469	0.4464
216.5636	0.4155
216.7803	0.3786
216.9971	0.4299
217.2138	0.3725
217.4305	0.3696
217.6472	0.3715
217.8639	0.3933
218.0805	0.3597
218.2972	0.3247
218.5138	0.3199
218.7305	0.3075
218.9471	0.3201
219.1637	0.2971
219.3803	0.2978
219.5969	0.2912
219.8135	0.2535
220.0301	0.2505
220.2466	0.2912
220.4632	0.2238
220.6797	0.2496
220.8962	0.2596
221.1127	0.2603
221.3292	0.2443
221.5457	0.2459
221.7622	0.2445
221.9787	0.2476
222.1951	0.2502
222.4116	0.2521
222.628	0.2238
222.8444	0.2678
223.0608	0.2553
223.2772	0.2359
223.4936	0.2755
223.71	0.2483
223.9264	0.2468
224.1427	0.2502
224.3591	0.2469
224.5754	0.2835
224.7917	0.2686
225.008	0.2757
225.2243	0.255
225.4406	0.2588
225.6569	0.2656
225.8732	0.2672
226.0894	0.2608
226.3057	0.2674
226.5219	0.2669
226.7381	0.26
226.9543	0.2843
227.1705	0.2904
227.3867	0.2648
227.6029	0.2984
227.8191	0.2975
228.0352	0.2788
228.2513	0.3117
228.4675	0.3144
228.6836	0.2887
228.8997	0.2941
229.1158	0.2984
229.3319	0.333
229.548	0.3218
229.764	0.3315
229.9801	0.3336
230.1961	0.3277
230.4121	0.3193
230.6282	0.339
230.8442	0.313
231.0602	0.3398
231.2761	0.352
231.4921	0.3426
231.7081	0.377
231.924	0.3369
232.14	0.3625
232.3559	0.3268
232.5718	0.3494
232.7877	0.352
233.0036	0.3618
233.2195	0.3607
233.4353	0.3596
233.6512	0.3488
233.867	0.3735
234.0829	0.3554
234.2987	0.3676
234.5145	0.3699
234.7303	0.3677
234.9461	0.3939
235.1619	0.4028
235.3776	0.371
235.5934	0.381
235.8091	0.3466
236.0249	0.3817
236.2406	0.4007
236.4563	0.3735
236.672	0.3943
236.8877	0.3882
237.1034	0.4164
237.319	0.387
237.5347	0.389
237.7503	0.3932
237.966	0.3969
238.1816	0.4164
238.3972	0.4117
238.6128	0.4117
238.8284	0.4068
239.0439	0.4175
239.2595	0.397
239.475	0.4135
239.6906	0.4069
239.9061	0.4039
240.1216	0.3965
240.3371	0.4087
240.5526	0.3937
240.7681	0.4045
240.9836	0.3821
241.199	0.3892
241.4145	0.3765
241.6299	0.3674
241.8453	0.3817
242.0607	0.3709
242.2761	0.3646
242.4915	0.3873
242.7069	0.3678
242.9223	0.3586
243.1376	0.3527
243.353	0.3379
243.5683	0.3542
243.7836	0.343
243.9989	0.345
244.2142	0.3222
244.4295	0.3223
244.6448	0.3144
244.86	0.3243
245.0753	0.3079
245.2905	0.2964
245.5057	0.2926
245.721	0.2863
245.9362	0.295
246.1514	0.2914
246.3665	0.2737
246.5817	0.2567
246.7969	0.2663
247.012	0.2618
247.2271	0.2535
247.4423	0.2498
247.6574	0.2668
247.8725	0.2533
248.0876	0.2294
248.3026	0.2353
248.5177	0.2382
248.7328	0.2336
248.9478	0.217
249.1628	0.2134
249.3779	0.2208
249.5929	0.2172
249.8079	0.235
250.0228	0.2049
250.2378	0.2246
250.4528	0.2136
250.6677	0.1876
250.8827	0.2029
251.0976	0.1968
251.3125	0.202
251.5274	0.1885
251.7423	0.1839
251.9572	0.1928
252.172	0.1913
252.3869	0.1931
252.6017	0.1907
252.8166	0.1932
253.0314	0.1604
253.2462	0.1823
253.461	0.187
253.6758	0.1675
253.8906	0.1897
254.1053	0.1804
254.3201	0.1802
254.5348	0.1803
254.7496	0.181
254.9643	0.1687
255.179	0.1835
255.3937	0.1673
255.6083	0.1831
255.823	0.1921
256.0377	0.1671
256.2523	0.1769
256.467	0.1571
256.6816	0.1837
256.8962	0.178
257.1108	0.1656
257.3254	0.176
257.54	0.1598
257.7545	0.1622
257.9691	0.1714
258.1836	0.1629
258.3981	0.1675
258.6127	0.1765
258.8272	0.1714
259.0417	0.169
259.2561	0.1663
259.4706	0.1763
259.6851	0.1669
259.8995	0.1733
260.114	0.1625
260.3284	0.1669
260.5428	0.1578
260.7572	0.1843
260.9716	0.1791
261.186	0.165
261.4003	0.1816
261.6147	0.1649
261.829	0.1744
262.0433	0.1596
262.2577	0.1694
262.472	0.1601
262.6863	0.1613
262.9005	0.1678
263.1148	0.1703
263.3291	0.1538
263.5433	0.1712
263.7576	0.1672
263.9718	0.1676
264.186	0.1727
264.4002	0.1738
264.6144	0.1562
264.8286	0.1892
265.0427	0.168
265.2569	0.167
265.471	0.1617
265.6851	0.1566
265.8993	0.1634
266.1134	0.1644
266.3275	0.1637
266.5415	0.1538
266.7556	0.1669
266.9697	0.1713
267.1837	0.1752
267.3978	0.1692
267.6118	0.1713
267.8258	0.1729
268.0398	0.1618
268.2538	0.1797
268.4677	0.1718
268.6817	0.1636
268.8957	0.1783
269.1096	0.1712
269.3235	0.1729
269.5374	0.1656
269.7514	0.162
269.9652	0.1593
270.1791	0.1561
270.393	0.1614
270.6068	0.1693
270.8207	0.1538
271.0345	0.1451
271.2483	0.168
271.4622	0.1627
271.676	0.1601
271.8897	0.1416
272.1035	0.1486
272.3173	0.1603
272.531	0.1559
272.7448	0.1568
272.9585	0.1473
273.1722	0.1639
273.3859	0.1625
273.5996	0.1424
273.8133	0.1575
274.0269	0.158
274.2406	0.1519
274.4542	0.1561
274.6679	0.1384
274.8815	0.1601
275.0951	0.1665
275.3087	0.1699
275.5223	0.1526
275.7358	0.1637
275.9494	0.1448
276.1629	0.1531
276.3765	0.1577
276.59	0.1654
276.8035	0.1685
277.017	0.1635
277.2305	0.1599
277.444	0.1665
277.6574	0.1501
277.8709	0.156
278.0843	0.1438
278.2978	0.1574
278.5112	0.1595
278.7246	0.1567
278.938	0.1585
279.1513	0.1607
279.3647	0.1704
279.5781	0.1503
279.7914	0.1536
280.0047	0.1676
280.2181	0.1606
280.4314	0.152
280.6447	0.1498
280.8579	0.1564
281.0712	0.1769
281.2845	0.1668
281.4977	0.1587
281.711	0.1505
281.9242	0.1694
282.1374	0.1672
282.3506	0.161
282.5638	0.1593
282.7769	0.1668
282.9901	0.1622
283.2033	0.1723
283.4164	0.1659
283.6295	0.154
283.8426	0.1572
284.0557	0.1615
284.2688	0.1709
284.4819	0.1652
284.695	0.1642
284.908	0.1744
285.1211	0.1586
285.3341	0.1617
285.5471	0.1791
285.7601	0.1614
285.9731	0.1571
286.1861	0.1547
286.3991	0.168
286.612	0.1694
286.825	0.1645
287.0379	0.1748
287.2508	0.1639
287.4637	0.168
287.6766	0.149
287.8895	0.1768
288.1024	0.1734
288.3152	0.1762
288.5281	0.1516
288.7409	0.1553
288.9538	0.1629
289.1666	0.17
289.3794	0.1665
289.5922	0.1688
289.8049	0.1708
290.0177	0.155
290.2304	0.1635
290.4432	0.1708
290.6559	0.1579
290.8686	0.1643
291.0813	0.1591
291.294	0.1665
291.5067	0.1722
291.7194	0.1682
291.932	0.1734
292.1447	0.1703
292.3573	0.1555
292.5699	0.1663
292.7825	0.1631
292.9951	0.1538
293.2077	0.1551
293.4203	0.155
293.6328	0.1587
293.8454	0.1676
294.0579	0.1539
294.2704	0.1673
294.4829	0.1507
294.6954	0.1594
294.9079	0.1578
295.1204	0.1593
295.3328	0.1612
295.5453	0.1537
295.7577	0.1603
295.9701	0.1537
296.1825	0.144
296.3949	0.1576
296.6073	0.1535
296.8197	0.1564
297.0321	0.1671
297.2444	0.1473
297.4567	0.1638
297.6691	0.1543
297.8814	0.1442
298.0937	0.1629
298.306	0.1646
298.5182	0.1518
298.7305	0.1641
298.9428	0.1486
299.155	0.164
299.3672	0.1451
299.5794	0.1557
299.7916	0.1597
300.0038	0.1548
300.216	0.1666
300.4282	0.165
300.6403	0.1519
300.8525	0.1631
301.0646	0.148
301.2767	0.1677
301.4888	0.1687
301.7009	0.161
301.913	0.1571
302.125	0.1747
302.3371	0.1509
302.5491	0.1664
302.7612	0.1759
302.9732	0.1647
303.1852	0.1652
303.3972	0.153
303.6092	0.1502
303.8211	0.1563
304.0331	0.1526
304.245	0.1456
304.457	0.1557
304.6689	0.144
304.8808	0.147
305.0927	0.1539
305.3046	0.1418
305.5164	0.1554
305.7283	0.1525
305.9401	0.1438
306.152	0.1471
306.3638	0.1477
306.5756	0.1332
306.7874	0.1383
306.9992	0.143
307.2109	0.1415
307.4227	0.1237
307.6344	0.1325
307.8462	0.1362
308.0579	0.1372
308.2696	0.1301
308.4813	0.1366
308.693	0.1321
308.9046	0.1447
309.1163	0.1337
309.328	0.1291
309.5396	0.1243
309.7512	0.1184
309.9628	0.1203
310.1744	0.124
310.386	0.1267
310.5976	0.1223
310.8091	0.1265
311.0207	0.118
311.2322	0.1233
311.4437	0.1176
311.6552	0.1213
311.8667	0.1158
312.0782	0.0993
312.2897	0.0892
312.5012	0.1211
312.7126	0.1067
312.924	0.0914
313.1355	0.1242
313.3469	0.1022
313.5583	0.1087
313.7696	0.1204
313.981	0.1071
314.1924	0.1073
314.4037	0.1133
314.6151	0.1196
314.8264	0.1043
315.0377	0.097
315.249	0.1087
315.4603	0.1135
315.6716	0.1092
315.8828	0.0987
316.0941	0.1076
316.3053	0.1028
316.5165	0.1067
316.7277	0.0939
316.9389	0.1183
317.1501	0.1056
317.3613	0.1112
317.5724	0.0963
317.7836	0.105
317.9947	0.1077
318.2058	0.1045
318.417	0.0893
318.6281	0.0985
318.8391	0.0949
319.0502	0.0989
319.2613	0.1141
319.4723	0.1087
319.6834	0.1134
319.8944	0.0945
320.1054	0.0956
320.3164	0.1154
320.5274	0.091
320.7383	0.1032
320.9493	0.1084
321.1602	0.1124
321.3712	0.0983
321.5821	0.1042
321.793	0.1078
322.0039	0.1111
322.2148	0.097
322.4257	0.1082
322.6365	0.1152
322.8474	0.1027
323.0582	0.0972
323.269	0.1077
323.4798	0.1232
323.6906	0.1079
323.9014	0.1047
324.1122	0.1106
324.3229	0.1078
324.5337	0.1208
324.7444	0.1013
324.9551	0.1216
325.1658	0.1076
325.3765	0.1125
325.5872	0.1208
325.7979	0.0985
326.0085	0.1117
326.2192	0.114
326.4298	0.1122
326.6404	0.1064
326.851	0.1086
327.0616	0.0976
327.2722	0.1111
327.4828	0.122
327.6933	0.112
327.9039	0.117
328.1144	0.1278
328.3249	0.1087
328.5354	0.1076
328.7459	0.0991
328.9564	0.107
329.1669	0.1153
329.3773	0.1106
329.5878	0.1096
329.7982	0.1039
330.0086	0.121
330.219	0.1094
330.4294	0.1107
330.6398	0.1042
330.8502	0.1142
331.0605	0.1145
331.2708	0.1196
331.4812	0.1171
331.6915	0.1062
331.9018	0.1174
332.1121	0.1106
332.3224	0.1207
332.5326	0.1121
332.7429	0.1207
332.9531	0.122
333.1633	0.1225
333.3735	0.1113
333.5837	0.1092
333.7939	0.1051
334.0041	0.1176
334.2143	0.1271
334.4244	0.1111
334.6346	0.1079
334.8447	0.1226
335.0548	0.1012
335.2649	0.1
335.475	0.113
335.685	0.1117
335.8951	0.1348
336.1051	0.1095
336.3152	0.1244
336.5252	0.1064
336.7352	0.1278
336.9452	0.1146
337.1552	0.1255
337.3652	0.1224
337.5751	0.1174
337.7851	0.1161
337.995	0.1117
338.2049	0.1224
338.4148	0.1221
338.6247	0.1281
338.8346	0.1134
339.0445	0.1051
339.2543	0.1211
339.4642	0.1225
339.674	0.1211
339.8838	0.1197
340.0936	0.1187
340.3034	0.1296
340.5132	0.1401
340.7229	0.1265
340.9327	0.1229
341.1424	0.1148
341.3522	0.1307
341.5619	0.1289
341.7716	0.1284
341.9813	0.1259
342.1909	0.1193
342.4006	0.1337
342.6102	0.1332
342.8199	0.1402
343.0295	0.1306
343.2391	0.1292
343.4487	0.1443
343.6583	0.1324
343.8679	0.1317
344.0774	0.1432
344.287	0.1295
344.4965	0.1322
344.706	0.1362
344.9155	0.1311
345.125	0.1271
345.3345	0.1402
345.544	0.1247
345.7534	0.1344
345.9629	0.1268
346.1723	0.1316
346.3817	0.1256
346.5911	0.1341
346.8005	0.1384
347.0099	0.1284
347.2193	0.1384
347.4286	0.1318
347.638	0.1418
347.8473	0.1319
348.0566	0.1427
348.2659	0.1526
348.4752	0.144
348.6845	0.1349
348.8937	0.1353
349.103	0.1433
349.3122	0.1326
349.5214	0.1367
349.7306	0.1342
349.9398	0.1367
350.149	0.1334
350.3582	0.141
350.5674	0.1572
350.7765	0.1436
350.9856	0.1434
351.1948	0.1372
351.4039	0.1406
351.613	0.1337
351.822	0.1474
352.0311	0.1611
352.2402	0.1439
352.4492	0.1479
352.6582	0.1579
352.8672	0.1494
353.0762	0.1418
353.2852	0.145
353.4942	0.1403
353.7032	0.155
353.9121	0.155
354.1211	0.1522
354.33	0.165
354.5389	0.1654
354.7478	0.1574
354.9567	0.1575
355.1655	0.1366
355.3744	0.1636
355.5833	0.1529
355.7921	0.1718
356.0009	0.1632
356.2097	0.1639
356.4185	0.1634
356.6273	0.1618
356.8361	0.169
357.0448	0.1516
357.2536	0.1606
357.4623	0.1341
357.671	0.1589
357.8797	0.1605
358.0884	0.1631
358.2971	0.1674
358.5057	0.1722
358.7144	0.1687
358.923	0.1732
359.1316	0.1693
359.3402	0.1613
359.5488	0.1771
359.7574	0.1717
359.966	0.1707
360.1746	0.1717
360.3831	0.1778
360.5916	0.1631
360.8002	0.1724
361.0087	0.1861
361.2172	0.1636
361.4256	0.1692
361.6341	0.1687
361.8426	0.1784
362.051	0.1857
362.2594	0.1663
362.4678	0.1644
362.6762	0.1985
362.8846	0.1792
363.093	0.1802
363.3014	0.1824
363.5097	0.1731
363.718	0.1948
363.9264	0.1715
364.1347	0.1798
364.343	0.1846
364.5513	0.1966
364.7595	0.1979
364.9678	0.1943
365.176	0.1966
365.3842	0.1803
365.5925	0.1866
365.8007	0.1829
366.0089	0.1962
366.217	0.1755
366.4252	0.2066
366.6333	0.199
366.8415	0.2052
367.0496	0.2001
367.2577	0.2048
367.4658	0.2073
367.6739	0.2045
367.882	0.1982
368.09	0.2004
368.2981	0.212
368.5061	0.1995
368.7141	0.1915
368.9221	0.2133
369.1301	0.2101
369.3381	0.1919
369.5461	0.2037
369.754	0.1954
369.962	0.2186
370.1699	0.2124
370.3778	0.1962
370.5857	0.205
370.7936	0.2044
371.0015	0.1997
371.2093	0.211
371.4172	0.2278
371.625	0.1838
371.8328	0.2019
372.0406	0.213
372.2484	0.1998
372.4562	0.2079
372.664	0.2114
372.8717	0.2205
373.0795	0.1912
373.2872	0.2213
373.4949	0.208
373.7026	0.222
373.9103	0.221
374.118	0.2014
374.3256	0.2133
374.5333	0.2225
374.7409	0.2117
374.9485	0.2263
375.1561	0.2313
375.3637	0.2227
375.5713	0.2318
375.7789	0.2199
375.9864	0.2094
376.194	0.2199
376.4015	0.2321
376.609	0.2232
376.8165	0.2273
377.024	0.2097
377.2315	0.2033
377.4389	0.2456
377.6464	0.2215
377.8538	0.2297
378.0612	0.2226
378.2686	0.2297
378.476	0.2481
378.6834	0.2324
378.8908	0.2405
379.0981	0.2308
379.3055	0.2367
379.5128	0.244
379.7201	0.2255
379.9274	0.2224
380.1347	0.2306
380.342	0.245
380.5492	0.1977
380.7565	0.2477
380.9637	0.2326
381.1709	0.2251
381.3781	0.2351
381.5853	0.2464
381.7925	0.2237
381.9997	0.2468
382.2068	0.238
382.4139	0.2366
382.6211	0.2231
382.8282	0.2274
383.0353	0.2366
383.2424	0.2225
383.4494	0.2527
383.6565	0.2288
383.8635	0.2372
384.0706	0.2222
384.2776	0.242
384.4846	0.2247
384.6916	0.2349
384.8986	0.2202
385.1055	0.2361
385.3125	0.2413
385.5194	0.2262
385.7263	0.2301
385.9333	0.2263
386.1402	0.2264
386.347	0.2202
386.5539	0.2275
386.7608	0.2418
386.9676	0.2182
387.1744	0.236
387.3813	0.2186
387.5881	0.2364
387.7948	0.2358
388.0016	0.2158
388.2084	0.2306
388.4151	0.2168
388.6219	0.2326
388.8286	0.2317
389.0353	0.2392
389.242	0.2283
389.4487	0.2192
389.6553	0.2221
389.862	0.2167
390.0686	0.2275
390.2753	0.2397
390.4819	0.2212
390.6885	0.2272
390.8951	0.2249
391.1016	0.2031
391.3082	0.2112
391.5147	0.2179
391.7213	0.2217
391.9278	0.2124
392.1343	0.203
392.3408	0.2269
392.5473	0.2164
392.7537	0.195
392.9602	0.2056
393.1666	0.2086
393.373	0.2058
393.5794	0.2209
393.7858	0.2181
393.9922	0.2133
394.1986	0.2061
394.4049	0.2017
394.6113	0.1915
394.8176	0.195
395.0239	0.2044
395.2302	0.1941
395.4365	0.1946
395.6428	0.1948
395.8491	0.1978
396.0553	0.1927
396.2615	0.1984
396.4678	0.1832
396.674	0.1769
396.8802	0.1954
397.0863	0.2013
397.2925	0.1824
397.4987	0.196
397.7048	0.1998
397.9109	0.1967
398.117	0.1777
398.3231	0.1988
398.5292	0.1977
398.7353	0.1984
398.9413	0.1952
399.1474	0.1908
399.3534	0.1995
399.5594	0.177
399.7654	0.1918
399.9714	0.2017
400.1774	0.202
400.3833	0.1913
400.5893	0.1883
400.7952	0.1929
401.0011	0.1966
401.207	0.1943
401.4129	0.1928
401.6188	0.1915
401.8247	0.1952
402.0305	0.1733
402.2364	0.1826
402.4422	0.1899
402.648	0.185
402.8538	0.2003
403.0596	0.1906
403.2654	0.2013
403.4711	0.1818
403.6768	0.201
403.8826	0.185
404.0883	0.2133
404.294	0.2044
404.4997	0.2061
404.7054	0.1923
404.911	0.1731
405.1167	0.1873
405.3223	0.2063
405.5279	0.1954
405.7335	0.2039
405.9391	0.2084
406.1447	0.193
406.3502	0.2032
406.5558	0.1826
406.7613	0.1914
406.9668	0.2044
407.1724	0.1847
407.3778	0.1946
407.5833	0.194
407.7888	0.1965
407.9942	0.1874
408.1997	0.1939
408.4051	0.1846
408.6105	0.1956
408.8159	0.1848
409.0213	0.1882
409.2267	0.2124
409.432	0.1726
409.6374	0.1982
409.8427	0.1949
410.048	0.1959
410.2533	0.1873
410.4586	0.2026
410.6639	0.1824
410.8691	0.182
411.0744	0.1852
411.2796	0.1885
411.4848	0.1907
411.69	0.1757
411.8952	0.2098
412.1004	0.1712
412.3056	0.1907
412.5107	0.1739
412.7158	0.182
412.921	0.1887
413.1261	0.1893
413.3312	0.1867
413.5362	0.1783
413.7413	0.1827
413.9464	0.1754
414.1514	0.1753
414.3564	0.1871
414.5614	0.1674
414.7664	0.1739
414.9714	0.1898
415.1764	0.185
415.3813	0.1902
415.5863	0.1809
415.7912	0.1856
415.9961	0.1803
416.201	0.1896
416.4059	0.1867
416.6108	0.1762
416.8156	0.1696
417.0205	0.1774
417.2253	0.1784
417.4301	0.2023
417.6349	0.1851
417.8397	0.17
418.0445	0.1947
418.2492	0.1747
418.454	0.181
418.6587	0.1873
418.8634	0.1807
419.0681	0.1546
419.2728	0.1735
419.4775	0.1497
419.6822	0.1729
419.8868	0.1546
420.0915	0.167
420.2961	0.1502
420.5007	0.1588
420.7053	0.1776
420.9099	0.1828
421.1144	0.1689
421.319	0.1612
421.5235	0.1836
421.728	0.1804
421.9325	0.1572
422.137	0.1702
422.3415	0.1642
422.546	0.182
422.7504	0.1689
422.9549	0.1766
423.1593	0.1605
423.3637	0.1835
423.5681	0.163
423.7725	0.163
423.9769	0.1493
424.1812	0.1377
424.3856	0.1616
424.5899	0.168
424.7942	0.1682
424.9985	0.1619
425.2028	0.1618
425.4071	0.1803
425.6113	0.1372
425.8156	0.1423
426.0198	0.1534
426.224	0.1466
426.4282	0.1504
426.6324	0.1498
426.8366	0.1431
427.0407	0.1372
427.2449	0.1438
427.449	0.1506
427.6531	0.1178
427.8572	0.1333
428.0613	0.1354
428.2654	0.1194
428.4694	0.1333
428.6735	0.1289
428.8775	0.1513
429.0815	0.1549
429.2855	0.1233
429.4895	0.146
429.6935	0.1386
429.8975	0.1411
430.1014	0.1241
430.3053	0.125
430.5093	0.1247
430.7132	0.1144
430.9171	0.1151
431.1209	0.1407
431.3248	0.1207
431.5286	0.1228
431.7325	0.1161
431.9363	0.1173
432.1401	0.1339
432.3439	0.1156
432.5477	0.1027
432.7514	0.1061
432.9552	0.1129
433.1589	0.1117
433.3627	0.1077
433.5664	0.0975
433.7701	0.077
433.9737	0.0804
434.1774	0.1063
434.3811	0.1115
434.5847	0.1077
434.7883	0.0907
434.9919	0.0969
435.1955	0.1104
435.3991	0.1039
435.6027	0.1057
435.8062	0.0959
436.0098	0.0888
436.2133	0.0883
436.4168	0.0936
436.6203	0.0852
436.8238	0.099
437.0272	0.0822
437.2307	0.082
437.4341	0.0908
437.6375	0.0921
437.841	0.0772
438.0443	0.0893
438.2477	0.075
438.4511	0.0611
438.6545	0.0978
438.8578	0.085
439.0611	0.0758
439.2644	0.0662
439.4677	0.0611
439.671	0.0777
439.8743	0.0693
440.0775	0.064
440.2808	0.0648
440.484	0.0635
440.6872	0.0517
440.8904	0.0503
441.0936	0.0773
441.2967	0.0717
441.4999	0.0697
441.703	0.0626
441.9062	0.0508
442.1093	0.0355
442.3124	0.064
442.5155	0.0608
442.7185	0.0618
442.9216	0.0383
443.1246	0.0631
443.3276	0.0475
443.5307	0.041
443.7337	0.0534
443.9366	0.0523
444.1396	0.0513
444.3426	0.0362
444.5455	0.059
444.7484	0.03
444.9513	0.0499
445.1542	0.0444
445.3571	0.0459
445.56	0.0406
445.7628	0.0311
445.9657	0.0214
446.1685	0.0449
446.3713	0.0432
446.5741	0.0385
446.7769	0.0376
446.9797	0.0412
447.1824	0.0497
447.3852	0.0152
447.5879	0.0395
447.7906	0.0383
447.9933	0.0284
448.196	0.0197
448.3986	0.0201
448.6013	0.0293
448.8039	0.0088
449.0066	0.0342
449.2092	0.0293
449.4118	0.0253
449.6143	0.0327
449.8169	0.0321
450.0195	0.0116
450.222	0.0009
450.4245	0.0201
450.627	0.0104
450.8295	0.0116
451.032	0.0208
451.2345	0.0277
451.4369	0.0314
451.6394	0.0127
451.8418	0.0162
452.0442	0.0226
452.2466	0.0302
452.449	0.0135
452.6513	0.015
452.8537	0.0185
453.056	0.0053
453.2583	0.0173
453.4607	0.025
453.663	0.0101
453.8652	0.013
454.0675	0.0016
454.2697	0.0145
454.472	0.0052
454.6742	0.0175
454.8764	0.0235
455.0786	0.0139
455.2808	0.0098
455.4829	0.0111
455.6851	0.0171
455.8872	0.0202
456.0893	0.0194
456.2915	-0.0003
456.4935	0.0226
456.6956	0.001
456.8977	0.0103
457.0997	0.0158
457.3018	-0.0069
457.5038	0.0015
457.7058	-0.0049
457.9078	0.0127
458.1098	0.0061
458.3117	0.011
458.5137	0.0044
458.7156	0.0049
458.9175	-0.0063
459.1194	0.0049
459.3213	0.0183
459.5232	-0.0052
459.725	-0.0101
459.9269	0.001
460.1287	-0.0163
460.3305	-0.0002
460.5323	0.0115
460.7341	0.0008
460.9359	0.0153
461.1376	0.014
461.3394	0.0005
461.5411	0.0003
461.7428	-0.0138
461.9445	0.009
462.1462	0.0075
462.3479	0.0041
462.5495	-0.0038
462.7512	0.0012
462.9528	-0.0052
463.1544	-0.0191
463.356	0.0019
463.5576	0.0055
463.7592	-0.0015
463.9607	0.0016
464.1623	0.0097
464.3638	0.0248
464.5653	-0.0019
464.7668	0.0029
464.9683	-0.0019
465.1697	0.0139
465.3712	-0.0097
465.5726	-0.0113
465.7741	-0.0033
465.9755	-0.0022
466.1769	-0.0107
466.3782	0.0033
466.5796	-0.0153
466.7809	0.0145
466.9823	-0.0227
467.1836	-0.0017
467.3849	-0.0036
467.5862	0.0059
467.7875	-0.0072
467.9887	0.0025
468.19	0.0026
468.3912	-0.0006
468.5924	0.0078
468.7936	-0.0086
468.9948	-0.012
469.196	-0
469.3972	-0.0138
469.5983	0.0029
469.7994	-0.0251
470.0006	0.0043
470.2017	-0.02
470.4027	-0.0157
470.6038	0.0034
470.8049	-0.0216
471.0059	-0.0136
471.2069	-0.0258
471.408	-0.0029
471.6089	-0.0071
471.8099	-0.0109
472.0109	0.0145
472.2119	-0.0168
472.4128	-0.0226
472.6137	0.0067
472.8146	-0.0172
473.0155	-0.0077
473.2164	-0.0024
473.4173	0.0015
473.6181	-0.0022
473.819	-0.0102
474.0198	-0.008
474.2206	-0.0057
474.4214	-0.0157
474.6222	-0.0134
474.8229	-0.0086
475.0237	-0.0138
475.2244	-0.0184
475.4251	0.0056
475.6258	0.0049
475.8265	0.0079
476.0272	-0.0151
476.2278	-0.0156
476.4285	-0.0102
476.6291	-0.0169
476.8297	-0.0154
477.0303	-0.015
477.2309	-0.0109
477.4315	-0.021
477.632	-0.0101
477.8326	-0.0114
478.0331	-0.0109
478.2336	-0.0109
478.4341	-0.0174
478.6346	-0.0075
478.8351	-0.0091
479.0355	0.0022
479.236	-0.0076
479.4364	-0.0022
479.6368	-0.0034
479.8372	-0.016
480.0376	-0.0012
480.2379	-0.024
480.4383	-0.0188
480.6386	-0.0049
480.8389	-0.0021
481.0392	-0.0011
481.2395	-0.0141
481.4398	0.0022
481.6401	-0.002
481.8403	-0.002
482.0405	-0.0065
482.2408	0.0012
482.441	-0.0006
482.6411	-0.0041
482.8413	-0.0071
483.0415	-0.0237
483.2416	-0.0088
483.4417	0.0015
483.6419	-0.0106
483.8419	-0.0132
484.042	0.0065
484.2421	-0.0018
484.4422	-0.0027
484.6422	-0.0098
484.8422	-0.0097
485.0422	-0.0067
485.2422	0.0044
485.4422	-0.0152
485.6422	-0.0049
485.8421	-0.0014
486.042	-0.0071
486.242	-0.01
486.4419	-0.0112
486.6417	-0.0146
486.8416	-0.0139
487.0415	0.0021
487.2413	-0.0072
487.4411	-0.0026
487.641	-0.0126
487.8408	0.0031
488.0405	-0.0069
488.2403	-0.0017
488.4401	-0.0088
488.6398	-0.0059
488.8395	-0.0156
489.0392	-0.0069
489.2389	0.001
489.4386	-0.0072
489.6383	0.0013
489.8379	-0.0056
490.0376	-0.0071
490.2372	-0.0209
490.4368	-0.0144
490.6364	-0.0046
490.836	-0.003
491.0355	-0.0192
491.2351	-0.0102
491.4346	-0.0108
491.6341	-0.0171
491.8336	0.0027
492.0331	-0.0148
492.2326	-0.0145
492.432	-0.0064
492.6315	-0.0047
492.8309	-0.0168
493.0303	-0.0093
493.2297	-0.013
493.4291	-0.0089
493.6284	-0.003
493.8278	-0.005
494.0271	-0.0026
494.2264	-0.0001
494.4257	-0.0109
494.625	-0.0066
494.8243	-0.0221
495.0236	-0.0174
495.2228	-0.0126
495.422	-0.0094
495.6213	-0.0078
495.8205	-0.0045
496.0196	-0.0049
496.2188	0.0038
496.418	-0.0093
496.6171	-0.0109
496.8162	-0.0165
497.0153	-0.0035
497.2144	-0.0144
497.4135	-0.0087
497.6126	-0.0165
497.8116	-0.0113
498.0107	0.0003
498.2097	-0.0151
498.4087	-0.0168
498.6077	-0.0108
498.8067	-0.0097
499.0056	-0.0055
499.2046	-0.0049
499.4035	-0.0202
499.6024	-0.0217
499.8013	-0.0058
500.0002	-0.0097
500.199	-0.0135
500.3979	-0.016
500.5967	-0.0231
500.7956	-0.0027
500.9944	-0.0135
501.1932	-0.0202
501.3919	-0.0225
501.5907	-0.028
501.7895	0.0029
501.9882	-0.0063
502.1869	-0.0129
502.3856	-0.0118
502.5843	-0.0155
502.783	-0.0092
502.9816	-0.0055
503.1803	-0.0212
503.3789	-0.0116
503.5775	-0.0103
503.7761	-0.0106
503.9747	-0.008
504.1732	-0.012
504.3718	-0.0034
504.5703	-0.0123
504.7689	-0.0143
504.9674	-0.0009
505.1658	-0.0106
505.3643	-0.0126
505.5628	-0.0041
505.7612	-0.0175
505.9597	0.0002
506.1581	-0.0206
506.3565	-0.0045
506.5549	-0.0144
506.7532	-0.0214
506.9516	-0.0152
507.1499	-0.0087
507.3482	-0.0219
507.5465	-0.0115
507.7448	0.0048
507.9431	-0.0145
508.1414	-0.0037
508.3396	-0.0202
508.5379	-0.0085
508.7361	-0.0198
508.9343	-0.0083
509.1325	-0.0001
509.3306	-0.0096
509.5288	-0.0064
509.7269	-0.0151
509.9251	-0.0141
510.1232	-0.0141
510.3213	-0.0125
510.5193	-0.0035
510.7174	-0.0122
510.9154	-0.0136
511.1135	-0.0161
511.3115	-0.0198
511.5095	0.003
511.7075	-0.0061
511.9055	-0.005
512.1034	-0.0211
512.3014	-0.0067
512.4993	0.0065
512.6972	-0.0131
512.8951	-0.0225
513.093	-0.0037
513.2908	-0.0093
513.4887	-0.0044
513.6865	-0.0175
513.8844	-0.0176
514.0822	-0.0077
514.2799	-0.0158
514.4777	-0.0142
514.6755	-0.0134
514.8732	-0.0154
515.0709	-0.0029
515.2687	-0.0055
515.4664	-0.0098
515.664	-0.017
515.8617	-0.0088
516.0594	-0.0248
516.257	-0.0108
516.4546	-0.0245
516.6522	-0.0169
516.8498	-0.0049
517.0474	0.0021
517.2449	-0.0041
517.4425	-0.0179
517.64	-0.0084
517.8375	-0.0021
518.035	-0.0059
518.2325	-0.0135
518.43	-0.0137
518.6274	-0.0118
518.8249	-0.0218
519.0223	-0.0002
519.2197	-0.0212
519.4171	-0.0063
519.6145	-0.0075
519.8118	-0
520.0092	-0.0099
520.2065	-0.0197
520.4038	-0.0107
520.6011	-0.0021
520.7984	-0.0138
520.9956	-0.0106
521.1929	-0.006
521.3901	-0.0069
521.5874	-0.0164
521.7846	-0.0062
521.9818	-0.0109
522.1789	-0.0098
522.3761	-0.0099
522.5732	-0.0102
522.7704	-0.0118
522.9675	-0.0083
523.1646	-0.0123
523.3617	-0.0025
523.5587	-0.0092
523.7558	-0.0039
523.9528	-0.0108
524.1498	-0.0043
524.3468	-0.0118
524.5438	-0.0039
524.7408	-0.01
524.9378	0.0033
525.1347	-0.0082
525.3316	0.0048
525.5285	-0.0119
525.7254	-0.0108
525.9223	-0.0123
526.1192	-0.0041
526.316	-0.0171
526.5129	0.0026
526.7097	-0.0047
526.9065	-0.008
527.1033	-0.0113
527.3	-0.0075
527.4968	-0.0171
527.6935	-0.0081
527.8903	-0.0216
528.087	-0.0061
528.2837	-0.008
528.4804	-0.0075
528.677	-0.0146
528.8737	-0.0037
529.0703	-0.0005
529.2669	-0.011
529.4635	-0.003
529.6601	-0.0101
529.8567	-0.015
530.0532	-0.0052
530.2498	0.003
530.4463	0.001
530.6428	-0.0053
530.8393	0.0033
531.0358	-0.0172
531.2322	-0.0025
531.4287	-0.0103
531.6251	-0.0079
531.8215	0.0023
532.0179	-0.003
532.2143	0.004
532.4107	-0.0061
532.607	-0.007
532.8034	0.0034
532.9997	-0.0012
533.196	-0.0013
533.3923	-0.0154
533.5886	-0.0093
533.7848	0.0041
533.9811	-0.0109
534.1773	-0.0036
534.3735	-0.0031
534.5697	-0.0124
534.7659	-0.0108
534.9621	-0.0037
535.1582	-0.0207
535.3544	-0.0033
535.5505	-0.0124
535.7466	0.0012
535.9427	-0.0056
536.1387	-0.0184
536.3348	-0.0033
536.5308	-0.0044
536.7269	-0.0166
536.9229	-0.003
537.1189	-0.01
537.3148	-0.0085
537.5108	-0.0074
537.7068	0.005
537.9027	0.0059
538.0986	-0.0026
538.2945	-0.0044
538.4904	-0.0046
538.6863	-0.0112
538.8821	-0.0014
539.078	-0.013
539.2738	0.0003
539.4696	-0.0134
539.6654	0.0034
539.8611	-0.0016
540.0569	-0.008
540.2526	-0.0122
540.4484	-0.0072
540.6441	-0.0004
540.8398	-0.0012
541.0355	-0.0024
541.2311	-0.0077
541.4268	-0.0123
541.6224	0.0005
541.818	-0.0033
542.0136	-0.0156
542.2092	-0.005
542.4048	-0.0074
542.6003	-0.0079
542.7959	-0.0047
542.9914	-0.0027
543.1869	-0.0013
543.3824	-0.0002
543.5779	-0.0115
543.7734	-0.0071
543.9688	-0.0051
544.1642	0.0013
544.3596	-0.0019
544.555	0.0031
544.7504	-0.0133
544.9458	-0.0039
545.1411	-0.0045
545.3365	0.0064
545.5318	-0.0079
545.7271	-0.0036
545.9224	-0.0039
546.1177	-0.0058
546.3129	-0.0036
546.5081	-0.0072
546.7034	-0.0054
546.8986	-0.0054
547.0938	-0.0164
547.289	-0.0073
547.4841	-0.0109
547.6793	0.0003
547.8744	-0.0099
548.0695	0.004
548.2646	-0.0061
548.4597	0.0052
548.6548	-0.0082
548.8498	-0.0009
549.0448	0.0033
549.2399	-0.01
549.4349	0.005
549.6298	-0.0015
549.8248	-0.0117
550.0198	-0.005
550.2147	-0.0059
550.4096	-0.0063
550.6045	0.0003
550.7994	-0.0005
550.9943	0.0025
551.1892	-0.0035
551.384	0.0102
551.5788	-0.009
551.7737	-0.0005
551.9685	0.0022
552.1632	-0.0006
552.358	-0.0028
552.5528	-0.0066
552.7475	-0.0079
552.9422	0.0007
553.1369	0.0005
553.3316	0.0016
553.5263	-0.0124
553.7209	0.0053
553.9156	-0.0094
554.1102	-0.0075
554.3048	-0.0043
554.4994	0.0027
554.694	0.0006
554.8885	0.0062
555.0831	-0.0075
555.2776	-0.0052
555.4721	-0.0087
555.6666	0.0003
555.8611	0.0104
556.0555	-0.0011
556.25	-0.0003
556.4444	-0.0167
556.6388	-0.0015
556.8332	-0.0064
557.0276	-0.0056
557.222	0.0008
557.4163	-0.0049
557.6107	-0.0116
557.805	0.0033
557.9993	-0.0069
558.1936	0.0007
558.3879	0.0091
558.5821	-0.0024
558.7764	-0.0033
558.9706	0.0015
559.1648	0.0093
559.359	0.0085
559.5532	-0.0029
559.7473	0.0067
559.9415	-0.0079
560.1356	0.0015
560.3297	-0.0177
560.5238	-0.0056
560.7179	-0.0032
560.9119	-0.0052
561.106	-0.0089
561.3	0.0034
561.494	-0.0027
561.688	-0.0038
561.882	-0.0147
562.076	0.0031
562.2699	0.0057
562.4639	-0.0011
562.6578	0.0042
562.8517	-0.0029
563.0456	0.0019
563.2395	0.0029
563.4333	-0.0042
563.6272	0.0037
563.821	-0.0058
564.0148	-0.0034
564.2086	0.0031
564.4024	-0.0054
564.5961	-0.004
564.7899	-0.0001
564.9836	0.0004
565.1773	0.0004
565.371	0.0056
565.5647	0.0059
565.7584	-0.0022
565.952	0.0017
566.1456	0.0036
566.3393	-0.0054
566.5329	-0.007
566.7264	-0.0015
566.92	-0.0035
567.1136	0.0085
567.3071	-0.0003
567.5006	0.0007
567.6941	0.003
567.8876	-0.0072
568.0811	-0.0052
568.2745	-0.0018
568.468	-0.0002
568.6614	0.0047
568.8548	-0.0013
569.0482	-0.005
569.2416	0.0038
569.4349	0.0001
569.6283	-0.0022
569.8216	-0.0006
570.0149	-0.01
570.2082	-0.0004
570.4015	-0.0019
570.5947	0.0018
570.788	0.0038
570.9812	0.0076
571.1744	0.0001
571.3676	-0.0119
571.5608	0.0032
571.754	-0.0016
571.9471	0.0005
572.1402	-0.0011
572.3333	-0.0008
572.5264	-0.004
572.7195	-0.0009
572.9126	-0.0024
573.1057	0.0005
573.2987	-0.0055
573.4917	0.005
573.6847	-0.0055
573.8777	0.0068
574.0707	-0
574.2636	-0.0006
574.4566	-0.0019
574.6495	-0.0032
574.8424	-0.0007
575.0353	0.0023
575.2281	0.0088
575.421	-0.0008
575.6138	0.0001
575.8067	-0.0059
575.9995	-0.0034
576.1923	0.0025
576.385	0.0009
576.5778	-0.0067
576.7706	-0.0094
576.9633	-0.0003
577.156	0.0055
577.3487	-0.0012
577.5414	-0.0018
577.734	-0.0073
577.9267	0.0029
578.1193	-0.0081
578.3119	-0.0107
578.5045	-0.0056
578.6971	-0.0042
578.8897	0.0021
579.0822	0.0015
579.2747	-0.0011
579.4673	-0.0066
579.6598	-0.0063
579.8522	-0.0044
580.0447	-0.0031
580.2372	-0.0092
580.4296	0.0004
580.622	-0.0052
580.8144	-0.0058
581.0068	-0.0051
581.1992	-0.0111
581.3915	-0.0083
581.5839	-0.0111
581.7762	-0.0103
581.9685	-0.0032
582.1608	0.0049
582.353	-0.0052
582.5453	-0.0013
582.7375	-0.0026
582.9298	-0.0006
583.122	0.0005
583.3142	0.0019
583.5063	-0.003
583.6985	-0.0065
583.8906	-0.0017
584.0827	-0.0055
584.2749	0.0001
584.4669	-0.0025
584.659	-0.0036
584.8511	-0.0028
585.0431	-0.0077
585.2352	0.0028
585.4272	-0.0064
585.6192	-0.0015
585.8111	0.0015
586.0031	-0.0082
586.195	0.0015
586.387	0.0066
586.5789	-0.0024
586.7708	0.0026
586.9627	-0.008
587.1545	-0.0045
587.3464	0.004
587.5382	0.0047
587.73	0.0069
587.9218	0.0053
588.1136	-0.0027
588.3053	0.0014
588.4971	-0.0109
588.6888	-0.002
588.8805	0.0012
589.0722	0.0035
589.2639	0.0008
589.4556	0.0018
589.6472	-0.002
589.8389	-0.0151
590.0305	-0.0098
590.2221	0.0045
590.4137	-0.0031
590.6052	0.0002
590.7968	0.0012
590.9883	0.0027
591.1798	-0.004
591.3713	0.0011
591.5628	0.0025
591.7543	0.0057
591.9458	0.003
592.1372	0.0046
592.3286	0.0094
592.52	0.0023
592.7114	0.0027
592.9028	-0.0003
593.0941	-0.0034
593.2855	-0.005
593.4768	-0.0068
593.6681	-0.0081
593.8594	-0.0037
594.0506	-0.0095
594.2419	0.0112
594.4331	-0.0004
594.6244	0.003
594.8156	-0.0078
595.0067	-0.0002
595.1979	-0.0052
595.3891	0.0006
595.5802	-0.0005
595.7713	-0.0015
595.9624	-0.006
596.1535	0.0059
596.3446	0.0061
596.5357	-0.0005
596.7267	0.0063
596.9177	0.0025
597.1087	0.0031
597.2997	-0.0038
597.4907	0.0034
597.6817	-0.0058
597.8726	-0.0049
598.0635	-0.005
598.2544	0.0021
598.4453	-0.0016
598.6362	0.0074
598.827	-0.0081
599.0179	0.0075
599.2087	0.0027
599.3995	0.007
599.5903	0.0029
599.7811	0.0052
599.9718	-0.0048
600.1626	0.0002
600.3533	-0.0062
600.544	0.0012
600.7347	0
600.9254	0.0028
601.116	-0.0034
601.3067	-0.001
601.4973	-0.0053
601.6879	0.0077
601.8785	-0.002
602.0691	-0.0004
602.2596	0.0028
602.4502	0.0103
602.6407	0.0027
602.8312	0.006
603.0217	0.0041
603.2122	0.0004
603.4027	0.0101
603.5931	0.004
603.7835	-0.0009
603.9739	-0.0012
604.1643	-0.0034
604.3547	-0.0063
604.5451	0.0067
604.7354	0.0006
604.9257	0.0012
605.116	0.0012
605.3063	0.0023
605.4966	0.0042
605.6869	0.0038
605.8771	0.0021
606.0673	0.0027
606.2575	0.0092
606.4477	0.0038
606.6379	-0.0006
606.8281	-0.0048
607.0182	-0.0002
607.2083	0.0104
607.3985	-0.0051
607.5885	0.0022
607.7786	0.0065
607.9687	-0.0004
608.1587	0.0043
608.3488	-0
608.5388	-0.0019
608.7288	-0.0038
608.9187	-0.0023
609.1087	0.0041
609.2986	-0.0005
609.4886	-0.0058
609.6785	-0.0031
609.8684	0.0004
610.0582	-0.0028
610.2481	-0.0031
610.4379	-0.0005
610.6278	-0.0026
610.8176	-0.0019
611.0074	-0.0006
611.1971	0.0006
611.3869	-0.0041
611.5766	-0.008
611.7664	0.0079
611.9561	0.006
612.1458	0.0003
612.3354	-0.0051
612.5251	-0
612.7147	0.0014
612.9044	0.0041
613.094	-0.0021
613.2836	0.0014
613.4731	-0.0031
613.6627	-0.0051
613.8522	0.0037
614.0417	0.001
614.2313	-0.0064
614.4207	0.0013
614.6102	-0.0017
614.7997	-0.003
614.9891	-0.0067
615.1785	-0.0064
615.3679	-0.0018
615.5573	0.0091
615.7467	-0.0005
615.9361	-0.0048
616.1254	-0.0079
616.3147	-0.0003
616.504	-0.0011
616.6933	-0.0003
616.8826	0.0041
617.0718	0.0062
617.2611	0.0062
617.4503	-0.0003
617.6395	-0.0039
617.8287	-0.0025
618.0179	0.0015
618.207	0.0053
618.3961	0.0032
618.5853	0.0062
618.7744	0.001
618.9634	0.0089
619.1525	0.0017
619.3416	0.0095
619.5306	0.003
619.7196	0.0041
619.9086	-0.0078
620.0976	0.0049
620.2866	-0.0027
620.4755	-0
620.6645	0.0096
620.8534	0.004
621.0423	0.0052
621.2312	0.0055
621.42	-0.0001
621.6089	-0.0075
621.7977	0.0013
621.9865	-0.008
622.1753	0.0049
622.3641	-0.0096
622.5529	-0.001
622.7416	0.0029
622.9303	-0.0047
623.1191	-0.0001
623.3078	-0.0051
623.4964	0.003
623.6851	0.0051
623.8737	-0.0042
624.0624	0.0081
624.251	-0.0013
624.4396	-0.0065
624.6282	-0.0055
624.8167	-0.0016
625.0053	0.005
625.1938	0.0068
625.3823	0.0072
625.5708	0.0039
625.7593	-0.0013
625.9477	-0.0042
626.1362	0.0011
626.3246	0.0099
626.513	0.0101
626.7014	0.0066
626.8898	0.0042
627.0781	0.0027
627.2665	-0.0003
627.4548	0.0054
627.6431	0.0085
627.8314	-0.0001
628.0197	0.0034
628.2079	0.0025
628.3962	0.0021
628.5844	0.0034
628.7726	0.0054
628.9608	0.0109
629.1489	0.0028
629.3371	0.0042
629.5252	0.0012
629.7134	0.0084
629.9015	0.0022
630.0895	-0.0022
630.2776	0.0074
630.4657	0.0009
630.6537	-0.0014
630.8417	-0.008
631.0297	-0.0014
631.2177	-0.0021
631.4057	-0.0086
631.5936	0.0039
631.7815	0.004
631.9695	0.005
632.1574	0.0113
632.3452	0.004
632.5331	0.001
632.7209	-0.0029
632.9088	0.0076
633.0966	0.0112
633.2844	-0.0101
633.4722	0.0092
633.6599	0.0098
633.8477	0.0126
634.0354	0.0053
634.2231	0.003
634.4108	0.0057
634.5985	0.0107
634.7861	-0.0033
634.9738	-0.0015
635.1614	-0.0026
635.349	0.0025
635.5366	-0.0008
635.7242	-0.0044
635.9117	0.0048
636.0993	-0.0026
636.2868	-0.0046
636.4743	0.0011
636.6618	0.0096
636.8492	0.0027
637.0367	0.0018
637.2241	-0.0022
637.4115	-0.0049
637.5989	-0.0002
637.7863	0.0024
637.9737	0.0038
638.161	0.0054
638.3484	-0.0017
638.5357	0.0122
638.723	0.0033
638.9103	-0.0008
639.0975	0.0058
639.2848	0.0046
639.472	0.0038
639.6592	0.004
639.8464	0.0119
640.0336	0.0083
640.2208	0.0025
640.4079	0.0022
640.595	0.0076
640.7821	0.0017
640.9692	0.0048
641.1563	0.0052
641.3434	0.0049
641.5304	0.0009
641.7174	0.0013
641.9044	-0.001
642.0914	0.0064
642.2784	-0.0004
642.4653	0.0105
642.6523	0.0034
642.8392	-0.0015
643.0261	0.0054
643.213	0.0095
643.3999	0.0001
643.5867	0.0004
643.7735	0.008
643.9604	-0.0034
644.1472	0.0048
644.3339	-0.0012
644.5207	0.0025
644.7075	0.0049
644.8942	0.0114
645.0809	0.0077
645.2676	0.0087
645.4543	0.0025
645.6409	0.0033
645.8276	0.0077
646.0142	0.0032
646.2008	0.0009
646.3874	0.0012
646.574	-0.0012
646.7605	-0.0022
646.9471	-0.0114
647.1336	0.0018
647.3201	0.0054
647.5066	-0.0016
647.6931	0.006
647.8795	0.0038
648.0659	0.0076
648.2524	0.0053
648.4388	-0.0003
648.6252	-0.0044
648.8115	0.0015
648.9979	-0.0009
649.1842	-0.0022
649.3705	0.0016
649.5568	0.0038
649.7431	0.0115
649.9294	0.0014
650.1156	0.0092
650.3018	-0.0042
650.488	0.0048
650.6742	-0.0005
650.8604	0.0025
651.0466	-0.0053
651.2327	-0.0019
651.4188	-0.0006
651.6049	-0.0013
651.791	0.0037
651.9771	0.0107
652.1632	0.0116
652.3492	0.0014
652.5352	0.002
652.7212	-0.0047
652.9072	0.0058
653.0932	-0.0047
653.2791	0.0013
653.465	-0.0006
653.651	0.0024
653.8369	-0.0027
654.0227	-0.0071
654.2086	0.0028
654.3944	0.0081
654.5803	0.0024
654.7661	-0.0047
654.9519	0.0018
655.1377	-0.0014
655.3234	-0.0045
655.5092	-0.0057
655.6949	-0.0056
655.8806	-0.0075
656.0663	-0.0069
656.2519	-0.0069
656.4376	-0.0077
656.6232	0.003
656.8088	-0.0008
656.9945	0.0023
657.18	0.0031
657.3656	0.0055
657.5511	0.0009
657.7367	-0.0053
657.9222	0.0065
658.1077	0.0032
658.2932	0.0104
658.4786	-0.0095
658.6641	0.0025
658.8495	-0.0002
659.0349	0.0034
659.2203	0.007
659.4057	0.0117
659.591	0.0064
659.7764	0.0025
659.9617	0.0002
660.147	0.0049
660.3323	0.0021
660.5176	0.0143
660.7028	0.0083
660.888	0.0099
661.0733	0.0027
661.2585	-0.0006
661.4436	0.0076
661.6288	-0.0027
661.8139	0.0056
661.9991	0.0106
662.1842	-0.0021
662.3693	0.0021
662.5544	0.0011
662.7394	-0.0001
662.9245	0.0019
663.1095	0.0036
663.2945	-0.0012
663.4795	-0.001
663.6644	0.0096
663.8494	-0.002
664.0343	0.0019
664.2193	-0.0059
664.4042	-0.0001
664.589	-0.0062
664.7739	-0.0046
664.9587	-0.0065
665.1436	-0.0018
665.3284	-0.0011
665.5132	0.0004
665.698	-0.0015
665.8827	0.0046
666.0675	0.0033
666.2522	-0.0052
666.4369	0.0093
666.6216	0.0088
666.8063	0.0035
666.9909	0.0016
667.1756	-0.0014
667.3602	0.0045
667.5448	0.0029
667.7294	0.0095
667.9139	0.0044
668.0985	0.0185
668.283	0.0031
668.4675	-0.0033
668.652	-0.0043
668.8365	0
669.0209	0.0005
669.2054	0.0032
669.3898	0.0093
669.5742	0.0007
669.7586	0.0115
669.943	0.0086
670.1273	0.0079
670.3117	0.0084
670.496	0.0061
670.6803	0.0089
670.8646	0.0074
671.0488	0.0035
671.2331	0.0048
671.4173	0.0102
671.6015	-0.0006
671.7857	0.0096
671.9699	0.0079
672.1541	0.0089
672.3382	0.008
672.5223	0.0096
672.7064	0.013
672.8905	0.0101
673.0746	0.0039
673.2587	0.0026
673.4427	0.0064
673.6267	0.0063
673.8107	0.0158
673.9947	0.01
674.1787	0.0018
674.3626	0.0003
674.5465	0.0086
674.7304	0.0044
674.9143	0.0068
675.0982	0.0134
675.2821	-0.0051
675.4659	0.0072
675.6497	0.0055
675.8335	0.0049
676.0173	0.0041
676.2011	0.0062
676.3849	0.0037
676.5686	0.0068
676.7523	0.0015
676.936	0.0001
677.1197	-0.0051
677.3034	-0.002
677.487	0.0088
677.6706	0.0115
677.8542	0.0094
678.0378	-0.0012
678.2214	0.0047
678.405	0.0021
678.5885	-0.0032
678.772	0.0072
678.9555	0.0013
679.139	0.0011
679.3225	0.0069
679.5059	-0.0002
679.6894	0.0059
679.8728	0.0025
680.0562	-0.0036
680.2395	0.0002
680.4229	0.0042
680.6062	0.0142
680.7896	0.0046
680.9729	-0.0052
681.1562	0.0056
681.3394	0.0073
681.5227	-0.0034
681.7059	-0.0013
681.8891	0.003
682.0723	0.0092
682.2555	0.0097
682.4387	-0.001
682.6218	-0.0005
682.805	0.0033
682.9881	0.0007
683.1712	-0.0002
683.3542	0.0055
683.5373	0.0117
683.7203	0.0039
683.9034	0.0034
684.0864	-0.0048
684.2694	0.0049
684.4523	0.0055
684.6353	0.0002
684.8182	0.003
685.0011	-0.0005
685.184	0.004
685.3669	-0.0006
685.5498	0.0059
685.7326	0.0072
685.9154	0.0007
686.0982	0.0096
686.281	0.0114
686.4638	0.0057
686.6465	0.0021
686.8293	-0.0015
687.012	0.0064
687.1947	-0.0042
687.3774	0.0072
687.56	-0.0057
687.7427	-0.0066
687.9253	-0.0084
688.1079	-0.003
688.2905	0.0058
688.4731	0.0057
688.6556	-0.0014
688.8382	0.0035
689.0207	0.0073
689.2032	-0.0034
689.3857	0.0027
689.5681	0.0021
689.7506	-0.0051
689.933	-0.0003
690.1154	0.0005
690.2978	-0.0026
690.4802	0.0061
690.6626	-0.0044
690.8449	-0.0048
691.0272	0.0047
691.2095	-0.0069
691.3918	-0.0074
691.5741	0.0068
691.7563	-0.0026
691.9386	-0.0023
692.1208	-0.0102
692.303	-0.0019
692.4852	0.0011
692.6673	0.0044
692.8495	0.0001
693.0316	0.001
693.2137	0.0008
693.3958	0.0003
693.5778	-0.006
693.7599	0.0024
693.9419	0.0025
694.1239	-0.0019
694.3059	-0.003
694.4879	0.0075
694.6699	0.0027
694.8518	0.0052
695.0337	-0.0029
695.2157	0.0017
695.3975	-0.0003
695.5794	0.0048
695.7613	-0.0001
695.9431	-0.0032
696.1249	-0.0009
696.3067	0.0086
696.4885	-0.0014
696.6703	-0.0031
696.852	0.0057
697.0337	-0.001
697.2154	-0
697.3971	0.0014
697.5788	0.0021
697.7605	-0.0021
697.9421	0.0053
698.1237	0.0013
698.3053	0.0054
698.4869	-0.0013
698.6685	-0.0039
698.85	-0.0012
699.0315	0.018
699.213	0.0012
699.3945	0.0063
699.576	0.0031
699.7575	0.0063
699.9389	0.0058
700.1203	-0.0046
700.3017	-0.0107
700.4831	-0.0081
700.6645	0.0001
700.8458	0.0043
701.0271	-0.0099
701.2084	0.0022
701.3897	-0.0073
701.571	-0.0001
701.7523	-0.0028
701.9335	-0.0017
702.1147	-0.0029
702.2959	-0.0016
702.4771	-0
702.6583	-0.0009
702.8394	-0.0034
703.0205	0.0027
703.2016	-0.0009
703.3827	0.0032
703.5638	0.0151
703.7449	0.0005
703.9259	0.0171
704.1069	-0.0036
704.2879	0.0053
704.4689	0.0022
704.6499	-0.0001
704.8308	-0.0007
705.0117	-0.0008
705.1927	0.0065
705.3735	-0.0048
705.5544	-0.0014
705.7353	0.0034
705.9161	-0.0054
706.0969	-0.0035
706.2777	-0.0003
706.4585	-0.0044
706.6393	0.0002
706.82	0.0004
707.0007	0.0031
707.1815	0.0058
707.3621	0.0099
707.5428	0.0052
707.7235	-0.0041
707.9041	0.016
708.0847	-0.004
708.2653	-0.0113
708.4459	-0.0098
708.6265	0.0001
708.807	-0.0057
708.9875	-0.0047
709.168	-0.0039
709.3485	-0.0072
709.529	0.0034
709.7095	-0.0067
709.8899	0.0035
710.0703	-0.0144
710.2507	-0.0048
710.4311	0.0005
710.6115	-0.0098
710.7918	-0.0065
710.9721	-0.0007
711.1524	-0.0059
711.3327	-0.0013
711.513	0.0005
711.6932	-0.0028
711.8735	0.0032
712.0537	0.0049
712.2339	0.0014
712.4141	-0.0151
712.5942	-0.0044
712.7744	-0.0002
712.9545	0.0005
713.1346	-0.0008
713.3147	-0.0037
713.4947	-0.0055
713.6748	0.0032
713.8548	-0.0012
714.0348	0.0049
714.2148	0.0005
714.3948	0.0166
714.5748	-0.0005
714.7547	0.0029
714.9346	0.0057
715.1145	-0.0022
715.2944	0.0009
715.4743	0.0104
715.6541	0.0074
715.834	0.0113
716.0138	0.0029
716.1936	-0.003
716.3733	0.0006
716.5531	0.0084
716.7328	-0.003
716.9126	-0.0048
717.0923	0.0035
717.2719	0.0033
717.4516	0.0085
717.6312	0.0039
717.8109	0.0001
717.9905	0.0042
718.1701	-0.0052
718.3496	-0.0018
718.5292	0.0072
718.7087	0.0051
718.8882	0.0032
719.0677	0.0043
719.2472	-0.0011
719.4267	0.0021
719.6061	0.005
719.7856	0.0101
719.965	0.0108
720.1443	0.0017
720.3237	0.0153
720.5031	0.0087
720.6824	0.0053
720.8617	0.0019
721.041	0.0091
721.2203	0.0089
721.3995	0.0085
721.5788	0.0047
721.758	0.0105
721.9372	-0.0014
722.1164	0.0016
722.2956	0.012
722.4747	0.0033
722.6538	-0.0019
722.8329	0.0164
723.012	-0.0034
723.1911	-0.0023
723.3702	-0.0047
723.5492	-0.0028
723.7282	-0.0105
723.9072	-0.0062
724.0862	-0.0079
724.2652	-0.0023
724.4441	0.0078
724.623	-0.0004
724.8019	0.0012
724.9808	0.0067
725.1597	-0.007
725.3385	0.0073
725.5174	0.0024
725.6962	0.002
725.875	-0.0028
726.0538	0.005
726.2325	0.0013
726.4112	0.0019
726.59	-0.0068
726.7687	-0.0044
726.9474	0.0058
727.126	0.0025
727.3047	-0.0128
727.4833	0.0001
727.6619	-0.0049
727.8405	-0.0081
728.0191	-0.0026
728.1976	-0.0017
728.3762	-0.0025
728.5547	-0.0012
728.7332	-0.0117
728.9116	0.002
729.0901	0.0093
729.2686	-0.0041
729.447	0.001
729.6254	0.0011
729.8038	-0.0003
729.9821	-0.014
730.1605	-0.0001
730.3388	-0.0035
730.5171	0.0037
730.6954	-0.0021
730.8737	0.0035
731.0519	0.0085
731.2302	-0.003
731.4084	0.0048
731.5866	0.0147
731.7648	-0.0015
731.9429	0.0052
732.1211	-0.0058
732.2992	-0.0028
732.4773	-0.0028
732.6554	0.0001
732.8335	0.007
733.0115	0.0079
733.1896	0.0131
733.3676	-0.0063
733.5456	0.0141
733.7235	0.0088
733.9015	-0.0015
734.0794	0.0061
734.2574	-0.004
734.4353	-0.0004
734.6131	0.0055
734.791	0.0058
734.9689	0.002
735.1467	0.0026
735.3245	-0.0104
735.5023	-0.0071
735.68	-0
735.8578	-0.0025
736.0355	-0.0111
736.2132	-0.001
736.3909	0.0014
736.5686	-0.0115
736.7463	0.004
736.9239	-0.0117
737.1015	-0.0012
737.2791	-0.0018
737.4567	-0.0056
737.6343	-0.0162
737.8118	-0.0043
737.9894	0.0015
738.1669	-0.006
738.3444	-0.0032
738.5218	0.0024
738.6993	-0.002
738.8767	-0.0052
739.0541	0.0127
739.2315	-0.0072
739.4089	0.003
739.5863	0.0058
739.7636	-0.0019
739.9409	0.005
740.1182	0.0056
740.2955	0.0119
740.4728	-0.0009
740.65	0.0019
740.8272	0.0056
741.0044	-0.0043
741.1816	0.0021
741.3588	0.0041
741.5359	-0.0024
741.7131	-0.01
741.8902	0.0024
742.0673	-0.0065
742.2444	-0.0091
742.4214	-0.0036
742.5985	-0.0052
742.7755	-0.0086
742.9525	-0.0136
743.1295	-0.0012
743.3064	0.0003
743.4834	0.0078
743.6603	0.003
743.8372	-0.0001
744.0141	0.0112
744.191	0.0042
744.3678	0.0032
744.5446	-0.0026
744.7215	0.0032
744.8982	0.0015
745.075	-0.0052
745.2518	-0.0026
745.4285	-0.0077
745.6052	-0.0004
745.7819	-0.0019
745.9586	-0.0059
746.1353	-0.0025
746.3119	-0.0077
746.4885	-0.0069
746.6651	-0.0017
746.8417	0.005
747.0183	0.0004
747.1948	-0.004
747.3714	0.0102
747.5479	-0.0018
747.7244	-0.0071
747.9008	0.0163
748.0773	0.0055
748.2537	-0.0001
748.4301	-0.0137
748.6065	0.0082
748.7829	0.0001
748.9593	-0.0069
749.1356	-0.0028
749.3119	0.0009
749.4882	-0.0066
749.6645	0.0092
749.8408	-0.0039
750.017	0.0007
750.1933	0.0058
750.3695	-0.0044
750.5457	0.0075
750.7218	-0.0052
750.898	0.0096
751.0741	-0.0045
751.2502	-0.0041
751.4263	-0.0154
751.6024	-0.0091
751.7784	-0.0048
751.9545	-0.0068
752.1305	-0.0057
752.3065	0.0015
752.4825	0.0076
752.6584	-0.0076
752.8344	-0.0052
753.0103	-0.008
753.1862	-0.0073
753.3621	0.0029
753.5379	-0.012
753.7138	-0.0032
753.8896	-0.0053
754.0654	-0.0018
754.2412	-0.0005
754.417	0.0055
754.5927	-0.016
754.7685	-0.0031
754.9442	-0.0046
755.1199	0.0033
755.2956	-0.009
755.4712	0.0026
755.6469	-0.0044
755.8225	-0.0094
755.9981	-0.0065
756.1736	-0.0016
756.3492	-0.0089
756.5248	-0.0122
756.7003	-0.0016
756.8758	0.0022
757.0513	-0.0139
757.2267	-0.0096
757.4022	-0.0024
757.5776	-0.0138
757.753	0.0036
757.9284	-0.0011
758.1038	0.0103
758.2791	0.0026
758.4545	-0.0075
758.6298	0.0052
758.8051	0.0091
758.9803	0.0077
759.1556	0.0014
759.3308	-0.0002
759.506	0.0137
759.6812	0.0029
759.8564	0.005
760.0316	0.0038
760.2067	-0.0011
760.3819	0.0053
760.557	0.0117
760.732	0.0036
760.9071	-0.0139
761.0821	0.0014
761.2572	0.0092
761.4322	-0.0086
761.6072	0.0001
761.7821	-0.0138
761.9571	0.008
762.132	-0.0019
762.3069	-0.0096
762.4818	-0.0009
762.6567	0.0005
762.8316	-0.0059
763.0064	-0.0095
763.1812	-0.0059
763.356	-0.0118
763.5308	-0.0024
763.7055	-0.009
763.8803	-0.0164
764.055	0.0002
764.2297	-0.0027
764.4044	-0.0165
764.579	-0.0127
764.7537	-0.0106
764.9283	-0.0003
765.1029	-0.0132
765.2775	-0.0096
765.4521	-0.0137
765.6266	-0.0063
765.8011	-0.0064
765.9756	-0.0042
766.1501	0.0034
766.3246	-0.0085
766.4991	0.0001
766.6735	0.0029
766.8479	-0.0151
767.0223	0.0063
767.1967	-0.0043
767.371	0.0038
767.5454	-0.0022
767.7197	-0.0037
767.894	-0.0021
768.0683	-0.0029
768.2425	-0.0044
768.4168	-0.0033
768.591	-0.0011
768.7652	-0.0163
768.9394	-0.0066
769.1135	-0.0021
769.2877	0.0062
769.4618	-0.0041
769.6359	-0.0054
769.81	-0.0015
769.984	-0.0106
770.1581	-0.0162
770.3321	-0.0072
770.5061	0.0005
770.6801	-0.0118
770.8541	-0.008
771.028	0.0026
771.202	-0.0161
771.3759	-0.0091
771.5498	-0.0003
771.7236	0.0011
771.8975	-0.0034
772.0713	0.0014
772.2451	0.0013
772.4189	0.0076
772.5927	0.0083
772.7665	-0.0011
772.9402	0.0046
773.1139	0.0127
773.2876	-0.0062
773.4613	0.0103
773.635	0.0137
773.8086	-0.0075
773.9822	-0.002
774.1558	0.0134
774.3294	-0.0181
774.503	-0.0012
774.6765	-0.0045
774.8501	0.0069
775.0236	0.0141
775.1971	0.0048
775.3705	-0.0073
775.544	0.0106
775.7174	-0.0066
775.8908	-0
776.0642	-0.0144
776.2376	-0
776.4109	-0.0104
776.5843	-0.0098
776.7576	0.0118
776.9309	0.0062
777.1041	0.0153
777.2774	0.0093
777.4506	-0.002
777.6238	-0.0022
777.797	-0.0058
777.9702	-0.0018
778.1434	0.0012
778.3165	-0.004
778.4896	-0.0062
778.6627	0.011
778.8358	0.0036
779.0089	-0.0044
779.1819	0.0047
779.3549	0.0169
779.5279	0.0172
779.7009	0.0068
779.8739	0.0058
780.0468	-0.0021
780.2197	0.0109
780.3926	0.0026
780.5655	0.0038
780.7384	-0.002
780.9112	0.0033
781.0841	-0.0074
781.2569	-0.0076
781.4297	0.0094
781.6024	0.0045
781.7752	0.0011
781.9479	-0.0031
782.1206	0.0009
782.2933	-0.0148
782.466	0.0013
782.6386	0.0083
782.8113	0.007
782.9839	0.0093
783.1565	0.0136
783.329	0.001
783.5016	0.003
783.6741	-0.0064
783.8466	-0.0027
784.0191	0.0198
784.1916	-0.0041
784.3641	0.0004
784.5365	0.0066
784.7089	-0.0099
784.8813	-0.0106
785.0537	-0.0048
785.2261	0.0034
785.3984	-0.0185
785.5707	-0.006
785.743	0.0037
785.9153	-0.007
786.0876	0.0068
786.2598	-0.0107
786.432	-0.0112
786.6042	-0.0053
786.7764	-0.013
786.9486	0.0112
787.1207	-0.0079
787.2928	-0.0055
787.4649	-0.0047
787.637	-0.01
787.8091	0.0052
787.9811	-0.0099
788.1532	-0.0087
788.3252	0.001
788.4972	-0.0146
788.6691	-0.007
788.8411	-0.0009
789.013	-0.0043
789.1849	0.0073
789.3568	-0.011
789.5287	-0.0006
789.7005	-0.0092
789.8723	-0.0096
790.0442	0.0095
790.2159	0.0086
790.3877	0.0003
790.5595	-0.0136
790.7312	-0.005
790.9029	-0.0136
791.0746	-0.0085
791.2463	-0.0032
791.4179	-0.0161
791.5896	-0.0027
791.7612	-0.0079
791.9328	0.0028
792.1044	-0.0214
792.2759	-0.0215
792.4474	-0.0155
792.619	-0.0079
792.7905	0.0086
792.9619	-0.0095
793.1334	-0.0034
793.3048	0.0047
793.4762	0.0136
793.6476	0.0115
793.819	-0.0017
793.9904	0.0035
794.1617	0.0013
794.333	0.0011
794.5043	-0.0022
794.6756	0.0026
794.8469	0.0002
795.0181	-0.0086
795.1893	-0.0206
795.3605	0.0026
795.5317	-0.0112
795.7029	-0.0108
795.874	-0.0086
796.0452	-0.0216
796.2163	-0.0059
796.3873	0.0102
796.5584	-0.0125
796.7294	-0.0021
796.9005	-0.0095
797.0715	0.0024
797.2425	-0.0157
797.4134	-0.0108
797.5844	-0.0011
797.7553	-0.0231
797.9262	-0.009
798.0971	-0.0222
798.2679	-0.014
798.4388	-0.0236
798.6096	-0.0089
798.7804	0.0114
798.9512	-0.0154
799.122	-0.0038
799.2927	0.0033
799.4635	0.0051
799.6342	-0.0094
799.8049	-0.019
799.9755	-0.0041
800.1462	-0.0012
800.3168	-0.0142
800.4874	-0.0228
800.658	-0.008
800.8286	0.0006
800.9991	0.007
801.1696	-0.0108
801.3402	-0.0013
801.5106	0.0053
801.6811	0.003
801.8516	0.0103
802.022	-0.0047
802.1924	-0.0085
802.3628	0.0096
802.5332	0.0105
802.7035	0.0081
802.8739	-0.0158
803.0442	-0.0215
803.2145	0.0119
803.3847	-0.0353
803.555	-0.0146
803.7252	-0.0391
803.8954	-0.0281
804.0656	-0.0259
804.2358	-0.0321
804.4059	0.0066
804.5761	-0.0281
804.7462	-0.021
804.9163	-0.0194
805.0864	-0.0294
805.2564	-0.0276
805.4264	-0.0048
805.5965	-0.0197
805.7665	-0.0068
805.9364	0.0045
806.1064	0.028
806.2763	-0.0116
806.4462	0.0074
806.6161	-0.0102
806.786	0.0057
806.9559	-0.0009
807.1257	0.0047
807.2955	0.0034
807.4653	-0.0059
807.6351	-0.022
807.8048	-0.0159
807.9746	-0.007
808.1443	-0.0195
808.314	-0.0363
808.4837	-0.0144
808.6533	-0.0147
808.8229	0.0007
808.9926	-0.0175
809.1622	-0.0057
809.3317	-0.0314
809.5013	-0.0181
809.6708	-0.0027
809.8403	-0.0037
810.0098	-0.028
810.1793	-0.0005
810.3488	-0.0387
810.5182	-0.0343
810.6876	-0.0124
810.857	-0.0221
811.0264	0.0035
811.1958	-0.0059
811.3651	0.0111
811.5344	-0.0189
811.7037	-0.0152
811.873	-0.0355
812.0422	-0.0175
812.2115	-0.0259
812.3807	-0.0247
812.5499	0.0005
812.7191	-0.0051
812.8882	-0.0237
813.0574	-0.0226
813.2265	-0.0194
813.3956	-0.0112
813.5646	-0.012
813.7337	0.002
813.9027	0.0154
814.0718	0.0117
814.2407	0.0212
814.4097	-0.0019
814.5787	-0.0252
814.7476	-0.0142
814.9165	-0.0153
815.0854	-0.0292
815.2543	0.02
815.4232	-0.0003
815.592	0.0195
815.7608	-0.0041
815.9296	-0.0026
816.0984	-0.0038
816.2671	-0.0322
816.4359	0.0119
816.6046	0.0006
816.7733	0.0046
816.942	-0.0194
817.1106	-0.0074
817.2793	-0.0108
817.4479	-0.0027
817.6165	0.0084
817.785	-0.0227
817.9536	-0.0151
818.1221	-0.0176
818.2906	-0.0258
818.4591	-0.0119
818.6276	-0.0237
818.7961	0.0026
818.9645	-0.0188
819.1329	-0.0189
819.3013	0.0024
819.4697	-0.0035
819.638	-0.0204
819.8064	-0.002
819.9747	-0.0028
820.143	-0.0117
820.3113	-0.0178
820.4795	-0.0141
820.6477	-0.0277
820.816	-0.0144
820.9842	0.0062
821.1523	-0.018
821.3205	-0.0018
821.4886	-0.0093
821.6567	-0.0247
821.8248	0.0035
821.9929	-0.0102
822.1609	0.0157
822.329	0.0018
822.497	0
822.665	-0.0238
822.833	0.0051
823.0009	0.0168
823.1688	0.0137
823.3367	0.0172
823.5046	0.0293
823.6725	0.0328
823.8404	-0.0159
824.0082	0.0075
824.176	0.0226
824.3438	0.0133
824.5116	0.0219
824.6793	0.0382
824.847	-0.0021
825.0147	0.0086
825.1824	-0.0114
825.3501	0.0273
825.5177	-0.014
825.6854	-0.0206
825.853	0.0183
826.0206	-0.0083
826.1881	-0.0047
826.3557	-0.0345
826.5232	0.0155
826.6907	-0.0189
826.8582	-0.0085
827.0257	-0.0294
827.1931	0.0087
827.3605	-0.0058
827.528	-0.0218
827.6953	-0.0305
827.8627	-0.0014
828.03	-0.0078
828.1974	-0.017
828.3647	-0.0192
828.532	-0.0337
828.6992	-0.0503
828.8665	-0.0304
829.0337	-0.0298
829.2009	0.0127
829.3681	-0.0315
829.5352	-0.0023
829.7024	-0.0326
829.8695	-0.0213
830.0366	0.0386
830.2037	-0.0061
830.3707	-0.0198
830.5378	-0.0456
830.7048	-0.0107
830.8718	-0.0289
831.0388	-0.0389
831.2057	0.0005
831.3727	0.0279
831.5396	-0.0151
831.7065	-0.0332
831.8734	-0.0032
832.0402	-0.0387
832.2071	0.0062
832.3739	-0.039
832.5407	-0.0261
832.7075	-0.0044
832.8742	-0.0215
833.041	-0.0425
833.2077	-0.0173
833.3744	0.0138
833.541	-0.006
833.7077	-0.0348
833.8743	-0.034
834.0409	-0.0091
834.2075	0.0032
834.3741	-0.0127
834.5407	0.0058
834.7072	-0.033
834.8737	-0.0245
835.0402	-0.0398
835.2067	0.0172
835.3731	-0.0343
835.5395	-0.0057
835.706	0.0185
835.8723	-0.0224
836.0387	0.0075
836.2051	-0.0295
836.3714	-0.0207
836.5377	0.0233
836.704	-0.0605
836.8703	-0.0516
837.0365	-0.051
837.2027	-0.0236
837.3689	-0.0091
837.5351	-0.0401
837.7013	-0.0436
837.8674	-0.0449
838.0335	-0.0708
838.1997	-0.0104
838.3657	-0.0545
838.5318	-0.0534
838.6978	-0.01
838.8639	0.0045
839.0299	-0.0111
839.1958	-0.0123
839.3618	-0.0201
839.5277	-0.0385
839.6937	0.0229
839.8596	-0.0272
840.0254	-0.0365
840.1913	-0.0186
840.3571	0.0088
840.523	-0.0706
840.6888	-0.0377
840.8545	-0.0822
841.0203	0.0071
841.186	0.0166
841.3517	-0.0009
841.5174	-0.0549
841.6831	-0.0573
841.8488	-0.0193
842.0144	-0.0045
842.18	-0.0446
842.3456	0.0057
842.5112	-0.0379
842.6767	-0.0465
842.8422	-0.0359
843.0077	-0.0092
843.1732	0.0154
843.3387	-0.0045
843.5042	-0.0884
843.6696	-0.037
843.835	-0.0706
844.0004	0.0138
844.1657	-0.0119
844.3311	-0.0536
844.4964	-0.0645
844.6617	-0.0238
844.827	-0.027
844.9923	-0.0045
845.1575	-0.0071
845.3227	-0.0012
845.4879	-0.0304
845.6531	-0.0816
845.8183	-0.0826
845.9834	-0.0135
846.1485	-0.0711
846.3136	0.0077
846.4787	-0.0996
846.6438	0.0309
846.8088	-0.0694
846.9738	-0.1052
847.1388	-0.0555
847.3038	-0.0947
847.4687	-0.2323
847.6337	-0.0264
847.7986	0.0013
847.9635	-0.0473
848.1284	0.0253
848.2932	0.0371
848.458	-0.0618
848.6228	0.017
848.7876	0.1025
848.9524	-0.1197
849.1172	-0.1038
849.2819	-0.0574
849.4466	-0.1017
849.6113	-0.1139
849.7759	0.0398
849.9406	-0.0393
850.1052	0.0104
850.2698	-0.024
850.4344	-0.0285
850.599	-0.107
850.7635	0.0111
850.928	-0.0675
851.0925	-0.0095
851.257	-0.0341
851.4215	-0.003
851.5859	-0.0593
851.7503	-0.0061
851.9147	-0.0049
852.0791	-0.0141
852.2434	-0.1055
852.4078	-0.0365
852.5721	-0.0064
852.7364	-0.0678
852.9007	-0.1607
853.0649	-0.0192
853.2291	-0.0816
853.3934	0.0046
853.5575	-0.005
853.7217	-0.0136
853.8859	-0.1418
854.05	-0.0817
854.2141	0.0495
854.3782	-0.0167
854.5423	-0.0868
854.7063	0.0726
854.8703	0.0497
855.0343	0.0679
855.1983	-0.1759
855.3623	0.1099
855.5262	-0.0214
855.6901	-0.0759
855.854	-0.0202
856.0179	-0.0442
856.1818	0.046
856.3456	-0.0326
856.5094	-0.1293
856.6732	-0.0768
856.837	-0.0579
857.0008	-0.0193
857.1645	-0.1141
857.3282	-0.2323
857.4919	0.1248
857.6556	-0.0121
857.8192	-0.0437
857.9828	-0.0681
858.1465	0.1585
858.31	-0.2109
858.4736	-0.1247
858.6372	-0.1731
858.8007	-0.2498
858.9642	-0.094
859.1277	0.1612
859.2911	-0.1602
859.4546	0.0295
859.618	-0.335
859.7814	0.1061
859.9448	-0.053
860.1081	-0.1194
860.2715	0.1485
860.4348	-0.052
860.5981	-0.1432
860.7614	0.1094
860.9246	-0.2512
861.0879	-0.1162
861.2511	-0.0268
861.4143	-0.179
861.5774	0.1758
861.7406	-0.1733
861.9037	-0.1555
862.0668	-0.0443
862.2299	-0.1406
862.393	-0.4217
862.556	-0.1285
862.7191	-0.2697
862.8821	-0.3932
863.0451	0.1729
863.208	0.017
863.371	-0.1529
863.5339	-0.2767
863.6968	0.081
863.8597	-0.239
864.0225	-0.0556
864.1854	-0.1695
864.3482	-0.0346
864.511	0.061
864.6737	-0.0779
864.8365	-0.1339
864.9992	-0.6853
865.1619	-0.6052
865.3246	-0.0279
865.4873	0.0254
865.65	-0.1648
865.8126	-0.1343
865.9752	0.0704
866.1378	-0.106
866.3004	-0.0765
866.4629	0.1998
866.6254	-0.3197
866.7879	-0.1099
866.9504	-0.5374
867.1129	-0
867.2753	0.1108
867.4377	0.129
867.6001	-0.4477
867.7625	0.0679
867.9249	-0.6216
868.0872	-0.0333
868.2495	-0.1552
868.4118	-0.1432
868.5741	-0.7484
868.7363	-0.3216
868.8986	-0.4051
869.0608	-0.3044
869.223	-0.0195
869.3851	0.4023
869.5473	-0
869.7094	0.2179
869.8715	-0.0343
870.0336	-0
870.1957	-0.918
870.3577	-0
870.5197	0.2827
870.6817	-0.02
870.8437	-0.1458
871.0057	0.0817
871.1676	-0
871.3295	-0.2481
871.4914	-0
871.6533	-0.4096
871.8151	-0.6054
871.977	-0
872.1388	-0
872.3006	-0
872.4623	-0
872.6241	0.5004
872.7858	0.5452
872.9475	-0.0254
873.1092	-0.24
873.2709	0.3705
873.4325	-0.2474
873.5941	-0.4595
873.7557	-0
873.9173	-0
874.0789	0.4281
874.2404	-0.3794
874.4019	0.582
874.5634	-0.2001
874.7249	-0.2194
874.8863	-0.1075
875.0478	0.0112
875.2092	-0
875.3706	0
875.5319	-0.9958
875.6933	0.3238
875.8546	-0.3526
876.0159	-0
876.1772	0.0477
876.3385	-0
876.4997	0.294
876.6609	-0.4674
876.8221	-0
876.9833	-0
877.1445	-0
877.3056	0.4811
877.4667	0
877.6278	-0
877.7889	-0.6307
877.9499	-0
878.111	-0
878.272	-1.1139
878.433	-0
878.5939	1.0367
878.7549	-0.0868
878.9158	-0.7517
879.0767	-0
879.2376	-0
879.3984	-0
879.5593	-0
879.7201	-0
879.8809	-0.1737
880.0417	-0.4642
880.2024	-0.1366
880.3632	-0
880.5239	0.1482
880.6846	0.3527
880.8452	-2.3243
881.0059	-1.3766
881.1665	-0
881.3271	-0
881.4877	-0.628
881.6483	-0.1631
881.8088	-0.3387
881.9693	-0
882.1298	-0
882.2903	-0
