Data from MonoPyChalIsomerACN10uM420nmA_Absorbance_15-09-58-434.txt Node
Date: Fri Jul 05 15:09:58 BST 2024
User: LASERRRRR
Spectrometer: FLMT03099
Trigger mode: 0
Integration Time (sec): 1.000000E-1
Scans to average: 1
Electric dark correction enabled: true
Nonlinearity correction enabled: false
Boxcar width: 0
XAxis mode: Wavelengths
Number of Pixels in Spectrum: 3648
>>>>>Begin Spectral Data<<<<<
179.3399	0.5323
179.5586	0.5323
179.7771	0.5323
179.9957	-0.0383
180.2143	0.0085
180.4329	-0.0211
180.6514	-0
180.8699	-0
181.0885	-0.2118
181.307	-0.0953
181.5255	-0.2331
181.744	-0.59
181.9625	-0
182.181	-0
182.3994	0.3088
182.6179	-0
182.8363	-0
183.0547	-0.4564
183.2732	-0.0466
183.4916	0.0309
183.71	0.0356
183.9284	0.2813
184.1467	-0.1311
184.3651	-0.0672
184.5835	-0.1048
184.8018	0.3326
185.0201	0.4134
185.2385	-0.0448
185.4568	0.3474
185.6751	-0.1214
185.8934	0.1689
186.1117	-0.0915
186.3299	0.0532
186.5482	0.0313
186.7664	-0.0243
186.9847	-0.0276
187.2029	0.0736
187.4211	0.1486
187.6393	0.2975
187.8575	-0.1107
188.0757	0.23
188.2939	0.0385
188.512	0.1381
188.7302	-0.0562
188.9483	-0.098
189.1665	0.1177
189.3846	-0.2021
189.6027	0.0948
189.8208	0.2415
190.0389	0.3385
190.257	0.1718
190.475	0.2553
190.6931	0.2989
190.9111	0.2934
191.1292	0.1406
191.3472	0.3366
191.5652	0.2234
191.7832	0.3436
192.0012	0.3691
192.2192	0.491
192.4371	0.5661
192.6551	0.169
192.873	0.5702
193.091	0.596
193.3089	0.4664
193.5268	0.4921
193.7447	0.3975
193.9626	0.5811
194.1805	0.658
194.3984	0.8938
194.6162	0.9174
194.8341	0.5123
195.0519	0.5142
195.2697	0.7881
195.4875	0.6209
195.7054	0.5545
195.9231	0.6129
196.1409	0.5791
196.3587	0.6204
196.5765	0.5218
196.7942	0.504
197.012	0.6338
197.2297	0.7286
197.4474	0.8165
197.6651	0.5838
197.8828	0.6639
198.1005	0.5003
198.3182	0.5676
198.5358	0.8401
198.7535	0.7529
198.9711	0.5943
199.1888	0.678
199.4064	0.6648
199.624	0.6777
199.8416	0.5302
200.0592	0.7236
200.2767	0.7739
200.4943	0.7977
200.7119	0.6901
200.9294	0.7734
201.1469	0.5593
201.3645	0.6165
201.582	0.59
201.7995	0.6753
202.017	0.6585
202.2344	0.5618
202.4519	0.6329
202.6694	0.6131
202.8868	0.6342
203.1042	0.6509
203.3217	0.8538
203.5391	0.7575
203.7565	0.6587
203.9739	0.5974
204.1913	0.5446
204.4086	0.7086
204.626	0.7642
204.8433	0.6088
205.0607	0.6095
205.278	0.6033
205.4953	0.6717
205.7126	0.7096
205.9299	0.8939
206.1472	0.7464
206.3644	0.684
206.5817	0.7266
206.7989	0.7469
207.0162	0.6321
207.2334	0.6857
207.4506	0.6467
207.6678	0.7284
207.885	0.7027
208.1022	0.7381
208.3194	0.705
208.5365	0.6511
208.7537	0.7072
208.9708	0.6296
209.1879	0.7133
209.405	0.6964
209.6222	0.6752
209.8392	0.6638
210.0563	0.6094
210.2734	0.6946
210.4905	0.6682
210.7075	0.6578
210.9245	0.5992
211.1416	0.6821
211.3586	0.6304
211.5756	0.5976
211.7926	0.6636
212.0096	0.5803
212.2265	0.591
212.4435	0.5452
212.6604	0.6152
212.8774	0.6016
213.0943	0.6207
213.3112	0.5344
213.5281	0.5132
213.745	0.5093
213.9619	0.5241
214.1788	0.5141
214.3956	0.4914
214.6125	0.4739
214.8293	0.4382
215.0461	0.4866
215.2629	0.4576
215.4798	0.4618
215.6965	0.428
215.9133	0.4615
216.1301	0.4188
216.3469	0.4549
216.5636	0.401
216.7803	0.3844
216.9971	0.4087
217.2138	0.3729
217.4305	0.4103
217.6472	0.3667
217.8639	0.3871
218.0805	0.347
218.2972	0.3182
218.5138	0.3257
218.7305	0.3174
218.9471	0.32
219.1637	0.2766
219.3803	0.2788
219.5969	0.3007
219.8135	0.2688
220.0301	0.2818
220.2466	0.2947
220.4632	0.2528
220.6797	0.2513
220.8962	0.2402
221.1127	0.2516
221.3292	0.2408
221.5457	0.2404
221.7622	0.2236
221.9787	0.2475
222.1951	0.2422
222.4116	0.2571
222.628	0.2459
222.8444	0.2489
223.0608	0.254
223.2772	0.2463
223.4936	0.2584
223.71	0.2547
223.9264	0.2622
224.1427	0.2406
224.3591	0.2405
224.5754	0.2614
224.7917	0.2561
225.008	0.2601
225.2243	0.2629
225.4406	0.2831
225.6569	0.2621
225.8732	0.2478
226.0894	0.274
226.3057	0.2351
226.5219	0.293
226.7381	0.2477
226.9543	0.2781
227.1705	0.2987
227.3867	0.2897
227.6029	0.2918
227.8191	0.3118
228.0352	0.2882
228.2513	0.321
228.4675	0.306
228.6836	0.2918
228.8997	0.2807
229.1158	0.312
229.3319	0.3142
229.548	0.2996
229.764	0.3258
229.9801	0.3146
230.1961	0.3149
230.4121	0.3271
230.6282	0.3358
230.8442	0.3113
231.0602	0.3559
231.2761	0.3522
231.4921	0.3392
231.7081	0.3489
231.924	0.3586
232.14	0.3809
232.3559	0.3354
232.5718	0.3551
232.7877	0.376
233.0036	0.3673
233.2195	0.3645
233.4353	0.3562
233.6512	0.3606
233.867	0.3561
234.0829	0.3807
234.2987	0.3493
234.5145	0.3747
234.7303	0.3755
234.9461	0.3938
235.1619	0.3739
235.3776	0.3655
235.5934	0.3779
235.8091	0.3726
236.0249	0.352
236.2406	0.386
236.4563	0.3869
236.672	0.3851
236.8877	0.3874
237.1034	0.3925
237.319	0.3812
237.5347	0.4045
237.7503	0.3907
237.966	0.4037
238.1816	0.3862
238.3972	0.4098
238.6128	0.3847
238.8284	0.4043
239.0439	0.4174
239.2595	0.4129
239.475	0.3985
239.6906	0.4108
239.9061	0.4097
240.1216	0.4111
240.3371	0.4097
240.5526	0.3955
240.7681	0.4103
240.9836	0.3917
241.199	0.411
241.4145	0.3843
241.6299	0.3927
241.8453	0.3823
242.0607	0.3937
242.2761	0.3842
242.4915	0.4028
242.7069	0.3788
242.9223	0.3936
243.1376	0.3729
243.353	0.3824
243.5683	0.3728
243.7836	0.367
243.9989	0.3624
244.2142	0.3465
244.4295	0.349
244.6448	0.3488
244.86	0.3319
245.0753	0.326
245.2905	0.3076
245.5057	0.3127
245.721	0.3091
245.9362	0.3071
246.1514	0.31
246.3665	0.2954
246.5817	0.2841
246.7969	0.2704
247.012	0.2834
247.2271	0.2582
247.4423	0.2621
247.6574	0.2621
247.8725	0.2697
248.0876	0.2468
248.3026	0.2439
248.5177	0.2484
248.7328	0.2388
248.9478	0.236
249.1628	0.2256
249.3779	0.2392
249.5929	0.2205
249.8079	0.2333
250.0228	0.2325
250.2378	0.2234
250.4528	0.2162
250.6677	0.202
250.8827	0.2115
251.0976	0.2094
251.3125	0.2159
251.5274	0.1901
251.7423	0.2073
251.9572	0.1945
252.172	0.2026
252.3869	0.2024
252.6017	0.1771
252.8166	0.181
253.0314	0.1893
253.2462	0.1848
253.461	0.1928
253.6758	0.1878
253.8906	0.1888
254.1053	0.1725
254.3201	0.1804
254.5348	0.1814
254.7496	0.1771
254.9643	0.1785
255.179	0.1821
255.3937	0.1781
255.6083	0.1782
255.823	0.1751
256.0377	0.1747
256.2523	0.1722
256.467	0.1585
256.6816	0.187
256.8962	0.1735
257.1108	0.1706
257.3254	0.1848
257.54	0.182
257.7545	0.1719
257.9691	0.1806
258.1836	0.1618
258.3981	0.1746
258.6127	0.1856
258.8272	0.167
259.0417	0.1763
259.2561	0.1636
259.4706	0.1681
259.6851	0.1753
259.8995	0.1872
260.114	0.1704
260.3284	0.1766
260.5428	0.1638
260.7572	0.1697
260.9716	0.1967
261.186	0.1667
261.4003	0.166
261.6147	0.1865
261.829	0.1764
262.0433	0.1711
262.2577	0.18
262.472	0.1771
262.6863	0.1729
262.9005	0.171
263.1148	0.1773
263.3291	0.1558
263.5433	0.1692
263.7576	0.1784
263.9718	0.1842
264.186	0.1646
264.4002	0.1711
264.6144	0.1641
264.8286	0.1919
265.0427	0.1696
265.2569	0.1661
265.471	0.1689
265.6851	0.1739
265.8993	0.1753
266.1134	0.1777
266.3275	0.1745
266.5415	0.1714
266.7556	0.1896
266.9697	0.1753
267.1837	0.1773
267.3978	0.1746
267.6118	0.189
267.8258	0.1854
268.0398	0.1658
268.2538	0.1797
268.4677	0.1874
268.6817	0.1802
268.8957	0.1804
269.1096	0.1747
269.3235	0.1844
269.5374	0.1704
269.7514	0.1722
269.9652	0.1736
270.1791	0.1741
270.393	0.1738
270.6068	0.1696
270.8207	0.1733
271.0345	0.1782
271.2483	0.1798
271.4622	0.1646
271.676	0.1831
271.8897	0.1697
272.1035	0.1716
272.3173	0.1708
272.531	0.1748
272.7448	0.1802
272.9585	0.1695
273.1722	0.1752
273.3859	0.1787
273.5996	0.1669
273.8133	0.1805
274.0269	0.1699
274.2406	0.1641
274.4542	0.1701
274.6679	0.1643
274.8815	0.1729
275.0951	0.1719
275.3087	0.1832
275.5223	0.1795
275.7358	0.1746
275.9494	0.1832
276.1629	0.1763
276.3765	0.1849
276.59	0.1732
276.8035	0.1782
277.017	0.1721
277.2305	0.1614
277.444	0.1809
277.6574	0.1718
277.8709	0.1775
278.0843	0.1671
278.2978	0.1896
278.5112	0.1759
278.7246	0.1816
278.938	0.1866
279.1513	0.1909
279.3647	0.1853
279.5781	0.1813
279.7914	0.1767
280.0047	0.1889
280.2181	0.1718
280.4314	0.1748
280.6447	0.19
280.8579	0.1722
281.0712	0.183
281.2845	0.1815
281.4977	0.1871
281.711	0.1607
281.9242	0.1814
282.1374	0.1943
282.3506	0.1701
282.5638	0.1814
282.7769	0.183
282.9901	0.1709
283.2033	0.1841
283.4164	0.1908
283.6295	0.1673
283.8426	0.1729
284.0557	0.1754
284.2688	0.1799
284.4819	0.1739
284.695	0.1718
284.908	0.1849
285.1211	0.1643
285.3341	0.1766
285.5471	0.177
285.7601	0.1654
285.9731	0.161
286.1861	0.1659
286.3991	0.1733
286.612	0.1709
286.825	0.1693
287.0379	0.1752
287.2508	0.1659
287.4637	0.1636
287.6766	0.1559
287.8895	0.1705
288.1024	0.1794
288.3152	0.1637
288.5281	0.1477
288.7409	0.1625
288.9538	0.1563
289.1666	0.155
289.3794	0.1614
289.5922	0.1487
289.8049	0.163
290.0177	0.1553
290.2304	0.147
290.4432	0.1611
290.6559	0.1536
290.8686	0.1669
291.0813	0.1601
291.294	0.1525
291.5067	0.1703
291.7194	0.1475
291.932	0.1678
292.1447	0.1507
292.3573	0.1335
292.5699	0.157
292.7825	0.1609
292.9951	0.153
293.2077	0.1462
293.4203	0.1534
293.6328	0.1448
293.8454	0.1493
294.0579	0.1415
294.2704	0.1362
294.4829	0.1414
294.6954	0.1435
294.9079	0.1508
295.1204	0.1489
295.3328	0.1431
295.5453	0.1389
295.7577	0.1413
295.9701	0.1299
296.1825	0.1552
296.3949	0.1496
296.6073	0.1382
296.8197	0.1369
297.0321	0.1503
297.2444	0.133
297.4567	0.1549
297.6691	0.1469
297.8814	0.1393
298.0937	0.1503
298.306	0.1531
298.5182	0.1532
298.7305	0.1458
298.9428	0.1327
299.155	0.1465
299.3672	0.1389
299.5794	0.1354
299.7916	0.1396
300.0038	0.1433
300.216	0.1459
300.4282	0.1423
300.6403	0.1437
300.8525	0.134
301.0646	0.1323
301.2767	0.1391
301.4888	0.1506
301.7009	0.1388
301.913	0.1509
302.125	0.1558
302.3371	0.1392
302.5491	0.144
302.7612	0.153
302.9732	0.1452
303.1852	0.1439
303.3972	0.1524
303.6092	0.1437
303.8211	0.1375
304.0331	0.1368
304.245	0.1312
304.457	0.1353
304.6689	0.1351
304.8808	0.1518
305.0927	0.1365
305.3046	0.1368
305.5164	0.1415
305.7283	0.1343
305.9401	0.1406
306.152	0.1362
306.3638	0.1396
306.5756	0.134
306.7874	0.1376
306.9992	0.1349
307.2109	0.1357
307.4227	0.1153
307.6344	0.1303
307.8462	0.1308
308.0579	0.1337
308.2696	0.1236
308.4813	0.1326
308.693	0.1267
308.9046	0.1335
309.1163	0.1265
309.328	0.1243
309.5396	0.1255
309.7512	0.1254
309.9628	0.1241
310.1744	0.1191
310.386	0.1239
310.5976	0.1253
310.8091	0.1256
311.0207	0.1224
311.2322	0.1243
311.4437	0.1176
311.6552	0.1119
311.8667	0.1244
312.0782	0.1034
312.2897	0.1123
312.5012	0.1051
312.7126	0.1148
312.924	0.1039
313.1355	0.125
313.3469	0.1278
313.5583	0.12
313.7696	0.1224
313.981	0.1234
314.1924	0.1195
314.4037	0.1217
314.6151	0.1318
314.8264	0.1104
315.0377	0.1195
315.249	0.1105
315.4603	0.1349
315.6716	0.1162
315.8828	0.1068
316.0941	0.1132
316.3053	0.1113
316.5165	0.1133
316.7277	0.1157
316.9389	0.1296
317.1501	0.1133
317.3613	0.1148
317.5724	0.1009
317.7836	0.1111
317.9947	0.1086
318.2058	0.1121
318.417	0.1079
318.6281	0.1057
318.8391	0.109
319.0502	0.1145
319.2613	0.1194
319.4723	0.113
319.6834	0.1165
319.8944	0.1118
320.1054	0.1135
320.3164	0.135
320.5274	0.1175
320.7383	0.1188
320.9493	0.1268
321.1602	0.13
321.3712	0.1031
321.5821	0.1276
321.793	0.1314
322.0039	0.1215
322.2148	0.1168
322.4257	0.1188
322.6365	0.1353
322.8474	0.1268
323.0582	0.1194
323.269	0.1359
323.4798	0.1273
323.6906	0.1313
323.9014	0.117
324.1122	0.117
324.3229	0.1182
324.5337	0.1221
324.7444	0.1128
324.9551	0.1364
325.1658	0.1204
325.3765	0.1335
325.5872	0.1292
325.7979	0.1203
326.0085	0.1249
326.2192	0.1153
326.4298	0.1305
326.6404	0.1242
326.851	0.1086
327.0616	0.1172
327.2722	0.128
327.4828	0.1296
327.6933	0.1216
327.9039	0.1306
328.1144	0.1357
328.3249	0.133
328.5354	0.1124
328.7459	0.1281
328.9564	0.1256
329.1669	0.131
329.3773	0.1355
329.5878	0.1262
329.7982	0.1334
330.0086	0.1326
330.219	0.1322
330.4294	0.1235
330.6398	0.1267
330.8502	0.1247
331.0605	0.1123
331.2708	0.1336
331.4812	0.1366
331.6915	0.1406
331.9018	0.1355
332.1121	0.1249
332.3224	0.1345
332.5326	0.1384
332.7429	0.1283
332.9531	0.1559
333.1633	0.1401
333.3735	0.1387
333.5837	0.1232
333.7939	0.1253
334.0041	0.1341
334.2143	0.1345
334.4244	0.1373
334.6346	0.1124
334.8447	0.141
335.0548	0.1257
335.2649	0.1206
335.475	0.1414
335.685	0.1236
335.8951	0.1331
336.1051	0.1342
336.3152	0.1332
336.5252	0.1316
336.7352	0.1399
336.9452	0.1301
337.1552	0.1329
337.3652	0.1262
337.5751	0.1285
337.7851	0.1226
337.995	0.1249
338.2049	0.1402
338.4148	0.1364
338.6247	0.133
338.8346	0.1289
339.0445	0.1329
339.2543	0.1393
339.4642	0.1357
339.674	0.1361
339.8838	0.133
340.0936	0.134
340.3034	0.1413
340.5132	0.1394
340.7229	0.1361
340.9327	0.1342
341.1424	0.1336
341.3522	0.1495
341.5619	0.1428
341.7716	0.1397
341.9813	0.1519
342.1909	0.138
342.4006	0.1521
342.6102	0.1452
342.8199	0.1414
343.0295	0.1543
343.2391	0.153
343.4487	0.1534
343.6583	0.1416
343.8679	0.1451
344.0774	0.1513
344.287	0.1578
344.4965	0.1352
344.706	0.1315
344.9155	0.1524
345.125	0.1562
345.3345	0.1432
345.544	0.1432
345.7534	0.1477
345.9629	0.1438
346.1723	0.1458
346.3817	0.1445
346.5911	0.1469
346.8005	0.1559
347.0099	0.1428
347.2193	0.1539
347.4286	0.1489
347.638	0.1587
347.8473	0.1594
348.0566	0.1518
348.2659	0.1488
348.4752	0.1555
348.6845	0.1413
348.8937	0.1435
349.103	0.1669
349.3122	0.1524
349.5214	0.1328
349.7306	0.1502
349.9398	0.1482
350.149	0.1486
350.3582	0.151
350.5674	0.1508
350.7765	0.1606
350.9856	0.1401
351.1948	0.1699
351.4039	0.1353
351.613	0.1457
351.822	0.1594
352.0311	0.1562
352.2402	0.1477
352.4492	0.1635
352.6582	0.1512
352.8672	0.1487
353.0762	0.1383
353.2852	0.159
353.4942	0.1626
353.7032	0.1525
353.9121	0.147
354.1211	0.1723
354.33	0.1608
354.5389	0.1564
354.7478	0.1545
354.9567	0.1604
355.1655	0.1468
355.3744	0.165
355.5833	0.1683
355.7921	0.1698
356.0009	0.1585
356.2097	0.1785
356.4185	0.1734
356.6273	0.1661
356.8361	0.171
357.0448	0.1599
357.2536	0.1429
357.4623	0.1601
357.671	0.1651
357.8797	0.1667
358.0884	0.1561
358.2971	0.1785
358.5057	0.1675
358.7144	0.1649
358.923	0.1799
359.1316	0.1792
359.3402	0.164
359.5488	0.1651
359.7574	0.1501
359.966	0.1876
360.1746	0.1718
360.3831	0.175
360.5916	0.1619
360.8002	0.1656
361.0087	0.1732
361.2172	0.1796
361.4256	0.1658
361.6341	0.1933
361.8426	0.178
362.051	0.1748
362.2594	0.1749
362.4678	0.1764
362.6762	0.1933
362.8846	0.186
363.093	0.1685
363.3014	0.1654
363.5097	0.1664
363.718	0.1719
363.9264	0.1713
364.1347	0.1679
364.343	0.1854
364.5513	0.1697
364.7595	0.1775
364.9678	0.1949
365.176	0.1785
365.3842	0.1668
365.5925	0.1737
365.8007	0.1667
366.0089	0.1785
366.217	0.1679
366.4252	0.1943
366.6333	0.1926
366.8415	0.1894
367.0496	0.176
367.2577	0.1852
367.4658	0.1866
367.6739	0.1876
367.882	0.1802
368.09	0.1711
368.2981	0.1837
368.5061	0.1958
368.7141	0.182
368.9221	0.187
369.1301	0.1918
369.3381	0.174
369.5461	0.1842
369.754	0.1774
369.962	0.1877
370.1699	0.1939
370.3778	0.1937
370.5857	0.1723
370.7936	0.1769
371.0015	0.1782
371.2093	0.189
371.4172	0.1857
371.625	0.1813
371.8328	0.1812
372.0406	0.1696
372.2484	0.1889
372.4562	0.1891
372.664	0.1849
372.8717	0.2212
373.0795	0.1623
373.2872	0.1896
373.4949	0.2006
373.7026	0.1851
373.9103	0.1787
374.118	0.1835
374.3256	0.1912
374.5333	0.1817
374.7409	0.1783
374.9485	0.2018
375.1561	0.1888
375.3637	0.1903
375.5713	0.2051
375.7789	0.178
375.9864	0.1948
376.194	0.1815
376.4015	0.2124
376.609	0.2024
376.8165	0.1864
377.024	0.1834
377.2315	0.1797
377.4389	0.1969
377.6464	0.209
377.8538	0.1912
378.0612	0.1861
378.2686	0.1913
378.476	0.1954
378.6834	0.1917
378.8908	0.1956
379.0981	0.2012
379.3055	0.1968
379.5128	0.2009
379.7201	0.2027
379.9274	0.1885
380.1347	0.1944
380.342	0.2093
380.5492	0.1917
380.7565	0.2115
380.9637	0.1974
381.1709	0.1823
381.3781	0.1982
381.5853	0.2001
381.7925	0.1927
381.9997	0.2153
382.2068	0.2063
382.4139	0.1976
382.6211	0.1777
382.8282	0.1906
383.0353	0.1996
383.2424	0.186
383.4494	0.2228
383.6565	0.1869
383.8635	0.2026
384.0706	0.1838
384.2776	0.1986
384.4846	0.1646
384.6916	0.1965
384.8986	0.2074
385.1055	0.1986
385.3125	0.1919
385.5194	0.18
385.7263	0.1903
385.9333	0.1871
386.1402	0.1925
386.347	0.1741
386.5539	0.1874
386.7608	0.1986
386.9676	0.1862
387.1744	0.1765
387.3813	0.1717
387.5881	0.1836
387.7948	0.1813
388.0016	0.1922
388.2084	0.1727
388.4151	0.1834
388.6219	0.1938
388.8286	0.1913
389.0353	0.1891
389.242	0.1779
389.4487	0.178
389.6553	0.1821
389.862	0.1739
390.0686	0.187
390.2753	0.1925
390.4819	0.1841
390.6885	0.1748
390.8951	0.1784
391.1016	0.1691
391.3082	0.1754
391.5147	0.1764
391.7213	0.1756
391.9278	0.1678
392.1343	0.1784
392.3408	0.1744
392.5473	0.1773
392.7537	0.1689
392.9602	0.1698
393.1666	0.1564
393.373	0.1641
393.5794	0.1674
393.7858	0.1744
393.9922	0.1547
394.1986	0.1629
394.4049	0.1594
394.6113	0.1553
394.8176	0.1578
395.0239	0.1599
395.2302	0.1585
395.4365	0.154
395.6428	0.156
395.8491	0.1413
396.0553	0.1662
396.2615	0.1577
396.4678	0.1429
396.674	0.1343
396.8802	0.1493
397.0863	0.1631
397.2925	0.1524
397.4987	0.1362
397.7048	0.1459
397.9109	0.1474
398.117	0.1505
398.3231	0.1459
398.5292	0.1621
398.7353	0.1601
398.9413	0.1432
399.1474	0.1518
399.3534	0.1487
399.5594	0.1293
399.7654	0.156
399.9714	0.1596
400.1774	0.1485
400.3833	0.1287
400.5893	0.1613
400.7952	0.1582
401.0011	0.1587
401.207	0.1464
401.4129	0.153
401.6188	0.1545
401.8247	0.1643
402.0305	0.1502
402.2364	0.1599
402.4422	0.1557
402.648	0.139
402.8538	0.1657
403.0596	0.1393
403.2654	0.1606
403.4711	0.1392
403.6768	0.1544
403.8826	0.168
404.0883	0.1523
404.294	0.1609
404.4997	0.152
404.7054	0.1654
404.911	0.1524
405.1167	0.1389
405.3223	0.1589
405.5279	0.1545
405.7335	0.1518
405.9391	0.1577
406.1447	0.1378
406.3502	0.1606
406.5558	0.1436
406.7613	0.1527
406.9668	0.1424
407.1724	0.148
407.3778	0.1446
407.5833	0.1506
407.7888	0.1326
407.9942	0.1431
408.1997	0.1348
408.4051	0.1428
408.6105	0.1456
408.8159	0.1256
409.0213	0.1395
409.2267	0.151
409.432	0.1269
409.6374	0.136
409.8427	0.1306
410.048	0.1474
410.2533	0.1318
410.4586	0.1311
410.6639	0.1311
410.8691	0.1277
411.0744	0.1377
411.2796	0.1279
411.4848	0.1394
411.69	0.1311
411.8952	0.1643
412.1004	0.1263
412.3056	0.1436
412.5107	0.1372
412.7158	0.1422
412.921	0.1451
413.1261	0.1485
413.3312	0.1297
413.5362	0.1355
413.7413	0.1399
413.9464	0.1271
414.1514	0.1366
414.3564	0.1345
414.5614	0.1238
414.7664	0.1316
414.9714	0.1432
415.1764	0.1228
415.3813	0.1357
415.5863	0.1422
415.7912	0.1436
415.9961	0.1374
416.201	0.1464
416.4059	0.1413
416.6108	0.1218
416.8156	0.1314
417.0205	0.1173
417.2253	0.1182
417.4301	0.1311
417.6349	0.1163
417.8397	0.12
418.0445	0.1286
418.2492	0.1304
418.454	0.1326
418.6587	0.1309
418.8634	0.1361
419.0681	0.1131
419.2728	0.1163
419.4775	0.1181
419.6822	0.1284
419.8868	0.1076
420.0915	0.1211
420.2961	0.1086
420.5007	0.1209
420.7053	0.1249
420.9099	0.1303
421.1144	0.1333
421.319	0.1136
421.5235	0.118
421.728	0.1107
421.9325	0.1326
422.137	0.1385
422.3415	0.1283
422.546	0.1201
422.7504	0.1158
422.9549	0.1278
423.1593	0.1202
423.3637	0.1312
423.5681	0.114
423.7725	0.1029
423.9769	0.1015
424.1812	0.1097
424.3856	0.1036
424.5899	0.1208
424.7942	0.1092
424.9985	0.1123
425.2028	0.1028
425.4071	0.1254
425.6113	0.1117
425.8156	0.1294
426.0198	0.1194
426.224	0.0887
426.4282	0.0861
426.6324	0.1076
426.8366	0.1184
427.0407	0.0981
427.2449	0.1156
427.449	0.1298
427.6531	0.0986
427.8572	0.0926
428.0613	0.0996
428.2654	0.1041
428.4694	0.1163
428.6735	0.1002
428.8775	0.0892
429.0815	0.1131
429.2855	0.1095
429.4895	0.0939
429.6935	0.1036
429.8975	0.1106
430.1014	0.0915
430.3053	0.08
430.5093	0.1061
430.7132	0.0946
430.9171	0.0943
431.1209	0.095
431.3248	0.0938
431.5286	0.0798
431.7325	0.0882
431.9363	0.0919
432.1401	0.1052
432.3439	0.0767
432.5477	0.0643
432.7514	0.0805
432.9552	0.0683
433.1589	0.0797
433.3627	0.07
433.5664	0.0684
433.7701	0.0833
433.9737	0.085
434.1774	0.0579
434.3811	0.0695
434.5847	0.0881
434.7883	0.0785
434.9919	0.0772
435.1955	0.0738
435.3991	0.0733
435.6027	0.0733
435.8062	0.0653
436.0098	0.0498
436.2133	0.0719
436.4168	0.0696
436.6203	0.0587
436.8238	0.0595
437.0272	0.0733
437.2307	0.0617
437.4341	0.0572
437.6375	0.0692
437.841	0.062
438.0443	0.0622
438.2477	0.065
438.4511	0.0631
438.6545	0.0556
438.8578	0.0684
439.0611	0.067
439.2644	0.051
439.4677	0.0551
439.671	0.0427
439.8743	0.0573
440.0775	0.048
440.2808	0.0573
440.484	0.0368
440.6872	0.031
440.8904	0.0442
441.0936	0.0414
441.2967	0.0363
441.4999	0.0566
441.703	0.0463
441.9062	0.0389
442.1093	0.0323
442.3124	0.037
442.5155	0.0222
442.7185	0.0325
442.9216	0.0227
443.1246	0.0708
443.3276	0.0229
443.5307	0.041
443.7337	0.038
443.9366	0.0313
444.1396	0.0304
444.3426	0.0379
444.5455	0.0412
444.7484	0.0356
444.9513	0.0246
445.1542	0.0323
445.3571	0.0298
445.56	0.0389
445.7628	0.0226
445.9657	0.0229
446.1685	0.0521
446.3713	0.0205
446.5741	0.0232
446.7769	0.0195
446.9797	0.0323
447.1824	0.025
447.3852	0.0251
447.5879	0.0423
447.7906	0.0423
447.9933	0.0371
448.196	0.0122
448.3986	0.0186
448.6013	0.0111
448.8039	0.0128
449.0066	0.0231
449.2092	0.0309
449.4118	0.0301
449.6143	0.0235
449.8169	0.0205
450.0195	0.0122
450.222	-0.0156
450.4245	0.0131
450.627	0.0183
450.8295	0.0158
451.032	0.0171
451.2345	0.0021
451.4369	0.0297
451.6394	0.0239
451.8418	-0.0104
452.0442	0.0029
452.2466	0.0345
452.449	-0.0069
452.6513	0.0188
452.8537	0.0042
453.056	0.0042
453.2583	0.0176
453.4607	0.0099
453.663	0.0088
453.8652	0.0251
454.0675	-0
454.2697	0.0056
454.472	-0.0178
454.6742	0.0013
454.8764	-0.0018
455.0786	0.0028
455.2808	0.0045
455.4829	0.0114
455.6851	0.0214
455.8872	0.0173
456.0893	0.0147
456.2915	-0.0027
456.4935	0.0259
456.6956	0.0081
456.8977	0.011
457.0997	0.0049
457.3018	0.0008
457.5038	0.0038
457.7058	0.0033
457.9078	0.009
458.1098	0.0181
458.3117	0.0212
458.5137	0.007
458.7156	0.012
458.9175	-0.001
459.1194	-0.0042
459.3213	0.0167
459.5232	-0.0007
459.725	-0.0113
459.9269	-0.0027
460.1287	0.0012
460.3305	-0.0034
460.5323	0.0061
460.7341	0.0029
460.9359	0.0052
461.1376	0.0068
461.3394	0.0059
461.5411	0.021
461.7428	0.0079
461.9445	0.0148
462.1462	0.0185
462.3479	-0.0128
462.5495	0.002
462.7512	0.0022
462.9528	0.0104
463.1544	-0.0132
463.356	-0.0156
463.5576	0.0025
463.7592	-0.0116
463.9607	0.0101
464.1623	-0.0037
464.3638	0.0255
464.5653	-0.0097
464.7668	0.0036
464.9683	0.0018
465.1697	0.0104
465.3712	-0.0103
465.5726	-0.0021
465.7741	-0.0068
465.9755	-0.0005
466.1769	-0.0078
466.3782	0.0007
466.5796	-0.0094
466.7809	0.01
466.9823	-0.0053
467.1836	0.0144
467.3849	-0.0075
467.5862	0.0128
467.7875	-0.0095
467.9887	0.0073
468.19	-0.008
468.3912	-0.008
468.5924	-0.0173
468.7936	-0.0018
468.9948	0.0006
469.196	-0.0036
469.3972	-0.0107
469.5983	0.0008
469.7994	-0.0258
470.0006	-0.0042
470.2017	-0.0046
470.4027	-0.0161
470.6038	0.0006
470.8049	-0.0191
471.0059	-0.022
471.2069	-0.0206
471.408	-0.0017
471.6089	-0.0025
471.8099	-0.0059
472.0109	0.0044
472.2119	-0.0164
472.4128	-0.0316
472.6137	-0.0037
472.8146	-0.0095
473.0155	-0.0158
473.2164	-0.0073
473.4173	-0.0025
473.6181	0.0075
473.819	0.0109
474.0198	-0.0073
474.2206	-0.0149
474.4214	-0.0043
474.6222	-0.01
474.8229	-0.0168
475.0237	-0.008
475.2244	-0.0133
475.4251	-0.0034
475.6258	-0
475.8265	0.0051
476.0272	0.0005
476.2278	-0.0055
476.4285	0.006
476.6291	-0.006
476.8297	-0.0072
477.0303	-0.0127
477.2309	-0.0023
477.4315	-0.0194
477.632	-0.0032
477.8326	-0.0112
478.0331	0.0035
478.2336	0.0007
478.4341	-0.0044
478.6346	-0.0112
478.8351	-0.0034
479.0355	-0.0052
479.236	-0.0055
479.4364	0.0099
479.6368	-0.0043
479.8372	-0.0185
480.0376	-0.01
480.2379	-0.0235
480.4383	-0.0164
480.6386	0.0093
480.8389	-0.0021
481.0392	-0.0114
481.2395	-0.0145
481.4398	0.0153
481.6401	0.0107
481.8403	-0.0064
482.0405	0.0007
482.2408	-0.0053
482.441	0.0073
482.6411	-0.006
482.8413	-0.0021
483.0415	0.0009
483.2416	-0.016
483.4417	0.0005
483.6419	-0.0124
483.8419	-0.0223
484.042	0.01
484.2421	0.002
484.4422	0.0005
484.6422	-0.0096
484.8422	-0.0019
485.0422	-0.0149
485.2422	-0.0017
485.4422	-0.0153
485.6422	-0.0114
485.8421	-0.0045
486.042	0.0002
486.242	-0.0043
486.4419	-0.0142
486.6417	-0.0036
486.8416	0.0003
487.0415	0.0012
487.2413	-0.0036
487.4411	-0.0064
487.641	-0.0102
487.8408	-0.0051
488.0405	-0.0027
488.2403	-0.0069
488.4401	0.0026
488.6398	-0.0015
488.8395	-0.0182
489.0392	0.0112
489.2389	0.0009
489.4386	-0.0107
489.6383	-0.0041
489.8379	-0.0005
490.0376	-0.008
490.2372	-0.0153
490.4368	-0.0046
490.6364	-0.0018
490.836	-0.0001
491.0355	-0.007
491.2351	-0.0117
491.4346	-0.0071
491.6341	-0.0123
491.8336	-0.0102
492.0331	-0.0109
492.2326	-0.021
492.432	-0.0094
492.6315	-0.0094
492.8309	-0.0125
493.0303	-0.0015
493.2297	-0.0054
493.4291	-0.0097
493.6284	-0.0077
493.8278	-0.0051
494.0271	-0.0046
494.2264	0.0008
494.4257	-0.0199
494.625	-0.0062
494.8243	-0.0135
495.0236	-0.0061
495.2228	-0.015
495.422	-0
495.6213	-0.0093
495.8205	-0.0063
496.0196	-0.0034
496.2188	-0.0045
496.418	-0.0089
496.6171	-0.0112
496.8162	-0.014
497.0153	-0.0005
497.2144	-0.0102
497.4135	-0.0099
497.6126	-0.0052
497.8116	-0.0181
498.0107	-0.0055
498.2097	-0.0144
498.4087	-0.0063
498.6077	-0.0022
498.8067	-0.0145
499.0056	0.0168
499.2046	-0.01
499.4035	-0.0248
499.6024	-0.0042
499.8013	-0.0031
500.0002	-0.0182
500.199	-0.0033
500.3979	-0.009
500.5967	-0.0251
500.7956	0.0023
500.9944	-0.0078
501.1932	-0.0125
501.3919	-0.0116
501.5907	-0.0122
501.7895	-0.0014
501.9882	-0.0095
502.1869	-0.0202
502.3856	-0.0078
502.5843	-0.0059
502.783	-0.0114
502.9816	-0.0032
503.1803	-0.0228
503.3789	-0.0152
503.5775	-0.0048
503.7761	-0.0075
503.9747	-0.003
504.1732	-0.0077
504.3718	-0.0005
504.5703	-0.0023
504.7689	-0.0032
504.9674	0.0014
505.1658	-0.0168
505.3643	-0.0046
505.5628	-0.001
505.7612	-0.0124
505.9597	-0.0046
506.1581	-0.0081
506.3565	0.0022
506.5549	-0.0054
506.7532	-0.0186
506.9516	-0.0078
507.1499	-0.0019
507.3482	-0.0112
507.5465	-0.0143
507.7448	-0.0071
507.9431	-0.0064
508.1414	-0.0014
508.3396	-0.011
508.5379	-0.0076
508.7361	-0.0123
508.9343	-0.0073
509.1325	-0.0046
509.3306	-0.0129
509.5288	-0.0106
509.7269	-0.0124
509.9251	0.0022
510.1232	-0.0165
510.3213	0.0012
510.5193	0.0032
510.7174	-0.0089
510.9154	-0.0166
511.1135	-0.0088
511.3115	-0.0102
511.5095	-0.0048
511.7075	0.001
511.9055	-0.0085
512.1034	-0.0197
512.3014	-0.0063
512.4993	-0.0032
512.6972	-0.0077
512.8951	-0.0149
513.093	0.0021
513.2908	-0.003
513.4887	-0.0139
513.6865	-0.0093
513.8844	-0.0063
514.0822	-0.0137
514.2799	-0.0203
514.4777	-0.015
514.6755	-0.0169
514.8732	-0.0141
515.0709	-0.0074
515.2687	-0.0053
515.4664	-0.0039
515.664	-0.0104
515.8617	-0.0232
516.0594	-0.0102
516.257	-0.0133
516.4546	-0.0225
516.6522	-0.0076
516.8498	0.0005
517.0474	-0.0027
517.2449	-0.0076
517.4425	-0.0161
517.64	-0.0144
517.8375	0.002
518.035	-0.0055
518.2325	-0.0147
518.43	0.0008
518.6274	-0.0099
518.8249	-0.0158
519.0223	0.0015
519.2197	-0.0071
519.4171	-0.0183
519.6145	-0.0085
519.8118	-0.0032
520.0092	-0.0069
520.2065	-0.0163
520.4038	-0.0143
520.6011	-0.0124
520.7984	-0.0138
520.9956	-0.018
521.1929	-0.0146
521.3901	0.0054
521.5874	-0.0009
521.7846	-0.0041
521.9818	-0.0116
522.1789	-0.0176
522.3761	-0.0197
522.5732	-0.002
522.7704	-0.0114
522.9675	-0.0032
523.1646	-0.0155
523.3617	-0
523.5587	-0
523.7558	0.0002
523.9528	-0.0148
524.1498	-0.005
524.3468	-0.0094
524.5438	-0.0133
524.7408	0.0047
524.9378	-0.0002
525.1347	-0.0113
525.3316	-0.0001
525.5285	-0.0218
525.7254	-0.0101
525.9223	-0.006
526.1192	-0.0081
526.316	-0.0147
526.5129	0.002
526.7097	0.0077
526.9065	-0.005
527.1033	-0.0103
527.3	0.0002
527.4968	-0.0024
527.6935	-0.0069
527.8903	-0.0107
528.087	-0.0007
528.2837	-0.0029
528.4804	-0.0046
528.677	-0.0143
528.8737	0.0027
529.0703	0.0009
529.2669	-0.0056
529.4635	-0.01
529.6601	-0.0083
529.8567	-0.0141
530.0532	-0.0137
530.2498	0.0071
530.4463	0.0041
530.6428	0.002
530.8393	0.004
531.0358	-0.009
531.2322	0.0022
531.4287	0.0003
531.6251	-0.0058
531.8215	0.0037
532.0179	-0.0054
532.2143	0.001
532.4107	0.0018
532.607	-0.0065
532.8034	0.0001
532.9997	-0.0027
533.196	-0.0061
533.3923	-0.0063
533.5886	0.0015
533.7848	-0.001
533.9811	-0.0083
534.1773	0.0075
534.3735	-0.005
534.5697	-0.0087
534.7659	-0.0042
534.9621	0.0006
535.1582	-0.0044
535.3544	-0.0125
535.5505	-0.0078
535.7466	-0.0051
535.9427	-0.0026
536.1387	-0.011
536.3348	-0.0047
536.5308	-0.0019
536.7269	-0.0144
536.9229	-0.0022
537.1189	-0.0073
537.3148	-0.0003
537.5108	-0.0133
537.7068	-0.0036
537.9027	-0.0016
538.0986	-0.0081
538.2945	-0.0115
538.4904	-0.0101
538.6863	-0.0083
538.8821	-0.0076
539.078	-0.0045
539.2738	0.0012
539.4696	-0.0012
539.6654	0.0026
539.8611	0.0151
540.0569	-0.0009
540.2526	-0.0054
540.4484	0.0067
540.6441	0.0049
540.8398	0.0034
541.0355	-0.0058
541.2311	-0.0045
541.4268	-0.0139
541.6224	0.0085
541.818	-0
542.0136	-0.0071
542.2092	0.0045
542.4048	0.0029
542.6003	-0.0029
542.7959	-0.0061
542.9914	0.0003
543.1869	-0.0044
543.3824	-0.008
543.5779	-0.0126
543.7734	-0.0048
543.9688	-0.0119
544.1642	-0.003
544.3596	0.0059
544.555	-0.0048
544.7504	0.0015
544.9458	-0.0097
545.1411	0.0006
545.3365	-0.0051
545.5318	-0.0054
545.7271	-0.0021
545.9224	-0.0022
546.1177	0.002
546.3129	0.0012
546.5081	-0.0101
546.7034	-0.0056
546.8986	-0.0091
547.0938	-0.0113
547.289	-0.0121
547.4841	0.0001
547.6793	0.0059
547.8744	-0.0102
548.0695	-0.0012
548.2646	-0.0056
548.4597	-0.0002
548.6548	-0.0003
548.8498	-0.0049
549.0448	0.0037
549.2399	-0.0077
549.4349	0.0067
549.6298	-0.0009
549.8248	-0.0019
550.0198	0.0002
550.2147	-0.0026
550.4096	-0.0078
550.6045	-0.0064
550.7994	0.005
550.9943	-0.0032
551.1892	-0.0011
551.384	0.0001
551.5788	-0.0005
551.7737	0.0079
551.9685	0.0007
552.1632	-0.0055
552.358	-0.0068
552.5528	0.0042
552.7475	-0.0148
552.9422	0.0036
553.1369	-0.0065
553.3316	0.0025
553.5263	-0.006
553.7209	0.0093
553.9156	-0.0073
554.1102	-0.0049
554.3048	-0.0046
554.4994	0.0073
554.694	-0.007
554.8885	-0.0024
555.0831	-0.0081
555.2776	-0.0064
555.4721	0.0013
555.6666	-0.0034
555.8611	0.0149
556.0555	0.0016
556.25	-0.0043
556.4444	-0.0077
556.6388	0.0003
556.8332	0.0034
557.0276	0.002
557.222	0.0072
557.4163	-0.0023
557.6107	-0.0032
557.805	0.0072
557.9993	0.0003
558.1936	-0.0021
558.3879	0.008
558.5821	-0.0011
558.7764	-0.0029
558.9706	-0.0023
559.1648	-0.0043
559.359	0.0006
559.5532	-0.0111
559.7473	-0.0007
559.9415	-0.0007
560.1356	-0.0028
560.3297	-0.0064
560.5238	-0.0056
560.7179	-0.0014
560.9119	-0.0084
561.106	-0.0024
561.3	-0.0077
561.494	-0.0024
561.688	-0.0097
561.882	-0.0073
562.076	-0.0096
562.2699	0.0025
562.4639	0.0031
562.6578	0.0034
562.8517	-0.0008
563.0456	0.012
563.2395	0.0058
563.4333	0.0043
563.6272	0.0035
563.821	0.0014
564.0148	-0.0036
564.2086	-0.0145
564.4024	0.0013
564.5961	-0.008
564.7899	-0.0049
564.9836	-0.0026
565.1773	-0.0001
565.371	0.0044
565.5647	0.0017
565.7584	0.0018
565.952	-0.0074
566.1456	0.0005
566.3393	0.0003
566.5329	-0.0052
566.7264	0.0016
566.92	-0.0057
567.1136	0.0024
567.3071	-0.0065
567.5006	-0.0067
567.6941	0.0052
567.8876	0.0046
568.0811	-0.0023
568.2745	0.0085
568.468	0.0117
568.6614	0.0007
568.8548	0.0013
569.0482	0.0046
569.2416	-0.0001
569.4349	-0.0023
569.6283	0.0103
569.8216	-0.002
570.0149	-0.0072
570.2082	0.0059
570.4015	0.0064
570.5947	0.0039
570.788	0.0091
570.9812	0.0013
571.1744	-0
571.3676	-0.0102
571.5608	-0.0051
571.754	-0.0004
571.9471	-0.0001
572.1402	0.0029
572.3333	-0.0058
572.5264	-0.0067
572.7195	-0.0025
572.9126	0.0049
573.1057	-0.0005
573.2987	-0.0048
573.4917	0.001
573.6847	-0.0048
573.8777	0.0022
574.0707	0.0033
574.2636	-0.0022
574.4566	-0.0021
574.6495	0.0087
574.8424	0.0007
575.0353	-0.0034
575.2281	0.0053
575.421	0.0051
575.6138	0.0111
575.8067	-0.0035
575.9995	-0.0037
576.1923	0.0014
576.385	0.0044
576.5778	-0.0082
576.7706	0.0011
576.9633	-0.001
577.156	-0.0043
577.3487	-0.0061
577.5414	0.0018
577.734	-0.0071
577.9267	-0.0032
578.1193	-0.0059
578.3119	-0.0077
578.5045	-0.0054
578.6971	-0.0027
578.8897	0.0044
579.0822	0.0047
579.2747	-0.0017
579.4673	-0.0032
579.6598	-0.0055
579.8522	-0.0053
580.0447	-0.0034
580.2372	-0.0039
580.4296	0.0027
580.622	-0.0079
580.8144	0.0008
581.0068	-0.0042
581.1992	-0.0183
581.3915	-0.0105
581.5839	-0.011
581.7762	-0.0137
581.9685	-0.0054
582.1608	-0.0045
582.353	-0.005
582.5453	-0.0036
582.7375	-0.0001
582.9298	-0.006
583.122	-0.0037
583.3142	-0.0063
583.5063	-0.0009
583.6985	0.0025
583.8906	0.0001
584.0827	-0.0018
584.2749	0.0006
584.4669	-0.0063
584.659	-0.0053
584.8511	-0.0026
585.0431	-0.0007
585.2352	-0.0101
585.4272	0.0017
585.6192	0.0051
585.8111	-0.0068
586.0031	-0.0009
586.195	-0.0042
586.387	-0.0001
586.5789	0.0027
586.7708	-0.0038
586.9627	0.0026
587.1545	-0.0034
587.3464	0.0006
587.5382	0.0054
587.73	0.0019
587.9218	0.0041
588.1136	0.0016
588.3053	0.0087
588.4971	-0.0042
588.6888	-0.0045
588.8805	0.0015
589.0722	0.0028
589.2639	0.0038
589.4556	0.0021
589.6472	-0.0026
589.8389	-0.0033
590.0305	-0.0084
590.2221	0.0031
590.4137	-0.0049
590.6052	-0.0018
590.7968	-0.0023
590.9883	0.0004
591.1798	-0.0018
591.3713	0.001
591.5628	0.0011
591.7543	0.0053
591.9458	0.002
592.1372	0.0109
592.3286	0.0104
592.52	0.01
592.7114	-0.0006
592.9028	0.0026
593.0941	-0.0065
593.2855	-0.0001
593.4768	-0.0098
593.6681	-0.0099
593.8594	-0.0001
594.0506	-0.0026
594.2419	0.004
594.4331	0.0035
594.6244	0.005
594.8156	-0.0043
595.0067	0.0056
595.1979	0.0017
595.3891	0.001
595.5802	-0.0017
595.7713	-0.0059
595.9624	-0.0058
596.1535	0.0106
596.3446	0.0006
596.5357	-0.0008
596.7267	0.0114
596.9177	0.0032
597.1087	-0.0035
597.2997	0.0007
597.4907	0.0089
597.6817	-0.0041
597.8726	0.0011
598.0635	-0.0008
598.2544	0.0042
598.4453	0.0016
598.6362	0.0003
598.827	-0.004
599.0179	0.0068
599.2087	0.0014
599.3995	0.0043
599.5903	0.0021
599.7811	0.0022
599.9718	0.0009
600.1626	-0.0083
600.3533	-0.0031
600.544	0.0072
600.7347	0.0062
600.9254	0.0087
601.116	-0.0064
601.3067	0.0004
601.4973	-0.0021
601.6879	0.0028
601.8785	-0.0063
602.0691	0.0098
602.2596	0.0062
602.4502	0.0045
602.6407	0.0061
602.8312	0.0045
603.0217	-0.0029
603.2122	-0.0006
603.4027	0.0053
603.5931	-0.0005
603.7835	0.0091
603.9739	-0.0002
604.1643	-0.0025
604.3547	-0.006
604.5451	0.0059
604.7354	0.0019
604.9257	-0.0005
605.116	-0.0024
605.3063	0.0058
605.4966	0.0021
605.6869	-0.0001
605.8771	0.0082
606.0673	0.0032
606.2575	0.0051
606.4477	0.0098
606.6379	0.0025
606.8281	-0.001
607.0182	-0.0041
607.2083	0.0126
607.3985	0.0011
607.5885	0.0011
607.7786	-0.0023
607.9687	0.0023
608.1587	0.0041
608.3488	0.0019
608.5388	-0.0028
608.7288	0
608.9187	-0.0017
609.1087	-0.0086
609.2986	-0.0095
609.4886	0.0024
609.6785	0.0002
609.8684	0.0037
610.0582	0.0016
610.2481	-0.0019
610.4379	0.0005
610.6278	-0.0048
610.8176	-0.0037
611.0074	-0.0067
611.1971	-0.0059
611.3869	-0.0065
611.5766	-0.004
611.7664	0.002
611.9561	0.0018
612.1458	0.0013
612.3354	-0.006
612.5251	-0.0003
612.7147	0.0058
612.9044	0.008
613.094	-0.0107
613.2836	0.0034
613.4731	0.0003
613.6627	-0.0032
613.8522	0.0075
614.0417	0.0074
614.2313	-0.0047
614.4207	-0.0047
614.6102	0
614.7997	-0.0055
614.9891	-0.0018
615.1785	-0.0034
615.3679	0.0004
615.5573	0.0058
615.7467	-0.003
615.9361	-0.0039
616.1254	-0.0054
616.3147	-0.0036
616.504	-0.0008
616.6933	0.0039
616.8826	-0.0001
617.0718	0.0009
617.2611	0.0055
617.4503	0.003
617.6395	-0.0046
617.8287	-0.0049
618.0179	-0.0005
618.207	0.0012
618.3961	0.0038
618.5853	-0.0037
618.7744	0.0118
618.9634	0.0088
619.1525	0.0002
619.3416	0.0069
619.5306	0.0105
619.7196	-0.0054
619.9086	-0.0017
620.0976	0.0035
620.2866	0.0002
620.4755	0.0034
620.6645	-0.0027
620.8534	-0
621.0423	0.0045
621.2312	0.0037
621.42	0.0046
621.6089	-0.0024
621.7977	0.0057
621.9865	-0.0095
622.1753	0.0017
622.3641	0.0002
622.5529	0.0047
622.7416	0.0045
622.9303	-0.003
623.1191	0.0037
623.3078	0.0035
623.4964	-0.0004
623.6851	-0.0063
623.8737	-0.0014
624.0624	0.0081
624.251	0.0039
624.4396	0.0025
624.6282	-0.0018
624.8167	0.0016
625.0053	0.0027
625.1938	0.0073
625.3823	0.0077
625.5708	-0.0019
625.7593	0.0006
625.9477	0.0017
626.1362	0.0048
626.3246	0.0062
626.513	0.0068
626.7014	0.01
626.8898	-0.0021
627.0781	0.0014
627.2665	-0.0032
627.4548	0.0066
627.6431	0.0084
627.8314	0.0096
628.0197	0.0035
628.2079	-0.0062
628.3962	0.0028
628.5844	0.01
628.7726	0.0061
628.9608	0.0092
629.1489	0.0016
629.3371	0.0027
629.5252	-0.0017
629.7134	0.0107
629.9015	0.0041
630.0895	-0.002
630.2776	0.0056
630.4657	0.0026
630.6537	0.0019
630.8417	0.0044
631.0297	0.001
631.2177	-0.0041
631.4057	-0.0054
631.5936	0.0005
631.7815	0.0052
631.9695	0.0065
632.1574	0.0038
632.3452	0.0029
632.5331	-0.0056
632.7209	0.001
632.9088	0.0094
633.0966	0.0132
633.2844	-0.0008
633.4722	-0.0007
633.6599	0.0069
633.8477	0.0043
634.0354	0.0011
634.2231	0.0037
634.4108	0.0065
634.5985	0.009
634.7861	0.0075
634.9738	-0.0043
635.1614	0.0034
635.349	0.0017
635.5366	-0.0045
635.7242	-0.0066
635.9117	0.0029
636.0993	-0.0059
636.2868	0.0092
636.4743	-0.0038
636.6618	0.0087
636.8492	0.0055
637.0367	0.004
637.2241	0.0022
637.4115	-0.0019
637.5989	0.0061
637.7863	0.0006
637.9737	0.0035
638.161	-0.0014
638.3484	-0.011
638.5357	0.009
638.723	0.0034
638.9103	0.0009
639.0975	0.0086
639.2848	0.0085
639.472	-0.0017
639.6592	0.0052
639.8464	0.0093
640.0336	0.0079
640.2208	0.0021
640.4079	0.0025
640.595	0.0123
640.7821	0.0043
640.9692	0.0043
641.1563	0.0066
641.3434	0.0057
641.5304	0.0074
641.7174	0.0043
641.9044	0.0003
642.0914	0.0079
642.2784	0.0135
642.4653	0.0102
642.6523	0.0027
642.8392	0.0014
643.0261	0.0013
643.213	0.0022
643.3999	-0.0029
643.5867	0.0017
643.7735	0.003
643.9604	-0.0012
644.1472	-0.0013
644.3339	0.007
644.5207	0.0092
644.7075	0.0001
644.8942	0.0119
645.0809	0.0076
645.2676	0.0086
645.4543	0.0026
645.6409	0.0087
645.8276	0.0095
646.0142	0.0099
646.2008	-0.0013
646.3874	-0.0085
646.574	0.0024
646.7605	-0.0022
646.9471	-0.0086
647.1336	-0.001
647.3201	0.002
647.5066	-0.0011
647.6931	0.0079
647.8795	-0.003
648.0659	0.0082
648.2524	0.006
648.4388	-0.0023
648.6252	0.0005
648.8115	0.0024
648.9979	-0.0031
649.1842	0.0001
649.3705	0.0073
649.5568	0.0047
649.7431	0.0044
649.9294	0.0008
650.1156	0.0086
650.3018	-0.005
650.488	0.0029
650.6742	0.0054
650.8604	-0.0009
651.0466	-0.0058
651.2327	0.0019
651.4188	0.0049
651.6049	0.004
651.791	0.0028
651.9771	0.0044
652.1632	0.0078
652.3492	0.0048
652.5352	0.0032
652.7212	0.0025
652.9072	0.007
653.0932	-0.0041
653.2791	0.0024
653.465	0.008
653.651	-0.0097
653.8369	0.0038
654.0227	-0.002
654.2086	0.0068
654.3944	0.0057
654.5803	0.0033
654.7661	-0.0062
654.9519	0.0052
655.1377	0.0023
655.3234	-0.0048
655.5092	-0.0046
655.6949	-0.0072
655.8806	-0.0082
656.0663	-0.0029
656.2519	-0.0053
656.4376	-0.0047
656.6232	0.002
656.8088	-0.0006
656.9945	0.0037
657.18	0.0019
657.3656	0.0006
657.5511	-0.0006
657.7367	-0.0038
657.9222	0.0105
658.1077	0.0038
658.2932	0.0087
658.4786	-0.0057
658.6641	0.0004
658.8495	0.0042
659.0349	0.0054
659.2203	0.0077
659.4057	0.0087
659.591	0.0119
659.7764	0.0067
659.9617	0.0049
660.147	0.004
660.3323	0.0119
660.5176	0.0077
660.7028	0.0095
660.888	0.003
661.0733	-0.0012
661.2585	0.001
661.4436	0.0054
661.6288	0.003
661.8139	0.0057
661.9991	0.0178
662.1842	0.0001
662.3693	0.0038
662.5544	0.002
662.7394	0.0035
662.9245	0.0047
663.1095	-0.0077
663.2945	-0.0022
663.4795	-0.0004
663.6644	-0.0005
663.8494	0.0002
664.0343	0.0065
664.2193	-0.0114
664.4042	-0.0011
664.589	-0.0063
664.7739	0.0005
664.9587	-0.006
665.1436	-0.0038
665.3284	0.0019
665.5132	0.0003
665.698	0.0012
665.8827	0.0019
666.0675	0.0004
666.2522	0.0033
666.4369	0.0042
666.6216	0.0142
666.8063	-0.0001
666.9909	0.0027
667.1756	-0.0004
667.3602	0.0025
667.5448	0.0049
667.7294	0.0095
667.9139	0.0035
668.0985	0.0074
668.283	-0.0022
668.4675	0.0056
668.652	0.006
668.8365	0.0032
669.0209	0.0054
669.2054	0.0076
669.3898	0.0047
669.5742	-0.0009
669.7586	0.0063
669.943	0.0155
670.1273	0.0117
670.3117	0.0114
670.496	0.0097
670.6803	0.0148
670.8646	0.008
671.0488	-0.0002
671.2331	0.0084
671.4173	0.0108
671.6015	0.0045
671.7857	0.0049
671.9699	0.0097
672.1541	0.0101
672.3382	0.0034
672.5223	0.0128
672.7064	0.0055
672.8905	0.0156
673.0746	0.0049
673.2587	0.004
673.4427	0.0071
673.6267	0.0027
673.8107	0.0098
673.9947	0.0087
674.1787	0.0054
674.3626	0.0021
674.5465	0.008
674.7304	0.012
674.9143	0.0108
675.0982	0.0126
675.2821	0.0047
675.4659	0.0098
675.6497	0.0092
675.8335	0.0037
676.0173	0.0079
676.2011	0.007
676.3849	0.0051
676.5686	-0.0019
676.7523	0.0023
676.936	0.0063
677.1197	0
677.3034	-0.0036
677.487	0.0148
677.6706	0.0016
677.8542	0.0047
678.0378	0.0046
678.2214	0.0051
678.405	0.0082
678.5885	0.0017
678.772	0.0039
678.9555	0.0011
679.139	0.0044
679.3225	0.0058
679.5059	-0.0026
679.6894	0.0051
679.8728	-0.0026
680.0562	-0.0085
680.2395	-0.0075
680.4229	0.0008
680.6062	0.0034
680.7896	0.005
680.9729	0.0023
681.1562	0.0031
681.3394	0.005
681.5227	-0.0031
681.7059	-0.0003
681.8891	0.0052
682.0723	0.0091
682.2555	0.0047
682.4387	-0.0019
682.6218	-0.0008
682.805	0.0089
682.9881	0.0096
683.1712	-0.0029
683.3542	0.0007
683.5373	0.0087
683.7203	-0.0002
683.9034	0.0032
684.0864	-0
684.2694	-0.0001
684.4523	0.0061
684.6353	0.0011
684.8182	0.0043
685.0011	0.0019
685.184	0.0045
685.3669	0.0062
685.5498	0.0088
685.7326	0.0112
685.9154	0.003
686.0982	0.007
686.281	0.0131
686.4638	0.0043
686.6465	0.0024
686.8293	-0.0011
687.012	0.0037
687.1947	0.0031
687.3774	0.0019
687.56	-0.0018
687.7427	0.008
687.9253	-0.0022
688.1079	-0.0013
688.2905	0.0092
688.4731	0.0032
688.6556	-0.0019
688.8382	0.0048
689.0207	0.0027
689.2032	-0.0031
689.3857	-0.0015
689.5681	-0.0015
689.7506	0.0005
689.933	0.0012
690.1154	0.001
690.2978	-0.0049
690.4802	0.0042
690.6626	-0.0058
690.8449	0.0045
691.0272	0.0071
691.2095	-0.0046
691.3918	-0.0052
691.5741	0.0002
691.7563	-0.0013
691.9386	-0.0057
692.1208	-0.0028
692.303	0.0035
692.4852	-0.0031
692.6673	0.0028
692.8495	0.0064
693.0316	0.0054
693.2137	0.0054
693.3958	0.0062
693.5778	0.0016
693.7599	0.0034
693.9419	0.0019
694.1239	-0.0019
694.3059	0.0002
694.4879	0.0132
694.6699	0.0054
694.8518	0.0066
695.0337	-0.001
695.2157	-0.0023
695.3975	0.0042
695.5794	0.0045
695.7613	0.0023
695.9431	0.0013
696.1249	0.001
696.3067	0.0016
696.4885	0.0058
696.6703	-0.0084
696.852	-0.0008
697.0337	0.0011
697.2154	0.0013
697.3971	0.0066
697.5788	0.0064
697.7605	0.0013
697.9421	0.0114
698.1237	0.0044
698.3053	0.0009
698.4869	0.0037
698.6685	-0.0074
698.85	-0.0041
699.0315	0.0056
699.213	-0.0037
699.3945	0.0002
699.576	0.0118
699.7575	0.0063
699.9389	0.0014
700.1203	-0.009
700.3017	-0.0106
700.4831	-0.0099
700.6645	-0.0027
700.8458	0.0029
701.0271	-0.0036
701.2084	0.0008
701.3897	-0.0089
701.571	0.0027
701.7523	-0.006
701.9335	0.0029
702.1147	-0.0076
702.2959	0.0044
702.4771	0.0044
702.6583	-0
702.8394	-0.0014
703.0205	0.0046
703.2016	-0.0072
703.3827	0.0023
703.5638	0.0015
703.7449	0.0058
703.9259	0.0095
704.1069	-0.0052
704.2879	0.008
704.4689	0.009
704.6499	0.0017
704.8308	0.0033
705.0117	0.0002
705.1927	0.0074
705.3735	0.0017
705.5544	-0.0052
705.7353	0.0008
705.9161	-0.0011
706.0969	-0.0055
706.2777	-0.0032
706.4585	-0.0025
706.6393	0.0019
706.82	0.0011
707.0007	0.0018
707.1815	0.0103
707.3621	0.0119
707.5428	0.0038
707.7235	0.0082
707.9041	0.0073
708.0847	-0.0072
708.2653	-0
708.4459	-0.0109
708.6265	0.0015
708.807	0.0013
708.9875	0.0025
709.168	-0.0073
709.3485	-0.0039
709.529	-0.0003
709.7095	-0.0105
709.8899	0.0032
710.0703	-0.0035
710.2507	-0.0015
710.4311	0.0042
710.6115	-0.0123
710.7918	-0.0031
710.9721	-0.0056
711.1524	-0.0052
711.3327	-0.0021
711.513	0.0014
711.6932	0.0032
711.8735	0.0077
712.0537	0.0014
712.2339	-0.0032
712.4141	-0.0106
712.5942	-0.0053
712.7744	0.0035
712.9545	-0.0031
713.1346	-0.0007
713.3147	0.0008
713.4947	-0.0052
713.6748	-0.0007
713.8548	0.0017
714.0348	-0.0016
714.2148	0.0029
714.3948	0.0124
714.5748	0.0082
714.7547	-0.0007
714.9346	0.0103
715.1145	0.0078
715.2944	0.0003
715.4743	0.0129
715.6541	0.0013
715.834	0.0022
716.0138	-0.0022
716.1936	-0.009
716.3733	-0.0019
716.5531	0.0065
716.7328	-0.0043
716.9126	-0.0006
717.0923	-0.001
717.2719	0.0022
717.4516	0.0015
717.6312	0.001
717.8109	0.0008
717.9905	0.0062
718.1701	0.0014
718.3496	-0.003
718.5292	0.0073
718.7087	0.0038
718.8882	0.0005
719.0677	0.0109
719.2472	-0.0037
719.4267	0.0055
719.6061	0.0096
719.7856	0.0126
719.965	0.0097
720.1443	0.0061
720.3237	0.0142
720.5031	0.0045
720.6824	0.0058
720.8617	0.0051
721.041	0.004
721.2203	0.0143
721.3995	-0.0005
721.5788	0.0072
721.758	0.0048
721.9372	0.0002
722.1164	0.0001
722.2956	-0.0023
722.4747	0.0085
722.6538	0.0034
722.8329	0.0134
723.012	-0.0025
723.1911	0.0015
723.3702	-0.0017
723.5492	0.003
723.7282	-0.0059
723.9072	-0.0092
724.0862	-0.0023
724.2652	-0.0009
724.4441	-0.002
724.623	-0.0018
724.8019	0.0039
724.9808	0.0034
725.1597	-0.0043
725.3385	0.0093
725.5174	0.0057
725.6962	0.0008
725.875	0.0025
726.0538	0.0169
726.2325	0.0028
726.4112	0.004
726.59	0.0005
726.7687	-0.0035
726.9474	0.0093
727.126	-0.0011
727.3047	0.0024
727.4833	0.0028
727.6619	-0.0023
727.8405	-0.0028
728.0191	-0.0027
728.1976	0.0093
728.3762	-0.0073
728.5547	0.0005
728.7332	-0.0068
728.9116	0.0071
729.0901	0.0071
729.2686	-0.007
729.447	0.0001
729.6254	-0.0026
729.8038	-0.0009
729.9821	-0.0109
730.1605	0.0029
730.3388	0.0002
730.5171	-0.0026
730.6954	-0.0134
730.8737	0.0042
731.0519	0.007
731.2302	0.001
731.4084	0.0035
731.5866	0.0035
731.7648	-0.0038
731.9429	0.0069
732.1211	-0.004
732.2992	0.0024
732.4773	0.004
732.6554	-0.0003
732.8335	0.0079
733.0115	0.0068
733.1896	0.0142
733.3676	0.0022
733.5456	0.0009
733.7235	0.007
733.9015	0.0041
734.0794	0.0025
734.2574	0.0008
734.4353	-0.0006
734.6131	0.0034
734.791	0.002
734.9689	-0.0077
735.1467	0.0071
735.3245	-0.0111
735.5023	-0.0126
735.68	-0.0006
735.8578	0.003
736.0355	-0.0174
736.2132	0.001
736.3909	-0.0034
736.5686	-0.0162
736.7463	0.0015
736.9239	-0.0098
737.1015	-0.0087
737.2791	0.0015
737.4567	-0.0127
737.6343	-0.0099
737.8118	-0.0014
737.9894	0.0013
738.1669	-0.0073
738.3444	-0.007
738.5218	0.0018
738.6993	0.0017
738.8767	-0.0091
739.0541	0.0156
739.2315	-0.0056
739.4089	-0.0007
739.5863	0.0094
739.7636	-0.0014
739.9409	0.0007
740.1182	0.0137
740.2955	0.0035
740.4728	0.0042
740.65	0.004
740.8272	-0.0015
741.0044	-0.0052
741.1816	-0.0043
741.3588	-0.004
741.5359	0.003
741.7131	-0.0106
741.8902	-0.0068
742.0673	-0.0071
742.2444	-0.0018
742.4214	-0.008
742.5985	-0.0043
742.7755	-0.0057
742.9525	-0.009
743.1295	0.003
743.3064	0.0017
743.4834	0.0013
743.6603	-0.0111
743.8372	-0.0013
744.0141	0.0133
744.191	-0.0025
744.3678	-0.0002
744.5446	0.0011
744.7215	0.0046
744.8982	-0.0062
745.075	-0.0089
745.2518	0.0038
745.4285	0.0014
745.6052	-0.0101
745.7819	-0.0021
745.9586	-0.0055
746.1353	0.0016
746.3119	-0.0106
746.4885	-0.0042
746.6651	-0.0053
746.8417	0.0061
747.0183	0.0079
747.1948	0.0031
747.3714	0.0056
747.5479	0.0017
747.7244	0.0008
747.9008	0.0149
748.0773	-0.0014
748.2537	0.0025
748.4301	-0.0041
748.6065	0.0046
748.7829	0.0088
748.9593	-0.0065
749.1356	0.0008
749.3119	0.012
749.4882	-0.0122
749.6645	0.0043
749.8408	-0.0073
750.017	-0.0027
750.1933	-0.0039
750.3695	-0.0085
750.5457	0.0067
750.7218	-0.0017
750.898	0.0061
751.0741	-0.0044
751.2502	-0.008
751.4263	-0.0049
751.6024	-0.0061
751.7784	-0.0083
751.9545	-0.008
752.1305	0.0006
752.3065	-0.0048
752.4825	-0.0043
752.6584	-0.0019
752.8344	-0.0134
753.0103	-0.0095
753.1862	-0.0036
753.3621	-0.0123
753.5379	-0.0101
753.7138	-0.006
753.8896	0.0004
754.0654	0.0016
754.2412	0.0053
754.417	-0.0042
754.5927	-0.0064
754.7685	-0.0048
754.9442	-0.0066
755.1199	0.003
755.2956	-0.0103
755.4712	0.0072
755.6469	-0.0042
755.8225	-0.0036
755.9981	-0.0065
756.1736	0.0004
756.3492	0.0014
756.5248	-0.0025
756.7003	0.0003
756.8758	-0.0022
757.0513	-0.0113
757.2267	-0.0068
757.4022	0.0006
757.5776	-0.0147
757.753	0.0071
757.9284	0.0055
758.1038	0.0119
758.2791	0.015
758.4545	-0.0089
758.6298	-0.0083
758.8051	0.0015
758.9803	0.0005
759.1556	-0.0022
759.3308	0.0026
759.506	0.0155
759.6812	0.0085
759.8564	0.0076
760.0316	-0.0007
760.2067	0.0154
760.3819	0.0114
760.557	0.013
760.732	-0.0005
760.9071	-0.008
761.0821	-0.0019
761.2572	0.0009
761.4322	-0.0049
761.6072	-0.0023
761.7821	-0.0032
761.9571	0.0084
762.132	-0.0084
762.3069	-0.0056
762.4818	-0.0036
762.6567	0.0083
762.8316	0.0033
763.0064	0.003
763.1812	-0.0077
763.356	-0.0074
763.5308	-0.0039
763.7055	-0.0039
763.8803	-0.008
764.055	0.0046
764.2297	-0.002
764.4044	-0.0139
764.579	-0.0117
764.7537	-0.0144
764.9283	-0.0001
765.1029	-0.0056
765.2775	-0.0112
765.4521	-0.0151
765.6266	-0.0082
765.8011	-0.0059
765.9756	-0.0057
766.1501	0.0038
766.3246	0.0007
766.4991	0.0022
766.6735	0.0006
766.8479	-0.0106
767.0223	0.0031
767.1967	-0.0014
767.371	-0.0038
767.5454	0.0044
767.7197	0.0003
767.894	-0.0041
768.0683	-0.0156
768.2425	-0.0002
768.4168	0.0015
768.591	-0.0003
768.7652	0.0005
768.9394	0.0012
769.1135	-0.0047
769.2877	0.0008
769.4618	0.0061
769.6359	-0.0057
769.81	-0.0018
769.984	0.001
770.1581	-0.0133
770.3321	-0.0016
770.5061	0.0005
770.6801	0.0028
770.8541	-0.01
771.028	-0.0006
771.202	-0.0183
771.3759	-0.0014
771.5498	-0.0101
771.7236	0.0077
771.8975	-0.0046
772.0713	0.004
772.2451	0.0089
772.4189	0.0119
772.5927	0.0097
772.7665	0.0013
772.9402	-0.0048
773.1139	0.0089
773.2876	-0.0029
773.4613	0.0092
773.635	0.0127
773.8086	-0.0101
773.9822	0.0073
774.1558	0.0087
774.3294	-0.0066
774.503	-0.0044
774.6765	0.0047
774.8501	0.0137
775.0236	0.0081
775.1971	0.0121
775.3705	-0.0061
775.544	0.0141
775.7174	-0.01
775.8908	-0.0031
776.0642	-0.0029
776.2376	-0.0006
776.4109	-0.0073
776.5843	-0.0022
776.7576	0.011
776.9309	0.0019
777.1041	0.0018
777.2774	0.0176
777.4506	0.0003
777.6238	-0.0138
777.797	-0.0015
777.9702	0.0029
778.1434	0.003
778.3165	-0.0079
778.4896	0.0009
778.6627	0.0086
778.8358	0.016
779.0089	0.0009
779.1819	0.0038
779.3549	0.0153
779.5279	0.0098
779.7009	0.0113
779.8739	0.0063
780.0468	0.0112
780.2197	0.009
780.3926	0.0081
780.5655	0.0057
780.7384	-0.0055
780.9112	-0.01
781.0841	-0.0064
781.2569	0.0029
781.4297	-0.001
781.6024	0.0149
781.7752	0.0041
781.9479	0.0096
782.1206	0.0109
782.2933	-0.0055
782.466	0.0073
782.6386	0.0068
782.8113	0.0054
782.9839	0.0016
783.1565	0.0124
783.329	0.0073
783.5016	0.0186
783.6741	0.0064
783.8466	-0.0042
784.0191	0.0052
784.1916	-0.0157
784.3641	0.007
784.5365	0.0073
784.7089	-0.0076
784.8813	0.0004
785.0537	-0.007
785.2261	0.0081
785.3984	-0.0006
785.5707	0.0016
785.743	0.0093
785.9153	-0.0166
786.0876	0.0031
786.2598	0.001
786.432	-0.0078
786.6042	0.0147
786.7764	-0.005
786.9486	0.0146
787.1207	-0.0069
787.2928	0.0165
787.4649	0.0002
787.637	0.0077
787.8091	-0.0117
787.9811	-0.0087
788.1532	-0.0027
788.3252	0.0067
788.4972	-0.0131
788.6691	-0.0052
788.8411	0.0029
789.013	-0.0169
789.1849	-0.0083
789.3568	-0.0062
789.5287	0.0051
789.7005	0.004
789.8723	0.0058
790.0442	0.0209
790.2159	0.0058
790.3877	-0.0052
790.5595	-0.0112
790.7312	-0.0056
790.9029	-0.01
791.0746	-0.0106
791.2463	-0.0132
791.4179	-0.0066
791.5896	-0.0097
791.7612	-0.0061
791.9328	0.0059
792.1044	-0.0175
792.2759	-0.0207
792.4474	-0.0129
792.619	0.0093
792.7905	-0.0031
792.9619	-0.0023
793.1334	0.0113
793.3048	0.0063
793.4762	-0.0022
793.6476	0.0108
793.819	-0.0113
793.9904	0.0225
794.1617	-0.0069
794.333	0.0111
794.5043	-0.0062
794.6756	-0.0076
794.8469	0.0159
795.0181	-0.0067
795.1893	-0.005
795.3605	0.0119
795.5317	-0.0052
795.7029	-0.007
795.874	-0.014
796.0452	-0.012
796.2163	-0.0073
796.3873	0.0144
796.5584	0.0054
796.7294	-0.0081
796.9005	0.0112
797.0715	-0.0025
797.2425	-0.0056
797.4134	-0.0184
797.5844	-0.009
797.7553	-0.0103
797.9262	0.0062
798.0971	-0.0253
798.2679	-0.0162
798.4388	-0.026
798.6096	-0.0046
798.7804	-0.0049
798.9512	-0.017
799.122	-0.0111
799.2927	-0.0023
799.4635	0.0053
799.6342	-0.0129
799.8049	-0.0037
799.9755	-0.0081
800.1462	-0.0147
800.3168	0.0075
800.4874	0.0097
800.658	0.0164
800.8286	-0.011
800.9991	-0.0178
801.1696	-0.0006
801.3402	0.0011
801.5106	0.0151
801.6811	-0.0185
801.8516	0.004
802.022	0.0051
802.1924	0.0128
802.3628	-0.0037
802.5332	-0.0049
802.7035	0.0177
802.8739	0.0044
803.0442	-0.0276
803.2145	0.0146
803.3847	-0.0382
803.555	-0.0062
803.7252	-0.0277
803.8954	-0.0227
804.0656	-0.0226
804.2358	-0.0144
804.4059	0.0061
804.5761	-0.0098
804.7462	-0.0168
804.9163	-0.014
805.0864	-0.0131
805.2564	-0.0144
805.4264	0.0008
805.5965	0.0008
805.7665	0.0051
805.9364	-0.0087
806.1064	0.0179
806.2763	0.0084
806.4462	0.0006
806.6161	0.0098
806.786	0.0048
806.9559	-0.0185
807.1257	-0.0102
807.2955	-0.0065
807.4653	0.0004
807.6351	-0.0159
807.8048	-0.0082
807.9746	-0.0012
808.1443	-0.0215
808.314	0.0077
808.4837	-0.0254
808.6533	-0.0268
808.8229	0.004
808.9926	-0.0149
809.1622	-0.0069
809.3317	-0.0172
809.5013	-0.0198
809.6708	-0.0037
809.8403	0.0135
810.0098	-0.0084
810.1793	-0.0159
810.3488	-0.0171
810.5182	-0.0243
810.6876	-0.0164
810.857	-0.0207
811.0264	0.0173
811.1958	0.0023
811.3651	0.0079
811.5344	0.0069
811.7037	-0.0188
811.873	-0.0102
812.0422	0.0039
812.2115	-0.0017
812.3807	-0.0239
812.5499	0.0161
812.7191	-0.0033
812.8882	-0.0032
813.0574	-0.011
813.2265	-0.0192
813.3956	0.0048
813.5646	-0.0145
813.7337	-0.02
813.9027	0.0219
814.0718	0.0138
814.2407	0.0175
814.4097	0.0022
814.5787	-0.0041
814.7476	-0.0096
814.9165	-0.0003
815.0854	-0.012
815.2543	0.0043
815.4232	-0.0126
815.592	0.0182
815.7608	-0.0057
815.9296	0.0049
816.0984	-0.0007
816.2671	-0.0231
816.4359	-0.0259
816.6046	-0.0097
816.7733	-0.0076
816.942	-0.0239
817.1106	-0.0075
817.2793	0.0097
817.4479	-0.0098
817.6165	0.0373
817.785	-0.0001
817.9536	0.0146
818.1221	-0.003
818.2906	0.0073
818.4591	-0.034
818.6276	-0.0137
818.7961	-0.0024
818.9645	0.0117
819.1329	-0.0142
819.3013	-0.0024
819.4697	0.0142
819.638	-0.0032
819.8064	0.002
819.9747	-0.008
820.143	0.0061
820.3113	-0.0265
820.4795	0.0052
820.6477	-0.0163
820.816	-0.0049
820.9842	-0.0149
821.1523	-0.0239
821.3205	-0.0078
821.4886	-0.0236
821.6567	-0.0217
821.8248	-0.0001
821.9929	0.0392
822.1609	-0.0199
822.329	0.0145
822.497	0.0149
822.665	-0.0044
822.833	-0.0197
823.0009	0.0191
823.1688	0.0156
823.3367	0.0325
823.5046	0.0231
823.6725	0.0191
823.8404	0.0095
824.0082	0.0252
824.176	0.0071
824.3438	0.0223
824.5116	-0.0153
824.6793	0.0028
824.847	-0.0123
825.0147	-0.001
825.1824	0.0257
825.3501	0.0176
825.5177	-0.0226
825.6854	-0.0178
825.853	0.0075
826.0206	-0.0281
826.1881	-0.0005
826.3557	-0.0411
826.5232	0.0078
826.6907	-0.0305
826.8582	-0.0169
827.0257	-0.02
827.1931	0.0049
827.3605	-0.0028
827.528	-0.0289
827.6953	-0.0178
827.8627	-0.0015
828.03	0.0348
828.1974	-0.0048
828.3647	-0.0557
828.532	-0.0365
828.6992	-0.0084
828.8665	-0.0305
829.0337	-0.0141
829.2009	0.0224
829.3681	-0.0037
829.5352	0.0309
829.7024	-0.0352
829.8695	-0.0139
830.0366	0.0308
830.2037	-0.0151
830.3707	0.0165
830.5378	-0.0039
830.7048	0.0268
830.8718	-0.0103
831.0388	-0.0214
831.2057	0.0412
831.3727	0.0099
831.5396	-0.0293
831.7065	-0.037
831.8734	0.002
832.0402	-0.041
832.2071	-0.0306
832.3739	-0.0527
832.5407	-0.0125
832.7075	-0.0106
832.8742	-0.0152
833.041	-0.065
833.2077	-0.011
833.3744	0.0329
833.541	-0.0179
833.7077	-0.0094
833.8743	-0.0231
834.0409	-0.0274
834.2075	-0.0139
834.3741	-0.0194
834.5407	0.005
834.7072	-0.0157
834.8737	-0.0478
835.0402	-0.0237
835.2067	0.0005
835.3731	-0.0176
835.5395	-0.0375
835.706	0.0341
835.8723	0.0227
836.0387	0.0073
836.2051	-0.0303
836.3714	0.0467
836.5377	0.0195
836.704	-0.0448
836.8703	0.0131
837.0365	0.0185
837.2027	-0.0114
837.3689	0.0275
837.5351	-0.0032
837.7013	-0.0152
837.8674	-0.0347
838.0335	0.0015
838.1997	-0.0376
838.3657	-0.0883
838.5318	-0.0297
838.6978	0.0281
838.8639	0.0073
839.0299	0.0094
839.1958	-0.0208
839.3618	0.0102
839.5277	0.0208
839.6937	0.0288
839.8596	-0.035
840.0254	0.0166
840.1913	0.009
840.3571	-0.008
840.523	-0.0042
840.6888	-0.0589
840.8545	-0.0362
841.0203	-0.0089
841.186	0.0111
841.3517	0.019
841.5174	0.0194
841.6831	-0.0258
841.8488	0.0034
842.0144	0.0146
842.18	0.0348
842.3456	0.0035
842.5112	-0.0172
842.6767	-0.0563
842.8422	0.0296
843.0077	-0.032
843.1732	-0.0518
843.3387	-0.0382
843.5042	-0.0711
843.6696	-0.0215
843.835	-0.0502
844.0004	0.0106
844.1657	-0.0102
844.3311	-0.0029
844.4964	-0.0404
844.6617	-0.0091
844.827	0.0211
844.9923	-0.0375
845.1575	-0.0212
845.3227	0.0246
845.4879	-0.0639
845.6531	-0.0212
845.8183	-0.0309
845.9834	-0.0077
846.1485	-0.0246
846.3136	-0.0925
846.4787	-0.081
846.6438	0.0764
846.8088	-0.0956
846.9738	-0.0624
847.1388	0.0053
847.3038	-0.0556
847.4687	-0.14
847.6337	0.0389
847.7986	0.0356
847.9635	-0.0219
848.1284	0.0235
848.2932	0.0316
848.458	0.0858
848.6228	0.0224
848.7876	-0.0004
848.9524	-0.0319
849.1172	-0.0668
849.2819	-0.0479
849.4466	-0.087
849.6113	-0.1059
849.7759	0.0137
849.9406	-0.0021
850.1052	0.0441
850.2698	-0.0735
850.4344	-0.0574
850.599	-0.0624
850.7635	0.0722
850.928	0.023
851.0925	-0.0265
851.257	0.0195
851.4215	0.0558
851.5859	-0.0198
851.7503	0.0448
851.9147	-0.0616
852.0791	-0.0215
852.2434	0.0052
852.4078	0.0523
852.5721	0.0177
852.7364	-0.0145
852.9007	-0.1561
853.0649	0.1588
853.2291	0.0146
853.3934	0.0064
853.5575	0.1011
853.7217	-0.0477
853.8859	-0.203
854.05	0.0266
854.2141	0.0373
854.3782	-0.0255
854.5423	-0.0678
854.7063	0.0799
854.8703	-0.0169
855.0343	-0.0808
855.1983	-0.1571
855.3623	0.1839
855.5262	0.1294
855.6901	-0.0243
855.854	0.0316
856.0179	0.0874
856.1818	0.0753
856.3456	-0.0458
856.5094	-0.0726
856.6732	-0.0391
856.837	0.0743
857.0008	-0.0145
857.1645	-0.0412
857.3282	0.0097
857.4919	0.1683
857.6556	0.1783
857.8192	0.0193
857.9828	0.005
858.1465	-0.0311
858.31	-0.1071
858.4736	-0.084
858.6372	-0.3342
858.8007	-0.242
858.9642	0.1068
859.1277	0.0819
859.2911	0.298
859.4546	-0.1449
859.618	-0.2488
859.7814	0.0128
859.9448	-0.0303
860.1081	-0.0784
860.2715	0.1853
860.4348	-0.1486
860.5981	-0.0745
860.7614	0.1873
860.9246	0.0384
861.0879	-0.1114
861.2511	0.0514
861.4143	-0.3465
861.5774	0.1692
861.7406	-0.1134
861.9037	-0.0426
862.0668	-0.161
862.2299	-0.126
862.393	-0.5405
862.556	-0.0012
862.7191	0.2196
862.8821	0.2592
863.0451	0.0041
863.208	0.0074
863.371	-0.1003
863.5339	0.454
863.6968	0.0037
863.8597	0.1437
864.0225	-0.0672
864.1854	0.0068
864.3482	-0.003
864.511	0.0449
864.6737	-0.116
864.8365	0.3951
864.9992	-0.3021
865.1619	0.0194
865.3246	-0.148
865.4873	0.2176
865.65	0.2088
865.8126	-0.002
865.9752	0.1228
866.1378	0.0343
866.3004	0.476
866.4629	0.2172
866.6254	-0.3925
866.7879	-0.0302
866.9504	-0.361
867.1129	-0
867.2753	0.424
867.4377	0.1893
867.6001	-0.2685
867.7625	-0.1009
867.9249	-0.7639
868.0872	0.0337
868.2495	0.0169
868.4118	-0.2939
868.5741	-0.8037
868.7363	0.1143
868.8986	-0.4998
869.0608	0.257
869.223	0.4718
869.3851	0.2312
869.5473	-0.1997
869.7094	0.0089
869.8715	0.3514
870.0336	-0.6475
870.1957	-0.0868
870.3577	-0
870.5197	-0.0353
870.6817	-0.3219
870.8437	-0.1746
871.0057	-0.2156
871.1676	-0.3979
871.3295	-0
871.4914	-0.6499
871.6533	-0.4057
871.8151	-0.1965
871.977	-0
872.1388	-0
872.3006	0.1747
872.4623	-0
872.6241	-0
872.7858	-0
872.9475	-0.1268
873.1092	-0.2089
873.2709	-0.186
873.4325	-0.1014
873.5941	-0.1109
873.7557	-0
873.9173	-0.4598
874.0789	-0.5013
874.2404	-0.0698
874.4019	0.184
874.5634	-0.073
874.7249	1.14
874.8863	-0.1428
875.0478	0.1393
875.2092	-0
875.3706	0.3799
875.5319	-0
875.6933	-0.066
875.8546	0.1885
876.0159	-0
876.1772	-0
876.3385	-0
876.4997	-0.0194
876.6609	-0.4907
876.8221	0.2879
876.9833	0.3616
877.1445	-0
877.3056	-0.0356
877.4667	-0.2339
877.6278	0.2266
877.7889	-0.1318
877.9499	-0.8396
878.111	-0.5278
878.272	-0
878.433	-0.2618
878.5939	-0
878.7549	-0
878.9158	-0
879.0767	-0
879.2376	-0
879.3984	0.5183
879.5593	-0
879.7201	-0.0483
879.8809	-0.6778
880.0417	0.7977
880.2024	0.2154
880.3632	-0.4715
880.5239	0.5747
880.6846	0.7263
880.8452	-2.1089
881.0059	-1.5038
881.1665	-0.352
881.3271	-0
881.4877	-0
881.6483	-0.1457
881.8088	-0.49
881.9693	0.495
882.1298	0.495
882.2903	0.495
