Data from MonoPyChalIsomerACN10uM420nmA_Absorbance_15-09-48-835.txt Node
Date: Fri Jul 05 15:09:48 BST 2024
User: LASERRRRR
Spectrometer: FLMT03099
Trigger mode: 0
Integration Time (sec): 1.000000E-1
Scans to average: 1
Electric dark correction enabled: true
Nonlinearity correction enabled: false
Boxcar width: 0
XAxis mode: Wavelengths
Number of Pixels in Spectrum: 3648
>>>>>Begin Spectral Data<<<<<
179.3399	-0.3107
179.5586	-0.3107
179.7771	-0.3107
179.9957	0.2751
180.2143	-0
180.4329	-0.203
180.6514	-0
180.8699	0.616
181.0885	-0.1468
181.307	0.1897
181.5255	-0.9491
181.744	-0
181.9625	-0
182.181	-1.0099
182.3994	0.3029
182.6179	-0
182.8363	-0.1223
183.0547	-0.4853
183.2732	0.0511
183.4916	0.1648
183.71	-0.0302
183.9284	0.1801
184.1467	-0.016
184.3651	0.1392
184.5835	-0.0347
184.8018	-0.0113
185.0201	-0.0328
185.2385	-0.1707
185.4568	-0.0047
185.6751	-0.0693
185.8934	0.0813
186.1117	-0.0658
186.3299	0.3845
186.5482	-0.0585
186.7664	-0.0452
186.9847	-0.1049
187.2029	-0.0345
187.4211	-0.1487
187.6393	-0.0206
187.8575	-0.0451
188.0757	0.1152
188.2939	0.0727
188.512	0.24
188.7302	-0.1173
188.9483	-0.0307
189.1665	0.1608
189.3846	-0.1581
189.6027	0.3363
189.8208	0.183
190.0389	0.0178
190.257	0.1641
190.475	0.0674
190.6931	0.1446
190.9111	0.163
191.1292	0.078
191.3472	0.3127
191.5652	0.2633
191.7832	0.2651
192.0012	0.5122
192.2192	0.1734
192.4371	0.4297
192.6551	0.118
192.873	0.44
193.091	0.2642
193.3089	0.4318
193.5268	0.3281
193.7447	0.6775
193.9626	0.5381
194.1805	0.6937
194.3984	0.6174
194.6162	0.43
194.8341	0.5418
195.0519	0.5008
195.2697	0.5098
195.4875	0.7164
195.7054	0.5631
195.9231	0.4339
196.1409	0.5181
196.3587	0.6573
196.5765	0.5669
196.7942	0.4952
197.012	0.486
197.2297	0.6186
197.4474	0.5642
197.6651	0.6025
197.8828	0.5069
198.1005	0.4982
198.3182	0.5268
198.5358	0.6454
198.7535	0.5932
198.9711	0.5615
199.1888	0.6378
199.4064	0.6863
199.624	0.5377
199.8416	0.5141
200.0592	0.6506
200.2767	0.6169
200.4943	0.5979
200.7119	0.822
200.9294	0.5897
201.1469	0.5316
201.3645	0.515
201.582	0.6055
201.7995	0.5204
202.017	0.7114
202.2344	0.6041
202.4519	0.656
202.6694	0.5528
202.8868	0.6013
203.1042	0.7221
203.3217	0.6012
203.5391	0.6672
203.7565	0.6033
203.9739	0.6651
204.1913	0.5639
204.4086	0.6033
204.626	0.6973
204.8433	0.6914
205.0607	0.6399
205.278	0.594
205.4953	0.5795
205.7126	0.6069
205.9299	0.7412
206.1472	0.7309
206.3644	0.5592
206.5817	0.68
206.7989	0.6854
207.0162	0.6358
207.2334	0.6784
207.4506	0.6522
207.6678	0.5773
207.885	0.6755
208.1022	0.6717
208.3194	0.6612
208.5365	0.6022
208.7537	0.6261
208.9708	0.6698
209.1879	0.5884
209.405	0.618
209.6222	0.7085
209.8392	0.6857
210.0563	0.5998
210.2734	0.6641
210.4905	0.6447
210.7075	0.5441
210.9245	0.5433
211.1416	0.7296
211.3586	0.6122
211.5756	0.6053
211.7926	0.6022
212.0096	0.5817
212.2265	0.5709
212.4435	0.6371
212.6604	0.6249
212.8774	0.5676
213.0943	0.5531
213.3112	0.5518
213.5281	0.5081
213.745	0.4672
213.9619	0.534
214.1788	0.4778
214.3956	0.4776
214.6125	0.486
214.8293	0.4559
215.0461	0.471
215.2629	0.4825
215.4798	0.4785
215.6965	0.418
215.9133	0.4252
216.1301	0.4126
216.3469	0.4385
216.5636	0.4543
216.7803	0.419
216.9971	0.4119
217.2138	0.3736
217.4305	0.3834
217.6472	0.3617
217.8639	0.3791
218.0805	0.3682
218.2972	0.312
218.5138	0.3521
218.7305	0.3092
218.9471	0.3051
219.1637	0.3207
219.3803	0.3033
219.5969	0.2881
219.8135	0.2613
220.0301	0.2823
220.2466	0.2677
220.4632	0.2626
220.6797	0.2564
220.8962	0.2667
221.1127	0.2627
221.3292	0.2467
221.5457	0.2496
221.7622	0.2557
221.9787	0.2524
222.1951	0.2707
222.4116	0.2771
222.628	0.268
222.8444	0.2668
223.0608	0.26
223.2772	0.2452
223.4936	0.2904
223.71	0.2682
223.9264	0.2709
224.1427	0.2469
224.3591	0.2554
224.5754	0.2736
224.7917	0.2647
225.008	0.2581
225.2243	0.2781
225.4406	0.2704
225.6569	0.2829
225.8732	0.2544
226.0894	0.2654
226.3057	0.2489
226.5219	0.284
226.7381	0.2769
226.9543	0.2721
227.1705	0.2947
227.3867	0.2954
227.6029	0.2927
227.8191	0.2945
228.0352	0.3027
228.2513	0.3175
228.4675	0.3354
228.6836	0.3092
228.8997	0.3044
229.1158	0.3079
229.3319	0.3254
229.548	0.3303
229.764	0.3336
229.9801	0.333
230.1961	0.3283
230.4121	0.3419
230.6282	0.3483
230.8442	0.3197
231.0602	0.343
231.2761	0.356
231.4921	0.3465
231.7081	0.3537
231.924	0.3516
232.14	0.3611
232.3559	0.3528
232.5718	0.3521
232.7877	0.3584
233.0036	0.3594
233.2195	0.3844
233.4353	0.3574
233.6512	0.369
233.867	0.3716
234.0829	0.3594
234.2987	0.376
234.5145	0.3762
234.7303	0.388
234.9461	0.3878
235.1619	0.3985
235.3776	0.3689
235.5934	0.392
235.8091	0.3579
236.0249	0.3849
236.2406	0.3966
236.4563	0.3935
236.672	0.3876
236.8877	0.403
237.1034	0.4098
237.319	0.3826
237.5347	0.395
237.7503	0.3935
237.966	0.4053
238.1816	0.4115
238.3972	0.4019
238.6128	0.3919
238.8284	0.4261
239.0439	0.415
239.2595	0.397
239.475	0.4116
239.6906	0.4209
239.9061	0.4116
240.1216	0.4006
240.3371	0.4064
240.5526	0.3976
240.7681	0.4111
240.9836	0.3906
241.199	0.4015
241.4145	0.3921
241.6299	0.389
241.8453	0.3912
242.0607	0.4056
242.2761	0.3592
242.4915	0.3645
242.7069	0.3635
242.9223	0.3431
243.1376	0.3418
243.353	0.3429
243.5683	0.3496
243.7836	0.3252
243.9989	0.3261
244.2142	0.3056
244.4295	0.3195
244.6448	0.304
244.86	0.303
245.0753	0.2756
245.2905	0.2703
245.5057	0.2735
245.721	0.2616
245.9362	0.2592
246.1514	0.2756
246.3665	0.244
246.5817	0.26
246.7969	0.255
247.012	0.235
247.2271	0.2236
247.4423	0.244
247.6574	0.2301
247.8725	0.2364
248.0876	0.224
248.3026	0.22
248.5177	0.2172
248.7328	0.2205
248.9478	0.2036
249.1628	0.1973
249.3779	0.2163
249.5929	0.2055
249.8079	0.2175
250.0228	0.1979
250.2378	0.1993
250.4528	0.2119
250.6677	0.1828
250.8827	0.2012
251.0976	0.1885
251.3125	0.1702
251.5274	0.175
251.7423	0.1914
251.9572	0.1929
252.172	0.191
252.3869	0.1835
252.6017	0.1765
252.8166	0.1729
253.0314	0.1804
253.2462	0.1645
253.461	0.1832
253.6758	0.1725
253.8906	0.1868
254.1053	0.1697
254.3201	0.1783
254.5348	0.1817
254.7496	0.1885
254.9643	0.1685
255.179	0.1764
255.3937	0.1656
255.6083	0.1745
255.823	0.1753
256.0377	0.1549
256.2523	0.1689
256.467	0.1521
256.6816	0.1719
256.8962	0.1678
257.1108	0.1616
257.3254	0.1805
257.54	0.1747
257.7545	0.1806
257.9691	0.1714
258.1836	0.1751
258.3981	0.1808
258.6127	0.1713
258.8272	0.1677
259.0417	0.155
259.2561	0.1606
259.4706	0.1602
259.6851	0.1725
259.8995	0.1563
260.114	0.162
260.3284	0.165
260.5428	0.1596
260.7572	0.1769
260.9716	0.1618
261.186	0.1583
261.4003	0.1696
261.6147	0.1648
261.829	0.1725
262.0433	0.1711
262.2577	0.1765
262.472	0.1796
262.6863	0.1641
262.9005	0.1702
263.1148	0.1727
263.3291	0.1543
263.5433	0.147
263.7576	0.1764
263.9718	0.1662
264.186	0.1567
264.4002	0.1717
264.6144	0.1615
264.8286	0.1721
265.0427	0.1694
265.2569	0.1496
265.471	0.1644
265.6851	0.1493
265.8993	0.1615
266.1134	0.159
266.3275	0.1623
266.5415	0.1633
266.7556	0.163
266.9697	0.1773
267.1837	0.1611
267.3978	0.1676
267.6118	0.1586
267.8258	0.173
268.0398	0.1601
268.2538	0.1714
268.4677	0.1481
268.6817	0.1429
268.8957	0.1695
269.1096	0.1583
269.3235	0.1755
269.5374	0.1478
269.7514	0.1562
269.9652	0.1481
270.1791	0.1583
270.393	0.1546
270.6068	0.1476
270.8207	0.1469
271.0345	0.1398
271.2483	0.1435
271.4622	0.144
271.676	0.1611
271.8897	0.134
272.1035	0.1448
272.3173	0.1387
272.531	0.1425
272.7448	0.1468
272.9585	0.135
273.1722	0.1471
273.3859	0.1354
273.5996	0.13
273.8133	0.1498
274.0269	0.1376
274.2406	0.1368
274.4542	0.1343
274.6679	0.1267
274.8815	0.1411
275.0951	0.1398
275.3087	0.1474
275.5223	0.144
275.7358	0.1421
275.9494	0.1388
276.1629	0.137
276.3765	0.1388
276.59	0.1445
276.8035	0.1457
277.017	0.1374
277.2305	0.1383
277.444	0.1431
277.6574	0.1263
277.8709	0.1501
278.0843	0.1353
278.2978	0.1295
278.5112	0.1333
278.7246	0.1478
278.938	0.1512
279.1513	0.1327
279.3647	0.1549
279.5781	0.1382
279.7914	0.1453
280.0047	0.1623
280.2181	0.1477
280.4314	0.1515
280.6447	0.1531
280.8579	0.1589
281.0712	0.1512
281.2845	0.1673
281.4977	0.1482
281.711	0.1378
281.9242	0.1581
282.1374	0.1548
282.3506	0.1487
282.5638	0.146
282.7769	0.1421
282.9901	0.1498
283.2033	0.165
283.4164	0.1583
283.6295	0.1421
283.8426	0.142
284.0557	0.1596
284.2688	0.1699
284.4819	0.1638
284.695	0.1493
284.908	0.1531
285.1211	0.1454
285.3341	0.1567
285.5471	0.1549
285.7601	0.1554
285.9731	0.151
286.1861	0.1607
286.3991	0.1693
286.612	0.1652
286.825	0.1601
287.0379	0.1687
287.2508	0.1505
287.4637	0.1644
287.6766	0.1527
287.8895	0.1692
288.1024	0.1759
288.3152	0.1673
288.5281	0.1509
288.7409	0.1628
288.9538	0.1559
289.1666	0.1658
289.3794	0.162
289.5922	0.1563
289.8049	0.1664
290.0177	0.1686
290.2304	0.1836
290.4432	0.1663
290.6559	0.1786
290.8686	0.1654
291.0813	0.1745
291.294	0.1761
291.5067	0.1809
291.7194	0.1771
291.932	0.1688
292.1447	0.1706
292.3573	0.1619
292.5699	0.1708
292.7825	0.1782
292.9951	0.1692
293.2077	0.1675
293.4203	0.1701
293.6328	0.1527
293.8454	0.1735
294.0579	0.1679
294.2704	0.1741
294.4829	0.1604
294.6954	0.1664
294.9079	0.1775
295.1204	0.1635
295.3328	0.1778
295.5453	0.1733
295.7577	0.1741
295.9701	0.1638
296.1825	0.171
296.3949	0.1674
296.6073	0.1718
296.8197	0.1682
297.0321	0.1792
297.2444	0.1664
297.4567	0.1716
297.6691	0.18
297.8814	0.1678
298.0937	0.1719
298.306	0.1757
298.5182	0.1609
298.7305	0.1733
298.9428	0.1612
299.155	0.175
299.3672	0.1721
299.5794	0.169
299.7916	0.1654
300.0038	0.178
300.216	0.164
300.4282	0.1771
300.6403	0.1769
300.8525	0.179
301.0646	0.1661
301.2767	0.1691
301.4888	0.1684
301.7009	0.1753
301.913	0.1713
302.125	0.179
302.3371	0.1686
302.5491	0.154
302.7612	0.1732
302.9732	0.1687
303.1852	0.1774
303.3972	0.1702
303.6092	0.1505
303.8211	0.1682
304.0331	0.1636
304.245	0.1652
304.457	0.1579
304.6689	0.1669
304.8808	0.1784
305.0927	0.1528
305.3046	0.1586
305.5164	0.1593
305.7283	0.1454
305.9401	0.1539
306.152	0.1478
306.3638	0.1623
306.5756	0.1477
306.7874	0.1531
306.9992	0.1627
307.2109	0.1471
307.4227	0.1281
307.6344	0.149
307.8462	0.1453
308.0579	0.1469
308.2696	0.1354
308.4813	0.135
308.693	0.1271
308.9046	0.1428
309.1163	0.1359
309.328	0.1318
309.5396	0.1275
309.7512	0.1216
309.9628	0.1146
310.1744	0.1183
310.386	0.121
310.5976	0.1277
310.8091	0.1167
311.0207	0.1175
311.2322	0.1224
311.4437	0.1107
311.6552	0.109
311.8667	0.1192
312.0782	0.1027
312.2897	0.1035
312.5012	0.1202
312.7126	0.1137
312.924	0.1158
313.1355	0.1157
313.3469	0.1158
313.5583	0.1103
313.7696	0.1001
313.981	0.0988
314.1924	0.1081
314.4037	0.0967
314.6151	0.0938
314.8264	0.1005
315.0377	0.0985
315.249	0.0953
315.4603	0.1073
315.6716	0.0972
315.8828	0.0854
316.0941	0.1068
316.3053	0.0966
316.5165	0.0849
316.7277	0.089
316.9389	0.1043
317.1501	0.0912
317.3613	0.1024
317.5724	0.072
317.7836	0.096
317.9947	0.0904
318.2058	0.0974
318.417	0.0893
318.6281	0.0769
318.8391	0.0901
319.0502	0.0886
319.2613	0.0837
319.4723	0.109
319.6834	0.1021
319.8944	0.0882
320.1054	0.0923
320.3164	0.0945
320.5274	0.0947
320.7383	0.0845
320.9493	0.1028
321.1602	0.1051
321.3712	0.0794
321.5821	0.0892
321.793	0.0956
322.0039	0.0942
322.2148	0.0855
322.4257	0.0986
322.6365	0.0889
322.8474	0.102
323.0582	0.0866
323.269	0.1026
323.4798	0.1007
323.6906	0.1032
323.9014	0.1114
324.1122	0.0971
324.3229	0.0859
324.5337	0.0935
324.7444	0.0939
324.9551	0.107
325.1658	0.097
325.3765	0.0905
325.5872	0.092
325.7979	0.092
326.0085	0.0953
326.2192	0.1074
326.4298	0.0972
326.6404	0.0892
326.851	0.088
327.0616	0.0962
327.2722	0.0971
327.4828	0.1043
327.6933	0.0932
327.9039	0.0999
328.1144	0.109
328.3249	0.0949
328.5354	0.0931
328.7459	0.0993
328.9564	0.0912
329.1669	0.0898
329.3773	0.0949
329.5878	0.0973
329.7982	0.1049
330.0086	0.0973
330.219	0.1012
330.4294	0.0986
330.6398	0.0896
330.8502	0.1007
331.0605	0.1032
331.2708	0.0997
331.4812	0.0973
331.6915	0.105
331.9018	0.1065
332.1121	0.0841
332.3224	0.1134
332.5326	0.1032
332.7429	0.1043
332.9531	0.1128
333.1633	0.1017
333.3735	0.0956
333.5837	0.101
333.7939	0.1008
334.0041	0.1112
334.2143	0.111
334.4244	0.11
334.6346	0.0836
334.8447	0.1228
335.0548	0.098
335.2649	0.0929
335.475	0.1063
335.685	0.1009
335.8951	0.1173
336.1051	0.1088
336.3152	0.1028
336.5252	0.0985
336.7352	0.0986
336.9452	0.0971
337.1552	0.1129
337.3652	0.0975
337.5751	0.1031
337.7851	0.1085
337.995	0.1088
338.2049	0.1055
338.4148	0.107
338.6247	0.1051
338.8346	0.0873
339.0445	0.0989
339.2543	0.0976
339.4642	0.1084
339.674	0.0982
339.8838	0.1049
340.0936	0.1093
340.3034	0.106
340.5132	0.1126
340.7229	0.1098
340.9327	0.0991
341.1424	0.1033
341.3522	0.1235
341.5619	0.1242
341.7716	0.1077
341.9813	0.1139
342.1909	0.1147
342.4006	0.1222
342.6102	0.1208
342.8199	0.1028
343.0295	0.118
343.2391	0.1229
343.4487	0.1326
343.6583	0.1142
343.8679	0.117
344.0774	0.13
344.287	0.1328
344.4965	0.1161
344.706	0.1191
344.9155	0.1153
345.125	0.118
345.3345	0.1293
345.544	0.1142
345.7534	0.1241
345.9629	0.1162
346.1723	0.1247
346.3817	0.1202
346.5911	0.1127
346.8005	0.139
347.0099	0.1194
347.2193	0.1267
347.4286	0.1275
347.638	0.1293
347.8473	0.1292
348.0566	0.1294
348.2659	0.1268
348.4752	0.1261
348.6845	0.1165
348.8937	0.1283
349.103	0.1434
349.3122	0.1261
349.5214	0.1277
349.7306	0.1472
349.9398	0.1308
350.149	0.1328
350.3582	0.1242
350.5674	0.1424
350.7765	0.1294
350.9856	0.132
351.1948	0.1349
351.4039	0.1308
351.613	0.134
351.822	0.1368
352.0311	0.1456
352.2402	0.1458
352.4492	0.14
352.6582	0.1336
352.8672	0.1365
353.0762	0.1452
353.2852	0.1417
353.4942	0.1308
353.7032	0.15
353.9121	0.1365
354.1211	0.1432
354.33	0.1561
354.5389	0.1483
354.7478	0.1445
354.9567	0.1431
355.1655	0.1372
355.3744	0.1416
355.5833	0.1615
355.7921	0.1738
356.0009	0.1525
356.2097	0.1578
356.4185	0.157
356.6273	0.1516
356.8361	0.163
357.0448	0.1523
357.2536	0.1596
357.4623	0.1449
357.671	0.1593
357.8797	0.1656
358.0884	0.1673
358.2971	0.1587
358.5057	0.1798
358.7144	0.1581
358.923	0.1568
359.1316	0.171
359.3402	0.1677
359.5488	0.1679
359.7574	0.1558
359.966	0.1752
360.1746	0.1737
360.3831	0.1851
360.5916	0.1798
360.8002	0.1657
361.0087	0.1953
361.2172	0.1903
361.4256	0.1652
361.6341	0.1848
361.8426	0.1859
362.051	0.1719
362.2594	0.1871
362.4678	0.1718
362.6762	0.2019
362.8846	0.1827
363.093	0.1806
363.3014	0.1742
363.5097	0.165
363.718	0.1879
363.9264	0.192
364.1347	0.1808
364.343	0.19
364.5513	0.1936
364.7595	0.2076
364.9678	0.2054
365.176	0.194
365.3842	0.1968
365.5925	0.2007
365.8007	0.1953
366.0089	0.1992
366.217	0.18
366.4252	0.2183
366.6333	0.2127
366.8415	0.2101
367.0496	0.1936
367.2577	0.2152
367.4658	0.2054
367.6739	0.2017
367.882	0.217
368.09	0.2152
368.2981	0.2069
368.5061	0.2037
368.7141	0.2153
368.9221	0.2225
369.1301	0.2152
369.3381	0.2205
369.5461	0.2288
369.754	0.2039
369.962	0.229
370.1699	0.2155
370.3778	0.2215
370.5857	0.2219
370.7936	0.2245
371.0015	0.221
371.2093	0.232
371.4172	0.2215
371.625	0.2282
371.8328	0.218
372.0406	0.2337
372.2484	0.2128
372.4562	0.2236
372.664	0.2243
372.8717	0.2379
373.0795	0.2114
373.2872	0.2271
373.4949	0.2273
373.7026	0.2556
373.9103	0.2478
374.118	0.2298
374.3256	0.2341
374.5333	0.2278
374.7409	0.2413
374.9485	0.2527
375.1561	0.2443
375.3637	0.2455
375.5713	0.2427
375.7789	0.237
375.9864	0.2335
376.194	0.238
376.4015	0.259
376.609	0.2482
376.8165	0.2512
377.024	0.237
377.2315	0.261
377.4389	0.2604
377.6464	0.2544
377.8538	0.2481
378.0612	0.2504
378.2686	0.2441
378.476	0.262
378.6834	0.2635
378.8908	0.2615
379.0981	0.2664
379.3055	0.2527
379.5128	0.2547
379.7201	0.2585
379.9274	0.266
380.1347	0.2523
380.342	0.2838
380.5492	0.2518
380.7565	0.2657
380.9637	0.2747
381.1709	0.2471
381.3781	0.2544
381.5853	0.2732
381.7925	0.2674
381.9997	0.2774
382.2068	0.2823
382.4139	0.2613
382.6211	0.2551
382.8282	0.267
383.0353	0.276
383.2424	0.2703
383.4494	0.2816
383.6565	0.2774
383.8635	0.2615
384.0706	0.2699
384.2776	0.2908
384.4846	0.2714
384.6916	0.2676
384.8986	0.2736
385.1055	0.2917
385.3125	0.2776
385.5194	0.249
385.7263	0.2677
385.9333	0.2594
386.1402	0.2624
386.347	0.2682
386.5539	0.2691
386.7608	0.2829
386.9676	0.255
387.1744	0.2696
387.3813	0.2538
387.5881	0.2807
387.7948	0.2596
388.0016	0.2673
388.2084	0.2736
388.4151	0.2563
388.6219	0.2716
388.8286	0.2666
389.0353	0.2626
389.242	0.2755
389.4487	0.2586
389.6553	0.2687
389.862	0.2456
390.0686	0.2628
390.2753	0.242
390.4819	0.2775
390.6885	0.2604
390.8951	0.2778
391.1016	0.2454
391.3082	0.2561
391.5147	0.2524
391.7213	0.2486
391.9278	0.2389
392.1343	0.2521
392.3408	0.2456
392.5473	0.2533
392.7537	0.2414
392.9602	0.2474
393.1666	0.2435
393.373	0.2403
393.5794	0.2718
393.7858	0.2412
393.9922	0.2181
394.1986	0.2492
394.4049	0.2348
394.6113	0.2323
394.8176	0.2388
395.0239	0.244
395.2302	0.2294
395.4365	0.2538
395.6428	0.2387
395.8491	0.2509
396.0553	0.2401
396.2615	0.2394
396.4678	0.2313
396.674	0.2297
396.8802	0.2476
397.0863	0.2502
397.2925	0.218
397.4987	0.2231
397.7048	0.2356
397.9109	0.247
398.117	0.2278
398.3231	0.2395
398.5292	0.2485
398.7353	0.2292
398.9413	0.2391
399.1474	0.2285
399.3534	0.2119
399.5594	0.2163
399.7654	0.2358
399.9714	0.2456
400.1774	0.2279
400.3833	0.2195
400.5893	0.2292
400.7952	0.2117
401.0011	0.2147
401.207	0.2287
401.4129	0.2335
401.6188	0.2329
401.8247	0.2305
402.0305	0.2253
402.2364	0.2319
402.4422	0.2204
402.648	0.2219
402.8538	0.2232
403.0596	0.2187
403.2654	0.2265
403.4711	0.2256
403.6768	0.228
403.8826	0.2232
404.0883	0.2344
404.294	0.2421
404.4997	0.2316
404.7054	0.2277
404.911	0.2329
405.1167	0.2205
405.3223	0.2304
405.5279	0.2464
405.7335	0.231
405.9391	0.2444
406.1447	0.2178
406.3502	0.2395
406.5558	0.2169
406.7613	0.2321
406.9668	0.2175
407.1724	0.2259
407.3778	0.2268
407.5833	0.2222
407.7888	0.2051
407.9942	0.2372
408.1997	0.2083
408.4051	0.2322
408.6105	0.2361
408.8159	0.2222
409.0213	0.2152
409.2267	0.2584
409.432	0.2196
409.6374	0.2394
409.8427	0.23
410.048	0.2205
410.2533	0.2212
410.4586	0.2127
410.6639	0.2095
410.8691	0.2136
411.0744	0.2309
411.2796	0.2163
411.4848	0.2197
411.69	0.2174
411.8952	0.2426
412.1004	0.1968
412.3056	0.2298
412.5107	0.2092
412.7158	0.2549
412.921	0.2256
413.1261	0.2272
413.3312	0.2146
413.5362	0.2129
413.7413	0.2121
413.9464	0.2205
414.1514	0.2222
414.3564	0.2215
414.5614	0.1967
414.7664	0.2252
414.9714	0.2156
415.1764	0.2165
415.3813	0.23
415.5863	0.2114
415.7912	0.2102
415.9961	0.2222
416.201	0.2117
416.4059	0.2184
416.6108	0.1989
416.8156	0.2217
417.0205	0.2119
417.2253	0.2105
417.4301	0.225
417.6349	0.2144
417.8397	0.2089
418.0445	0.2054
418.2492	0.2177
418.454	0.2141
418.6587	0.2253
418.8634	0.2134
419.0681	0.1921
419.2728	0.1995
419.4775	0.2045
419.6822	0.2013
419.8868	0.1802
420.0915	0.2058
420.2961	0.1968
420.5007	0.1898
420.7053	0.2024
420.9099	0.198
421.1144	0.211
421.319	0.2088
421.5235	0.2064
421.728	0.1989
421.9325	0.1999
422.137	0.2041
422.3415	0.1854
422.546	0.1949
422.7504	0.1932
422.9549	0.1965
423.1593	0.2125
423.3637	0.2028
423.5681	0.2009
423.7725	0.1849
423.9769	0.1838
424.1812	0.1822
424.3856	0.1856
424.5899	0.1834
424.7942	0.1969
424.9985	0.195
425.2028	0.1713
425.4071	0.1952
425.6113	0.1813
425.8156	0.1953
426.0198	0.1958
426.224	0.1716
426.4282	0.1728
426.6324	0.1803
426.8366	0.1765
427.0407	0.1718
427.2449	0.1813
427.449	0.1794
427.6531	0.1445
427.8572	0.1687
428.0613	0.1667
428.2654	0.1773
428.4694	0.1682
428.6735	0.1661
428.8775	0.1848
429.0815	0.1617
429.2855	0.16
429.4895	0.1735
429.6935	0.1859
429.8975	0.162
430.1014	0.1444
430.3053	0.1595
430.5093	0.1627
430.7132	0.1582
430.9171	0.1625
431.1209	0.1521
431.3248	0.1435
431.5286	0.1315
431.7325	0.152
431.9363	0.1505
432.1401	0.1508
432.3439	0.127
432.5477	0.1295
432.7514	0.1303
432.9552	0.14
433.1589	0.1352
433.3627	0.1366
433.5664	0.1416
433.7701	0.1112
433.9737	0.124
434.1774	0.1292
434.3811	0.1207
434.5847	0.1204
434.7883	0.1328
434.9919	0.1118
435.1955	0.1144
435.3991	0.1037
435.6027	0.1233
435.8062	0.1037
436.0098	0.1085
436.2133	0.118
436.4168	0.0973
436.6203	0.0959
436.8238	0.0936
437.0272	0.106
437.2307	0.1012
437.4341	0.1018
437.6375	0.1036
437.841	0.0911
438.0443	0.1138
438.2477	0.1025
438.4511	0.0835
438.6545	0.0892
438.8578	0.0974
439.0611	0.0912
439.2644	0.077
439.4677	0.0735
439.671	0.0777
439.8743	0.0969
440.0775	0.0947
440.2808	0.0784
440.484	0.0894
440.6872	0.0639
440.8904	0.062
441.0936	0.075
441.2967	0.0667
441.4999	0.0722
441.703	0.0669
441.9062	0.0667
442.1093	0.0639
442.3124	0.0745
442.5155	0.0526
442.7185	0.063
442.9216	0.0439
443.1246	0.0718
443.3276	0.0661
443.5307	0.0597
443.7337	0.0627
443.9366	0.0681
444.1396	0.0667
444.3426	0.0605
444.5455	0.0576
444.7484	0.0523
444.9513	0.0527
445.1542	0.0634
445.3571	0.0781
445.56	0.0684
445.7628	0.0282
445.9657	0.0377
446.1685	0.0438
446.3713	0.0498
446.5741	0.0423
446.7769	0.0374
446.9797	0.0407
447.1824	0.0449
447.3852	0.0276
447.5879	0.0531
447.7906	0.0462
447.9933	0.0338
448.196	0.0364
448.3986	0.024
448.6013	0.0317
448.8039	0.0253
449.0066	0.0335
449.2092	0.0411
449.4118	0.0382
449.6143	0.0343
449.8169	0.042
450.0195	0.0311
450.222	0.0189
450.4245	0.0247
450.627	0.0245
450.8295	0.0444
451.032	0.0214
451.2345	0.0337
451.4369	0.0229
451.6394	0.0227
451.8418	0.0002
452.0442	0.0179
452.2466	0.0283
452.449	-0.0046
452.6513	0.019
452.8537	0.0264
453.056	-0.0007
453.2583	0.0157
453.4607	0.0101
453.663	0.0233
453.8652	0.0153
454.0675	-0.0012
454.2697	0.0133
454.472	0.0045
454.6742	0.0274
454.8764	0.0188
455.0786	0.0199
455.2808	0.0096
455.4829	0.0187
455.6851	0.0237
455.8872	0.0272
456.0893	0.0209
456.2915	-0.002
456.4935	0.018
456.6956	-0.0017
456.8977	0.0098
457.0997	0.0121
457.3018	0.0019
457.5038	0.0106
457.7058	-0.0013
457.9078	0.0074
458.1098	0.0108
458.3117	0.0166
458.5137	0.012
458.7156	0.0119
458.9175	0.0008
459.1194	0.0057
459.3213	0.0005
459.5232	0.0021
459.725	0.0022
459.9269	-0.0067
460.1287	-0.0069
460.3305	-0.0028
460.5323	0.0064
460.7341	0.0036
460.9359	0.0064
461.1376	0.0158
461.3394	-0.0026
461.5411	0.0144
461.7428	-0.0011
461.9445	0.0143
462.1462	0.0222
462.3479	0.0064
462.5495	0.0017
462.7512	0.004
462.9528	0.0016
463.1544	-0.0158
463.356	-0.0068
463.5576	-0.004
463.7592	-0.009
463.9607	0.0188
464.1623	-0.0008
464.3638	0.0112
464.5653	-0.0113
464.7668	-0.0086
464.9683	0.017
465.1697	0.0173
465.3712	-0.0038
465.5726	-0.0106
465.7741	-0
465.9755	-0.0096
466.1769	-0.0023
466.3782	0.0024
466.5796	-0.02
466.7809	0.0086
466.9823	-0.0027
467.1836	-0.0081
467.3849	-0.002
467.5862	-0.0064
467.7875	0.0013
467.9887	0.0261
468.19	0.0063
468.3912	-0.0115
468.5924	-0.0077
468.7936	-0.0161
468.9948	-0.0071
469.196	-0.001
469.3972	-0.0183
469.5983	0.0034
469.7994	-0.0263
470.0006	-0.0023
470.2017	-0.0143
470.4027	-0.0187
470.6038	-0.0023
470.8049	-0.0255
471.0059	-0.0122
471.2069	-0.0311
471.408	-0.0245
471.6089	0.0073
471.8099	-0.0165
472.0109	-0.0103
472.2119	-0.016
472.4128	-0.0214
472.6137	-0.0041
472.8146	-0.0095
473.0155	-0.0188
473.2164	-0.0089
473.4173	0.0017
473.6181	0.0048
473.819	-0.0099
474.0198	-0.0042
474.2206	-0.0187
474.4214	-0.0137
474.6222	-0.0135
474.8229	-0.0093
475.0237	-0.0187
475.2244	-0.0119
475.4251	0.0054
475.6258	-0.0081
475.8265	-0.0115
476.0272	-0.0111
476.2278	-0.0131
476.4285	-0.0015
476.6291	-0.0155
476.8297	-0.0052
477.0303	-0.0116
477.2309	-0.0003
477.4315	-0.0258
477.632	-0.0005
477.8326	-0.002
478.0331	-0.0135
478.2336	0.0009
478.4341	-0.0259
478.6346	-0.0133
478.8351	-0.0108
479.0355	-0.0128
479.236	-0.0174
479.4364	-0.0117
479.6368	-0.0088
479.8372	-0.0109
480.0376	-0.004
480.2379	-0.0348
480.4383	-0.0077
480.6386	-0.0001
480.8389	-0.004
481.0392	-0.0176
481.2395	-0.0229
481.4398	0.0001
481.6401	-0.0105
481.8403	-0.0021
482.0405	-0.0166
482.2408	-0.0126
482.441	-0.0027
482.6411	-0.0168
482.8413	-0.0077
483.0415	-0.0076
483.2416	-0.0101
483.4417	-0.003
483.6419	-0.0141
483.8419	-0.0046
484.042	-0.0001
484.2421	-0.0051
484.4422	-0.0116
484.6422	-0.0047
484.8422	-0.0071
485.0422	-0.0182
485.2422	0.0017
485.4422	-0.0162
485.6422	-0.0147
485.8421	-0.0157
486.042	-0.0112
486.242	-0.0087
486.4419	-0.0131
486.6417	-0.0258
486.8416	-0.0086
487.0415	-0.0095
487.2413	-0.0058
487.4411	-0.0188
487.641	-0.0042
487.8408	-0.0059
488.0405	-0.008
488.2403	-0.0055
488.4401	-0.0049
488.6398	-0.006
488.8395	-0.0137
489.0392	0.0002
489.2389	-0.0003
489.4386	-0.0179
489.6383	-0.0187
489.8379	0.003
490.0376	-0.0182
490.2372	-0.0115
490.4368	-0.019
490.6364	-0.0089
490.836	-0.0115
491.0355	0.001
491.2351	-0.0022
491.4346	-0.0121
491.6341	-0.022
491.8336	-0.0054
492.0331	-0.0213
492.2326	-0.0296
492.432	-0.0072
492.6315	-0.0032
492.8309	-0.0252
493.0303	-0.0237
493.2297	-0.008
493.4291	-0.0106
493.6284	-0.0099
493.8278	-0.0063
494.0271	-0.0075
494.2264	0.0045
494.4257	-0.0238
494.625	-0.0085
494.8243	-0.0183
495.0236	-0.0188
495.2228	-0.0132
495.422	0.0023
495.6213	-0.012
495.8205	-0.0129
496.0196	-0.0131
496.2188	0.0036
496.418	-0.0229
496.6171	-0.0101
496.8162	-0.0256
497.0153	-0.0021
497.2144	-0.0189
497.4135	-0.0087
497.6126	-0.0201
497.8116	-0.0226
498.0107	-0
498.2097	-0.0121
498.4087	-0.0108
498.6077	-0.0049
498.8067	-0.0133
499.0056	-0.0032
499.2046	-0.0101
499.4035	-0.0261
499.6024	-0.0135
499.8013	-0.01
500.0002	-0.015
500.199	0.0012
500.3979	-0.0173
500.5967	-0.0199
500.7956	-0.0069
500.9944	-0.0163
501.1932	-0.0227
501.3919	-0.0225
501.5907	-0.0193
501.7895	-0.0081
501.9882	-0.0174
502.1869	-0.0113
502.3856	-0.0139
502.5843	-0.0237
502.783	-0.0197
502.9816	-0.0134
503.1803	-0.0146
503.3789	-0.0166
503.5775	-0.0074
503.7761	-0.0165
503.9747	-0.0071
504.1732	-0.0089
504.3718	-0.0147
504.5703	-0.0132
504.7689	-0.0272
504.9674	-0.0108
505.1658	-0.0155
505.3643	-0.0128
505.5628	-0.0107
505.7612	-0.006
505.9597	-0.0103
506.1581	-0.015
506.3565	0.0008
506.5549	-0.0204
506.7532	-0.0124
506.9516	-0.0104
507.1499	-0.0117
507.3482	-0.018
507.5465	-0.0169
507.7448	-0.008
507.9431	-0.0095
508.1414	-0.0108
508.3396	-0.0081
508.5379	-0.0079
508.7361	-0.0119
508.9343	-0.0145
509.1325	-0.0107
509.3306	-0.0182
509.5288	-0.0134
509.7269	-0.0183
509.9251	-0.0036
510.1232	-0.024
510.3213	-0.0193
510.5193	-0.0023
510.7174	-0.017
510.9154	-0.0205
511.1135	-0.0142
511.3115	-0.0118
511.5095	-0.0088
511.7075	-0.0155
511.9055	-0.0056
512.1034	-0.0136
512.3014	-0.011
512.4993	-0.0159
512.6972	-0.0048
512.8951	-0.0236
513.093	-0.0202
513.2908	-0.0166
513.4887	-0.0141
513.6865	-0.014
513.8844	-0.0151
514.0822	-0.0248
514.2799	-0.015
514.4777	-0.0157
514.6755	-0.0116
514.8732	-0.0173
515.0709	-0.0142
515.2687	-0.0106
515.4664	-0.0112
515.664	-0.0163
515.8617	-0.0072
516.0594	-0.021
516.257	-0.0146
516.4546	-0.0316
516.6522	-0.0086
516.8498	-0.0121
517.0474	0.0008
517.2449	-0.0047
517.4425	-0.0219
517.64	-0.014
517.8375	-0.0057
518.035	-0.0067
518.2325	-0.0194
518.43	-0.0132
518.6274	-0.0039
518.8249	-0.0177
519.0223	-0.0104
519.2197	-0.0094
519.4171	-0.0206
519.6145	-0.0144
519.8118	-0.0166
520.0092	-0.0073
520.2065	-0.0108
520.4038	-0.0131
520.6011	-0.0048
520.7984	-0.014
520.9956	-0.0076
521.1929	-0.0163
521.3901	-0.01
521.5874	-0.0123
521.7846	-0.0027
521.9818	-0.0163
522.1789	-0.0234
522.3761	-0.0069
522.5732	-0.0177
522.7704	-0.0153
522.9675	-0.009
523.1646	-0.0081
523.3617	-0.0056
523.5587	-0.003
523.7558	-0.0042
523.9528	-0.0083
524.1498	-0.0075
524.3468	-0.0088
524.5438	-0.0123
524.7408	-0.0043
524.9378	-0.0025
525.1347	-0.01
525.3316	-0.0051
525.5285	-0.0145
525.7254	-0.0099
525.9223	-0.0045
526.1192	-0.0116
526.316	-0.0212
526.5129	-0.0018
526.7097	-0.0083
526.9065	-0.0044
527.1033	-0.0166
527.3	-0.0095
527.4968	-0.0163
527.6935	-0.0143
527.8903	-0.0208
528.087	-0.0165
528.2837	-0.0096
528.4804	-0.0107
528.677	-0.0105
528.8737	-0.0026
529.0703	-0.0095
529.2669	-0.0122
529.4635	-0.0135
529.6601	-0.0075
529.8567	-0.0068
530.0532	-0.0077
530.2498	-0.0035
530.4463	-0.0033
530.6428	-0.0047
530.8393	0.0047
531.0358	-0.003
531.2322	-0.0055
531.4287	-0.0206
531.6251	-0.0154
531.8215	-0.004
532.0179	-0.0073
532.2143	0.0015
532.4107	0.0004
532.607	-0.0084
532.8034	-0.001
532.9997	-0.0027
533.196	-0.0063
533.3923	-0.0065
533.5886	-0.0044
533.7848	-0.0032
533.9811	-0.0072
534.1773	-0.0072
534.3735	0.0032
534.5697	-0.0053
534.7659	-0.0093
534.9621	-0.0095
535.1582	-0.0157
535.3544	-0.012
535.5505	-0.0123
535.7466	-0.0077
535.9427	-0.0107
536.1387	-0.0169
536.3348	-0.0039
536.5308	-0.0012
536.7269	-0.0216
536.9229	-0.0016
537.1189	0.0028
537.3148	-0.0052
537.5108	-0.0062
537.7068	-0.0086
537.9027	-0.0069
538.0986	-0.0092
538.2945	-0.0123
538.4904	-0.0115
538.6863	-0.016
538.8821	-0.0097
539.078	-0.0103
539.2738	0.0001
539.4696	-0.0144
539.6654	0.0039
539.8611	0.002
540.0569	-0.006
540.2526	-0.0141
540.4484	-0.0083
540.6441	0.0021
540.8398	0.0018
541.0355	-0.0076
541.2311	-0.011
541.4268	-0.0116
541.6224	0.0031
541.818	-0.008
542.0136	-0.0099
542.2092	-0.0058
542.4048	-0.0034
542.6003	0.0017
542.7959	-0.0003
542.9914	-0.0113
543.1869	-0.0011
543.3824	0.0007
543.5779	-0.0074
543.7734	-0.0081
543.9688	-0.0074
544.1642	-0.0057
544.3596	-0.0104
544.555	-0.005
544.7504	-0.0076
544.9458	-0.0036
545.1411	-0.0098
545.3365	-0.0052
545.5318	-0.0027
545.7271	-0.0013
545.9224	-0.0042
546.1177	-0.0058
546.3129	-0.0057
546.5081	-0.0082
546.7034	-0.0044
546.8986	-0.0086
547.0938	-0.0097
547.289	-0.0119
547.4841	-0.0072
547.6793	0.0068
547.8744	-0.0134
548.0695	-0.0065
548.2646	-0.0063
548.4597	-0.0023
548.6548	-0.0163
548.8498	-0.0024
549.0448	-0.0035
549.2399	-0.0075
549.4349	0.003
549.6298	-0.0054
549.8248	-0.0046
550.0198	-0.0059
550.2147	-0.0042
550.4096	-0.0034
550.6045	-0.0032
550.7994	0.0042
550.9943	-0.0027
551.1892	-0.0076
551.384	-0.0002
551.5788	-0.0073
551.7737	-0.0068
551.9685	-0.0135
552.1632	-0.0013
552.358	-0.0039
552.5528	-0.0036
552.7475	-0.0075
552.9422	-0.0004
553.1369	-0.0032
553.3316	-0.0045
553.5263	-0.0139
553.7209	-0.0013
553.9156	-0.0025
554.1102	0.0001
554.3048	-0.0028
554.4994	0.0008
554.694	-0.0024
554.8885	0.0062
555.0831	-0.0144
555.2776	-0.0109
555.4721	0.0006
555.6666	-0.0114
555.8611	0.0075
556.0555	-0.0012
556.25	-0.0078
556.4444	-0.0148
556.6388	-0.0051
556.8332	-0.0028
557.0276	-0.0012
557.222	-0.0045
557.4163	-0.0049
557.6107	-0.0156
557.805	0.0028
557.9993	0.0008
558.1936	-0.0002
558.3879	0.0022
558.5821	-0.0085
558.7764	0.0001
558.9706	0.0016
559.1648	-0.002
559.359	-0.0137
559.5532	-0.0061
559.7473	-0.009
559.9415	-0.0038
560.1356	-0.0062
560.3297	-0.0083
560.5238	-0.0065
560.7179	-0.0034
560.9119	-0.0077
561.106	-0.0079
561.3	-0.0083
561.494	-0.0041
561.688	-0.0005
561.882	-0.0188
562.076	-0.0166
562.2699	0.0008
562.4639	0.0038
562.6578	0.0046
562.8517	-0.0006
563.0456	-0.0069
563.2395	0.0019
563.4333	-0.0007
563.6272	0.0042
563.821	-0.002
564.0148	-0.0019
564.2086	-0.0058
564.4024	-0.0047
564.5961	-0.0074
564.7899	0.0062
564.9836	0.0034
565.1773	-0.0031
565.371	0.0004
565.5647	0.0051
565.7584	-0.0054
565.952	-0.0031
566.1456	-0.0078
566.3393	-0.0047
566.5329	-0.0034
566.7264	0.002
566.92	-0.0053
567.1136	0.0037
567.3071	-0.0081
567.5006	0.0055
567.6941	0.0048
567.8876	-0.0014
568.0811	0.001
568.2745	0.0011
568.468	0.0072
568.6614	0.0017
568.8548	-0.001
569.0482	-0.0012
569.2416	-0.0019
569.4349	0.004
569.6283	-0.0043
569.8216	-0.006
570.0149	-0.0126
570.2082	0.0032
570.4015	0.0064
570.5947	0.0041
570.788	0.0022
570.9812	0.0017
571.1744	0.0031
571.3676	-0.0097
571.5608	-0.0064
571.754	0.0042
571.9471	-0.0018
572.1402	-0.0013
572.3333	-0.0064
572.5264	-0.0093
572.7195	-0.0033
572.9126	-0.0031
573.1057	-0.0056
573.2987	-0.0107
573.4917	-0.0022
573.6847	-0.011
573.8777	0.0025
574.0707	0.0021
574.2636	-0.0107
574.4566	-0.0053
574.6495	0.0027
574.8424	-0.0048
575.0353	-0.0045
575.2281	0.0067
575.421	0.0037
575.6138	-0.0036
575.8067	0.0013
575.9995	-0.0017
576.1923	-0.0026
576.385	0.0021
576.5778	-0.0087
576.7706	-0.001
576.9633	-0.0037
577.156	0.0037
577.3487	-0.0043
577.5414	-0.0027
577.734	-0.0056
577.9267	-0.0032
578.1193	-0.0163
578.3119	-0.0112
578.5045	-0.0022
578.6971	-0.0104
578.8897	0.0003
579.0822	-0.0035
579.2747	0.0033
579.4673	-0.0069
579.6598	-0.005
579.8522	0.0006
580.0447	-0.0083
580.2372	-0.0119
580.4296	0.0108
580.622	-0.0095
580.8144	0.0004
581.0068	-0.0068
581.1992	-0.0102
581.3915	-0.0152
581.5839	-0.0096
581.7762	-0.0146
581.9685	-0.0023
582.1608	-0.0044
582.353	-0.0047
582.5453	-0.0061
582.7375	-0.0072
582.9298	-0.0023
583.122	0.0005
583.3142	-0.0083
583.5063	-0.003
583.6985	-0.002
583.8906	-0.0072
584.0827	-0.0105
584.2749	-0.0022
584.4669	-0.0016
584.659	0
584.8511	-0.0038
585.0431	-0.0061
585.2352	-0.0027
585.4272	-0.002
585.6192	0.0027
585.8111	0
586.0031	-0.0047
586.195	-0.0071
586.387	-0.0003
586.5789	-0.0039
586.7708	0.0003
586.9627	-0.0025
587.1545	-0.0071
587.3464	0.0015
587.5382	0.0033
587.73	0.004
587.9218	0.0041
588.1136	0.0029
588.3053	-0.0005
588.4971	-0.0092
588.6888	-0.0067
588.8805	-0.0048
589.0722	0.0045
589.2639	-0.0012
589.4556	-0.0067
589.6472	-0.0075
589.8389	-0.0097
590.0305	-0.0084
590.2221	-0.001
590.4137	-0.0101
590.6052	0.0023
590.7968	0.0036
590.9883	-0.0002
591.1798	0.0002
591.3713	-0.0071
591.5628	0.0041
591.7543	-0.0032
591.9458	-0.0014
592.1372	0.0047
592.3286	0.0089
592.52	0.0053
592.7114	-0.0053
592.9028	-0.0009
593.0941	-0.0099
593.2855	0.004
593.4768	-0.0042
593.6681	-0.0095
593.8594	-0.0012
594.0506	0.0001
594.2419	0.0059
594.4331	0.0003
594.6244	0.0005
594.8156	-0.0078
595.0067	0.0027
595.1979	0.0078
595.3891	0.0025
595.5802	0.0011
595.7713	-0.0032
595.9624	-0.0046
596.1535	0.003
596.3446	0.0021
596.5357	-0.0052
596.7267	0.0052
596.9177	-0.0003
597.1087	-0.0033
597.2997	-0.0035
597.4907	0.0026
597.6817	-0.0047
597.8726	-0.0015
598.0635	-0.0101
598.2544	0.0071
598.4453	0.0049
598.6362	-0.0046
598.827	-0.0015
599.0179	0.005
599.2087	0.0046
599.3995	-0.0024
599.5903	0.0012
599.7811	0.0055
599.9718	0.0013
600.1626	-0.0004
600.3533	-0.0024
600.544	0.0101
600.7347	0.0032
600.9254	0.0009
601.116	-0.0064
601.3067	-0.0004
601.4973	-0.0022
601.6879	0.003
601.8785	-0.0088
602.0691	0.0082
602.2596	0.0089
602.4502	0.0013
602.6407	0.0026
602.8312	0.0026
603.0217	-0.0026
603.2122	0.0044
603.4027	-0.0026
603.5931	-0.0009
603.7835	-0.0021
603.9739	0.0015
604.1643	-0.0057
604.3547	0.0004
604.5451	0.006
604.7354	-0.0004
604.9257	0.0048
605.116	-0.0069
605.3063	0.0003
605.4966	0.0068
605.6869	0.0029
605.8771	0.0063
606.0673	0.0015
606.2575	0.0027
606.4477	0.0116
606.6379	0.0047
606.8281	-0.0051
607.0182	-0.0039
607.2083	0.0115
607.3985	-0.0014
607.5885	-0.0007
607.7786	0.0042
607.9687	0.0025
608.1587	0.0055
608.3488	0.0018
608.5388	0.0022
608.7288	-0.0048
608.9187	-0.0073
609.1087	-0.0067
609.2986	-0.0033
609.4886	-0.0088
609.6785	-0.0022
609.8684	0.0033
610.0582	0.0037
610.2481	-0.0041
610.4379	-0.0037
610.6278	-0.0065
610.8176	-0.0093
611.0074	-0.0063
611.1971	-0.0121
611.3869	-0.0075
611.5766	-0.0133
611.7664	0.0049
611.9561	-0.0013
612.1458	0
612.3354	-0.0105
612.5251	-0.0015
612.7147	-0.0027
612.9044	0.0039
613.094	-0.0098
613.2836	-0.0045
613.4731	-0.0034
613.6627	0.0019
613.8522	0.0021
614.0417	0.0049
614.2313	0.0018
614.4207	-0.0044
614.6102	0.0011
614.7997	-0.0004
614.9891	-0.0061
615.1785	-0.0009
615.3679	-0.0057
615.5573	0.0062
615.7467	-0.0057
615.9361	-0.0005
616.1254	0.0004
616.3147	-0.0012
616.504	0.0002
616.6933	-0.0047
616.8826	0.0042
617.0718	0.0025
617.2611	0.0002
617.4503	-0.0025
617.6395	-0.0062
617.8287	-0.0012
618.0179	0.0001
618.207	0.0049
618.3961	-0.0015
618.5853	-0.0005
618.7744	0.0019
618.9634	0.0037
619.1525	0.004
619.3416	-0.0013
619.5306	0.005
619.7196	-0.0055
619.9086	-0.0083
620.0976	0.0025
620.2866	-0.0077
620.4755	0.0023
620.6645	0.0046
620.8534	-0.0012
621.0423	0.0098
621.2312	0.0045
621.42	0.0016
621.6089	-0.0018
621.7977	0.0004
621.9865	-0.0065
622.1753	0.0056
622.3641	-0.0039
622.5529	0.0077
622.7416	0.0047
622.9303	-0.0081
623.1191	-0.0009
623.3078	0.0015
623.4964	-0.0015
623.6851	-0.008
623.8737	0.0042
624.0624	0.0031
624.251	-0.0031
624.4396	0.0025
624.6282	-0.0062
624.8167	0.0015
625.0053	0.0049
625.1938	0.0046
625.3823	0.0062
625.5708	0.0082
625.7593	-0.008
625.9477	-0.0068
626.1362	0.0008
626.3246	0.0012
626.513	0.014
626.7014	0.0103
626.8898	-0.003
627.0781	0.001
627.2665	-0.0024
627.4548	0.0074
627.6431	-0.0043
627.8314	0.0039
628.0197	0.0108
628.2079	0.0034
628.3962	-0.0067
628.5844	0.0033
628.7726	0.0105
628.9608	0.0114
629.1489	0.0015
629.3371	0.0041
629.5252	0.0001
629.7134	0.0075
629.9015	-0.002
630.0895	0.0024
630.2776	0.0059
630.4657	0.0008
630.6537	-0.0008
630.8417	-0.0078
631.0297	0.0028
631.2177	0.0019
631.4057	-0.0063
631.5936	0.0004
631.7815	0.0055
631.9695	0.002
632.1574	0.0086
632.3452	0.0088
632.5331	0.0051
632.7209	-0.0021
632.9088	0.0074
633.0966	0.0092
633.2844	0.0024
633.4722	0.0006
633.6599	0.008
633.8477	0.0061
634.0354	0.008
634.2231	-0.003
634.4108	0.0027
634.5985	0.0079
634.7861	0.0076
634.9738	-0.0006
635.1614	0.0012
635.349	-0.0057
635.5366	-0.0049
635.7242	-0.0061
635.9117	0.0027
636.0993	-0.003
636.2868	0.0078
636.4743	-0.0037
636.6618	-0.0012
636.8492	-0.0016
637.0367	-0.0044
637.2241	-0.0043
637.4115	-0.0044
637.5989	0.0019
637.7863	0.0023
637.9737	-0.0042
638.161	0.0036
638.3484	0.0007
638.5357	-0.0001
638.723	0.0004
638.9103	0.0098
639.0975	0.0063
639.2848	0.0071
639.472	0.0049
639.6592	0.0099
639.8464	0.0063
640.0336	0.0057
640.2208	-0.0014
640.4079	-0.0019
640.595	0.0056
640.7821	0.0035
640.9692	-0.0005
641.1563	0.0085
641.3434	0.0038
641.5304	0.0001
641.7174	0.0052
641.9044	0.0083
642.0914	0.0096
642.2784	0.0077
642.4653	-0.0006
642.6523	0.0032
642.8392	-0.0013
643.0261	0.003
643.213	0.0068
643.3999	-0.0031
643.5867	-0.0013
643.7735	0.0025
643.9604	0.0033
644.1472	0.0106
644.3339	0.0062
644.5207	0.0018
644.7075	0.0028
644.8942	-0.0006
645.0809	0.0033
645.2676	0.0052
645.4543	0.0027
645.6409	0.0061
645.8276	0.0027
646.0142	0.0041
646.2008	-0.0065
646.3874	-0.0024
646.574	-0.0013
646.7605	-0.0007
646.9471	-0.0062
647.1336	0.0055
647.3201	0.0052
647.5066	-0.0051
647.6931	0.0022
647.8795	0.0058
648.0659	0.0025
648.2524	0.0065
648.4388	-0.0043
648.6252	0.0082
648.8115	0.0008
648.9979	0.0002
649.1842	0.0084
649.3705	0.0042
649.5568	0.0028
649.7431	0.008
649.9294	-0.0018
650.1156	0.0015
650.3018	-0.0031
650.488	0.0038
650.6742	0.0062
650.8604	-0.0011
651.0466	0.0007
651.2327	0.0023
651.4188	0.0021
651.6049	0.0029
651.791	0.0011
651.9771	0.0086
652.1632	0.0065
652.3492	0.0031
652.5352	0.0012
652.7212	0.0021
652.9072	0.0112
653.0932	-0.0013
653.2791	0.0008
653.465	0.0017
653.651	-0.0089
653.8369	-0.0009
654.0227	-0.0024
654.2086	0.0015
654.3944	0.005
654.5803	0.004
654.7661	0.0023
654.9519	0.0019
655.1377	-0.0046
655.3234	-0.0034
655.5092	-0.0041
655.6949	-0.0034
655.8806	-0.0062
656.0663	-0.0043
656.2519	-0.0066
656.4376	-0.0028
656.6232	0.004
656.8088	-0.0033
656.9945	0.0036
657.18	0.0054
657.3656	0.0038
657.5511	0.0002
657.7367	-0.0031
657.9222	0.0046
658.1077	0.0008
658.2932	0.0031
658.4786	-0.0031
658.6641	-0.0016
658.8495	0.0024
659.0349	0.0049
659.2203	0.0055
659.4057	0.0061
659.591	0.0029
659.7764	-0.0005
659.9617	0.0097
660.147	0.0036
660.3323	0.0058
660.5176	0.01
660.7028	0.007
660.888	0.0043
661.0733	0.0067
661.2585	-0.0029
661.4436	0.0021
661.6288	0.0011
661.8139	0.0016
661.9991	0.0068
662.1842	-0.0021
662.3693	0.0012
662.5544	0.0026
662.7394	0.0014
662.9245	-0.0041
663.1095	-0.0005
663.2945	0.0019
663.4795	-0.0022
663.6644	0.0021
663.8494	-0.0039
664.0343	0.0003
664.2193	-0.0046
664.4042	-0.0026
664.589	-0.0062
664.7739	-0.0004
664.9587	-0.0048
665.1436	0.0003
665.3284	0.0049
665.5132	-0.0074
665.698	0.0048
665.8827	0.0068
666.0675	0.0017
666.2522	-0.0075
666.4369	-0.0002
666.6216	0.0091
666.8063	-0.0007
666.9909	0.0082
667.1756	-0.0053
667.3602	0.0057
667.5448	0.0028
667.7294	0.0031
667.9139	0.0066
668.0985	0.0091
668.283	-0.0028
668.4675	0.0066
668.652	0.0029
668.8365	0.0048
669.0209	0.001
669.2054	0.0112
669.3898	-0.0021
669.5742	0.0029
669.7586	0.0039
669.943	0.0059
670.1273	0.0065
670.3117	0.0101
670.496	0.0007
670.6803	0.0118
670.8646	0.0098
671.0488	-0.0016
671.2331	0.0048
671.4173	0.0086
671.6015	-0.0022
671.7857	0.0082
671.9699	0.004
672.1541	-0
672.3382	0.0081
672.5223	0.013
672.7064	0.0086
672.8905	0.0069
673.0746	0.0039
673.2587	-0.0016
673.4427	0.0096
673.6267	0.0074
673.8107	0.0097
673.9947	0.0049
674.1787	0.0065
674.3626	0.0032
674.5465	0.0019
674.7304	-0.0028
674.9143	0.0149
675.0982	0.0127
675.2821	0.0025
675.4659	0.0028
675.6497	0.0044
675.8335	0.0055
676.0173	-0.0004
676.2011	0.0039
676.3849	-0.0004
676.5686	-0.0026
676.7523	-0.0008
676.936	-0.0008
677.1197	-0.0017
677.3034	-0.0008
677.487	0.0076
677.6706	0.0036
677.8542	0.0015
678.0378	0.0028
678.2214	0.0052
678.405	0.0091
678.5885	-0.0052
678.772	-0.0015
678.9555	-0.0019
679.139	-0.0023
679.3225	0.0133
679.5059	-0.0004
679.6894	0.0069
679.8728	0.0007
680.0562	-0.0046
680.2395	-0.0014
680.4229	0.0036
680.6062	0.01
680.7896	-0.0012
680.9729	0.0018
681.1562	0.0067
681.3394	0.0107
681.5227	-0.0056
681.7059	0.0011
681.8891	-0.004
682.0723	0.0089
682.2555	0.0053
682.4387	0.0009
682.6218	-0.0053
682.805	0.0051
682.9881	0.007
683.1712	-0.0001
683.3542	0.001
683.5373	-0.0001
683.7203	-0.0051
683.9034	0.0001
684.0864	-0.0069
684.2694	0.0024
684.4523	0.0125
684.6353	0.001
684.8182	0.0019
685.0011	-0.0021
685.184	0.008
685.3669	-0.0008
685.5498	0.0061
685.7326	0.0046
685.9154	0.0035
686.0982	0.0103
686.281	0.0118
686.4638	0.008
686.6465	0.0005
686.8293	0.0028
687.012	0.0041
687.1947	-0.0028
687.3774	-0.0004
687.56	-0.0055
687.7427	0.0078
687.9253	-0.0036
688.1079	-0.0029
688.2905	-0.0005
688.4731	-0.0026
688.6556	0.0024
688.8382	0.0017
689.0207	0.0099
689.2032	-0.0059
689.3857	-0.0018
689.5681	0.0083
689.7506	-0.0072
689.933	-0.0129
690.1154	0.0033
690.2978	0.0021
690.4802	0.0048
690.6626	-0.0011
690.8449	-0.0074
691.0272	0.0017
691.2095	-0.0072
691.3918	-0.0016
691.5741	-0.0025
691.7563	0.0001
691.9386	-0.0008
692.1208	-0.0052
692.303	-0.0016
692.4852	0.0044
692.6673	0.0001
692.8495	0.0048
693.0316	0.0025
693.2137	-0.0008
693.3958	0.0068
693.5778	-0.0001
693.7599	0.0038
693.9419	-0.0022
694.1239	0.0039
694.3059	0.0047
694.4879	0.0014
694.6699	0.0047
694.8518	0.0043
695.0337	0.0005
695.2157	0.0051
695.3975	-0.0037
695.5794	-0.004
695.7613	0.0027
695.9431	-0.0011
696.1249	0.0003
696.3067	0.0021
696.4885	0.0063
696.6703	-0.0076
696.852	0.0081
697.0337	0.0011
697.2154	-0.0035
697.3971	-0.0012
697.5788	0.0034
697.7605	0.0031
697.9421	0.0084
698.1237	0.0036
698.3053	-0.0006
698.4869	-0.0036
698.6685	-0.0075
698.85	-0.0055
699.0315	0.005
699.213	-0.0018
699.3945	0.0042
699.576	0.0006
699.7575	0.003
699.9389	0.0074
700.1203	-0.0068
700.3017	-0.013
700.4831	-0.0069
700.6645	-0.0109
700.8458	-0.0006
701.0271	-0.0067
701.2084	0.003
701.3897	-0.0016
701.571	-0.002
701.7523	-0.007
701.9335	0.002
702.1147	-0.0033
702.2959	-0.0061
702.4771	-0.0035
702.6583	0.0012
702.8394	0.0006
703.0205	0.0011
703.2016	-0.0106
703.3827	0.0021
703.5638	0.0058
703.7449	0.0024
703.9259	0.0066
704.1069	-0.0058
704.2879	0.0082
704.4689	0.0096
704.6499	-0.0027
704.8308	0.0048
705.0117	0.0023
705.1927	0.0061
705.3735	-0.0015
705.5544	-0.007
705.7353	-0.0009
705.9161	-0.0084
706.0969	0.0014
706.2777	-0.0001
706.4585	-0.0037
706.6393	-0.006
706.82	-0.0054
707.0007	0.0041
707.1815	0.0038
707.3621	0.0076
707.5428	0.0087
707.7235	0.0039
707.9041	0.007
708.0847	-0.0015
708.2653	-0.0023
708.4459	-0.0123
708.6265	0.0013
708.807	-0.0009
708.9875	-0.0071
709.168	-0.0084
709.3485	-0.0076
709.529	-0.0005
709.7095	-0.0075
709.8899	0.0036
710.0703	-0.0106
710.2507	0.002
710.4311	0.0031
710.6115	-0.008
710.7918	-0.011
710.9721	-0.0105
711.1524	-0.0029
711.3327	-0.0027
711.513	0.0064
711.6932	-0.002
711.8735	0.0178
712.0537	0.0001
712.2339	-0.0067
712.4141	-0.0021
712.5942	-0.0055
712.7744	-0.0012
712.9545	-0.0043
713.1346	-0.0018
713.3147	0.0017
713.4947	-0.0071
713.6748	0.0036
713.8548	-0.0004
714.0348	-0.0024
714.2148	0.002
714.3948	0.0123
714.5748	0.0098
714.7547	0.0001
714.9346	0.0091
715.1145	0.003
715.2944	-0.008
715.4743	0.0041
715.6541	0.0019
715.834	0.0121
716.0138	0.0022
716.1936	-0.0041
716.3733	-0.0016
716.5531	0.008
716.7328	-0.0032
716.9126	-0.0054
717.0923	-0.0007
717.2719	-0.0044
717.4516	0.004
717.6312	0.0051
717.8109	-0.002
717.9905	0.0027
718.1701	-0.0023
718.3496	-0.0097
718.5292	0.004
718.7087	0.0006
718.8882	0.0022
719.0677	-0.0001
719.2472	-0.0019
719.4267	0.0097
719.6061	0.0006
719.7856	0.0052
719.965	0.0092
720.1443	-0.0024
720.3237	0.0177
720.5031	0.0047
720.6824	0.0111
720.8617	-0.0013
721.041	0.0065
721.2203	0.0022
721.3995	0.003
721.5788	-0.0049
721.758	0.0117
721.9372	0.0067
722.1164	0.0046
722.2956	0.0072
722.4747	-0.0049
722.6538	-0.005
722.8329	0.0094
723.012	-0.0028
723.1911	-0.0038
723.3702	-0.0044
723.5492	-0.0022
723.7282	-0.0062
723.9072	0.0039
724.0862	-0.0055
724.2652	-0.005
724.4441	0.0018
724.623	-0.0029
724.8019	0.0001
724.9808	-0.0008
725.1597	-0.0077
725.3385	0.0108
725.5174	0.0084
725.6962	-0.0032
725.875	0.002
726.0538	0.0105
726.2325	-0.0041
726.4112	0.0059
726.59	-0.0039
726.7687	0.0001
726.9474	0.0077
727.126	-0.0028
727.3047	0.0006
727.4833	-0.0005
727.6619	-0.0109
727.8405	-0.0118
728.0191	0.0001
728.1976	0.0015
728.3762	-0.0048
728.5547	0.0048
728.7332	-0.0074
728.9116	0.0025
729.0901	0.0019
729.2686	-0.004
729.447	0.0015
729.6254	0.0039
729.8038	-0.0029
729.9821	-0.012
730.1605	0.0096
730.3388	-0.0026
730.5171	-0.0056
730.6954	0.0021
730.8737	-0.0032
731.0519	0.0057
731.2302	-0.0053
731.4084	0.0031
731.5866	0.0045
731.7648	-0.0063
731.9429	0.0009
732.1211	-0.0071
732.2992	0.0021
732.4773	-0.0042
732.6554	0.0054
732.8335	-0.0016
733.0115	0.0005
733.1896	0.0083
733.3676	-0.0046
733.5456	0.0059
733.7235	0.011
733.9015	-0.0057
734.0794	0.002
734.2574	-0.0043
734.4353	0.0012
734.6131	0.003
734.791	0.0059
734.9689	-0.001
735.1467	-0.0014
735.3245	-0.0115
735.5023	-0.0029
735.68	0.0038
735.8578	0.0044
736.0355	-0.0137
736.2132	0.0032
736.3909	-0.0017
736.5686	-0.0106
736.7463	0.0003
736.9239	-0.0106
737.1015	-0.0077
737.2791	0.0071
737.4567	-0.0083
737.6343	-0.0137
737.8118	-0.0052
737.9894	-0.0042
738.1669	-0.0063
738.3444	-0.0092
738.5218	0.0049
738.6993	0.0027
738.8767	0.0001
739.0541	0.0213
739.2315	-0.0094
739.4089	-0.004
739.5863	0.0026
739.7636	-0.0075
739.9409	0.0062
740.1182	0.0043
740.2955	0.004
740.4728	0.0033
740.65	0.0054
740.8272	-0.0035
741.0044	0.0002
741.1816	0.0074
741.3588	0.0001
741.5359	0.0062
741.7131	-0.0085
741.8902	-0.0087
742.0673	0.0001
742.2444	-0.0069
742.4214	-0.0075
742.5985	0.0019
742.7755	-0.0066
742.9525	-0.0139
743.1295	0.0019
743.3064	-0.0009
743.4834	0.0096
743.6603	-0.006
743.8372	-0.0068
744.0141	-0.0035
744.191	0.0034
744.3678	0.0012
744.5446	0.0012
744.7215	0.0049
744.8982	-0.0029
745.075	-0.0037
745.2518	0.0046
745.4285	0.0033
745.6052	-0.0019
745.7819	-0.006
745.9586	0.0007
746.1353	-0.0063
746.3119	-0.0055
746.4885	-0.0045
746.6651	-0.0107
746.8417	-0.0056
747.0183	0.0032
747.1948	-0.0007
747.3714	-0.0078
747.5479	-0.0028
747.7244	-0.0016
747.9008	0.0065
748.0773	0.0022
748.2537	-0.0012
748.4301	-0.0057
748.6065	-0.0033
748.7829	0.0018
748.9593	-0.0081
749.1356	0.0045
749.3119	0.005
749.4882	-0.0044
749.6645	0.0038
749.8408	-0.0044
750.017	-0.0003
750.1933	0.0007
750.3695	-0.0048
750.5457	0.0018
750.7218	-0.0089
750.898	0.0018
751.0741	-0.0042
751.2502	-0.007
751.4263	-0.0048
751.6024	-0.0055
751.7784	-0.0047
751.9545	-0.0118
752.1305	-0.0011
752.3065	-0.0115
752.4825	0.0035
752.6584	-0.0143
752.8344	-0.005
753.0103	-0.0039
753.1862	-0.0133
753.3621	-0.0068
753.5379	-0.0047
753.7138	-0.0105
753.8896	-0.0078
754.0654	0.0016
754.2412	0.009
754.417	0.01
754.5927	-0.0064
754.7685	-0.0132
754.9442	0.0005
755.1199	0.0055
755.2956	-0.0091
755.4712	-0.0034
755.6469	-0.005
755.8225	-0.0059
755.9981	-0.012
756.1736	-0.0029
756.3492	-0.0079
756.5248	-0.0076
756.7003	-0.0035
756.8758	0.0055
757.0513	-0.0121
757.2267	-0.0037
757.4022	-0.0016
757.5776	-0.0106
757.753	0.0032
757.9284	0.0017
758.1038	0.0077
758.2791	0.0077
758.4545	-0.0048
758.6298	-0.0019
758.8051	0.0078
758.9803	0.008
759.1556	0.0044
759.3308	0.0023
759.506	0.013
759.6812	0.0069
759.8564	0.0112
760.0316	0.0003
760.2067	0.0122
760.3819	0.0089
760.557	0.0128
760.732	0.0064
760.9071	-0.0057
761.0821	-0.0014
761.2572	0.003
761.4322	-0.0045
761.6072	-0.0079
761.7821	-0.0074
761.9571	0.0066
762.132	-0.0083
762.3069	-0.0116
762.4818	-0.0157
762.6567	0.0032
762.8316	-0.009
763.0064	-0.004
763.1812	0.0012
763.356	-0.0129
763.5308	0.0045
763.7055	-0.0058
763.8803	-0.0107
764.055	-0.0015
764.2297	-0.0029
764.4044	-0.0155
764.579	-0.0043
764.7537	-0.0151
764.9283	-0.0098
765.1029	-0.0073
765.2775	-0.0098
765.4521	-0.0134
765.6266	-0.0038
765.8011	-0.0067
765.9756	-0.0049
766.1501	0.0052
766.3246	-0.0089
766.4991	-0.003
766.6735	-0.0067
766.8479	-0.0111
767.0223	0.0036
767.1967	-0.0018
767.371	0.0001
767.5454	-0.0045
767.7197	0.0017
767.894	-0.0102
768.0683	-0.0031
768.2425	-0.0021
768.4168	-0.0085
768.591	-0.0061
768.7652	-0.0096
768.9394	0.0035
769.1135	0.0007
769.2877	0.0111
769.4618	-0.002
769.6359	0.0023
769.81	-0.0121
769.984	-0.005
770.1581	-0.0105
770.3321	0.0098
770.5061	-0.0022
770.6801	-0.0048
770.8541	-0.0008
771.028	0.0014
771.202	-0.0146
771.3759	-0.004
771.5498	-0.0045
771.7236	-0.0002
771.8975	-0.0039
772.0713	0.01
772.2451	0.0072
772.4189	0.0078
772.5927	0.0048
772.7665	0.0046
772.9402	0.0004
773.1139	0.0041
773.2876	0.0003
773.4613	0.0108
773.635	0.0053
773.8086	-0.0124
773.9822	0.0127
774.1558	0.0094
774.3294	-0.0102
774.503	-0.0047
774.6765	-0.0008
774.8501	-0.0003
775.0236	0.0041
775.1971	0.01
775.3705	-0.0144
775.544	0.0028
775.7174	-0.0094
775.8908	-0.0008
776.0642	-0.002
776.2376	-0.0028
776.4109	-0.0071
776.5843	0.0046
776.7576	-0.0003
776.9309	0.008
777.1041	0.0018
777.2774	0.0014
777.4506	-0.0016
777.6238	0.0032
777.797	0.0019
777.9702	0.0001
778.1434	0.0011
778.3165	-0.0113
778.4896	-0.0095
778.6627	0.011
778.8358	-0.0008
779.0089	-0.006
779.1819	0.0074
779.3549	0.0115
779.5279	0.0175
779.7009	-0.01
779.8739	0.0053
780.0468	0.0048
780.2197	0.0182
780.3926	-0.0076
780.5655	-0.0035
780.7384	0.0051
780.9112	-0.0017
781.0841	-0.001
781.2569	0.0118
781.4297	0.0039
781.6024	0.0098
781.7752	-0.0002
781.9479	0.0092
782.1206	-0.0063
782.2933	-0.0141
782.466	-0.0014
782.6386	0.0065
782.8113	0.0075
782.9839	0.0047
783.1565	0.0149
783.329	0.008
783.5016	0.0079
783.6741	0.005
783.8466	0.0069
784.0191	0.0206
784.1916	-0.0134
784.3641	0.0028
784.5365	-0.0059
784.7089	-0.0032
784.8813	-0.0088
785.0537	-0.0124
785.2261	-0.017
785.3984	-0.0114
785.5707	-0.003
785.743	0.0003
785.9153	-0.0076
786.0876	0.0009
786.2598	-0.0091
786.432	-0.0115
786.6042	0.0029
786.7764	-0.0178
786.9486	-0.0023
787.1207	-0.0178
787.2928	0.0064
787.4649	-0.0074
787.637	-0.0007
787.8091	-0.0063
787.9811	-0.0078
788.1532	-0.003
788.3252	0.0025
788.4972	-0.0106
788.6691	-0.0101
788.8411	0.0022
789.013	-0.0178
789.1849	-0.0013
789.3568	-0.0037
789.5287	-0.003
789.7005	-0.0127
789.8723	0.014
790.0442	0.0167
790.2159	0.0037
790.3877	-0.0026
790.5595	-0.0162
790.7312	-0.0153
790.9029	-0.0006
791.0746	-0.0084
791.2463	-0.0135
791.4179	-0.0085
791.5896	-0.0243
791.7612	-0.0082
791.9328	0.007
792.1044	-0.0055
792.2759	-0.0327
792.4474	-0.0175
792.619	-0.0138
792.7905	-0.0026
792.9619	-0.0079
793.1334	-0.0005
793.3048	0.0074
793.4762	0.0012
793.6476	-0.0019
793.819	-0.0083
793.9904	0.0112
794.1617	-0.0083
794.333	0.0009
794.5043	-0.0173
794.6756	0.0145
794.8469	-0.0028
795.0181	-0.0081
795.1893	-0.0041
795.3605	-0.0129
795.5317	-0.0007
795.7029	0.0003
795.874	-0.0007
796.0452	-0.0223
796.2163	-0.0148
796.3873	0.0023
796.5584	-0.0045
796.7294	-0.0124
796.9005	-0.0017
797.0715	0.003
797.2425	-0.0164
797.4134	-0.014
797.5844	-0.0013
797.7553	-0.0266
797.9262	-0.0064
798.0971	-0.0332
798.2679	-0.0125
798.4388	-0.0319
798.6096	-0.0292
798.7804	-0.0142
798.9512	-0.0168
799.122	-0.0125
799.2927	-0.0189
799.4635	0.013
799.6342	-0.0193
799.8049	-0.0147
799.9755	-0.0065
800.1462	-0.0027
800.3168	0.0111
800.4874	-0.0046
800.658	0.007
800.8286	0.0106
800.9991	-0.0025
801.1696	0.0097
801.3402	0.0017
801.5106	-0.016
801.6811	-0.0075
801.8516	0.0016
802.022	-0.0002
802.1924	0.0076
802.3628	0.0092
802.5332	-0.0041
802.7035	0.0056
802.8739	-0.0021
803.0442	-0.029
803.2145	-0.0031
803.3847	-0.0295
803.555	-0.0049
803.7252	-0.0185
803.8954	-0.0244
804.0656	-0.027
804.2358	-0.027
804.4059	-0.0142
804.5761	-0.0102
804.7462	-0.0026
804.9163	-0
805.0864	-0.0296
805.2564	-0.0071
805.4264	-0.021
805.5965	-0.0093
805.7665	-0.0089
805.9364	0.0049
806.1064	0.0214
806.2763	0.0073
806.4462	0.0111
806.6161	-0.0115
806.786	0.0031
806.9559	-0.0121
807.1257	-0.0099
807.2955	-0.0131
807.4653	-0.0135
807.6351	-0.0253
807.8048	-0.0132
807.9746	-0.011
808.1443	-0.0151
808.314	-0.0033
808.4837	-0.0191
808.6533	-0.0127
808.8229	0.0041
808.9926	-0.0144
809.1622	0.0002
809.3317	-0.0143
809.5013	-0.0269
809.6708	0.0002
809.8403	-0.0017
810.0098	-0.0258
810.1793	-0.0112
810.3488	-0.0251
810.5182	-0.0267
810.6876	-0.0058
810.857	-0.0484
811.0264	0.0125
811.1958	-0.0104
811.3651	-0.0104
811.5344	-0.0055
811.7037	-0.0149
811.873	-0.0133
812.0422	-0.019
812.2115	-0.0125
812.3807	-0.0356
812.5499	-0.0266
812.7191	0.0035
812.8882	-0.0296
813.0574	-0.0117
813.2265	-0.0189
813.3956	-0.0072
813.5646	-0.0234
813.7337	-0.0251
813.9027	0.0163
814.0718	0.0107
814.2407	0.0201
814.4097	0.002
814.5787	-0.0222
814.7476	-0.0128
814.9165	-0.0036
815.0854	0.0021
815.2543	-0.0197
815.4232	-0.0024
815.592	0.0132
815.7608	-0.0168
815.9296	-0.0047
816.0984	-0.0124
816.2671	-0.0003
816.4359	-0.0198
816.6046	-0.0071
816.7733	-0.0168
816.942	-0.0289
817.1106	-0.0148
817.2793	-0.0108
817.4479	-0.0112
817.6165	0.0022
817.785	-0.0072
817.9536	-0.0094
818.1221	-0.0073
818.2906	-0.0057
818.4591	-0.016
818.6276	-0.0156
818.7961	-0.0046
818.9645	-0.0204
819.1329	-0.0118
819.3013	0.0079
819.4697	0.0159
819.638	-0.0178
819.8064	-0.0222
819.9747	-0.0007
820.143	-0.0546
820.3113	-0.0125
820.4795	-0.0151
820.6477	-0.0065
820.816	-0.0151
820.9842	-0.0245
821.1523	-0.0323
821.3205	-0.0413
821.4886	-0.018
821.6567	-0.0233
821.8248	-0.0113
821.9929	0.0105
822.1609	-0.006
822.329	0.03
822.497	0.0257
822.665	0.0008
822.833	-0.0167
823.0009	-0.0162
823.1688	0.0141
823.3367	-0.0031
823.5046	-0.0065
823.6725	0.0424
823.8404	0.0072
824.0082	0.0278
824.176	-0.0027
824.3438	0.0105
824.5116	-0.0268
824.6793	0.0012
824.847	-0.0134
825.0147	-0.0188
825.1824	0.0289
825.3501	0.0076
825.5177	-0.0157
825.6854	-0.0034
825.853	0.0059
826.0206	-0.0293
826.1881	0.0131
826.3557	-0.0244
826.5232	0.0079
826.6907	-0.0428
826.8582	-0.0254
827.0257	-0.0443
827.1931	-0.0177
827.3605	-0.0185
827.528	-0.0353
827.6953	-0.0368
827.8627	-0.0129
828.03	0.0234
828.1974	-0.0175
828.3647	-0.0492
828.532	-0.0286
828.6992	-0.0212
828.8665	-0.0066
829.0337	-0.0173
829.2009	-0.0147
829.3681	-0.0282
829.5352	0.0162
829.7024	-0.039
829.8695	-0.0266
830.0366	0.0077
830.2037	0.0051
830.3707	0.0105
830.5378	-0.0309
830.7048	-0.0264
830.8718	-0.0038
831.0388	-0.0096
831.2057	0.0016
831.3727	0.0063
831.5396	0.0051
831.7065	-0.0207
831.8734	-0.0054
832.0402	-0.043
832.2071	-0.0177
832.3739	-0.0285
832.5407	-0.0176
832.7075	-0.0255
832.8742	-0.0568
833.041	-0.0585
833.2077	-0.0024
833.3744	0.0006
833.541	-0.0018
833.7077	-0.0331
833.8743	-0.0211
834.0409	-0.003
834.2075	-0.0131
834.3741	-0.0091
834.5407	-0.0543
834.7072	-0.0125
834.8737	-0.0477
835.0402	-0.0507
835.2067	-0.0031
835.3731	-0.0072
835.5395	0.0032
835.706	-0.0115
835.8723	-0.0372
836.0387	-0.0159
836.2051	-0.0021
836.3714	-0.0348
836.5377	-0.0089
836.704	-0.0349
836.8703	0.0008
837.0365	-0.0464
837.2027	-0.0404
837.3689	0.014
837.5351	0.0083
837.7013	-0.0668
837.8674	-0.0472
838.0335	-0.0337
838.1997	-0.0167
838.3657	-0.0683
838.5318	-0.0115
838.6978	-0.0043
838.8639	-0.0132
839.0299	0.0248
839.1958	-0.0432
839.3618	0.0283
839.5277	-0.0377
839.6937	-0.0049
839.8596	-0.0702
840.0254	-0.0226
840.1913	-0.0318
840.3571	0.0151
840.523	-0.0498
840.6888	-0.0826
840.8545	-0.0542
841.0203	-0.0205
841.186	-0.0076
841.3517	-0.0089
841.5174	-0.0205
841.6831	-0.0318
841.8488	0.0082
842.0144	-0.03
842.18	-0.0122
842.3456	0.0475
842.5112	-0.015
842.6767	-0.0439
842.8422	-0.0736
843.0077	-0.0152
843.1732	-0.0368
843.3387	-0.0602
843.5042	-0.0104
843.6696	-0.0425
843.835	-0.018
844.0004	0.0739
844.1657	-0.0456
844.3311	-0.0203
844.4964	-0.1044
844.6617	-0.0175
844.827	-0.0676
844.9923	-0.0362
845.1575	0.0598
845.3227	0.0177
845.4879	-0.0325
845.6531	-0.0565
845.8183	-0.0498
845.9834	-0.0382
846.1485	-0.072
846.3136	-0.0411
846.4787	-0.1284
846.6438	0.0465
846.8088	-0.0864
846.9738	-0.0901
847.1388	-0.0542
847.3038	-0.071
847.4687	-0.1412
847.6337	0.0465
847.7986	-0.0709
847.9635	-0.0578
848.1284	-0.0095
848.2932	0.0794
848.458	-0.039
848.6228	-0.0055
848.7876	0.0868
848.9524	-0.0713
849.1172	-0.0709
849.2819	-0.0257
849.4466	-0.0596
849.6113	-0.0809
849.7759	-0.0118
849.9406	-0.0681
850.1052	-0.0089
850.2698	-0.0222
850.4344	-0.0376
850.599	-0.0515
850.7635	0.0631
850.928	-0.0639
851.0925	-0.0658
851.257	0.0293
851.4215	-0.032
851.5859	-0.0871
851.7503	-0.0268
851.9147	-0.0467
852.0791	-0.0474
852.2434	-0.0699
852.4078	0.0067
852.5721	0.0661
852.7364	-0.0554
852.9007	-0.2048
853.0649	-0.0376
853.2291	-0.005
853.3934	0
853.5575	-0.01
853.7217	-0.0545
853.8859	-0.0918
854.05	0.0053
854.2141	0.0673
854.3782	-0.1312
854.5423	-0.089
854.7063	0.0824
854.8703	-0.0471
855.0343	-0.1104
855.1983	-0.0838
855.3623	0.0723
855.5262	-0.0541
855.6901	0.0251
855.854	0.0021
856.0179	0.1951
856.1818	0.0903
856.3456	-0.0511
856.5094	0.0216
856.6732	-0.2099
856.837	-0.109
857.0008	-0.0352
857.1645	-0.1278
857.3282	-0.1776
857.4919	-0.1801
857.6556	0.1166
857.8192	-0.1297
857.9828	0.1164
858.1465	-0.0191
858.31	-0.1741
858.4736	-0.1561
858.6372	-0.3506
858.8007	-0.148
858.9642	0.0381
859.1277	0.0496
859.2911	-0.0311
859.4546	-0.0561
859.618	-0.4731
859.7814	-0.0824
859.9448	0.0457
860.1081	0.1891
860.2715	0.167
860.4348	-0.1966
860.5981	-0.2586
860.7614	-0.0213
860.9246	-0.1491
861.0879	-0.4167
861.2511	0.0488
861.4143	-0.4032
861.5774	0.1758
861.7406	-0.286
861.9037	-0
862.0668	-0.1162
862.2299	-0.0072
862.393	-0.685
862.556	-0.056
862.7191	-0.1388
862.8821	-0.2
863.0451	-0.0613
863.208	0.0824
863.371	-0.1591
863.5339	-0.2256
863.6968	0.005
863.8597	-0.3734
864.0225	-0.1576
864.1854	-0.0262
864.3482	-0.1912
864.511	0.4147
864.6737	0.3411
864.8365	-0.2489
864.9992	-0.215
865.1619	-0.259
865.3246	0.0146
865.4873	-0.0097
865.65	-0.284
865.8126	-0.0519
865.9752	0.0338
866.1378	-0.1507
866.3004	0.2111
866.4629	0.1876
866.6254	0.1818
866.7879	0.0097
866.9504	-0.0699
867.1129	-0
867.2753	-0.0271
867.4377	0.0452
867.6001	-0.47
867.7625	-0.0939
867.9249	-0.7616
868.0872	-0.0931
868.2495	-0.1758
868.4118	0.0665
868.5741	-0.6238
868.7363	-0.139
868.8986	-0.5412
869.0608	-0.016
869.223	0.0586
869.3851	0.4023
869.5473	1.4183
869.7094	0.1859
869.8715	-0.1234
870.0336	-0
870.1957	-0.5857
870.3577	-0
870.5197	-0.1001
870.6817	0.5356
870.8437	-0.1735
871.0057	-0
871.1676	-0.2754
871.3295	-0
871.4914	-0
871.6533	-0.4578
871.8151	-0.4918
871.977	-0
872.1388	-0
872.3006	-0
872.4623	-0
872.6241	1.642
872.7858	-0.3066
872.9475	0.103
873.1092	-0.2319
873.2709	-0.0431
873.4325	-0.1275
873.5941	-0.7242
873.7557	-0
873.9173	-0
874.0789	-0
874.2404	-0
874.4019	0.0811
874.5634	-0.2001
874.7249	-0.1966
874.8863	0.3336
875.0478	-0.0714
875.2092	-0
875.3706	0.1514
875.5319	-1.0803
875.6933	0.5927
875.8546	-0.3818
876.0159	-0
876.1772	0.5659
876.3385	-0
876.4997	0.0802
876.6609	-0.5353
876.8221	-0
876.9833	0.9707
877.1445	-0
877.3056	-0.081
877.4667	-0.1661
877.6278	-0
877.7889	-0.5027
877.9499	-0
878.111	1.4914
878.272	-0
878.433	-0
878.5939	-0
878.7549	-0.1912
878.9158	-1.0363
879.0767	0.7905
879.2376	-0
879.3984	-0.2327
879.5593	-0
879.7201	-0.2422
879.8809	-0.6178
880.0417	0.6803
880.2024	0.2869
880.3632	-0.9899
880.5239	0.1395
880.6846	0.2511
880.8452	-2.6599
881.0059	-0.9731
881.1665	-0
881.3271	-0
881.4877	-0.3385
881.6483	-0.6878
881.8088	-0.195
881.9693	-0
882.1298	-0
882.2903	-0
