Data from MonoPyChalIsomerACN10uM420nmA_Absorbance_15-09-54-335.txt Node
Date: Fri Jul 05 15:09:54 BST 2024
User: LASERRRRR
Spectrometer: FLMT03099
Trigger mode: 0
Integration Time (sec): 1.000000E-1
Scans to average: 1
Electric dark correction enabled: true
Nonlinearity correction enabled: false
Boxcar width: 0
XAxis mode: Wavelengths
Number of Pixels in Spectrum: 3648
>>>>>Begin Spectral Data<<<<<
179.3399	0.5136
179.5586	0.5136
179.7771	0.5136
179.9957	0.1146
180.2143	-0.447
180.4329	-0.2532
180.6514	-0.0404
180.8699	-0.3557
181.0885	0.1755
181.307	0.4118
181.5255	-0
181.744	-0.5441
181.9625	-0.0523
182.181	-0.5718
182.3994	-0
182.6179	-0.1412
182.8363	0.0534
183.0547	0.3827
183.2732	0.0514
183.4916	0.3191
183.71	0.0244
183.9284	0.5371
184.1467	-0.1217
184.3651	-0.0137
184.5835	-0.1634
184.8018	0.1487
185.0201	0.2419
185.2385	0.1443
185.4568	0.1511
185.6751	-0.0275
185.8934	0.0473
186.1117	0.3162
186.3299	0.2694
186.5482	0.0426
186.7664	0.0785
186.9847	0.2965
187.2029	0.1154
187.4211	0.1457
187.6393	0.334
187.8575	-0.0282
188.0757	0.2623
188.2939	0.2319
188.512	-0.0522
188.7302	0.0987
188.9483	0.2885
189.1665	0.223
189.3846	-0.2074
189.6027	0.2197
189.8208	0.4165
190.0389	0.1605
190.257	0.0407
190.475	0.4868
190.6931	0.5247
190.9111	0.2077
191.1292	0.0405
191.3472	0.4789
191.5652	0.4228
191.7832	0.2906
192.0012	0.7732
192.2192	0.4668
192.4371	0.4825
192.6551	0.3399
192.873	0.4874
193.091	0.4583
193.3089	0.4812
193.5268	0.4591
193.7447	0.6171
193.9626	0.4193
194.1805	0.7314
194.3984	0.8131
194.6162	0.4744
194.8341	0.4831
195.0519	0.6614
195.2697	0.832
195.4875	0.6644
195.7054	0.7929
195.9231	0.5373
196.1409	0.6481
196.3587	0.7176
196.5765	0.5476
196.7942	0.5746
197.012	0.8312
197.2297	0.4568
197.4474	0.7329
197.6651	0.7438
197.8828	0.6867
198.1005	0.6508
198.3182	0.6742
198.5358	0.7055
198.7535	0.75
198.9711	0.6257
199.1888	0.6661
199.4064	0.7852
199.624	0.7028
199.8416	0.6765
200.0592	0.6137
200.2767	0.8455
200.4943	0.7754
200.7119	0.7857
200.9294	0.7206
201.1469	0.5976
201.3645	0.5306
201.582	0.6292
201.7995	0.7021
202.017	0.7216
202.2344	0.542
202.4519	0.5919
202.6694	0.73
202.8868	0.6999
203.1042	0.753
203.3217	0.7447
203.5391	0.6449
203.7565	0.6015
203.9739	0.7058
204.1913	0.5987
204.4086	0.6969
204.626	0.7116
204.8433	0.6738
205.0607	0.6463
205.278	0.7236
205.4953	0.6548
205.7126	0.7418
205.9299	0.8604
206.1472	0.8383
206.3644	0.6601
206.5817	0.7751
206.7989	0.7659
207.0162	0.6692
207.2334	0.7324
207.4506	0.7167
207.6678	0.6458
207.885	0.6461
208.1022	0.6899
208.3194	0.6662
208.5365	0.7914
208.7537	0.6322
208.9708	0.6345
209.1879	0.6326
209.405	0.7841
209.6222	0.7652
209.8392	0.6627
210.0563	0.6621
210.2734	0.6382
210.4905	0.6463
210.7075	0.7208
210.9245	0.5661
211.1416	0.6939
211.3586	0.6071
211.5756	0.643
211.7926	0.6207
212.0096	0.6065
212.2265	0.6227
212.4435	0.5722
212.6604	0.6374
212.8774	0.6032
213.0943	0.6177
213.3112	0.5831
213.5281	0.5583
213.745	0.5061
213.9619	0.5104
214.1788	0.5144
214.3956	0.4373
214.6125	0.472
214.8293	0.4774
215.0461	0.4821
215.2629	0.5055
215.4798	0.4585
215.6965	0.4276
215.9133	0.4246
216.1301	0.4184
216.3469	0.4689
216.5636	0.4217
216.7803	0.3752
216.9971	0.4243
217.2138	0.349
217.4305	0.3729
217.6472	0.3768
217.8639	0.3776
218.0805	0.3487
218.2972	0.335
218.5138	0.2938
218.7305	0.3441
218.9471	0.3152
219.1637	0.3045
219.3803	0.2945
219.5969	0.2788
219.8135	0.2686
220.0301	0.2816
220.2466	0.2757
220.4632	0.2715
220.6797	0.2423
220.8962	0.243
221.1127	0.2406
221.3292	0.241
221.5457	0.2349
221.7622	0.2305
221.9787	0.2547
222.1951	0.2467
222.4116	0.2654
222.628	0.2527
222.8444	0.2562
223.0608	0.2708
223.2772	0.271
223.4936	0.2644
223.71	0.2594
223.9264	0.2715
224.1427	0.284
224.3591	0.2511
224.5754	0.2718
224.7917	0.2762
225.008	0.2616
225.2243	0.2682
225.4406	0.2998
225.6569	0.2451
225.8732	0.2463
226.0894	0.2879
226.3057	0.2651
226.5219	0.2823
226.7381	0.2715
226.9543	0.2903
227.1705	0.2813
227.3867	0.2783
227.6029	0.3054
227.8191	0.2937
228.0352	0.2788
228.2513	0.3068
228.4675	0.3167
228.6836	0.3031
228.8997	0.3002
229.1158	0.3009
229.3319	0.3351
229.548	0.308
229.764	0.3276
229.9801	0.3214
230.1961	0.3182
230.4121	0.3316
230.6282	0.3257
230.8442	0.3391
231.0602	0.3451
231.2761	0.3685
231.4921	0.3382
231.7081	0.3506
231.924	0.3729
232.14	0.3559
232.3559	0.3499
232.5718	0.3727
232.7877	0.3576
233.0036	0.3453
233.2195	0.3518
233.4353	0.3652
233.6512	0.3704
233.867	0.3752
234.0829	0.3611
234.2987	0.3567
234.5145	0.3754
234.7303	0.3627
234.9461	0.3959
235.1619	0.3865
235.3776	0.3858
235.5934	0.3739
235.8091	0.3738
236.0249	0.3739
236.2406	0.3996
236.4563	0.3876
236.672	0.3723
236.8877	0.4152
237.1034	0.3998
237.319	0.4071
237.5347	0.4038
237.7503	0.3906
237.966	0.4072
238.1816	0.4186
238.3972	0.3875
238.6128	0.3979
238.8284	0.4047
239.0439	0.4226
239.2595	0.3932
239.475	0.4177
239.6906	0.4107
239.9061	0.4078
240.1216	0.3998
240.3371	0.4135
240.5526	0.4023
240.7681	0.4261
240.9836	0.3898
241.199	0.3982
241.4145	0.4164
241.6299	0.3921
241.8453	0.3891
242.0607	0.3913
242.2761	0.3683
242.4915	0.3907
242.7069	0.3877
242.9223	0.3843
243.1376	0.3681
243.353	0.3825
243.5683	0.3638
243.7836	0.3524
243.9989	0.3658
244.2142	0.3377
244.4295	0.3374
244.6448	0.3446
244.86	0.3103
245.0753	0.3173
245.2905	0.3111
245.5057	0.2921
245.721	0.3095
245.9362	0.2916
246.1514	0.2887
246.3665	0.2656
246.5817	0.295
246.7969	0.2543
247.012	0.2627
247.2271	0.2525
247.4423	0.254
247.6574	0.2572
247.8725	0.2456
248.0876	0.2472
248.3026	0.2469
248.5177	0.231
248.7328	0.2358
248.9478	0.2182
249.1628	0.2318
249.3779	0.242
249.5929	0.2125
249.8079	0.2366
250.0228	0.2277
250.2378	0.2119
250.4528	0.2283
250.6677	0.1939
250.8827	0.2081
251.0976	0.2117
251.3125	0.2034
251.5274	0.1916
251.7423	0.1992
251.9572	0.1947
252.172	0.1944
252.3869	0.1856
252.6017	0.1884
252.8166	0.1717
253.0314	0.1788
253.2462	0.184
253.461	0.201
253.6758	0.1741
253.8906	0.1811
254.1053	0.1849
254.3201	0.1881
254.5348	0.182
254.7496	0.1929
254.9643	0.186
255.179	0.1807
255.3937	0.1687
255.6083	0.1703
255.823	0.1794
256.0377	0.1742
256.2523	0.1808
256.467	0.1659
256.6816	0.1903
256.8962	0.1707
257.1108	0.1654
257.3254	0.1757
257.54	0.1655
257.7545	0.1706
257.9691	0.1925
258.1836	0.1639
258.3981	0.178
258.6127	0.1917
258.8272	0.1637
259.0417	0.166
259.2561	0.1764
259.4706	0.1712
259.6851	0.1766
259.8995	0.1694
260.114	0.1679
260.3284	0.165
260.5428	0.1704
260.7572	0.18
260.9716	0.1754
261.186	0.1606
261.4003	0.1634
261.6147	0.171
261.829	0.1798
262.0433	0.1852
262.2577	0.1694
262.472	0.1744
262.6863	0.1659
262.9005	0.1727
263.1148	0.1828
263.3291	0.1514
263.5433	0.1679
263.7576	0.1729
263.9718	0.1778
264.186	0.1801
264.4002	0.1604
264.6144	0.1684
264.8286	0.1702
265.0427	0.1704
265.2569	0.1692
265.471	0.168
265.6851	0.1674
265.8993	0.1705
266.1134	0.1668
266.3275	0.1786
266.5415	0.1693
266.7556	0.1911
266.9697	0.1665
267.1837	0.1763
267.3978	0.176
267.6118	0.1814
267.8258	0.193
268.0398	0.1616
268.2538	0.1794
268.4677	0.1822
268.6817	0.1646
268.8957	0.1818
269.1096	0.1789
269.3235	0.1785
269.5374	0.1631
269.7514	0.1648
269.9652	0.1669
270.1791	0.1638
270.393	0.1585
270.6068	0.1608
270.8207	0.1664
271.0345	0.164
271.2483	0.1729
271.4622	0.1658
271.676	0.1868
271.8897	0.1553
272.1035	0.1492
272.3173	0.1487
272.531	0.1546
272.7448	0.156
272.9585	0.1522
273.1722	0.1655
273.3859	0.1722
273.5996	0.1552
273.8133	0.1532
274.0269	0.1607
274.2406	0.1623
274.4542	0.1703
274.6679	0.1501
274.8815	0.1526
275.0951	0.1652
275.3087	0.1739
275.5223	0.172
275.7358	0.1808
275.9494	0.1744
276.1629	0.1499
276.3765	0.1615
276.59	0.1618
276.8035	0.172
277.017	0.1676
277.2305	0.1655
277.444	0.1706
277.6574	0.1564
277.8709	0.1681
278.0843	0.161
278.2978	0.1739
278.5112	0.1577
278.7246	0.1728
278.938	0.1607
279.1513	0.1661
279.3647	0.1683
279.5781	0.1645
279.7914	0.1641
280.0047	0.1705
280.2181	0.1765
280.4314	0.1698
280.6447	0.1683
280.8579	0.1589
281.0712	0.1794
281.2845	0.1787
281.4977	0.1769
281.711	0.167
281.9242	0.1679
282.1374	0.1734
282.3506	0.1601
282.5638	0.1763
282.7769	0.1678
282.9901	0.1742
283.2033	0.1783
283.4164	0.1739
283.6295	0.1588
283.8426	0.1598
284.0557	0.1756
284.2688	0.1798
284.4819	0.1744
284.695	0.1639
284.908	0.1779
285.1211	0.1596
285.3341	0.1729
285.5471	0.1718
285.7601	0.1626
285.9731	0.1614
286.1861	0.1627
286.3991	0.1734
286.612	0.172
286.825	0.1583
287.0379	0.1737
287.2508	0.1676
287.4637	0.1687
287.6766	0.1708
287.8895	0.1717
288.1024	0.1815
288.3152	0.1738
288.5281	0.1488
288.7409	0.1658
288.9538	0.1493
289.1666	0.1574
289.3794	0.1683
289.5922	0.155
289.8049	0.1548
290.0177	0.1683
290.2304	0.171
290.4432	0.1801
290.6559	0.1678
290.8686	0.1706
291.0813	0.1555
291.294	0.1605
291.5067	0.1668
291.7194	0.1562
291.932	0.1681
292.1447	0.1529
292.3573	0.1556
292.5699	0.1596
292.7825	0.1539
292.9951	0.1493
293.2077	0.1568
293.4203	0.1503
293.6328	0.1478
293.8454	0.1628
294.0579	0.1585
294.2704	0.1525
294.4829	0.1529
294.6954	0.1649
294.9079	0.1602
295.1204	0.1537
295.3328	0.1331
295.5453	0.1592
295.7577	0.1565
295.9701	0.1515
296.1825	0.1637
296.3949	0.1554
296.6073	0.1455
296.8197	0.1491
297.0321	0.1631
297.2444	0.1407
297.4567	0.1492
297.6691	0.1553
297.8814	0.1512
298.0937	0.1507
298.306	0.1529
298.5182	0.1528
298.7305	0.1617
298.9428	0.1607
299.155	0.1581
299.3672	0.1449
299.5794	0.1478
299.7916	0.1574
300.0038	0.1481
300.216	0.1555
300.4282	0.1624
300.6403	0.1528
300.8525	0.1657
301.0646	0.1382
301.2767	0.1571
301.4888	0.1482
301.7009	0.1601
301.913	0.1541
302.125	0.1574
302.3371	0.1559
302.5491	0.1456
302.7612	0.1574
302.9732	0.1612
303.1852	0.1603
303.3972	0.1551
303.6092	0.1489
303.8211	0.1439
304.0331	0.1506
304.245	0.1358
304.457	0.1484
304.6689	0.1497
304.8808	0.158
305.0927	0.1311
305.3046	0.1438
305.5164	0.1453
305.7283	0.1465
305.9401	0.1461
306.152	0.1427
306.3638	0.1526
306.5756	0.1485
306.7874	0.1394
306.9992	0.1419
307.2109	0.1347
307.4227	0.1267
307.6344	0.1417
307.8462	0.1376
308.0579	0.1316
308.2696	0.1274
308.4813	0.1301
308.693	0.1396
308.9046	0.1279
309.1163	0.1295
309.328	0.1195
309.5396	0.1266
309.7512	0.1281
309.9628	0.1243
310.1744	0.1185
310.386	0.1276
310.5976	0.1163
310.8091	0.1187
311.0207	0.1213
311.2322	0.1138
311.4437	0.1134
311.6552	0.1127
311.8667	0.1262
312.0782	0.1071
312.2897	0.1111
312.5012	0.1137
312.7126	0.1224
312.924	0.1111
313.1355	0.1204
313.3469	0.1166
313.5583	0.1197
313.7696	0.1116
313.981	0.1195
314.1924	0.1099
314.4037	0.0988
314.6151	0.1206
314.8264	0.1025
315.0377	0.112
315.249	0.1188
315.4603	0.1265
315.6716	0.1096
315.8828	0.103
316.0941	0.1107
316.3053	0.1267
316.5165	0.1126
316.7277	0.1015
316.9389	0.1158
317.1501	0.105
317.3613	0.1103
317.5724	0.109
317.7836	0.1113
317.9947	0.1078
318.2058	0.1096
318.417	0.1037
318.6281	0.0941
318.8391	0.1102
319.0502	0.1175
319.2613	0.1038
319.4723	0.1119
319.6834	0.1241
319.8944	0.1045
320.1054	0.1135
320.3164	0.1142
320.5274	0.1107
320.7383	0.103
320.9493	0.1223
321.1602	0.1187
321.3712	0.0996
321.5821	0.1187
321.793	0.1185
322.0039	0.1056
322.2148	0.1119
322.4257	0.1149
322.6365	0.1186
322.8474	0.1186
323.0582	0.1108
323.269	0.1246
323.4798	0.1307
323.6906	0.1146
323.9014	0.1234
324.1122	0.1188
324.3229	0.118
324.5337	0.1258
324.7444	0.1063
324.9551	0.1151
325.1658	0.114
325.3765	0.115
325.5872	0.1103
325.7979	0.1207
326.0085	0.1186
326.2192	0.1252
326.4298	0.1091
326.6404	0.1027
326.851	0.1186
327.0616	0.1115
327.2722	0.1193
327.4828	0.1214
327.6933	0.1068
327.9039	0.1224
328.1144	0.1318
328.3249	0.1282
328.5354	0.1132
328.7459	0.1241
328.9564	0.0967
329.1669	0.1206
329.3773	0.1091
329.5878	0.116
329.7982	0.1196
330.0086	0.1164
330.219	0.1321
330.4294	0.1136
330.6398	0.1236
330.8502	0.1183
331.0605	0.1213
331.2708	0.1281
331.4812	0.1221
331.6915	0.1091
331.9018	0.1216
332.1121	0.1247
332.3224	0.1279
332.5326	0.1255
332.7429	0.1236
332.9531	0.1339
333.1633	0.1193
333.3735	0.118
333.5837	0.1241
333.7939	0.1161
334.0041	0.1315
334.2143	0.1248
334.4244	0.1236
334.6346	0.1102
334.8447	0.1275
335.0548	0.1172
335.2649	0.1213
335.475	0.1201
335.685	0.1305
335.8951	0.1411
336.1051	0.1254
336.3152	0.13
336.5252	0.1211
336.7352	0.1201
336.9452	0.1232
337.1552	0.1317
337.3652	0.1181
337.5751	0.1212
337.7851	0.1256
337.995	0.1312
338.2049	0.1189
338.4148	0.1254
338.6247	0.1309
338.8346	0.122
339.0445	0.1207
339.2543	0.1189
339.4642	0.1185
339.674	0.1162
339.8838	0.1339
340.0936	0.127
340.3034	0.1468
340.5132	0.1392
340.7229	0.1284
340.9327	0.1259
341.1424	0.1149
341.3522	0.1304
341.5619	0.1463
341.7716	0.1508
341.9813	0.152
342.1909	0.1349
342.4006	0.1326
342.6102	0.1418
342.8199	0.1393
343.0295	0.1351
343.2391	0.1324
343.4487	0.1516
343.6583	0.1432
343.8679	0.1495
344.0774	0.1437
344.287	0.1485
344.4965	0.1386
344.706	0.145
344.9155	0.1319
345.125	0.1354
345.3345	0.1515
345.544	0.1291
345.7534	0.1462
345.9629	0.1324
346.1723	0.1456
346.3817	0.1373
346.5911	0.1387
346.8005	0.1516
347.0099	0.1302
347.2193	0.1498
347.4286	0.1348
347.638	0.1492
347.8473	0.1395
348.0566	0.156
348.2659	0.1493
348.4752	0.1392
348.6845	0.1378
348.8937	0.1361
349.103	0.1602
349.3122	0.136
349.5214	0.1414
349.7306	0.146
349.9398	0.1363
350.149	0.1464
350.3582	0.1328
350.5674	0.1604
350.7765	0.1469
350.9856	0.137
351.1948	0.1685
351.4039	0.1374
351.613	0.1416
351.822	0.1565
352.0311	0.1498
352.2402	0.1429
352.4492	0.1566
352.6582	0.1695
352.8672	0.1425
353.0762	0.1536
353.2852	0.149
353.4942	0.1419
353.7032	0.16
353.9121	0.1618
354.1211	0.1539
354.33	0.1625
354.5389	0.1598
354.7478	0.1656
354.9567	0.1642
355.1655	0.1512
355.3744	0.1649
355.5833	0.1687
355.7921	0.1752
356.0009	0.1591
356.2097	0.1674
356.4185	0.1678
356.6273	0.1724
356.8361	0.1635
357.0448	0.1583
357.2536	0.1553
357.4623	0.1622
357.671	0.1713
357.8797	0.1726
358.0884	0.1668
358.2971	0.1563
358.5057	0.1807
358.7144	0.1729
358.923	0.1738
359.1316	0.1681
359.3402	0.1641
359.5488	0.18
359.7574	0.1569
359.966	0.1658
360.1746	0.1785
360.3831	0.1813
360.5916	0.1646
360.8002	0.1615
361.0087	0.1753
361.2172	0.1804
361.4256	0.1788
361.6341	0.1816
361.8426	0.1717
362.051	0.1879
362.2594	0.1753
362.4678	0.174
362.6762	0.1992
362.8846	0.1868
363.093	0.1655
363.3014	0.1836
363.5097	0.1623
363.718	0.1797
363.9264	0.1803
364.1347	0.1861
364.343	0.188
364.5513	0.1948
364.7595	0.1958
364.9678	0.1884
365.176	0.1982
365.3842	0.1875
365.5925	0.1816
365.8007	0.2043
366.0089	0.199
366.217	0.1759
366.4252	0.1996
366.6333	0.1996
366.8415	0.2019
367.0496	0.1907
367.2577	0.1922
367.4658	0.2093
367.6739	0.1958
367.882	0.2118
368.09	0.1864
368.2981	0.2057
368.5061	0.1901
368.7141	0.1871
368.9221	0.1984
369.1301	0.1974
369.3381	0.1982
369.5461	0.1923
369.754	0.1965
369.962	0.2021
370.1699	0.1922
370.3778	0.207
370.5857	0.1812
370.7936	0.2026
371.0015	0.2028
371.2093	0.1973
371.4172	0.2042
371.625	0.1863
371.8328	0.1876
372.0406	0.2009
372.2484	0.2043
372.4562	0.2075
372.664	0.2016
372.8717	0.2108
373.0795	0.1937
373.2872	0.2033
373.4949	0.2084
373.7026	0.1958
373.9103	0.2104
374.118	0.2028
374.3256	0.2189
374.5333	0.2035
374.7409	0.193
374.9485	0.2154
375.1561	0.2213
375.3637	0.2109
375.5713	0.2065
375.7789	0.2066
375.9864	0.2055
376.194	0.2208
376.4015	0.2218
376.609	0.2267
376.8165	0.2088
377.024	0.2029
377.2315	0.1934
377.4389	0.2046
377.6464	0.2209
377.8538	0.2142
378.0612	0.2193
378.2686	0.2241
378.476	0.2113
378.6834	0.208
378.8908	0.2176
379.0981	0.2136
379.3055	0.2219
379.5128	0.2162
379.7201	0.2366
379.9274	0.2163
380.1347	0.2055
380.342	0.2332
380.5492	0.2133
380.7565	0.2113
380.9637	0.2077
381.1709	0.2137
381.3781	0.203
381.5853	0.2272
381.7925	0.2298
381.9997	0.227
382.2068	0.2213
382.4139	0.2169
382.6211	0.204
382.8282	0.228
383.0353	0.2151
383.2424	0.2263
383.4494	0.2216
383.6565	0.2097
383.8635	0.2288
384.0706	0.2188
384.2776	0.2285
384.4846	0.2075
384.6916	0.2144
384.8986	0.2099
385.1055	0.2187
385.3125	0.215
385.5194	0.198
385.7263	0.2235
385.9333	0.2144
386.1402	0.2146
386.347	0.2205
386.5539	0.2144
386.7608	0.2175
386.9676	0.1966
387.1744	0.2332
387.3813	0.2102
387.5881	0.2269
387.7948	0.2147
388.0016	0.2154
388.2084	0.2155
388.4151	0.2093
388.6219	0.2132
388.8286	0.2013
389.0353	0.2265
389.242	0.2115
389.4487	0.1978
389.6553	0.1936
389.862	0.1977
390.0686	0.2166
390.2753	0.2201
390.4819	0.219
390.6885	0.2014
390.8951	0.2044
391.1016	0.204
391.3082	0.1978
391.5147	0.209
391.7213	0.2072
391.9278	0.1956
392.1343	0.2038
392.3408	0.1923
392.5473	0.1871
392.7537	0.2063
392.9602	0.2002
393.1666	0.1942
393.373	0.1981
393.5794	0.211
393.7858	0.21
393.9922	0.1866
394.1986	0.2036
394.4049	0.1874
394.6113	0.1838
394.8176	0.1695
395.0239	0.1889
395.2302	0.206
395.4365	0.192
395.6428	0.1901
395.8491	0.1836
396.0553	0.1876
396.2615	0.1849
396.4678	0.1784
396.674	0.1639
396.8802	0.1826
397.0863	0.1894
397.2925	0.1864
397.4987	0.1836
397.7048	0.1799
397.9109	0.1836
398.117	0.1785
398.3231	0.1775
398.5292	0.1958
398.7353	0.1881
398.9413	0.1776
399.1474	0.1686
399.3534	0.1843
399.5594	0.1564
399.7654	0.1832
399.9714	0.2049
400.1774	0.183
400.3833	0.1661
400.5893	0.1709
400.7952	0.1818
401.0011	0.1725
401.207	0.188
401.4129	0.1745
401.6188	0.188
401.8247	0.201
402.0305	0.1647
402.2364	0.1858
402.4422	0.1817
402.648	0.1839
402.8538	0.207
403.0596	0.1671
403.2654	0.1909
403.4711	0.1589
403.6768	0.1854
403.8826	0.1871
404.0883	0.1906
404.294	0.1941
404.4997	0.1748
404.7054	0.1862
404.911	0.1753
405.1167	0.1802
405.3223	0.1915
405.5279	0.1816
405.7335	0.1877
405.9391	0.1844
406.1447	0.1871
406.3502	0.1821
406.5558	0.1776
406.7613	0.1691
406.9668	0.1841
407.1724	0.164
407.3778	0.1706
407.5833	0.18
407.7888	0.151
407.9942	0.1833
408.1997	0.1724
408.4051	0.167
408.6105	0.1761
408.8159	0.1566
409.0213	0.1735
409.2267	0.1786
409.432	0.1747
409.6374	0.1735
409.8427	0.1655
410.048	0.1708
410.2533	0.1636
410.4586	0.1762
410.6639	0.1526
410.8691	0.1724
411.0744	0.1719
411.2796	0.1801
411.4848	0.1795
411.69	0.1575
411.8952	0.1949
412.1004	0.1673
412.3056	0.1939
412.5107	0.1681
412.7158	0.1865
412.921	0.1709
413.1261	0.1569
413.3312	0.1596
413.5362	0.1552
413.7413	0.153
413.9464	0.175
414.1514	0.1678
414.3564	0.1545
414.5614	0.15
414.7664	0.1765
414.9714	0.1748
415.1764	0.1676
415.3813	0.1757
415.5863	0.1507
415.7912	0.1701
415.9961	0.1694
416.201	0.179
416.4059	0.1629
416.6108	0.1581
416.8156	0.1649
417.0205	0.1625
417.2253	0.1595
417.4301	0.1747
417.6349	0.1705
417.8397	0.1509
418.0445	0.152
418.2492	0.1719
418.454	0.1634
418.6587	0.1599
418.8634	0.1583
419.0681	0.1584
419.2728	0.1601
419.4775	0.154
419.6822	0.1499
419.8868	0.1456
420.0915	0.1648
420.2961	0.1419
420.5007	0.1524
420.7053	0.1507
420.9099	0.1637
421.1144	0.1447
421.319	0.1451
421.5235	0.1604
421.728	0.1503
421.9325	0.1468
422.137	0.1572
422.3415	0.1616
422.546	0.1556
422.7504	0.1537
422.9549	0.1637
423.1593	0.1467
423.3637	0.1476
423.5681	0.1416
423.7725	0.1366
423.9769	0.1485
424.1812	0.1294
424.3856	0.1447
424.5899	0.1416
424.7942	0.134
424.9985	0.1454
425.2028	0.1311
425.4071	0.1467
425.6113	0.1308
425.8156	0.1423
426.0198	0.131
426.224	0.1294
426.4282	0.1342
426.6324	0.1331
426.8366	0.1367
427.0407	0.153
427.2449	0.1289
427.449	0.1493
427.6531	0.1284
427.8572	0.1298
428.0613	0.1227
428.2654	0.127
428.4694	0.1189
428.6735	0.134
428.8775	0.1423
429.0815	0.1243
429.2855	0.1267
429.4895	0.1323
429.6935	0.127
429.8975	0.1374
430.1014	0.1121
430.3053	0.1054
430.5093	0.1094
430.7132	0.1196
430.9171	0.1111
431.1209	0.1175
431.3248	0.1073
431.5286	0.121
431.7325	0.1347
431.9363	0.09
432.1401	0.1296
432.3439	0.1113
432.5477	0.0842
432.7514	0.0916
432.9552	0.1092
433.1589	0.0952
433.3627	0.1029
433.5664	0.1242
433.7701	0.092
433.9737	0.0952
434.1774	0.0893
434.3811	0.1069
434.5847	0.1073
434.7883	0.0933
434.9919	0.0814
435.1955	0.084
435.3991	0.099
435.6027	0.0887
435.8062	0.0742
436.0098	0.0746
436.2133	0.0872
436.4168	0.0718
436.6203	0.0803
436.8238	0.0875
437.0272	0.0734
437.2307	0.0786
437.4341	0.0828
437.6375	0.0659
437.841	0.0716
438.0443	0.0847
438.2477	0.0848
438.4511	0.0576
438.6545	0.0811
438.8578	0.0854
439.0611	0.072
439.2644	0.0707
439.4677	0.0661
439.671	0.0635
439.8743	0.0725
440.0775	0.074
440.2808	0.0564
440.484	0.0565
440.6872	0.0381
440.8904	0.0571
441.0936	0.081
441.2967	0.0609
441.4999	0.0532
441.703	0.0467
441.9062	0.0499
442.1093	0.0554
442.3124	0.0635
442.5155	0.0282
442.7185	0.0606
442.9216	0.0334
443.1246	0.0501
443.3276	0.0398
443.5307	0.0439
443.7337	0.0455
443.9366	0.0634
444.1396	0.0523
444.3426	0.0518
444.5455	0.037
444.7484	0.0426
444.9513	0.0399
445.1542	0.0466
445.3571	0.0509
445.56	0.0398
445.7628	0.0332
445.9657	0.0352
446.1685	0.0386
446.3713	0.0451
446.5741	0.0351
446.7769	0.0286
446.9797	0.0282
447.1824	0.0363
447.3852	0.0266
447.5879	0.0347
447.7906	0.0458
447.9933	0.0272
448.196	0.029
448.3986	0.0325
448.6013	0.0343
448.8039	0.0125
449.0066	0.0305
449.2092	0.0294
449.4118	0.0392
449.6143	0.0262
449.8169	0.024
450.0195	0.0127
450.222	0.0141
450.4245	0.0235
450.627	0.02
450.8295	0.0363
451.032	0.0255
451.2345	0.008
451.4369	0.0304
451.6394	0.0286
451.8418	0.0045
452.0442	0.0162
452.2466	0.0378
452.449	0.0048
452.6513	0.0329
452.8537	0.0102
453.056	0.0212
453.2583	0.0258
453.4607	0.0187
453.663	0.013
453.8652	0.0238
454.0675	0.0089
454.2697	0.0245
454.472	-0.0134
454.6742	0.03
454.8764	0.0215
455.0786	0.0236
455.2808	-0.0039
455.4829	0.0148
455.6851	-0.0003
455.8872	0.0122
456.0893	0.0303
456.2915	-0.0053
456.4935	0.0211
456.6956	-0.006
456.8977	0.0102
457.0997	0.0081
457.3018	-0.0059
457.5038	0.0113
457.7058	-0.0005
457.9078	-0.0157
458.1098	0.0083
458.3117	0.0157
458.5137	0.0205
458.7156	0.0148
458.9175	0.0087
459.1194	0.001
459.3213	-0.0033
459.5232	0.0007
459.725	-0.007
459.9269	-0.0028
460.1287	-0.0047
460.3305	-0.0069
460.5323	-0.0034
460.7341	0.0063
460.9359	0.0127
461.1376	0.0178
461.3394	-0.0089
461.5411	0.0061
461.7428	-0.0061
461.9445	0.0109
462.1462	0.0162
462.3479	0.0052
462.5495	0.0054
462.7512	0.0104
462.9528	0.0058
463.1544	-0.011
463.356	0.0124
463.5576	0.0019
463.7592	-0.0028
463.9607	0.0062
464.1623	0.0173
464.3638	0.0194
464.5653	-0.0106
464.7668	0.0005
464.9683	0.0152
465.1697	0.0068
465.3712	-0.0124
465.5726	-0.0039
465.7741	0.0013
465.9755	-0.0047
466.1769	-0.0064
466.3782	-0.0011
466.5796	-0.0023
466.7809	0.0053
466.9823	-0.004
467.1836	0.0105
467.3849	-0.0036
467.5862	-0.0006
467.7875	-0.008
467.9887	0.0116
468.19	-0.0045
468.3912	0.0033
468.5924	-0.0119
468.7936	0.0046
468.9948	-0.012
469.196	0.0107
469.3972	-0.0112
469.5983	0.0075
469.7994	-0.0163
470.0006	0.0005
470.2017	-0.0102
470.4027	-0.0174
470.6038	0.0102
470.8049	-0.0122
471.0059	-0.0117
471.2069	-0.0308
471.408	0.0176
471.6089	0.0101
471.8099	-0.0062
472.0109	0.0018
472.2119	-0.0084
472.4128	-0.0064
472.6137	0.0046
472.8146	-0.013
473.0155	-0.0068
473.2164	-0.008
473.4173	0.0108
473.6181	0.0083
473.819	-0.0071
474.0198	-0.0007
474.2206	-0.0158
474.4214	-0.0134
474.6222	-0.0013
474.8229	-0.0161
475.0237	-0.0146
475.2244	-0.015
475.4251	-0.0053
475.6258	-0.0122
475.8265	-0.0013
476.0272	0.0143
476.2278	0.0052
476.4285	0.0018
476.6291	-0.0123
476.8297	-0.0028
477.0303	-0.0001
477.2309	0.0076
477.4315	-0.0027
477.632	-0.0008
477.8326	0.0023
478.0331	0.0037
478.2336	0.0174
478.4341	-0.01
478.6346	-0.0077
478.8351	0.0028
479.0355	-0.0002
479.236	-0.0041
479.4364	0.0004
479.6368	0.0057
479.8372	-0.0069
480.0376	-0.0002
480.2379	-0.0258
480.4383	-0.0102
480.6386	0.0005
480.8389	-0.0015
481.0392	-0.0105
481.2395	-0.0029
481.4398	-0.0025
481.6401	-0.0008
481.8403	-0.0047
482.0405	-0.0055
482.2408	-0.0108
482.441	0.0072
482.6411	-0.0068
482.8413	0.0031
483.0415	-0.0121
483.2416	-0.0039
483.4417	0.0055
483.6419	-0.0022
483.8419	-0.0081
484.042	0.0151
484.2421	0.0031
484.4422	0.0009
484.6422	-0.0028
484.8422	-0.0032
485.0422	-0.0077
485.2422	-0.0015
485.4422	-0.0134
485.6422	-0.0075
485.8421	-0.004
486.042	0.0037
486.242	-0.0079
486.4419	-0.0074
486.6417	-0.0123
486.8416	0.003
487.0415	-0.004
487.2413	-0.0095
487.4411	-0.0021
487.641	-0.0062
487.8408	-0.0054
488.0405	0.0024
488.2403	-0.0018
488.4401	-0.006
488.6398	0.0004
488.8395	-0.0172
489.0392	-0.0017
489.2389	-0.0088
489.4386	-0.0132
489.6383	0.0001
489.8379	0.0006
490.0376	-0.0086
490.2372	-0.0041
490.4368	-0.0134
490.6364	-0.0148
490.836	-0.0091
491.0355	-0.0091
491.2351	-0.0191
491.4346	-0.0187
491.6341	-0.016
491.8336	0.008
492.0331	-0.012
492.2326	-0.0034
492.432	-0.0012
492.6315	-0.0046
492.8309	-0.0191
493.0303	0.002
493.2297	-0.0114
493.4291	-0.0053
493.6284	0.0051
493.8278	-0.0044
494.0271	-0.0057
494.2264	0.002
494.4257	-0.0118
494.625	-0.001
494.8243	-0.0146
495.0236	-0.009
495.2228	-0.01
495.422	-0.0085
495.6213	-0.0017
495.8205	-0.0021
496.0196	-0.0113
496.2188	0.0053
496.418	-0.0127
496.6171	-0.0101
496.8162	-0.0044
497.0153	0.0035
497.2144	-0.0116
497.4135	-0.0138
497.6126	-0.0165
497.8116	-0.0183
498.0107	-0.0032
498.2097	-0.0181
498.4087	-0.0092
498.6077	-0.0042
498.8067	-0.0099
499.0056	-0.0006
499.2046	-0.0072
499.4035	-0.0243
499.6024	0.0039
499.8013	-0.0066
500.0002	-0.0126
500.199	-0.0047
500.3979	-0.0059
500.5967	-0.0227
500.7956	-0.0033
500.9944	-0.0087
501.1932	-0.0153
501.3919	-0.0127
501.5907	-0.0197
501.7895	-0.0092
501.9882	-0.0111
502.1869	-0.0146
502.3856	-0.0204
502.5843	-0.0146
502.783	-0.0143
502.9816	-0.0031
503.1803	-0.0229
503.3789	-0.0094
503.5775	0.006
503.7761	-0.0065
503.9747	-0.0031
504.1732	-0.0139
504.3718	-0.0119
504.5703	-0.0116
504.7689	-0.014
504.9674	-0.0139
505.1658	-0.013
505.3643	-0.0203
505.5628	0.0021
505.7612	-0.0073
505.9597	-0.0078
506.1581	-0.0082
506.3565	-0.0014
506.5549	-0.0083
506.7532	-0.0184
506.9516	-0.0023
507.1499	-0.0157
507.3482	-0.0238
507.5465	-0.0126
507.7448	-0.0046
507.9431	-0.0068
508.1414	-0.0059
508.3396	-0.0067
508.5379	-0.0006
508.7361	-0.0093
508.9343	-0.011
509.1325	-0.0061
509.3306	-0.0033
509.5288	-0.0082
509.7269	-0.01
509.9251	-0.0126
510.1232	-0.0084
510.3213	-0.0007
510.5193	-0.0023
510.7174	-0.0247
510.9154	-0.0097
511.1135	-0.0017
511.3115	-0.0142
511.5095	-0.0106
511.7075	-0.0043
511.9055	-0.0066
512.1034	-0.0037
512.3014	-0.0012
512.4993	-0.0043
512.6972	-0.0077
512.8951	-0.0194
513.093	-0.0039
513.2908	0.0043
513.4887	-0.0061
513.6865	-0.0078
513.8844	-0.0019
514.0822	-0.0148
514.2799	-0.0231
514.4777	-0.0202
514.6755	-0.0109
514.8732	-0.0111
515.0709	-0.0116
515.2687	-0.0108
515.4664	-0.0052
515.664	-0.008
515.8617	-0.0173
516.0594	-0.0147
516.257	-0.0048
516.4546	-0.0118
516.6522	0.0022
516.8498	-0.0043
517.0474	0.0059
517.2449	-0.0059
517.4425	-0.0098
517.64	-0.0041
517.8375	-0.0028
518.035	-0.0024
518.2325	-0.0118
518.43	-0.0007
518.6274	-0.0085
518.8249	-0.0121
519.0223	-0.0043
519.2197	-0.0175
519.4171	0.0003
519.6145	-0.0116
519.8118	-0.0004
520.0092	-0.0025
520.2065	-0.0094
520.4038	-0.0109
520.6011	-0.0009
520.7984	-0.0109
520.9956	-0.0061
521.1929	-0.0219
521.3901	-0.0065
521.5874	-0.0028
521.7846	-0.002
521.9818	-0.0019
522.1789	-0.0034
522.3761	-0.0036
522.5732	-0.0126
522.7704	-0.0144
522.9675	0.0099
523.1646	-0.0139
523.3617	-0.005
523.5587	0.003
523.7558	-0.0051
523.9528	-0.013
524.1498	-0.0043
524.3468	-0.002
524.5438	-0.0069
524.7408	-0.0037
524.9378	0.0016
525.1347	-0.0126
525.3316	0.0086
525.5285	-0.0059
525.7254	-0.0038
525.9223	-0.0046
526.1192	-0.0095
526.316	-0.0139
526.5129	-0.0048
526.7097	-0.0038
526.9065	-0.0055
527.1033	-0.0157
527.3	0.0047
527.4968	-0.0091
527.6935	-0.0011
527.8903	-0.0126
528.087	-0.0182
528.2837	-0.0058
528.4804	0.0013
528.677	-0.0109
528.8737	0.006
529.0703	0.0055
529.2669	-0.0082
529.4635	-0.0101
529.6601	0.0067
529.8567	-0.0075
530.0532	-0.0159
530.2498	-0.0023
530.4463	0.0041
530.6428	-0.0088
530.8393	0.0038
531.0358	-0.0018
531.2322	0.0002
531.4287	0
531.6251	-0.0107
531.8215	0.0041
532.0179	-0.0004
532.2143	0.0049
532.4107	-0.0069
532.607	-0.0044
532.8034	0.0019
532.9997	-0.0067
533.196	-0.0019
533.3923	-0.004
533.5886	-0.0046
533.7848	0.0027
533.9811	0.0046
534.1773	0.0033
534.3735	0.0034
534.5697	-0.0111
534.7659	-0.003
534.9621	-0.0046
535.1582	-0.0085
535.3544	-0.0076
535.5505	-0.0107
535.7466	-0.0093
535.9427	-0.0053
536.1387	-0.0154
536.3348	-0.0188
536.5308	0.0075
536.7269	-0.0124
536.9229	-0.0012
537.1189	-0.0063
537.3148	-0.0097
537.5108	0.0025
537.7068	-0.0093
537.9027	-0.0045
538.0986	-0.0107
538.2945	-0.005
538.4904	-0.0109
538.6863	-0.0025
538.8821	-0.0067
539.078	-0.0089
539.2738	-0.0078
539.4696	-0.0018
539.6654	0.0025
539.8611	0.0027
540.0569	-0.0044
540.2526	-0.0038
540.4484	-0.0013
540.6441	0.0093
540.8398	0.0056
541.0355	-0.0094
541.2311	-0.0064
541.4268	-0.0128
541.6224	0.0006
541.818	0.0046
542.0136	-0.0056
542.2092	0.0014
542.4048	0.0045
542.6003	0.0069
542.7959	0.0015
542.9914	-0.0084
543.1869	0.0016
543.3824	0.0006
543.5779	-0.002
543.7734	-0.004
543.9688	-0.0046
544.1642	0.0002
544.3596	0.0022
544.555	-0.0006
544.7504	0.0071
544.9458	-0.0052
545.1411	-0.0095
545.3365	0.0009
545.5318	-0.0026
545.7271	-0.0005
545.9224	-0.009
546.1177	-0.0039
546.3129	-0.0025
546.5081	-0.0056
546.7034	-0.0037
546.8986	-0.0054
547.0938	-0.0052
547.289	-0.0017
547.4841	0.0001
547.6793	0.0086
547.8744	-0.0091
548.0695	-0.0013
548.2646	-0.0067
548.4597	0.0021
548.6548	0.0014
548.8498	-0.0042
549.0448	0.0041
549.2399	-0.0027
549.4349	0.0063
549.6298	-0.0004
549.8248	0.0045
550.0198	0.0005
550.2147	0.0029
550.4096	-0.0039
550.6045	-0.0034
550.7994	0.0061
550.9943	-0.0011
551.1892	-0.0016
551.384	0.0059
551.5788	-0.0069
551.7737	0.0031
551.9685	-0.0012
552.1632	0.0058
552.358	-0.002
552.5528	-0.0051
552.7475	0.0015
552.9422	-0.0024
553.1369	-0.0008
553.3316	0.011
553.5263	-0.0126
553.7209	0.0134
553.9156	-0.003
554.1102	-0.0071
554.3048	-0.0009
554.4994	0.0061
554.694	-0.0045
554.8885	0.0084
555.0831	-0.0093
555.2776	-0.008
555.4721	0
555.6666	-0.0059
555.8611	0.0098
556.0555	0.0004
556.25	-0.0096
556.4444	-0.0049
556.6388	0.0059
556.8332	0.0009
557.0276	-0.0059
557.222	0.0003
557.4163	-0.0017
557.6107	-0.0082
557.805	0.0077
557.9993	-0.0009
558.1936	0.0052
558.3879	0.0027
558.5821	0.006
558.7764	-0.0023
558.9706	0.007
559.1648	0.0048
559.359	-0.0031
559.5532	-0.0031
559.7473	-0.0035
559.9415	0.0113
560.1356	-0.0073
560.3297	-0.0083
560.5238	-0.003
560.7179	-0.0091
560.9119	0.0002
561.106	0
561.3	-0.0069
561.494	0.0043
561.688	-0.0063
561.882	-0.0086
562.076	-0.0037
562.2699	-0.0026
562.4639	-0.0054
562.6578	0.0044
562.8517	-0.0009
563.0456	0.0032
563.2395	0.0085
563.4333	-0.0014
563.6272	0.002
563.821	-0.0008
564.0148	0.0075
564.2086	-0.0054
564.4024	-0.0058
564.5961	-0.0063
564.7899	0.0013
564.9836	0.0048
565.1773	-0.0008
565.371	0.0132
565.5647	0.0078
565.7584	0.0039
565.952	0.0037
566.1456	-0.0017
566.3393	-0.0008
566.5329	-0.004
566.7264	-0.0073
566.92	0.0015
567.1136	0.0095
567.3071	-0.0072
567.5006	0.003
567.6941	0.0042
567.8876	0.0023
568.0811	-0.0017
568.2745	-0.004
568.468	0.0042
568.6614	0.0039
568.8548	-0.0001
569.0482	0.0049
569.2416	0.0076
569.4349	-0.0029
569.6283	0.0005
569.8216	-0.0025
570.0149	-0.0047
570.2082	0.0017
570.4015	0.0068
570.5947	0.0063
570.788	0.0057
570.9812	0.0045
571.1744	0.0031
571.3676	-0.0014
571.5608	0
571.754	0.0071
571.9471	0.0009
572.1402	0.0033
572.3333	-0.0028
572.5264	-0.0082
572.7195	-0.0033
572.9126	0.0017
573.1057	0.0004
573.2987	-0.001
573.4917	-0.0018
573.6847	-0.0057
573.8777	0.0045
574.0707	0.0034
574.2636	-0.0018
574.4566	0.0008
574.6495	0.0066
574.8424	-0.0039
575.0353	-0.0041
575.2281	0.0045
575.421	-0.0037
575.6138	0.0017
575.8067	-0.002
575.9995	-0.0038
576.1923	0.0019
576.385	0.0016
576.5778	-0.0022
576.7706	0.0016
576.9633	0.0031
577.156	0.0026
577.3487	-0.0004
577.5414	-0.0008
577.734	-0.0071
577.9267	0.0048
578.1193	-0.0088
578.3119	-0.0072
578.5045	-0.003
578.6971	-0.0073
578.8897	0.0029
579.0822	0.0034
579.2747	-0.0032
579.4673	-0.0066
579.6598	-0.0051
579.8522	-0.0011
580.0447	-0.0085
580.2372	-0.0057
580.4296	0.002
580.622	-0.0073
580.8144	0.0005
581.0068	-0.005
581.1992	-0.0097
581.3915	-0.0068
581.5839	-0.01
581.7762	-0.0147
581.9685	-0.0078
582.1608	0.0015
582.353	-0.0042
582.5453	0.0038
582.7375	-0.004
582.9298	0.0066
583.122	0.0063
583.3142	0.0002
583.5063	0.0016
583.6985	-0.0036
583.8906	-0.0032
584.0827	-0.007
584.2749	-0.0012
584.4669	-0.0027
584.659	0.0026
584.8511	-0.0033
585.0431	-0.0055
585.2352	-0.0016
585.4272	-0.0025
585.6192	0.0054
585.8111	0.0053
586.0031	0.0012
586.195	-0.0018
586.387	0.0047
586.5789	-0.0033
586.7708	-0.0019
586.9627	0.0026
587.1545	-0.0058
587.3464	0.0054
587.5382	0.0007
587.73	0.0017
587.9218	0.0036
588.1136	-0.0037
588.3053	0.0038
588.4971	-0.0013
588.6888	-0.0111
588.8805	0.0013
589.0722	0.0057
589.2639	0.006
589.4556	-0.008
589.6472	-0.0028
589.8389	0.0022
590.0305	-0.0062
590.2221	0.0096
590.4137	-0.0056
590.6052	0.0028
590.7968	-0.0025
590.9883	0.0037
591.1798	0.0018
591.3713	-0
591.5628	0.0037
591.7543	0.0102
591.9458	-0.0012
592.1372	0.0006
592.3286	0.0067
592.52	0.0046
592.7114	0.0022
592.9028	-0.0064
593.0941	-0.0014
593.2855	-0.0003
593.4768	-0.0039
593.6681	-0.012
593.8594	-0.0065
594.0506	-0.0061
594.2419	0.0084
594.4331	0.0025
594.6244	0.005
594.8156	-0.0107
595.0067	0.0007
595.1979	-0.0004
595.3891	0.0072
595.5802	0.0004
595.7713	-0.0002
595.9624	-0.0085
596.1535	0.0086
596.3446	0.0047
596.5357	0.0003
596.7267	0.0051
596.9177	0.0049
597.1087	-0.0025
597.2997	0.0017
597.4907	0.0037
597.6817	-0.0023
597.8726	0.0011
598.0635	-0.0017
598.2544	-0.0006
598.4453	-0.0057
598.6362	-0.0002
598.827	-0.0074
599.0179	0.0053
599.2087	0.0034
599.3995	0.0029
599.5903	0.005
599.7811	0.0054
599.9718	0.0047
600.1626	-0.0004
600.3533	-0.0034
600.544	0.0046
600.7347	0.0014
600.9254	0.0062
601.116	-0.0092
601.3067	-0.0018
601.4973	0.0049
601.6879	0.0081
601.8785	-0.0037
602.0691	0.0066
602.2596	0.0059
602.4502	0.013
602.6407	0.0037
602.8312	0.0048
603.0217	-0.0035
603.2122	0.0019
603.4027	0.0039
603.5931	0.0045
603.7835	-0.0069
603.9739	-0.0044
604.1643	0.0014
604.3547	-0.0024
604.5451	0.0061
604.7354	-0.0002
604.9257	0.0073
605.116	-0.0026
605.3063	0.0055
605.4966	0.0012
605.6869	0.0046
605.8771	0.0021
606.0673	0.008
606.2575	0.0108
606.4477	0.0035
606.6379	0.0034
606.8281	0.0006
607.0182	-0.0001
607.2083	0.0101
607.3985	-0.0042
607.5885	0.0006
607.7786	0.0006
607.9687	0.0013
608.1587	0.002
608.3488	0.0081
608.5388	0.0037
608.7288	-0.0075
608.9187	-0.006
609.1087	-0.0011
609.2986	-0.0074
609.4886	0.0045
609.6785	0.0001
609.8684	0.0045
610.0582	0.003
610.2481	-0.0027
610.4379	0.0025
610.6278	-0.0048
610.8176	-0.0021
611.0074	-0.0063
611.1971	-0.0058
611.3869	-0.0006
611.5766	-0.0002
611.7664	0.0046
611.9561	0.0061
612.1458	0.006
612.3354	-0.0047
612.5251	0.0056
612.7147	-0.0002
612.9044	0.0056
613.094	-0.0051
613.2836	0.0059
613.4731	0.0032
613.6627	-0.0019
613.8522	0.002
614.0417	0.0037
614.2313	-0.0024
614.4207	-0.0049
614.6102	0.0061
614.7997	-0.0066
614.9891	-0.0105
615.1785	-0.004
615.3679	-0.0033
615.5573	-0.0009
615.7467	0.0046
615.9361	-0.0073
616.1254	0.0015
616.3147	-0.0024
616.504	0.004
616.6933	-0.0008
616.8826	0.0051
617.0718	0.003
617.2611	0.0044
617.4503	-0.0042
617.6395	-0.0041
617.8287	-0.0034
618.0179	0.0031
618.207	0.0056
618.3961	-0.0035
618.5853	-0.0039
618.7744	0.0089
618.9634	0.0017
619.1525	0.0056
619.3416	0.0072
619.5306	-0.0007
619.7196	0.0035
619.9086	0.002
620.0976	0.0071
620.2866	0.0055
620.4755	0.0002
620.6645	0.0021
620.8534	0.0049
621.0423	0.0049
621.2312	0.0079
621.42	-0.0034
621.6089	-0.0027
621.7977	0.0031
621.9865	-0.0005
622.1753	0.0067
622.3641	0.0011
622.5529	0.0052
622.7416	0.0048
622.9303	-0.0036
623.1191	0.0022
623.3078	0.0006
623.4964	0.0017
623.6851	-0.0059
623.8737	-0.0034
624.0624	0.0119
624.251	-0.0035
624.4396	0.004
624.6282	-0.0039
624.8167	0.0025
625.0053	-0.004
625.1938	0.0087
625.3823	0.0046
625.5708	0.0048
625.7593	-0.0017
625.9477	-0.0019
626.1362	0.0018
626.3246	0.0075
626.513	0.0032
626.7014	0.0079
626.8898	0.0044
627.0781	0.0049
627.2665	0.0017
627.4548	0.007
627.6431	0.0074
627.8314	0.0016
628.0197	0.0063
628.2079	-0.0007
628.3962	-0.0037
628.5844	0.012
628.7726	0.0074
628.9608	0.0072
629.1489	0.0116
629.3371	0.0071
629.5252	0.005
629.7134	0.0109
629.9015	-0.0024
630.0895	-0.0005
630.2776	0.0075
630.4657	-0.0053
630.6537	-0.0028
630.8417	0.0073
631.0297	-0.0012
631.2177	-0.0035
631.4057	-0.0067
631.5936	-0.0005
631.7815	0.0064
631.9695	0.0113
632.1574	0.0007
632.3452	0.0084
632.5331	0.0009
632.7209	0.0028
632.9088	0.0047
633.0966	0.0049
633.2844	0.0005
633.4722	0.0037
633.6599	0.0099
633.8477	0.0084
634.0354	0.0077
634.2231	-0.0019
634.4108	0.0065
634.5985	0.0099
634.7861	0.0017
634.9738	0.003
635.1614	0.002
635.349	-0.002
635.5366	-0.0012
635.7242	0.0027
635.9117	0.0097
636.0993	0.0045
636.2868	0.0022
636.4743	-0.0021
636.6618	0.0147
636.8492	0.0033
637.0367	0.0008
637.2241	-0.0015
637.4115	-0.0043
637.5989	-0.0016
637.7863	0.0006
637.9737	0.0004
638.161	-0.0028
638.3484	0.0032
638.5357	0.0054
638.723	-0.0035
638.9103	0.0064
639.0975	0.0089
639.2848	0.004
639.472	0.0028
639.6592	0.0042
639.8464	0.009
640.0336	0.0086
640.2208	0.0032
640.4079	0.0026
640.595	0.0029
640.7821	0.0056
640.9692	0.0058
641.1563	0.0096
641.3434	0.0066
641.5304	0.0066
641.7174	0.0061
641.9044	0.0049
642.0914	0.0072
642.2784	0.0041
642.4653	0.0075
642.6523	0.0016
642.8392	-0.0009
643.0261	0.0032
643.213	0.0086
643.3999	0.0024
643.5867	0.0003
643.7735	0.0038
643.9604	0.0013
644.1472	0.0045
644.3339	0.0117
644.5207	0.0072
644.7075	-0.0004
644.8942	0.0016
645.0809	0.0057
645.2676	0.0151
645.4543	0.0074
645.6409	0.0097
645.8276	0.0025
646.0142	0.0064
646.2008	0.0046
646.3874	-0.0001
646.574	0.0037
646.7605	0.0001
646.9471	-0.0052
647.1336	-0.0013
647.3201	0.0007
647.5066	-0.0031
647.6931	0.002
647.8795	0.0046
648.0659	0.0085
648.2524	0.0048
648.4388	-0.002
648.6252	0.0008
648.8115	0.0006
648.9979	-0
649.1842	0.0025
649.3705	0.0041
649.5568	0.0045
649.7431	0.0067
649.9294	0.0036
650.1156	0.0049
650.3018	0.0012
650.488	0.0016
650.6742	0.0082
650.8604	0.002
651.0466	-0.0078
651.2327	-0.0017
651.4188	0.0135
651.6049	-0.0021
651.791	0.0027
651.9771	0.0001
652.1632	0.0074
652.3492	0.0053
652.5352	0.0022
652.7212	0.0019
652.9072	0.0096
653.0932	0.0043
653.2791	0.002
653.465	0.0053
653.651	0.0009
653.8369	0.0008
654.0227	0.0032
654.2086	0.0063
654.3944	0.0064
654.5803	0
654.7661	-0.0009
654.9519	0.0128
655.1377	-0.0031
655.3234	-0.0031
655.5092	-0.0049
655.6949	-0.0045
655.8806	-0.0037
656.0663	0.0002
656.2519	-0.0078
656.4376	-0.0063
656.6232	0.0052
656.8088	0.0038
656.9945	0.0008
657.18	0.0004
657.3656	0.0054
657.5511	0.001
657.7367	-0.0048
657.9222	0.014
658.1077	0.006
658.2932	0.0061
658.4786	-0.004
658.6641	-0.0046
658.8495	0.0034
659.0349	0.0024
659.2203	0.0073
659.4057	0.0047
659.591	0.0122
659.7764	0.0009
659.9617	0.0064
660.147	0.0101
660.3323	0.0068
660.5176	0.0096
660.7028	0.0071
660.888	0.0089
661.0733	0.0037
661.2585	0.0032
661.4436	0.0039
661.6288	-0.0014
661.8139	0.0042
661.9991	0.0164
662.1842	0.0065
662.3693	0.0067
662.5544	-0.0042
662.7394	0.0033
662.9245	0.0032
663.1095	-0.0047
663.2945	0.0038
663.4795	-0
663.6644	0.0011
663.8494	-0.0052
664.0343	0.0016
664.2193	-0.0123
664.4042	0.0014
664.589	-0.0044
664.7739	-0.0024
664.9587	-0.0067
665.1436	0.004
665.3284	0.0046
665.5132	0.0029
665.698	0.0006
665.8827	0.002
666.0675	0.0015
666.2522	-0.005
666.4369	0.0074
666.6216	0.0087
666.8063	0.0001
666.9909	0.0074
667.1756	0.0066
667.3602	0.0087
667.5448	0.0075
667.7294	0.0137
667.9139	0.0098
668.0985	0.0087
668.283	0.006
668.4675	0.0036
668.652	0.0054
668.8365	0.0085
669.0209	0.0105
669.2054	0.0059
669.3898	0.0041
669.5742	0.0138
669.7586	0.0082
669.943	0.0076
670.1273	0.006
670.3117	0.0021
670.496	0.0076
670.6803	0.0138
670.8646	0.0094
671.0488	0.0005
671.2331	0.0018
671.4173	0.0081
671.6015	0.0102
671.7857	0.0048
671.9699	0.0059
672.1541	0.0109
672.3382	0.0069
672.5223	0.0143
672.7064	0.0102
672.8905	0.0142
673.0746	0.003
673.2587	0.0023
673.4427	0.006
673.6267	0.0134
673.8107	0.0138
673.9947	0.0102
674.1787	0.009
674.3626	-0.0009
674.5465	0.0072
674.7304	0.0042
674.9143	0.0091
675.0982	0.0112
675.2821	0.0001
675.4659	0.0108
675.6497	0.0114
675.8335	0.009
676.0173	0.0106
676.2011	0.0051
676.3849	0.0039
676.5686	0.0044
676.7523	0.0031
676.936	0.0025
677.1197	0.0022
677.3034	-0.0031
677.487	0.0106
677.6706	0.0061
677.8542	0.0067
678.0378	0.0023
678.2214	0.0036
678.405	-0.0001
678.5885	-0.0023
678.772	0.0101
678.9555	0.0005
679.139	0.0019
679.3225	0.0033
679.5059	0.003
679.6894	0.0087
679.8728	0.0077
680.0562	-0.0062
680.2395	-0.0085
680.4229	0.0021
680.6062	0.0063
680.7896	0.0079
680.9729	0.0032
681.1562	0.0076
681.3394	0.0016
681.5227	0.003
681.7059	-0.003
681.8891	0.0043
682.0723	0.0071
682.2555	0.0026
682.4387	-0.005
682.6218	-0.0017
682.805	0.0043
682.9881	0.0078
683.1712	-0.0026
683.3542	0.0012
683.5373	0.0057
683.7203	0.0044
683.9034	0.0071
684.0864	-0.0043
684.2694	0.003
684.4523	0.0076
684.6353	0.0002
684.8182	0.0062
685.0011	0.0004
685.184	0.0056
685.3669	0.0059
685.5498	0.0101
685.7326	0.0058
685.9154	0.001
686.0982	0.0137
686.281	0.007
686.4638	0.0056
686.6465	0.0041
686.8293	0.0075
687.012	0.0095
687.1947	0.003
687.3774	0.0054
687.56	0.0022
687.7427	0.0163
687.9253	-0.0049
688.1079	0.0071
688.2905	0.0106
688.4731	-0.0042
688.6556	0.0018
688.8382	0.0027
689.0207	0.0114
689.2032	-0.0007
689.3857	-0.0063
689.5681	0.0023
689.7506	0.0022
689.933	-0.0001
690.1154	-0.0027
690.2978	0.0048
690.4802	0.001
690.6626	-0.0059
690.8449	-0.0024
691.0272	0.0094
691.2095	-0.0062
691.3918	-0.0029
691.5741	-0.0036
691.7563	0.0037
691.9386	0.0013
692.1208	0.0026
692.303	-0.0006
692.4852	-0.0029
692.6673	-0.0015
692.8495	0.0053
693.0316	0.0054
693.2137	-0.0023
693.3958	0.0079
693.5778	0.0041
693.7599	-0.0005
693.9419	-0.002
694.1239	0.0035
694.3059	-0.0031
694.4879	0.015
694.6699	0.0106
694.8518	0.0078
695.0337	-0.0085
695.2157	0.007
695.3975	0.0072
695.5794	0.0053
695.7613	-0.0018
695.9431	0
696.1249	0.0045
696.3067	-0.0031
696.4885	0.0073
696.6703	0.0003
696.852	0.0044
697.0337	0.0025
697.2154	0.0055
697.3971	0.0053
697.5788	0.0071
697.7605	0.0023
697.9421	0.0134
698.1237	-0.0019
698.3053	-0.0013
698.4869	-0.0038
698.6685	-0.0006
698.85	0.0033
699.0315	0.0077
699.213	-0.0025
699.3945	0.0059
699.576	0.0083
699.7575	-0.0008
699.9389	0.0036
700.1203	-0.0062
700.3017	-0.0124
700.4831	-0.003
700.6645	0.0021
700.8458	-0.0075
701.0271	-0.0012
701.2084	-0.0052
701.3897	-0.0055
701.571	-0.0056
701.7523	-0.0059
701.9335	-0.0016
702.1147	-0.0019
702.2959	0.0056
702.4771	0.0025
702.6583	0.003
702.8394	-0.006
703.0205	-0.0057
703.2016	-0.0092
703.3827	0.0036
703.5638	0.0103
703.7449	0.0055
703.9259	0.0144
704.1069	-0.0045
704.2879	0.0037
704.4689	0.0072
704.6499	0.0053
704.8308	0.0028
705.0117	-0.005
705.1927	0.0031
705.3735	0.0057
705.5544	-0.0037
705.7353	-0.0004
705.9161	-0.003
706.0969	-0.0027
706.2777	-0.0019
706.4585	-0.0004
706.6393	0.0014
706.82	-0.008
707.0007	0.0008
707.1815	0.0057
707.3621	0.0086
707.5428	-0.0012
707.7235	0.0016
707.9041	0.008
708.0847	-0.0076
708.2653	-0.0023
708.4459	-0.0071
708.6265	-0.0017
708.807	-0.0024
708.9875	0.0031
709.168	0.0001
709.3485	0.0024
709.529	-0.0033
709.7095	-0.0032
709.8899	0.0012
710.0703	-0.0062
710.2507	-0.0023
710.4311	-0.0074
710.6115	-0.0073
710.7918	-0.0091
710.9721	-0.0025
711.1524	-0.0083
711.3327	-0.0023
711.513	0.0079
711.6932	-0.0022
711.8735	0.0131
712.0537	0.0014
712.2339	-0.004
712.4141	-0.0117
712.5942	-0.0112
712.7744	0.0035
712.9545	-0.0028
713.1346	0.0004
713.3147	0.0026
713.4947	-0.0011
713.6748	-0.0071
713.8548	0.0024
714.0348	0.0044
714.2148	0.0022
714.3948	0.012
714.5748	0.0022
714.7547	0.005
714.9346	0.0122
715.1145	0.0084
715.2944	-0.0018
715.4743	0.0092
715.6541	0.0111
715.834	0.0133
716.0138	-0.0011
716.1936	-0.0037
716.3733	-0.0043
716.5531	0.0141
716.7328	-0.0026
716.9126	-0.0116
717.0923	0
717.2719	0.0081
717.4516	0.0089
717.6312	0.0058
717.8109	0.0047
717.9905	0.0063
718.1701	-0.0014
718.3496	-0.0079
718.5292	0.0064
718.7087	0.0009
718.8882	0.0025
719.0677	0.0085
719.2472	-0.0031
719.4267	0.0104
719.6061	0.0054
719.7856	0.0144
719.965	0.0147
720.1443	-0.0013
720.3237	0.014
720.5031	0.0123
720.6824	0.0111
720.8617	0.0049
721.041	0.0028
721.2203	0.0107
721.3995	0.0007
721.5788	0.0049
721.758	0.011
721.9372	0.0013
722.1164	0.0074
722.2956	0.0002
722.4747	-0.0016
722.6538	-0.0093
722.8329	0.0129
723.012	0.0023
723.1911	0.0002
723.3702	-0.0018
723.5492	0.0027
723.7282	-0.0066
723.9072	0.0034
724.0862	-0.0058
724.2652	-0.0026
724.4441	0.0013
724.623	0.0085
724.8019	-0.0029
724.9808	0.0069
725.1597	-0.0099
725.3385	0.0074
725.5174	0.0079
725.6962	0.004
725.875	-0.0001
726.0538	0.0085
726.2325	0.0001
726.4112	0.0061
726.59	0.0028
726.7687	0.0042
726.9474	0.0053
727.126	-0.0044
727.3047	-0.0089
727.4833	0.0017
727.6619	-0.0057
727.8405	-0.0077
728.0191	-0.001
728.1976	-0.0023
728.3762	0.0008
728.5547	-0.0075
728.7332	-0.0141
728.9116	-0.0019
729.0901	0.0022
729.2686	0.0013
729.447	-0.0034
729.6254	-0.003
729.8038	0.0089
729.9821	0.0012
730.1605	-0.0005
730.3388	-0.0021
730.5171	-0.0032
730.6954	-0.0121
730.8737	0.0012
731.0519	0.0095
731.2302	0.0022
731.4084	0.0146
731.5866	0.0041
731.7648	0.0024
731.9429	0.0049
732.1211	-0.0127
732.2992	0.005
732.4773	0.0005
732.6554	-0.0018
732.8335	0.0076
733.0115	0.002
733.1896	0.0053
733.3676	-0.0061
733.5456	0.0112
733.7235	0.0069
733.9015	0.0055
734.0794	-0.0012
734.2574	0.0078
734.4353	0.0029
734.6131	0.0114
734.791	0.0006
734.9689	-0.0068
735.1467	0.0026
735.3245	-0.0014
735.5023	-0.0072
735.68	-0.0023
735.8578	0.0081
736.0355	-0.0113
736.2132	-0.0001
736.3909	-0.0026
736.5686	-0.0057
736.7463	0.0008
736.9239	-0.0116
737.1015	-0.004
737.2791	-0.0053
737.4567	-0.0089
737.6343	-0.0117
737.8118	-0.0017
737.9894	0.0001
738.1669	-0.0074
738.3444	-0.0087
738.5218	0.0109
738.6993	-0.0009
738.8767	-0.0027
739.0541	0.0123
739.2315	-0.008
739.4089	-0.0038
739.5863	0.0006
739.7636	-0.0063
739.9409	0.0068
740.1182	0.0097
740.2955	0.0144
740.4728	0.0049
740.65	0.0025
740.8272	0.005
741.0044	-0.0035
741.1816	0.0015
741.3588	-0.0079
741.5359	0.0036
741.7131	-0.0157
741.8902	-0.0003
742.0673	-0.0039
742.2444	-0.0072
742.4214	-0.0077
742.5985	-0.004
742.7755	0.0012
742.9525	-0.0114
743.1295	0.0065
743.3064	0.0009
743.4834	0.0001
743.6603	0.0018
743.8372	-0.0038
744.0141	0.0076
744.191	0.0079
744.3678	0.0029
744.5446	0.0009
744.7215	0.0098
744.8982	-0.0024
745.075	-0.0067
745.2518	0.0082
745.4285	-0.0022
745.6052	-0.0007
745.7819	-0.0021
745.9586	-0.0073
746.1353	0.0034
746.3119	-0.001
746.4885	-0.008
746.6651	-0.0044
746.8417	0.0024
747.0183	-0.0008
747.1948	-0.0046
747.3714	0.0047
747.5479	0.008
747.7244	0.0014
747.9008	0.0056
748.0773	0.0041
748.2537	0.0007
748.4301	-0.0067
748.6065	0.0077
748.7829	0.0054
748.9593	-0.0083
749.1356	-0.0006
749.3119	0.0107
749.4882	-0.0048
749.6645	0.0039
749.8408	-0.0002
750.017	-0.0124
750.1933	-0.0028
750.3695	-0.0153
750.5457	-0.0006
750.7218	-0.0006
750.898	-0.0004
751.0741	-0.0042
751.2502	0.0013
751.4263	-0.0122
751.6024	-0.0045
751.7784	-0.0095
751.9545	-0.0125
752.1305	-0.0015
752.3065	-0.0107
752.4825	-0.0022
752.6584	-0.0148
752.8344	-0.0085
753.0103	-0.0076
753.1862	-0.0063
753.3621	-0.0062
753.5379	0.0034
753.7138	-0.001
753.8896	-0.0036
754.0654	0.0022
754.2412	-0.0022
754.417	0.0045
754.5927	-0.0108
754.7685	-0.0069
754.9442	0.0008
755.1199	0.0054
755.2956	-0.0012
755.4712	0.0048
755.6469	-0.0032
755.8225	-0.0045
755.9981	-0.007
756.1736	0.0036
756.3492	-0.0026
756.5248	-0.0133
756.7003	-0.0025
756.8758	0.011
757.0513	-0.0135
757.2267	-0.0089
757.4022	0.0004
757.5776	-0.007
757.753	0.0002
757.9284	0.0044
758.1038	0.0108
758.2791	0.0095
758.4545	0.0083
758.6298	0.0056
758.8051	0.0058
758.9803	0.0022
759.1556	-0.0007
759.3308	0.007
759.506	0.0154
759.6812	0.0039
759.8564	0.0032
760.0316	-0.0008
760.2067	0.0108
760.3819	0.0108
760.557	0.0141
760.732	0.0043
760.9071	0.0002
761.0821	0.002
761.2572	0.0107
761.4322	-0.0021
761.6072	0.0048
761.7821	-0.001
761.9571	0.0037
762.132	0.005
762.3069	-0.0071
762.4818	-0.0072
762.6567	0.0052
762.8316	-0.0045
763.0064	-0.0056
763.1812	-0.0001
763.356	-0.0052
763.5308	-0.0082
763.7055	-0.0087
763.8803	-0.0061
764.055	-0.0007
764.2297	-0.0076
764.4044	-0.0022
764.579	-0.005
764.7537	-0.0168
764.9283	-0.0002
765.1029	-0.0137
765.2775	-0.0093
765.4521	-0.015
765.6266	-0.0163
765.8011	-0.0081
765.9756	-0.0021
766.1501	-0.0034
766.3246	-0.0001
766.4991	-0.0006
766.6735	-0.0103
766.8479	-0.0127
767.0223	0.0118
767.1967	0.0069
767.371	0.0121
767.5454	0.0012
767.7197	0.0026
767.894	-0.0019
768.0683	-0.0133
768.2425	-0.0031
768.4168	-0.002
768.591	-0.0018
768.7652	0.0047
768.9394	-0.0079
769.1135	-0.0048
769.2877	0.0079
769.4618	0.0099
769.6359	0.0044
769.81	0.0053
769.984	-0.0014
770.1581	-0.0154
770.3321	0.0123
770.5061	-0.0052
770.6801	-0.001
770.8541	0.0022
771.028	0.0036
771.202	0.0047
771.3759	-0.0025
771.5498	-0.012
771.7236	-0.0039
771.8975	0.0021
772.0713	0.0048
772.2451	0.0017
772.4189	0.0162
772.5927	0.0059
772.7665	0.004
772.9402	0.0005
773.1139	0.0054
773.2876	0.0025
773.4613	0.0142
773.635	0.0109
773.8086	-0.0113
773.9822	0.004
774.1558	0.0124
774.3294	-0.0037
774.503	0
774.6765	0.007
774.8501	-0.0022
775.0236	-0.0008
775.1971	0.0125
775.3705	-0.0058
775.544	0.0117
775.7174	-0.0185
775.8908	0.0067
776.0642	-0.0127
776.2376	0.0039
776.4109	-0.01
776.5843	-0.0054
776.7576	-0.0027
776.9309	0.0173
777.1041	0.0169
777.2774	0.0191
777.4506	0.0022
777.6238	-0.0013
777.797	0.0005
777.9702	0.0044
778.1434	0.0035
778.3165	-0.0067
778.4896	-0.0031
778.6627	0.0139
778.8358	0.0011
779.0089	0.0043
779.1819	0.0086
779.3549	0.0112
779.5279	0.0224
779.7009	-0.0005
779.8739	0.0038
780.0468	-0.0001
780.2197	0.0049
780.3926	0.008
780.5655	0.0094
780.7384	0.007
780.9112	0.0006
781.0841	0.0006
781.2569	0.0083
781.4297	0.0113
781.6024	0.008
781.7752	0.0116
781.9479	0.0155
782.1206	0.0076
782.2933	0.004
782.466	0.0048
782.6386	0.0096
782.8113	0.019
782.9839	0.002
783.1565	0.009
783.329	0.0013
783.5016	-0.0014
783.6741	0.0074
783.8466	-0.0023
784.0191	0.0172
784.1916	-0.013
784.3641	0.0008
784.5365	0.0054
784.7089	0.0014
784.8813	-0.0053
785.0537	-0.0043
785.2261	-0.0011
785.3984	-0.0058
785.5707	-0.0081
785.743	-0.0036
785.9153	-0.0054
786.0876	0.004
786.2598	0.0003
786.432	-0.0149
786.6042	-0.0015
786.7764	-0.0135
786.9486	0.0084
787.1207	-0.0136
787.2928	0.0044
787.4649	0.0065
787.637	0.006
787.8091	-0.006
787.9811	-0.0126
788.1532	-0.0149
788.3252	-0.0022
788.4972	-0.0164
788.6691	-0.0011
788.8411	0.0038
789.013	-0.0135
789.1849	0.0067
789.3568	0.0015
789.5287	0.0032
789.7005	-0.0045
789.8723	0.0062
790.0442	0.0175
790.2159	-0.0018
790.3877	0.0031
790.5595	-0.0148
790.7312	0.0015
790.9029	-0.0111
791.0746	-0.0059
791.2463	0.0039
791.4179	-0.0083
791.5896	-0.0266
791.7612	-0.0072
791.9328	0.0034
792.1044	-0.0085
792.2759	-0.0181
792.4474	0.0043
792.619	-0.0057
792.7905	-0.0068
792.9619	0.0024
793.1334	-0.0009
793.3048	-0.0048
793.4762	0.0194
793.6476	0.0125
793.819	0.007
793.9904	0.0061
794.1617	-0.0119
794.333	0.0043
794.5043	-0.0089
794.6756	-0.0136
794.8469	0.0064
795.0181	0.0051
795.1893	-0.0016
795.3605	0.0103
795.5317	-0.004
795.7029	-0.0036
795.874	-0.0046
796.0452	-0.0086
796.2163	-0.0102
796.3873	0.0044
796.5584	-0.0133
796.7294	-0.0154
796.9005	0.0113
797.0715	0.0012
797.2425	-0.0219
797.4134	-0.0232
797.5844	-0.0062
797.7553	-0.008
797.9262	-0.0137
798.0971	-0.024
798.2679	-0.007
798.4388	-0.0241
798.6096	-0.0216
798.7804	-0.0043
798.9512	-0.0108
799.122	-0.0145
799.2927	-0.007
799.4635	0.0017
799.6342	-0.0298
799.8049	-0.0138
799.9755	-0.009
800.1462	-0.0095
800.3168	-0.004
800.4874	-0.0013
800.658	0.0072
800.8286	-0.0039
800.9991	0.0004
801.1696	-0.0083
801.3402	-0.0042
801.5106	-0.0185
801.6811	-0.001
801.8516	0.0165
802.022	0.0081
802.1924	-0.018
802.3628	0.0064
802.5332	0.0047
802.7035	0.0236
802.8739	-0.0075
803.0442	-0.0013
803.2145	-0.0041
803.3847	-0.0221
803.555	-0.0086
803.7252	-0.0123
803.8954	-0.0283
804.0656	-0.0295
804.2358	-0.0222
804.4059	-0.0089
804.5761	-0.0104
804.7462	-0.0182
804.9163	-0.0175
805.0864	-0.0362
805.2564	-0.0208
805.4264	-0.0048
805.5965	-0.0184
805.7665	-0.0025
805.9364	-0.0108
806.1064	0.0216
806.2763	0.003
806.4462	0.0109
806.6161	-0.0028
806.786	0.0207
806.9559	-0.0056
807.1257	0.0137
807.2955	0.0215
807.4653	-0.0207
807.6351	-0.0154
807.8048	0.001
807.9746	0.0067
808.1443	-0.0057
808.314	-0.0183
808.4837	-0.0033
808.6533	-0.0064
808.8229	0.007
808.9926	-0.0078
809.1622	-0.0052
809.3317	-0.0188
809.5013	-0.0067
809.6708	-0.0084
809.8403	-0.0181
810.0098	0.001
810.1793	0.0036
810.3488	-0.0162
810.5182	-0.034
810.6876	0.0113
810.857	0.01
811.0264	0.008
811.1958	0.0184
811.3651	0.0069
811.5344	-0.006
811.7037	-0.0065
811.873	-0.0275
812.0422	-0.0144
812.2115	-0.0075
812.3807	-0.0308
812.5499	0.0014
812.7191	-0.0085
812.8882	-0.0137
813.0574	-0.0101
813.2265	-0.0013
813.3956	-0.0077
813.5646	-0.026
813.7337	-0.01
813.9027	0.0169
814.0718	0.0102
814.2407	0.0292
814.4097	0.0023
814.5787	-0.0106
814.7476	-0.0075
814.9165	-0.0033
815.0854	-0.0038
815.2543	0.0003
815.4232	-0.0238
815.592	0.0026
815.7608	0.0003
815.9296	0.0092
816.0984	0.0122
816.2671	-0.0009
816.4359	0.0031
816.6046	-0.0204
816.7733	0.0105
816.942	-0.0253
817.1106	-0.0018
817.2793	0.0025
817.4479	-0.0127
817.6165	0.0156
817.785	-0.0056
817.9536	-0.0322
818.1221	0.0029
818.2906	0.0052
818.4591	-0.0148
818.6276	-0.0139
818.7961	-0.0059
818.9645	-0.0201
819.1329	-0.016
819.3013	0.0222
819.4697	0.0149
819.638	-0.038
819.8064	0.0014
819.9747	0.0014
820.143	-0.0288
820.3113	-0.0199
820.4795	-0.0168
820.6477	-0.0447
820.816	0.0074
820.9842	0.0147
821.1523	-0.0103
821.3205	-0.0241
821.4886	-0.0142
821.6567	-0.0297
821.8248	-0.0072
821.9929	0.0112
822.1609	-0.0082
822.329	0.0179
822.497	0.0382
822.665	-0.0163
822.833	0.0043
823.0009	0.0107
823.1688	0.0272
823.3367	0.0152
823.5046	-0.0007
823.6725	0.015
823.8404	0.0132
824.0082	0.025
824.176	0.006
824.3438	0.0254
824.5116	-0.0012
824.6793	0.0037
824.847	0.0318
825.0147	0.017
825.1824	0.0514
825.3501	0.0052
825.5177	-0.0152
825.6854	0.0026
825.853	0.0009
826.0206	-0.0244
826.1881	-0.016
826.3557	0.0067
826.5232	0.015
826.6907	-0.037
826.8582	0.0082
827.0257	-0.0091
827.1931	-0.0018
827.3605	-0.0071
827.528	-0.0296
827.6953	-0.0116
827.8627	-0.0151
828.03	0.0323
828.1974	-0.0143
828.3647	-0.0514
828.532	-0.0277
828.6992	-0.0078
828.8665	-0.0228
829.0337	-0.0307
829.2009	0.0279
829.3681	-0.013
829.5352	0.0246
829.7024	-0.0336
829.8695	-0.0497
830.0366	-0.0084
830.2037	0.0394
830.3707	-0.0049
830.5378	-0.001
830.7048	-0.0021
830.8718	-0.017
831.0388	-0.0352
831.2057	-0.0187
831.3727	0.0438
831.5396	0.0087
831.7065	-0.0326
831.8734	0.006
832.0402	-0.018
832.2071	-0.0039
832.3739	-0.0525
832.5407	0.0006
832.7075	0.0019
832.8742	0.0075
833.041	-0.0326
833.2077	-0.0202
833.3744	0.0006
833.541	-0.013
833.7077	-0.0237
833.8743	-0.0235
834.0409	-0.0084
834.2075	-0.0258
834.3741	0.0125
834.5407	-0.0435
834.7072	-0.0025
834.8737	-0.0168
835.0402	-0.0093
835.2067	0.0121
835.3731	0.0155
835.5395	0.0271
835.706	0.0158
835.8723	0.0073
836.0387	0.0222
836.2051	-0.0269
836.3714	0.0028
836.5377	-0.0061
836.704	0.0072
836.8703	0.043
837.0365	-0.0411
837.2027	-0.0037
837.3689	-0.0216
837.5351	0.0263
837.7013	-0.0117
837.8674	-0.0408
838.0335	-0.0289
838.1997	-0.0159
838.3657	-0.0622
838.5318	-0.0309
838.6978	0.0424
838.8639	0.0237
839.0299	-0.0008
839.1958	0.0368
839.3618	0.0293
839.5277	-0.0337
839.6937	-0.0153
839.8596	-0.0364
840.0254	-0.013
840.1913	-0.0008
840.3571	0.0253
840.523	-0.0353
840.6888	-0.0445
840.8545	-0.0584
841.0203	-0.0017
841.186	0.0386
841.3517	0.0773
841.5174	-0.0051
841.6831	-0.0229
841.8488	-0.0071
842.0144	0.001
842.18	-0.0147
842.3456	0.0252
842.5112	-0.0488
842.6767	0.009
842.8422	-0.0397
843.0077	-0.0141
843.1732	-0.042
843.3387	-0.0592
843.5042	-0.0237
843.6696	0.0418
843.835	-0.0169
844.0004	-0.0114
844.1657	0.0011
844.3311	-0.1242
844.4964	-0.0216
844.6617	-0.0032
844.827	-0.0387
844.9923	-0.02
845.1575	0.0478
845.3227	0.0263
845.4879	-0.0077
845.6531	-0.0297
845.8183	-0.0815
845.9834	0.0311
846.1485	-0.017
846.3136	-0.0246
846.4787	-0.0701
846.6438	0.0712
846.8088	-0.0571
846.9738	-0.1327
847.1388	0.0248
847.3038	0.0078
847.4687	-0.1646
847.6337	-0.0238
847.7986	0.0448
847.9635	-0.0406
848.1284	-0.0093
848.2932	0.0966
848.458	0.0991
848.6228	0.1047
848.7876	0.0784
848.9524	-0.0118
849.1172	-0.0447
849.2819	0.0713
849.4466	-0.0495
849.6113	-0.112
849.7759	-0.0213
849.9406	-0.0167
850.1052	0.0417
850.2698	-0.0516
850.4344	-0.0172
850.599	-0.0807
850.7635	0.0401
850.928	-0.0281
851.0925	0.03
851.257	0.0528
851.4215	0.0077
851.5859	0.0204
851.7503	0.0959
851.9147	-0.0096
852.0791	0.0273
852.2434	0.0002
852.4078	0.04
852.5721	0.0954
852.7364	-0.078
852.9007	-0.1552
853.0649	0.099
853.2291	-0.0097
853.3934	-0.0267
853.5575	0.1021
853.7217	-0.107
853.8859	0.2929
854.05	-0.0076
854.2141	0.0243
854.3782	0.0266
854.5423	-0.0867
854.7063	0.1305
854.8703	-0.0368
855.0343	-0.0877
855.1983	-0.1637
855.3623	0.098
855.5262	0.0375
855.6901	-0.0547
855.854	-0.02
856.0179	0.0749
856.1818	0.0431
856.3456	-0.0856
856.5094	-0.1615
856.6732	-0.1544
856.837	0.0151
857.0008	0.0002
857.1645	-0.0485
857.3282	-0.123
857.4919	0.2644
857.6556	-0.1173
857.8192	-0.075
857.9828	-0.0026
858.1465	0.0588
858.31	0.0561
858.4736	-0.0581
858.6372	-0.0695
858.8007	-0.0428
858.9642	0.0096
859.1277	0.2259
859.2911	0.0097
859.4546	-0.078
859.618	-0.2522
859.7814	-0.0738
859.9448	0.076
860.1081	0.0334
860.2715	0.1108
860.4348	-0.0173
860.5981	0.1128
860.7614	0.2188
860.9246	-0.1541
861.0879	-0.0314
861.2511	0.0456
861.4143	-0.3496
861.5774	0.2327
861.7406	-0.3072
861.9037	0.1455
862.0668	0.0575
862.2299	-0.0904
862.393	-0.493
862.556	0.0054
862.7191	-0.2565
862.8821	-0.1356
863.0451	0.1736
863.208	0.2248
863.371	0.0004
863.5339	1.2629
863.6968	0.1252
863.8597	0.0491
864.0225	0.0005
864.1854	0.0099
864.3482	0.1256
864.511	0.5038
864.6737	-0.006
864.8365	-0.0619
864.9992	-0
865.1619	-0.2138
865.3246	-0.2454
865.4873	-0.0803
865.65	-0.1639
865.8126	0.0086
865.9752	0.0839
866.1378	-0.15
866.3004	-0
866.4629	0.392
866.6254	0.1441
866.7879	0.8046
866.9504	0.9159
867.1129	-0
867.2753	0.2363
867.4377	0.107
867.6001	-0.0856
867.7625	-0.0064
867.9249	-0
868.0872	-0.0163
868.2495	0.0516
868.4118	-0.3143
868.5741	0.379
868.7363	-0.3066
868.8986	2.3385
869.0608	-0.1886
869.223	-0.0094
869.3851	0.9301
869.5473	0.0399
869.7094	0.1152
869.8715	-0.2388
870.0336	-0
870.1957	-0.2501
870.3577	-0.9386
870.5197	-0.0995
870.6817	-0
870.8437	-0.2157
871.0057	0.301
871.1676	0.6884
871.3295	-0.3327
871.4914	-0.7917
871.6533	-0.0713
871.8151	-0.2241
871.977	0.7863
872.1388	-0
872.3006	-0
872.4623	-0
872.6241	0.5305
872.7858	1.1886
872.9475	-0
873.1092	-0.3989
873.2709	-0
873.4325	0.1644
873.5941	0.0897
873.7557	0.0942
873.9173	0.2023
874.0789	-0
874.2404	-0
874.4019	-0.0473
874.5634	-0.3911
874.7249	-0.0904
874.8863	-0
875.0478	0.1004
875.2092	0.722
875.3706	0.5629
875.5319	-0
875.6933	-0
875.8546	0.9638
876.0159	-0
876.1772	-0
876.3385	-0
876.4997	0.6197
876.6609	-0.1879
876.8221	-0
876.9833	-0.1352
877.1445	-0
877.3056	-0.2466
877.4667	-0.3104
877.6278	0.0776
877.7889	-0.6185
877.9499	-0
878.111	-0
878.272	-0
878.433	-0
878.5939	-0
878.7549	0.3257
878.9158	-0
879.0767	0.7026
879.2376	-0
879.3984	0.5415
879.5593	-0
879.7201	-0.323
879.8809	-0.7787
880.0417	0.0987
880.2024	0.5015
880.3632	-0
880.5239	-0
880.6846	-0
880.8452	-2.4023
881.0059	-0
881.1665	-0.0245
881.3271	-0
881.4877	0.9724
881.6483	-0
881.8088	-0.2551
881.9693	-0
882.1298	-0
882.2903	-0
