Baseline 100%T,,D4ACN5uMA_Before,,D4ACN5uMB_Before,,D4ACN5uMC_Before,
Wavelength (nm),Abs,Wavelength (nm),Abs,Wavelength (nm),Abs,Wavelength (nm),Abs
599.9825439,0.036480535,599.9825439,-0.001657676,599.9825439,-0.001909906,599.9825439,-0.001340789
599.5009155,0.036497932,599.5009155,-0.001301613,599.5009155,-0.001744571,599.5009155,-0.00144266
598.9821777,0.036549151,598.9821777,-0.00155957,598.9821777,-0.001935575,598.9821777,-0.00123719
598.5003662,0.036518879,598.5003662,-0.001628123,598.5003662,-0.001971704,598.5003662,-0.001384244
598.0184937,0.036149397,598.0184937,-0.001511386,598.0184937,-0.001839336,598.0184937,-0.001580152
597.4995117,0.035729855,597.4995117,-0.001680368,597.4995117,-0.001920627,597.4995117,-0.001161708
597.0175781,0.035659458,597.0175781,-0.001460771,597.0175781,-0.001973147,597.0175781,-0.001411595
596.4984741,0.035709761,596.4984741,-0.001636272,596.4984741,-0.002301161,596.4984741,-0.001311472
596.0162964,0.035409231,596.0162964,-0.001542237,596.0162964,-0.001646433,596.0162964,-0.001062561
595.4970093,0.035655972,595.4970093,-0.001635034,595.4970093,-0.001800102,595.4970093,-0.001429811
595.0148926,0.035730109,595.0148926,-0.001923669,595.0148926,-0.002410015,595.0148926,-0.001701873
594.4954224,0.035473328,594.4954224,-0.001433681,594.4954224,-0.001707133,594.4954224,-0.001379754
594.0131226,0.035202831,594.0131226,-0.001422741,594.0131226,-0.001589489,594.0131226,-0.001055898
593.4935913,0.035111018,593.4935913,-0.001432236,593.4935913,-0.001495289,593.4935913,-0.001375729
593.0111084,0.035470773,593.0111084,-0.001574427,593.0111084,-0.001765351,593.0111084,-0.001284992
592.4914551,0.035550579,592.4914551,-0.001443433,592.4914551,-0.001942378,592.4914551,-0.001293303
592.0087891,0.035344809,592.0087891,-0.001206266,592.0087891,-0.001679543,592.0087891,-0.001277249
591.4890137,0.035550691,591.4890137,-0.001516338,591.4890137,-0.0018531,591.4890137,-0.001860678
591.0063477,0.035540324,591.0063477,-0.001637613,591.0063477,-0.001880937,591.0063477,-0.001891298
590.4863892,0.035523836,590.4863892,-0.001776797,590.4863892,-0.001978352,590.4863892,-0.001815724
590.00354,0.035021074,590.00354,-0.001272861,590.00354,-0.001585362,590.00354,-0.001231408
589.4834595,0.035292245,589.4834595,-0.00148822,589.4834595,-0.002043953,589.4834595,-0.001770507
589.0004883,0.03510591,589.0004883,-0.00165716,589.0004883,-0.001849904,589.0004883,-0.001298671
588.5175171,0.035028763,588.5175171,-0.001750862,588.5175171,-0.001948666,588.5175171,-0.001423722
587.9971924,0.034998346,587.9971924,-0.00136004,587.9971924,-0.001599341,587.9971924,-0.001533466
587.5140381,0.035156626,587.5140381,-0.001639109,587.5140381,-0.002004635,587.5140381,-0.001579379
586.9936523,0.034726996,586.9936523,-0.001495959,586.9936523,-0.001925369,586.9936523,-0.001687073
586.5103149,0.034801591,586.5103149,-0.001552141,586.5103149,-0.001865833,586.5103149,-0.001449574
585.9898071,0.034630489,585.9898071,-0.001650095,585.9898071,-0.001869132,585.9898071,-0.00128876
585.5064087,0.034678824,585.5064087,-0.001385947,585.5064087,-0.001822838,585.5064087,-0.001702234
584.9857178,0.034624435,584.9857178,-0.001364839,584.9857178,-0.00195583,584.9857178,-0.001351627
584.5022583,0.034979183,584.5022583,-0.001659069,584.5022583,-0.002098468,584.5022583,-0.001550955
583.9814453,0.034772396,583.9814453,-0.001515461,583.9814453,-0.001901504,583.9814453,-0.001472845
583.4977417,0.034561615,583.4977417,-0.001346414,583.4977417,-0.001818817,583.4977417,-0.00133506
583.0140381,0.034603857,583.0140381,-0.00142367,583.0140381,-0.001834851,583.0140381,-0.001358388
582.493042,0.034519121,582.493042,-0.001740446,582.493042,-0.002021074,582.493042,-0.001320918
582.0092163,0.034472153,582.0092163,-0.001635292,582.0092163,-0.001859544,582.0092163,-0.001282308
581.4880981,0.034338858,581.4880981,-0.00144075,581.4880981,-0.001894958,581.4880981,-0.001154738
581.0040894,0.03432104,581.0040894,-0.001584227,581.0040894,-0.001943048,581.0040894,-0.001424496
580.4828491,0.034184575,580.4828491,-0.001539709,580.4828491,-0.001765402,580.4828491,-0.001587529
579.9987793,0.034099195,579.9987793,-0.001411131,579.9987793,-0.001865679,579.9987793,-0.001406228
579.5145874,0.034352813,579.5145874,-0.001710124,579.5145874,-0.002095737,579.5145874,-0.001457004
578.9931641,0.034032643,578.9931641,-0.001540895,578.9931641,-0.001995101,578.9931641,-0.001360453
578.5088501,0.034039978,578.5088501,-0.001563284,578.5088501,-0.001952119,578.5088501,-0.001425476
577.9873047,0.034134757,577.9873047,-0.001770146,577.9873047,-0.002311666,577.9873047,-0.001723377
577.5028687,0.033923779,577.5028687,-0.001633745,577.5028687,-0.002136129,577.5028687,-0.001382438
577.0184326,0.033779185,577.0184326,-0.001679801,577.0184326,-0.001995462,577.0184326,-0.001181845
576.4966431,0.033768188,576.4966431,-0.001824179,576.4966431,-0.002048385,576.4966431,-0.00147754
576.012085,0.033510327,576.012085,-0.001706102,576.012085,-0.002083526,576.012085,-0.001279314
575.4901733,0.033549756,575.4901733,-0.002108051,575.4901733,-0.002215253,575.4901733,-0.001520156
575.0054932,0.033366457,575.0054932,-0.001729204,575.0054932,-0.002137777,575.0054932,-0.001430275
574.4833984,0.033489272,574.4833984,-0.001634725,574.4833984,-0.002131338,574.4833984,-0.001474392
573.9986572,0.033266198,573.9986572,-0.001710021,573.9986572,-0.001900577,573.9986572,-0.001370052
573.5137329,0.03364272,573.5137329,-0.001937482,573.5137329,-0.002329536,573.5137329,-0.001712032
572.9914551,0.03306796,572.9914551,-0.001670776,572.9914551,-0.002021796,572.9914551,-0.001324582
572.5065308,0.033093326,572.5065308,-0.001927586,572.5065308,-0.002260424,572.5065308,-0.001564883
571.9841309,0.032697465,571.9841309,-0.001785305,571.9841309,-0.001971807,571.9841309,-0.001446994
571.4990234,0.032790247,571.4990234,-0.001649011,571.4990234,-0.00242927,571.4990234,-0.001696665
571.013855,0.03273936,571.013855,-0.001501944,571.013855,-0.001986031,571.013855,-0.001337434
570.491272,0.032855913,570.491272,-0.001790203,570.491272,-0.002208093,570.491272,-0.001437499
570.0059814,0.032986265,570.0059814,-0.001777674,570.0059814,-0.002306002,570.0059814,-0.001719046
569.4832764,0.032739777,569.4832764,-0.001798504,569.4832764,-0.002229984,569.4832764,-0.001387289
568.9978027,0.032805044,568.9978027,-0.001789842,568.9978027,-0.002218035,568.9978027,-0.001504988
568.5123291,0.032452397,568.5123291,-0.001241527,568.5123291,-0.001813455,568.5123291,-0.001101706
567.9894409,0.032809984,567.9894409,-0.00162214,567.9894409,-0.001973869,567.9894409,-0.001361691
567.5039063,0.032716416,567.5039063,-0.001950419,567.5039063,-0.002160908,567.5039063,-0.001395236
567.0182495,0.032477003,567.0182495,-0.001709351,567.0182495,-0.002190837,567.0182495,-0.001678254
566.4951172,0.032310218,566.4951172,-0.001754574,566.4951172,-0.002280767,566.4951172,-0.001850987
566.0093994,0.031917155,566.0093994,-0.001417736,566.0093994,-0.002088884,566.0093994,-0.001319782
565.4862061,0.031943541,565.4862061,-0.001418871,565.4862061,-0.0019047,565.4862061,-0.001470936
565.0003052,0.032107595,565.0003052,-0.001727142,565.0003052,-0.002453054,565.0003052,-0.001965571
564.5143433,0.03187339,564.5143433,-0.001518196,564.5143433,-0.001992164,564.5143433,-0.001541617
563.9909668,0.031872556,563.9909668,-0.001401687,563.9909668,-0.002060185,563.9909668,-0.001223613
563.5048828,0.032144804,563.5048828,-0.001821498,563.5048828,-0.002174766,563.5048828,-0.001563955
562.9813232,0.032151774,562.9813232,-0.001738538,562.9813232,-0.002378865,562.9813232,-0.001580668
562.4951172,0.032022256,562.4951172,-0.001784016,562.4951172,-0.001964025,562.4951172,-0.001589231
562.0089111,0.031963851,562.0089111,-0.001557816,562.0089111,-0.00213958,562.0089111,-0.001831345
561.4851685,0.031716805,561.4851685,-0.001622398,561.4851685,-0.002171881,561.4851685,-0.001478985
560.9987793,0.031772114,560.9987793,-0.001839129,560.9987793,-0.002142569,560.9987793,-0.001580513
560.5123901,0.031776793,560.5123901,-0.001941863,560.5123901,-0.00216199,560.5123901,-0.001592739
559.9885254,0.031567153,559.9885254,-0.001299136,559.9885254,-0.00201958,559.9885254,-0.001537336
559.5019531,0.031527571,559.5019531,-0.00163194,559.5019531,-0.001931555,559.5019531,-0.001582732
559.0153198,0.031662729,559.0153198,-0.001830675,559.0153198,-0.002165184,559.0153198,-0.001723687
558.491272,0.031608105,558.491272,-0.001674386,558.491272,-0.00204823,558.491272,-0.001498384
558.0045166,0.031581853,558.0045166,-0.00172348,558.0045166,-0.002130256,558.0045166,-0.001501428
557.5177612,0.031628624,557.5177612,-0.001682276,557.5177612,-0.002019064,557.5177612,-0.001672529
556.9934692,0.031575114,556.9934692,-0.001744468,556.9934692,-0.002111193,556.9934692,-0.001422483
556.5065308,0.0314328,556.5065308,-0.001891298,556.5065308,-0.002210154,556.5065308,-0.001617291
555.9822388,0.031473435,555.9822388,-0.001795823,555.9822388,-0.002094037,555.9822388,-0.001528978
555.4951782,0.03128244,555.4951782,-0.001566637,555.4951782,-0.002101765,555.4951782,-0.001269971
555.0080566,0.031446271,555.0080566,-0.001622294,555.0080566,-0.002258415,555.0080566,-0.001641739
554.4834595,0.031504355,554.4834595,-0.00153878,554.4834595,-0.002085741,554.4834595,-0.001614196
553.9962769,0.03141655,553.9962769,-0.001651487,553.9962769,-0.002104599,553.9962769,-0.00136004
553.5090332,0.031245137,553.5090332,-0.001592893,553.5090332,-0.002236577,553.5090332,-0.001414588
552.9842529,0.031454314,552.9842529,-0.002030247,552.9842529,-0.002326497,552.9842529,-0.001552296
552.4969482,0.031108076,552.4969482,-0.001846192,552.4969482,-0.001993195,552.4969482,-0.001285353
552.0095215,0.031244801,552.0095215,-0.001562975,552.0095215,-0.002106969,552.0095215,-0.001357459
551.4844971,0.031398043,551.4844971,-0.0017868,551.4844971,-0.001955573,551.4844971,-0.001430533
550.9969482,0.031443544,550.9969482,-0.001488065,550.9969482,-0.002178062,550.9969482,-0.001334131
550.5093994,0.031489577,550.5093994,-0.001573704,550.5093994,-0.001920473,550.5093994,-0.001275907
549.9842529,0.031517465,549.9842529,-0.001446633,549.9842529,-0.001955933,549.9842529,-0.001189073
549.496582,0.031816397,549.496582,-0.001808918,549.496582,-0.001997987,549.496582,-0.001506639
549.0088501,0.032030869,549.0088501,-0.001973765,549.0088501,-0.002233229,549.0088501,-0.001411647
548.4834595,0.032169726,548.4834595,-0.002064049,548.4834595,-0.00236625,548.4834595,-0.001393895
547.9955444,0.032271348,547.9955444,-0.002158023,547.9955444,-0.002252183,547.9955444,-0.001652158
547.5076294,0.031955715,547.5076294,-0.001627916,547.5076294,-0.001950315,547.5076294,-0.001390798
546.9821167,0.03207479,546.9821167,-0.001593151,546.9821167,-0.002282312,546.9821167,-0.001610276
546.4940186,0.031965107,546.4940186,-0.001527843,546.4940186,-0.002085587,546.4940186,-0.001486156
546.0059814,0.032374945,546.0059814,-0.001767774,546.0059814,-0.002255891,546.0059814,-0.001699243
545.5178223,0.032259442,545.5178223,-0.001412111,545.5178223,-0.002076055,545.5178223,-0.001311369
544.9920654,0.032487936,544.9920654,-0.001606924,544.9920654,-0.002192177,544.9920654,-0.001465621
544.5037231,0.032636512,544.5037231,-0.001559622,544.5037231,-0.001986444,544.5037231,-0.001068861
544.0153809,0.033125706,544.0153809,-0.002001801,544.0153809,-0.002550032,544.0153809,-0.001875885
543.4894409,0.032778244,543.4894409,-0.001608161,543.4894409,-0.002327836,543.4894409,-0.001322569
543.0010376,0.033208799,543.0010376,-0.001960726,543.0010376,-0.002213296,543.0010376,-0.001613629
542.5125122,0.033698723,542.5125122,-0.001953717,542.5125122,-0.002215099,542.5125122,-0.001639728
541.9863281,0.03328361,541.9863281,-0.001440647,541.9863281,-0.001969849,541.9863281,-0.001204614
541.4978027,0.033120062,541.4978027,-0.00164014,541.4978027,-0.002223391,541.4978027,-0.001430791
541.0090942,0.03302718,541.0090942,-0.001646845,541.0090942,-0.002125568,541.0090942,-0.001578295
540.4827271,0.033313461,540.4827271,-0.001775818,540.4827271,-0.002285711,540.4827271,-0.001503079
539.9939575,0.033744995,539.9939575,-0.00190836,539.9939575,-0.002146123,539.9939575,-0.001374748
539.505127,0.034434963,539.505127,-0.001897071,539.505127,-0.002310173,539.505127,-0.001774013
539.0162354,0.034880854,539.0162354,-0.001794121,539.0162354,-0.002279222,539.0162354,-0.001346208
538.489624,0.035415664,538.489624,-0.001888927,538.489624,-0.002167657,538.489624,-0.00149338
538.0007324,0.035533946,538.0007324,-0.002003862,538.0007324,-0.002209896,538.0007324,-0.001623429
537.5115967,0.036105398,537.5115967,-0.002051425,537.5115967,-0.002517503,537.5115967,-0.001850832
536.9848022,0.036004566,536.9848022,-0.002111193,536.9848022,-0.002467263,536.9848022,-0.001634312
536.4956665,0.035915677,536.4956665,-0.002009995,536.4956665,-0.002156529,536.4956665,-0.001655768
536.0064087,0.036495652,536.0064087,-0.002062864,536.0064087,-0.002341379,536.0064087,-0.001762876
535.5171509,0.036912214,535.5171509,-0.001882071,535.5171509,-0.002291942,535.5171509,-0.001598722
534.9901123,0.037201684,534.9901123,-0.001892432,534.9901123,-0.002241882,534.9901123,-0.00158072
534.5007324,0.037743654,534.5007324,-0.00188403,534.5007324,-0.002460776,534.5007324,-0.001631579
534.0112915,0.03800828,534.0112915,-0.001877226,534.0112915,-0.002270364,534.0112915,-0.001562201
533.4841309,0.03798664,533.4841309,-0.002059979,533.4841309,-0.002522856,533.4841309,-0.001693467
532.9945679,0.037732359,532.9945679,-0.002022311,532.9945679,-0.002239204,532.9945679,-0.001591604
532.5049438,0.037903473,532.5049438,-0.00182985,532.5049438,-0.002195782,532.5049438,-0.0016683
532.0152588,0.038417526,532.0152588,-0.001801597,532.0152588,-0.002325261,532.0152588,-0.001667475
531.487854,0.039159924,531.487854,-0.001963406,531.487854,-0.002344057,531.487854,-0.001724357
530.9980469,0.039689962,530.9980469,-0.001879236,530.9980469,-0.002283703,530.9980469,-0.00164014
530.5082397,0.040037066,530.5082397,-0.001755605,530.5082397,-0.002245848,530.5082397,-0.001599393
530.0183105,0.040589321,530.0183105,-0.001938358,530.0183105,-0.002267016,530.0183105,-0.001699553
529.4906616,0.041127313,529.4906616,-0.001874133,529.4906616,-0.002339989,529.4906616,-0.001591862
529.0006714,0.041291259,529.0006714,-0.002242294,529.0006714,-0.002773864,529.0006714,-0.001610173
528.5106201,0.040612713,528.5106201,-0.001730958,528.5106201,-0.002073788,528.5106201,-0.001559776
527.9827881,0.040831916,527.9827881,-0.002165338,527.9827881,-0.002600829,527.9827881,-0.001704142
527.4925537,0.041109841,527.4925537,-0.002048488,527.4925537,-0.002359916,527.4925537,-0.001539141
527.0023804,0.041715838,527.0023804,-0.001895886,527.0023804,-0.002355643,527.0023804,-0.001564986
526.512085,0.042379212,526.512085,-0.001965726,526.512085,-0.002234568,526.512085,-0.001541205
525.9839478,0.042729616,525.9839478,-0.001892381,525.9839478,-0.002423349,525.9839478,-0.001672323
525.4936523,0.042926539,525.4936523,-0.002093934,525.4936523,-0.00235935,525.4936523,-0.001501841
525.0031128,0.043452587,525.0031128,-0.002035193,525.0031128,-0.002276183,525.0031128,-0.001705896
524.5126343,0.043812163,524.5126343,-0.001967272,524.5126343,-0.00219707,524.5126343,-0.001464022
523.984375,0.04411928,523.984375,-0.001751377,523.984375,-0.002049982,523.984375,-0.001430843
523.4937744,0.044686913,523.4937744,-0.002101868,523.4937744,-0.00243447,523.4937744,-0.001598
523.0030518,0.045181174,523.0030518,-0.00210872,523.0030518,-0.002316816,523.0030518,-0.001637922
522.5123291,0.045357835,522.5123291,-0.001907535,522.5123291,-0.00230147,522.5123291,-0.001532125
521.9838257,0.045874294,521.9838257,-0.001977631,521.9838257,-0.002375312,521.9838257,-0.001752099
521.492981,0.046053249,521.492981,-0.001887535,521.492981,-0.002352708,521.492981,-0.001582061
521.0021362,0.046697892,521.0021362,-0.002109905,521.0021362,-0.002585853,521.0021362,-0.001889855
520.5111694,0.046765521,520.5111694,-0.001941966,520.5111694,-0.002378093,520.5111694,-0.00177788
519.9824219,0.047127448,519.9824219,-0.001987474,519.9824219,-0.002419282,519.9824219,-0.001564367
519.491394,0.047651764,519.491394,-0.002159414,519.491394,-0.002480853,519.491394,-0.001854544
519.0002441,0.047638502,519.0002441,-0.001814796,519.0002441,-0.002322429,519.0002441,-0.001721985
518.5091553,0.047588822,518.5091553,-0.001766846,518.5091553,-0.002419745,518.5091553,-0.001779375
518.0179443,0.047740053,518.0179443,-0.001824643,518.0179443,-0.002371965,518.0179443,-0.001725337
517.4888306,0.048163958,517.4888306,-0.002043747,517.4888306,-0.002723756,517.4888306,-0.00191604
516.9975586,0.048248507,516.9975586,-0.001894649,516.9975586,-0.002482037,516.9975586,-0.001682483
516.5061646,0.048514865,516.5061646,-0.001897896,516.5061646,-0.002503863,516.5061646,-0.00167418
516.0147095,0.048825216,516.0147095,-0.001802732,516.0147095,-0.002448627,516.0147095,-0.001822478
515.4854126,0.049202342,515.4854126,-0.002036482,515.4854126,-0.002463608,515.4854126,-0.001715075
514.9939575,0.049426503,514.9939575,-0.002176105,514.9939575,-0.002665822,514.9939575,-0.001978868
514.5023193,0.049594946,514.5023193,-0.001973559,514.5023193,-0.00239565,514.5023193,-0.001773033
514.0106812,0.049575359,514.0106812,-0.001722243,514.0106812,-0.002242397,514.0106812,-0.001594544
513.4812622,0.049912658,513.4812622,-0.002001801,513.4812622,-0.002716811,513.4812622,-0.001627194
512.989502,0.049892012,512.989502,-0.001628742,512.989502,-0.002409139,512.989502,-0.00179144
512.4976196,0.050150696,512.4976196,-0.001821343,512.4976196,-0.002369648,512.4976196,-0.001579791
512.0058594,0.050273292,512.0058594,-0.001971189,512.0058594,-0.002578134,512.0058594,-0.001912793
511.513916,0.050404068,511.513916,-0.001889236,511.513916,-0.002578082,511.513916,-0.001917844
510.9841003,0.050384328,510.9841003,-0.001873308,510.9841003,-0.002296062,510.9841003,-0.001495082
510.4920654,0.050613783,510.4920654,-0.002133192,510.4920654,-0.002382366,510.4920654,-0.001782005
510.0000305,0.05081024,510.0000305,-0.002090121,510.0000305,-0.002569127,510.0000305,-0.001866246
509.5079041,0.050719056,509.5079041,-0.001648393,509.5079041,-0.002434624,509.5079041,-0.001730958
509.0157776,0.0509068,509.0157776,-0.002200006,509.0157776,-0.00245048,509.0157776,-0.001681812
508.4857178,0.050851565,508.4857178,-0.001838047,508.4857178,-0.002397452,508.4857178,-0.001582319
507.9934082,0.051167082,507.9934082,-0.001925369,507.9934082,-0.002524503,507.9934082,-0.001862431
507.5010681,0.05102944,507.5010681,-0.001533105,507.5010681,-0.00214262,507.5010681,-0.001558487
507.0086975,0.05145523,507.0086975,-0.002093315,507.0086975,-0.0025875,507.0086975,-0.001921761
506.5162659,0.051428273,506.5162659,-0.001911246,506.5162659,-0.002352347,506.5162659,-0.001799793
505.9859009,0.051447097,505.9859009,-0.001821756,505.9859009,-0.002556672,505.9859009,-0.001763288
505.4933167,0.051717293,505.4933167,-0.002040913,505.4933167,-0.002574891,505.4933167,-0.002012829
505.0007935,0.051579915,505.0007935,-0.00181361,505.0007935,-0.002483838,505.0007935,-0.001723429
504.5081177,0.051582042,504.5081177,-0.001757719,504.5081177,-0.002166935,504.5081177,-0.001656335
504.0154724,0.051654257,504.0154724,-0.001967684,504.0154724,-0.002404712,504.0154724,-0.001842481
503.4848328,0.051507514,503.4848328,-0.001860936,503.4848328,-0.002268819,503.4848328,-0.001708474
502.9920349,0.051662683,502.9920349,-0.001924184,502.9920349,-0.002562385,502.9920349,-0.001810104
502.499115,0.051625043,502.499115,-0.001967632,502.499115,-0.002403167,502.499115,-0.001876401
502.0063171,0.051692948,502.0063171,-0.00194779,502.0063171,-0.002560069,502.0063171,-0.001955779
501.5133057,0.05167656,501.5133057,-0.002009222,501.5133057,-0.002434521,501.5133057,-0.001568804
500.9823914,0.051805831,500.9823914,-0.001852378,500.9823914,-0.002656714,500.9823914,-0.001790667
500.4893799,0.051600583,500.4893799,-0.001956294,500.4893799,-0.002253934,500.4893799,-0.00171425
499.9962158,0.051668689,499.9962158,-0.002063379,499.9962158,-0.002590897,499.9962158,-0.001620076
499.5030823,0.051675335,499.5030823,-0.001680214,499.5030823,-0.00231043,499.5030823,-0.001673509
499.0098267,0.05174908,499.0098267,-0.002042562,499.0098267,-0.002570002,499.0098267,-0.001617652
498.516571,0.05155785,498.516571,-0.001754368,498.516571,-0.002527643,498.516571,-0.001630599
497.985321,0.051446572,497.985321,-0.001812115,497.985321,-0.002146381,497.985321,-0.001536304
497.4919434,0.051570501,497.4919434,-0.001949336,497.4919434,-0.002521775,497.4919434,-0.001699295
496.9985352,0.051526312,496.9985352,-0.002137674,496.9985352,-0.002566399,496.9985352,-0.001734722
496.5050659,0.051143318,496.5050659,-0.001928462,496.5050659,-0.002340195,496.5050659,-0.001505143
496.0115051,0.050940916,496.0115051,-0.002002265,496.0115051,-0.002106608,496.0115051,-0.001360659
495.5179749,0.051138803,495.5179749,-0.001986959,495.5179749,-0.002335354,495.5179749,-0.001632404
494.9863892,0.051255245,494.9863892,-0.002100735,494.9863892,-0.002377475,494.9863892,-0.001583557
494.4927063,0.051190205,494.4927063,-0.002000203,494.4927063,-0.002371502,494.4927063,-0.001532331
493.9990234,0.051339202,493.9990234,-0.001980723,493.9990234,-0.002595271,493.9990234,-0.00160713
493.505188,0.051255651,493.505188,-0.001612236,493.505188,-0.002153541,493.505188,-0.001501789
493.0114136,0.051296085,493.0114136,-0.001872122,493.0114136,-0.002549415,493.0114136,-0.001983661
492.5175476,0.051256817,492.5175476,-0.001774477,492.5175476,-0.002531967,492.5175476,-0.001624615
491.9855957,0.050902143,491.9855957,-0.002037255,491.9855957,-0.002303787,491.9855957,-0.001542546
491.4916382,0.050288726,491.4916382,-0.001659945,491.4916382,-0.002298586,491.4916382,-0.001637561
490.9976196,0.050016891,490.9976196,-0.00192372,490.9976196,-0.002371965,490.9976196,-0.00143461
490.50354,0.049907662,490.50354,-0.001664845,490.50354,-0.002155138,490.50354,-0.001521859
490.0093079,0.050379094,490.0093079,-0.002053692,490.0093079,-0.00242546,490.0093079,-0.001748851
489.5151978,0.050421946,489.5151978,-0.001883463,489.5151978,-0.002290449,489.5151978,-0.001507877
488.9829712,0.050674431,488.9829712,-0.001685732,488.9829712,-0.00234174,488.9829712,-0.001565915
488.488678,0.050789174,488.488678,-0.001898772,488.488678,-0.002433234,488.488678,-0.001620644
487.9942932,0.050405607,487.9942932,-0.001774993,487.9942932,-0.002163999,487.9942932,-0.001520259
487.5,0.050074637,487.5,-0.001540276,487.5,-0.002179144,487.5,-0.001583351
487.0054932,0.049671441,487.0054932,-0.001679904,487.0054932,-0.002042923,487.0054932,-0.001409221
486.5109863,0.049761247,486.5109863,-0.001842429,486.5109863,-0.002158487,486.5109863,-0.001508496
486.0164795,0.049657658,486.0164795,-0.001571744,486.0164795,-0.002091409,486.0164795,-0.001335679
485.4838562,0.049973525,485.4838562,-0.001397971,485.4838562,-0.002078528,485.4838562,-0.001204304
484.9891968,0.050793305,484.9891968,-0.001748799,484.9891968,-0.002206085,484.9891968,-0.001337279
484.4945679,0.051123429,484.4945679,-0.001614609,484.4945679,-0.002290037,484.4945679,-0.001313795
483.9998169,0.050885759,483.9998169,-0.001465827,483.9998169,-0.002178114,483.9998169,-0.001444827
483.5050049,0.050269023,483.5050049,-0.001563697,483.5050049,-0.002128556,483.5050049,-0.001463144
483.0102234,0.049731262,483.0102234,-0.001407105,483.0102234,-0.002068068,483.0102234,-0.001435539
482.5152893,0.049661282,482.5152893,-0.001484247,482.5152893,-0.001874957,482.5152893,-0.001301561
481.9822693,0.049780115,481.9822693,-0.001229911,481.9822693,-0.001805516,481.9822693,-0.001135891
481.4873352,0.050148517,481.4873352,-0.001393327,481.4873352,-0.001922844,481.4873352,-0.001206937
480.9922485,0.05051304,480.9922485,-0.00150958,480.9922485,-0.002054259,480.9922485,-0.001199348
480.4972229,0.050608952,480.4972229,-0.001288244,480.4972229,-0.001684752,480.4972229,-0.001049752
480.0020752,0.051258799,480.0020752,-0.001395546,480.0020752,-0.001842326,480.0020752,-0.001258511
479.506897,0.05160895,479.506897,-0.001287367,479.506897,-0.001773188,479.506897,-0.001105166
479.0115967,0.051703151,479.0115967,-0.001221032,479.0115967,-0.001558693,479.0115967,-0.000958483
478.5164185,0.052186463,478.5164185,-0.00122129,478.5164185,-0.001801494,478.5164185,-0.000932136
477.9829407,0.052191835,477.9829407,-0.000959877,477.9829407,-0.001455043,477.9829407,-0.000730302
477.4875793,0.052272204,477.4875793,-0.00079604,477.4875793,-0.001359317,477.4875793,-0.000509448
476.9921265,0.052518144,476.9921265,-0.000853811,476.9921265,-0.001153344,476.9921265,-0.000642222
476.4967041,0.052874867,476.4967041,-0.00070482,476.4967041,-0.001191965,476.4967041,-0.000464405
476.0011292,0.053082064,476.0011292,-0.000683266,476.0011292,-0.00106504,476.0011292,-0.000285687
475.5056152,0.053300776,475.5056152,-0.000584319,475.5056152,-0.000926505,475.5056152,-0.000184166
475.0099487,0.053618163,475.0099487,-0.000386254,475.0099487,-0.00084048,475.0099487,-0.000109432
474.5142822,0.054147888,474.5142822,-0.000325937,474.5142822,-0.000695103,474.5142822,-4.89E-05
474.0185547,0.054491781,474.0185547,-0.000389823,474.0185547,-0.000826425,474.0185547,7.01E-05
473.4846497,0.054787047,473.4846497,-0.000107879,473.4846497,-0.00051436,473.4846497,0.000359783
472.9888306,0.05530547,472.9888306,-7.42E-05,472.9888306,-0.000327955,472.9888306,0.000381442
472.4929199,0.055683266,472.4929199,-4.25E-06,472.4929199,-0.000325006,472.4929199,0.000562504
471.9970703,0.055724878,471.9970703,0.000583525,471.9970703,3.55E-05,471.9970703,0.000905321
471.5010681,0.056257594,471.5010681,0.000548093,471.5010681,0.000261657,471.5010681,0.000981513
471.0050964,0.056734618,471.0050964,0.000490868,471.0050964,0.000185487,471.0050964,0.001078427
470.5090027,0.056956679,470.5090027,0.000950822,470.5090027,0.000647191,470.5090027,0.001422405
470.0128784,0.057366874,470.0128784,0.001247293,470.0128784,0.000581581,470.0128784,0.001553474
469.5167236,0.057805341,469.5167236,0.001449779,469.5167236,0.001072147,469.5167236,0.001895775
468.9823914,0.058140337,468.9823914,0.001621336,468.9823914,0.001345019,468.9823914,0.002155793
468.486145,0.058633477,468.486145,0.001688896,468.486145,0.001717327,468.486145,0.002145335
467.9897766,0.058988679,467.9897766,0.00205661,467.9897766,0.001716261,467.9897766,0.002774605
467.4934998,0.059276961,467.4934998,0.002617254,467.4934998,0.002154544,467.4934998,0.003104599
466.9970398,0.059339929,466.9970398,0.002881222,466.9970398,0.002559261,466.9970398,0.003488413
466.5006409,0.059709016,466.5006409,0.003254093,466.5006409,0.002810584,466.5006409,0.003574691
466.0041199,0.060095392,466.0041199,0.003483142,466.0041199,0.0029881,466.0041199,0.003745966
465.5075684,0.060458429,465.5075684,0.003973681,465.5075684,0.003752677,465.5075684,0.004289425
465.0109863,0.060836688,465.0109863,0.004235208,465.0109863,0.004017885,465.0109863,0.004805793
464.5143433,0.061103765,464.5143433,0.005054621,464.5143433,0.004545151,464.5143433,0.005289495
464.0176086,0.061257869,464.0176086,0.005339966,464.0176086,0.004855893,464.0176086,0.005658987
463.4827271,0.06169226,463.4827271,0.005770407,463.4827271,0.005556352,463.4827271,0.00636626
462.9859314,0.06220194,462.9859314,0.006170422,462.9859314,0.005761881,462.9859314,0.006625736
462.4891052,0.062439635,462.4891052,0.006864118,462.4891052,0.00661475,462.4891052,0.007520231
461.9921875,0.062927417,461.9921875,0.007391826,461.9921875,0.007064663,461.9921875,0.007775892
461.4953613,0.063234143,461.4953613,0.007974459,461.4953613,0.007663192,461.4953613,0.008494359
460.9983215,0.063433759,460.9983215,0.008878529,460.9983215,0.00851479,460.9983215,0.009285307
460.5013733,0.063836239,460.5013733,0.009472341,460.5013733,0.00917068,460.5013733,0.009974517
460.0042419,0.064103037,460.0042419,0.010153688,460.0042419,0.009704562,460.0042419,0.010466268
459.5071716,0.063828498,459.5071716,0.011026889,459.5071716,0.010611025,459.5071716,0.011447777
459.0100098,0.064004332,459.0100098,0.011176587,459.0100098,0.011131196,459.0100098,0.011995032
458.5127869,0.064335503,458.5127869,0.012158826,458.5127869,0.011823133,458.5127869,0.012850216
458.0155029,0.064763002,458.0155029,0.013098655,458.0155029,0.012861681,458.0155029,0.013646579
457.5182495,0.065169819,457.5182495,0.01405579,457.5182495,0.013772359,457.5182495,0.014627172
456.9826355,0.065495282,456.9826355,0.015070485,456.9826355,0.014865139,456.9826355,0.015698891
456.4852295,0.065508612,456.4852295,0.01644678,456.4852295,0.016176293,456.4852295,0.017183518
455.9878235,0.066223152,455.9878235,0.017403733,455.9878235,0.017001774,455.9878235,0.017838348
455.4902954,0.06640666,455.4902954,0.018538332,455.4902954,0.01810191,455.4902954,0.019079182
454.9927368,0.066742465,454.9927368,0.019599313,454.9927368,0.01944893,454.9927368,0.020279549
454.4951782,0.06690152,454.4951782,0.020920759,454.4951782,0.020549322,454.4951782,0.021456398
453.9975891,0.0672822,453.9975891,0.022285964,453.9975891,0.021906389,453.9975891,0.022790337
453.4998474,0.06787096,453.4998474,0.023359675,453.4998474,0.02322254,453.4998474,0.024181174
453.0021973,0.068136618,453.0021973,0.024722964,453.0021973,0.024793858,453.0021973,0.025790196
452.5043945,0.068367891,452.5043945,0.026366068,452.5043945,0.026320219,452.5043945,0.02718471
452.0065918,0.068487674,452.0065918,0.027847104,452.0065918,0.027750017,452.0065918,0.028717326
451.508728,0.068643488,451.508728,0.029617531,451.508728,0.029382341,451.508728,0.030408513
451.0108337,0.068879336,451.0108337,0.031344704,451.0108337,0.031229168,451.0108337,0.032313284
450.5128479,0.069240868,450.5128479,0.033211734,450.5128479,0.033112183,450.5128479,0.034223784
450.0148926,0.06983339,450.0148926,0.034969196,450.0148926,0.034871291,450.0148926,0.035824921
449.5168152,0.069946043,449.5168152,0.036919344,449.5168152,0.036773354,449.5168152,0.037862036
449.0187683,0.070436701,449.0187683,0.038861185,449.0187683,0.038767975,449.0187683,0.03988063
448.4822998,0.070638806,448.4822998,0.041309193,448.4822998,0.041334845,448.4822998,0.042347133
447.9840698,0.070914693,447.9840698,0.04378688,447.9840698,0.043779779,447.9840698,0.044771876
447.4858704,0.071265779,447.4858704,0.04621195,447.4858704,0.046352971,447.4858704,0.047437988
446.9875793,0.071742125,446.9875793,0.048205897,446.9875793,0.048380841,446.9875793,0.049419481
446.4892578,0.072022162,446.4892578,0.050736338,446.4892578,0.050945599,446.4892578,0.052059706
445.9909363,0.072215654,445.9909363,0.053454682,445.9909363,0.053581644,445.9909363,0.054890547
445.4924927,0.072454244,445.4924927,0.056350894,445.4924927,0.056553915,445.4924927,0.057741206
444.9940186,0.072895087,444.9940186,0.059292212,444.9940186,0.059508998,444.9940186,0.060735006
444.4954834,0.073413767,444.4954834,0.061880246,444.4954834,0.061952967,444.4954834,0.063233212
443.9969788,0.073908612,443.9969788,0.064982839,443.9969788,0.065337256,443.9969788,0.066532545
443.4984131,0.074330814,443.4984131,0.06809137,443.4984131,0.06856212,443.4984131,0.069654115
442.9997253,0.074873328,442.9997253,0.071724869,442.9997253,0.072040804,442.9997253,0.073252134
442.5010681,0.075441435,442.5010681,0.075178973,442.5010681,0.075544402,442.5010681,0.076795183
442.0023499,0.075803414,442.0023499,0.078333281,442.0023499,0.078585006,442.0023499,0.079840794
441.50354,0.076345369,441.50354,0.081855595,441.50354,0.082239449,441.50354,0.083520144
441.0046997,0.07658501,441.0046997,0.085491858,441.0046997,0.085962549,441.0046997,0.08711867
440.5058594,0.077047713,440.5058594,0.088721462,440.5058594,0.089357242,440.5058594,0.090617634
440.0069885,0.077270359,440.0069885,0.092751019,440.0069885,0.093245015,440.0069885,0.09447103
439.5080261,0.077796772,439.5080261,0.096071526,439.5080261,0.096460506,439.5080261,0.097802565
439.0090027,0.078294344,439.0090027,0.099991769,439.0090027,0.100679033,439.0090027,0.102012217
438.5100098,0.078891471,438.5100098,0.103820629,438.5100098,0.104416892,438.5100098,0.105790146
438.0108643,0.079621486,438.0108643,0.108037986,438.0108643,0.108600341,438.0108643,0.109795645
437.5117493,0.079982802,437.5117493,0.112276241,437.5117493,0.112742424,437.5117493,0.114050202
437.0125427,0.080518566,437.0125427,0.115733229,437.0125427,0.116341278,437.0125427,0.117765389
436.5133362,0.080933206,436.5133362,0.119884498,436.5133362,0.120748781,436.5133362,0.122037694
436.0140991,0.081455246,436.0140991,0.123720765,436.0140991,0.1244165,436.0140991,0.125907645
435.514801,0.08182653,435.514801,0.1279926,435.514801,0.128667682,435.514801,0.130167544
435.0154419,0.082283996,435.0154419,0.13191022,435.0154419,0.132745236,435.0154419,0.134074464
434.5159912,0.0826305,434.5159912,0.135952815,434.5159912,0.136632979,434.5159912,0.138024464
434.0165405,0.083172239,434.0165405,0.140040547,434.0165405,0.140809044,434.0165405,0.142314687
433.5170593,0.083518229,433.5170593,0.143994987,433.5170593,0.144764125,433.5170593,0.14623186
433.0175781,0.083890274,433.0175781,0.14833115,433.0175781,0.149076894,433.0175781,0.150628582
432.5179749,0.084306546,432.5179749,0.151945889,432.5179749,0.152977437,432.5179749,0.154448167
432.0183716,0.084853932,432.0183716,0.155524641,432.0183716,0.156593949,432.0183716,0.158036873
431.5187073,0.08526168,431.5187073,0.15991731,431.5187073,0.160718948,431.5187073,0.162245646
431.0190125,0.08578898,431.0190125,0.163581118,431.0190125,0.164483517,431.0190125,0.16599524
430.5192261,0.086146787,430.5192261,0.167547926,430.5192261,0.168503717,430.5192261,0.1700546
429.980957,0.086633511,429.980957,0.171096474,429.980957,0.172093004,429.980957,0.173761562
429.4811096,0.087110065,429.4811096,0.174810305,429.4811096,0.17568633,429.4811096,0.177262008
428.9812317,0.08757586,428.9812317,0.178674236,428.9812317,0.17961517,428.9812317,0.181214616
428.4813232,0.087899171,428.4813232,0.18218033,428.4813232,0.183131158,428.4813232,0.184741318
427.9813232,0.088358231,427.9813232,0.185913697,427.9813232,0.186613247,427.9813232,0.188395351
427.4812927,0.088648148,427.4812927,0.188782796,427.4812927,0.189645067,427.4812927,0.191480637
426.9812927,0.089114934,426.9812927,0.191829085,426.9812927,0.192832068,426.9812927,0.194695696
426.4811096,0.089365825,426.4811096,0.195277914,426.4811096,0.196298197,426.4811096,0.198103622
425.9809875,0.089862034,425.9809875,0.19792825,425.9809875,0.198874086,425.9809875,0.200656906
425.4808044,0.089819245,425.4808044,0.201234743,425.4808044,0.202202112,425.4808044,0.204030111
425.019104,0.090244114,425.019104,0.203235,425.019104,0.204171509,425.019104,0.205856904
424.5188293,0.090686522,424.5188293,0.205715627,424.5188293,0.206598803,424.5188293,0.208499655
424.0184937,0.090814129,424.0184937,0.208572373,424.0184937,0.209592193,424.0184937,0.211312816
423.5180969,0.090912223,423.5180969,0.210863277,423.5180969,0.211642563,423.5180969,0.213560894
423.0176697,0.091153368,423.0176697,0.213062182,423.0176697,0.214048535,423.0176697,0.215850413
422.5172119,0.091415919,422.5172119,0.215030506,422.5172119,0.216072977,422.5172119,0.217761219
422.0167542,0.091784023,422.0167542,0.217080921,422.0167542,0.218169406,422.0167542,0.219803304
421.5162354,0.091997907,421.5162354,0.219237804,421.5162354,0.220175669,421.5162354,0.221930802
421.015625,0.092177592,421.015625,0.220997825,421.015625,0.221931055,421.015625,0.223800689
420.5150452,0.092152432,420.5150452,0.22276403,420.5150452,0.223805234,420.5150452,0.225558937
420.0143433,0.092067376,420.0143433,0.224263951,420.0143433,0.225238755,420.0143433,0.227125585
419.5136108,0.092292577,419.5136108,0.225820005,419.5136108,0.226746172,419.5136108,0.228600889
419.0128784,0.09236522,419.0128784,0.227445856,419.0128784,0.228552908,419.0128784,0.230266705
418.5121155,0.092585966,418.5121155,0.228817016,418.5121155,0.229783475,418.5121155,0.231724665
418.011261,0.092714518,418.011261,0.230312333,418.011261,0.23122789,418.011261,0.233086571
417.510437,0.09292867,417.510437,0.231282115,417.510437,0.232199386,417.510437,0.234101772
417.009491,0.093056105,417.009491,0.232267469,417.009491,0.233445212,417.009491,0.235194311
416.5084839,0.09307047,416.5084839,0.233539999,416.5084839,0.234392807,416.5084839,0.236440912
416.0074768,0.093322992,416.0074768,0.234375492,416.0074768,0.235339016,416.0074768,0.237398833
415.5064392,0.093305305,415.5064392,0.235476464,415.5064392,0.236308515,415.5064392,0.238401011
415.0053711,0.093539529,415.0053711,0.235983029,415.0053711,0.236850739,415.0053711,0.239033595
414.5042114,0.093550868,414.5042114,0.236812249,414.5042114,0.237948611,414.5042114,0.239796355
414.0030823,0.093642898,414.0030823,0.237582475,414.0030823,0.238418669,414.0030823,0.24059245
413.5018311,0.093828112,413.5018311,0.237938583,413.5018311,0.238934904,413.5018311,0.240825757
413.0005493,0.093882509,413.0005493,0.238718212,413.0005493,0.239545986,413.0005493,0.241695136
412.4992676,0.094104312,412.4992676,0.239090517,412.4992676,0.240236104,412.4992676,0.241984531
411.9979248,0.093856677,411.9979248,0.240026906,411.9979248,0.240889177,411.9979248,0.242872447
411.4965515,0.094126433,411.4965515,0.24033846,411.4965515,0.240956843,411.4965515,0.243115723
410.9950867,0.094203763,410.9950867,0.240665436,410.9950867,0.241718218,410.9950867,0.243818626
410.4935913,0.093998976,410.4935913,0.241464928,410.4935913,0.242258206,410.4935913,0.244394988
409.9921265,0.094229072,409.9921265,0.241281882,409.9921265,0.242185414,409.9921265,0.244070336
409.4906006,0.093982488,409.4906006,0.241739079,409.4906006,0.242635727,409.4906006,0.244469434
408.9889832,0.094188422,408.9889832,0.241881236,408.9889832,0.242789224,408.9889832,0.244744718
408.4873352,0.094180644,408.4873352,0.242082059,408.4873352,0.242995903,408.4873352,0.244969264
407.9856873,0.094261967,407.9856873,0.242336795,407.9856873,0.243286386,407.9856873,0.24512668
407.4839172,0.094331317,407.4839172,0.242575347,407.4839172,0.243203685,407.4839172,0.245146945
406.9821472,0.094135791,406.9821472,0.242708772,406.9821472,0.243552998,406.9821472,0.245676577
406.5189514,0.09427914,406.5189514,0.242730364,406.5189514,0.243480846,406.5189514,0.245242998
406.0171509,0.093893304,406.0171509,0.242957398,406.0171509,0.243802473,406.0171509,0.245822862
405.5152893,0.093997106,405.5152893,0.242970079,405.5152893,0.243666396,405.5152893,0.245710626
405.0133362,0.09391956,405.0133362,0.24273254,405.0133362,0.243756637,405.0133362,0.245523021
404.511322,0.093944244,404.511322,0.242918864,404.511322,0.243503556,404.511322,0.245612234
404.0093384,0.093763635,404.0093384,0.242761597,404.0093384,0.243560255,404.0093384,0.245336026
403.5072937,0.093549579,403.5072937,0.242653012,403.5072937,0.243370473,403.5072937,0.24543719
403.0052185,0.093615025,403.0052185,0.242427081,403.0052185,0.243255302,403.0052185,0.245337129
402.5030823,0.093653113,402.5030823,0.242366016,402.5030823,0.243115723,402.5030823,0.245186999
402.000946,0.093999073,402.000946,0.242194772,402.000946,0.243090853,402.000946,0.244882271
401.4987183,0.094043009,401.4987183,0.242304459,401.4987183,0.243124247,401.4987183,0.24477987
400.9964294,0.094243608,400.9964294,0.242113531,400.9964294,0.242886305,400.9964294,0.244844332
400.4941406,0.094099939,400.4941406,0.242594272,400.4941406,0.243190259,400.4941406,0.245186269
399.9917908,0.094297029,399.9917908,0.242427632,399.9917908,0.243143961,399.9917908,0.245313674
399.4894104,0.094424993,399.4894104,0.24267374,399.4894104,0.243516401,399.4894104,0.245283485
398.9869995,0.094671503,398.9869995,0.242809102,398.9869995,0.243736401,398.9869995,0.245820984
398.4845581,0.09477295,398.4845581,0.243371293,398.4845581,0.244074062,398.4845581,0.246154577
397.9820557,0.094765194,397.9820557,0.244011626,397.9820557,0.244938314,397.9820557,0.246786878
397.5181885,0.09501493,397.5181885,0.244697928,397.5181885,0.245554954,397.5181885,0.247467414
397.015625,0.095193669,397.015625,0.245900959,397.015625,0.246806607,397.015625,0.248529866
396.51297,0.0954917,396.51297,0.246978417,396.51297,0.247896209,396.51297,0.249740213
396.0103455,0.095782518,396.0103455,0.248385459,396.0103455,0.249623939,396.0103455,0.251570553
395.5076294,0.096094459,395.5076294,0.250183851,395.5076294,0.251141936,395.5076294,0.253187597
395.0049133,0.096202634,395.0049133,0.252136141,395.0049133,0.253325969,395.0049133,0.255433559
394.5021057,0.096730851,394.5021057,0.254454225,394.5021057,0.255364567,394.5021057,0.257445544
393.9992981,0.09675695,393.9992981,0.256478787,393.9992981,0.257464141,393.9992981,0.259557873
393.49646,0.09690211,393.49646,0.258948237,393.49646,0.26010707,393.49646,0.261989385
392.9935303,0.097506277,392.9935303,0.261152476,392.9935303,0.26221475,392.9935303,0.264234513
392.4906006,0.098213926,392.4906006,0.264060259,392.4906006,0.26524666,392.4906006,0.267240048
391.9876404,0.098810367,391.9876404,0.267563999,391.9876404,0.268638045,391.9876404,0.270960867
391.4846191,0.099017665,391.4846191,0.270288467,391.4846191,0.271403134,391.4846191,0.273505539
390.9815369,0.09901347,390.9815369,0.272802204,390.9815369,0.273865521,390.9815369,0.275974244
390.5171509,0.099078573,390.5171509,0.275077879,390.5171509,0.27629441,390.5171509,0.278369248
390.0140076,0.100157768,390.0140076,0.277226269,390.0140076,0.278442323,390.0140076,0.280306429
389.5108337,0.100874491,389.5108337,0.279543787,389.5108337,0.280913919,389.5108337,0.282772899
389.0075989,0.101519302,389.0075989,0.281541675,389.0075989,0.282741129,389.0075989,0.284925938
388.5043335,0.101729766,388.5043335,0.283692122,388.5043335,0.28471145,388.5043335,0.286803037
388.0010681,0.101883762,388.0010681,0.285155118,388.0010681,0.286403149,388.0010681,0.288426817
387.4977112,0.102488384,387.4977112,0.285890907,387.4977112,0.287156761,387.4977112,0.289305657
386.9943542,0.102507263,386.9943542,0.287269265,386.9943542,0.288211733,386.9943542,0.290200532
386.4909363,0.102752276,386.4909363,0.28754738,386.4909363,0.288459003,386.4909363,0.290758044
385.9874573,0.103041366,385.9874573,0.287978321,385.9874573,0.289187253,385.9874573,0.291285396
385.4839783,0.103215598,385.4839783,0.288122773,385.4839783,0.289037585,385.4839783,0.291209728
385.0191956,0.10325966,385.0191956,0.288004071,385.0191956,0.289176315,385.0191956,0.290951073
384.5156555,0.103740059,384.5156555,0.287016988,384.5156555,0.288121104,384.5156555,0.2900455
384.0120239,0.1039121,384.0120239,0.286264718,384.0120239,0.287357599,384.0120239,0.289329678
383.5083923,0.10377375,383.5083923,0.285362721,383.5083923,0.286581159,383.5083923,0.288282156
383.0046997,0.103740618,383.0046997,0.284302831,383.0046997,0.285151988,383.0046997,0.28731361
382.5009766,0.10386847,382.5009766,0.282770962,382.5009766,0.284208089,382.5009766,0.285924971
381.9971619,0.104027435,381.9971619,0.281383842,381.9971619,0.282434195,381.9971619,0.284073055
381.4933777,0.104197949,381.4933777,0.279776722,381.4933777,0.280581296,381.4933777,0.282366425
380.989563,0.104277626,380.989563,0.277396679,380.989563,0.278401434,380.989563,0.280425489
380.4856873,0.104091585,380.4856873,0.275947422,380.4856873,0.276846945,380.4856873,0.278927028
379.9817505,0.1040629,379.9817505,0.273704618,379.9817505,0.274839908,379.9817505,0.276930898
379.516571,0.104139619,379.516571,0.271792501,379.516571,0.272763878,379.516571,0.274665207
379.0125427,0.104256988,379.0125427,0.269681513,379.0125427,0.27045846,379.0125427,0.27229324
378.5085449,0.104439445,378.5085449,0.267186165,378.5085449,0.268072516,378.5085449,0.269793093
378.0044556,0.10471642,378.0044556,0.264827609,378.0044556,0.26558432,378.0044556,0.267770261
377.5003357,0.104090661,377.5003357,0.262959093,377.5003357,0.26429531,377.5003357,0.265571386
376.9962158,0.103633866,376.9962158,0.260992557,376.9962158,0.261592239,376.9962158,0.26381737
376.4920044,0.103374235,376.4920044,0.259092867,376.4920044,0.260054976,376.4920044,0.261768371
375.987793,0.103762344,375.987793,0.256567419,375.987793,0.25760141,375.987793,0.25939405
375.4835205,0.103895299,375.4835205,0.255009264,375.4835205,0.255714327,375.4835205,0.257425785
375.0180054,0.10392499,375.0180054,0.252854794,375.0180054,0.253877163,375.0180054,0.255638927
374.5136719,0.103654042,374.5136719,0.250965864,374.5136719,0.251930088,374.5136719,0.254037708
374.0093079,0.103968993,374.0093079,0.249005497,374.0093079,0.249682352,374.0093079,0.251702666
373.5048828,0.104057044,373.5048828,0.246759966,373.5048828,0.247689977,373.5048828,0.249685288
373.0004272,0.104297467,373.0004272,0.2446796,373.0004272,0.245843291,373.0004272,0.247429937
372.4959412,0.104056582,372.4959412,0.243072003,372.4959412,0.244096398,372.4959412,0.245870918
371.9914246,0.101837456,371.9914246,0.240806654,371.9914246,0.243509412,371.9914246,0.245692447
371.4868774,0.100832664,371.4868774,0.239014253,371.4868774,0.240421847,371.4868774,0.241860688
370.9822388,0.100359805,370.9822388,0.237075701,370.9822388,0.238177508,370.9822388,0.240197167
370.516449,0.100512929,370.516449,0.235423356,370.516449,0.236543641,370.516449,0.238037497
370.0117493,0.100137815,370.0117493,0.233260199,370.0117493,0.234558567,370.0117493,0.236344054
369.5070496,0.10014189,369.5070496,0.231329083,369.5070496,0.232288331,369.5070496,0.233781695
369.0023193,0.100549147,369.0023193,0.228280023,369.0023193,0.22919175,369.0023193,0.231140256
368.4974976,0.099647321,368.4974976,0.227326691,368.4974976,0.228141502,368.4974976,0.229792073
367.9926758,0.100089349,367.9926758,0.223920181,367.9926758,0.225162581,367.9926758,0.226791501
367.4878235,0.099984959,367.4878235,0.221905679,367.4878235,0.222799867,367.4878235,0.224723548
366.9829407,0.099560648,366.9829407,0.219358072,366.9829407,0.220377758,366.9829407,0.222205624
366.5168152,0.099577248,366.5168152,0.216759756,366.5168152,0.217566714,366.5168152,0.219365493
366.0118408,0.0991887,366.0118408,0.214341492,366.0118408,0.215397567,366.0118408,0.216985688
365.5068359,0.099411435,365.5068359,0.211747974,365.5068359,0.212801352,365.5068359,0.213956028
365.00177,0.098961584,365.00177,0.20899199,365.00177,0.209503114,365.00177,0.211500615
364.4967041,0.098922379,364.4967041,0.205574438,364.4967041,0.206588641,364.4967041,0.208422303
363.9915771,0.098336138,363.9915771,0.203055993,363.9915771,0.204023287,363.9915771,0.205967486
363.4864197,0.098064013,363.4864197,0.200224176,363.4864197,0.201357916,363.4864197,0.202587217
362.9812012,0.098177157,362.9812012,0.197813898,362.9812012,0.198635534,362.9812012,0.200236976
362.5148621,0.097725824,362.5148621,0.194894582,362.5148621,0.195852995,362.5148621,0.197536737
362.0095825,0.097349644,362.0095825,0.191670001,362.0095825,0.192752615,362.0095825,0.194331095
361.504303,0.09703774,361.504303,0.189036578,361.504303,0.190143213,361.504303,0.191593051
360.9989014,0.096627362,360.9989014,0.186811045,360.9989014,0.187471137,360.9989014,0.189049423
360.4935303,0.096738674,360.4935303,0.184206277,360.4935303,0.184947416,360.4935303,0.18657577
359.9881287,0.096302368,359.9881287,0.181026861,359.9881287,0.182209835,359.9881287,0.183542207
359.4826965,0.096113645,359.4826965,0.178536728,359.4826965,0.179799944,359.4826965,0.181267545
359.0160828,0.095880933,359.0160828,0.176162541,359.0160828,0.176973864,359.0160828,0.178572193
358.5105591,0.095764734,358.5105591,0.17298311,358.5105591,0.173896983,358.5105591,0.175470278
358.0049744,0.095528051,358.0049744,0.170690119,358.0049744,0.171452716,358.0049744,0.173057139
357.4993896,0.09500768,357.4993896,0.168712452,357.4993896,0.169578001,357.4993896,0.170923233
356.9937744,0.094812557,356.9937744,0.166161209,356.9937744,0.167516127,356.9937744,0.16889675
356.4880981,0.094931781,356.4880981,0.163734466,356.4880981,0.165284783,356.4880981,0.166306019
355.9823914,0.094559722,355.9823914,0.161972314,355.9823914,0.163142994,355.9823914,0.164270088
355.5155945,0.094468199,355.5155945,0.160157129,355.5155945,0.16126655,355.5155945,0.162381038
355.0097656,0.094302334,355.0097656,0.157769933,355.0097656,0.15928413,355.0097656,0.160370752
354.5039673,0.094411701,354.5039673,0.155769825,354.5039673,0.157006517,354.5039673,0.158331424
353.9981079,0.094366893,353.9981079,0.153552637,353.9981079,0.155184507,353.9981079,0.15628989
353.4922485,0.094044745,353.4922485,0.151908606,353.4922485,0.153278291,353.4922485,0.154480636
352.9863281,0.09384691,352.9863281,0.150918439,352.9863281,0.152019024,352.9863281,0.153208822
352.5192871,0.094058536,352.5192871,0.148537949,352.5192871,0.150031567,352.5192871,0.150953353
352.0132751,0.093838044,352.0132751,0.146783099,352.0132751,0.148515925,352.0132751,0.149471387
351.5072632,0.093560882,351.5072632,0.145514116,351.5072632,0.147048459,351.5072632,0.148045674
351.0012207,0.093821205,351.0012207,0.143234476,351.0012207,0.14503625,351.0012207,0.14529638
350.4950867,0.093464151,350.4950867,0.142283142,350.4950867,0.143786192,350.4950867,0.144653738
349.9889832,0.093369782,349.9889832,0.140102938,349.9889832,0.142221943,349.9889832,0.142788559
349.4828186,0.092994176,349.4828186,0.139297158,349.4828186,0.140811086,349.4828186,0.141312391
349.0155334,0.093102291,349.0155334,0.137234286,349.0155334,0.138668388,349.0155334,0.139890343
348.5093079,0.092823327,348.5093079,0.136342093,348.5093079,0.137279019,348.5093079,0.138260692
348.0030212,0.09290988,348.0030212,0.134630933,348.0030212,0.135880396,348.0030212,0.136655957
347.4967041,0.092467733,347.4967041,0.132790372,347.4967041,0.134563327,347.4967041,0.135385811
346.990387,0.092229061,346.990387,0.131931514,346.990387,0.133093104,346.990387,0.13374798
346.4840088,0.092321232,346.4840088,0.129821152,346.4840088,0.131314844,346.4840088,0.132440746
346.0165405,0.091775194,346.0165405,0.12871103,346.0165405,0.130119026,346.0165405,0.130885273
345.5101013,0.091786519,345.5101013,0.127122715,345.5101013,0.128550693,345.5101013,0.129444063
345.0036011,0.091616169,345.0036011,0.125611156,345.0036011,0.126646116,345.0036011,0.12774165
344.4971008,0.091415472,344.4971008,0.124428771,344.4971008,0.125680879,344.4971008,0.126806259
343.9905396,0.091028214,343.9905396,0.123508461,343.9905396,0.124653257,343.9905396,0.125692368
343.4839783,0.091401771,343.4839783,0.121447094,343.4839783,0.123055019,343.4839783,0.124043249
343.0163269,0.090839654,343.0163269,0.120871656,343.0163269,0.122302622,343.0163269,0.123435505
342.5096741,0.091441453,342.5096741,0.119280331,342.5096741,0.120376788,342.5096741,0.121463694
342.0029602,0.090948448,342.0029602,0.118403524,342.0029602,0.119919397,342.0029602,0.120550908
341.4962463,0.091189422,341.4962463,0.1168442,341.4962463,0.11791455,341.4962463,0.118970253
340.9894714,0.090674184,340.9894714,0.11626488,340.9894714,0.117531911,340.9894714,0.118352525
340.482666,0.090707675,340.482666,0.115045726,340.482666,0.115799636,340.482666,0.117070355
340.0148621,0.09062618,340.0148621,0.114165299,340.0148621,0.115177967,340.0148621,0.115673594
339.5079651,0.090139359,339.5079651,0.113508813,339.5079651,0.114131801,339.5079651,0.115211174
339.0010681,0.089981116,339.0010681,0.112034977,339.0010681,0.112948529,339.0010681,0.113999985
338.4941406,0.089923449,338.4941406,0.111332893,338.4941406,0.112127364,338.4941406,0.113018669
337.9872131,0.089708671,337.9872131,0.110494442,337.9872131,0.111862101,337.9872131,0.112491712
337.5191956,0.089636147,337.5191956,0.109879717,337.5191956,0.110735886,337.5191956,0.111946069
337.0121765,0.089353517,337.0121765,0.109546095,337.0121765,0.110497251,337.0121765,0.111148424
336.5050659,0.089351803,336.5050659,0.108413637,336.5050659,0.109748617,336.5050659,0.110423371
335.9979858,0.089475453,335.9979858,0.107803874,335.9979858,0.108954966,335.9979858,0.10972862
335.4908752,0.089098409,335.4908752,0.107612141,335.4908752,0.1083446,335.4908752,0.10931503
334.9836426,0.089341313,334.9836426,0.106918916,334.9836426,0.10731896,334.9836426,0.108302876
334.5155029,0.089063324,334.5155029,0.106119312,334.5155029,0.107377894,334.5155029,0.108282551
334.0082397,0.088895723,334.0082397,0.105727896,334.0082397,0.107113063,334.0082397,0.107742265
333.5009766,0.088998497,333.5009766,0.105096892,333.5009766,0.106397785,333.5009766,0.106907725
332.9936829,0.08885742,332.9936829,0.10482917,332.9936829,0.105955668,332.9936829,0.106721617
332.4863586,0.088888355,332.4863586,0.104395889,332.4863586,0.105558366,332.4863586,0.106319085
332.0180359,0.088913351,332.0180359,0.103639126,332.0180359,0.105252326,332.0180359,0.105968162
331.5106506,0.089064971,331.5106506,0.103309602,331.5106506,0.104558937,331.5106506,0.105488129
331.0031433,0.088969424,331.0031433,0.103399292,331.0031433,0.104280517,331.0031433,0.105082154
330.495697,0.089003675,330.495697,0.102375716,330.495697,0.103675671,330.495697,0.104835689
329.9881897,0.088792272,329.9881897,0.102157019,329.9881897,0.103864782,329.9881897,0.104543887
329.4806213,0.088849574,329.4806213,0.102126688,329.4806213,0.103069983,329.4806213,0.103951663
329.012146,0.089099489,329.012146,0.10149049,329.012146,0.102568694,329.012146,0.10340675
328.5045166,0.0890821,328.5045166,0.101204068,328.5045166,0.102276772,328.5045166,0.102962151
327.9968872,0.089096338,327.9968872,0.100646563,327.9968872,0.101421207,327.9968872,0.102831289
327.4892578,0.089393236,327.4892578,0.099867493,327.4892578,0.101138219,327.4892578,0.102079533
326.9815369,0.088939816,326.9815369,0.099724725,326.9815369,0.100924976,326.9815369,0.102104649
326.5128479,0.088971175,326.5128479,0.099028789,326.5128479,0.10043636,326.5128479,0.101374485
326.0050659,0.088836133,326.0050659,0.098607592,326.0050659,0.100186035,326.0050659,0.101112932
325.4972839,0.089022741,325.4972839,0.09864933,325.4972839,0.099512436,325.4972839,0.100582272
324.9894409,0.088963583,324.9894409,0.098163985,324.9894409,0.099071063,324.9894409,0.099993199
324.4815979,0.089093864,324.4815979,0.097143143,324.4815979,0.098397501,324.4815979,0.099243544
324.0127563,0.088729113,324.0127563,0.097222984,324.0127563,0.098045878,324.0127563,0.099058703
323.5048523,0.088973686,323.5048523,0.096591018,323.5048523,0.097795695,323.5048523,0.098765358
322.9968872,0.08875525,322.9968872,0.097082637,322.9968872,0.098032348,322.9968872,0.098966688
322.4888611,0.089218743,322.4888611,0.096379764,322.4888611,0.097505018,322.4888611,0.098649822
321.9808655,0.089379407,321.9808655,0.096588135,321.9808655,0.097285286,321.9808655,0.098418862
321.5118713,0.089230955,321.5118713,0.096386552,321.5118713,0.097138248,321.5118713,0.098464847
321.0037842,0.0894273,321.0037842,0.096164875,321.0037842,0.097225122,321.0037842,0.09805464
320.495636,0.089519002,320.495636,0.096314006,320.495636,0.097185746,320.495636,0.098498195
319.9874878,0.089464135,319.9874878,0.096159577,319.9874878,0.097371571,319.9874878,0.098251484
319.5184326,0.089637101,319.5184326,0.096139289,319.5184326,0.097254068,319.5184326,0.098440006
319.0101624,0.089943923,319.0101624,0.096312225,319.0101624,0.097333193,319.0101624,0.098120369
318.5019226,0.090223499,318.5019226,0.09663444,318.5019226,0.097628839,318.5019226,0.098907843
317.9936523,0.09006536,317.9936523,0.097592086,317.9936523,0.098610707,317.9936523,0.099529557
317.4853516,0.090539061,317.4853516,0.097799391,317.4853516,0.098958395,317.4853516,0.100051113
317.0160522,0.090659574,317.0160522,0.098624386,317.0160522,0.09968213,317.0160522,0.100797601
316.5077209,0.090772621,316.5077209,0.099467255,316.5077209,0.100602046,316.5077209,0.102152467
315.9992981,0.091485292,315.9992981,0.100677699,315.9992981,0.101682589,315.9992981,0.103004977
315.4908447,0.091485418,315.4908447,0.101924546,315.4908447,0.103122599,315.4908447,0.104411855
314.9823608,0.091502324,314.9823608,0.10344626,314.9823608,0.104496338,314.9823608,0.105718225
314.51297,0.091495231,314.51297,0.104679123,314.51297,0.106010221,314.51297,0.107416578
314.0044556,0.092083342,314.0044556,0.106744193,314.0044556,0.107934058,314.0044556,0.109259769
313.4958496,0.092725217,313.4958496,0.109219752,313.4958496,0.110181466,313.4958496,0.111290649
312.9872742,0.093094692,312.9872742,0.111213096,312.9872742,0.112341419,312.9872742,0.113816194
312.5177307,0.09345863,312.5177307,0.113493621,312.5177307,0.114840217,312.5177307,0.116094805
312.0090637,0.094008259,312.0090637,0.115969934,312.0090637,0.117482781,312.0090637,0.118596815
311.5003967,0.094396837,311.5003967,0.119255357,311.5003967,0.120739177,311.5003967,0.121942081
310.9916687,0.094879314,310.9916687,0.123175383,310.9916687,0.12425492,310.9916687,0.125639364
310.4829102,0.095129117,310.4829102,0.126355425,310.4829102,0.127703995,310.4829102,0.129001766
310.0132751,0.095832966,310.0132751,0.130040899,310.0132751,0.131128103,310.0132751,0.132589951
309.5044556,0.096222118,309.5044556,0.134087578,309.5044556,0.135424495,309.5044556,0.136768878
308.995575,0.09671846,308.995575,0.138698801,308.995575,0.139869049,308.995575,0.141294539
308.4867249,0.09725365,308.4867249,0.142977119,308.4867249,0.144258976,308.4867249,0.1455414
308.0169373,0.097819492,308.0169373,0.145896807,308.0169373,0.147349924,308.0169373,0.148650155
307.5079956,0.098561235,307.5079956,0.150393963,307.5079956,0.151320472,307.5079956,0.152839765
306.9990234,0.09927009,306.9990234,0.154067278,306.9990234,0.155420288,306.9990234,0.157049924
306.4900208,0.099688448,306.4900208,0.158296347,306.4900208,0.159173161,306.4900208,0.160821796
305.9809875,0.100173615,305.9809875,0.16159676,305.9809875,0.162560836,305.9809875,0.164140925
305.5110779,0.100551665,305.5110779,0.163926214,305.5110779,0.165110558,305.5110779,0.166594446
305.0019836,0.100945883,305.0019836,0.166698396,305.0019836,0.167863697,305.0019836,0.169475958
304.4928589,0.101327606,304.4928589,0.168868721,304.4928589,0.170020223,304.4928589,0.17134124
303.9836731,0.101608098,303.9836731,0.170614123,303.9836731,0.171754852,303.9836731,0.173198283
303.5136414,0.101903796,303.5136414,0.17162028,303.5136414,0.172652721,303.5136414,0.174130619
303.004425,0.101914041,303.004425,0.172459349,303.004425,0.173693016,303.004425,0.175260991
302.4951782,0.101999842,302.4951782,0.172874183,302.4951782,0.17416051,302.4951782,0.17580381
301.9859009,0.101899669,301.9859009,0.173420817,301.9859009,0.174630791,301.9859009,0.176236808
301.5157776,0.102039032,301.5157776,0.17377457,301.5157776,0.174711317,301.5157776,0.176336214
301.0064392,0.102351502,301.0064392,0.173434138,301.0064392,0.174416915,301.0064392,0.176279381
300.4970703,0.102360837,300.4970703,0.173397005,300.4970703,0.174381256,300.4970703,0.176030248
299.9876709,0.102353536,299.9876709,0.173322693,299.9876709,0.174241573,299.9876709,0.176035523
299.5174255,0.10241992,299.5174255,0.172920272,299.5174255,0.173759863,299.5174255,0.175803348
299.0079346,0.102615438,299.0079346,0.172629505,299.0079346,0.173669487,299.0079346,0.175575361
298.4984436,0.102427557,298.4984436,0.172749937,298.4984436,0.173587561,298.4984436,0.175497845
297.9889526,0.102289647,297.9889526,0.172655806,297.9889526,0.173769817,297.9889526,0.175690904
297.5185852,0.102356255,297.5185852,0.172807843,297.5185852,0.173718423,297.5185852,0.175336793
297.0090332,0.102406815,297.0090332,0.17251572,297.0090332,0.173710778,297.0090332,0.175598934
296.4993896,0.102482386,296.4993896,0.172999308,296.4993896,0.173816979,296.4993896,0.175727889
295.9897461,0.102740243,295.9897461,0.173081741,295.9897461,0.173774719,295.9897461,0.175721631
295.5192566,0.102922745,295.5192566,0.173001036,295.5192566,0.173826486,295.5192566,0.1757285
295.0095825,0.102698527,295.0095825,0.173244178,295.0095825,0.174287587,295.0095825,0.176242977
294.4998779,0.1029239,294.4998779,0.173549146,294.4998779,0.17448166,294.4998779,0.176223174
293.9901123,0.103273906,293.9901123,0.173432931,293.9901123,0.174273357,293.9901123,0.176318184
293.5195618,0.103482887,293.5195618,0.173415884,293.5195618,0.174399734,293.5195618,0.176236838
293.0097046,0.103722967,293.0097046,0.173207313,293.0097046,0.174334809,293.0097046,0.175909519
292.4998779,0.103912167,292.4998779,0.172699302,292.4998779,0.173695445,292.4998779,0.175280795
291.9899902,0.103883624,291.9899902,0.172431856,291.9899902,0.173163608,291.9899902,0.175266445
291.5192871,0.103758924,291.5192871,0.172017455,291.5192871,0.172886282,291.5192871,0.174687326
291.0093689,0.103765562,291.0093689,0.171271384,291.0093689,0.1722233,291.0093689,0.173865691
290.4993896,0.103501551,290.4993896,0.170513213,290.4993896,0.171449363,290.4993896,0.173134998
289.9894104,0.103489786,289.9894104,0.169544235,289.9894104,0.170381486,289.9894104,0.172053501
289.5186462,0.103382543,289.5186462,0.168659955,289.5186462,0.169101089,289.5186462,0.171250612
289.008606,0.103394598,289.008606,0.167314291,289.008606,0.167942882,289.008606,0.169916436
288.4985046,0.103340998,288.4985046,0.166383922,288.4985046,0.166822523,288.4985046,0.16864194
287.9884033,0.10319721,287.9884033,0.164861023,287.9884033,0.165750057,287.9884033,0.16759871
287.5174866,0.103179485,287.5174866,0.163475528,287.5174866,0.164160177,287.5174866,0.166258037
287.0073242,0.103117839,287.0073242,0.162329719,287.0073242,0.162963331,287.0073242,0.164846569
286.4971313,0.102982007,286.4971313,0.16115436,286.4971313,0.161641747,286.4971313,0.163576663
285.9868774,0.102770902,285.9868774,0.159966648,285.9868774,0.160521254,285.9868774,0.162216201
285.5159302,0.10278786,285.5159302,0.158598274,285.5159302,0.159220621,285.5159302,0.161009118
285.0056152,0.102623738,285.0056152,0.157706499,285.0056152,0.158211976,285.0056152,0.159698367
284.4953003,0.102462493,284.4953003,0.155876637,284.4953003,0.156514138,284.4953003,0.158202291
283.9849854,0.102473438,283.9849854,0.154398918,283.9849854,0.15507181,283.9849854,0.156721488
283.513855,0.102259338,283.513855,0.153075337,283.513855,0.153735295,283.513855,0.155138522
283.003479,0.101862818,283.003479,0.151972339,283.003479,0.152597249,283.003479,0.154174
282.493042,0.101808161,282.493042,0.150676116,282.493042,0.151219338,282.493042,0.152822718
281.982605,0.101643294,281.982605,0.149581552,281.982605,0.150290072,281.982605,0.151781663
281.5114136,0.101426207,281.5114136,0.148935705,281.5114136,0.149454519,281.5114136,0.150949135
281.0008545,0.101372071,281.0008545,0.147666901,281.0008545,0.148394018,281.0008545,0.14962633
280.4903564,0.101237238,280.4903564,0.146553993,280.4903564,0.147254527,280.4903564,0.148849458
280.019043,0.101277404,280.019043,0.145250946,280.019043,0.146278992,280.019043,0.147588506
279.5084534,0.101305969,279.5084534,0.144054413,279.5084534,0.144978344,279.5084534,0.146352634
278.9978333,0.101292305,278.9978333,0.143401474,278.9978333,0.14436017,278.9978333,0.145440623
278.4871826,0.10116753,278.4871826,0.142166376,278.4871826,0.143265933,278.4871826,0.144794688
278.0158081,0.100943461,278.0158081,0.141648457,278.0158081,0.142640382,278.0158081,0.143716812
277.5050964,0.100879587,277.5050964,0.140862718,277.5050964,0.141920745,277.5050964,0.142945558
276.9943542,0.10091348,276.9943542,0.139841929,276.9943542,0.140773252,276.9943542,0.14218469
276.4836121,0.100805894,276.4836121,0.139320776,276.4836121,0.140008912,276.4836121,0.141489938
276.0121155,0.100921646,276.0121155,0.138161823,276.0121155,0.139331698,276.0121155,0.140617207
275.5012817,0.101000063,275.5012817,0.137478069,275.5012817,0.138742015,275.5012817,0.139999658
274.9904785,0.10087423,274.9904785,0.137359783,274.9904785,0.138021275,274.9904785,0.139646024
274.5188904,0.100965314,274.5188904,0.136632234,274.5188904,0.137500659,274.5188904,0.139086798
274.0080261,0.100960508,274.0080261,0.136884406,274.0080261,0.137756139,274.0080261,0.139037162
273.4970703,0.100973181,273.4970703,0.137094408,273.4970703,0.137841567,273.4970703,0.139424175
272.9861145,0.101188675,272.9861145,0.137201622,272.9861145,0.138155669,272.9861145,0.139758244
272.5144348,0.100796618,272.5144348,0.138092518,272.5144348,0.138775691,272.5144348,0.140462756
272.003418,0.100573331,272.003418,0.138879821,272.003418,0.13971597,272.003418,0.141437709
271.4924011,0.100995101,271.4924011,0.140106127,271.4924011,0.140896827,271.4924011,0.142624378
270.9813538,0.101328462,270.9813538,0.141663015,270.9813538,0.142497465,270.9813538,0.144395933
270.5095825,0.101629593,270.5095825,0.142721638,270.5095825,0.143467769,270.5095825,0.145363629
269.9984741,0.101654679,269.9984741,0.144306898,269.9984741,0.145377919,269.9984741,0.147014067
269.4873352,0.101881996,269.4873352,0.145573065,269.4873352,0.146548152,269.4873352,0.148395509
269.0154724,0.10169822,269.0154724,0.147127017,269.0154724,0.147906199,269.0154724,0.149657756
268.5042725,0.101655304,268.5042725,0.148304954,268.5042725,0.149032116,268.5042725,0.151030541
267.993042,0.101390541,267.993042,0.149175748,267.993042,0.150031209,267.993042,0.152124211
267.4818115,0.100998238,267.4818115,0.149899721,267.4818115,0.150685012,267.4818115,0.152599946
267.0098572,0.100850686,267.0098572,0.150029078,267.0098572,0.151173428,267.0098572,0.152948976
266.4985657,0.100568011,266.4985657,0.150818527,266.4985657,0.151638359,266.4985657,0.153619766
265.9872131,0.100187957,265.9872131,0.150821894,265.9872131,0.15153487,265.9872131,0.15393211
265.5151978,0.100157246,265.5151978,0.150502667,265.5151978,0.151475132,265.5151978,0.153403357
265.0037842,0.099715672,265.0037842,0.150473669,265.0037842,0.151465774,265.0037842,0.153109774
264.4924011,0.099474154,264.4924011,0.15011926,264.4924011,0.150970683,264.4924011,0.153017789
263.9809875,0.099408641,263.9809875,0.149605796,263.9809875,0.150398344,263.9809875,0.152425841
263.5088806,0.099377789,263.5088806,0.149261445,263.5088806,0.149789855,263.5088806,0.151923373
262.9973755,0.099162027,262.9973755,0.149413973,262.9973755,0.149985462,262.9973755,0.152096093
262.4858704,0.099183396,262.4858704,0.149164096,262.4858704,0.149738476,262.4858704,0.152031511
262.0136719,0.099230692,262.0136719,0.148791537,262.0136719,0.149393529,262.0136719,0.151817948
261.5021057,0.099188305,261.5021057,0.149155051,261.5021057,0.149660453,261.5021057,0.152066484
260.9904785,0.099073499,260.9904785,0.149762183,260.9904785,0.150292739,260.9904785,0.152613252
260.5182495,0.099034481,260.5182495,0.150105551,260.5182495,0.150679514,260.5182495,0.153085724
260.0066223,0.099133633,260.0066223,0.150797054,260.0066223,0.151393399,260.0066223,0.153761268
259.4949341,0.099180534,259.4949341,0.151842326,259.4949341,0.152394101,259.4949341,0.154598549
258.9832458,0.09972766,258.9832458,0.152717412,258.9832458,0.153151572,258.9832458,0.155432254
258.5108643,0.099657282,258.5108643,0.154002219,258.5108643,0.154477835,258.5108643,0.156700358
257.999115,0.099817947,257.999115,0.154764429,257.999115,0.15546158,257.999115,0.15764074
257.4873352,0.099978991,257.4873352,0.156279355,257.4873352,0.157044977,257.4873352,0.158967435
257.0149231,0.100281149,257.0149231,0.157507464,257.0149231,0.158119917,257.0149231,0.160394207
256.5030823,0.100547776,256.5030823,0.158800349,256.5030823,0.159438357,256.5030823,0.161596686
255.9912415,0.100603581,255.9912415,0.160640314,255.9912415,0.161367163,255.9912415,0.163404405
255.5187378,0.101050302,255.5187378,0.162255436,255.5187378,0.162784651,255.5187378,0.164792806
255.0068359,0.101248443,255.0068359,0.16394645,255.0068359,0.16445078,255.0068359,0.166952983
254.4949188,0.101753384,254.4949188,0.16640015,254.4949188,0.16717653,254.4949188,0.169569597
253.9829712,0.102287218,253.9829712,0.169400439,253.9829712,0.170228988,253.9829712,0.172539905
253.5103912,0.102768347,253.5103912,0.172436819,253.5103912,0.172869355,253.5103912,0.175252572
252.9983826,0.102979086,252.9983826,0.175496057,252.9983826,0.176083252,252.9983826,0.178232268
252.4863434,0.10366305,252.4863434,0.179080427,252.4863434,0.179870203,252.4863434,0.182096347
252.0136871,0.10440553,252.0136871,0.184060291,252.0136871,0.184722871,252.0136871,0.187214002
251.5016022,0.105449654,251.5016022,0.190025717,251.5016022,0.190767422,251.5016022,0.193080887
250.9894867,0.106384523,250.9894867,0.197253391,250.9894867,0.198066577,250.9894867,0.20044075
250.5167694,0.107605241,250.5167694,0.204005763,250.5167694,0.204793662,250.5167694,0.207038268
250.0046234,0.108985737,250.0046234,0.21157144,250.0046234,0.212641329,250.0046234,0.214630261
,,,,,,,
Baseline 100%T,,,,,,,
Baseline 100%T,,,,,,,
Collection Time: 4/03/2025 9:56:32 AM,,,,,,,
Operator Name  :,,,,,,,
Scan Version 5.1.0.1016,,,,,,,
Parameter List :,,,,,,,
Instrument  Cary 60,,,,,,,
Instrument Version  2.00,,,,,,,
Start (nm)  600.0,,,,,,,
Stop (nm)  250.0,,,,,,,
X Mode  Nanometers,,,,,,,
Y Mode  Abs,,,,,,,
UV-Vis Scan Rate (nm/min)  300.00,,,,,,,
UV-Vis Data Interval (nm)  0.50,,,,,,,
UV-Vis Ave. Time (sec)  0.1000,,,,,,,
Beam Mode  Dual Beam,,,,,,,
Baseline Correction  On,,,,,,,
Baseline Type  Baseline correction,,,,,,,
Baseline File Name,,,,,,,
Baseline Std Ref File Name,,,,,,,
Cycle Mode  Off,,,,,,,
Method Log     :,,,,,,,
Method Name    :,,,,,,,
Date/Time stamp: 4/03/2025 9:55:41 AM,,,,,,,
Method Modifications:,,,,,,,
UVVIS SAT Changed: 4/03/2025 9:56:20 AM, Old:0.0125, New:0.1000,,,,,
Common SAT Changed: 4/03/2025 9:56:20 AM, Old:0.0125, New:0.1000,,,,,
X Start nm Changed: 4/03/2025 9:56:28 AM, Old:  800.0, New:  600.0,,,,,
X Stop nm Changed: 4/03/2025 9:56:28 AM, Old:  200.0, New:  250.0,,,,,
Common Interval nm Changed: 4/03/2025 9:56:28 AM, Old:     5.00, New:     0.50,,,,,
Baseline Correction Changed: 4/03/2025 9:56:28 AM, Old:0, New:1,,,,,
End Method Modifications,,,,,,,
<Current Wavelength> ,254,,,,,,
,,,,,,,
D4ACN5uMA_Before,,,,,,,
D4ACN5uM,,,,,,,
Collection Time: 4/03/2025 10:00:50 AM,,,,,,,
Operator Name  :,,,,,,,
Scan Version 5.1.0.1016,,,,,,,
Parameter List :,,,,,,,
Instrument  Cary 60,,,,,,,
Instrument Version  2.00,,,,,,,
Start (nm)  600.0,,,,,,,
Stop (nm)  250.0,,,,,,,
X Mode  Nanometers,,,,,,,
Y Mode  Abs,,,,,,,
UV-Vis Scan Rate (nm/min)  300.00,,,,,,,
UV-Vis Data Interval (nm)  0.50,,,,,,,
UV-Vis Ave. Time (sec)  0.1000,,,,,,,
Beam Mode  Dual Beam,,,,,,,
Baseline Correction  On,,,,,,,
Baseline Type  Baseline correction,,,,,,,
Baseline File Name,,,,,,,
Baseline Std Ref File Name,,,,,,,
Cycle Mode  Off,,,,,,,
Method Log     :,,,,,,,
Method Name    :,,,,,,,
Date/Time stamp: 4/03/2025 9:55:41 AM,,,,,,,
Method Modifications:,,,,,,,
UVVIS SAT Changed: 4/03/2025 9:56:20 AM, Old:0.0125, New:0.1000,,,,,
Common SAT Changed: 4/03/2025 9:56:20 AM, Old:0.0125, New:0.1000,,,,,
X Start nm Changed: 4/03/2025 9:56:28 AM, Old:  800.0, New:  600.0,,,,,
X Stop nm Changed: 4/03/2025 9:56:28 AM, Old:  200.0, New:  250.0,,,,,
Common Interval nm Changed: 4/03/2025 9:56:28 AM, Old:     5.00, New:     0.50,,,,,
Baseline Correction Changed: 4/03/2025 9:56:28 AM, Old:0, New:1,,,,,
End Method Modifications,,,,,,,
<Current Wavelength> ,251.5,,,,,,
Continuum name changed to 'D4ACN5uMA_Before',,,,,,,
,,,,,,,
D4ACN5uMA_After,,,,,,,
D4ACN5uMA_After,,,,,,,
Collection Time: 4/03/2025 10:34:34 AM,,,,,,,
Operator Name  :,,,,,,,
Scan Version 5.1.0.1016,,,,,,,
Parameter List :,,,,,,,
Instrument  Cary 60,,,,,,,
Instrument Version  2.00,,,,,,,
Start (nm)  600.0,,,,,,,
Stop (nm)  250.0,,,,,,,
X Mode  Nanometers,,,,,,,
Y Mode  Abs,,,,,,,
UV-Vis Scan Rate (nm/min)  300.00,,,,,,,
UV-Vis Data Interval (nm)  0.50,,,,,,,
UV-Vis Ave. Time (sec)  0.1000,,,,,,,
Beam Mode  Dual Beam,,,,,,,
Baseline Correction  On,,,,,,,
Baseline Type  Baseline correction,,,,,,,
Baseline File Name,,,,,,,
Baseline Std Ref File Name,,,,,,,
Cycle Mode  Off,,,,,,,
Method Log     :,,,,,,,
Method Name    :,,,,,,,
Date/Time stamp: 4/03/2025 9:55:41 AM,,,,,,,
Method Modifications:,,,,,,,
UVVIS SAT Changed: 4/03/2025 9:56:20 AM, Old:0.0125, New:0.1000,,,,,
Common SAT Changed: 4/03/2025 9:56:20 AM, Old:0.0125, New:0.1000,,,,,
X Start nm Changed: 4/03/2025 9:56:28 AM, Old:  800.0, New:  600.0,,,,,
X Stop nm Changed: 4/03/2025 9:56:28 AM, Old:  200.0, New:  250.0,,,,,
Common Interval nm Changed: 4/03/2025 9:56:28 AM, Old:     5.00, New:     0.50,,,,,
Baseline Correction Changed: 4/03/2025 9:56:28 AM, Old:0, New:1,,,,,
End Method Modifications,,,,,,,
<Current Wavelength> ,255.5,,,,,,
,,,,,,,
D4ACN5uMB_Before,,,,,,,
D4ACN5uMB_Before,,,,,,,
Collection Time: 4/03/2025 10:36:49 AM,,,,,,,
Operator Name  :,,,,,,,
Scan Version 5.1.0.1016,,,,,,,
Parameter List :,,,,,,,
Instrument  Cary 60,,,,,,,
Instrument Version  2.00,,,,,,,
Start (nm)  600.0,,,,,,,
Stop (nm)  250.0,,,,,,,
X Mode  Nanometers,,,,,,,
Y Mode  Abs,,,,,,,
UV-Vis Scan Rate (nm/min)  300.00,,,,,,,
UV-Vis Data Interval (nm)  0.50,,,,,,,
UV-Vis Ave. Time (sec)  0.1000,,,,,,,
Beam Mode  Dual Beam,,,,,,,
Baseline Correction  On,,,,,,,
Baseline Type  Baseline correction,,,,,,,
Baseline File Name,,,,,,,
Baseline Std Ref File Name,,,,,,,
Cycle Mode  Off,,,,,,,
Method Log     :,,,,,,,
Method Name    :,,,,,,,
Date/Time stamp: 4/03/2025 9:55:41 AM,,,,,,,
Method Modifications:,,,,,,,
UVVIS SAT Changed: 4/03/2025 9:56:20 AM, Old:0.0125, New:0.1000,,,,,
Common SAT Changed: 4/03/2025 9:56:20 AM, Old:0.0125, New:0.1000,,,,,
X Start nm Changed: 4/03/2025 9:56:28 AM, Old:  800.0, New:  600.0,,,,,
X Stop nm Changed: 4/03/2025 9:56:28 AM, Old:  200.0, New:  250.0,,,,,
Common Interval nm Changed: 4/03/2025 9:56:28 AM, Old:     5.00, New:     0.50,,,,,
Baseline Correction Changed: 4/03/2025 9:56:28 AM, Old:0, New:1,,,,,
End Method Modifications,,,,,,,
<Current Wavelength> ,250,,,,,,
,,,,,,,
D4ACN5uMB_After,,,,,,,
D4ACN5uMB_After,,,,,,,
Collection Time: 4/03/2025 11:06:04 AM,,,,,,,
Operator Name  :,,,,,,,
Scan Version 5.1.0.1016,,,,,,,
Parameter List :,,,,,,,
Instrument  Cary 60,,,,,,,
Instrument Version  2.00,,,,,,,
Start (nm)  600.0,,,,,,,
Stop (nm)  250.0,,,,,,,
X Mode  Nanometers,,,,,,,
Y Mode  Abs,,,,,,,
UV-Vis Scan Rate (nm/min)  300.00,,,,,,,
UV-Vis Data Interval (nm)  0.50,,,,,,,
UV-Vis Ave. Time (sec)  0.1000,,,,,,,
Beam Mode  Dual Beam,,,,,,,
Baseline Correction  On,,,,,,,
Baseline Type  Baseline correction,,,,,,,
Baseline File Name,,,,,,,
Baseline Std Ref File Name,,,,,,,
Cycle Mode  Off,,,,,,,
Method Log     :,,,,,,,
Method Name    :,,,,,,,
Date/Time stamp: 4/03/2025 9:55:41 AM,,,,,,,
Method Modifications:,,,,,,,
UVVIS SAT Changed: 4/03/2025 9:56:20 AM, Old:0.0125, New:0.1000,,,,,
Common SAT Changed: 4/03/2025 9:56:20 AM, Old:0.0125, New:0.1000,,,,,
X Start nm Changed: 4/03/2025 9:56:28 AM, Old:  800.0, New:  600.0,,,,,
X Stop nm Changed: 4/03/2025 9:56:28 AM, Old:  200.0, New:  250.0,,,,,
Common Interval nm Changed: 4/03/2025 9:56:28 AM, Old:     5.00, New:     0.50,,,,,
Baseline Correction Changed: 4/03/2025 9:56:28 AM, Old:0, New:1,,,,,
End Method Modifications,,,,,,,
<Current Wavelength> ,253.5,,,,,,
,,,,,,,
D4ACN5uMC_Before,,,,,,,
D4ACN5uMC_Before,,,,,,,
Collection Time: 4/03/2025 11:08:33 AM,,,,,,,
Operator Name  :,,,,,,,
Scan Version 5.1.0.1016,,,,,,,
Parameter List :,,,,,,,
Instrument  Cary 60,,,,,,,
Instrument Version  2.00,,,,,,,
Start (nm)  600.0,,,,,,,
Stop (nm)  250.0,,,,,,,
X Mode  Nanometers,,,,,,,
Y Mode  Abs,,,,,,,
UV-Vis Scan Rate (nm/min)  300.00,,,,,,,
UV-Vis Data Interval (nm)  0.50,,,,,,,
UV-Vis Ave. Time (sec)  0.1000,,,,,,,
Beam Mode  Dual Beam,,,,,,,
Baseline Correction  On,,,,,,,
Baseline Type  Baseline correction,,,,,,,
Baseline File Name,,,,,,,
Baseline Std Ref File Name,,,,,,,
Cycle Mode  Off,,,,,,,
Method Log     :,,,,,,,
Method Name    :,,,,,,,
Date/Time stamp: 4/03/2025 9:55:41 AM,,,,,,,
Method Modifications:,,,,,,,
UVVIS SAT Changed: 4/03/2025 9:56:20 AM, Old:0.0125, New:0.1000,,,,,
Common SAT Changed: 4/03/2025 9:56:20 AM, Old:0.0125, New:0.1000,,,,,
X Start nm Changed: 4/03/2025 9:56:28 AM, Old:  800.0, New:  600.0,,,,,
X Stop nm Changed: 4/03/2025 9:56:28 AM, Old:  200.0, New:  250.0,,,,,
Common Interval nm Changed: 4/03/2025 9:56:28 AM, Old:     5.00, New:     0.50,,,,,
Baseline Correction Changed: 4/03/2025 9:56:28 AM, Old:0, New:1,,,,,
End Method Modifications,,,,,,,
<Current Wavelength> ,253.5,,,,,,
,,,,,,,
D4ACN5uMC_After,,,,,,,
D4ACN5uMC_After,,,,,,,
Collection Time: 4/03/2025 11:36:38 AM,,,,,,,
Operator Name  :,,,,,,,
Scan Version 5.1.0.1016,,,,,,,
Parameter List :,,,,,,,
Instrument  Cary 60,,,,,,,
Instrument Version  2.00,,,,,,,
Start (nm)  600.0,,,,,,,
Stop (nm)  250.0,,,,,,,
X Mode  Nanometers,,,,,,,
Y Mode  Abs,,,,,,,
UV-Vis Scan Rate (nm/min)  300.00,,,,,,,
UV-Vis Data Interval (nm)  0.50,,,,,,,
UV-Vis Ave. Time (sec)  0.1000,,,,,,,
Beam Mode  Dual Beam,,,,,,,
Baseline Correction  On,,,,,,,
Baseline Type  Baseline correction,,,,,,,
Baseline File Name,,,,,,,
Baseline Std Ref File Name,,,,,,,
Cycle Mode  Off,,,,,,,
Method Log     :,,,,,,,
Method Name    :,,,,,,,
Date/Time stamp: 4/03/2025 9:55:41 AM,,,,,,,
Method Modifications:,,,,,,,
UVVIS SAT Changed: 4/03/2025 9:56:20 AM, Old:0.0125, New:0.1000,,,,,
Common SAT Changed: 4/03/2025 9:56:20 AM, Old:0.0125, New:0.1000,,,,,
X Start nm Changed: 4/03/2025 9:56:28 AM, Old:  800.0, New:  600.0,,,,,
X Stop nm Changed: 4/03/2025 9:56:28 AM, Old:  200.0, New:  250.0,,,,,
Common Interval nm Changed: 4/03/2025 9:56:28 AM, Old:     5.00, New:     0.50,,,,,
Baseline Correction Changed: 4/03/2025 9:56:28 AM, Old:0, New:1,,,,,
End Method Modifications,,,,,,,
<Current Wavelength> ,253.5,,,,,,
