Data from D4ACN5uM460nmA_Absorbance_13-05-41-780.txt Node
Date: Fri Feb 21 13:05:41 GMT 2025
User: LASERRRRR
Spectrometer: FLMT03099
Trigger mode: 0
Integration Time (sec): 1.500000E-2
Scans to average: 1
Electric dark correction enabled: true
Nonlinearity correction enabled: false
Boxcar width: 0
XAxis mode: Wavelengths
Number of Pixels in Spectrum: 3648
>>>>>Begin Spectral Data<<<<<
179.3399	-0.0366
179.5586	-0.0366
179.7771	-0.0366
179.9957	-0.3357
180.2143	-0
180.4329	-0
180.6514	-0
180.8699	-0.2401
181.0885	-0
181.307	-0.053
181.5255	0.7876
181.744	-0
181.9625	0.8016
182.181	-0
182.3994	-0.6765
182.6179	-0.2991
182.8363	-0
183.0547	-0
183.2732	0.0835
183.4916	0.2647
183.71	0.1854
183.9284	-0.0146
184.1467	0.3073
184.3651	-0.0028
184.5835	0.1247
184.8018	0.1478
185.0201	0.197
185.2385	0.2285
185.4568	-0.0212
185.6751	0.1741
185.8934	0.2871
186.1117	-0.2159
186.3299	0.2983
186.5482	-0.0044
186.7664	0.1388
186.9847	-0.13
187.2029	-0.0193
187.4211	0.0432
187.6393	0.1946
187.8575	0.0282
188.0757	0.2565
188.2939	0.1107
188.512	0.3709
188.7302	0.1469
188.9483	0.1534
189.1665	0.8246
189.3846	0.3451
189.6027	0.1037
189.8208	0.1257
190.0389	0.2113
190.257	0.0978
190.475	0.0334
190.6931	0.0978
190.9111	-0.072
191.1292	0.097
191.3472	0.1041
191.5652	0.1922
191.7832	0.0813
192.0012	0.1123
192.2192	0.1369
192.4371	0.0875
192.6551	0.1365
192.873	0.0634
193.091	0.114
193.3089	0.1469
193.5268	0.1911
193.7447	0.1873
193.9626	0.1488
194.1805	0.2593
194.3984	0.1776
194.6162	0.3223
194.8341	0.3011
195.0519	0.2607
195.2697	0.2366
195.4875	0.2713
195.7054	0.2406
195.9231	0.3048
196.1409	0.2466
196.3587	0.274
196.5765	0.3958
196.7942	0.3434
197.012	0.3269
197.2297	0.2829
197.4474	0.3632
197.6651	0.3437
197.8828	0.3325
198.1005	0.3633
198.3182	0.3767
198.5358	0.3452
198.7535	0.4394
198.9711	0.3683
199.1888	0.3656
199.4064	0.3968
199.624	0.3656
199.8416	0.3247
200.0592	0.3559
200.2767	0.365
200.4943	0.4378
200.7119	0.3773
200.9294	0.3768
201.1469	0.4074
201.3645	0.4811
201.582	0.3945
201.7995	0.4417
202.017	0.396
202.2344	0.4026
202.4519	0.3404
202.6694	0.42
202.8868	0.3735
203.1042	0.4308
203.3217	0.3508
203.5391	0.3803
203.7565	0.366
203.9739	0.3929
204.1913	0.375
204.4086	0.3678
204.626	0.3769
204.8433	0.3754
205.0607	0.3973
205.278	0.314
205.4953	0.3291
205.7126	0.3463
205.9299	0.333
206.1472	0.3344
206.3644	0.3266
206.5817	0.3128
206.7989	0.3354
207.0162	0.321
207.2334	0.34
207.4506	0.3249
207.6678	0.2917
207.885	0.3271
208.1022	0.3111
208.3194	0.2859
208.5365	0.2996
208.7537	0.2854
208.9708	0.302
209.1879	0.2784
209.405	0.2932
209.6222	0.2775
209.8392	0.2776
210.0563	0.2912
210.2734	0.2587
210.4905	0.2863
210.7075	0.2741
210.9245	0.2481
211.1416	0.2743
211.3586	0.2581
211.5756	0.2625
211.7926	0.2579
212.0096	0.2641
212.2265	0.2737
212.4435	0.2553
212.6604	0.2625
212.8774	0.2464
213.0943	0.2756
213.3112	0.2437
213.5281	0.2412
213.745	0.2387
213.9619	0.2556
214.1788	0.2619
214.3956	0.2539
214.6125	0.2742
214.8293	0.2671
215.0461	0.2471
215.2629	0.2567
215.4798	0.249
215.6965	0.2371
215.9133	0.2427
216.1301	0.2469
216.3469	0.2592
216.5636	0.251
216.7803	0.2549
216.9971	0.244
217.2138	0.2531
217.4305	0.2518
217.6472	0.2521
217.8639	0.2445
218.0805	0.2598
218.2972	0.2462
218.5138	0.2522
218.7305	0.2597
218.9471	0.2516
219.1637	0.2745
219.3803	0.2615
219.5969	0.2521
219.8135	0.273
220.0301	0.2576
220.2466	0.2575
220.4632	0.2642
220.6797	0.2533
220.8962	0.2577
221.1127	0.2722
221.3292	0.2675
221.5457	0.2784
221.7622	0.2694
221.9787	0.2892
222.1951	0.2849
222.4116	0.2834
222.628	0.2852
222.8444	0.285
223.0608	0.2763
223.2772	0.2821
223.4936	0.2733
223.71	0.3021
223.9264	0.2893
224.1427	0.2844
224.3591	0.2913
224.5754	0.2925
224.7917	0.2952
225.008	0.296
225.2243	0.3047
225.4406	0.2966
225.6569	0.3132
225.8732	0.3131
226.0894	0.3124
226.3057	0.3021
226.5219	0.3182
226.7381	0.3211
226.9543	0.3257
227.1705	0.3244
227.3867	0.3133
227.6029	0.3299
227.8191	0.3497
228.0352	0.3459
228.2513	0.3624
228.4675	0.344
228.6836	0.3512
228.8997	0.3586
229.1158	0.344
229.3319	0.3618
229.548	0.3593
229.764	0.3583
229.9801	0.3722
230.1961	0.3755
230.4121	0.3685
230.6282	0.3791
230.8442	0.3825
231.0602	0.3836
231.2761	0.3793
231.4921	0.4001
231.7081	0.3858
231.924	0.4045
232.14	0.4029
232.3559	0.4048
232.5718	0.4178
232.7877	0.4059
233.0036	0.4043
233.2195	0.4186
233.4353	0.4188
233.6512	0.411
233.867	0.4185
234.0829	0.4227
234.2987	0.4309
234.5145	0.4256
234.7303	0.4292
234.9461	0.434
235.1619	0.4471
235.3776	0.4408
235.5934	0.4357
235.8091	0.4463
236.0249	0.4342
236.2406	0.4356
236.4563	0.4502
236.672	0.4428
236.8877	0.4539
237.1034	0.4341
237.319	0.4474
237.5347	0.4492
237.7503	0.4519
237.966	0.4594
238.1816	0.4635
238.3972	0.4625
238.6128	0.4573
238.8284	0.4665
239.0439	0.4701
239.2595	0.4648
239.475	0.4711
239.6906	0.4581
239.9061	0.4571
240.1216	0.4557
240.3371	0.4636
240.5526	0.4676
240.7681	0.4637
240.9836	0.4507
241.199	0.4508
241.4145	0.4424
241.6299	0.4566
241.8453	0.4329
242.0607	0.4365
242.2761	0.4294
242.4915	0.4236
242.7069	0.4104
242.9223	0.4162
243.1376	0.4051
243.353	0.4013
243.5683	0.3901
243.7836	0.3832
243.9989	0.3763
244.2142	0.367
244.4295	0.3641
244.6448	0.3568
244.86	0.3532
245.0753	0.3441
245.2905	0.3385
245.5057	0.3305
245.721	0.3339
245.9362	0.3242
246.1514	0.3133
246.3665	0.3041
246.5817	0.2943
246.7969	0.2913
247.012	0.2859
247.2271	0.2951
247.4423	0.2791
247.6574	0.2759
247.8725	0.2684
248.0876	0.2637
248.3026	0.2622
248.5177	0.2519
248.7328	0.2472
248.9478	0.2476
249.1628	0.2445
249.3779	0.2375
249.5929	0.2321
249.8079	0.2304
250.0228	0.232
250.2378	0.2313
250.4528	0.2232
250.6677	0.2243
250.8827	0.2129
251.0976	0.2147
251.3125	0.2142
251.5274	0.2084
251.7423	0.2059
251.9572	0.2057
252.172	0.2048
252.3869	0.2087
252.6017	0.2026
252.8166	0.2023
253.0314	0.1946
253.2462	0.1949
253.461	0.1937
253.6758	0.1917
253.8906	0.1953
254.1053	0.193
254.3201	0.1915
254.5348	0.1827
254.7496	0.1844
254.9643	0.193
255.179	0.1833
255.3937	0.1885
255.6083	0.1873
255.823	0.1837
256.0377	0.1853
256.2523	0.1803
256.467	0.1848
256.6816	0.1793
256.8962	0.182
257.1108	0.1792
257.3254	0.1839
257.54	0.1818
257.7545	0.1814
257.9691	0.1799
258.1836	0.176
258.3981	0.1776
258.6127	0.1715
258.8272	0.1811
259.0417	0.1703
259.2561	0.1736
259.4706	0.1717
259.6851	0.1704
259.8995	0.1763
260.114	0.178
260.3284	0.1651
260.5428	0.1746
260.7572	0.1733
260.9716	0.1826
261.186	0.1702
261.4003	0.1728
261.6147	0.1772
261.829	0.1689
262.0433	0.173
262.2577	0.1763
262.472	0.1714
262.6863	0.1794
262.9005	0.1772
263.1148	0.1699
263.3291	0.1708
263.5433	0.1811
263.7576	0.1785
263.9718	0.1782
264.186	0.1719
264.4002	0.1736
264.6144	0.1811
264.8286	0.1836
265.0427	0.1786
265.2569	0.1812
265.471	0.1794
265.6851	0.1824
265.8993	0.1772
266.1134	0.1778
266.3275	0.1779
266.5415	0.1758
266.7556	0.1798
266.9697	0.1757
267.1837	0.1793
267.3978	0.1763
267.6118	0.1684
267.8258	0.177
268.0398	0.1707
268.2538	0.179
268.4677	0.1752
268.6817	0.1722
268.8957	0.1695
269.1096	0.1679
269.3235	0.1709
269.5374	0.1705
269.7514	0.1683
269.9652	0.1651
270.1791	0.1701
270.393	0.1728
270.6068	0.1734
270.8207	0.1665
271.0345	0.1606
271.2483	0.163
271.4622	0.1723
271.676	0.1668
271.8897	0.1634
272.1035	0.1678
272.3173	0.1648
272.531	0.1641
272.7448	0.1649
272.9585	0.1633
273.1722	0.1598
273.3859	0.1721
273.5996	0.1643
273.8133	0.1716
274.0269	0.1611
274.2406	0.1626
274.4542	0.1676
274.6679	0.1669
274.8815	0.178
275.0951	0.1751
275.3087	0.1718
275.5223	0.1757
275.7358	0.1716
275.9494	0.1693
276.1629	0.1751
276.3765	0.166
276.59	0.1695
276.8035	0.1639
277.017	0.1724
277.2305	0.1732
277.444	0.1684
277.6574	0.1739
277.8709	0.1772
278.0843	0.1778
278.2978	0.1783
278.5112	0.1744
278.7246	0.1683
278.938	0.1739
279.1513	0.1772
279.3647	0.1739
279.5781	0.1739
279.7914	0.1692
280.0047	0.1702
280.2181	0.1772
280.4314	0.1761
280.6447	0.1786
280.8579	0.1684
281.0712	0.1733
281.2845	0.1803
281.4977	0.1783
281.711	0.1704
281.9242	0.1758
282.1374	0.1778
282.3506	0.1802
282.5638	0.1788
282.7769	0.1708
282.9901	0.1763
283.2033	0.18
283.4164	0.173
283.6295	0.1826
283.8426	0.1792
284.0557	0.1833
284.2688	0.1827
284.4819	0.1752
284.695	0.1861
284.908	0.1764
285.1211	0.1834
285.3341	0.1824
285.5471	0.187
285.7601	0.1835
285.9731	0.1814
286.1861	0.183
286.3991	0.1844
286.612	0.1852
286.825	0.1902
287.0379	0.187
287.2508	0.1909
287.4637	0.1931
287.6766	0.188
287.8895	0.1857
288.1024	0.1925
288.3152	0.1911
288.5281	0.1823
288.7409	0.1953
288.9538	0.1886
289.1666	0.1913
289.3794	0.1896
289.5922	0.1862
289.8049	0.1909
290.0177	0.1908
290.2304	0.1903
290.4432	0.196
290.6559	0.1899
290.8686	0.1943
291.0813	0.195
291.294	0.1917
291.5067	0.1931
291.7194	0.194
291.932	0.1889
292.1447	0.1915
292.3573	0.1929
292.5699	0.1951
292.7825	0.1904
292.9951	0.1934
293.2077	0.1906
293.4203	0.1945
293.6328	0.1897
293.8454	0.196
294.0579	0.1902
294.2704	0.1997
294.4829	0.1868
294.6954	0.1892
294.9079	0.1922
295.1204	0.1907
295.3328	0.2044
295.5453	0.1956
295.7577	0.1941
295.9701	0.1944
296.1825	0.1929
296.3949	0.1905
296.6073	0.1871
296.8197	0.1926
297.0321	0.1948
297.2444	0.1909
297.4567	0.1931
297.6691	0.1933
297.8814	0.1874
298.0937	0.1886
298.306	0.1903
298.5182	0.1997
298.7305	0.1939
298.9428	0.1948
299.155	0.1893
299.3672	0.1946
299.5794	0.1961
299.7916	0.1909
300.0038	0.1991
300.216	0.1913
300.4282	0.1881
300.6403	0.1995
300.8525	0.1913
301.0646	0.1912
301.2767	0.1955
301.4888	0.1925
301.7009	0.1955
301.913	0.1975
302.125	0.1948
302.3371	0.1935
302.5491	0.1956
302.7612	0.1975
302.9732	0.1935
303.1852	0.1932
303.3972	0.1932
303.6092	0.1936
303.8211	0.1909
304.0331	0.191
304.245	0.1857
304.457	0.1918
304.6689	0.1884
304.8808	0.1885
305.0927	0.186
305.3046	0.1849
305.5164	0.185
305.7283	0.1818
305.9401	0.1778
306.152	0.1777
306.3638	0.1821
306.5756	0.1867
306.7874	0.1795
306.9992	0.1756
307.2109	0.1727
307.4227	0.1697
307.6344	0.1703
307.8462	0.1658
308.0579	0.1711
308.2696	0.1645
308.4813	0.1647
308.693	0.1591
308.9046	0.1643
309.1163	0.1607
309.328	0.1571
309.5396	0.152
309.7512	0.1561
309.9628	0.1439
310.1744	0.1462
310.386	0.1427
310.5976	0.1495
310.8091	0.1435
311.0207	0.1441
311.2322	0.1466
311.4437	0.1396
311.6552	0.1396
311.8667	0.1382
312.0782	0.142
312.2897	0.1441
312.5012	0.1364
312.7126	0.1298
312.924	0.1374
313.1355	0.1333
313.3469	0.1295
313.5583	0.1294
313.7696	0.1286
313.981	0.1341
314.1924	0.1242
314.4037	0.1231
314.6151	0.1278
314.8264	0.1244
315.0377	0.1281
315.249	0.1271
315.4603	0.1219
315.6716	0.1285
315.8828	0.124
316.0941	0.1286
316.3053	0.1178
316.5165	0.1225
316.7277	0.1172
316.9389	0.1274
317.1501	0.125
317.3613	0.1196
317.5724	0.1234
317.7836	0.1146
317.9947	0.1204
318.2058	0.1219
318.417	0.1121
318.6281	0.1147
318.8391	0.1177
319.0502	0.1189
319.2613	0.124
319.4723	0.1199
319.6834	0.1178
319.8944	0.1203
320.1054	0.124
320.3164	0.1149
320.5274	0.1157
320.7383	0.1167
320.9493	0.1204
321.1602	0.1167
321.3712	0.1179
321.5821	0.1144
321.793	0.1198
322.0039	0.1227
322.2148	0.1242
322.4257	0.1153
322.6365	0.1188
322.8474	0.1216
323.0582	0.1207
323.269	0.1253
323.4798	0.1235
323.6906	0.1158
323.9014	0.1179
324.1122	0.1158
324.3229	0.1255
324.5337	0.1235
324.7444	0.124
324.9551	0.1209
325.1658	0.1222
325.3765	0.1233
325.5872	0.1218
325.7979	0.1195
326.0085	0.1251
326.2192	0.1203
326.4298	0.1194
326.6404	0.1251
326.851	0.1197
327.0616	0.1269
327.2722	0.1299
327.4828	0.1259
327.6933	0.1286
327.9039	0.121
328.1144	0.129
328.3249	0.1246
328.5354	0.1273
328.7459	0.1284
328.9564	0.1247
329.1669	0.1252
329.3773	0.1256
329.5878	0.1234
329.7982	0.1287
330.0086	0.1256
330.219	0.1229
330.4294	0.127
330.6398	0.1195
330.8502	0.1297
331.0605	0.1268
331.2708	0.1221
331.4812	0.1295
331.6915	0.128
331.9018	0.126
332.1121	0.1318
332.3224	0.1277
332.5326	0.1211
332.7429	0.1293
332.9531	0.1332
333.1633	0.1268
333.3735	0.1241
333.5837	0.1281
333.7939	0.1363
334.0041	0.1297
334.2143	0.1328
334.4244	0.1375
334.6346	0.1294
334.8447	0.1357
335.0548	0.1353
335.2649	0.1302
335.475	0.1358
335.685	0.1295
335.8951	0.1286
336.1051	0.1364
336.3152	0.138
336.5252	0.1351
336.7352	0.1291
336.9452	0.1353
337.1552	0.1352
337.3652	0.1273
337.5751	0.128
337.7851	0.132
337.995	0.1342
338.2049	0.1312
338.4148	0.1382
338.6247	0.1341
338.8346	0.1368
339.0445	0.1295
339.2543	0.1435
339.4642	0.1325
339.674	0.1329
339.8838	0.14
340.0936	0.1408
340.3034	0.1413
340.5132	0.1323
340.7229	0.139
340.9327	0.1487
341.1424	0.1393
341.3522	0.1383
341.5619	0.1472
341.7716	0.1423
341.9813	0.1498
342.1909	0.1452
342.4006	0.1485
342.6102	0.1469
342.8199	0.1436
343.0295	0.1421
343.2391	0.1474
343.4487	0.1483
343.6583	0.1561
343.8679	0.1431
344.0774	0.1499
344.287	0.1523
344.4965	0.1537
344.706	0.1525
344.9155	0.1422
345.125	0.1506
345.3345	0.1563
345.544	0.1525
345.7534	0.1533
345.9629	0.156
346.1723	0.1531
346.3817	0.1556
346.5911	0.1575
346.8005	0.1624
347.0099	0.1552
347.2193	0.1638
347.4286	0.1622
347.638	0.1598
347.8473	0.1647
348.0566	0.1572
348.2659	0.1553
348.4752	0.1626
348.6845	0.1614
348.8937	0.1596
349.103	0.1638
349.3122	0.1604
349.5214	0.1618
349.7306	0.1735
349.9398	0.1681
350.149	0.1642
350.3582	0.1703
350.5674	0.17
350.7765	0.1758
350.9856	0.1652
351.1948	0.1724
351.4039	0.1673
351.613	0.1737
351.822	0.177
352.0311	0.1771
352.2402	0.173
352.4492	0.1745
352.6582	0.177
352.8672	0.179
353.0762	0.177
353.2852	0.1785
353.4942	0.1819
353.7032	0.1826
353.9121	0.1817
354.1211	0.1761
354.33	0.1779
354.5389	0.1804
354.7478	0.1784
354.9567	0.1886
355.1655	0.1856
355.3744	0.1812
355.5833	0.1885
355.7921	0.1854
356.0009	0.1874
356.2097	0.1813
356.4185	0.1892
356.6273	0.1847
356.8361	0.1863
357.0448	0.186
357.2536	0.1883
357.4623	0.1825
357.671	0.1955
357.8797	0.1909
358.0884	0.1934
358.2971	0.1938
358.5057	0.1915
358.7144	0.193
358.923	0.1974
359.1316	0.1992
359.3402	0.2026
359.5488	0.1876
359.7574	0.1975
359.966	0.2144
360.1746	0.1904
360.3831	0.2063
360.5916	0.2039
360.8002	0.2086
361.0087	0.201
361.2172	0.2123
361.4256	0.2067
361.6341	0.2072
361.8426	0.215
362.051	0.2097
362.2594	0.2162
362.4678	0.2198
362.6762	0.2107
362.8846	0.2118
363.093	0.2171
363.3014	0.2191
363.5097	0.221
363.718	0.2187
363.9264	0.2192
364.1347	0.2204
364.343	0.2206
364.5513	0.2252
364.7595	0.2256
364.9678	0.2278
365.176	0.2224
365.3842	0.2279
365.5925	0.2299
365.8007	0.2233
366.0089	0.2401
366.217	0.2315
366.4252	0.2272
366.6333	0.2349
366.8415	0.2381
367.0496	0.2384
367.2577	0.2412
367.4658	0.2391
367.6739	0.2416
367.882	0.249
368.09	0.2436
368.2981	0.2498
368.5061	0.2505
368.7141	0.2437
368.9221	0.2544
369.1301	0.2465
369.3381	0.2515
369.5461	0.2506
369.754	0.2457
369.962	0.2443
370.1699	0.2534
370.3778	0.2563
370.5857	0.262
370.7936	0.2507
371.0015	0.2503
371.2093	0.2535
371.4172	0.271
371.625	0.2599
371.8328	0.2593
372.0406	0.2631
372.2484	0.2531
372.4562	0.2646
372.664	0.2645
372.8717	0.2694
373.0795	0.27
373.2872	0.2696
373.4949	0.2673
373.7026	0.2644
373.9103	0.2628
374.118	0.2715
374.3256	0.2759
374.5333	0.267
374.7409	0.2766
374.9485	0.274
375.1561	0.2821
375.3637	0.2732
375.5713	0.2808
375.7789	0.2795
375.9864	0.2729
376.194	0.2822
376.4015	0.2803
376.609	0.2769
376.8165	0.2864
377.024	0.2792
377.2315	0.285
377.4389	0.2728
377.6464	0.2846
377.8538	0.2831
378.0612	0.2857
378.2686	0.2852
378.476	0.2935
378.6834	0.2847
378.8908	0.2938
379.0981	0.2949
379.3055	0.2898
379.5128	0.281
379.7201	0.291
379.9274	0.2953
380.1347	0.2923
380.342	0.2951
380.5492	0.3051
380.7565	0.2958
380.9637	0.3037
381.1709	0.2968
381.3781	0.3052
381.5853	0.3066
381.7925	0.3031
381.9997	0.2997
382.2068	0.2994
382.4139	0.2947
382.6211	0.3014
382.8282	0.3096
383.0353	0.3119
383.2424	0.3059
383.4494	0.3018
383.6565	0.3096
383.8635	0.3043
384.0706	0.3166
384.2776	0.3091
384.4846	0.3091
384.6916	0.3083
384.8986	0.309
385.1055	0.319
385.3125	0.3085
385.5194	0.3172
385.7263	0.3013
385.9333	0.3099
386.1402	0.3108
386.347	0.3078
386.5539	0.3036
386.7608	0.3005
386.9676	0.3079
387.1744	0.3079
387.3813	0.3028
387.5881	0.2974
387.7948	0.3099
388.0016	0.3204
388.2084	0.3046
388.4151	0.3093
388.6219	0.3017
388.8286	0.315
389.0353	0.3124
389.242	0.3063
389.4487	0.3053
389.6553	0.2899
389.862	0.2961
390.0686	0.3144
390.2753	0.3006
390.4819	0.3017
390.6885	0.3015
390.8951	0.2993
391.1016	0.3092
391.3082	0.2981
391.5147	0.2979
391.7213	0.2949
391.9278	0.2926
392.1343	0.2931
392.3408	0.2956
392.5473	0.2806
392.7537	0.2897
392.9602	0.2897
393.1666	0.2929
393.373	0.2924
393.5794	0.2921
393.7858	0.2885
393.9922	0.2811
394.1986	0.2746
394.4049	0.2791
394.6113	0.2738
394.8176	0.2806
395.0239	0.2728
395.2302	0.2833
395.4365	0.2685
395.6428	0.2797
395.8491	0.2751
396.0553	0.2638
396.2615	0.2759
396.4678	0.2793
396.674	0.2728
396.8802	0.2722
397.0863	0.2723
397.2925	0.2699
397.4987	0.2624
397.7048	0.2721
397.9109	0.265
398.117	0.2607
398.3231	0.2651
398.5292	0.2609
398.7353	0.2588
398.9413	0.2665
399.1474	0.2578
399.3534	0.2638
399.5594	0.262
399.7654	0.2624
399.9714	0.2619
400.1774	0.262
400.3833	0.2561
400.5893	0.2653
400.7952	0.2743
401.0011	0.2608
401.207	0.2757
401.4129	0.2582
401.6188	0.2664
401.8247	0.2647
402.0305	0.2544
402.2364	0.2595
402.4422	0.27
402.648	0.264
402.8538	0.2629
403.0596	0.2553
403.2654	0.2595
403.4711	0.2521
403.6768	0.2673
403.8826	0.2571
404.0883	0.2643
404.294	0.2707
404.4997	0.2681
404.7054	0.2677
404.911	0.2518
405.1167	0.268
405.3223	0.2589
405.5279	0.259
405.7335	0.2533
405.9391	0.2597
406.1447	0.2577
406.3502	0.2633
406.5558	0.2619
406.7613	0.2558
406.9668	0.2507
407.1724	0.2668
407.3778	0.2709
407.5833	0.2506
407.7888	0.2703
407.9942	0.2671
408.1997	0.2537
408.4051	0.2654
408.6105	0.2674
408.8159	0.2537
409.0213	0.2653
409.2267	0.2621
409.432	0.2595
409.6374	0.2606
409.8427	0.2678
410.048	0.266
410.2533	0.2659
410.4586	0.2551
410.6639	0.2779
410.8691	0.261
411.0744	0.262
411.2796	0.2575
411.4848	0.265
411.69	0.2541
411.8952	0.2596
412.1004	0.2664
412.3056	0.2561
412.5107	0.262
412.7158	0.274
412.921	0.2608
413.1261	0.2509
413.3312	0.2539
413.5362	0.2745
413.7413	0.2532
413.9464	0.2478
414.1514	0.2569
414.3564	0.2599
414.5614	0.2546
414.7664	0.257
414.9714	0.2636
415.1764	0.2569
415.3813	0.2552
415.5863	0.2644
415.7912	0.2476
415.9961	0.2537
416.201	0.2497
416.4059	0.2518
416.6108	0.2591
416.8156	0.2564
417.0205	0.2515
417.2253	0.2549
417.4301	0.2573
417.6349	0.2445
417.8397	0.2502
418.0445	0.2493
418.2492	0.2467
418.454	0.2465
418.6587	0.2529
418.8634	0.2525
419.0681	0.2628
419.2728	0.2498
419.4775	0.2549
419.6822	0.2324
419.8868	0.2479
420.0915	0.2446
420.2961	0.2438
420.5007	0.245
420.7053	0.2433
420.9099	0.2424
421.1144	0.2415
421.319	0.2386
421.5235	0.232
421.728	0.2481
421.9325	0.2384
422.137	0.242
422.3415	0.2341
422.546	0.2393
422.7504	0.2302
422.9549	0.2413
423.1593	0.225
423.3637	0.2439
423.5681	0.2403
423.7725	0.2288
423.9769	0.2354
424.1812	0.2279
424.3856	0.2253
424.5899	0.2237
424.7942	0.2218
424.9985	0.2266
425.2028	0.2402
425.4071	0.2291
425.6113	0.2238
425.8156	0.2242
426.0198	0.2306
426.224	0.2262
426.4282	0.2181
426.6324	0.2087
426.8366	0.2115
427.0407	0.2147
427.2449	0.2172
427.449	0.2214
427.6531	0.2177
427.8572	0.2098
428.0613	0.2188
428.2654	0.2169
428.4694	0.1931
428.6735	0.1999
428.8775	0.2059
429.0815	0.2065
429.2855	0.2017
429.4895	0.1928
429.6935	0.2052
429.8975	0.1822
430.1014	0.1952
430.3053	0.2042
430.5093	0.1873
430.7132	0.186
430.9171	0.1841
431.1209	0.1956
431.3248	0.1835
431.5286	0.1835
431.7325	0.182
431.9363	0.1876
432.1401	0.1827
432.3439	0.1831
432.5477	0.1749
432.7514	0.1751
432.9552	0.1773
433.1589	0.1704
433.3627	0.1713
433.5664	0.1613
433.7701	0.1641
433.9737	0.1683
434.1774	0.1617
434.3811	0.1672
434.5847	0.163
434.7883	0.1632
434.9919	0.1588
435.1955	0.1522
435.3991	0.1527
435.6027	0.1452
435.8062	0.1579
436.0098	0.1474
436.2133	0.1524
436.4168	0.1466
436.6203	0.1435
436.8238	0.1455
437.0272	0.1333
437.2307	0.1337
437.4341	0.1365
437.6375	0.1389
437.841	0.1213
438.0443	0.1324
438.2477	0.1198
438.4511	0.1252
438.6545	0.1214
438.8578	0.1241
439.0611	0.1189
439.2644	0.1241
439.4677	0.1176
439.671	0.1075
439.8743	0.1166
440.0775	0.1194
440.2808	0.109
440.484	0.1095
440.6872	0.1102
440.8904	0.0953
441.0936	0.1113
441.2967	0.0872
441.4999	0.0988
441.703	0.1005
441.9062	0.1058
442.1093	0.1045
442.3124	0.1004
442.5155	0.1059
442.7185	0.0967
442.9216	0.1016
443.1246	0.0966
443.3276	0.0882
443.5307	0.0868
443.7337	0.0835
443.9366	0.0775
444.1396	0.0788
444.3426	0.0736
444.5455	0.0795
444.7484	0.0741
444.9513	0.0767
445.1542	0.0814
445.3571	0.07
445.56	0.0651
445.7628	0.0706
445.9657	0.0835
446.1685	0.0744
446.3713	0.0768
446.5741	0.0701
446.7769	0.0731
446.9797	0.0671
447.1824	0.0664
447.3852	0.0513
447.5879	0.0614
447.7906	0.0544
447.9933	0.0657
448.196	0.0534
448.3986	0.0635
448.6013	0.0488
448.8039	0.0592
449.0066	0.0572
449.2092	0.0658
449.4118	0.0527
449.6143	0.0561
449.8169	0.0469
450.0195	0.0483
450.222	0.0511
450.4245	0.0491
450.627	0.046
450.8295	0.0514
451.032	0.045
451.2345	0.0448
451.4369	0.0358
451.6394	0.0458
451.8418	0.0452
452.0442	0.041
452.2466	0.035
452.449	0.0386
452.6513	0.0275
452.8537	0.0384
453.056	0.0359
453.2583	0.043
453.4607	0.0206
453.663	0.0398
453.8652	0.036
454.0675	0.0381
454.2697	0.0375
454.472	0.0305
454.6742	0.0325
454.8764	0.0292
455.0786	0.0344
455.2808	0.0228
455.4829	0.0339
455.6851	0.0298
455.8872	0.0182
456.0893	0.0275
456.2915	0.0225
456.4935	0.0279
456.6956	0.0204
456.8977	0.0231
457.0997	0.0302
457.3018	0.0191
457.5038	0.0232
457.7058	0.0278
457.9078	0.0222
458.1098	0.0211
458.3117	0.0284
458.5137	0.0127
458.7156	0.0242
458.9175	0.0295
459.1194	0.0163
459.3213	0.0159
459.5232	0.0251
459.725	0.0261
459.9269	0.0205
460.1287	0.0148
460.3305	0.0251
460.5323	0.0224
460.7341	0.0205
460.9359	0.0126
461.1376	0.0251
461.3394	0.0171
461.5411	0.0196
461.7428	0.0144
461.9445	0.017
462.1462	0.0126
462.3479	0.0102
462.5495	0.0187
462.7512	0.0196
462.9528	0.018
463.1544	0.0144
463.356	-0.0009
463.5576	0.0207
463.7592	0.0092
463.9607	0.012
464.1623	0.0116
464.3638	0.0091
464.5653	0.016
464.7668	0.0231
464.9683	0.0136
465.1697	0.0067
465.3712	0.0095
465.5726	0.0081
465.7741	0.0175
465.9755	0.0088
466.1769	0.0067
466.3782	0.0133
466.5796	0.0104
466.7809	0.0146
466.9823	0.0099
467.1836	0.006
467.3849	0.0052
467.5862	-0.0021
467.7875	0.0078
467.9887	0.0056
468.19	0.0055
468.3912	0.0206
468.5924	0.0024
468.7936	0.0095
468.9948	0.0022
469.196	0.0003
469.3972	0.0088
469.5983	0.0056
469.7994	0.0015
470.0006	0.0077
470.2017	0.0082
470.4027	0.0109
470.6038	0.008
470.8049	0.0169
471.0059	0.0047
471.2069	0.0036
471.408	0.013
471.6089	0.0197
471.8099	0.0082
472.0109	0.0023
472.2119	0.0082
472.4128	-0.0055
472.6137	0.011
472.8146	0.0054
473.0155	0.0148
473.2164	0.0119
473.4173	0.0041
473.6181	-0.0009
473.819	0.0067
474.0198	0.0056
474.2206	-0.0004
474.4214	0.0006
474.6222	-0.0018
474.8229	0.002
475.0237	0.0036
475.2244	0.0139
475.4251	0.011
475.6258	0.0024
475.8265	0.007
476.0272	0.004
476.2278	0.0055
476.4285	0.0062
476.6291	0.0046
476.8297	0.0041
477.0303	-0.0026
477.2309	0.0078
477.4315	0.0003
477.632	0.0011
477.8326	0.0034
478.0331	0.008
478.2336	0.0024
478.4341	0.0167
478.6346	0.0041
478.8351	0.0035
479.0355	0.0082
479.236	0.0209
479.4364	0.0097
479.6368	0.0071
479.8372	0.002
480.0376	0.0035
480.2379	0.0067
480.4383	0.0133
480.6386	-0.0016
480.8389	0.0088
481.0392	0.0063
481.2395	0.006
481.4398	0.0087
481.6401	0.0023
481.8403	0.0036
482.0405	0.0057
482.2408	0.0062
482.441	-0.0029
482.6411	-0.0011
482.8413	-0.0045
483.0415	0.0161
483.2416	0.0036
483.4417	0.0042
483.6419	-0.0077
483.8419	0.0071
484.042	0.0071
484.2421	-0.0034
484.4422	0.0063
484.6422	-0.0012
484.8422	0.0043
485.0422	0.0039
485.2422	0.0007
485.4422	0.0045
485.6422	0.0022
485.8421	-0.0006
486.042	0.0087
486.242	-0.0003
486.4419	0.0012
486.6417	0.0018
486.8416	0.0062
487.0415	-0.0031
487.2413	-0.002
487.4411	0.002
487.641	0.0031
487.8408	0.0045
488.0405	0.0126
488.2403	-0.0016
488.4401	0.0097
488.6398	0.0036
488.8395	0.0088
489.0392	0.0037
489.2389	0.005
489.4386	-0.007
489.6383	0.009
489.8379	-0.003
490.0376	0.0059
490.2372	0.0093
490.4368	0.0046
490.6364	-0.0126
490.836	0.0091
491.0355	-0.0015
491.2351	0.0056
491.4346	0.0065
491.6341	0.0009
491.8336	0.0071
492.0331	0.0037
492.2326	-0.0006
492.432	-0.006
492.6315	0.0098
492.8309	0.0045
493.0303	-0.001
493.2297	0.0082
493.4291	0.0047
493.6284	0.01
493.8278	0.0008
494.0271	0.0002
494.2264	0.0016
494.4257	0.0049
494.625	0.0016
494.8243	-0.0104
495.0236	0.0058
495.2228	0.0096
495.422	0.006
495.6213	0.0028
495.8205	0.0011
496.0196	0.0015
496.2188	0.0045
496.418	0.0019
496.6171	0.0054
496.8162	0.0084
497.0153	0.0113
497.2144	-0.0019
497.4135	0.0059
497.6126	0.0026
497.8116	-0.0034
498.0107	0.0021
498.2097	0.0059
498.4087	0.0052
498.6077	-0.0008
498.8067	0.0089
499.0056	0.0027
499.2046	0.0132
499.4035	0.0067
499.6024	-0.0005
499.8013	0.0057
500.0002	0.0096
500.199	0.0091
500.3979	-0.0041
500.5967	-0.001
500.7956	0.007
500.9944	0.0031
501.1932	0.0127
501.3919	0.0082
501.5907	0.0021
501.7895	0.0021
501.9882	0.0026
502.1869	0.0078
502.3856	0.0071
502.5843	0.0033
502.783	0.0088
502.9816	0.0058
503.1803	0.005
503.3789	0.0082
503.5775	0.0053
503.7761	-0.0015
503.9747	0.0058
504.1732	-0.0074
504.3718	0.0102
504.5703	-0.0019
504.7689	-0.0063
504.9674	-0.0028
505.1658	0.0097
505.3643	0.0006
505.5628	0.0104
505.7612	0.0062
505.9597	-0.0022
506.1581	0.0079
506.3565	0.0035
506.5549	0.001
506.7532	-0.0061
506.9516	0.0058
507.1499	-0.0004
507.3482	0.0026
507.5465	0.0024
507.7448	0.0042
507.9431	0.005
508.1414	0.0029
508.3396	0.0063
508.5379	0.0035
508.7361	0.0107
508.9343	0.0018
509.1325	0.0059
509.3306	0.0013
509.5288	-0.0083
509.7269	0.0109
509.9251	0.0076
510.1232	0.0085
510.3213	0.0044
510.5193	-0.0022
510.7174	-0.0004
510.9154	0.0058
511.1135	0.0006
511.3115	-0.0002
511.5095	0.003
511.7075	-0.0018
511.9055	0.006
512.1034	0.0086
512.3014	0.0067
512.4993	0.0101
512.6972	0.0021
512.8951	0.0016
513.093	-0.0024
513.2908	0.0131
513.4887	0.0043
513.6865	-0.0032
513.8844	0.0131
514.0822	0.0033
514.2799	-0.0022
514.4777	-0.0025
514.6755	0.0047
514.8732	-0.0007
515.0709	0.004
515.2687	0.0023
515.4664	0.0151
515.664	0.0062
515.8617	0.013
516.0594	0.0018
516.257	0.0076
516.4546	0.016
516.6522	0.0105
516.8498	-0.0047
517.0474	0.0038
517.2449	0.002
517.4425	0.0052
517.64	0.0044
517.8375	0.008
518.035	0.0092
518.2325	-0.0053
518.43	0.0039
518.6274	0.0077
518.8249	0.0003
519.0223	0.0082
519.2197	0.0025
519.4171	-0.0008
519.6145	0.0127
519.8118	-0.0084
520.0092	0.0006
520.2065	0.0109
520.4038	0.0028
520.6011	0.0079
520.7984	0.0049
520.9956	0.0138
521.1929	0.0134
521.3901	0.0091
521.5874	0.0081
521.7846	-0.0054
521.9818	-0.0017
522.1789	0.0014
522.3761	0.017
522.5732	-0.0053
522.7704	-0.0164
522.9675	-0.0037
523.1646	0.0031
523.3617	0.0109
523.5587	0.0009
523.7558	0.0128
523.9528	0.0057
524.1498	0.0069
524.3468	0.0042
524.5438	0.0015
524.7408	-0.0029
524.9378	0.0007
525.1347	0.0043
525.3316	-0.0015
525.5285	0.0065
525.7254	0.0052
525.9223	0.0008
526.1192	0.0078
526.316	0.0134
526.5129	-0.0006
526.7097	-0.0011
526.9065	0.0101
527.1033	0.0009
527.3	0.0033
527.4968	0.0128
527.6935	-0.0043
527.8903	-0.0013
528.087	-0.0011
528.2837	0.0102
528.4804	0.0014
528.677	0.0038
528.8737	0.001
529.0703	0.0092
529.2669	0.0112
529.4635	-0.0071
529.6601	-0.0039
529.8567	-0.0025
530.0532	0.004
530.2498	0.0026
530.4463	-0.0017
530.6428	-0.0002
530.8393	0.0096
531.0358	0.0027
531.2322	-0.0055
531.4287	-0.0029
531.6251	-0.0122
531.8215	-0.0002
532.0179	0.0107
532.2143	0.0048
532.4107	0.0163
532.607	-0.0054
532.8034	0.0033
532.9997	0.0019
533.196	-0.0039
533.3923	0.0081
533.5886	0.0082
533.7848	0.0031
533.9811	0.0043
534.1773	0.0057
534.3735	0.0103
534.5697	0.0026
534.7659	0.0016
534.9621	0.004
535.1582	0.0099
535.3544	0.0075
535.5505	0.0023
535.7466	0.0133
535.9427	0.0063
536.1387	-0.0077
536.3348	0.0106
536.5308	-0.0039
536.7269	-0.0076
536.9229	0.0062
537.1189	0.0122
537.3148	0.0001
537.5108	0.0075
537.7068	0.0144
537.9027	-0.0066
538.0986	0.0141
538.2945	0.0046
538.4904	-0.0074
538.6863	0.0072
538.8821	0.003
539.078	0.0024
539.2738	0.0042
539.4696	0.0016
539.6654	0.0052
539.8611	0.0035
540.0569	-0.0086
540.2526	0.0109
540.4484	-0.0112
540.6441	0.0066
540.8398	0.0016
541.0355	0.0007
541.2311	0.0017
541.4268	0.009
541.6224	0.0129
541.818	0.0005
542.0136	0.0074
542.2092	0.005
542.4048	0.0064
542.6003	-0.005
542.7959	0.0052
542.9914	0.0055
543.1869	0.005
543.3824	0.0077
543.5779	0.0093
543.7734	0.0108
543.9688	0.0032
544.1642	0.0037
544.3596	0.0095
544.555	-0.0059
544.7504	0.017
544.9458	0.009
545.1411	0.0063
545.3365	0.0064
545.5318	-0.0028
545.7271	0.0155
545.9224	-0.0026
546.1177	0.0094
546.3129	-0.0008
546.5081	0.0037
546.7034	-0.003
546.8986	0.0022
547.0938	0.011
547.289	0.0104
547.4841	0.0043
547.6793	0.0047
547.8744	0.0014
548.0695	-0.0025
548.2646	0.0116
548.4597	-0.0041
548.6548	0.0129
548.8498	0.0011
549.0448	-0.0028
549.2399	0.0085
549.4349	0.0069
549.6298	0.0146
549.8248	-0.0003
550.0198	0.0087
550.2147	-0.0034
550.4096	0.0019
550.6045	-0.0053
550.7994	-0.0021
550.9943	0.0071
551.1892	-0.0142
551.384	0.0153
551.5788	0.0041
551.7737	0.0066
551.9685	0.003
552.1632	0.0047
552.358	0.0031
552.5528	0.0085
552.7475	-0.0004
552.9422	0.0091
553.1369	0.0103
553.3316	0.0092
553.5263	0.0002
553.7209	-0.0004
553.9156	0.0135
554.1102	0.0052
554.3048	0.0028
554.4994	-0.001
554.694	0.0075
554.8885	0.0097
555.0831	0.0163
555.2776	0.0042
555.4721	-0.0003
555.6666	0.0069
555.8611	0.0004
556.0555	0.0043
556.25	0.0127
556.4444	0.0058
556.6388	-0.0003
556.8332	-0.0036
557.0276	-0.0025
557.222	-0.0023
557.4163	0.008
557.6107	0.0027
557.805	-0.0062
557.9993	0.0041
558.1936	-0.0095
558.3879	0.0069
558.5821	-0.0033
558.7764	0.007
558.9706	0.0016
559.1648	0.0092
559.359	-0.0031
559.5532	0.0025
559.7473	-0.0008
559.9415	-0.0047
560.1356	0.0181
560.3297	-0.0024
560.5238	0.0061
560.7179	-0.0002
560.9119	-0.0016
561.106	-0.0071
561.3	-0.0019
561.494	-0.007
561.688	-0.0038
561.882	0.0035
562.076	0.0052
562.2699	0.0117
562.4639	0.0123
562.6578	0.012
562.8517	-0.0024
563.0456	0.0018
563.2395	0.0179
563.4333	0.0017
563.6272	-0.0007
563.821	-0.0011
564.0148	0.0015
564.2086	0.003
564.4024	0.007
564.5961	0.0043
564.7899	0.0111
564.9836	-0.0061
565.1773	0.012
565.371	-0.0031
565.5647	0.0063
565.7584	0.0161
565.952	-0.0002
566.1456	0.0009
566.3393	-0.0088
566.5329	0.0007
566.7264	0.0034
566.92	0.0023
567.1136	-0.0021
567.3071	-0.0023
567.5006	0.0084
567.6941	0.0017
567.8876	0.0007
568.0811	0.0185
568.2745	0.0021
568.468	0.0034
568.6614	0.0088
568.8548	0.0042
569.0482	0.009
569.2416	0.0018
569.4349	0.0047
569.6283	0.0059
569.8216	0.007
570.0149	-0.0015
570.2082	0.0073
570.4015	0.0006
570.5947	0.0004
570.788	0.0027
570.9812	0.0005
571.1744	0.0057
571.3676	0.0027
571.5608	0.0036
571.754	0.0081
571.9471	0.012
572.1402	-0.0002
572.3333	0.0062
572.5264	0.0019
572.7195	0.004
572.9126	0.0009
573.1057	0.0054
573.2987	0.0026
573.4917	0.0061
573.6847	0.0018
573.8777	0.0063
574.0707	0.0019
574.2636	0.0039
574.4566	0.003
574.6495	0.0007
574.8424	0.0059
575.0353	0.0033
575.2281	0.0064
575.421	-0.0044
575.6138	-0.0006
575.8067	0.0026
575.9995	0.004
576.1923	0.0032
576.385	0.0031
576.5778	0.0065
576.7706	0.004
576.9633	0.0021
577.156	-0.0024
577.3487	0.0021
577.5414	-0.0002
577.734	0.0015
577.9267	0.0043
578.1193	0.0054
578.3119	-0.0008
578.5045	0.0014
578.6971	0.0028
578.8897	-0.0032
579.0822	0.007
579.2747	-0.0032
579.4673	0.0058
579.6598	0.0056
579.8522	-0.0002
580.0447	0.0019
580.2372	0.0071
580.4296	0.0093
580.622	0.0003
580.8144	0.0053
581.0068	0.0012
581.1992	0.0035
581.3915	0
581.5839	0.0019
581.7762	0.0012
581.9685	0.004
582.1608	0.0028
582.353	0.0018
582.5453	0.0013
582.7375	0.0055
582.9298	-0.004
583.122	0.0018
583.3142	0.0078
583.5063	0.0052
583.6985	-0.0024
583.8906	0.0061
584.0827	0.0015
584.2749	0.0012
584.4669	0.0031
584.659	0.0068
584.8511	0.0083
585.0431	0.0041
585.2352	0.0034
585.4272	0.0054
585.6192	0.0046
585.8111	0.0019
586.0031	-0.0017
586.195	0.0036
586.387	0.0003
586.5789	0.0024
586.7708	0.0091
586.9627	0.0053
587.1545	0.0024
587.3464	0.0006
587.5382	-0.0004
587.73	0.0052
587.9218	-0.0057
588.1136	-0.0009
588.3053	-0.0002
588.4971	0.0045
588.6888	-0.0045
588.8805	-0.003
589.0722	0.0089
589.2639	-0.0024
589.4556	0.0036
589.6472	0.0099
589.8389	-0.0004
590.0305	-0.0028
590.2221	0.0045
590.4137	0.0025
590.6052	0.003
590.7968	0.003
590.9883	0.0053
591.1798	0.0036
591.3713	-0.001
591.5628	-0.0012
591.7543	0.0043
591.9458	-0.0001
592.1372	0.0033
592.3286	0.0013
592.52	0.0024
592.7114	0.0025
592.9028	0.0066
593.0941	-0.0015
593.2855	-0.002
593.4768	0.008
593.6681	0.0063
593.8594	0.0067
594.0506	0.0013
594.2419	0.0016
594.4331	0.0052
594.6244	-0.0008
594.8156	0.0003
595.0067	0.0033
595.1979	0.0006
595.3891	0.0028
595.5802	0.0084
595.7713	-0.0001
595.9624	0.0091
596.1535	0.0028
596.3446	0.0046
596.5357	0.0033
596.7267	-0.0013
596.9177	-0.0024
597.1087	-0.0015
597.2997	0.0008
597.4907	-0.0002
597.6817	0.0059
597.8726	0.0068
598.0635	-0.0012
598.2544	0.0045
598.4453	0.0047
598.6362	0.0039
598.827	-0.0001
599.0179	0.0032
599.2087	0.0033
599.3995	0.0003
599.5903	0.0076
599.7811	0.01
599.9718	-0.0028
600.1626	-0.0029
600.3533	0.0018
600.544	0.0021
600.7347	0.0084
600.9254	0.0038
601.116	0
601.3067	-0.0007
601.4973	0.0074
601.6879	0.0068
601.8785	0.0059
602.0691	0.0007
602.2596	0.0022
602.4502	0.0089
602.6407	0.0077
602.8312	0.0047
603.0217	-0.0014
603.2122	0.0076
603.4027	0.0013
603.5931	-0.0035
603.7835	0.0075
603.9739	-0.0022
604.1643	0.0062
604.3547	0.0067
604.5451	0.0072
604.7354	-0.0046
604.9257	0.0077
605.116	-0.0038
605.3063	0.0026
605.4966	0.0063
605.6869	0.0073
605.8771	0.0057
606.0673	0.0061
606.2575	-0.0069
606.4477	0.0093
606.6379	-0.0032
606.8281	0.0002
607.0182	0.004
607.2083	0.0018
607.3985	0.0049
607.5885	0.0039
607.7786	-0.0015
607.9687	0.0081
608.1587	0.0089
608.3488	0.0055
608.5388	-0.0085
608.7288	-0.0017
608.9187	0.0012
609.1087	0.0072
609.2986	0.0083
609.4886	-0.0052
609.6785	0.003
609.8684	0.0044
610.0582	-0.0023
610.2481	-0.0024
610.4379	0.0036
610.6278	-0.0046
610.8176	0.0097
611.0074	0.001
611.1971	-0.0045
611.3869	0.003
611.5766	-0.0001
611.7664	0.01
611.9561	-0.0012
612.1458	0.0049
612.3354	0.0037
612.5251	0.0045
612.7147	0.0043
612.9044	-0.0002
613.094	0.0014
613.2836	-0.0018
613.4731	-0.0019
613.6627	0.0073
613.8522	0.0055
614.0417	0.004
614.2313	0.0018
614.4207	0.0088
614.6102	0.0037
614.7997	0.011
614.9891	0.0081
615.1785	-0.0015
615.3679	0.0058
615.5573	0.004
615.7467	-0.0024
615.9361	-0.003
616.1254	0.0032
616.3147	-0.0039
616.504	-0.0011
616.6933	-0.0056
616.8826	0.0018
617.0718	0.0018
617.2611	-0.0028
617.4503	0.0002
617.6395	-0.0027
617.8287	0.0104
618.0179	-0.0033
618.207	0.0076
618.3961	-0.0137
618.5853	0.0041
618.7744	0.0079
618.9634	0.0066
619.1525	0.005
619.3416	0.0006
619.5306	0.0074
619.7196	0.008
619.9086	-0.0021
620.0976	-0.0025
620.2866	0.0097
620.4755	-0.0008
620.6645	0.0047
620.8534	0.0046
621.0423	-0.0023
621.2312	0.009
621.42	0.0001
621.6089	0.0063
621.7977	0.0015
621.9865	0.0031
622.1753	-0.0016
622.3641	-0.0024
622.5529	0.0027
622.7416	-0.0039
622.9303	0.0039
623.1191	0.0018
623.3078	0.0041
623.4964	0.0021
623.6851	0.0023
623.8737	-0.0053
624.0624	-0.0059
624.251	0.0066
624.4396	-0.0025
624.6282	0.0005
624.8167	0.0017
625.0053	0.0179
625.1938	0.0024
625.3823	0.0123
625.5708	0
625.7593	0.0069
625.9477	0.0048
626.1362	0.0052
626.3246	0.0012
626.513	0.003
626.7014	0.0087
626.8898	0.0155
627.0781	0
627.2665	0.0053
627.4548	0.0027
627.6431	0.0132
627.8314	0.012
628.0197	0.0137
628.2079	-0.0091
628.3962	0.0015
628.5844	0.0057
628.7726	-0.0009
628.9608	0.0046
629.1489	0.0069
629.3371	-0.0037
629.5252	0.0021
629.7134	-0.0025
629.9015	0.0039
630.0895	-0.0229
630.2776	0.0014
630.4657	0.0139
630.6537	0.0056
630.8417	0.0022
631.0297	0.0051
631.2177	-0.0136
631.4057	0.019
631.5936	-0.005
631.7815	0.007
631.9695	0.0227
632.1574	0.0039
632.3452	0.0005
632.5331	0.0126
632.7209	0.0128
632.9088	0.0085
633.0966	0.0135
633.2844	0.0074
633.4722	0.014
633.6599	0.011
633.8477	0.0088
634.0354	0.013
634.2231	-0.0089
634.4108	-0.0048
634.5985	0.0118
634.7861	0.0044
634.9738	0.0064
635.1614	-0.0027
635.349	-0.0148
635.5366	0.003
635.7242	0.0021
635.9117	0.0081
636.0993	0.0044
636.2868	0.0002
636.4743	0.0067
636.6618	-0.0125
636.8492	0.0199
637.0367	-0.0099
637.2241	0.0001
637.4115	0.0208
637.5989	-0.0017
637.7863	0.0272
637.9737	0.0026
638.161	0.003
638.3484	-0.011
638.5357	-0.0036
638.723	0.0106
638.9103	-0.0116
639.0975	-0.0021
639.2848	0.0073
639.472	0.0118
639.6592	-0.0182
639.8464	-0.0089
640.0336	0.001
640.2208	0.0038
640.4079	-0.0027
640.595	-0.0146
640.7821	0.0172
640.9692	0.0013
641.1563	0.0027
641.3434	0.0148
641.5304	0.0322
641.7174	-0.0012
641.9044	0.0112
642.0914	0.0402
642.2784	-0.0002
642.4653	-0.016
642.6523	0.0071
642.8392	-0.0102
643.0261	0.0186
643.213	0.0087
643.3999	0.0104
643.5867	0.0102
643.7735	-0.0071
643.9604	0.0218
644.1472	0.0044
644.3339	0.0026
644.5207	-0.008
644.7075	-0.0138
644.8942	0.0001
645.0809	-0.003
645.2676	-0.0084
645.4543	0.0049
645.6409	0.0133
645.8276	0.0114
646.0142	-0.0129
646.2008	-0.0086
646.3874	-0.007
646.574	0.007
646.7605	0.0253
646.9471	0.0048
647.1336	-0.0106
647.3201	-0.0101
647.5066	0.0047
647.6931	0.0056
647.8795	0.0008
648.0659	0.0068
648.2524	0.0061
648.4388	0.0136
648.6252	0.0227
648.8115	0.0029
648.9979	0.0158
649.1842	0.0229
649.3705	0.0058
649.5568	-0.0137
649.7431	-0.0038
649.9294	-0.0008
650.1156	-0.0119
650.3018	0.0057
650.488	0.0175
650.6742	0.0165
650.8604	-0.0029
651.0466	-0.0024
651.2327	0.0084
651.4188	0.0069
651.6049	0.0182
651.791	0.0151
651.9771	0.0082
652.1632	0.0079
652.3492	0.0078
652.5352	0.0138
652.7212	0.0026
652.9072	0.0102
653.0932	0.017
653.2791	0.0117
653.465	0.0053
653.651	0.0017
653.8369	0.0084
654.0227	-0.0088
654.2086	0.0168
654.3944	0.018
654.5803	-0.0037
654.7661	-0.0052
654.9519	-0.0029
655.1377	0
655.3234	0
655.5092	0
655.6949	0
655.8806	0
656.0663	0
656.2519	0
656.4376	0
656.6232	0
656.8088	0
656.9945	0
657.18	0
657.3656	0
657.5511	0
657.7367	0
657.9222	0
658.1077	0
658.2932	0
658.4786	0
658.6641	0
658.8495	0
659.0349	0
659.2203	0
659.4057	0
659.591	0.0954
659.7764	0.0229
659.9617	0.0071
660.147	0.0108
660.3323	0.0124
660.5176	0.0025
660.7028	-0.0123
660.888	0.0095
661.0733	0.0093
661.2585	-0.0036
661.4436	0.0102
661.6288	0.0149
661.8139	-0.02
661.9991	-0.017
662.1842	-0.0098
662.3693	0.0062
662.5544	0.0138
662.7394	0.0167
662.9245	0.0067
663.1095	-0.0163
663.2945	-0.0113
663.4795	-0.0178
663.6644	-0.0109
663.8494	0.0072
664.0343	0.013
664.2193	-0.0069
664.4042	0.0021
664.589	-0.0041
664.7739	0.0112
664.9587	-0.0078
665.1436	0.013
665.3284	-0.0088
665.5132	-0.0109
665.698	0.0023
665.8827	0.0155
666.0675	-0.0256
666.2522	0.0057
666.4369	0.0017
666.6216	0.0241
666.8063	0.0018
666.9909	0.0052
667.1756	-0.0299
667.3602	-0.0005
667.5448	-0.007
667.7294	0.0131
667.9139	-0.0125
668.0985	0.0042
668.283	0.0112
668.4675	0.0218
668.652	0.0212
668.8365	-0.0094
669.0209	0.0291
669.2054	0.0216
669.3898	0.0149
669.5742	0.0091
669.7586	0.004
669.943	-0.0198
670.1273	0.002
670.3117	0.0078
670.496	0.0014
670.6803	0.023
670.8646	-0.0198
671.0488	0.0287
671.2331	-0.0306
671.4173	0.0042
671.6015	-0.0017
671.7857	0.0052
671.9699	0.0043
672.1541	-0.0018
672.3382	-0.007
672.5223	0.0047
672.7064	-0.0041
672.8905	-0.0147
673.0746	0.0134
673.2587	0.0285
673.4427	0.0126
673.6267	0.0182
673.8107	0.0246
673.9947	-0.001
674.1787	0.0078
674.3626	0.0036
674.5465	0.0033
674.7304	-0.0211
674.9143	0.0027
675.0982	0.0145
675.2821	0.0278
675.4659	-0.03
675.6497	0.0048
675.8335	-0.0023
676.0173	0.0041
676.2011	0.0221
676.3849	0.0036
676.5686	0.021
676.7523	-0.0055
676.936	0.0025
677.1197	-0.0089
677.3034	0.0145
677.487	-0.0015
677.6706	0.0097
677.8542	-0.0141
678.0378	-0.0016
678.2214	0.0033
678.405	0.0122
678.5885	0.0166
678.772	0.0042
678.9555	0.0038
679.139	0.0156
679.3225	-0.0098
679.5059	-0.0015
679.6894	0.0022
679.8728	-0.0084
680.0562	0.0028
680.2395	-0.003
680.4229	0.0036
680.6062	0.0031
680.7896	0.0025
680.9729	0.0315
681.1562	-0.0227
681.3394	-0.0069
681.5227	-0.0078
681.7059	0.0201
681.8891	-0.0068
682.0723	0.0154
682.2555	0.0089
682.4387	0.0209
682.6218	0.01
682.805	0.0117
682.9881	0.0134
683.1712	0.0034
683.3542	0.0207
683.5373	-0.0084
683.7203	0.0088
683.9034	-0.0074
684.0864	-0.0073
684.2694	0.0022
684.4523	0.0079
684.6353	-0.0038
684.8182	0.0019
685.0011	0.0088
685.184	-0.018
685.3669	0.0115
685.5498	-0.0167
685.7326	-0.0113
685.9154	-0.0043
686.0982	0.0361
686.281	-0.0124
686.4638	0.0115
686.6465	-0.0026
686.8293	-0.0141
687.012	0.0143
687.1947	-0.0072
687.3774	0.0031
687.56	0.0023
687.7427	-0.0038
687.9253	-0.0159
688.1079	-0.0109
688.2905	0.0071
688.4731	-0.0039
688.6556	-0.0093
688.8382	-0.0287
689.0207	0.0141
689.2032	0.0247
689.3857	0.0067
689.5681	0.0043
689.7506	0.031
689.933	0.0142
690.1154	0.0169
690.2978	-0.0168
690.4802	0.0159
690.6626	-0.0031
690.8449	0.0081
691.0272	0.0043
691.2095	-0.0177
691.3918	0.0129
691.5741	0.0107
691.7563	0.01
691.9386	0.0159
692.1208	0.0085
692.303	-0.0145
692.4852	-0.0063
692.6673	-0.0029
692.8495	-0.0218
693.0316	0.0083
693.2137	0.0088
693.3958	0.0066
693.5778	-0.0129
693.7599	-0.0028
693.9419	-0.0085
694.1239	-0.0019
694.3059	0.0439
694.4879	-0.0039
694.6699	-0.003
694.8518	0.0052
695.0337	0.0088
695.2157	0.0222
695.3975	-0.0115
695.5794	0.0285
695.7613	-0.0042
695.9431	0.0001
696.1249	0.0077
696.3067	-0.0059
696.4885	0.0016
696.6703	-0.0003
696.852	0.0008
697.0337	0.0097
697.2154	-0.0032
697.3971	0.0029
697.5788	0.0059
697.7605	-0.0183
697.9421	0.006
698.1237	0.0026
698.3053	-0.0041
698.4869	0.0205
698.6685	-0.0134
698.85	0.0062
699.0315	0.0026
699.213	0.0214
699.3945	-0.0096
699.576	0.0018
699.7575	0.0302
699.9389	0.0033
700.1203	0.0218
700.3017	-0.0049
700.4831	-0.0044
700.6645	0.0197
700.8458	0.0073
701.0271	0.0125
701.2084	-0.0018
701.3897	0.0138
701.571	-0.0245
701.7523	0.0053
701.9335	0.0243
702.1147	0.0321
702.2959	0.0084
702.4771	0.0037
702.6583	0.0068
702.8394	-0.0277
703.0205	0.0231
703.2016	-0.0186
703.3827	-0.0143
703.5638	0.0116
703.7449	0.012
703.9259	0.0148
704.1069	0.0014
704.2879	-0.0022
704.4689	-0.0124
704.6499	0.0367
704.8308	0.0211
705.0117	0.0184
705.1927	0.0137
705.3735	0.0055
705.5544	-0.0096
705.7353	0.0048
705.9161	-0.0388
706.0969	-0.0059
706.2777	0.003
706.4585	0.01
706.6393	0.0058
706.82	0.0032
707.0007	0.0042
707.1815	-0.0084
707.3621	0.0182
707.5428	0.0216
707.7235	-0.0031
707.9041	-0.0012
708.0847	0.0101
708.2653	0.0228
708.4459	-0.0035
708.6265	0.0018
708.807	-0.0016
708.9875	0.0056
709.168	-0.0065
709.3485	0.0022
709.529	0.008
709.7095	-0.0097
709.8899	-0.0194
710.0703	0.0127
710.2507	-0.0088
710.4311	-0.0289
710.6115	0.0187
710.7918	0.0077
710.9721	0.0005
711.1524	0.0035
711.3327	0.0001
711.513	-0.0182
711.6932	-0.0272
711.8735	0.0205
712.0537	-0.0031
712.2339	0.0199
712.4141	0.0483
712.5942	-0.0107
712.7744	0.0302
712.9545	0.0278
713.1346	0.0147
713.3147	0.0232
713.4947	-0.0113
713.6748	0.01
713.8548	0.0342
714.0348	0.0128
714.2148	0.0111
714.3948	0.012
714.5748	0.0246
714.7547	0.0049
714.9346	0.0156
715.1145	0.0004
715.2944	-0.0101
715.4743	0.0231
715.6541	-0.0105
715.834	0.0571
716.0138	0.0307
716.1936	-0.0124
716.3733	-0.0023
716.5531	-0.0151
716.7328	0.0165
716.9126	0.0223
717.0923	-0.0136
717.2719	0.0033
717.4516	0.0118
717.6312	-0.0271
717.8109	0.0026
717.9905	0.026
718.1701	0.0049
718.3496	-0.0053
718.5292	-0.0103
718.7087	0.0012
718.8882	0.0198
719.0677	0.0112
719.2472	0.0089
719.4267	-0.0076
719.6061	0.0075
719.7856	0.0204
719.965	0.0052
720.1443	0.0088
720.3237	-0.005
720.5031	-0.0178
720.6824	0.0093
720.8617	-0.015
721.041	0.0058
721.2203	-0.0067
721.3995	0.0145
721.5788	-0.0053
721.758	0.0064
721.9372	-0.0039
722.1164	-0.0037
722.2956	-0.0263
722.4747	0.023
722.6538	0.0024
722.8329	0.0304
723.012	-0.0011
723.1911	0.0354
723.3702	0.0151
723.5492	0.0159
723.7282	0.0137
723.9072	-0.0074
724.0862	0.0037
724.2652	0.0212
724.4441	-0.0051
724.623	0.0073
724.8019	-0.0045
724.9808	0.0186
725.1597	0.0056
725.3385	0.0086
725.5174	0.0059
725.6962	0.0053
725.875	0.0088
726.0538	0.0265
726.2325	0.024
726.4112	-0.0065
726.59	0.0036
726.7687	-0.0204
726.9474	0.0038
727.126	0.0267
727.3047	-0.0303
727.4833	0.01
727.6619	-0.0161
727.8405	-0.006
728.0191	0.0239
728.1976	-0.002
728.3762	0.0185
728.5547	0.0157
728.7332	0.0043
728.9116	0.0213
729.0901	-0.008
729.2686	-0.012
729.447	-0.0164
729.6254	0.0014
729.8038	-0.0061
729.9821	-0.0012
730.1605	0.0113
730.3388	0.0088
730.5171	0.0228
730.6954	-0.0174
730.8737	0.001
731.0519	-0.003
731.2302	0.0196
731.4084	0.0068
731.5866	-0.0019
731.7648	0.007
731.9429	0.0113
732.1211	0.0046
732.2992	-0.0042
732.4773	0.0075
732.6554	-0.0002
732.8335	0.0178
733.0115	0.0046
733.1896	-0.0047
733.3676	0.0041
733.5456	0.0053
733.7235	-0.0013
733.9015	-0.0047
734.0794	0.0072
734.2574	-0.0242
734.4353	0.0099
734.6131	0.0026
734.791	0.0208
734.9689	-0.0047
735.1467	-0.0111
735.3245	0.002
735.5023	0.0072
735.68	0.0023
735.8578	0.0069
736.0355	0.0122
736.2132	0.0014
736.3909	0.0057
736.5686	0.0086
736.7463	-0.006
736.9239	0.0062
737.1015	-0.0058
737.2791	0.0236
737.4567	0.0126
737.6343	-0.0017
737.8118	0.0338
737.9894	-0.0016
738.1669	-0.012
738.3444	0.0347
738.5218	-0.0223
738.6993	0.0162
738.8767	-0.0002
739.0541	-0.0086
739.2315	-0.0124
739.4089	0.0219
739.5863	0.0136
739.7636	0.0018
739.9409	0.003
740.1182	0.0055
740.2955	0.0303
740.4728	0.0041
740.65	-0.0127
740.8272	0.0131
741.0044	0.0141
741.1816	0.0411
741.3588	-0.0105
741.5359	-0.027
741.7131	-0.0056
741.8902	0.0106
742.0673	-0.029
742.2444	0.025
742.4214	-0.001
742.5985	-0.0126
742.7755	-0.0135
742.9525	-0.0003
743.1295	-0.0195
743.3064	-0.0244
743.4834	0.0072
743.6603	0.0612
743.8372	-0.0503
744.0141	0.0482
744.191	-0.0336
744.3678	-0.0264
744.5446	0.0088
744.7215	-0.0069
744.8982	0.0199
745.075	0.0513
745.2518	-0.011
745.4285	0.0101
745.6052	-0.0023
745.7819	0.0182
745.9586	0.0011
746.1353	-0.0074
746.3119	0.0035
746.4885	0.0143
746.6651	0.025
746.8417	0.0091
747.0183	0.0396
747.1948	-0.0114
747.3714	0.0323
747.5479	-0.0123
747.7244	0.0002
747.9008	-0.031
748.0773	0.0321
748.2537	0.0182
748.4301	0.035
748.6065	0.002
748.7829	-0.0158
748.9593	-0.0119
749.1356	-0.006
749.3119	-0.005
749.4882	0.0025
749.6645	0.0001
749.8408	0.0184
750.017	-0.008
750.1933	-0.0249
750.3695	0.01
750.5457	-0.0337
750.7218	-0.0046
750.898	0.0008
751.0741	-0.0037
751.2502	0.0032
751.4263	0.0039
751.6024	0.0066
751.7784	-0.0214
751.9545	0.0016
752.1305	-0.0003
752.3065	-0.003
752.4825	-0.0082
752.6584	0.0088
752.8344	-0.0079
753.0103	-0.0234
753.1862	0.0071
753.3621	0.0131
753.5379	-0.0075
753.7138	-0.0089
753.8896	0.018
754.0654	-0.0002
754.2412	0.0188
754.417	0.0035
754.5927	-0.01
754.7685	0.0042
754.9442	-0.0098
755.1199	0.0143
755.2956	0.0088
755.4712	-0.0055
755.6469	0.0088
755.8225	0.0043
755.9981	0.0021
756.1736	0.009
756.3492	-0.0043
756.5248	0.0097
756.7003	-0.0023
756.8758	-0.0023
757.0513	-0.0097
757.2267	0.0114
757.4022	-0.0195
757.5776	0.0134
757.753	0.0127
757.9284	0.0111
758.1038	0.0186
758.2791	0.0202
758.4545	-0.0294
758.6298	0.002
758.8051	-0.0093
758.9803	0.0041
759.1556	-0.0074
759.3308	0.0058
759.506	0.0016
759.6812	0.0081
759.8564	-0.0024
760.0316	-0.0022
760.2067	0.0153
760.3819	0.0113
760.557	-0.0136
760.732	0.0014
760.9071	0.0217
761.0821	-0.0296
761.2572	0.0082
761.4322	0.0288
761.6072	-0.0175
761.7821	-0.033
761.9571	-0.0027
762.132	0.0055
762.3069	0.0001
762.4818	0.0216
762.6567	0.0082
762.8316	0.0085
763.0064	0.0051
763.1812	0.0137
763.356	0.0005
763.5308	0.0101
763.7055	-0.0146
763.8803	0.0164
764.055	-0.004
764.2297	-0.0152
764.4044	0.0001
764.579	-0.0061
764.7537	0.0096
764.9283	0.0201
765.1029	0.0204
765.2775	0.0066
765.4521	0.0069
765.6266	0.0061
765.8011	0.0163
765.9756	0.0081
766.1501	-0.0188
766.3246	0.0149
766.4991	0.0035
766.6735	0.0405
766.8479	-0.015
767.0223	-0.0143
767.1967	0.0093
767.371	-0.0234
767.5454	0.0378
767.7197	0.0132
767.894	-0.0141
768.0683	0.0151
768.2425	0.0086
768.4168	0.0041
768.591	0.0061
768.7652	0.01
768.9394	-0.0337
769.1135	0.0054
769.2877	0.0111
769.4618	0.0083
769.6359	0.0073
769.81	-0.0027
769.984	-0.0073
770.1581	0.0069
770.3321	0.0119
770.5061	0.0095
770.6801	0.0068
770.8541	-0.0023
771.028	0.0173
771.202	0.0402
771.3759	-0.0018
771.5498	-0.0065
771.7236	-0.0105
771.8975	0.0145
772.0713	0.0169
772.2451	-0.0119
772.4189	0.0135
772.5927	-0.0424
772.7665	-0.0053
772.9402	-0.003
773.1139	-0.008
773.2876	-0.0123
773.4613	-0.0054
773.635	0.0375
773.8086	0.0287
773.9822	-0.0163
774.1558	-0.0021
774.3294	0.0247
774.503	0.0555
774.6765	0.0568
774.8501	-0.0032
775.0236	0.0263
775.1971	0.0134
775.3705	-0.0097
775.544	-0.011
775.7174	0.0161
775.8908	-0.0357
776.0642	-0.003
776.2376	0.0377
776.4109	0.0689
776.5843	-0.0261
776.7576	0.0158
776.9309	0.0488
777.1041	-0.0314
777.2774	0.0267
777.4506	0.0589
777.6238	0.0359
777.797	0.0316
777.9702	0.0421
778.1434	0.0134
778.3165	-0.0296
778.4896	-0.0396
778.6627	0.0189
778.8358	-0.0101
779.0089	0.0075
779.1819	0.0018
779.3549	-0.0061
779.5279	0.0061
779.7009	0.019
779.8739	0.0373
780.0468	-0.0198
780.2197	0.0378
780.3926	-0.014
780.5655	0.0201
780.7384	0.0085
780.9112	0.0378
781.0841	0.022
781.2569	0.0348
781.4297	-0.0039
781.6024	0.0318
781.7752	0.0438
781.9479	0.0393
782.1206	0.0044
782.2933	0.0123
782.466	0.0159
782.6386	-0.0227
782.8113	0.0132
782.9839	0.002
783.1565	0.0035
783.329	-0.0224
783.5016	-0.006
783.6741	-0.0101
783.8466	0.0424
784.0191	0.0329
784.1916	-0.0106
784.3641	-0.0587
784.5365	-0.002
784.7089	0.0138
784.8813	0.062
785.0537	-0.0099
785.2261	-0.0136
785.3984	0.0114
785.5707	0.004
785.743	0.034
785.9153	-0.0157
786.0876	-0.0306
786.2598	-0.0123
786.432	0.0002
786.6042	0.0214
786.7764	-0.0053
786.9486	-0.0039
787.1207	0.0134
787.2928	0.0621
787.4649	-0.0358
787.637	0.0085
787.8091	0.0145
787.9811	0.0382
788.1532	0.006
788.3252	0.0025
788.4972	0.0108
788.6691	0.0073
788.8411	-0.0028
789.013	0.0592
789.1849	0.0176
789.3568	-0.019
789.5287	0.0365
789.7005	-0.0155
789.8723	0.0156
790.0442	0.0094
790.2159	-0.0169
790.3877	0.0288
790.5595	0.0227
790.7312	-0.0027
790.9029	0.0107
791.0746	0.042
791.2463	-0.0054
791.4179	-0.008
791.5896	0.0123
791.7612	0.0054
791.9328	0.0169
792.1044	0.0131
792.2759	-0.0376
792.4474	-0.0256
792.619	-0.0086
792.7905	0.0119
792.9619	0.0162
793.1334	0.0237
793.3048	-0.008
793.4762	0.0263
793.6476	-0.0153
793.819	-0.0174
793.9904	-0.0375
794.1617	-0.0344
794.333	0.0113
794.5043	0.0468
794.6756	-0.0044
794.8469	0.0312
795.0181	-0.0116
795.1893	0.0135
795.3605	0.0438
795.5317	0.0206
795.7029	0.021
795.874	-0.0071
796.0452	-0.0077
796.2163	0.0905
796.3873	0.0632
796.5584	0.0498
796.7294	-0.038
796.9005	0.0308
797.0715	-0.0314
797.2425	0.0408
797.4134	0.0439
797.5844	-0.0045
797.7553	-0.0542
797.9262	0.0439
798.0971	0.036
798.2679	-0.0356
798.4388	0.0176
798.6096	0.0129
798.7804	0.0242
798.9512	0.0027
799.122	-0.0365
799.2927	0.0563
799.4635	-0.0781
799.6342	-0.001
799.8049	0.0366
799.9755	-0.0457
800.1462	0.0129
800.3168	0.0304
800.4874	-0.0633
800.658	0.0365
800.8286	0.0083
800.9991	-0.0057
801.1696	-0.0681
801.3402	0.0007
801.5106	-0.0097
801.6811	0.0114
801.8516	0.0624
802.022	-0.0178
802.1924	0.0243
802.3628	-0.0315
802.5332	0.0635
802.7035	0.0918
802.8739	-0.0032
803.0442	-0.0012
803.2145	0.0852
803.3847	-0.0026
803.555	0.1738
803.7252	0.0475
803.8954	-0.0592
804.0656	-0.0301
804.2358	0.0508
804.4059	0.0021
804.5761	0.0839
804.7462	-0.0197
804.9163	0.117
805.0864	-0.0297
805.2564	-0.0426
805.4264	-0.0282
805.5965	0.0496
805.7665	-0.0538
805.9364	0.0164
806.1064	-0.0398
806.2763	-0.0072
806.4462	0.0003
806.6161	-0.0049
806.786	0.0304
806.9559	-0.0112
807.1257	0.0054
807.2955	-0.0151
807.4653	0.0262
807.6351	0.072
807.8048	0.0286
807.9746	0.0234
808.1443	-0.0469
808.314	0.0525
808.4837	0.0328
808.6533	-0.091
808.8229	0.1121
808.9926	0.054
809.1622	-0.0019
809.3317	-0.042
809.5013	-0.0226
809.6708	0.0022
809.8403	-0.0367
810.0098	0.0024
810.1793	0.0028
810.3488	-0.0126
810.5182	0.0969
810.6876	0.0476
810.857	-0.0037
811.0264	-0.0732
811.1958	0.0847
811.3651	0.0055
811.5344	0.0238
811.7037	-0.0219
811.873	0.0465
812.0422	-0.1274
812.2115	-0.035
812.3807	-0.1801
812.5499	-0.0574
812.7191	-0.1771
812.8882	-0.0052
813.0574	0.0686
813.2265	-0.0178
813.3956	-0.0504
813.5646	0.0462
813.7337	-0.0255
813.9027	-0.0174
814.0718	0.0326
814.2407	0.1813
814.4097	0.0676
814.5787	0.0591
814.7476	0.075
814.9165	0.0385
815.0854	0.0726
815.2543	-0.0309
815.4232	0.1303
815.592	0.1323
815.7608	-0.189
815.9296	-0.0734
816.0984	0.0228
816.2671	-0.1192
816.4359	0.0379
816.6046	-0.0719
816.7733	-0.083
816.942	-0.0472
817.1106	0.084
817.2793	-0.115
817.4479	0.0923
817.6165	0.0316
817.785	-0.0422
817.9536	-0.082
818.1221	-0.0292
818.2906	-0.0466
818.4591	-0.0037
818.6276	0.0473
818.7961	-0.0115
818.9645	-0.0287
819.1329	0.0456
819.3013	-0.0667
819.4697	-0.009
819.638	-0.0118
819.8064	0.2758
819.9747	-0.0877
820.143	-0.0717
820.3113	0.1278
820.4795	-0.0831
820.6477	0.1104
820.816	0.0434
820.9842	0.0958
821.1523	-0.0814
821.3205	0.0172
821.4886	-0.0135
821.6567	-0.0405
821.8248	0.0666
821.9929	-0.1626
822.1609	0.0045
822.329	0.058
822.497	0.119
822.665	-0.0564
822.833	0.0285
823.0009	-0.0518
823.1688	0.0232
823.3367	-0.1701
823.5046	0.1193
823.6725	-0.0685
823.8404	0.0636
824.0082	-0.1046
824.176	0.0171
824.3438	-0.0088
824.5116	-0.0178
824.6793	0.0439
824.847	0.2468
825.0147	0.0796
825.1824	0.2293
825.3501	0.0223
825.5177	-0.0023
825.6854	-0.0722
825.853	0.0012
826.0206	-0.0562
826.1881	0.1842
826.3557	-0.0024
826.5232	0.1256
826.6907	-0.0288
826.8582	-0.0195
827.0257	0.3572
827.1931	0.2518
827.3605	0.0999
827.528	-0.096
827.6953	-0.2019
827.8627	-0.0527
828.03	-0.0042
828.1974	-0.0154
828.3647	0.0943
828.532	0.0075
828.6992	0.0886
828.8665	-0.2159
829.0337	0.1074
829.2009	0.0053
829.3681	0.0891
829.5352	-0.0954
829.7024	0.0148
829.8695	0.0495
830.0366	0.3163
830.2037	0.023
830.3707	-0.0082
830.5378	0.0676
830.7048	-0.239
830.8718	0.0058
831.0388	0.0181
831.2057	-0.1308
831.3727	-0.3756
831.5396	0.2341
831.7065	-0.3034
831.8734	-0.1919
832.0402	0.1721
832.2071	-0.562
832.3739	-0.2121
832.5407	-1.8388
832.7075	-0.33
832.8742	-0
833.041	-0.0871
833.2077	0.3075
833.3744	-0.0414
833.541	-0.051
833.7077	-0.1081
833.8743	0.2007
834.0409	0.1552
834.2075	0.0443
834.3741	-0.0984
834.5407	1.2015
834.7072	0.1259
834.8737	0.4619
835.0402	0.217
835.2067	-0.1088
835.3731	0.0786
835.5395	0.1246
835.706	-0.1985
835.8723	0.4645
836.0387	0.3764
836.2051	0.1136
836.3714	0.077
836.5377	0.0447
836.704	0.0249
836.8703	0.1243
837.0365	-0.9072
837.2027	-0
837.3689	0.0445
837.5351	-0.1685
837.7013	-0.0788
837.8674	-0.3515
838.0335	-0.079
838.1997	-0.0806
838.3657	-0
838.5318	-0.4713
838.6978	0.2487
838.8639	-0.3865
839.0299	-0.1934
839.1958	-0.0381
839.3618	0.0776
839.5277	-0.046
839.6937	0.0251
839.8596	-0.2383
840.0254	-0.1463
840.1913	-0.0285
840.3571	0.0033
840.523	-0
840.6888	0.0834
840.8545	-0.5625
841.0203	0.2657
841.186	-0.142
841.3517	-0.2308
841.5174	0.2158
841.6831	0.2407
841.8488	0.0201
842.0144	0.1145
842.18	-0
842.3456	-0.2066
842.5112	-0.987
842.6767	0.1776
842.8422	-0.1548
843.0077	0.1574
843.1732	-0.3789
843.3387	0.7171
843.5042	-0.1141
843.6696	-0.0246
843.835	-0.4019
844.0004	-0.2112
844.1657	-0
844.3311	-0.5417
844.4964	-0.5174
844.6617	0.2944
844.827	-0
844.9923	0.1723
845.1575	-0.1819
845.3227	-0.1877
845.4879	0.3025
845.6531	-0.1167
845.8183	0.0218
845.9834	-0
846.1485	0.1009
846.3136	0.1396
846.4787	-0
846.6438	-0.3211
846.8088	0.779
846.9738	-0.3495
847.1388	0.1687
847.3038	0.3541
847.4687	0.6302
847.6337	-0.7833
847.7986	-0.2489
847.9635	-0.1013
848.1284	-0
848.2932	0.5911
848.458	-0
848.6228	-0
848.7876	-0
848.9524	-0.5321
849.1172	-1.8599
849.2819	-0
849.4466	-0
849.6113	0.1819
849.7759	-0
849.9406	0.1308
850.1052	-0.8516
850.2698	-0
850.4344	0.2515
850.599	-0.405
850.7635	-0.0538
850.928	-0.2332
851.0925	0.0691
851.257	0.0776
851.4215	-0.1084
851.5859	-0.0502
851.7503	-0
851.9147	0.1531
852.0791	-0.2883
852.2434	0.0507
852.4078	0.614
852.5721	0.2752
852.7364	-0.1464
852.9007	0.2146
853.0649	-0
853.2291	-0.0741
853.3934	-0
853.5575	-0.2838
853.7217	0.879
853.8859	-0.3601
854.05	-0.456
854.2141	0.228
854.3782	-0.228
854.5423	-0
854.7063	-0.1463
854.8703	0.3412
855.0343	-0.0971
855.1983	1.0401
855.3623	0.4061
855.5262	-0
855.6901	0.8441
855.854	0.262
856.0179	0.3525
856.1818	-0
856.3456	0.3016
856.5094	-0.6257
856.6732	-0.4846
856.837	-1.3605
857.0008	0.3053
857.1645	-0
857.3282	-0.1206
857.4919	-0.1908
857.6556	0.0342
857.8192	-0.2302
857.9828	-0.2007
858.1465	-0
858.31	-0
858.4736	-0.6877
858.6372	-0.278
858.8007	0.0878
858.9642	0.2325
859.1277	0.4883
859.2911	-0.4012
859.4546	-0
859.618	0.3626
859.7814	-0.3816
859.9448	0.1685
860.1081	-0
860.2715	-0
860.4348	0.0454
860.5981	0.7644
860.7614	-0.5722
860.9246	-0.2392
861.0879	0.2017
861.2511	-0.6041
861.4143	-0.2553
861.5774	0.2684
861.7406	1.9362
861.9037	-0
862.0668	-0.7898
862.2299	-0
862.393	-0
862.556	0.0127
862.7191	-0.1347
862.8821	0.3014
863.0451	0.124
863.208	0.1337
863.371	-0.649
863.5339	0.1536
863.6968	0.281
863.8597	-0
864.0225	0.2624
864.1854	-0.4894
864.3482	-0.554
864.511	-0.0076
864.6737	-0
864.8365	-0
864.9992	-0
865.1619	0.3323
865.3246	-1.8235
865.4873	-0.0863
865.65	-0
865.8126	-0
865.9752	-0.2032
866.1378	0.0464
866.3004	-0.0524
866.4629	-1.8495
866.6254	0.0977
866.7879	-0.0338
866.9504	-0.3393
867.1129	0.4437
867.2753	-0.0484
867.4377	-0.01
867.6001	-0.6031
867.7625	0.1953
867.9249	-0.0309
868.0872	0.2728
868.2495	-0
868.4118	-0
868.5741	-0
868.7363	-0
868.8986	0.0958
869.0608	-0.4415
869.223	-0.5681
869.3851	-0
869.5473	0.0389
869.7094	-0
869.8715	0.0424
870.0336	-0.1088
870.1957	-0.7156
870.3577	-0
870.5197	-0.318
870.6817	-0.8275
870.8437	-0.0604
871.0057	0.958
871.1676	-0.058
871.3295	-0
871.4914	-0
871.6533	-0
871.8151	0.358
871.977	-0.3666
872.1388	-0.1435
872.3006	-0.4474
872.4623	-0.7527
872.6241	-0
872.7858	0.0832
872.9475	-0
873.1092	-0.0171
873.2709	0.6341
873.4325	-0
873.5941	-0.0259
873.7557	-0
873.9173	-0
874.0789	0.2085
874.2404	-0
874.4019	1.4005
874.5634	-0
874.7249	-0
874.8863	-0.032
875.0478	-0.0808
875.2092	-0
875.3706	-0.141
875.5319	-0
875.6933	0.1008
875.8546	0.1531
876.0159	0.0783
876.1772	-0.6011
876.3385	-0
876.4997	0.4483
876.6609	0.7442
876.8221	0.4517
876.9833	-0
877.1445	0.5488
877.3056	0.06
877.4667	-0
877.6278	0.8977
877.7889	-0
877.9499	1.0011
878.111	-0.695
878.272	-0.1738
878.433	-0.0297
878.5939	-0
878.7549	-0.0745
878.9158	0.162
879.0767	-0.0413
879.2376	-0.2475
879.3984	0.614
879.5593	0.9198
879.7201	-0
879.8809	-0.2313
880.0417	-0.0751
880.2024	-0.006
880.3632	0.2035
880.5239	0.0333
880.6846	-0.4686
880.8452	0.0966
881.0059	-0.554
881.1665	0.8187
881.3271	0.2206
881.4877	0.1607
881.6483	-0
881.8088	-0.4461
881.9693	-0.738
882.1298	-0.738
882.2903	-0.738
