Data from D4ACN5uM460nmA_Absorbance_13-05-41-435.txt Node
Date: Fri Feb 21 13:05:41 GMT 2025
User: LASERRRRR
Spectrometer: FLMT03099
Trigger mode: 0
Integration Time (sec): 1.500000E-2
Scans to average: 1
Electric dark correction enabled: true
Nonlinearity correction enabled: false
Boxcar width: 0
XAxis mode: Wavelengths
Number of Pixels in Spectrum: 3648
>>>>>Begin Spectral Data<<<<<
179.3399	-0.3693
179.5586	-0.3693
179.7771	-0.3693
179.9957	-0.1749
180.2143	-0
180.4329	0.3499
180.6514	-0
180.8699	-0
181.0885	0.2507
181.307	0.0291
181.5255	-0.1638
181.744	-0
181.9625	0.3083
182.181	-0
182.3994	-0.5406
182.6179	-0
182.8363	-0
183.0547	-0
183.2732	0.0319
183.4916	0.1497
183.71	0.0959
183.9284	-0.0678
184.1467	1.4391
184.3651	0.0212
184.5835	0.2414
184.8018	0.0909
185.0201	0.2192
185.2385	0.0981
185.4568	0.3079
185.6751	0.0942
185.8934	0.2568
186.1117	-0.0178
186.3299	0.3134
186.5482	0.296
186.7664	0.3363
186.9847	0.0086
187.2029	0.4701
187.4211	0.0453
187.6393	0.3378
187.8575	0.3527
188.0757	0.2218
188.2939	0.0111
188.512	0.1819
188.7302	0.1445
188.9483	0.5203
189.1665	0.2702
189.3846	0.2704
189.6027	0.1641
189.8208	0.1431
190.0389	0.1426
190.257	0.2092
190.475	0.0842
190.6931	0.1607
190.9111	0.0296
191.1292	0.0751
191.3472	0.0682
191.5652	0.3435
191.7832	0.1135
192.0012	0.0296
192.2192	0.2086
192.4371	0.1946
192.6551	0.1911
192.873	0.1355
193.091	0.0435
193.3089	0.1777
193.5268	0.4291
193.7447	0.1791
193.9626	0.12
194.1805	0.2773
194.3984	0.2276
194.6162	0.1629
194.8341	0.3106
195.0519	0.1921
195.2697	0.2713
195.4875	0.2535
195.7054	0.2942
195.9231	0.2083
196.1409	0.2799
196.3587	0.3241
196.5765	0.3198
196.7942	0.3011
197.012	0.3683
197.2297	0.2836
197.4474	0.4606
197.6651	0.3024
197.8828	0.4164
198.1005	0.3922
198.3182	0.3684
198.5358	0.3707
198.7535	0.376
198.9711	0.4225
199.1888	0.3843
199.4064	0.4386
199.624	0.3304
199.8416	0.328
200.0592	0.363
200.2767	0.3899
200.4943	0.4162
200.7119	0.3947
200.9294	0.4017
201.1469	0.4135
201.3645	0.4233
201.582	0.3665
201.7995	0.417
202.017	0.414
202.2344	0.3982
202.4519	0.3769
202.6694	0.3945
202.8868	0.4232
203.1042	0.3878
203.3217	0.4052
203.5391	0.3688
203.7565	0.3737
203.9739	0.3849
204.1913	0.3384
204.4086	0.3282
204.626	0.3599
204.8433	0.3501
205.0607	0.374
205.278	0.3857
205.4953	0.3372
205.7126	0.3367
205.9299	0.3216
206.1472	0.332
206.3644	0.3274
206.5817	0.316
206.7989	0.3192
207.0162	0.2983
207.2334	0.3465
207.4506	0.3291
207.6678	0.3148
207.885	0.3008
208.1022	0.3302
208.3194	0.3056
208.5365	0.3181
208.7537	0.2715
208.9708	0.3211
209.1879	0.3043
209.405	0.2852
209.6222	0.2649
209.8392	0.2956
210.0563	0.2669
210.2734	0.277
210.4905	0.2872
210.7075	0.2614
210.9245	0.2729
211.1416	0.2827
211.3586	0.2689
211.5756	0.2509
211.7926	0.2729
212.0096	0.2795
212.2265	0.2522
212.4435	0.2433
212.6604	0.2527
212.8774	0.2642
213.0943	0.2463
213.3112	0.2581
213.5281	0.2574
213.745	0.2393
213.9619	0.2343
214.1788	0.2651
214.3956	0.2591
214.6125	0.2345
214.8293	0.2471
215.0461	0.2574
215.2629	0.2527
215.4798	0.2322
215.6965	0.2505
215.9133	0.236
216.1301	0.2435
216.3469	0.2553
216.5636	0.2551
216.7803	0.2539
216.9971	0.2449
217.2138	0.2471
217.4305	0.254
217.6472	0.2451
217.8639	0.246
218.0805	0.2395
218.2972	0.2496
218.5138	0.2519
218.7305	0.2468
218.9471	0.237
219.1637	0.2731
219.3803	0.2739
219.5969	0.2514
219.8135	0.2682
220.0301	0.2496
220.2466	0.2651
220.4632	0.2629
220.6797	0.2564
220.8962	0.2669
221.1127	0.2724
221.3292	0.2626
221.5457	0.2747
221.7622	0.254
221.9787	0.285
222.1951	0.2639
222.4116	0.2813
222.628	0.2843
222.8444	0.2792
223.0608	0.2636
223.2772	0.288
223.4936	0.2823
223.71	0.2738
223.9264	0.2842
224.1427	0.29
224.3591	0.2969
224.5754	0.2942
224.7917	0.2926
225.008	0.2986
225.2243	0.3004
225.4406	0.2908
225.6569	0.2931
225.8732	0.312
226.0894	0.3079
226.3057	0.3027
226.5219	0.3109
226.7381	0.3201
226.9543	0.3258
227.1705	0.3199
227.3867	0.3249
227.6029	0.3469
227.8191	0.3316
228.0352	0.3458
228.2513	0.3564
228.4675	0.3473
228.6836	0.3438
228.8997	0.3475
229.1158	0.3614
229.3319	0.3625
229.548	0.3516
229.764	0.3495
229.9801	0.3734
230.1961	0.3675
230.4121	0.3704
230.6282	0.3746
230.8442	0.3856
231.0602	0.3918
231.2761	0.3847
231.4921	0.3909
231.7081	0.3988
231.924	0.4086
232.14	0.3965
232.3559	0.4037
232.5718	0.3994
232.7877	0.4097
233.0036	0.4036
233.2195	0.4072
233.4353	0.4224
233.6512	0.4133
233.867	0.4246
234.0829	0.4202
234.2987	0.4296
234.5145	0.4339
234.7303	0.4349
234.9461	0.4392
235.1619	0.4374
235.3776	0.4292
235.5934	0.4204
235.8091	0.443
236.0249	0.4475
236.2406	0.4329
236.4563	0.4501
236.672	0.4376
236.8877	0.4497
237.1034	0.4466
237.319	0.4466
237.5347	0.4438
237.7503	0.452
237.966	0.4548
238.1816	0.4475
238.3972	0.4437
238.6128	0.4691
238.8284	0.4604
239.0439	0.4702
239.2595	0.4609
239.475	0.4573
239.6906	0.4568
239.9061	0.4621
240.1216	0.4674
240.3371	0.4573
240.5526	0.4483
240.7681	0.458
240.9836	0.4512
241.199	0.4515
241.4145	0.4515
241.6299	0.4438
241.8453	0.4321
242.0607	0.4357
242.2761	0.431
242.4915	0.4217
242.7069	0.4238
242.9223	0.4147
243.1376	0.3996
243.353	0.3991
243.5683	0.3913
243.7836	0.3877
243.9989	0.3796
244.2142	0.365
244.4295	0.3702
244.6448	0.3569
244.86	0.349
245.0753	0.341
245.2905	0.3422
245.5057	0.3268
245.721	0.3297
245.9362	0.3194
246.1514	0.3164
246.3665	0.309
246.5817	0.2909
246.7969	0.2935
247.012	0.2856
247.2271	0.289
247.4423	0.2797
247.6574	0.2731
247.8725	0.2721
248.0876	0.2649
248.3026	0.2634
248.5177	0.2479
248.7328	0.2439
248.9478	0.2517
249.1628	0.244
249.3779	0.2381
249.5929	0.2306
249.8079	0.2361
250.0228	0.2296
250.2378	0.2347
250.4528	0.2306
250.6677	0.2216
250.8827	0.2156
251.0976	0.2113
251.3125	0.215
251.5274	0.2089
251.7423	0.2037
251.9572	0.2077
252.172	0.2038
252.3869	0.2081
252.6017	0.2008
252.8166	0.1993
253.0314	0.1968
253.2462	0.1897
253.461	0.1913
253.6758	0.1958
253.8906	0.1934
254.1053	0.1919
254.3201	0.1936
254.5348	0.1813
254.7496	0.1769
254.9643	0.1862
255.179	0.1806
255.3937	0.1884
255.6083	0.1869
255.823	0.1831
256.0377	0.1873
256.2523	0.1815
256.467	0.1902
256.6816	0.1771
256.8962	0.1835
257.1108	0.179
257.3254	0.1815
257.54	0.1801
257.7545	0.18
257.9691	0.1764
258.1836	0.1712
258.3981	0.178
258.6127	0.1761
258.8272	0.1814
259.0417	0.1693
259.2561	0.17
259.4706	0.1795
259.6851	0.1717
259.8995	0.1711
260.114	0.1798
260.3284	0.1719
260.5428	0.1739
260.7572	0.1736
260.9716	0.179
261.186	0.1688
261.4003	0.1644
261.6147	0.1709
261.829	0.175
262.0433	0.1786
262.2577	0.1714
262.472	0.1765
262.6863	0.1759
262.9005	0.1795
263.1148	0.168
263.3291	0.1778
263.5433	0.176
263.7576	0.1722
263.9718	0.1802
264.186	0.1723
264.4002	0.176
264.6144	0.1795
264.8286	0.1768
265.0427	0.1805
265.2569	0.1766
265.471	0.1747
265.6851	0.1811
265.8993	0.1751
266.1134	0.1841
266.3275	0.1795
266.5415	0.1751
266.7556	0.177
266.9697	0.1757
267.1837	0.1762
267.3978	0.1803
267.6118	0.1695
267.8258	0.1763
268.0398	0.1716
268.2538	0.178
268.4677	0.1732
268.6817	0.172
268.8957	0.1627
269.1096	0.1666
269.3235	0.1676
269.5374	0.1696
269.7514	0.1713
269.9652	0.1739
270.1791	0.1657
270.393	0.1699
270.6068	0.1643
270.8207	0.1684
271.0345	0.1653
271.2483	0.1637
271.4622	0.1702
271.676	0.1642
271.8897	0.1668
272.1035	0.1739
272.3173	0.1633
272.531	0.167
272.7448	0.1649
272.9585	0.1598
273.1722	0.1609
273.3859	0.1661
273.5996	0.1647
273.8133	0.1695
274.0269	0.1678
274.2406	0.1628
274.4542	0.1643
274.6679	0.164
274.8815	0.1705
275.0951	0.1716
275.3087	0.1711
275.5223	0.1711
275.7358	0.1658
275.9494	0.1719
276.1629	0.169
276.3765	0.1634
276.59	0.1636
276.8035	0.1704
277.017	0.1744
277.2305	0.1739
277.444	0.17
277.6574	0.1738
277.8709	0.1771
278.0843	0.1728
278.2978	0.1762
278.5112	0.1731
278.7246	0.1737
278.938	0.1713
279.1513	0.1791
279.3647	0.1744
279.5781	0.1676
279.7914	0.1724
280.0047	0.1717
280.2181	0.1729
280.4314	0.1695
280.6447	0.18
280.8579	0.1714
281.0712	0.1748
281.2845	0.1703
281.4977	0.1789
281.711	0.1771
281.9242	0.1769
282.1374	0.1767
282.3506	0.1806
282.5638	0.178
282.7769	0.1726
282.9901	0.1759
283.2033	0.1756
283.4164	0.1767
283.6295	0.1742
283.8426	0.1747
284.0557	0.1862
284.2688	0.1786
284.4819	0.1737
284.695	0.1792
284.908	0.1783
285.1211	0.1792
285.3341	0.1807
285.5471	0.1829
285.7601	0.1807
285.9731	0.1823
286.1861	0.1854
286.3991	0.1902
286.612	0.1826
286.825	0.1895
287.0379	0.1897
287.2508	0.1849
287.4637	0.1854
287.6766	0.1846
287.8895	0.1863
288.1024	0.1897
288.3152	0.1931
288.5281	0.1788
288.7409	0.1907
288.9538	0.1927
289.1666	0.1843
289.3794	0.1871
289.5922	0.1865
289.8049	0.1913
290.0177	0.188
290.2304	0.1898
290.4432	0.1967
290.6559	0.1936
290.8686	0.1967
291.0813	0.1946
291.294	0.194
291.5067	0.1922
291.7194	0.1899
291.932	0.1881
292.1447	0.1905
292.3573	0.194
292.5699	0.1964
292.7825	0.187
292.9951	0.1939
293.2077	0.1877
293.4203	0.19
293.6328	0.1897
293.8454	0.1905
294.0579	0.1908
294.2704	0.1942
294.4829	0.1888
294.6954	0.1955
294.9079	0.1909
295.1204	0.1905
295.3328	0.1952
295.5453	0.1962
295.7577	0.196
295.9701	0.1987
296.1825	0.197
296.3949	0.1907
296.6073	0.1924
296.8197	0.1932
297.0321	0.1933
297.2444	0.192
297.4567	0.1968
297.6691	0.1912
297.8814	0.1905
298.0937	0.196
298.306	0.1893
298.5182	0.1985
298.7305	0.1953
298.9428	0.1916
299.155	0.1877
299.3672	0.1899
299.5794	0.1898
299.7916	0.193
300.0038	0.1954
300.216	0.1963
300.4282	0.1917
300.6403	0.1945
300.8525	0.1923
301.0646	0.1968
301.2767	0.1967
301.4888	0.194
301.7009	0.1964
301.913	0.1955
302.125	0.1921
302.3371	0.1864
302.5491	0.1951
302.7612	0.2006
302.9732	0.1907
303.1852	0.193
303.3972	0.1947
303.6092	0.1948
303.8211	0.1935
304.0331	0.1934
304.245	0.1845
304.457	0.1907
304.6689	0.1861
304.8808	0.1911
305.0927	0.1853
305.3046	0.1863
305.5164	0.179
305.7283	0.181
305.9401	0.174
306.152	0.1816
306.3638	0.1745
306.5756	0.1746
306.7874	0.1756
306.9992	0.1818
307.2109	0.1771
307.4227	0.1683
307.6344	0.1719
307.8462	0.1651
308.0579	0.1702
308.2696	0.1678
308.4813	0.1622
308.693	0.1592
308.9046	0.1606
309.1163	0.1584
309.328	0.1575
309.5396	0.1532
309.7512	0.1504
309.9628	0.1556
310.1744	0.1481
310.386	0.1453
310.5976	0.1446
310.8091	0.1517
311.0207	0.1432
311.2322	0.1414
311.4437	0.1405
311.6552	0.1379
311.8667	0.1401
312.0782	0.1398
312.2897	0.1379
312.5012	0.133
312.7126	0.1298
312.924	0.1393
313.1355	0.1323
313.3469	0.1313
313.5583	0.1272
313.7696	0.1276
313.981	0.1335
314.1924	0.1236
314.4037	0.1269
314.6151	0.1203
314.8264	0.1291
315.0377	0.1226
315.249	0.1261
315.4603	0.1161
315.6716	0.1243
315.8828	0.125
316.0941	0.1289
316.3053	0.1233
316.5165	0.1233
316.7277	0.1193
316.9389	0.1212
317.1501	0.1225
317.3613	0.1168
317.5724	0.1197
317.7836	0.1158
317.9947	0.1242
318.2058	0.1199
318.417	0.1194
318.6281	0.1192
318.8391	0.1209
319.0502	0.1204
319.2613	0.115
319.4723	0.1154
319.6834	0.1227
319.8944	0.1156
320.1054	0.116
320.3164	0.1152
320.5274	0.1163
320.7383	0.1242
320.9493	0.1204
321.1602	0.1166
321.3712	0.1165
321.5821	0.1161
321.793	0.1203
322.0039	0.1158
322.2148	0.1178
322.4257	0.1168
322.6365	0.116
322.8474	0.1229
323.0582	0.1173
323.269	0.1213
323.4798	0.1226
323.6906	0.1223
323.9014	0.1216
324.1122	0.1155
324.3229	0.1221
324.5337	0.1195
324.7444	0.1274
324.9551	0.1217
325.1658	0.1248
325.3765	0.1219
325.5872	0.1217
325.7979	0.1202
326.0085	0.1184
326.2192	0.1198
326.4298	0.1239
326.6404	0.122
326.851	0.1213
327.0616	0.1268
327.2722	0.1206
327.4828	0.1215
327.6933	0.1316
327.9039	0.1219
328.1144	0.1212
328.3249	0.126
328.5354	0.1205
328.7459	0.1299
328.9564	0.1265
329.1669	0.1254
329.3773	0.1246
329.5878	0.1282
329.7982	0.13
330.0086	0.1272
330.219	0.1271
330.4294	0.1279
330.6398	0.1293
330.8502	0.1281
331.0605	0.1227
331.2708	0.1265
331.4812	0.1259
331.6915	0.1274
331.9018	0.1275
332.1121	0.1312
332.3224	0.1289
332.5326	0.1244
332.7429	0.1297
332.9531	0.1359
333.1633	0.1245
333.3735	0.1269
333.5837	0.132
333.7939	0.1334
334.0041	0.1353
334.2143	0.1259
334.4244	0.1348
334.6346	0.13
334.8447	0.1298
335.0548	0.1313
335.2649	0.139
335.475	0.1373
335.685	0.1268
335.8951	0.1298
336.1051	0.1332
336.3152	0.1343
336.5252	0.1306
336.7352	0.1316
336.9452	0.1356
337.1552	0.1331
337.3652	0.1335
337.5751	0.1307
337.7851	0.1365
337.995	0.1385
338.2049	0.1311
338.4148	0.1427
338.6247	0.1357
338.8346	0.1355
339.0445	0.1394
339.2543	0.1326
339.4642	0.1328
339.674	0.1377
339.8838	0.1431
340.0936	0.1355
340.3034	0.1336
340.5132	0.1315
340.7229	0.1422
340.9327	0.1468
341.1424	0.1387
341.3522	0.1313
341.5619	0.1395
341.7716	0.1498
341.9813	0.1529
342.1909	0.1472
342.4006	0.1488
342.6102	0.1433
342.8199	0.1502
343.0295	0.1412
343.2391	0.1451
343.4487	0.1562
343.6583	0.1543
343.8679	0.1431
344.0774	0.1467
344.287	0.1464
344.4965	0.1441
344.706	0.1451
344.9155	0.1437
345.125	0.153
345.3345	0.1597
345.544	0.1463
345.7534	0.1481
345.9629	0.1508
346.1723	0.1541
346.3817	0.1537
346.5911	0.1599
346.8005	0.162
347.0099	0.1498
347.2193	0.1668
347.4286	0.1656
347.638	0.1607
347.8473	0.1577
348.0566	0.1602
348.2659	0.1587
348.4752	0.1634
348.6845	0.1614
348.8937	0.1614
349.103	0.1626
349.3122	0.1699
349.5214	0.1652
349.7306	0.1693
349.9398	0.1684
350.149	0.1529
350.3582	0.1729
350.5674	0.1661
350.7765	0.1685
350.9856	0.1673
351.1948	0.165
351.4039	0.1776
351.613	0.1715
351.822	0.1775
352.0311	0.1658
352.2402	0.1744
352.4492	0.1727
352.6582	0.1831
352.8672	0.1766
353.0762	0.1783
353.2852	0.1782
353.4942	0.1852
353.7032	0.1715
353.9121	0.1794
354.1211	0.1818
354.33	0.1818
354.5389	0.1838
354.7478	0.1778
354.9567	0.1849
355.1655	0.1816
355.3744	0.1809
355.5833	0.1844
355.7921	0.1894
356.0009	0.1869
356.2097	0.181
356.4185	0.1874
356.6273	0.1896
356.8361	0.1879
357.0448	0.1843
357.2536	0.1946
357.4623	0.1892
357.671	0.1953
357.8797	0.1962
358.0884	0.1888
358.2971	0.1931
358.5057	0.19
358.7144	0.193
358.923	0.2008
359.1316	0.2009
359.3402	0.1943
359.5488	0.1928
359.7574	0.2088
359.966	0.2043
360.1746	0.1932
360.3831	0.2
360.5916	0.2085
360.8002	0.2112
361.0087	0.2045
361.2172	0.2082
361.4256	0.2107
361.6341	0.2113
361.8426	0.2146
362.051	0.2109
362.2594	0.2083
362.4678	0.2122
362.6762	0.2208
362.8846	0.2094
363.093	0.2189
363.3014	0.2247
363.5097	0.2213
363.718	0.2191
363.9264	0.2259
364.1347	0.2245
364.343	0.2223
364.5513	0.2287
364.7595	0.2388
364.9678	0.2251
365.176	0.2316
365.3842	0.2382
365.5925	0.2298
365.8007	0.2306
366.0089	0.2377
366.217	0.232
366.4252	0.2394
366.6333	0.2396
366.8415	0.2399
367.0496	0.2338
367.2577	0.2409
367.4658	0.2403
367.6739	0.2353
367.882	0.2474
368.09	0.242
368.2981	0.2463
368.5061	0.2422
368.7141	0.253
368.9221	0.2547
369.1301	0.2477
369.3381	0.252
369.5461	0.2469
369.754	0.2521
369.962	0.2523
370.1699	0.2502
370.3778	0.2569
370.5857	0.2563
370.7936	0.2517
371.0015	0.2522
371.2093	0.2606
371.4172	0.2615
371.625	0.2627
371.8328	0.2565
372.0406	0.2657
372.2484	0.2628
372.4562	0.262
372.664	0.2569
372.8717	0.2664
373.0795	0.2712
373.2872	0.2709
373.4949	0.2828
373.7026	0.2758
373.9103	0.2645
374.118	0.2715
374.3256	0.2818
374.5333	0.2721
374.7409	0.2765
374.9485	0.2739
375.1561	0.2818
375.3637	0.2697
375.5713	0.2778
375.7789	0.2764
375.9864	0.2722
376.194	0.287
376.4015	0.2781
376.609	0.2721
376.8165	0.2832
377.024	0.2847
377.2315	0.2832
377.4389	0.2847
377.6464	0.2925
377.8538	0.2883
378.0612	0.282
378.2686	0.2841
378.476	0.296
378.6834	0.2885
378.8908	0.2929
379.0981	0.2943
379.3055	0.2906
379.5128	0.2798
379.7201	0.3005
379.9274	0.2933
380.1347	0.2987
380.342	0.3003
380.5492	0.2983
380.7565	0.2943
380.9637	0.3054
381.1709	0.2942
381.3781	0.2998
381.5853	0.2988
381.7925	0.2991
381.9997	0.3043
382.2068	0.3089
382.4139	0.3047
382.6211	0.3004
382.8282	0.311
383.0353	0.2985
383.2424	0.3101
383.4494	0.3004
383.6565	0.3053
383.8635	0.3028
384.0706	0.3162
384.2776	0.3066
384.4846	0.3181
384.6916	0.3046
384.8986	0.3142
385.1055	0.3275
385.3125	0.3168
385.5194	0.3136
385.7263	0.308
385.9333	0.3211
386.1402	0.2994
386.347	0.3181
386.5539	0.3073
386.7608	0.3151
386.9676	0.3187
387.1744	0.3175
387.3813	0.3088
387.5881	0.2952
387.7948	0.3167
388.0016	0.3185
388.2084	0.3162
388.4151	0.3141
388.6219	0.3047
388.8286	0.3128
389.0353	0.3165
389.242	0.3168
389.4487	0.3012
389.6553	0.3039
389.862	0.2956
390.0686	0.3072
390.2753	0.3005
390.4819	0.3024
390.6885	0.2984
390.8951	0.297
391.1016	0.3097
391.3082	0.3055
391.5147	0.3019
391.7213	0.2907
391.9278	0.2922
392.1343	0.2994
392.3408	0.2912
392.5473	0.2949
392.7537	0.2832
392.9602	0.2801
393.1666	0.2884
393.373	0.2857
393.5794	0.2897
393.7858	0.2937
393.9922	0.2828
394.1986	0.279
394.4049	0.289
394.6113	0.2755
394.8176	0.2854
395.0239	0.2845
395.2302	0.2743
395.4365	0.2853
395.6428	0.273
395.8491	0.2729
396.0553	0.2744
396.2615	0.2729
396.4678	0.2843
396.674	0.2735
396.8802	0.2684
397.0863	0.2647
397.2925	0.2694
397.4987	0.2608
397.7048	0.2722
397.9109	0.2634
398.117	0.2675
398.3231	0.2623
398.5292	0.2556
398.7353	0.2577
398.9413	0.2676
399.1474	0.2654
399.3534	0.2645
399.5594	0.2647
399.7654	0.2574
399.9714	0.2618
400.1774	0.2619
400.3833	0.2654
400.5893	0.2641
400.7952	0.264
401.0011	0.2591
401.207	0.2659
401.4129	0.2615
401.6188	0.2575
401.8247	0.2643
402.0305	0.2598
402.2364	0.2688
402.4422	0.2649
402.648	0.259
402.8538	0.2675
403.0596	0.253
403.2654	0.2618
403.4711	0.253
403.6768	0.2691
403.8826	0.266
404.0883	0.2604
404.294	0.2631
404.4997	0.2664
404.7054	0.2674
404.911	0.2556
405.1167	0.2586
405.3223	0.2635
405.5279	0.2703
405.7335	0.2584
405.9391	0.2437
406.1447	0.2694
406.3502	0.2695
406.5558	0.2688
406.7613	0.2589
406.9668	0.2627
407.1724	0.2624
407.3778	0.2662
407.5833	0.2509
407.7888	0.2625
407.9942	0.2721
408.1997	0.2624
408.4051	0.2618
408.6105	0.2688
408.8159	0.2612
409.0213	0.2663
409.2267	0.2641
409.432	0.2606
409.6374	0.2643
409.8427	0.2692
410.048	0.2714
410.2533	0.2613
410.4586	0.2526
410.6639	0.2692
410.8691	0.2606
411.0744	0.2649
411.2796	0.2744
411.4848	0.275
411.69	0.2575
411.8952	0.2585
412.1004	0.2599
412.3056	0.2601
412.5107	0.2752
412.7158	0.2662
412.921	0.2675
413.1261	0.2586
413.3312	0.2632
413.5362	0.2657
413.7413	0.2589
413.9464	0.2446
414.1514	0.2555
414.3564	0.2569
414.5614	0.2597
414.7664	0.2516
414.9714	0.2582
415.1764	0.263
415.3813	0.2461
415.5863	0.2576
415.7912	0.2486
415.9961	0.2543
416.201	0.2656
416.4059	0.262
416.6108	0.2561
416.8156	0.2562
417.0205	0.2446
417.2253	0.2514
417.4301	0.2492
417.6349	0.2533
417.8397	0.2482
418.0445	0.2519
418.2492	0.249
418.454	0.2512
418.6587	0.2627
418.8634	0.2512
419.0681	0.2565
419.2728	0.2553
419.4775	0.2577
419.6822	0.2422
419.8868	0.2389
420.0915	0.2451
420.2961	0.2443
420.5007	0.2521
420.7053	0.2432
420.9099	0.2353
421.1144	0.2371
421.319	0.2418
421.5235	0.2368
421.728	0.249
421.9325	0.2362
422.137	0.2337
422.3415	0.239
422.546	0.2284
422.7504	0.2407
422.9549	0.2567
423.1593	0.234
423.3637	0.2381
423.5681	0.2294
423.7725	0.2253
423.9769	0.2319
424.1812	0.2274
424.3856	0.221
424.5899	0.2293
424.7942	0.2214
424.9985	0.2298
425.2028	0.2324
425.4071	0.2301
425.6113	0.2224
425.8156	0.2189
426.0198	0.2302
426.224	0.2169
426.4282	0.2169
426.6324	0.2242
426.8366	0.213
427.0407	0.2147
427.2449	0.2102
427.449	0.2129
427.6531	0.2151
427.8572	0.2156
428.0613	0.2191
428.2654	0.2084
428.4694	0.203
428.6735	0.2107
428.8775	0.2032
429.0815	0.2017
429.2855	0.2014
429.4895	0.1934
429.6935	0.2046
429.8975	0.1982
430.1014	0.2017
430.3053	0.1954
430.5093	0.1837
430.7132	0.1917
430.9171	0.1836
431.1209	0.1866
431.3248	0.1741
431.5286	0.1798
431.7325	0.1884
431.9363	0.178
432.1401	0.1779
432.3439	0.1812
432.5477	0.1653
432.7514	0.1701
432.9552	0.1698
433.1589	0.1621
433.3627	0.1806
433.5664	0.1694
433.7701	0.1659
433.9737	0.172
434.1774	0.1576
434.3811	0.1545
434.5847	0.1567
434.7883	0.1673
434.9919	0.1411
435.1955	0.1506
435.3991	0.1475
435.6027	0.1481
435.8062	0.1587
436.0098	0.1393
436.2133	0.1453
436.4168	0.1481
436.6203	0.1428
436.8238	0.1439
437.0272	0.1434
437.2307	0.1416
437.4341	0.1349
437.6375	0.1394
437.841	0.1236
438.0443	0.1389
438.2477	0.1175
438.4511	0.1241
438.6545	0.1284
438.8578	0.124
439.0611	0.1383
439.2644	0.1225
439.4677	0.1221
439.671	0.1092
439.8743	0.1164
440.0775	0.1168
440.2808	0.1094
440.484	0.1119
440.6872	0.1045
440.8904	0.1085
441.0936	0.1039
441.2967	0.0977
441.4999	0.1017
441.703	0.1017
441.9062	0.1022
442.1093	0.1044
442.3124	0.0999
442.5155	0.095
442.7185	0.0869
442.9216	0.0894
443.1246	0.0909
443.3276	0.0912
443.5307	0.0854
443.7337	0.0864
443.9366	0.0821
444.1396	0.0817
444.3426	0.0847
444.5455	0.081
444.7484	0.0843
444.9513	0.0822
445.1542	0.084
445.3571	0.0749
445.56	0.0691
445.7628	0.0731
445.9657	0.0739
446.1685	0.0748
446.3713	0.0707
446.5741	0.0678
446.7769	0.0712
446.9797	0.0638
447.1824	0.0657
447.3852	0.05
447.5879	0.0624
447.7906	0.0571
447.9933	0.0557
448.196	0.0628
448.3986	0.0523
448.6013	0.0471
448.8039	0.0557
449.0066	0.0629
449.2092	0.0608
449.4118	0.05
449.6143	0.0588
449.8169	0.0522
450.0195	0.0448
450.222	0.0521
450.4245	0.0536
450.627	0.0466
450.8295	0.0459
451.032	0.04
451.2345	0.0379
451.4369	0.0414
451.6394	0.0497
451.8418	0.0472
452.0442	0.0447
452.2466	0.0336
452.449	0.0422
452.6513	0.0382
452.8537	0.0355
453.056	0.032
453.2583	0.0302
453.4607	0.0294
453.663	0.0423
453.8652	0.0292
454.0675	0.0414
454.2697	0.0261
454.472	0.0287
454.6742	0.0429
454.8764	0.035
455.0786	0.0325
455.2808	0.0205
455.4829	0.0315
455.6851	0.0324
455.8872	0.0176
456.0893	0.0215
456.2915	0.0257
456.4935	0.035
456.6956	0.0224
456.8977	0.0188
457.0997	0.032
457.3018	0.0173
457.5038	0.0285
457.7058	0.0315
457.9078	0.0178
458.1098	0.0332
458.3117	0.0254
458.5137	0.0115
458.7156	0.0332
458.9175	0.0276
459.1194	0.0183
459.3213	0.0181
459.5232	0.0239
459.725	0.0216
459.9269	0.0188
460.1287	0.0159
460.3305	0.0243
460.5323	0.023
460.7341	0.021
460.9359	0.0135
461.1376	0.0202
461.3394	0.0218
461.5411	0.0261
461.7428	0.0202
461.9445	0.0177
462.1462	0.0113
462.3479	0.0051
462.5495	0.0132
462.7512	0.0223
462.9528	0.0066
463.1544	0.0145
463.356	0.0059
463.5576	0.0189
463.7592	0.0062
463.9607	0.0112
464.1623	0.0094
464.3638	-0.0017
464.5653	0.0155
464.7668	0.0183
464.9683	0.0174
465.1697	0.0146
465.3712	0.0142
465.5726	0.0042
465.7741	0.0131
465.9755	0.0094
466.1769	0.0108
466.3782	0.0107
466.5796	0.0105
466.7809	0.0139
466.9823	0.0095
467.1836	0.0065
467.3849	0.0057
467.5862	0.0065
467.7875	0.0086
467.9887	0.0138
468.19	0.0073
468.3912	0.0127
468.5924	0.0088
468.7936	0.0096
468.9948	0.0049
469.196	0.0029
469.3972	0.0083
469.5983	0.0064
469.7994	0.005
470.0006	0.011
470.2017	0.0106
470.4027	0.0169
470.6038	0.013
470.8049	0.0081
471.0059	0.0126
471.2069	0.0068
471.408	0.0037
471.6089	0.006
471.8099	0.0058
472.0109	0.0088
472.2119	0.0159
472.4128	0.0038
472.6137	0.0023
472.8146	-0.0006
473.0155	0.0172
473.2164	0.0071
473.4173	0.0024
473.6181	0.003
473.819	0.0029
474.0198	0.0008
474.2206	0.0005
474.4214	0.0135
474.6222	0.006
474.8229	0.0011
475.0237	0.0128
475.2244	0.0075
475.4251	0.0021
475.6258	0.0053
475.8265	0.0069
476.0272	-0.0017
476.2278	0.0049
476.4285	0.0052
476.6291	0.004
476.8297	0.0033
477.0303	0.006
477.2309	0.0068
477.4315	0.0039
477.632	0.0065
477.8326	0.014
478.0331	0.0095
478.2336	-0.0018
478.4341	0.0098
478.6346	0.0026
478.8351	0.003
479.0355	0.0107
479.236	0.0093
479.4364	0.0111
479.6368	0.0029
479.8372	0.0017
480.0376	0.0002
480.2379	0.0064
480.4383	0.0062
480.6386	-0.0022
480.8389	0.0053
481.0392	0.0023
481.2395	0.0056
481.4398	0.0034
481.6401	-0.002
481.8403	0.004
482.0405	0.0115
482.2408	0.0053
482.441	0.0056
482.6411	0.0094
482.8413	0.0127
483.0415	0.0105
483.2416	0.0045
483.4417	-0.0001
483.6419	0.0053
483.8419	0.0011
484.042	0.0082
484.2421	-0.0085
484.4422	-0.0021
484.6422	0.0126
484.8422	0.0033
485.0422	0.0035
485.2422	0.0003
485.4422	0.0005
485.6422	0.0044
485.8421	0.0034
486.042	0.0113
486.242	-0.0022
486.4419	0.0037
486.6417	-0.0004
486.8416	0.0035
487.0415	-0.002
487.2413	-0.0024
487.4411	0.0058
487.641	-0.004
487.8408	0.0049
488.0405	0.0055
488.2403	-0.0013
488.4401	0.004
488.6398	0.0099
488.8395	-0.0014
489.0392	0.0003
489.2389	0.0026
489.4386	-0.0075
489.6383	0.0083
489.8379	-0.0037
490.0376	-0.0027
490.2372	0.0009
490.4368	0.0036
490.6364	-0.0007
490.836	0.0024
491.0355	-0.0076
491.2351	0.005
491.4346	0.0027
491.6341	-0.0033
491.8336	0.0099
492.0331	0.001
492.2326	0.0044
492.432	0.0017
492.6315	-0.0069
492.8309	0.0064
493.0303	-0.002
493.2297	0.012
493.4291	-0.0026
493.6284	0.0046
493.8278	0.0022
494.0271	0.0074
494.2264	0.001
494.4257	0.0117
494.625	-0.0053
494.8243	-0.0067
495.0236	0.0045
495.2228	0.0076
495.422	-0.0015
495.6213	-0.003
495.8205	-0.002
496.0196	0.0007
496.2188	0.0043
496.418	0.0024
496.6171	-0.0062
496.8162	0.0028
497.0153	0.0046
497.2144	-0.0017
497.4135	-0.0019
497.6126	0.0027
497.8116	0.0042
498.0107	0.0079
498.2097	0.0077
498.4087	-0.0006
498.6077	-0.0041
498.8067	0.0064
499.0056	-0.0005
499.2046	0.0095
499.4035	0.0038
499.6024	-0.0049
499.8013	0.0111
500.0002	-0.0004
500.199	0.0062
500.3979	-0.006
500.5967	-0.0002
500.7956	0.0036
500.9944	0.0043
501.1932	0.012
501.3919	0.0128
501.5907	0.0063
501.7895	-0.002
501.9882	0.0012
502.1869	0.0079
502.3856	0.0006
502.5843	0.0036
502.783	0.0036
502.9816	0.0055
503.1803	0.0051
503.3789	0.0067
503.5775	0.0006
503.7761	0.0016
503.9747	0.0093
504.1732	-0.0069
504.3718	0.0035
504.5703	0.0016
504.7689	-0.0011
504.9674	0.005
505.1658	0.0018
505.3643	0.0091
505.5628	0.0093
505.7612	0.0089
505.9597	0.0013
506.1581	-0.006
506.3565	-0.0016
506.5549	0.0018
506.7532	-0.0009
506.9516	0.0083
507.1499	0.0049
507.3482	0.0023
507.5465	0.0081
507.7448	0.0126
507.9431	0.0096
508.1414	-0.007
508.3396	-0.0022
508.5379	-0.005
508.7361	0.0048
508.9343	0.0071
509.1325	0.002
509.3306	-0.0021
509.5288	-0.0087
509.7269	0.0091
509.9251	0.0097
510.1232	0.0019
510.3213	0.0074
510.5193	0.0012
510.7174	-0.0057
510.9154	0.0086
511.1135	-0.0023
511.3115	0.0017
511.5095	0.0023
511.7075	0.0011
511.9055	0.0012
512.1034	0.0042
512.3014	0.0052
512.4993	0.0041
512.6972	-0.0002
512.8951	0.0079
513.093	0.0047
513.2908	0.0096
513.4887	-0.0003
513.6865	0.0085
513.8844	0.0054
514.0822	0.0079
514.2799	-0.004
514.4777	-0.0058
514.6755	-0.0002
514.8732	0.0037
515.0709	0.0074
515.2687	-0.0003
515.4664	0.0094
515.664	0.0102
515.8617	0.0065
516.0594	0.0055
516.257	0.0005
516.4546	0.0057
516.6522	-0.0022
516.8498	0.0068
517.0474	0.0036
517.2449	0.0057
517.4425	0.0035
517.64	0.0118
517.8375	0.0111
518.035	-0.002
518.2325	-0.0066
518.43	-0.0002
518.6274	-0.0026
518.8249	-0.0091
519.0223	0.0095
519.2197	0.0033
519.4171	-0.008
519.6145	0.01
519.8118	-0.0048
520.0092	-0.016
520.2065	0.0074
520.4038	-0.0057
520.6011	0.006
520.7984	0.0083
520.9956	0.0016
521.1929	0.0044
521.3901	0.0009
521.5874	0.005
521.7846	-0.003
521.9818	-0.004
522.1789	-0.0056
522.3761	0.0148
522.5732	0.0058
522.7704	-0.0056
522.9675	-0.0057
523.1646	0.0013
523.3617	0.0077
523.5587	-0.001
523.7558	-0.0027
523.9528	0.0215
524.1498	-0.0055
524.3468	0.007
524.5438	0.0064
524.7408	-0.0065
524.9378	0.0052
525.1347	0.0082
525.3316	-0.0049
525.5285	-0.0002
525.7254	0.0082
525.9223	0.0043
526.1192	-0.0008
526.316	0.0116
526.5129	0.0005
526.7097	-0.0045
526.9065	0.0105
527.1033	0.0068
527.3	-0.0031
527.4968	0.0084
527.6935	-0.007
527.8903	0.0073
528.087	0.0122
528.2837	0.0109
528.4804	0.0109
528.677	-0.0054
528.8737	0.0042
529.0703	0.0046
529.2669	0.0096
529.4635	0.001
529.6601	-0.0039
529.8567	-0.0023
530.0532	0.0145
530.2498	0.0065
530.4463	-0.0071
530.6428	0.004
530.8393	0.013
531.0358	0.0012
531.2322	-0.0113
531.4287	-0.0002
531.6251	-0.0159
531.8215	-0.001
532.0179	0.0045
532.2143	0.0081
532.4107	0.0023
532.607	0.0021
532.8034	-0.0081
532.9997	0.0014
533.196	0.0022
533.3923	-0.0002
533.5886	0.0082
533.7848	0.0078
533.9811	0.0072
534.1773	-0.0057
534.3735	0.0017
534.5697	-0.0033
534.7659	0.0084
534.9621	0.0152
535.1582	0.0093
535.3544	0.0062
535.5505	0.0101
535.7466	0.007
535.9427	0.001
536.1387	-0.0032
536.3348	0.0002
536.5308	0.0037
536.7269	-0.0093
536.9229	0.0086
537.1189	0.0081
537.3148	0.0015
537.5108	0.0073
537.7068	0.013
537.9027	-0.0031
538.0986	0.0144
538.2945	0.001
538.4904	-0.003
538.6863	-0.0065
538.8821	0.0112
539.078	0.0014
539.2738	0.001
539.4696	-0.0051
539.6654	0.0031
539.8611	0.0051
540.0569	-0.0083
540.2526	0.0124
540.4484	0.0052
540.6441	0.0058
540.8398	0.0048
541.0355	-0.0028
541.2311	0.0032
541.4268	0.0172
541.6224	0.0098
541.818	-0.0007
542.0136	0.0037
542.2092	0.0044
542.4048	-0.0002
542.6003	0.0073
542.7959	0.0073
542.9914	0.0147
543.1869	0.0053
543.3824	-0.0008
543.5779	0.0128
543.7734	0.0091
543.9688	0.0063
544.1642	-0.0071
544.3596	0.0034
544.555	0.0026
544.7504	0.014
544.9458	0.0042
545.1411	-0.0025
545.3365	-0.0029
545.5318	0.0069
545.7271	0.0052
545.9224	0.0059
546.1177	0.0067
546.3129	-0.0016
546.5081	-0.0074
546.7034	-0.0023
546.8986	-0.0035
547.0938	0.0137
547.289	0.0042
547.4841	0.0093
547.6793	0.0031
547.8744	0.0104
548.0695	0.0009
548.2646	0.0063
548.4597	-0.0008
548.6548	0.0139
548.8498	0.0061
549.0448	0.0004
549.2399	0.0073
549.4349	0.0037
549.6298	0.006
549.8248	0.0033
550.0198	0.0083
550.2147	0.0001
550.4096	-0.0063
550.6045	-0.0011
550.7994	0.0033
550.9943	0.0016
551.1892	-0.0199
551.384	0.0062
551.5788	0.0064
551.7737	0.0005
551.9685	0.0013
552.1632	-0.0041
552.358	0.0047
552.5528	0.0028
552.7475	0.0078
552.9422	0.0091
553.1369	0.0056
553.3316	0.0052
553.5263	0.0114
553.7209	0.0073
553.9156	0.0015
554.1102	0.0082
554.3048	-0.0026
554.4994	0.0052
554.694	0.0133
554.8885	0.0045
555.0831	0.0038
555.2776	0.0015
555.4721	-0.0037
555.6666	0.0006
555.8611	-0.0014
556.0555	0.003
556.25	0.0145
556.4444	0.0014
556.6388	-0.0056
556.8332	-0.0036
557.0276	0.0055
557.222	-0.0019
557.4163	0.0061
557.6107	0.0091
557.805	-0.0066
557.9993	0.003
558.1936	-0.0064
558.3879	0.0125
558.5821	0.001
558.7764	0.0041
558.9706	0.0048
559.1648	0.0037
559.359	-0.0069
559.5532	-0
559.7473	-0.0027
559.9415	0.0075
560.1356	0.0152
560.3297	-0.0039
560.5238	0.0108
560.7179	-0.0015
560.9119	0.0071
561.106	-0.0107
561.3	0.0005
561.494	-0.0069
561.688	-0.0074
561.882	0.006
562.076	0.0048
562.2699	0.0078
562.4639	0.0145
562.6578	0.0062
562.8517	0.0045
563.0456	0.004
563.2395	0.0059
563.4333	0.0013
563.6272	0.0045
563.821	-0.0008
564.0148	-0.0009
564.2086	0.0023
564.4024	0.0045
564.5961	0.0057
564.7899	0.0061
564.9836	-0.0009
565.1773	0.0118
565.371	0.0026
565.5647	0.0007
565.7584	0.009
565.952	0.0072
566.1456	-0.0013
566.3393	0.0027
566.5329	0.001
566.7264	0.0101
566.92	0.0009
567.1136	-0.0018
567.3071	-0.0028
567.5006	0.004
567.6941	0.004
567.8876	0.0035
568.0811	0.0074
568.2745	-0.0048
568.468	0.0065
568.6614	0.0063
568.8548	0.0025
569.0482	0.0065
569.2416	0.0083
569.4349	0.0025
569.6283	0.0023
569.8216	0.0033
570.0149	-0
570.2082	0.0057
570.4015	0.0044
570.5947	0.0039
570.788	0.0047
570.9812	0.0022
571.1744	0.004
571.3676	0.0024
571.5608	-0.0032
571.754	0.0055
571.9471	0.0063
572.1402	0.0054
572.3333	0.002
572.5264	0.0035
572.7195	-0.0002
572.9126	0.0032
573.1057	0.0034
573.2987	0.0018
573.4917	0.0049
573.6847	-0.0014
573.8777	0.0064
574.0707	0.0027
574.2636	0.0055
574.4566	0.0003
574.6495	0.0002
574.8424	0.0047
575.0353	0.0043
575.2281	0.0062
575.421	0.0009
575.6138	0.0014
575.8067	0.0012
575.9995	0.0014
576.1923	0.0049
576.385	-0.0003
576.5778	0.0081
576.7706	0.0012
576.9633	0.0057
577.156	-0.002
577.3487	0.0009
577.5414	-0.0014
577.734	-0.0008
577.9267	0.005
578.1193	0.0018
578.3119	0.0004
578.5045	0.0006
578.6971	-0.0034
578.8897	0.0022
579.0822	0.0052
579.2747	0.0038
579.4673	0.0116
579.6598	0.0028
579.8522	0.0026
580.0447	0.0011
580.2372	0.0061
580.4296	0.0072
580.622	0.0033
580.8144	0.0034
581.0068	0.0071
581.1992	0.0029
581.3915	0.0001
581.5839	0.0027
581.7762	0.0021
581.9685	0.0022
582.1608	0.0043
582.353	0.0004
582.5453	0.0067
582.7375	0.0063
582.9298	-0.0019
583.122	-0.0023
583.3142	0.0078
583.5063	0.0019
583.6985	-0.0029
583.8906	0.0003
584.0827	0.007
584.2749	0.0007
584.4669	0.0033
584.659	0.0021
584.8511	0.0067
585.0431	0.0036
585.2352	0.0005
585.4272	0.0009
585.6192	0.0062
585.8111	-0.0012
586.0031	0.0022
586.195	-0.0015
586.387	0.0025
586.5789	0.0036
586.7708	0.0045
586.9627	0.0035
587.1545	0.0005
587.3464	0.0023
587.5382	0.0011
587.73	0.0067
587.9218	0.0035
588.1136	0.0006
588.3053	0.0041
588.4971	0.0008
588.6888	-0.0034
588.8805	0.0006
589.0722	0.01
589.2639	0.0059
589.4556	0.008
589.6472	0.0086
589.8389	-0.001
590.0305	-0.0063
590.2221	0.0016
590.4137	0.0032
590.6052	0.0044
590.7968	0.0012
590.9883	0.0018
591.1798	0.0006
591.3713	0.0022
591.5628	-0.0021
591.7543	0.0006
591.9458	0.002
592.1372	0.0082
592.3286	-0.0018
592.52	0.0016
592.7114	0.0005
592.9028	0.0065
593.0941	0.0033
593.2855	0.0036
593.4768	0.0095
593.6681	0.0074
593.8594	0.0074
594.0506	0.0006
594.2419	0.0029
594.4331	0.0029
594.6244	-0.0027
594.8156	0.0047
595.0067	-0.0033
595.1979	-0.0022
595.3891	0
595.5802	0.0071
595.7713	0.0102
595.9624	0.0058
596.1535	-0.0001
596.3446	-0.0008
596.5357	0.0038
596.7267	0.0009
596.9177	0.0033
597.1087	-0.0078
597.2997	0.0051
597.4907	0.0015
597.6817	0.0062
597.8726	0.0019
598.0635	0.0005
598.2544	0.0077
598.4453	0.0075
598.6362	0.0034
598.827	-0.0019
599.0179	0.0014
599.2087	0.0028
599.3995	0.005
599.5903	0.007
599.7811	0.0115
599.9718	-0.0035
600.1626	0.0009
600.3533	0.0032
600.544	-0.0019
600.7347	0.0006
600.9254	0.014
601.116	0.0036
601.3067	0.0035
601.4973	0.0018
601.6879	0.0022
601.8785	0.0073
602.0691	0.004
602.2596	0.0029
602.4502	-0.0005
602.6407	0.0034
602.8312	0.0044
603.0217	0.0056
603.2122	0.0005
603.4027	0.0034
603.5931	0.0014
603.7835	0.0111
603.9739	-0.0006
604.1643	0.0098
604.3547	0.0076
604.5451	0.0075
604.7354	-0.0091
604.9257	-0.0058
605.116	-0.001
605.3063	0.0018
605.4966	-0.0029
605.6869	0.0052
605.8771	0.0051
606.0673	0.0025
606.2575	0.0022
606.4477	0.0064
606.6379	-0
606.8281	0.001
607.0182	0.0038
607.2083	0.0011
607.3985	0.0042
607.5885	0.0002
607.7786	0.0029
607.9687	0.0018
608.1587	0.0039
608.3488	0.0069
608.5388	0.0012
608.7288	-0.0004
608.9187	0.0039
609.1087	0.0053
609.2986	0.0025
609.4886	0.0005
609.6785	0.0036
609.8684	0.0023
610.0582	0.0002
610.2481	-0.0084
610.4379	0.0031
610.6278	0.0014
610.8176	0.0075
611.0074	-0.0017
611.1971	-0.0015
611.3869	0.0071
611.5766	-0.0013
611.7664	0.0066
611.9561	0.0023
612.1458	0.008
612.3354	-0.0004
612.5251	0.0005
612.7147	0.0041
612.9044	0.0063
613.094	0.0044
613.2836	-0.0012
613.4731	0.0015
613.6627	0.005
613.8522	0.006
614.0417	0.0097
614.2313	0.0084
614.4207	0.0012
614.6102	0.0091
614.7997	0.0106
614.9891	-0.0008
615.1785	-0.0014
615.3679	-0.0019
615.5573	0.0046
615.7467	-0.0008
615.9361	0.0045
616.1254	0.0017
616.3147	0.0058
616.504	0.004
616.6933	0.0003
616.8826	-0.0009
617.0718	0.0009
617.2611	-0.0011
617.4503	0.0026
617.6395	0.0048
617.8287	0.0063
618.0179	0.0074
618.207	0.0136
618.3961	0.0024
618.5853	0.0016
618.7744	0.0097
618.9634	0.0083
619.1525	-0.0035
619.3416	-0.007
619.5306	0.0073
619.7196	0.0069
619.9086	0.0046
620.0976	-0.0017
620.2866	0.0019
620.4755	0.0021
620.6645	0.0075
620.8534	-0.001
621.0423	-0.0072
621.2312	0.0042
621.42	-0.0044
621.6089	0.0002
621.7977	0.0021
621.9865	0.0056
622.1753	-0.005
622.3641	-0.0056
622.5529	-0.0019
622.7416	0.007
622.9303	0.0026
623.1191	-0.0018
623.3078	0.0095
623.4964	0.0072
623.6851	-0.0003
623.8737	-0.0006
624.0624	-0.0186
624.251	0.0007
624.4396	-0.0032
624.6282	0.0146
624.8167	-0.0006
625.0053	0.0098
625.1938	-0.0019
625.3823	0.0048
625.5708	-0.0054
625.7593	0.0061
625.9477	0.0059
626.1362	0.0075
626.3246	-0.0087
626.513	0.0113
626.7014	0.0096
626.8898	0.0056
627.0781	0.0061
627.2665	0.0034
627.4548	-0.0119
627.6431	0.0098
627.8314	0.0066
628.0197	-0.0058
628.2079	0.0005
628.3962	0.0084
628.5844	0.0069
628.7726	0.0011
628.9608	-0.0001
629.1489	-0.0057
629.3371	-0.0044
629.5252	-0.0003
629.7134	0.0007
629.9015	0.0044
630.0895	-0.0168
630.2776	-0.0056
630.4657	0.0076
630.6537	0.0031
630.8417	-0.0147
631.0297	0.0094
631.2177	0.0132
631.4057	0.0067
631.5936	-0.0002
631.7815	0.0047
631.9695	0.0183
632.1574	0.0047
632.3452	0.0085
632.5331	0.0051
632.7209	0.0084
632.9088	-0
633.0966	0.0181
633.2844	0.0006
633.4722	0.0066
633.6599	0.0104
633.8477	0.0158
634.0354	-0.0028
634.2231	-0.018
634.4108	0.0028
634.5985	0.009
634.7861	-0.0098
634.9738	-0.0068
635.1614	-0.0044
635.349	-0.0047
635.5366	0.0006
635.7242	0.0153
635.9117	-0.0023
636.0993	0.0122
636.2868	-0.0034
636.4743	0.0127
636.6618	-0.0044
636.8492	0.018
637.0367	-0.0099
637.2241	0.0107
637.4115	0.0291
637.5989	0.0081
637.7863	0.0258
637.9737	0.0008
638.161	0.0048
638.3484	-0.0158
638.5357	0.0001
638.723	0.011
638.9103	-0.0139
639.0975	-0.0092
639.2848	0.0019
639.472	0.0039
639.6592	-0.0084
639.8464	0.0017
640.0336	0.0133
640.2208	-0.0085
640.4079	-0.0078
640.595	-0.0092
640.7821	0.0103
640.9692	-0.0109
641.1563	-0.0034
641.3434	0.0113
641.5304	0.0075
641.7174	0.0097
641.9044	-0.0109
642.0914	0.0148
642.2784	-0.0064
642.4653	0.005
642.6523	0.0013
642.8392	-0.0069
643.0261	0.0066
643.213	0.0131
643.3999	0.0048
643.5867	0.0103
643.7735	-0.0082
643.9604	0.0105
644.1472	0.0029
644.3339	0.0013
644.5207	0.0049
644.7075	-0.0053
644.8942	-0.0024
645.0809	-0.0003
645.2676	-0.0015
645.4543	-0.0224
645.6409	-0.0029
645.8276	0.0127
646.0142	-0.0017
646.2008	-0.0092
646.3874	-0.0382
646.574	0.0048
646.7605	-0.0015
646.9471	-0.0055
647.1336	-0.0162
647.3201	0.0126
647.5066	0.0068
647.6931	-0.0105
647.8795	0.0054
648.0659	0.0099
648.2524	0.0145
648.4388	-0.0024
648.6252	0.0031
648.8115	-0.0049
648.9979	0.0112
649.1842	0.0027
649.3705	0.0221
649.5568	-0.0059
649.7431	-0.005
649.9294	-0.0265
650.1156	-0.0003
650.3018	0.0098
650.488	0.0105
650.6742	0.0228
650.8604	0.0052
651.0466	0.0083
651.2327	-0.004
651.4188	-0.0054
651.6049	0.0088
651.791	-0.0049
651.9771	-0.0078
652.1632	0.0086
652.3492	0.0021
652.5352	0.0145
652.7212	0.0045
652.9072	-0.0081
653.0932	-0.0051
653.2791	0.0034
653.465	-0.004
653.651	-0.008
653.8369	0.0006
654.0227	-0.0134
654.2086	-0.002
654.3944	0.0079
654.5803	0.0049
654.7661	0.0023
654.9519	-0.0027
655.1377	0.0001
655.3234	0.0001
655.5092	0.0001
655.6949	0.0001
655.8806	0.0001
656.0663	0.0001
656.2519	0.0001
656.4376	0.0001
656.6232	0.0001
656.8088	0.0001
656.9945	0.0001
657.18	0.0001
657.3656	0.0001
657.5511	0.0001
657.7367	0.0001
657.9222	0.0001
658.1077	0.0001
658.2932	0.0001
658.4786	0.0001
658.6641	0.0001
658.8495	0.0001
659.0349	0.0001
659.2203	0.0001
659.4057	0.0001
659.591	0.0633
659.7764	0.0151
659.9617	-0.0182
660.147	0.0154
660.3323	-0.0037
660.5176	-0.0022
660.7028	-0.0135
660.888	0.0013
661.0733	-0.0023
661.2585	0.0024
661.4436	0.0053
661.6288	0.0111
661.8139	-0.005
661.9991	-0.0259
662.1842	-0.0099
662.3693	-0.0025
662.5544	0.0207
662.7394	0.029
662.9245	-0.0052
663.1095	-0.0145
663.2945	-0.0231
663.4795	-0.0092
663.6644	0.0031
663.8494	0.0166
664.0343	0.0158
664.2193	-0.0086
664.4042	0.0031
664.589	-0.0171
664.7739	-0.0178
664.9587	-0.0047
665.1436	0.0074
665.3284	0.0186
665.5132	-0.0238
665.698	0.0115
665.8827	-0.0133
666.0675	-0.0222
666.2522	0.0106
666.4369	-0.0116
666.6216	-0.0068
666.8063	-0.0157
666.9909	-0.0077
667.1756	-0.0143
667.3602	-0.0215
667.5448	-0.01
667.7294	0.0096
667.9139	-0.0093
668.0985	0.0127
668.283	0.0065
668.4675	0.0103
668.652	0.0279
668.8365	-0.0134
669.0209	0.0041
669.2054	0.006
669.3898	-0.0122
669.5742	0.0165
669.7586	0.0115
669.943	0.0052
670.1273	-0.0088
670.3117	0.0104
670.496	-0.0045
670.6803	-0.0088
670.8646	-0.0254
671.0488	0.0234
671.2331	-0.0125
671.4173	0.0053
671.6015	0.0121
671.7857	0.006
671.9699	0.0069
672.1541	-0.0105
672.3382	0.0029
672.5223	-0.0087
672.7064	-0.0059
672.8905	-0.0148
673.0746	-0.0005
673.2587	0.0306
673.4427	0.0259
673.6267	0.0142
673.8107	0.0195
673.9947	0.0092
674.1787	-0.004
674.3626	-0.0007
674.5465	0.0047
674.7304	0.0145
674.9143	-0.021
675.0982	0.0065
675.2821	-0.0097
675.4659	-0.0131
675.6497	0.0103
675.8335	0.0158
676.0173	-0.0308
676.2011	0.0078
676.3849	0.0041
676.5686	0.0032
676.7523	0.0096
676.936	-0.0137
677.1197	-0.0039
677.3034	0.0103
677.487	-0.0065
677.6706	-0.0053
677.8542	0.0036
678.0378	-0.0066
678.2214	-0.0035
678.405	0.0044
678.5885	0.0235
678.772	0.0071
678.9555	-0.0126
679.139	0.0102
679.3225	-0.0127
679.5059	-0.0106
679.6894	0.02
679.8728	0.0032
680.0562	-0.0032
680.2395	-0.0012
680.4229	-0.0072
680.6062	0.0094
680.7896	-0.0027
680.9729	0.0114
681.1562	0.0041
681.3394	-0.003
681.5227	0.0092
681.7059	0.0141
681.8891	0.0005
682.0723	-0.0042
682.2555	-0.0228
682.4387	0.012
682.6218	-0.0048
682.805	0.0075
682.9881	0.018
683.1712	0.0074
683.3542	0.0095
683.5373	-0.0067
683.7203	0.0026
683.9034	-0.0237
684.0864	-0.0023
684.2694	-0.0138
684.4523	-0.0096
684.6353	-0.0046
684.8182	-0.0166
685.0011	-0.006
685.184	-0.0112
685.3669	0.013
685.5498	-0.0129
685.7326	-0.017
685.9154	-0.0158
686.0982	0.0062
686.281	-0.0118
686.4638	0.0044
686.6465	0.0051
686.8293	-0.0097
687.012	0.0142
687.1947	0.0004
687.3774	0.0218
687.56	-0.0248
687.7427	-0.0091
687.9253	-0.0351
688.1079	0.0029
688.2905	-0.021
688.4731	0.0225
688.6556	-0.004
688.8382	-0.0215
689.0207	0.0142
689.2032	0.0127
689.3857	-0.0022
689.5681	0.0061
689.7506	0.0242
689.933	-0.0095
690.1154	0.0274
690.2978	-0.0145
690.4802	0.0111
690.6626	0.0004
690.8449	-0.0042
691.0272	-0.0103
691.2095	-0.0059
691.3918	0.0048
691.5741	0.0022
691.7563	0.0085
691.9386	0.0095
692.1208	0.0041
692.303	-0.003
692.4852	-0.0038
692.6673	-0.0088
692.8495	-0.0059
693.0316	-0.0116
693.2137	-0.0055
693.3958	-0.0088
693.5778	0.0071
693.7599	-0.019
693.9419	-0.0107
694.1239	0.0061
694.3059	0.0041
694.4879	-0.0103
694.6699	0.0028
694.8518	-0.0003
695.0337	0.0137
695.2157	0.0065
695.3975	-0.0089
695.5794	-0.0125
695.7613	0.0194
695.9431	-0.0102
696.1249	0.0227
696.3067	-0.0122
696.4885	0.0235
696.6703	0.0018
696.852	-0.0161
697.0337	0.0024
697.2154	-0.0031
697.3971	0.0151
697.5788	0.0038
697.7605	-0.01
697.9421	0.0054
698.1237	0.0019
698.3053	-0.0116
698.4869	0.0053
698.6685	-0.0112
698.85	0.0066
699.0315	-0.0084
699.213	0.0127
699.3945	-0.0091
699.576	0.0287
699.7575	0.0144
699.9389	-0.0078
700.1203	-0.0199
700.3017	0.0051
700.4831	-0.0075
700.6645	0.0254
700.8458	-0.002
701.0271	-0.002
701.2084	0.0126
701.3897	0.0071
701.571	-0.0127
701.7523	-0.0025
701.9335	0.0021
702.1147	-0.0108
702.2959	-0.042
702.4771	0.0108
702.6583	-0.0113
702.8394	-0.014
703.0205	-0.0017
703.2016	0.0025
703.3827	0.0042
703.5638	0.0111
703.7449	0.0297
703.9259	0.021
704.1069	-0.0173
704.2879	-0.0101
704.4689	0.0026
704.6499	0.02
704.8308	0.0247
705.0117	0.0118
705.1927	0.0221
705.3735	-0.0225
705.5544	-0.0041
705.7353	0.0227
705.9161	-0.0338
706.0969	0.0008
706.2777	-0.0029
706.4585	0.0084
706.6393	-0.0002
706.82	-0.0025
707.0007	0.0006
707.1815	-0.0165
707.3621	0.0166
707.5428	0.0091
707.7235	0.0082
707.9041	0.0088
708.0847	-0.0021
708.2653	0.0243
708.4459	-0.0021
708.6265	-0.0113
708.807	0.0126
708.9875	0.0025
709.168	-0.0284
709.3485	0.0289
709.529	0.01
709.7095	-0.0113
709.8899	-0.0167
710.0703	-0.0031
710.2507	-0.0105
710.4311	-0.0334
710.6115	0.0401
710.7918	0.0225
710.9721	-0.0069
711.1524	-0.0196
711.3327	0.0011
711.513	-0.0028
711.6932	-0.0125
711.8735	0.0191
712.0537	-0.0041
712.2339	-0.0217
712.4141	0.0242
712.5942	-0.0144
712.7744	0.0195
712.9545	-0.0032
713.1346	0.0365
713.3147	0.0114
713.4947	-0.0186
713.6748	0.0015
713.8548	0.0195
714.0348	0.0129
714.2148	0.0019
714.3948	0.016
714.5748	0.0129
714.7547	0.006
714.9346	0.0088
715.1145	-0.0195
715.2944	-0.0287
715.4743	-0.0042
715.6541	-0.0177
715.834	0.014
716.0138	0.011
716.1936	-0.0353
716.3733	-0.0168
716.5531	-0.0128
716.7328	-0.0098
716.9126	-0.0036
717.0923	-0.0348
717.2719	-0.0019
717.4516	-0.0013
717.6312	-0.0137
717.8109	0.0122
717.9905	0.0024
718.1701	0.0018
718.3496	0.0051
718.5292	-0.0097
718.7087	0.0128
718.8882	0.013
719.0677	0.0021
719.2472	-0.0019
719.4267	0.0204
719.6061	-0.0152
719.7856	0.0136
719.965	0.0016
720.1443	0.005
720.3237	0.0047
720.5031	-0.008
720.6824	0.0007
720.8617	-0.0159
721.041	0.0249
721.2203	-0.0085
721.3995	0.0015
721.5788	0.0063
721.758	-0.0115
721.9372	-0.0065
722.1164	-0.0009
722.2956	-0.0202
722.4747	0.003
722.6538	-0.027
722.8329	0.0073
723.012	-0.0126
723.1911	-0.0122
723.3702	0.0236
723.5492	0.0051
723.7282	0.0064
723.9072	0.0226
724.0862	-0.0023
724.2652	0.0051
724.4441	0.0003
724.623	0.0011
724.8019	0.0032
724.9808	0.0034
725.1597	-0.0118
725.3385	-0.0104
725.5174	0.0044
725.6962	-0.0078
725.875	0.0086
726.0538	0.0069
726.2325	0.0186
726.4112	-0.0383
726.59	-0.0281
726.7687	-0.0123
726.9474	0.0044
727.126	0.006
727.3047	-0.0098
727.4833	-0.006
727.6619	0.0138
727.8405	0.0055
728.0191	0.0244
728.1976	0.0125
728.3762	0.009
728.5547	-0.0058
728.7332	0.0129
728.9116	0.0064
729.0901	0.0088
729.2686	0.0095
729.447	-0.0054
729.6254	0.0012
729.8038	-0.0016
729.9821	-0.0266
730.1605	0.0149
730.3388	-0.0024
730.5171	-0.0076
730.6954	-0.0263
730.8737	0.0048
731.0519	-0.0182
731.2302	0.0219
731.4084	-0.0053
731.5866	0.0117
731.7648	0.0002
731.9429	0.0078
732.1211	-0.0188
732.2992	-0.0083
732.4773	0.0048
732.6554	-0.0312
732.8335	0.0063
733.0115	0.0015
733.1896	-0.0124
733.3676	0.0071
733.5456	-0.0014
733.7235	-0.0011
733.9015	0.0114
734.0794	-0.0167
734.2574	-0.0239
734.4353	0.007
734.6131	-0.0086
734.791	-0.0009
734.9689	-0.0063
735.1467	-0.0153
735.3245	0.0083
735.5023	0.0024
735.68	-0.0151
735.8578	-0.0033
736.0355	0.0121
736.2132	0.0021
736.3909	0.008
736.5686	0.0112
736.7463	-0.0195
736.9239	0.0189
737.1015	-0.0085
737.2791	0.0221
737.4567	0.01
737.6343	0.0057
737.8118	0.0245
737.9894	0.0077
738.1669	0.0023
738.3444	0.0217
738.5218	-0.0219
738.6993	0.0243
738.8767	-0.006
739.0541	0.0144
739.2315	-0.0027
739.4089	0.0333
739.5863	-0.0095
739.7636	-0.012
739.9409	0.0238
740.1182	0.0007
740.2955	-0.0016
740.4728	-0.027
740.65	0.0244
740.8272	0.0063
741.0044	-0.0074
741.1816	0.034
741.3588	-0.0006
741.5359	-0.0114
741.7131	0.0152
741.8902	-0.0009
742.0673	-0.0159
742.2444	0.0197
742.4214	0.0072
742.5985	0.0033
742.7755	-0.012
742.9525	-0.0298
743.1295	-0.0316
743.3064	-0.0223
743.4834	0.0156
743.6603	0.0313
743.8372	-0.0306
744.0141	0.0326
744.191	0.0215
744.3678	-0.0645
744.5446	-0.0005
744.7215	-0.0119
744.8982	0.0343
745.075	0.0473
745.2518	0.0008
745.4285	0.0187
745.6052	-0.0179
745.7819	0.007
745.9586	0.0146
746.1353	-0.0315
746.3119	-0.0043
746.4885	0.0238
746.6651	-0.0111
746.8417	-0.021
747.0183	0.0209
747.1948	0.0021
747.3714	0.0061
747.5479	0.0401
747.7244	-0.0101
747.9008	-0.0255
748.0773	0.0352
748.2537	-0.0094
748.4301	0.0264
748.6065	-0.0019
748.7829	-0.0083
748.9593	0.0198
749.1356	0.0207
749.3119	-0.0098
749.4882	-0.0073
749.6645	-0.0128
749.8408	0.0205
750.017	0.0107
750.1933	-0.0134
750.3695	-0.0043
750.5457	-0.0028
750.7218	-0.0013
750.898	-0.0061
751.0741	0.0028
751.2502	0.0087
751.4263	0.0079
751.6024	-0.023
751.7784	-0.0042
751.9545	0.0081
752.1305	0.0034
752.3065	0.0174
752.4825	-0.0056
752.6584	0.0114
752.8344	-0.0037
753.0103	-0.0201
753.1862	0.0047
753.3621	-0.0072
753.5379	0.0081
753.7138	-0.0127
753.8896	0.007
754.0654	-0.0026
754.2412	0.0133
754.417	0.0258
754.5927	-0.0075
754.7685	0.0003
754.9442	0.0344
755.1199	-0.0087
755.2956	0.0203
755.4712	-0.0089
755.6469	-0.0052
755.8225	0.0042
755.9981	0.0135
756.1736	0.0196
756.3492	0.0093
756.5248	0.0348
756.7003	-0.0231
756.8758	-0.0007
757.0513	-0.008
757.2267	0.009
757.4022	-0.01
757.5776	0.0156
757.753	0.0403
757.9284	0.0195
758.1038	0.0182
758.2791	0.003
758.4545	-0.0072
758.6298	0.011
758.8051	0.0065
758.9803	-0.0071
759.1556	-0.0131
759.3308	-0.0003
759.506	0.0066
759.6812	0.0134
759.8564	-0.0017
760.0316	-0.0061
760.2067	0.017
760.3819	-0.0123
760.557	-0.0108
760.732	0.0029
760.9071	0.0167
761.0821	-0.0053
761.2572	-0.0033
761.4322	0.0153
761.6072	0.0013
761.7821	-0.0199
761.9571	-0.0186
762.132	-0.0065
762.3069	0.0203
762.4818	0.0278
762.6567	0.0003
762.8316	-0.0018
763.0064	0.0036
763.1812	-0.0216
763.356	0.0049
763.5308	0.0042
763.7055	-0.0053
763.8803	-0.0039
764.055	-0.0172
764.2297	-0.0075
764.4044	-0.0009
764.579	0.0013
764.7537	-0.0107
764.9283	0.0014
765.1029	-0.0018
765.2775	0.0108
765.4521	0.0016
765.6266	-0.0069
765.8011	0.0054
765.9756	0.0017
766.1501	0.0197
766.3246	0.0036
766.4991	-0.002
766.6735	0.0214
766.8479	-0.0096
767.0223	-0.0087
767.1967	0.0237
767.371	0.0237
767.5454	-0.0237
767.7197	0.0211
767.894	-0.0108
768.0683	0.0032
768.2425	0.0042
768.4168	-0.0116
768.591	0.0127
768.7652	-0.0046
768.9394	-0.0244
769.1135	0.0074
769.2877	0.0266
769.4618	-0.0021
769.6359	-0.0096
769.81	-0.0005
769.984	-0.0141
770.1581	0.0128
770.3321	0.0135
770.5061	-0.0193
770.6801	0.008
770.8541	-0.0156
771.028	0.0253
771.202	0.0219
771.3759	0.0023
771.5498	-0.0096
771.7236	0.0135
771.8975	0.0516
772.0713	0.0036
772.2451	-0.0256
772.4189	0.0213
772.5927	-0.0052
772.7665	-0.0196
772.9402	0.0015
773.1139	0.0066
773.2876	-0.0012
773.4613	0.009
773.635	0.0276
773.8086	0.0016
773.9822	-0.0043
774.1558	0.0045
774.3294	-0.0284
774.503	0.0255
774.6765	0.0201
774.8501	-0.0398
775.0236	0.0237
775.1971	-0.0282
775.3705	-0.0251
775.544	-0.0428
775.7174	0.0347
775.8908	0.0042
776.0642	0.0183
776.2376	0.0256
776.4109	0.0068
776.5843	-0.0371
776.7576	0.0278
776.9309	0.0032
777.1041	-0.0209
777.2774	0.0159
777.4506	-0.0044
777.6238	0.006
777.797	-0.0214
777.9702	-0.0034
778.1434	0.0201
778.3165	-0.0327
778.4896	-0.0276
778.6627	-0.0206
778.8358	-0.0064
779.0089	-0.0451
779.1819	0.0264
779.3549	0.0188
779.5279	-0.0344
779.7009	0.0301
779.8739	0.0114
780.0468	-0.005
780.2197	0.0396
780.3926	-0.0304
780.5655	0.0115
780.7384	0.0009
780.9112	0.0361
781.0841	0.005
781.2569	0.0216
781.4297	0.0152
781.6024	0.0157
781.7752	0.0425
781.9479	0.0223
782.1206	-0.0217
782.2933	0.0161
782.466	0.0435
782.6386	-0.0213
782.8113	-0.0093
782.9839	0.0011
783.1565	0.0184
783.329	0.0237
783.5016	0.0068
783.6741	-0.0044
783.8466	0.0326
784.0191	0.0075
784.1916	-0.0542
784.3641	-0.0443
784.5365	-0.0024
784.7089	-0.0001
784.8813	0.0496
785.0537	-0.0035
785.2261	-0.0053
785.3984	-0.0183
785.5707	-0.0125
785.743	0.052
785.9153	0.0014
786.0876	-0.0352
786.2598	0.0006
786.432	0.0165
786.6042	0.0622
786.7764	-0.0173
786.9486	0.009
787.1207	0.0454
787.2928	0.039
787.4649	-0.0216
787.637	0.0291
787.8091	0.0028
787.9811	0.0379
788.1532	-0.0131
788.3252	-0.0059
788.4972	0.0071
788.6691	0.0118
788.8411	-0.0281
789.013	-0.0057
789.1849	-0.0355
789.3568	-0.0349
789.5287	0.0409
789.7005	0.0104
789.8723	-0.0352
790.0442	-0.0262
790.2159	-0.0415
790.3877	0.0369
790.5595	0.0244
790.7312	0.0518
790.9029	0.0317
791.0746	-0.035
791.2463	-0.0128
791.4179	0.0083
791.5896	-0.0185
791.7612	0.0266
791.9328	-0.0232
792.1044	-0.0404
792.2759	-0.016
792.4474	-0.0195
792.619	0.0136
792.7905	-0.0136
792.9619	0.0692
793.1334	0.0456
793.3048	0.0383
793.4762	0.0144
793.6476	-0.0269
793.819	-0.0171
793.9904	-0.0208
794.1617	0.0209
794.333	-0.0127
794.5043	-0.0075
794.6756	-0.0269
794.8469	0.0104
795.0181	0.0407
795.1893	0.0074
795.3605	0.0116
795.5317	-0.0432
795.7029	0.0007
795.874	-0.0428
796.0452	0.0573
796.2163	0.0336
796.3873	0.0361
796.5584	-0.0051
796.7294	0.029
796.9005	0.0146
797.0715	-0.0218
797.2425	0.049
797.4134	0.0243
797.5844	0.0253
797.7553	-0.0151
797.9262	0.0619
798.0971	0.0233
798.2679	0.0484
798.4388	-0.0058
798.6096	0.0565
798.7804	0.034
798.9512	0.0624
799.122	-0.0203
799.2927	0.1073
799.4635	-0.0675
799.6342	-0.0226
799.8049	0.0753
799.9755	-0.0998
800.1462	-0.0043
800.3168	-0.0157
800.4874	-0.1209
800.658	0.0239
800.8286	0.0335
800.9991	0.0157
801.1696	-0.0325
801.3402	-0.0313
801.5106	-0.0066
801.6811	-0.016
801.8516	0.1512
802.022	0.0229
802.1924	-0.0641
802.3628	0.0259
802.5332	0.0441
802.7035	0.0377
802.8739	0.0257
803.0442	0.0346
803.2145	0.0536
803.3847	0.0576
803.555	0.0279
803.7252	0.0525
803.8954	-0.038
804.0656	-0.0378
804.2358	0.0298
804.4059	0.0252
804.5761	-0.0278
804.7462	-0.0287
804.9163	0.0531
805.0864	-0.0223
805.2564	0.021
805.4264	-0.0003
805.5965	0.0259
805.7665	-0.0078
805.9364	-0.0244
806.1064	-0.0218
806.2763	0.0383
806.4462	-0.0002
806.6161	0.0177
806.786	-0.0187
806.9559	-0.0117
807.1257	0.0185
807.2955	-0.0036
807.4653	0.0034
807.6351	0.0844
807.8048	0.0565
807.9746	-0.0027
808.1443	0.008
808.314	-0.006
808.4837	0.0375
808.6533	-0.0504
808.8229	0.0558
808.9926	-0.0056
809.1622	0.0573
809.3317	-0.0566
809.5013	-0.0615
809.6708	-0.0353
809.8403	0.0112
810.0098	-0.0108
810.1793	-0.0733
810.3488	-0.0425
810.5182	0.1334
810.6876	0.0895
810.857	0.0365
811.0264	-0.0909
811.1958	0.0721
811.3651	-0.0596
811.5344	0.0851
811.7037	0.0729
811.873	0.0947
812.0422	-0.135
812.2115	0.0162
812.3807	-0.1289
812.5499	-0.028
812.7191	-0.1133
812.8882	-0.0307
813.0574	0.1019
813.2265	0.0899
813.3956	-0.0045
813.5646	0.1828
813.7337	0.0217
813.9027	-0.182
814.0718	-0.0002
814.2407	-0.0003
814.4097	0.062
814.5787	0.0803
814.7476	0.1082
814.9165	0.0231
815.0854	-0.0242
815.2543	0.0932
815.4232	0.0461
815.592	-0.0249
815.7608	-0.0814
815.9296	0.0166
816.0984	0.0718
816.2671	-0.2835
816.4359	0.042
816.6046	-0.0411
816.7733	0.0351
816.942	0.0131
817.1106	0.0329
817.2793	-0.052
817.4479	0.0389
817.6165	0.0596
817.785	0.0894
817.9536	-0.0054
818.1221	0.0038
818.2906	-0.1147
818.4591	0.0367
818.6276	0.0487
818.7961	-0.0653
818.9645	0.0774
819.1329	-0.0291
819.3013	-0.057
819.4697	0.2218
819.638	0.0367
819.8064	0.0442
819.9747	-0.029
820.143	-0.0993
820.3113	0.1174
820.4795	0.1069
820.6477	0.0887
820.816	0.0422
820.9842	0.0753
821.1523	0.0113
821.3205	-0.0044
821.4886	0.036
821.6567	-0.0872
821.8248	0.0776
821.9929	-0.1316
822.1609	-0.0265
822.329	-0.0637
822.497	-0.0173
822.665	-0.1376
822.833	0.0146
823.0009	-0.011
823.1688	0.2571
823.3367	-0.2438
823.5046	0.187
823.6725	0.0982
823.8404	0.1735
824.0082	-0.0596
824.176	-0.0827
824.3438	0.1726
824.5116	-0.0224
824.6793	0.0899
824.847	-0.1475
825.0147	0.0573
825.1824	-0.0006
825.3501	-0.0437
825.5177	-0.0468
825.6854	-0.1223
825.853	-0.0468
826.0206	-0.0763
826.1881	0.0453
826.3557	0.0287
826.5232	0.1413
826.6907	-0.0188
826.8582	-0.1385
827.0257	0.1695
827.1931	0.1015
827.3605	-0.0993
827.528	-0.0897
827.6953	-0.2312
827.8627	0.0975
828.03	0.0973
828.1974	0.2275
828.3647	0.1939
828.532	-0.0461
828.6992	0.1499
828.8665	-0.1012
829.0337	-0.0401
829.2009	-0.0922
829.3681	-0.0429
829.5352	-0.2357
829.7024	-0.0136
829.8695	-0.0639
830.0366	0.0765
830.2037	0.1229
830.3707	0.2982
830.5378	-0.0625
830.7048	-0.1615
830.8718	0.1467
831.0388	-0.1327
831.2057	0.1905
831.3727	-0.3125
831.5396	-0.0638
831.7065	-0.6971
831.8734	0.3273
832.0402	0.1257
832.2071	0.3042
832.3739	-0.2013
832.5407	-1.8442
832.7075	-0.4083
832.8742	0.0067
833.041	0.0402
833.2077	-0
833.3744	0.0747
833.541	0.1667
833.7077	0.1917
833.8743	0.1081
834.0409	0.0983
834.2075	0.0722
834.3741	-0.2665
834.5407	-0.1647
834.7072	0.0546
834.8737	0.1595
835.0402	0.7671
835.2067	-0.0329
835.3731	-0.097
835.5395	0.1077
835.706	0.0299
835.8723	-0.0126
836.0387	0.0052
836.2051	0.412
836.3714	-0.0146
836.5377	0.1601
836.704	0.25
836.8703	-0.1191
837.0365	-0.6219
837.2027	-0.0013
837.3689	0.3441
837.5351	0.091
837.7013	-0.1222
837.8674	-0.5266
838.0335	0.0044
838.1997	-0.3321
838.3657	-0
838.5318	-0.388
838.6978	0.0747
838.8639	-0.5806
839.0299	0.0418
839.1958	0.1646
839.3618	0.0252
839.5277	0.0823
839.6937	-0.2662
839.8596	0.0431
840.0254	-0.131
840.1913	-0.5575
840.3571	0.1807
840.523	-0
840.6888	0.0581
840.8545	-0.7098
841.0203	0.3015
841.186	0.0456
841.3517	-0.27
841.5174	-0.0313
841.6831	0.0771
841.8488	0.1973
842.0144	0.5437
842.18	0.2203
842.3456	-0.7247
842.5112	-0
842.6767	-0.1139
842.8422	0.051
843.0077	-0.076
843.1732	-0.4405
843.3387	-0
843.5042	-0
843.6696	-0.0025
843.835	-0.1915
844.0004	-0.1614
844.1657	-1.2437
844.3311	0.0239
844.4964	-0.4771
844.6617	0.6063
844.827	-0
844.9923	0.3112
845.1575	0.0718
845.3227	-0
845.4879	-0.4273
845.6531	-0.0989
845.8183	-0
845.9834	-0
846.1485	0.312
846.3136	-0.1304
846.4787	-0
846.6438	0.0113
846.8088	-0
846.9738	-0.5076
847.1388	0.0878
847.3038	0.1105
847.4687	0.3166
847.6337	-0
847.7986	0.2125
847.9635	-0.2161
848.1284	-0
848.2932	0.5209
848.458	-0
848.6228	0.2258
848.7876	0.2218
848.9524	-0
849.1172	-1.811
849.2819	-0
849.4466	0.2447
849.6113	0.3183
849.7759	-0.5837
849.9406	0.0084
850.1052	-0
850.2698	-0.1944
850.4344	-0.3442
850.599	-0.0888
850.7635	0.715
850.928	0.2692
851.0925	0.2516
851.257	0.7533
851.4215	-0.1028
851.5859	0.0581
851.7503	-0
851.9147	0.2746
852.0791	0.0731
852.2434	0.2464
852.4078	-0.1184
852.5721	-0
852.7364	-0.1856
852.9007	0.1071
853.0649	-0
853.2291	0.0273
853.3934	-0
853.5575	0.3258
853.7217	0.0991
853.8859	-0
854.05	-0.4339
854.2141	0.165
854.3782	0.2392
854.5423	0.2137
854.7063	-0.1224
854.8703	0.0813
855.0343	0.1388
855.1983	-0.0442
855.3623	0.1356
855.5262	-0
855.6901	0.7165
855.854	-0.001
856.0179	-0.0611
856.1818	-0
856.3456	0.6582
856.5094	-0
856.6732	-0.4771
856.837	-0
857.0008	-0.2046
857.1645	-0.0251
857.3282	-0.3096
857.4919	0.2863
857.6556	-0.2832
857.8192	-0.3408
857.9828	-0.0019
858.1465	0.1325
858.31	0.237
858.4736	-0.5761
858.6372	-0
858.8007	-0.1915
858.9642	0.541
859.1277	0.4805
859.2911	0.9496
859.4546	-0
859.618	0.787
859.7814	-0.5395
859.9448	-0
860.1081	-0.1568
860.2715	-0
860.4348	-0
860.5981	0.9458
860.7614	-0.0062
860.9246	-0
861.0879	0.0454
861.2511	-0
861.4143	-0.6118
861.5774	-0.1376
861.7406	-0.276
861.9037	-0
862.0668	-0.2281
862.2299	0.6268
862.393	-0.2201
862.556	-0
862.7191	-0.183
862.8821	-0.0566
863.0451	-0.2156
863.208	0.1578
863.371	-0.5816
863.5339	0.3278
863.6968	0.009
863.8597	1.3176
864.0225	-0
864.1854	-0
864.3482	-0
864.511	-0.066
864.6737	-0
864.8365	0.4713
864.9992	-0
865.1619	-0.266
865.3246	-1.9149
865.4873	-0.0621
865.65	-0.0231
865.8126	0.3747
865.9752	0.0337
866.1378	1.0442
866.3004	-0.1091
866.4629	-1.1761
866.6254	0.1218
866.7879	0.1447
866.9504	-0
867.1129	0.0256
867.2753	-0.0126
867.4377	0.8821
867.6001	-0.4222
867.7625	0.0692
867.9249	-0
868.0872	0.6964
868.2495	0.7082
868.4118	-0
868.5741	-0
868.7363	-0.8328
868.8986	-0.5102
869.0608	0.0356
869.223	-0.184
869.3851	1.4723
869.5473	-0.1005
869.7094	-0
869.8715	0.115
870.0336	-0.1917
870.1957	-0
870.3577	-0
870.5197	0.0581
870.6817	-0.8513
870.8437	-0.2503
871.0057	0.0211
871.1676	0.2334
871.3295	-0.224
871.4914	-0
871.6533	-0.0832
871.8151	-0
871.977	-0
872.1388	-0.339
872.3006	-0.3275
872.4623	-0.0709
872.6241	0.3735
872.7858	0.5962
872.9475	0.1412
873.1092	0.2815
873.2709	1.3213
873.4325	-1.7493
873.5941	-0
873.7557	-0
873.9173	0.529
874.0789	0.2395
874.2404	-0
874.4019	0.1117
874.5634	-0
874.7249	-0
874.8863	0.0577
875.0478	-0.2174
875.2092	-0
875.3706	0.5804
875.5319	-0
875.6933	0.1285
875.8546	0.3346
876.0159	0.0737
876.1772	-0.5718
876.3385	-0
876.4997	-0
876.6609	-0
876.8221	0.8547
876.9833	-0.158
877.1445	0.4668
877.3056	-0
877.4667	-0
877.6278	1.2831
877.7889	-0.2381
877.9499	-0
878.111	-0.1931
878.272	0.9496
878.433	-0
878.5939	0.2851
878.7549	-0
878.9158	0.32
879.0767	0.3184
879.2376	-0.3275
879.3984	1.5247
879.5593	0.114
879.7201	-1.8442
879.8809	-0.3572
880.0417	-0.3495
880.2024	0.1622
880.3632	-0.3635
880.5239	-0.1885
880.6846	-0
880.8452	-0.3964
881.0059	-0
881.1665	-0.2074
881.3271	-0
881.4877	1.0186
881.6483	-1.4847
881.8088	-0.2452
881.9693	-0
882.1298	-0
882.2903	-0
