Data from D4ACN5uM460nmA_Absorbance_13-05-42-020.txt Node
Date: Fri Feb 21 13:05:42 GMT 2025
User: LASERRRRR
Spectrometer: FLMT03099
Trigger mode: 0
Integration Time (sec): 1.500000E-2
Scans to average: 1
Electric dark correction enabled: true
Nonlinearity correction enabled: false
Boxcar width: 0
XAxis mode: Wavelengths
Number of Pixels in Spectrum: 3648
>>>>>Begin Spectral Data<<<<<
179.3399	-0
179.5586	-0
179.7771	-0
179.9957	-0.1788
180.2143	-0
180.4329	-0
180.6514	0.3452
180.8699	0.1191
181.0885	-0
181.307	-0.1736
181.5255	0.1457
181.744	0.7545
181.9625	0.909
182.181	-0
182.3994	-0.5215
182.6179	-0.2773
182.8363	-0
183.0547	-0
183.2732	0.1451
183.4916	0.3148
183.71	0.1727
183.9284	0.0964
184.1467	0.0323
184.3651	0.1545
184.5835	0.209
184.8018	0.2556
185.0201	0.0839
185.2385	0.0362
185.4568	0.0877
185.6751	0.0867
185.8934	0.3476
186.1117	0.1694
186.3299	0.1756
186.5482	0.1449
186.7664	0.1393
186.9847	0.0952
187.2029	0.4409
187.4211	0.0317
187.6393	0.1804
187.8575	0.3492
188.0757	0.4229
188.2939	0.2374
188.512	0.3647
188.7302	0.0262
188.9483	0.3111
189.1665	0.1627
189.3846	0.4774
189.6027	0.1214
189.8208	0.4042
190.0389	0.2028
190.257	0.2337
190.475	0.073
190.6931	0.259
190.9111	0.07
191.1292	0.1479
191.3472	0.0536
191.5652	0.7668
191.7832	0.2848
192.0012	0.1746
192.2192	0.1791
192.4371	0.1426
192.6551	0.125
192.873	0.2962
193.091	0.0846
193.3089	0.1149
193.5268	0.3245
193.7447	0.1758
193.9626	0.1192
194.1805	0.2129
194.3984	0.2502
194.6162	0.2742
194.8341	0.2908
195.0519	0.2302
195.2697	0.2237
195.4875	0.3096
195.7054	0.2703
195.9231	0.2167
196.1409	0.3617
196.3587	0.3657
196.5765	0.3266
196.7942	0.2827
197.012	0.3446
197.2297	0.3385
197.4474	0.5121
197.6651	0.307
197.8828	0.3166
198.1005	0.4028
198.3182	0.3717
198.5358	0.3689
198.7535	0.3873
198.9711	0.4391
199.1888	0.3887
199.4064	0.3958
199.624	0.3603
199.8416	0.3869
200.0592	0.39
200.2767	0.3997
200.4943	0.4728
200.7119	0.3924
200.9294	0.4334
201.1469	0.4467
201.3645	0.4855
201.582	0.3838
201.7995	0.4027
202.017	0.4285
202.2344	0.4387
202.4519	0.3942
202.6694	0.4128
202.8868	0.3951
203.1042	0.391
203.3217	0.4041
203.5391	0.419
203.7565	0.3898
203.9739	0.3704
204.1913	0.3698
204.4086	0.355
204.626	0.3788
204.8433	0.3926
205.0607	0.3815
205.278	0.3477
205.4953	0.3359
205.7126	0.3354
205.9299	0.3285
206.1472	0.3211
206.3644	0.3424
206.5817	0.2971
206.7989	0.3422
207.0162	0.3427
207.2334	0.3499
207.4506	0.3003
207.6678	0.3055
207.885	0.3073
208.1022	0.3051
208.3194	0.2852
208.5365	0.3038
208.7537	0.2815
208.9708	0.3126
209.1879	0.295
209.405	0.3053
209.6222	0.299
209.8392	0.3016
210.0563	0.292
210.2734	0.2789
210.4905	0.3055
210.7075	0.2823
210.9245	0.2857
211.1416	0.2787
211.3586	0.2842
211.5756	0.2424
211.7926	0.2588
212.0096	0.2717
212.2265	0.2818
212.4435	0.2949
212.6604	0.2654
212.8774	0.2592
213.0943	0.2459
213.3112	0.2705
213.5281	0.2665
213.745	0.2615
213.9619	0.2486
214.1788	0.268
214.3956	0.2395
214.6125	0.2531
214.8293	0.2562
215.0461	0.2623
215.2629	0.2579
215.4798	0.2417
215.6965	0.2497
215.9133	0.2516
216.1301	0.2465
216.3469	0.2404
216.5636	0.25
216.7803	0.2516
216.9971	0.2585
217.2138	0.2459
217.4305	0.2478
217.6472	0.2633
217.8639	0.2437
218.0805	0.261
218.2972	0.2505
218.5138	0.252
218.7305	0.261
218.9471	0.2411
219.1637	0.265
219.3803	0.2593
219.5969	0.2674
219.8135	0.2657
220.0301	0.2752
220.2466	0.2742
220.4632	0.2458
220.6797	0.2552
220.8962	0.263
221.1127	0.2673
221.3292	0.2696
221.5457	0.2819
221.7622	0.2605
221.9787	0.2868
222.1951	0.2812
222.4116	0.2845
222.628	0.3003
222.8444	0.2818
223.0608	0.2807
223.2772	0.2909
223.4936	0.2824
223.71	0.3026
223.9264	0.2822
224.1427	0.296
224.3591	0.285
224.5754	0.2913
224.7917	0.2872
225.008	0.2947
225.2243	0.3096
225.4406	0.2931
225.6569	0.3052
225.8732	0.3137
226.0894	0.3122
226.3057	0.3153
226.5219	0.3285
226.7381	0.3177
226.9543	0.309
227.1705	0.3126
227.3867	0.3266
227.6029	0.3292
227.8191	0.3431
228.0352	0.3417
228.2513	0.3345
228.4675	0.337
228.6836	0.3464
228.8997	0.3478
229.1158	0.3553
229.3319	0.354
229.548	0.3519
229.764	0.3528
229.9801	0.377
230.1961	0.3907
230.4121	0.37
230.6282	0.3918
230.8442	0.3988
231.0602	0.3819
231.2761	0.3889
231.4921	0.3894
231.7081	0.3974
231.924	0.4054
232.14	0.4031
232.3559	0.3989
232.5718	0.4139
232.7877	0.4133
233.0036	0.4136
233.2195	0.42
233.4353	0.4193
233.6512	0.4209
233.867	0.4219
234.0829	0.4201
234.2987	0.4393
234.5145	0.4342
234.7303	0.4409
234.9461	0.4422
235.1619	0.4314
235.3776	0.4324
235.5934	0.426
235.8091	0.4436
236.0249	0.4561
236.2406	0.4378
236.4563	0.4495
236.672	0.4395
236.8877	0.4519
237.1034	0.4451
237.319	0.4564
237.5347	0.4559
237.7503	0.4468
237.966	0.4558
238.1816	0.4573
238.3972	0.4616
238.6128	0.4715
238.8284	0.4706
239.0439	0.4583
239.2595	0.4555
239.475	0.4624
239.6906	0.4555
239.9061	0.4651
240.1216	0.4624
240.3371	0.4624
240.5526	0.4632
240.7681	0.464
240.9836	0.4444
241.199	0.449
241.4145	0.4498
241.6299	0.447
241.8453	0.4372
242.0607	0.4367
242.2761	0.4419
242.4915	0.4287
242.7069	0.415
242.9223	0.4168
243.1376	0.4131
243.353	0.3994
243.5683	0.391
243.7836	0.3864
243.9989	0.3681
244.2142	0.3751
244.4295	0.3637
244.6448	0.3635
244.86	0.3559
245.0753	0.341
245.2905	0.3315
245.5057	0.3348
245.721	0.3297
245.9362	0.3194
246.1514	0.3153
246.3665	0.3045
246.5817	0.2944
246.7969	0.297
247.012	0.2924
247.2271	0.2855
247.4423	0.2749
247.6574	0.2798
247.8725	0.2726
248.0876	0.2637
248.3026	0.2649
248.5177	0.2574
248.7328	0.25
248.9478	0.2513
249.1628	0.2435
249.3779	0.2383
249.5929	0.2387
249.8079	0.2368
250.0228	0.232
250.2378	0.232
250.4528	0.2186
250.6677	0.2232
250.8827	0.2129
251.0976	0.2163
251.3125	0.2174
251.5274	0.2105
251.7423	0.2088
251.9572	0.2031
252.172	0.2055
252.3869	0.2095
252.6017	0.199
252.8166	0.1982
253.0314	0.194
253.2462	0.1972
253.461	0.1963
253.6758	0.1974
253.8906	0.1911
254.1053	0.1909
254.3201	0.1892
254.5348	0.1802
254.7496	0.1841
254.9643	0.1863
255.179	0.1851
255.3937	0.1856
255.6083	0.1887
255.823	0.1881
256.0377	0.1822
256.2523	0.1789
256.467	0.1915
256.6816	0.1791
256.8962	0.1797
257.1108	0.1773
257.3254	0.1805
257.54	0.1758
257.7545	0.1843
257.9691	0.1793
258.1836	0.1721
258.3981	0.1826
258.6127	0.1737
258.8272	0.1757
259.0417	0.1746
259.2561	0.1756
259.4706	0.1746
259.6851	0.1741
259.8995	0.1755
260.114	0.1742
260.3284	0.1744
260.5428	0.1719
260.7572	0.1748
260.9716	0.1771
261.186	0.1753
261.4003	0.1707
261.6147	0.1686
261.829	0.1713
262.0433	0.1747
262.2577	0.1743
262.472	0.1769
262.6863	0.1815
262.9005	0.1752
263.1148	0.1734
263.3291	0.1799
263.5433	0.1784
263.7576	0.1772
263.9718	0.173
264.186	0.1762
264.4002	0.181
264.6144	0.1833
264.8286	0.1764
265.0427	0.1824
265.2569	0.179
265.471	0.1804
265.6851	0.1755
265.8993	0.1734
266.1134	0.1751
266.3275	0.1727
266.5415	0.1798
266.7556	0.1798
266.9697	0.1786
267.1837	0.1714
267.3978	0.1808
267.6118	0.1754
267.8258	0.1819
268.0398	0.1768
268.2538	0.1796
268.4677	0.1767
268.6817	0.1735
268.8957	0.1684
269.1096	0.1707
269.3235	0.1739
269.5374	0.176
269.7514	0.1762
269.9652	0.1702
270.1791	0.1702
270.393	0.1682
270.6068	0.1735
270.8207	0.1655
271.0345	0.1689
271.2483	0.1698
271.4622	0.1718
271.676	0.166
271.8897	0.168
272.1035	0.1703
272.3173	0.1657
272.531	0.168
272.7448	0.1619
272.9585	0.1578
273.1722	0.1635
273.3859	0.1599
273.5996	0.1642
273.8133	0.1708
274.0269	0.1609
274.2406	0.1695
274.4542	0.1679
274.6679	0.1665
274.8815	0.1698
275.0951	0.1781
275.3087	0.1718
275.5223	0.1751
275.7358	0.171
275.9494	0.1692
276.1629	0.1771
276.3765	0.1746
276.59	0.1675
276.8035	0.1623
277.017	0.1754
277.2305	0.1758
277.444	0.1713
277.6574	0.1746
277.8709	0.1789
278.0843	0.1709
278.2978	0.1767
278.5112	0.1741
278.7246	0.1736
278.938	0.1709
279.1513	0.1781
279.3647	0.1755
279.5781	0.1725
279.7914	0.1741
280.0047	0.1768
280.2181	0.1758
280.4314	0.1809
280.6447	0.1785
280.8579	0.1733
281.0712	0.1752
281.2845	0.1785
281.4977	0.1824
281.711	0.1769
281.9242	0.1742
282.1374	0.1751
282.3506	0.1767
282.5638	0.1789
282.7769	0.1776
282.9901	0.1798
283.2033	0.1812
283.4164	0.1825
283.6295	0.1807
283.8426	0.1776
284.0557	0.1841
284.2688	0.1837
284.4819	0.1789
284.695	0.1822
284.908	0.1749
285.1211	0.1855
285.3341	0.1744
285.5471	0.1891
285.7601	0.1878
285.9731	0.1853
286.1861	0.1838
286.3991	0.1896
286.612	0.1896
286.825	0.1845
287.0379	0.1871
287.2508	0.1868
287.4637	0.1904
287.6766	0.1829
287.8895	0.1876
288.1024	0.1853
288.3152	0.1939
288.5281	0.1811
288.7409	0.1924
288.9538	0.1894
289.1666	0.1895
289.3794	0.1946
289.5922	0.1936
289.8049	0.1893
290.0177	0.1978
290.2304	0.1892
290.4432	0.1942
290.6559	0.1916
290.8686	0.1906
291.0813	0.1912
291.294	0.1886
291.5067	0.191
291.7194	0.1896
291.932	0.1911
292.1447	0.1944
292.3573	0.1906
292.5699	0.1966
292.7825	0.1887
292.9951	0.1909
293.2077	0.1951
293.4203	0.1927
293.6328	0.1961
293.8454	0.1913
294.0579	0.1944
294.2704	0.1988
294.4829	0.1917
294.6954	0.1946
294.9079	0.196
295.1204	0.1886
295.3328	0.197
295.5453	0.1942
295.7577	0.1949
295.9701	0.1974
296.1825	0.1975
296.3949	0.1946
296.6073	0.1936
296.8197	0.1946
297.0321	0.1951
297.2444	0.19
297.4567	0.1902
297.6691	0.1921
297.8814	0.1927
298.0937	0.1918
298.306	0.1911
298.5182	0.1997
298.7305	0.1919
298.9428	0.1929
299.155	0.1868
299.3672	0.192
299.5794	0.192
299.7916	0.1995
300.0038	0.1917
300.216	0.194
300.4282	0.1947
300.6403	0.191
300.8525	0.1944
301.0646	0.194
301.2767	0.1922
301.4888	0.1882
301.7009	0.2011
301.913	0.1953
302.125	0.1897
302.3371	0.1938
302.5491	0.1895
302.7612	0.198
302.9732	0.1945
303.1852	0.192
303.3972	0.1941
303.6092	0.1905
303.8211	0.1923
304.0331	0.1885
304.245	0.1861
304.457	0.1926
304.6689	0.1898
304.8808	0.189
305.0927	0.191
305.3046	0.1861
305.5164	0.1865
305.7283	0.1816
305.9401	0.1763
306.152	0.1799
306.3638	0.1766
306.5756	0.1792
306.7874	0.1764
306.9992	0.1726
307.2109	0.1713
307.4227	0.1734
307.6344	0.1708
307.8462	0.1677
308.0579	0.1704
308.2696	0.1653
308.4813	0.1662
308.693	0.1573
308.9046	0.1686
309.1163	0.1612
309.328	0.1566
309.5396	0.1521
309.7512	0.152
309.9628	0.1538
310.1744	0.1472
310.386	0.1445
310.5976	0.1489
310.8091	0.1513
311.0207	0.1446
311.2322	0.1454
311.4437	0.1384
311.6552	0.1426
311.8667	0.1452
312.0782	0.1426
312.2897	0.1438
312.5012	0.1353
312.7126	0.1271
312.924	0.1352
313.1355	0.1294
313.3469	0.1331
313.5583	0.1344
313.7696	0.1281
313.981	0.131
314.1924	0.128
314.4037	0.129
314.6151	0.1262
314.8264	0.1311
315.0377	0.1299
315.249	0.1279
315.4603	0.1219
315.6716	0.1231
315.8828	0.1237
316.0941	0.1234
316.3053	0.1197
316.5165	0.1222
316.7277	0.113
316.9389	0.1266
317.1501	0.1229
317.3613	0.1216
317.5724	0.1274
317.7836	0.1178
317.9947	0.1159
318.2058	0.1209
318.417	0.1204
318.6281	0.1182
318.8391	0.1202
319.0502	0.1224
319.2613	0.1171
319.4723	0.1112
319.6834	0.1201
319.8944	0.1167
320.1054	0.1192
320.3164	0.119
320.5274	0.1222
320.7383	0.1198
320.9493	0.1189
321.1602	0.1178
321.3712	0.1197
321.5821	0.1149
321.793	0.1272
322.0039	0.1204
322.2148	0.1229
322.4257	0.12
322.6365	0.1147
322.8474	0.1218
323.0582	0.1247
323.269	0.1219
323.4798	0.1242
323.6906	0.1147
323.9014	0.1139
324.1122	0.1151
324.3229	0.1236
324.5337	0.1264
324.7444	0.126
324.9551	0.1261
325.1658	0.122
325.3765	0.1263
325.5872	0.1207
325.7979	0.1253
326.0085	0.1221
326.2192	0.1209
326.4298	0.1259
326.6404	0.129
326.851	0.1186
327.0616	0.1278
327.2722	0.1297
327.4828	0.122
327.6933	0.1339
327.9039	0.126
328.1144	0.1181
328.3249	0.1253
328.5354	0.1253
328.7459	0.1287
328.9564	0.1263
329.1669	0.128
329.3773	0.1271
329.5878	0.1275
329.7982	0.1262
330.0086	0.1283
330.219	0.1261
330.4294	0.1333
330.6398	0.1261
330.8502	0.1319
331.0605	0.1327
331.2708	0.1254
331.4812	0.1288
331.6915	0.1302
331.9018	0.1309
332.1121	0.1362
332.3224	0.1291
332.5326	0.1268
332.7429	0.1336
332.9531	0.1341
333.1633	0.1215
333.3735	0.1296
333.5837	0.1307
333.7939	0.1315
334.0041	0.1307
334.2143	0.1283
334.4244	0.1388
334.6346	0.1323
334.8447	0.1319
335.0548	0.1346
335.2649	0.1381
335.475	0.1313
335.685	0.1292
335.8951	0.1311
336.1051	0.1347
336.3152	0.138
336.5252	0.1303
336.7352	0.1302
336.9452	0.1408
337.1552	0.1389
337.3652	0.1279
337.5751	0.1313
337.7851	0.1336
337.995	0.1448
338.2049	0.1367
338.4148	0.1395
338.6247	0.1427
338.8346	0.1328
339.0445	0.1373
339.2543	0.1368
339.4642	0.1344
339.674	0.1305
339.8838	0.1347
340.0936	0.1373
340.3034	0.1357
340.5132	0.1322
340.7229	0.1419
340.9327	0.1457
341.1424	0.1423
341.3522	0.1372
341.5619	0.1432
341.7716	0.1441
341.9813	0.147
342.1909	0.1357
342.4006	0.1493
342.6102	0.1474
342.8199	0.1443
343.0295	0.1456
343.2391	0.1463
343.4487	0.1488
343.6583	0.1585
343.8679	0.15
344.0774	0.148
344.287	0.1554
344.4965	0.1515
344.706	0.1505
344.9155	0.1534
345.125	0.1526
345.3345	0.1638
345.544	0.1555
345.7534	0.154
345.9629	0.1557
346.1723	0.1627
346.3817	0.1548
346.5911	0.1553
346.8005	0.1613
347.0099	0.1618
347.2193	0.1609
347.4286	0.1668
347.638	0.1598
347.8473	0.1687
348.0566	0.1577
348.2659	0.1633
348.4752	0.1643
348.6845	0.1699
348.8937	0.1601
349.103	0.1636
349.3122	0.161
349.5214	0.1693
349.7306	0.1756
349.9398	0.1713
350.149	0.1657
350.3582	0.1665
350.5674	0.1684
350.7765	0.1703
350.9856	0.1746
351.1948	0.1758
351.4039	0.177
351.613	0.174
351.822	0.1837
352.0311	0.1698
352.2402	0.1761
352.4492	0.1785
352.6582	0.1774
352.8672	0.1772
353.0762	0.1836
353.2852	0.187
353.4942	0.1864
353.7032	0.1796
353.9121	0.1825
354.1211	0.1851
354.33	0.1825
354.5389	0.1852
354.7478	0.1824
354.9567	0.1859
355.1655	0.1851
355.3744	0.1807
355.5833	0.1828
355.7921	0.1907
356.0009	0.1881
356.2097	0.1803
356.4185	0.1859
356.6273	0.1916
356.8361	0.1835
357.0448	0.1867
357.2536	0.1841
357.4623	0.1903
357.671	0.1969
357.8797	0.1967
358.0884	0.188
358.2971	0.1927
358.5057	0.1933
358.7144	0.1996
358.923	0.2
359.1316	0.2064
359.3402	0.1979
359.5488	0.195
359.7574	0.2007
359.966	0.203
360.1746	0.1951
360.3831	0.2108
360.5916	0.2074
360.8002	0.2154
361.0087	0.2079
361.2172	0.2061
361.4256	0.211
361.6341	0.2136
361.8426	0.2085
362.051	0.2166
362.2594	0.2128
362.4678	0.2195
362.6762	0.2176
362.8846	0.2185
363.093	0.2165
363.3014	0.2266
363.5097	0.219
363.718	0.2229
363.9264	0.223
364.1347	0.2196
364.343	0.2278
364.5513	0.225
364.7595	0.2333
364.9678	0.2195
365.176	0.2289
365.3842	0.2322
365.5925	0.2262
365.8007	0.2249
366.0089	0.2426
366.217	0.2366
366.4252	0.2391
366.6333	0.2369
366.8415	0.2411
367.0496	0.2334
367.2577	0.2378
367.4658	0.2403
367.6739	0.2399
367.882	0.2453
368.09	0.2369
368.2981	0.2469
368.5061	0.2431
368.7141	0.2398
368.9221	0.2537
369.1301	0.2502
369.3381	0.2526
369.5461	0.2471
369.754	0.2525
369.962	0.246
370.1699	0.2633
370.3778	0.2612
370.5857	0.2531
370.7936	0.2608
371.0015	0.2579
371.2093	0.2528
371.4172	0.2619
371.625	0.2628
371.8328	0.2605
372.0406	0.2752
372.2484	0.261
372.4562	0.2671
372.664	0.2597
372.8717	0.2676
373.0795	0.2685
373.2872	0.2667
373.4949	0.2767
373.7026	0.2644
373.9103	0.2682
374.118	0.2693
374.3256	0.2753
374.5333	0.2743
374.7409	0.2747
374.9485	0.2733
375.1561	0.2755
375.3637	0.2715
375.5713	0.2865
375.7789	0.2763
375.9864	0.2747
376.194	0.2792
376.4015	0.2806
376.609	0.2763
376.8165	0.2846
377.024	0.2845
377.2315	0.2789
377.4389	0.2783
377.6464	0.2929
377.8538	0.2893
378.0612	0.2874
378.2686	0.2794
378.476	0.294
378.6834	0.29
378.8908	0.2935
379.0981	0.2944
379.3055	0.2855
379.5128	0.2902
379.7201	0.2959
379.9274	0.2991
380.1347	0.2981
380.342	0.2999
380.5492	0.2903
380.7565	0.2925
380.9637	0.303
381.1709	0.2947
381.3781	0.301
381.5853	0.2965
381.7925	0.303
381.9997	0.2969
382.2068	0.3016
382.4139	0.2982
382.6211	0.3066
382.8282	0.3091
383.0353	0.3105
383.2424	0.3064
383.4494	0.2986
383.6565	0.3163
383.8635	0.3049
384.0706	0.3178
384.2776	0.2982
384.4846	0.3052
384.6916	0.3069
384.8986	0.3093
385.1055	0.3194
385.3125	0.3153
385.5194	0.3249
385.7263	0.3071
385.9333	0.3229
386.1402	0.3068
386.347	0.3071
386.5539	0.3129
386.7608	0.3061
386.9676	0.3144
387.1744	0.3081
387.3813	0.3053
387.5881	0.3003
387.7948	0.3179
388.0016	0.3219
388.2084	0.3036
388.4151	0.3137
388.6219	0.3031
388.8286	0.3131
389.0353	0.3052
389.242	0.3144
389.4487	0.3043
389.6553	0.3038
389.862	0.3025
390.0686	0.3006
390.2753	0.3025
390.4819	0.2953
390.6885	0.2936
390.8951	0.2974
391.1016	0.3025
391.3082	0.3049
391.5147	0.2906
391.7213	0.2984
391.9278	0.2949
392.1343	0.2904
392.3408	0.297
392.5473	0.2901
392.7537	0.2928
392.9602	0.2827
393.1666	0.2982
393.373	0.2862
393.5794	0.28
393.7858	0.2847
393.9922	0.2821
394.1986	0.2824
394.4049	0.2817
394.6113	0.2846
394.8176	0.2812
395.0239	0.2702
395.2302	0.2731
395.4365	0.2775
395.6428	0.2782
395.8491	0.2798
396.0553	0.2697
396.2615	0.2784
396.4678	0.2786
396.674	0.269
396.8802	0.2657
397.0863	0.2681
397.2925	0.2705
397.4987	0.267
397.7048	0.2763
397.9109	0.2606
398.117	0.2675
398.3231	0.2678
398.5292	0.263
398.7353	0.2621
398.9413	0.2679
399.1474	0.2581
399.3534	0.2632
399.5594	0.2703
399.7654	0.2629
399.9714	0.2635
400.1774	0.2657
400.3833	0.2637
400.5893	0.2604
400.7952	0.2675
401.0011	0.2643
401.207	0.2513
401.4129	0.2645
401.6188	0.257
401.8247	0.2695
402.0305	0.2543
402.2364	0.2608
402.4422	0.2631
402.648	0.2672
402.8538	0.2647
403.0596	0.269
403.2654	0.2676
403.4711	0.2647
403.6768	0.2601
403.8826	0.2675
404.0883	0.2674
404.294	0.2629
404.4997	0.2628
404.7054	0.2571
404.911	0.2576
405.1167	0.2673
405.3223	0.2564
405.5279	0.2602
405.7335	0.2548
405.9391	0.2593
406.1447	0.2662
406.3502	0.262
406.5558	0.2593
406.7613	0.2588
406.9668	0.2475
407.1724	0.27
407.3778	0.2607
407.5833	0.258
407.7888	0.2634
407.9942	0.2664
408.1997	0.2645
408.4051	0.2583
408.6105	0.2711
408.8159	0.2603
409.0213	0.268
409.2267	0.2604
409.432	0.2626
409.6374	0.2623
409.8427	0.27
410.048	0.2605
410.2533	0.2585
410.4586	0.2562
410.6639	0.2648
410.8691	0.2531
411.0744	0.2554
411.2796	0.2535
411.4848	0.2635
411.69	0.2487
411.8952	0.2639
412.1004	0.2651
412.3056	0.2623
412.5107	0.2642
412.7158	0.2742
412.921	0.256
413.1261	0.2644
413.3312	0.2573
413.5362	0.2707
413.7413	0.2609
413.9464	0.2503
414.1514	0.2543
414.3564	0.2608
414.5614	0.2588
414.7664	0.2473
414.9714	0.2589
415.1764	0.2576
415.3813	0.2551
415.5863	0.2594
415.7912	0.2583
415.9961	0.2498
416.201	0.2647
416.4059	0.2551
416.6108	0.2553
416.8156	0.2407
417.0205	0.2604
417.2253	0.2461
417.4301	0.2564
417.6349	0.2564
417.8397	0.2536
418.0445	0.2489
418.2492	0.2494
418.454	0.245
418.6587	0.2561
418.8634	0.2574
419.0681	0.2604
419.2728	0.2547
419.4775	0.2567
419.6822	0.2467
419.8868	0.2482
420.0915	0.2405
420.2961	0.2312
420.5007	0.2504
420.7053	0.24
420.9099	0.2484
421.1144	0.2456
421.319	0.2335
421.5235	0.2286
421.728	0.2438
421.9325	0.2391
422.137	0.2366
422.3415	0.2373
422.546	0.2258
422.7504	0.2378
422.9549	0.2434
423.1593	0.2259
423.3637	0.2376
423.5681	0.2365
423.7725	0.225
423.9769	0.2339
424.1812	0.2238
424.3856	0.2179
424.5899	0.2215
424.7942	0.2207
424.9985	0.2245
425.2028	0.236
425.4071	0.2242
425.6113	0.2345
425.8156	0.2356
426.0198	0.2186
426.224	0.2289
426.4282	0.2174
426.6324	0.2128
426.8366	0.223
427.0407	0.2201
427.2449	0.2199
427.449	0.2154
427.6531	0.2207
427.8572	0.219
428.0613	0.219
428.2654	0.2185
428.4694	0.2012
428.6735	0.2106
428.8775	0.2045
429.0815	0.2053
429.2855	0.2142
429.4895	0.2068
429.6935	0.2004
429.8975	0.1957
430.1014	0.2093
430.3053	0.2037
430.5093	0.1927
430.7132	0.1877
430.9171	0.1895
431.1209	0.1925
431.3248	0.1837
431.5286	0.1844
431.7325	0.19
431.9363	0.1837
432.1401	0.1873
432.3439	0.1784
432.5477	0.1738
432.7514	0.1819
432.9552	0.1759
433.1589	0.165
433.3627	0.1753
433.5664	0.1553
433.7701	0.1682
433.9737	0.1687
434.1774	0.168
434.3811	0.1525
434.5847	0.1591
434.7883	0.1651
434.9919	0.1554
435.1955	0.1552
435.3991	0.1495
435.6027	0.1537
435.8062	0.1672
436.0098	0.143
436.2133	0.1411
436.4168	0.1459
436.6203	0.1336
436.8238	0.1365
437.0272	0.1424
437.2307	0.1348
437.4341	0.137
437.6375	0.1384
437.841	0.1301
438.0443	0.1333
438.2477	0.1315
438.4511	0.1211
438.6545	0.1284
438.8578	0.1325
439.0611	0.1319
439.2644	0.1183
439.4677	0.1171
439.671	0.1079
439.8743	0.1188
440.0775	0.1126
440.2808	0.114
440.484	0.1093
440.6872	0.1197
440.8904	0.105
441.0936	0.1116
441.2967	0.0955
441.4999	0.1024
441.703	0.0979
441.9062	0.1057
442.1093	0.1074
442.3124	0.0965
442.5155	0.1015
442.7185	0.1022
442.9216	0.0897
443.1246	0.0935
443.3276	0.0939
443.5307	0.0834
443.7337	0.0914
443.9366	0.0839
444.1396	0.0847
444.3426	0.0826
444.5455	0.0795
444.7484	0.076
444.9513	0.0725
445.1542	0.0777
445.3571	0.0732
445.56	0.0708
445.7628	0.0706
445.9657	0.0752
446.1685	0.0678
446.3713	0.0741
446.5741	0.0716
446.7769	0.0697
446.9797	0.071
447.1824	0.0577
447.3852	0.0547
447.5879	0.0621
447.7906	0.0517
447.9933	0.0615
448.196	0.0577
448.3986	0.0566
448.6013	0.0395
448.8039	0.0636
449.0066	0.0654
449.2092	0.0559
449.4118	0.054
449.6143	0.0557
449.8169	0.0522
450.0195	0.0546
450.222	0.0546
450.4245	0.0468
450.627	0.0512
450.8295	0.0527
451.032	0.0566
451.2345	0.0408
451.4369	0.0518
451.6394	0.04
451.8418	0.0479
452.0442	0.0424
452.2466	0.0309
452.449	0.0363
452.6513	0.0373
452.8537	0.0332
453.056	0.0472
453.2583	0.0329
453.4607	0.0279
453.663	0.033
453.8652	0.0276
454.0675	0.0447
454.2697	0.0361
454.472	0.0253
454.6742	0.0323
454.8764	0.0367
455.0786	0.028
455.2808	0.0262
455.4829	0.0328
455.6851	0.0305
455.8872	0.014
456.0893	0.0346
456.2915	0.0253
456.4935	0.0387
456.6956	0.0283
456.8977	0.0248
457.0997	0.0348
457.3018	0.0224
457.5038	0.03
457.7058	0.0309
457.9078	0.0244
458.1098	0.027
458.3117	0.0347
458.5137	0.0112
458.7156	0.0257
458.9175	0.0246
459.1194	0.0228
459.3213	0.0129
459.5232	0.017
459.725	0.0247
459.9269	0.0125
460.1287	0.0192
460.3305	0.0214
460.5323	0.0175
460.7341	0.0222
460.9359	0.0203
461.1376	0.0239
461.3394	0.0122
461.5411	0.0215
461.7428	0.0104
461.9445	0.0153
462.1462	0.0176
462.3479	0.0152
462.5495	0.0166
462.7512	0.0286
462.9528	0.0169
463.1544	0.0055
463.356	0.0157
463.5576	0.0211
463.7592	0.013
463.9607	0.0145
464.1623	0.0133
464.3638	0.0054
464.5653	0.0117
464.7668	0.0238
464.9683	0.0087
465.1697	0.0107
465.3712	0.01
465.5726	0.0048
465.7741	0.0146
465.9755	0.0049
466.1769	0.0112
466.3782	0.0094
466.5796	0.0131
466.7809	0.015
466.9823	0.0149
467.1836	0.0184
467.3849	0.0107
467.5862	-0.0011
467.7875	0.0077
467.9887	0.0046
468.19	0.006
468.3912	0.0145
468.5924	0.0018
468.7936	0.0051
468.9948	-0.001
469.196	0.0103
469.3972	0.0086
469.5983	0.005
469.7994	0.0054
470.0006	0.0104
470.2017	0.0047
470.4027	0.019
470.6038	0.005
470.8049	0.0118
471.0059	0.0194
471.2069	0.0053
471.408	0.0124
471.6089	0.0181
471.8099	0.0121
472.0109	0.0086
472.2119	0.0103
472.4128	0.0019
472.6137	0.0072
472.8146	0.0069
473.0155	0.0096
473.2164	0.008
473.4173	-0.0042
473.6181	0.0058
473.819	0.0056
474.0198	-0.0055
474.2206	0.002
474.4214	0.0076
474.6222	-0.0092
474.8229	0.0104
475.0237	0.0038
475.2244	0.0109
475.4251	0.0053
475.6258	-0.0011
475.8265	0.0055
476.0272	-0.0071
476.2278	0.0078
476.4285	0.0042
476.6291	0.0129
476.8297	0.0105
477.0303	-0.006
477.2309	0.0077
477.4315	0.0102
477.632	0.0012
477.8326	0.0085
478.0331	0.0151
478.2336	0.0043
478.4341	0.0103
478.6346	0.0045
478.8351	0.0052
479.0355	0.0069
479.236	0.0108
479.4364	0.0064
479.6368	0.0039
479.8372	0.0014
480.0376	0.0111
480.2379	0.002
480.4383	0.0071
480.6386	-0.0003
480.8389	-0.0004
481.0392	0.009
481.2395	0.0083
481.4398	0.0115
481.6401	0.0043
481.8403	-0.0001
482.0405	0.0008
482.2408	0.0127
482.441	0.0107
482.6411	0.0008
482.8413	0.0036
483.0415	0.0101
483.2416	0.0031
483.4417	0.0155
483.6419	0.0022
483.8419	0.0048
484.042	0.0016
484.2421	-0.0022
484.4422	0.0003
484.6422	0.0063
484.8422	0.0039
485.0422	0.0027
485.2422	-0.0003
485.4422	0.0031
485.6422	0.0015
485.8421	-0.0019
486.042	0.008
486.242	0.0003
486.4419	0.0061
486.6417	0.0041
486.8416	0.0074
487.0415	0.0005
487.2413	-0.0029
487.4411	0.0019
487.641	0.0019
487.8408	0.0051
488.0405	0.0097
488.2403	0.0003
488.4401	0.0028
488.6398	0.005
488.8395	-0.001
489.0392	0.003
489.2389	0.0088
489.4386	0.002
489.6383	0.0096
489.8379	-0.0029
490.0376	0.0064
490.2372	0.0021
490.4368	0.0037
490.6364	-0.0038
490.836	0.0083
491.0355	0.0031
491.2351	0.0018
491.4346	0.0045
491.6341	0.0008
491.8336	0.0088
492.0331	-0.0002
492.2326	0.008
492.432	0.0049
492.6315	0.015
492.8309	0.0056
493.0303	0.002
493.2297	0.0095
493.4291	-0.0015
493.6284	0.0197
493.8278	-0.0015
494.0271	-0.0027
494.2264	-0.0024
494.4257	0.0071
494.625	-0.0042
494.8243	0.0007
495.0236	0.0042
495.2228	0.0084
495.422	0.0058
495.6213	0.0026
495.8205	0.0112
496.0196	0.0045
496.2188	0.0063
496.418	0.0014
496.6171	0.0028
496.8162	0.0049
497.0153	0.0039
497.2144	-0.0021
497.4135	0.0059
497.6126	0.0028
497.8116	-0.002
498.0107	0.0087
498.2097	0.0057
498.4087	0.0012
498.6077	-0.0076
498.8067	0.0077
499.0056	0.0065
499.2046	0.0097
499.4035	-0.0002
499.6024	-0.0018
499.8013	0.0118
500.0002	0.0084
500.199	0.0115
500.3979	-0.0006
500.5967	0.0047
500.7956	0.0058
500.9944	-0
501.1932	0.0147
501.3919	0.0092
501.5907	0.0017
501.7895	0.0037
501.9882	0.0062
502.1869	0.0076
502.3856	0.0004
502.5843	0.0034
502.783	-0.0052
502.9816	0.0099
503.1803	0.0037
503.3789	0.0096
503.5775	-0.0004
503.7761	-0.0021
503.9747	-0.0002
504.1732	0
504.3718	0.0216
504.5703	0.003
504.7689	-0.0032
504.9674	0.0008
505.1658	0.0044
505.3643	0.0042
505.5628	0.0083
505.7612	0.0091
505.9597	-0.0092
506.1581	0.0028
506.3565	-0.0033
506.5549	-0.0012
506.7532	-0.0026
506.9516	0.0031
507.1499	0.0041
507.3482	0.0076
507.5465	0.0086
507.7448	0.0046
507.9431	0.0122
508.1414	-0.003
508.3396	0.0023
508.5379	0.0065
508.7361	0.013
508.9343	0.0007
509.1325	0.0137
509.3306	0.0019
509.5288	-0.0024
509.7269	0.012
509.9251	0.0078
510.1232	0.0021
510.3213	0.0052
510.5193	-0.0054
510.7174	-0.0002
510.9154	0.0157
511.1135	-0.0075
511.3115	-0.0005
511.5095	0.0028
511.7075	0.0068
511.9055	0.0005
512.1034	0.004
512.3014	0.0009
512.4993	0.0069
512.6972	0.0078
512.8951	0.0113
513.093	-0.0044
513.2908	0.0074
513.4887	0.0065
513.6865	0.0091
513.8844	0.0087
514.0822	0.0071
514.2799	-0.0024
514.4777	0.0022
514.6755	-0.0001
514.8732	-0.0004
515.0709	0.0032
515.2687	0.0061
515.4664	0.0111
515.664	0.0146
515.8617	0.0066
516.0594	-0.0032
516.257	0.0062
516.4546	0.0187
516.6522	0.0017
516.8498	0.0058
517.0474	-0.0035
517.2449	0.0032
517.4425	0.0026
517.64	0.0048
517.8375	0.0121
518.035	0.0029
518.2325	0.0007
518.43	0.0004
518.6274	0.0058
518.8249	-0.0022
519.0223	0.0157
519.2197	0.0078
519.4171	0.0023
519.6145	0.0021
519.8118	-0.0063
520.0092	-0.0008
520.2065	0.0086
520.4038	0.0023
520.6011	0.0072
520.7984	0.011
520.9956	0.0059
521.1929	0.0084
521.3901	0.0092
521.5874	0.0169
521.7846	-0.0018
521.9818	-0.0016
522.1789	-0.0036
522.3761	0.0191
522.5732	0.0023
522.7704	-0.0089
522.9675	-0.0006
523.1646	-0.0041
523.3617	0.0089
523.5587	-0.0084
523.7558	0.0021
523.9528	0.012
524.1498	0.0091
524.3468	0.0058
524.5438	0.0045
524.7408	-0.0019
524.9378	0.0041
525.1347	0.0056
525.3316	0.0087
525.5285	-0.0035
525.7254	0.0119
525.9223	0.0166
526.1192	0.0107
526.316	0.0087
526.5129	0.0034
526.7097	-0.0015
526.9065	0.0044
527.1033	0.0064
527.3	0.007
527.4968	0.0024
527.6935	-0.0007
527.8903	0.0075
528.087	0.01
528.2837	0.01
528.4804	-0
528.677	0.0017
528.8737	0.0008
529.0703	-0.0039
529.2669	0.0025
529.4635	-0.0019
529.6601	-0.0037
529.8567	0.0055
530.0532	-0.0028
530.2498	0.007
530.4463	-0.0041
530.6428	0.0079
530.8393	0.0042
531.0358	0.0073
531.2322	-0.0001
531.4287	0.0064
531.6251	-0.0079
531.8215	-0.0005
532.0179	0.0082
532.2143	0.0113
532.4107	0.0002
532.607	0.0027
532.8034	0.0019
532.9997	-0.0034
533.196	-0.003
533.3923	0.0079
533.5886	0.0046
533.7848	0.0129
533.9811	0.0001
534.1773	0.0082
534.3735	0.0029
534.5697	0.0067
534.7659	0.0067
534.9621	0.0098
535.1582	0.0123
535.3544	0.005
535.5505	0.0119
535.7466	0.011
535.9427	0.0046
536.1387	-0.0026
536.3348	0.004
536.5308	0.0076
536.7269	-0.0028
536.9229	0.0003
537.1189	0.0122
537.3148	-0.0015
537.5108	0.0081
537.7068	0.0134
537.9027	-0.0087
538.0986	0.0104
538.2945	0.0016
538.4904	0
538.6863	0.0042
538.8821	0.0106
539.078	0.0048
539.2738	0.0068
539.4696	-0.0007
539.6654	-0.0046
539.8611	0.0018
540.0569	0.0017
540.2526	0.0083
540.4484	-0.0137
540.6441	0.0126
540.8398	0.0133
541.0355	-0.0052
541.2311	0.0049
541.4268	0.0102
541.6224	0.0119
541.818	0.0172
542.0136	0.0147
542.2092	0.0125
542.4048	0.0079
542.6003	-0.0062
542.7959	0.0073
542.9914	0.0079
543.1869	0.0163
543.3824	0.0009
543.5779	0.0148
543.7734	0.0073
543.9688	0.0083
544.1642	0.0041
544.3596	0.009
544.555	0.0079
544.7504	0.0065
544.9458	0.0055
545.1411	-0.0031
545.3365	0.0024
545.5318	0.0047
545.7271	0.01
545.9224	0.0024
546.1177	0.0079
546.3129	0.0048
546.5081	-0.0109
546.7034	0.0021
546.8986	0.0045
547.0938	0.0032
547.289	0.0042
547.4841	0.0077
547.6793	0.0008
547.8744	0.0066
548.0695	0.003
548.2646	0.0028
548.4597	0.0063
548.6548	0.0085
548.8498	0.0048
549.0448	0.0095
549.2399	0.0103
549.4349	0.0043
549.6298	0.0088
549.8248	-0.0068
550.0198	0.0102
550.2147	0.0036
550.4096	-0.0043
550.6045	0.005
550.7994	0.0049
550.9943	0.0113
551.1892	-0.006
551.384	0.0079
551.5788	0.0036
551.7737	0.0027
551.9685	0.0093
552.1632	0.0003
552.358	0.0041
552.5528	0.012
552.7475	-0.0039
552.9422	0.0136
553.1369	0.0007
553.3316	0.0091
553.5263	0.0062
553.7209	0.0006
553.9156	0.0042
554.1102	0.0029
554.3048	-0.0049
554.4994	0.0008
554.694	0.0096
554.8885	0.0047
555.0831	0.0046
555.2776	0.0067
555.4721	0.0153
555.6666	0.0035
555.8611	0.0057
556.0555	0.0109
556.25	0.0063
556.4444	0.0066
556.6388	-0.0012
556.8332	0.0027
557.0276	-0.0036
557.222	0.0026
557.4163	0.0046
557.6107	-0.0092
557.805	-0.0021
557.9993	-0.0023
558.1936	-0.0073
558.3879	0.0087
558.5821	0.0014
558.7764	0.008
558.9706	-0.0031
559.1648	0.0053
559.359	0.0032
559.5532	-0.0073
559.7473	-0.0062
559.9415	0.0077
560.1356	0.0078
560.3297	-0.0103
560.5238	0.012
560.7179	0.0021
560.9119	0.0056
561.106	-0.0064
561.3	0.0052
561.494	-0.0078
561.688	0.012
561.882	0.002
562.076	-0.0025
562.2699	0.0096
562.4639	0.015
562.6578	0.0058
562.8517	0.0112
563.0456	-0.0003
563.2395	0.0057
563.4333	0.0089
563.6272	0.0061
563.821	0.0069
564.0148	0.0019
564.2086	0.0063
564.4024	0.0118
564.5961	0.0025
564.7899	0.0154
564.9836	0.0041
565.1773	0.0141
565.371	-0.0021
565.5647	0.006
565.7584	0.0064
565.952	-0.0008
566.1456	-0.0033
566.3393	0.0053
566.5329	0.0002
566.7264	0.0013
566.92	0.0071
567.1136	0.0104
567.3071	0.0001
567.5006	0.0022
567.6941	0.0022
567.8876	0.008
568.0811	0.0215
568.2745	-0.0024
568.468	0.0084
568.6614	0.0107
568.8548	0.0071
569.0482	0.0048
569.2416	0.0132
569.4349	0.0027
569.6283	0.0006
569.8216	0.0033
570.0149	0.0056
570.2082	0.0087
570.4015	0.0043
570.5947	0.0011
570.788	0.0077
570.9812	0.0013
571.1744	0.0032
571.3676	0.0013
571.5608	0.0041
571.754	0.0092
571.9471	0.0065
572.1402	-0.0024
572.3333	0.0074
572.5264	0.0059
572.7195	0.0061
572.9126	-0.001
573.1057	0.0067
573.2987	0.006
573.4917	-0.002
573.6847	0.001
573.8777	0.0064
574.0707	0.0046
574.2636	0.0042
574.4566	0.0013
574.6495	0.0003
574.8424	0.0091
575.0353	0.0076
575.2281	0.0108
575.421	0.0001
575.6138	0.0006
575.8067	0.002
575.9995	0.0012
576.1923	0.0102
576.385	0.0076
576.5778	0.0079
576.7706	0.0051
576.9633	0.0036
577.156	-0.0008
577.3487	0.0039
577.5414	0.003
577.734	-0.0038
577.9267	0.0036
578.1193	0.0037
578.3119	-0.0021
578.5045	0.0038
578.6971	-0.0025
578.8897	0.003
579.0822	0.0056
579.2747	0.0007
579.4673	0.0033
579.6598	0.0057
579.8522	0.0024
580.0447	0.003
580.2372	0.0108
580.4296	0.009
580.622	0.0019
580.8144	0.0088
581.0068	0.0032
581.1992	0.0048
581.3915	0.0002
581.5839	0.0034
581.7762	0.0009
581.9685	0.0025
582.1608	0.003
582.353	-0.0021
582.5453	0.0047
582.7375	0.0068
582.9298	-0.0027
583.122	0.0005
583.3142	0.0061
583.5063	-0.0009
583.6985	-0.0021
583.8906	-0.0002
584.0827	0.0057
584.2749	0.002
584.4669	0.0022
584.659	0.0066
584.8511	0.0054
585.0431	0.0039
585.2352	0.004
585.4272	0.0045
585.6192	0.0041
585.8111	0.003
586.0031	0.0028
586.195	0.0012
586.387	0.002
586.5789	0.0047
586.7708	0.0034
586.9627	0.0037
587.1545	0.0024
587.3464	0.0058
587.5382	0.0022
587.73	0.0088
587.9218	0.0019
588.1136	-0.0019
588.3053	0.0069
588.4971	0.0046
588.6888	0.005
588.8805	0.0059
589.0722	0.0057
589.2639	0.0041
589.4556	0.0087
589.6472	0.01
589.8389	0.0061
590.0305	0.0023
590.2221	0.0065
590.4137	0.0031
590.6052	0.0027
590.7968	0.0088
590.9883	0.0053
591.1798	0.0029
591.3713	-0.0025
591.5628	0.0059
591.7543	-0.0007
591.9458	0.0043
592.1372	0.0047
592.3286	0.0055
592.52	0.0045
592.7114	0.0054
592.9028	0.0094
593.0941	0.0016
593.2855	0.0019
593.4768	0.0111
593.6681	0.0087
593.8594	0.0055
594.0506	0.0015
594.2419	-0
594.4331	0.0006
594.6244	-0.0025
594.8156	0.0045
595.0067	-0.0006
595.1979	0.0016
595.3891	0.0063
595.5802	0.0159
595.7713	0.0008
595.9624	0.0014
596.1535	0.0087
596.3446	0.0006
596.5357	0.0017
596.7267	-0.0007
596.9177	-0.0028
597.1087	0.0026
597.2997	0.0049
597.4907	0.0015
597.6817	0.0031
597.8726	0.0092
598.0635	0.0027
598.2544	0.0071
598.4453	0.0044
598.6362	0.0004
598.827	-0.0001
599.0179	0.0029
599.2087	0.0091
599.3995	0.0026
599.5903	0.0104
599.7811	0.0067
599.9718	-0.0028
600.1626	0.0044
600.3533	0.0057
600.544	-0.0005
600.7347	0.0006
600.9254	0.0082
601.116	0.0023
601.3067	0.0046
601.4973	0.0049
601.6879	0.0012
601.8785	0.0041
602.0691	0.0014
602.2596	0.0012
602.4502	0.0073
602.6407	0.0042
602.8312	0.0077
603.0217	0.0054
603.2122	0.0007
603.4027	-0.0013
603.5931	0.004
603.7835	0.0034
603.9739	0.0038
604.1643	0.0057
604.3547	0.006
604.5451	0.0036
604.7354	0.0001
604.9257	-0.0019
605.116	0.0025
605.3063	0.0094
605.4966	-0.0044
605.6869	0.008
605.8771	0.0004
606.0673	0.0027
606.2575	0.0027
606.4477	0.0058
606.6379	-0.0012
606.8281	-0.0001
607.0182	0.0025
607.2083	0.0021
607.3985	0.0021
607.5885	-0.0002
607.7786	0.003
607.9687	-0.0004
608.1587	0.008
608.3488	0.0055
608.5388	-0.001
608.7288	0.0037
608.9187	0.0043
609.1087	0.0069
609.2986	0.0027
609.4886	0.0018
609.6785	0.005
609.8684	-0.0008
610.0582	0.0012
610.2481	-0.0047
610.4379	0.0065
610.6278	0.0073
610.8176	0.008
611.0074	0.0024
611.1971	0.0087
611.3869	0.0116
611.5766	-0.0089
611.7664	0.0122
611.9561	0.0054
612.1458	0.0074
612.3354	0.006
612.5251	0.003
612.7147	0.0039
612.9044	0.0003
613.094	0.007
613.2836	-0.0012
613.4731	0.0053
613.6627	0.0053
613.8522	0.0055
614.0417	0.0017
614.2313	0.0034
614.4207	0.0011
614.6102	0.0108
614.7997	0.0131
614.9891	0.0029
615.1785	-0.004
615.3679	0.0011
615.5573	0.0022
615.7467	0.0023
615.9361	-0.0008
616.1254	0.0105
616.3147	0.0069
616.504	0.0024
616.6933	0.001
616.8826	-0.0045
617.0718	0.0139
617.2611	0.002
617.4503	0.0037
617.6395	0.0037
617.8287	0.0076
618.0179	0.0001
618.207	0.0133
618.3961	-0.0008
618.5853	0.0082
618.7744	0.0054
618.9634	0.0103
619.1525	0.0022
619.3416	0.006
619.5306	0.0056
619.7196	0.0102
619.9086	-0.0011
620.0976	-0.0055
620.2866	0.0142
620.4755	-0.0014
620.6645	0.0154
620.8534	0.0067
621.0423	0.0039
621.2312	0.0067
621.42	0.0056
621.6089	-0.0069
621.7977	0.0107
621.9865	0
622.1753	0.0045
622.3641	-0.0062
622.5529	-0.0052
622.7416	-0.0067
622.9303	-0.0012
623.1191	0.0074
623.3078	-0.0005
623.4964	0.0041
623.6851	0.0054
623.8737	-0.0052
624.0624	-0.0131
624.251	0.0034
624.4396	0.0008
624.6282	0.0148
624.8167	-0.0014
625.0053	0.0155
625.1938	0.0044
625.3823	0.0124
625.5708	-0.0036
625.7593	0.0067
625.9477	0.015
626.1362	-0.0108
626.3246	0.003
626.513	0.0067
626.7014	0.0083
626.8898	0.016
627.0781	0.0095
627.2665	0.0094
627.4548	-0.0061
627.6431	0.0128
627.8314	0.0106
628.0197	0.0001
628.2079	-0.0014
628.3962	0.0021
628.5844	-0.0015
628.7726	0.0036
628.9608	-0.0023
629.1489	0.0058
629.3371	-0.0053
629.5252	0.0055
629.7134	-0.0002
629.9015	0.0107
630.0895	-0.0165
630.2776	0.0128
630.4657	0.0003
630.6537	0.0167
630.8417	-0.0043
631.0297	0.0049
631.2177	0.0059
631.4057	0.0104
631.5936	-0.011
631.7815	0.0037
631.9695	0.0195
632.1574	0.0024
632.3452	0.0034
632.5331	0.0087
632.7209	0.0238
632.9088	0.0012
633.0966	0.0314
633.2844	0.0099
633.4722	0.0189
633.6599	0.0215
633.8477	0.0134
634.0354	0.0099
634.2231	-0.0054
634.4108	0.0126
634.5985	0.0059
634.7861	-0.0029
634.9738	-0.0115
635.1614	0.0116
635.349	-0.0096
635.5366	0.001
635.7242	-0.0008
635.9117	-0.0101
636.0993	0.01
636.2868	-0.0002
636.4743	0.0154
636.6618	-0.0222
636.8492	0.0116
637.0367	-0.0014
637.2241	-0.0079
637.4115	0.0236
637.5989	0.0085
637.7863	0.0213
637.9737	0.0045
638.161	0.0112
638.3484	0.0004
638.5357	-0.0132
638.723	0.0227
638.9103	-0.0209
639.0975	0.0037
639.2848	0.0164
639.472	-0.0067
639.6592	-0.01
639.8464	0.0137
640.0336	0.0312
640.2208	-0.0132
640.4079	-0.0055
640.595	0.005
640.7821	0.0116
640.9692	0.0003
641.1563	0.0009
641.3434	0.0163
641.5304	0.011
641.7174	0.0119
641.9044	-0.0066
642.0914	0.0217
642.2784	0.017
642.4653	0.0049
642.6523	0.0003
642.8392	0.0008
643.0261	0.0132
643.213	0.0012
643.3999	0.0145
643.5867	0.0003
643.7735	0.0089
643.9604	0.0239
644.1472	0.0151
644.3339	-0.0024
644.5207	0.0013
644.7075	-0.0006
644.8942	-0.0022
645.0809	0.0027
645.2676	-0.0006
645.4543	-0.0011
645.6409	0.0323
645.8276	0.0209
646.0142	-0.0036
646.2008	0.0037
646.3874	-0.021
646.574	-0.0053
646.7605	0.013
646.9471	0.004
647.1336	-0.0114
647.3201	0.0133
647.5066	0.0115
647.6931	0.0081
647.8795	-0.001
648.0659	0.0044
648.2524	0.01
648.4388	-0.0006
648.6252	0.015
648.8115	0.009
648.9979	0.0141
649.1842	0.0027
649.3705	0.0144
649.5568	-0.0075
649.7431	-0.0061
649.9294	0.0019
650.1156	-0.011
650.3018	0.0033
650.488	0.0114
650.6742	0.0155
650.8604	0.0043
651.0466	-0.0021
651.2327	-0.0112
651.4188	0.0048
651.6049	0.0091
651.791	0.0028
651.9771	0.0229
652.1632	-0.0003
652.3492	-0.0001
652.5352	0.0018
652.7212	0.0098
652.9072	0.0003
653.0932	0.0134
653.2791	0.0191
653.465	0.013
653.651	0.0133
653.8369	0.0112
654.0227	-0.0062
654.2086	0.02
654.3944	0.0105
654.5803	0.0036
654.7661	-0.0043
654.9519	-0.0013
655.1377	0.0002
655.3234	0.0002
655.5092	0.0002
655.6949	0.0002
655.8806	0.0002
656.0663	0.0002
656.2519	0.0002
656.4376	0.0002
656.6232	0.0002
656.8088	0.0002
656.9945	0.0002
657.18	0.0002
657.3656	0.0002
657.5511	0.0002
657.7367	0.0002
657.9222	0.0002
658.1077	0.0002
658.2932	0.0002
658.4786	0.0002
658.6641	0.0002
658.8495	0.0002
659.0349	0.0002
659.2203	0.0002
659.4057	0.0002
659.591	0.0898
659.7764	0.0177
659.9617	-0.0015
660.147	0.0012
660.3323	-0.0058
660.5176	-0.0151
660.7028	-0.0173
660.888	0.0051
661.0733	0.0286
661.2585	-0.0101
661.4436	0.0223
661.6288	0.0037
661.8139	-0.0101
661.9991	-0.0078
662.1842	-0.0009
662.3693	0.0019
662.5544	0.0022
662.7394	0.0233
662.9245	0.0048
663.1095	-0.0052
663.2945	-0.0261
663.4795	-0.0122
663.6644	0.0041
663.8494	0.0051
664.0343	-0.0037
664.2193	-0.0025
664.4042	-0.0002
664.589	0.0115
664.7739	0.0258
664.9587	-0.0051
665.1436	0.0053
665.3284	0.0046
665.5132	-0.0231
665.698	0.012
665.8827	0.015
666.0675	-0.0253
666.2522	0.0191
666.4369	0.011
666.6216	-0.0032
666.8063	0.0101
666.9909	-0.0069
667.1756	0.0122
667.3602	-0.0256
667.5448	-0.0005
667.7294	0.0357
667.9139	-0.0047
668.0985	0.0104
668.283	0.0008
668.4675	0.0291
668.652	0.0112
668.8365	0.0018
669.0209	0.0175
669.2054	0.021
669.3898	-0.004
669.5742	0.0232
669.7586	0.0271
669.943	0.0134
670.1273	0.0039
670.3117	0.0285
670.496	0.0105
670.6803	-0.004
670.8646	-0.0322
671.0488	0.0282
671.2331	-0.0142
671.4173	0.0006
671.6015	-0.0094
671.7857	0.0088
671.9699	0.0027
672.1541	-0.0085
672.3382	0.0153
672.5223	-0.003
672.7064	0.0008
672.8905	-0.0142
673.0746	0.0168
673.2587	0.0302
673.4427	0.0195
673.6267	0.0077
673.8107	0.0091
673.9947	0.0108
674.1787	-0.0002
674.3626	0.02
674.5465	0.0097
674.7304	-0.013
674.9143	-0.0215
675.0982	0.007
675.2821	0.0154
675.4659	-0.0066
675.6497	-0.0074
675.8335	0.0409
676.0173	-0.0167
676.2011	0.0147
676.3849	-0.0133
676.5686	0.021
676.7523	0.0078
676.936	-0.0014
677.1197	0.0007
677.3034	0.0248
677.487	0.0034
677.6706	0.0132
677.8542	0.006
678.0378	-0.0011
678.2214	0.0094
678.405	0.0045
678.5885	0.0037
678.772	0.0099
678.9555	0.0022
679.139	0.0144
679.3225	0.0035
679.5059	-0.0026
679.6894	0.0007
679.8728	0.0056
680.0562	0.002
680.2395	-0.0113
680.4229	0.0215
680.6062	-0.0027
680.7896	-0.0115
680.9729	0.0062
681.1562	-0.0104
681.3394	-0.0033
681.5227	0.0053
681.7059	-0.009
681.8891	0.0012
682.0723	-0.0069
682.2555	-0.0027
682.4387	0.0145
682.6218	-0.0005
682.805	0.0088
682.9881	0.0088
683.1712	0.0179
683.3542	0.0159
683.5373	-0.0048
683.7203	0.0088
683.9034	-0.0034
684.0864	-0.0081
684.2694	0.0043
684.4523	0.0089
684.6353	0.0027
684.8182	0.0026
685.0011	0.0212
685.184	0.0089
685.3669	0.0161
685.5498	-0.0078
685.7326	0.0005
685.9154	0.0021
686.0982	0.0107
686.281	-0.01
686.4638	0.0139
686.6465	-0.0099
686.8293	-0.009
687.012	0.0093
687.1947	0.0016
687.3774	-0.0006
687.56	-0.0076
687.7427	0.0075
687.9253	0.0105
688.1079	0.0145
688.2905	-0.0086
688.4731	0.0251
688.6556	0.0061
688.8382	-0.0211
689.0207	0.0014
689.2032	0.0297
689.3857	0.003
689.5681	-0.0067
689.7506	0.0343
689.933	0.0174
690.1154	0.0169
690.2978	-0.0076
690.4802	0.0201
690.6626	0.0155
690.8449	0.0081
691.0272	-0.0071
691.2095	-0.0083
691.3918	0.0165
691.5741	0.0147
691.7563	0.0202
691.9386	0.0415
692.1208	0.0123
692.303	0.0129
692.4852	0.0046
692.6673	0.0167
692.8495	-0.0072
693.0316	0.0149
693.2137	0.0103
693.3958	0.0131
693.5778	0.0057
693.7599	0.0173
693.9419	-0.0064
694.1239	0.0141
694.3059	0.045
694.4879	0.0122
694.6699	-0.0061
694.8518	-0.0002
695.0337	0.0072
695.2157	0.044
695.3975	-0.0071
695.5794	-0.0058
695.7613	-0.0054
695.9431	-0.0014
696.1249	0.009
696.3067	-0.0079
696.4885	0.0092
696.6703	0.0135
696.852	-0.0001
697.0337	0.0088
697.2154	0.0107
697.3971	0.0099
697.5788	0.0117
697.7605	-0.0127
697.9421	0.0131
698.1237	0.0116
698.3053	-0.0106
698.4869	0.0114
698.6685	-0.016
698.85	0.019
699.0315	-0.0051
699.213	0.0234
699.3945	-0.0213
699.576	0.0249
699.7575	0.0053
699.9389	0.0033
700.1203	0.032
700.3017	0.0302
700.4831	0.0201
700.6645	0.0112
700.8458	0.0192
701.0271	0.0138
701.2084	0.0185
701.3897	0.0306
701.571	-0.004
701.7523	-0.0019
701.9335	0.0083
702.1147	0.0224
702.2959	0.0044
702.4771	0.0125
702.6583	-0.0024
702.8394	-0.0115
703.0205	0.0128
703.2016	-0.0112
703.3827	-0.0116
703.5638	0.0097
703.7449	0.0402
703.9259	0.0067
704.1069	-0.0019
704.2879	0.0255
704.4689	0.0024
704.6499	0.0309
704.8308	0.03
705.0117	-0.0099
705.1927	0.0102
705.3735	0.0538
705.5544	0.0491
705.7353	0.0074
705.9161	-0.0145
706.0969	0.01
706.2777	0.0111
706.4585	0.002
706.6393	0.0181
706.82	-0.0024
707.0007	-0.0077
707.1815	-0.0202
707.3621	0.0301
707.5428	0.0213
707.7235	-0.0038
707.9041	-0.0055
708.0847	-0.0144
708.2653	0.0323
708.4459	0.0152
708.6265	-0.0095
708.807	0.0036
708.9875	0.0031
709.168	-0.0199
709.3485	0.0084
709.529	0.0131
709.7095	-0.0134
709.8899	0.0101
710.0703	0.0121
710.2507	-0.0225
710.4311	-0.0196
710.6115	0.0243
710.7918	0.0054
710.9721	0.011
711.1524	-0.0075
711.3327	0.0057
711.513	-0.0042
711.6932	-0.0212
711.8735	0.0214
712.0537	-0.019
712.2339	0.0337
712.4141	0.0463
712.5942	0.0049
712.7744	0.0075
712.9545	0.0281
713.1346	0.0069
713.3147	0.0147
713.4947	0.002
713.6748	0.0122
713.8548	0.0062
714.0348	0.0068
714.2148	0.023
714.3948	0.0065
714.5748	0.0268
714.7547	0.0194
714.9346	0.0313
715.1145	-0.0058
715.2944	-0.0254
715.4743	0.0074
715.6541	-0.0462
715.834	0.0368
716.0138	0.0463
716.1936	0.0515
716.3733	0.0042
716.5531	-0.0062
716.7328	0.0618
716.9126	0.0068
717.0923	0.01
717.2719	-0.0016
717.4516	-0.0002
717.6312	-0.0169
717.8109	0.0301
717.9905	0.0242
718.1701	-0.002
718.3496	0.0345
718.5292	0.0143
718.7087	0.0081
718.8882	0.0302
719.0677	0.0075
719.2472	0.0023
719.4267	-0.0105
719.6061	-0.0146
719.7856	0.03
719.965	-0.0131
720.1443	0.0025
720.3237	-0.0069
720.5031	0.0036
720.6824	-0.0159
720.8617	0.0224
721.041	0.0326
721.2203	0.0059
721.3995	0.0013
721.5788	0.0101
721.758	-0.0097
721.9372	0.0447
722.1164	-0.0003
722.2956	-0.0016
722.4747	0.0268
722.6538	-0.0077
722.8329	0.0263
723.012	0.0544
723.1911	-0.0074
723.3702	0.0058
723.5492	-0.0032
723.7282	-0.0192
723.9072	0.0265
724.0862	-0.0025
724.2652	0.0168
724.4441	-0.0328
724.623	-0.0043
724.8019	0.0092
724.9808	0.0258
725.1597	0.014
725.3385	0.0104
725.5174	0.0156
725.6962	-0.0202
725.875	-0.0028
726.0538	-0.0111
726.2325	0.0321
726.4112	0.0013
726.59	0.0033
726.7687	-0.0072
726.9474	0.0209
727.126	0.0144
727.3047	0.0049
727.4833	-0.0025
727.6619	0.0019
727.8405	0.0123
728.0191	0.0269
728.1976	0.0062
728.3762	0.0144
728.5547	-0.0038
728.7332	0.0177
728.9116	0.016
729.0901	0.0386
729.2686	0.0175
729.447	0.0068
729.6254	-0.0017
729.8038	-0.0067
729.9821	-0.0101
730.1605	0.0281
730.3388	-0.011
730.5171	0.0224
730.6954	-0.0082
730.8737	0.0127
731.0519	-0.0149
731.2302	0.0014
731.4084	0.004
731.5866	0.0122
731.7648	-0.0169
731.9429	0.0068
732.1211	-0.0043
732.2992	-0.003
732.4773	0.0021
732.6554	-0.0094
732.8335	0.0223
733.0115	0.0132
733.1896	-0.0012
733.3676	0.0242
733.5456	-0.0049
733.7235	-0.0054
733.9015	0.0086
734.0794	-0.0135
734.2574	-0.0059
734.4353	0.0112
734.6131	-0.0021
734.791	0.0167
734.9689	-0.0147
735.1467	-0.0043
735.3245	0.0298
735.5023	0.0133
735.68	0.0012
735.8578	0.0336
736.0355	0.0101
736.2132	0.0076
736.3909	0.0244
736.5686	0.0007
736.7463	-0.012
736.9239	0.0356
737.1015	-0.004
737.2791	0.0166
737.4567	0.0164
737.6343	0.0121
737.8118	0.0315
737.9894	0.0112
738.1669	0.0082
738.3444	0.0243
738.5218	-0.0139
738.6993	0.0082
738.8767	-0.0098
739.0541	0.0039
739.2315	-0.0009
739.4089	0.0172
739.5863	0.0233
739.7636	-0.0019
739.9409	-0.0056
740.1182	0.0308
740.2955	0.0152
740.4728	-0.034
740.65	-0.0149
740.8272	0.0323
741.0044	0.0147
741.1816	0.0338
741.3588	-0.042
741.5359	0.0155
741.7131	0.0313
741.8902	0.001
742.0673	-0.027
742.2444	0.0274
742.4214	0.0223
742.5985	-0.004
742.7755	-0.0045
742.9525	-0.038
743.1295	-0.0392
743.3064	-0.0032
743.4834	0.0047
743.6603	0.0504
743.8372	-0.0304
744.0141	0.0015
744.191	-0.0095
744.3678	-0.0305
744.5446	-0.0162
744.7215	0.0046
744.8982	-0.008
745.075	0.0494
745.2518	0.0121
745.4285	0.0294
745.6052	-0.0204
745.7819	0.0276
745.9586	-0.0012
746.1353	-0.0197
746.3119	0.004
746.4885	0.0526
746.6651	0.0084
746.8417	-0.0127
747.0183	0.0319
747.1948	0.0076
747.3714	0.0199
747.5479	0.0251
747.7244	-0.0115
747.9008	-0.0178
748.0773	0.049
748.2537	-0.0014
748.4301	0.0206
748.6065	-0.0303
748.7829	-0.0305
748.9593	-0.0006
749.1356	0.0195
749.3119	0.0167
749.4882	0.0181
749.6645	0.0218
749.8408	0.0172
750.017	0.0207
750.1933	-0.0171
750.3695	0.0274
750.5457	0.0174
750.7218	0.0124
750.898	-0.0062
751.0741	0.0088
751.2502	0.0284
751.4263	0.0208
751.6024	0.0011
751.7784	-0.0085
751.9545	0.0024
752.1305	0.0013
752.3065	0.0237
752.4825	-0.0093
752.6584	0.0088
752.8344	0.0009
753.0103	-0.0077
753.1862	0.0078
753.3621	0.0077
753.5379	-0.0072
753.7138	0.007
753.8896	0.0119
754.0654	-0.016
754.2412	0.0347
754.417	0.0079
754.5927	0.0005
754.7685	-0.0046
754.9442	0.0245
755.1199	0.0203
755.2956	0.0164
755.4712	0.0162
755.6469	-0.0047
755.8225	-0.0013
755.9981	0.0279
756.1736	-0.0016
756.3492	-0.0011
756.5248	0.0186
756.7003	-0.0021
756.8758	-0.0073
757.0513	0.0015
757.2267	-0.0007
757.4022	-0.0052
757.5776	-0.0029
757.753	0.0263
757.9284	0.0069
758.1038	0.0081
758.2791	0.0054
758.4545	-0.007
758.6298	-0.0109
758.8051	0.0138
758.9803	0.0211
759.1556	-0.008
759.3308	0.0046
759.506	0.0094
759.6812	0.0105
759.8564	0.0003
760.0316	0.0065
760.2067	0.008
760.3819	0.0017
760.557	0.0056
760.732	-0.0073
760.9071	-0.0004
761.0821	-0.0101
761.2572	0.015
761.4322	0.0304
761.6072	0.0182
761.7821	-0.0113
761.9571	0.007
762.132	0.0051
762.3069	-0.0041
762.4818	0.0086
762.6567	0.0211
762.8316	0.0022
763.0064	0.0052
763.1812	0.0258
763.356	-0.0044
763.5308	0.0132
763.7055	0.002
763.8803	0.0035
764.055	0.0042
764.2297	-0.0097
764.4044	0.0001
764.579	-0.001
764.7537	0.0065
764.9283	0.0115
765.1029	0.0154
765.2775	0.0075
765.4521	0.0086
765.6266	-0.0054
765.8011	0.0018
765.9756	0.0111
766.1501	0.0065
766.3246	0.039
766.4991	0.0372
766.6735	0.0513
766.8479	0.0024
767.0223	0.0215
767.1967	0.0199
767.371	0.007
767.5454	0.056
767.7197	0.024
767.894	0.0133
768.0683	0.0107
768.2425	0.0348
768.4168	0.0333
768.591	-0.0054
768.7652	-0.015
768.9394	-0.0059
769.1135	-0.0176
769.2877	0.0625
769.4618	0.0322
769.6359	0.0112
769.81	0.0347
769.984	0.0305
770.1581	0.0002
770.3321	0.018
770.5061	0.0077
770.6801	0.0058
770.8541	0.0067
771.028	0.0324
771.202	0.0195
771.3759	0.0261
771.5498	0.0134
771.7236	0.0157
771.8975	0.0246
772.0713	0.0325
772.2451	0.0007
772.4189	-0.0132
772.5927	-0.0368
772.7665	-0.0048
772.9402	-0.0014
773.1139	0.0329
773.2876	-0.0306
773.4613	0.0228
773.635	0.0324
773.8086	0.0008
773.9822	0.0045
774.1558	0.0457
774.3294	-0.0078
774.503	-0.0305
774.6765	0.035
774.8501	0.0127
775.0236	0.0175
775.1971	-0.0271
775.3705	0.021
775.544	-0.0192
775.7174	0.0291
775.8908	-0.0048
776.0642	0.0363
776.2376	0.0469
776.4109	-0.0263
776.5843	-0.0383
776.7576	-0.0179
776.9309	0.0217
777.1041	0.0307
777.2774	-0.0262
777.4506	-0.0238
777.6238	0.0004
777.797	-0.0074
777.9702	0.0336
778.1434	0.0065
778.3165	0.0052
778.4896	-0.0418
778.6627	-0.0024
778.8358	0.0008
779.0089	-0.0098
779.1819	0.0285
779.3549	0.0339
779.5279	-0.01
779.7009	0.0681
779.8739	0.0469
780.0468	0.0371
780.2197	0.0328
780.3926	0.0036
780.5655	0.006
780.7384	-0.0189
780.9112	0.0106
781.0841	0.0191
781.2569	0.0219
781.4297	0.0207
781.6024	0.0052
781.7752	0.0289
781.9479	0.0436
782.1206	0.0034
782.2933	0.0135
782.466	0.0176
782.6386	-0.0122
782.8113	0.0247
782.9839	0.0326
783.1565	0.0148
783.329	-0.0055
783.5016	0.0243
783.6741	0.0196
783.8466	0.0516
784.0191	0.0264
784.1916	-0.0197
784.3641	-0.0218
784.5365	-0.0147
784.7089	0.0054
784.8813	0.0621
785.0537	0.0058
785.2261	-0.0048
785.3984	0.023
785.5707	-0.0048
785.743	0.0291
785.9153	-0.0012
786.0876	-0.0139
786.2598	0.0394
786.432	0.0256
786.6042	0.0574
786.7764	-0.0199
786.9486	0.0066
787.1207	0.0444
787.2928	0.0423
787.4649	0.0161
787.637	-0.0137
787.8091	-0.0107
787.9811	0.0772
788.1532	0.0379
788.3252	-0.0009
788.4972	0.0412
788.6691	0.0163
788.8411	0.0033
789.013	0.0261
789.1849	-0.0011
789.3568	-0.0028
789.5287	0.0373
789.7005	-0.0554
789.8723	-0.0312
790.0442	-0.0085
790.2159	0.0371
790.3877	0.0365
790.5595	0.0141
790.7312	0.0178
790.9029	-0.0117
791.0746	-0.004
791.2463	-0.0266
791.4179	-0.009
791.5896	-0.0103
791.7612	0.0369
791.9328	0.0081
792.1044	-0.0041
792.2759	-0.0375
792.4474	0.0356
792.619	0.0167
792.7905	0.0537
792.9619	0.0173
793.1334	0.0507
793.3048	0.0662
793.4762	0.0175
793.6476	-0.0028
793.819	0.0221
793.9904	0.0176
794.1617	-0.0269
794.333	0.0114
794.5043	0.0299
794.6756	0.0026
794.8469	0.0254
795.0181	0.0028
795.1893	0.0181
795.3605	0.0177
795.5317	0.01
795.7029	0.0193
795.874	0.0234
796.0452	-0.0076
796.2163	0.0535
796.3873	0.0393
796.5584	-0.0228
796.7294	0.0718
796.9005	0.0021
797.0715	0.0543
797.2425	0.0842
797.4134	0.0544
797.5844	0.0703
797.7553	0.0043
797.9262	0.0537
798.0971	0.0088
798.2679	0.0017
798.4388	0.074
798.6096	0.0466
798.7804	0.0217
798.9512	0.0064
799.122	-0.0134
799.2927	0.0503
799.4635	-0.035
799.6342	0.0615
799.8049	0.066
799.9755	-0.0499
800.1462	0.0947
800.3168	0.0566
800.4874	-0.0752
800.658	0.0737
800.8286	0.0197
800.9991	0.0199
801.1696	-0.037
801.3402	0.1125
801.5106	-0.1213
801.6811	0.0457
801.8516	0.0534
802.022	0.0724
802.1924	0.0201
802.3628	0.0803
802.5332	0.0828
802.7035	0.0404
802.8739	0.059
803.0442	-0.0011
803.2145	0.0191
803.3847	0.0148
803.555	0.0725
803.7252	0.0721
803.8954	0.0174
804.0656	0.0588
804.2358	0.0449
804.4059	0.0429
804.5761	0.0467
804.7462	0.0256
804.9163	0.0559
805.0864	0.0447
805.2564	-0.056
805.4264	0.0244
805.5965	0.0404
805.7665	0.0241
805.9364	0.0069
806.1064	-0.0278
806.2763	0.0687
806.4462	0.0155
806.6161	0.0219
806.786	-0.0046
806.9559	0.0183
807.1257	0.043
807.2955	0.0061
807.4653	-0.0101
807.6351	0.0552
807.8048	-0.0155
807.9746	-0.0295
808.1443	-0.0817
808.314	0.0396
808.4837	0.0827
808.6533	0.0539
808.8229	0.0234
808.9926	0.086
809.1622	0.0662
809.3317	-0.026
809.5013	0.0044
809.6708	0.0229
809.8403	0.0361
810.0098	-0.0184
810.1793	-0.0054
810.3488	0.0674
810.5182	0.1831
810.6876	0.0838
810.857	0.0917
811.0264	0.0087
811.1958	0.1187
811.3651	-0.0459
811.5344	0.1176
811.7037	0.0426
811.873	0.0392
812.0422	-0.0715
812.2115	0.1839
812.3807	-0.0815
812.5499	0.0197
812.7191	0.2857
812.8882	-0.1115
813.0574	0.0972
813.2265	0.0595
813.3956	0.0588
813.5646	0.0291
813.7337	-0.0099
813.9027	-0.0289
814.0718	0.042
814.2407	0.0572
814.4097	0.0909
814.5787	0.0887
814.7476	0.0418
814.9165	0.0952
815.0854	-0.0159
815.2543	0.0351
815.4232	0.1135
815.592	0.0113
815.7608	-0.1534
815.9296	0.1158
816.0984	0.1989
816.2671	-0.2613
816.4359	0.1267
816.6046	0.0137
816.7733	-0.0884
816.942	0.1136
817.1106	0.0343
817.2793	0.0129
817.4479	0.0033
817.6165	-0.0351
817.785	0.0995
817.9536	-0.0139
818.1221	0.042
818.2906	-0.0215
818.4591	0.076
818.6276	0.0699
818.7961	-0.0174
818.9645	0.0274
819.1329	0.1113
819.3013	-0.0746
819.4697	0.1513
819.638	0.1844
819.8064	0.1305
819.9747	-0.0981
820.143	-0.0507
820.3113	0.0339
820.4795	0.1937
820.6477	0.1258
820.816	0.1109
820.9842	0.1757
821.1523	0.0966
821.3205	0.0502
821.4886	-0.0309
821.6567	0.0108
821.8248	0.264
821.9929	-0.025
822.1609	-0.031
822.329	0.0072
822.497	0.0704
822.665	0.0639
822.833	0.0494
823.0009	-0.002
823.1688	0.1775
823.3367	-0.1506
823.5046	0.1232
823.6725	-0.0179
823.8404	0.0217
824.0082	-0.0357
824.176	-0.0803
824.3438	0.1152
824.5116	0.0417
824.6793	-0.0304
824.847	0.1006
825.0147	0.2365
825.1824	0.1319
825.3501	0.3125
825.5177	-0.0055
825.6854	-0.1351
825.853	-0.0289
826.0206	0.0849
826.1881	-0.0467
826.3557	0.2744
826.5232	0.071
826.6907	0.0252
826.8582	0.0817
827.0257	0.1218
827.1931	0.0764
827.3605	-0.0456
827.528	-0.2214
827.6953	-0.1821
827.8627	-0.0316
828.03	0.1526
828.1974	0.0745
828.3647	0.032
828.532	0.2448
828.6992	0.103
828.8665	-0.2324
829.0337	0.0016
829.2009	-0.0062
829.3681	-0.0112
829.5352	-0.1969
829.7024	0.0782
829.8695	0.1392
830.0366	0.2045
830.2037	0.2833
830.3707	0.0301
830.5378	0.0813
830.7048	-0.0073
830.8718	0.1564
831.0388	-0.0804
831.2057	0.1555
831.3727	-0.3225
831.5396	0.2027
831.7065	-1.0894
831.8734	0.0285
832.0402	0.2774
832.2071	-0.5291
832.3739	0.0676
832.5407	-1.2413
832.7075	-0.3225
832.8742	-0
833.041	0.1902
833.2077	0.9547
833.3744	-0.0104
833.541	0.0727
833.7077	0.1877
833.8743	0.1167
834.0409	-0.002
834.2075	0.4403
834.3741	-0.0377
834.5407	-0.0101
834.7072	0.1959
834.8737	0.0747
835.0402	0.4894
835.2067	-0.0762
835.3731	-0.0857
835.5395	-0.054
835.706	0.5098
835.8723	-0.0686
836.0387	-0.0449
836.2051	0.2641
836.3714	0.8411
836.5377	0.303
836.704	0.2232
836.8703	-0.1099
837.0365	-0.2053
837.2027	0.2297
837.3689	0.1052
837.5351	0.7113
837.7013	-0.0697
837.8674	0.0684
838.0335	-0.1354
838.1997	0.1101
838.3657	-0
838.5318	-0
838.6978	0.9849
838.8639	-0.1317
839.0299	0.0539
839.1958	0.1753
839.3618	0.1122
839.5277	0.0867
839.6937	-0.1746
839.8596	0.0747
840.0254	0.1196
840.1913	-0.4029
840.3571	-0.2647
840.523	-0
840.6888	-0.1563
840.8545	-0.4291
841.0203	-0.1497
841.186	0.2604
841.3517	-0.2411
841.5174	0.2433
841.6831	0.123
841.8488	0.3668
842.0144	0.0453
842.18	0.3736
842.3456	-0.1088
842.5112	-0
842.6767	0.1275
842.8422	-0.0611
843.0077	0.4201
843.1732	-0.2448
843.3387	-0.0331
843.5042	-0.1161
843.6696	-0
843.835	0.0315
844.0004	-0.1354
844.1657	-0.8856
844.3311	-0
844.4964	-0.4312
844.6617	0.2415
844.827	-0
844.9923	0.3273
845.1575	-0.1806
845.3227	0.5441
845.4879	0.5353
845.6531	1.1769
845.8183	0.558
845.9834	0.1898
846.1485	0.1356
846.3136	-0.05
846.4787	-0.1937
846.6438	-0.2126
846.8088	-0
846.9738	-0.8849
847.1388	0.1528
847.3038	1.7225
847.4687	-0
847.6337	-0.4961
847.7986	0.1598
847.9635	0.1435
848.1284	-0
848.2932	0.3992
848.458	-0
848.6228	0.3286
848.7876	-0.0632
848.9524	-0
849.1172	-1.7548
849.2819	-0
849.4466	0.9995
849.6113	-0.1232
849.7759	-0
849.9406	-0.2592
850.1052	0.9777
850.2698	-0
850.4344	-0.8458
850.599	-0
850.7635	1.0842
850.928	0.4079
851.0925	0.1109
851.257	-0
851.4215	-0.0219
851.5859	-0.0109
851.7503	-0
851.9147	0.4506
852.0791	-0
852.2434	-0.0102
852.4078	-0
852.5721	0.4428
852.7364	-0.1306
852.9007	-0.169
853.0649	-0
853.2291	0.285
853.3934	0.0228
853.5575	0.1918
853.7217	0.1981
853.8859	0.0174
854.05	-0.6367
854.2141	0.229
854.3782	-0.1504
854.5423	-0.1198
854.7063	0.2342
854.8703	0.2808
855.0343	-0.0134
855.1983	0.2808
855.3623	0.2051
855.5262	0.3807
855.6901	0.3611
855.854	0.133
856.0179	0.2598
856.1818	0.3445
856.3456	0.5878
856.5094	-0.1143
856.6732	-0.2532
856.837	-1.0376
857.0008	-0.275
857.1645	0.6721
857.3282	-0
857.4919	-0
857.6556	-0.1381
857.8192	-0.1029
857.9828	-0.1473
858.1465	0.2914
858.31	-0
858.4736	-0.7133
858.6372	-0.0565
858.8007	0.074
858.9642	-0
859.1277	0.3653
859.2911	-0.3775
859.4546	-0
859.618	0.5204
859.7814	0.2534
859.9448	-0
860.1081	-0.4017
860.2715	-0
860.4348	0.0764
860.5981	0.4103
860.7614	-0
860.9246	0.2005
861.0879	0.2215
861.2511	-0
861.4143	-0
861.5774	-0.4234
861.7406	-0.0307
861.9037	-0
862.0668	-0.5474
862.2299	-0
862.393	0.1805
862.556	0.1518
862.7191	-0.1906
862.8821	0.094
863.0451	0.1918
863.208	-0
863.371	-0
863.5339	0.2947
863.6968	-0
863.8597	-0
864.0225	-0
864.1854	-0.4478
864.3482	-0
864.511	-0.1167
864.6737	-0
864.8365	0.2016
864.9992	-0
865.1619	-0.3409
865.3246	-1.9222
865.4873	-0
865.65	-0
865.8126	-0
865.9752	0.2098
866.1378	0.5122
866.3004	-0.0513
866.4629	-1.699
866.6254	-0
866.7879	-0
866.9504	-0
867.1129	-0.4812
867.2753	0.5496
867.4377	-0
867.6001	-0.487
867.7625	1.5306
867.9249	0.2686
868.0872	-0
868.2495	-0
868.4118	-0
868.5741	-0
868.7363	-0.5395
868.8986	-0.0676
869.0608	-0
869.223	0.0135
869.3851	-0
869.5473	-0.0607
869.7094	-0
869.8715	-0.4079
870.0336	0.0425
870.1957	-1.0207
870.3577	1.0317
870.5197	0.0657
870.6817	-0.7399
870.8437	-0.2343
871.0057	-0
871.1676	-0.0265
871.3295	-0
871.4914	-0
871.6533	-0.4144
871.8151	1.1405
871.977	-0
872.1388	-0.1578
872.3006	-0.3651
872.4623	-0.4641
872.6241	-0
872.7858	-0.0606
872.9475	0.4759
873.1092	-0
873.2709	0.6361
873.4325	-1.0894
873.5941	-0
873.7557	-0
873.9173	0.559
874.0789	0.7199
874.2404	-0
874.4019	-0.1347
874.5634	0.6384
874.7249	-0
874.8863	0.1
875.0478	-0.3076
875.2092	1.4612
875.3706	0.1023
875.5319	-0
875.6933	0.1206
875.8546	-0
876.0159	0.9626
876.1772	-0.0257
876.3385	-0
876.4997	-0
876.6609	-0
876.8221	-0
876.9833	0.0318
877.1445	0.6429
877.3056	-0
877.4667	-1.0774
877.6278	-0
877.7889	-0.2441
877.9499	1.446
878.111	1.942
878.272	-0.7004
878.433	-0
878.5939	-0.103
878.7549	-0
878.9158	-0
879.0767	-0
879.2376	-0
879.3984	1.2672
879.5593	0.6015
879.7201	-1.415
879.8809	-0
880.0417	-0.2315
880.2024	-0
880.3632	0.0159
880.5239	0.2908
880.6846	-0.371
880.8452	0.1118
881.0059	-0
881.1665	0.1557
881.3271	0.2992
881.4877	0.9053
881.6483	-1.2774
881.8088	-0.6515
881.9693	-0
882.1298	-0
882.2903	-0
