Data from D4ACN5uM460nmA_Absorbance_13-05-41-075.txt Node
Date: Fri Feb 21 13:05:41 GMT 2025
User: LASERRRRR
Spectrometer: FLMT03099
Trigger mode: 0
Integration Time (sec): 1.500000E-2
Scans to average: 1
Electric dark correction enabled: true
Nonlinearity correction enabled: false
Boxcar width: 0
XAxis mode: Wavelengths
Number of Pixels in Spectrum: 3648
>>>>>Begin Spectral Data<<<<<
179.3399	-0.3931
179.5586	-0.3931
179.7771	-0.3931
179.9957	-0.1028
180.2143	-0
180.4329	-0
180.6514	-0
180.8699	-0
181.0885	-0
181.307	-0.1857
181.5255	0.1388
181.744	0.2976
181.9625	1.6467
182.181	0.1108
182.3994	-0.4771
182.6179	-0
182.8363	0.6574
183.0547	-0
183.2732	0.1643
183.4916	0.2073
183.71	0.2548
183.9284	0.1088
184.1467	0.3251
184.3651	0.0891
184.5835	0.2143
184.8018	0.3245
185.0201	0.0858
185.2385	0.1962
185.4568	0.0332
185.6751	0.3012
185.8934	0.033
186.1117	-0.001
186.3299	0.5638
186.5482	0.1936
186.7664	0.818
186.9847	-0.0731
187.2029	1.3344
187.4211	-0.0519
187.6393	0.2176
187.8575	0.3127
188.0757	0.2732
188.2939	0.3211
188.512	0.2984
188.7302	0.372
188.9483	0.825
189.1665	0.3744
189.3846	0.3143
189.6027	0.1124
189.8208	0.271
190.0389	0.2369
190.257	0.2471
190.475	0.0272
190.6931	-0.0617
190.9111	0.0821
191.1292	0.1493
191.3472	0.1916
191.5652	0.1595
191.7832	0.2462
192.0012	0.1315
192.2192	0.205
192.4371	0.0958
192.6551	0.1938
192.873	0.138
193.091	0.2129
193.3089	0.1294
193.5268	0.3126
193.7447	0.1457
193.9626	0.1864
194.1805	0.1437
194.3984	0.2174
194.6162	0.1405
194.8341	0.3133
195.0519	0.2883
195.2697	0.2571
195.4875	0.288
195.7054	0.2875
195.9231	0.3246
196.1409	0.3101
196.3587	0.3043
196.5765	0.2778
196.7942	0.3231
197.012	0.3262
197.2297	0.3752
197.4474	0.4224
197.6651	0.3102
197.8828	0.2855
198.1005	0.4165
198.3182	0.4281
198.5358	0.367
198.7535	0.4228
198.9711	0.3961
199.1888	0.3203
199.4064	0.4157
199.624	0.3717
199.8416	0.3511
200.0592	0.3536
200.2767	0.3929
200.4943	0.5012
200.7119	0.3704
200.9294	0.3912
201.1469	0.4041
201.3645	0.4399
201.582	0.4009
201.7995	0.3968
202.017	0.3895
202.2344	0.4365
202.4519	0.4146
202.6694	0.3742
202.8868	0.4334
203.1042	0.4052
203.3217	0.4096
203.5391	0.3947
203.7565	0.3572
203.9739	0.4067
204.1913	0.3552
204.4086	0.3668
204.626	0.381
204.8433	0.3704
205.0607	0.3533
205.278	0.3698
205.4953	0.3299
205.7126	0.3676
205.9299	0.3221
206.1472	0.3388
206.3644	0.3452
206.5817	0.3392
206.7989	0.3055
207.0162	0.316
207.2334	0.3519
207.4506	0.3216
207.6678	0.3165
207.885	0.322
208.1022	0.3118
208.3194	0.3092
208.5365	0.3168
208.7537	0.309
208.9708	0.3047
209.1879	0.2859
209.405	0.2827
209.6222	0.2828
209.8392	0.3162
210.0563	0.2882
210.2734	0.2814
210.4905	0.2791
210.7075	0.2746
210.9245	0.2765
211.1416	0.2767
211.3586	0.2625
211.5756	0.2674
211.7926	0.2762
212.0096	0.2661
212.2265	0.2508
212.4435	0.2696
212.6604	0.2632
212.8774	0.2502
213.0943	0.2563
213.3112	0.246
213.5281	0.2675
213.745	0.2469
213.9619	0.2474
214.1788	0.2575
214.3956	0.2372
214.6125	0.2474
214.8293	0.251
215.0461	0.2526
215.2629	0.2848
215.4798	0.2455
215.6965	0.2423
215.9133	0.2494
216.1301	0.2464
216.3469	0.2504
216.5636	0.2434
216.7803	0.2342
216.9971	0.2633
217.2138	0.2648
217.4305	0.2436
217.6472	0.2459
217.8639	0.2604
218.0805	0.2595
218.2972	0.2465
218.5138	0.2415
218.7305	0.2462
218.9471	0.2541
219.1637	0.2748
219.3803	0.2549
219.5969	0.2633
219.8135	0.2649
220.0301	0.2511
220.2466	0.2558
220.4632	0.2544
220.6797	0.2678
220.8962	0.2596
221.1127	0.269
221.3292	0.2743
221.5457	0.2863
221.7622	0.2745
221.9787	0.2826
222.1951	0.2676
222.4116	0.2804
222.628	0.2905
222.8444	0.2854
223.0608	0.2715
223.2772	0.2899
223.4936	0.2802
223.71	0.2924
223.9264	0.2972
224.1427	0.2972
224.3591	0.2829
224.5754	0.2924
224.7917	0.2943
225.008	0.2996
225.2243	0.2964
225.4406	0.2975
225.6569	0.3124
225.8732	0.3031
226.0894	0.3065
226.3057	0.3048
226.5219	0.3232
226.7381	0.3336
226.9543	0.3141
227.1705	0.3164
227.3867	0.3293
227.6029	0.3252
227.8191	0.3367
228.0352	0.3304
228.2513	0.3521
228.4675	0.3365
228.6836	0.3482
228.8997	0.3434
229.1158	0.3607
229.3319	0.3612
229.548	0.3544
229.764	0.3591
229.9801	0.3758
230.1961	0.367
230.4121	0.373
230.6282	0.3743
230.8442	0.3931
231.0602	0.3874
231.2761	0.3865
231.4921	0.3967
231.7081	0.3955
231.924	0.3916
232.14	0.4035
232.3559	0.4084
232.5718	0.4061
232.7877	0.4142
233.0036	0.4072
233.2195	0.4152
233.4353	0.4125
233.6512	0.4086
233.867	0.4197
234.0829	0.4228
234.2987	0.4186
234.5145	0.4281
234.7303	0.4288
234.9461	0.4277
235.1619	0.43
235.3776	0.4354
235.5934	0.4323
235.8091	0.4409
236.0249	0.4498
236.2406	0.4442
236.4563	0.4565
236.672	0.443
236.8877	0.453
237.1034	0.452
237.319	0.4558
237.5347	0.4477
237.7503	0.4543
237.966	0.4607
238.1816	0.4574
238.3972	0.4643
238.6128	0.4722
238.8284	0.4734
239.0439	0.4571
239.2595	0.4577
239.475	0.4668
239.6906	0.4621
239.9061	0.4604
240.1216	0.4551
240.3371	0.4657
240.5526	0.4518
240.7681	0.4595
240.9836	0.4527
241.199	0.4542
241.4145	0.4503
241.6299	0.4563
241.8453	0.4435
242.0607	0.4331
242.2761	0.4363
242.4915	0.4207
242.7069	0.4166
242.9223	0.4153
243.1376	0.4019
243.353	0.3934
243.5683	0.3959
243.7836	0.3866
243.9989	0.3679
244.2142	0.3692
244.4295	0.3638
244.6448	0.3607
244.86	0.3467
245.0753	0.3391
245.2905	0.3428
245.5057	0.3347
245.721	0.3303
245.9362	0.3257
246.1514	0.3158
246.3665	0.3039
246.5817	0.2959
246.7969	0.293
247.012	0.2877
247.2271	0.2813
247.4423	0.2828
247.6574	0.2778
247.8725	0.2745
248.0876	0.266
248.3026	0.2574
248.5177	0.2577
248.7328	0.253
248.9478	0.2533
249.1628	0.2495
249.3779	0.2367
249.5929	0.2386
249.8079	0.2309
250.0228	0.2349
250.2378	0.2295
250.4528	0.228
250.6677	0.2209
250.8827	0.2126
251.0976	0.2146
251.3125	0.2153
251.5274	0.2117
251.7423	0.2058
251.9572	0.2061
252.172	0.21
252.3869	0.2062
252.6017	0.2042
252.8166	0.1968
253.0314	0.1962
253.2462	0.1952
253.461	0.1962
253.6758	0.1934
253.8906	0.1902
254.1053	0.191
254.3201	0.1939
254.5348	0.1812
254.7496	0.1845
254.9643	0.1923
255.179	0.1832
255.3937	0.1888
255.6083	0.1901
255.823	0.1905
256.0377	0.1816
256.2523	0.1809
256.467	0.185
256.6816	0.1812
256.8962	0.1882
257.1108	0.1827
257.3254	0.1762
257.54	0.1764
257.7545	0.1834
257.9691	0.1792
258.1836	0.1698
258.3981	0.179
258.6127	0.17
258.8272	0.1831
259.0417	0.1745
259.2561	0.1727
259.4706	0.1719
259.6851	0.1807
259.8995	0.173
260.114	0.1748
260.3284	0.1678
260.5428	0.1756
260.7572	0.1778
260.9716	0.1786
261.186	0.1708
261.4003	0.1695
261.6147	0.1682
261.829	0.1743
262.0433	0.1743
262.2577	0.1711
262.472	0.1722
262.6863	0.1775
262.9005	0.1749
263.1148	0.1732
263.3291	0.1721
263.5433	0.1806
263.7576	0.1694
263.9718	0.1703
264.186	0.1768
264.4002	0.1784
264.6144	0.1798
264.8286	0.1794
265.0427	0.1818
265.2569	0.1864
265.471	0.1749
265.6851	0.1843
265.8993	0.1784
266.1134	0.1788
266.3275	0.1709
266.5415	0.1769
266.7556	0.178
266.9697	0.1771
267.1837	0.1767
267.3978	0.1764
267.6118	0.1665
267.8258	0.1796
268.0398	0.1794
268.2538	0.1796
268.4677	0.1704
268.6817	0.1718
268.8957	0.1662
269.1096	0.1655
269.3235	0.1723
269.5374	0.1671
269.7514	0.1717
269.9652	0.17
270.1791	0.172
270.393	0.1664
270.6068	0.1724
270.8207	0.1646
271.0345	0.1674
271.2483	0.1662
271.4622	0.1674
271.676	0.1679
271.8897	0.1654
272.1035	0.1672
272.3173	0.1662
272.531	0.1682
272.7448	0.1611
272.9585	0.1585
273.1722	0.1658
273.3859	0.165
273.5996	0.166
273.8133	0.1659
274.0269	0.1596
274.2406	0.1691
274.4542	0.1628
274.6679	0.1602
274.8815	0.1702
275.0951	0.1735
275.3087	0.1722
275.5223	0.1657
275.7358	0.1671
275.9494	0.1729
276.1629	0.1699
276.3765	0.1713
276.59	0.1625
276.8035	0.167
277.017	0.1755
277.2305	0.1717
277.444	0.1678
277.6574	0.1693
277.8709	0.1731
278.0843	0.1705
278.2978	0.175
278.5112	0.1687
278.7246	0.1663
278.938	0.1705
279.1513	0.1708
279.3647	0.1687
279.5781	0.1749
279.7914	0.1708
280.0047	0.1746
280.2181	0.1724
280.4314	0.1772
280.6447	0.1848
280.8579	0.1766
281.0712	0.1713
281.2845	0.1752
281.4977	0.1739
281.711	0.1746
281.9242	0.178
282.1374	0.1753
282.3506	0.1784
282.5638	0.1752
282.7769	0.1705
282.9901	0.1816
283.2033	0.1788
283.4164	0.1783
283.6295	0.1849
283.8426	0.1767
284.0557	0.1815
284.2688	0.1874
284.4819	0.1782
284.695	0.188
284.908	0.1765
285.1211	0.1871
285.3341	0.1789
285.5471	0.1863
285.7601	0.1875
285.9731	0.1831
286.1861	0.1836
286.3991	0.1875
286.612	0.1837
286.825	0.1856
287.0379	0.1826
287.2508	0.1931
287.4637	0.1862
287.6766	0.1888
287.8895	0.1902
288.1024	0.1882
288.3152	0.1913
288.5281	0.1845
288.7409	0.1927
288.9538	0.1882
289.1666	0.1921
289.3794	0.1892
289.5922	0.1895
289.8049	0.1916
290.0177	0.1919
290.2304	0.1906
290.4432	0.1942
290.6559	0.193
290.8686	0.1901
291.0813	0.1923
291.294	0.1949
291.5067	0.1872
291.7194	0.1928
291.932	0.1925
292.1447	0.1952
292.3573	0.2002
292.5699	0.1961
292.7825	0.1847
292.9951	0.1952
293.2077	0.195
293.4203	0.1914
293.6328	0.1928
293.8454	0.197
294.0579	0.1945
294.2704	0.194
294.4829	0.1953
294.6954	0.1925
294.9079	0.1966
295.1204	0.189
295.3328	0.1972
295.5453	0.1928
295.7577	0.1982
295.9701	0.1944
296.1825	0.2025
296.3949	0.1875
296.6073	0.1895
296.8197	0.1954
297.0321	0.1925
297.2444	0.1903
297.4567	0.1974
297.6691	0.1916
297.8814	0.1944
298.0937	0.194
298.306	0.1962
298.5182	0.1981
298.7305	0.2011
298.9428	0.1946
299.155	0.1872
299.3672	0.1941
299.5794	0.189
299.7916	0.1951
300.0038	0.1967
300.216	0.1915
300.4282	0.1995
300.6403	0.2014
300.8525	0.1917
301.0646	0.1934
301.2767	0.1901
301.4888	0.1958
301.7009	0.1963
301.913	0.1981
302.125	0.1905
302.3371	0.1907
302.5491	0.1985
302.7612	0.1996
302.9732	0.1965
303.1852	0.1893
303.3972	0.1948
303.6092	0.1919
303.8211	0.1869
304.0331	0.1886
304.245	0.1856
304.457	0.1938
304.6689	0.1892
304.8808	0.189
305.0927	0.1953
305.3046	0.1864
305.5164	0.1853
305.7283	0.1838
305.9401	0.1703
306.152	0.183
306.3638	0.1837
306.5756	0.1824
306.7874	0.1744
306.9992	0.1758
307.2109	0.1697
307.4227	0.1726
307.6344	0.1738
307.8462	0.1677
308.0579	0.1734
308.2696	0.1671
308.4813	0.1667
308.693	0.1582
308.9046	0.164
309.1163	0.1526
309.328	0.1576
309.5396	0.1541
309.7512	0.1528
309.9628	0.1514
310.1744	0.1486
310.386	0.1446
310.5976	0.1488
310.8091	0.1473
311.0207	0.1424
311.2322	0.1443
311.4437	0.1423
311.6552	0.1382
311.8667	0.147
312.0782	0.1411
312.2897	0.1399
312.5012	0.1376
312.7126	0.1287
312.924	0.1396
313.1355	0.1335
313.3469	0.131
313.5583	0.1287
313.7696	0.133
313.981	0.1363
314.1924	0.1255
314.4037	0.1277
314.6151	0.1238
314.8264	0.1288
315.0377	0.1211
315.249	0.1219
315.4603	0.122
315.6716	0.1234
315.8828	0.1219
316.0941	0.1272
316.3053	0.1177
316.5165	0.1248
316.7277	0.1188
316.9389	0.1228
317.1501	0.1192
317.3613	0.1247
317.5724	0.1227
317.7836	0.1175
317.9947	0.1159
318.2058	0.116
318.417	0.1169
318.6281	0.1171
318.8391	0.1198
319.0502	0.1196
319.2613	0.1183
319.4723	0.117
319.6834	0.1174
319.8944	0.1185
320.1054	0.1184
320.3164	0.1159
320.5274	0.119
320.7383	0.1186
320.9493	0.1199
321.1602	0.114
321.3712	0.1176
321.5821	0.1131
321.793	0.1211
322.0039	0.1132
322.2148	0.1213
322.4257	0.118
322.6365	0.1174
322.8474	0.1249
323.0582	0.1194
323.269	0.121
323.4798	0.1204
323.6906	0.1163
323.9014	0.1196
324.1122	0.1186
324.3229	0.1255
324.5337	0.1277
324.7444	0.1237
324.9551	0.1271
325.1658	0.119
325.3765	0.1231
325.5872	0.1264
325.7979	0.1156
326.0085	0.1224
326.2192	0.1153
326.4298	0.1277
326.6404	0.1286
326.851	0.1221
327.0616	0.1245
327.2722	0.1242
327.4828	0.1212
327.6933	0.1285
327.9039	0.1204
328.1144	0.1248
328.3249	0.1253
328.5354	0.1253
328.7459	0.1271
328.9564	0.1254
329.1669	0.1271
329.3773	0.1266
329.5878	0.1209
329.7982	0.1268
330.0086	0.1238
330.219	0.1241
330.4294	0.125
330.6398	0.1243
330.8502	0.1293
331.0605	0.126
331.2708	0.127
331.4812	0.1266
331.6915	0.1235
331.9018	0.128
332.1121	0.1291
332.3224	0.126
332.5326	0.1285
332.7429	0.1299
332.9531	0.1304
333.1633	0.1238
333.3735	0.1214
333.5837	0.13
333.7939	0.1284
334.0041	0.1325
334.2143	0.1262
334.4244	0.136
334.6346	0.1289
334.8447	0.1247
335.0548	0.1369
335.2649	0.1362
335.475	0.1351
335.685	0.1329
335.8951	0.1263
336.1051	0.1384
336.3152	0.1294
336.5252	0.1277
336.7352	0.1267
336.9452	0.1324
337.1552	0.1348
337.3652	0.1341
337.5751	0.1319
337.7851	0.1381
337.995	0.1325
338.2049	0.138
338.4148	0.1346
338.6247	0.1369
338.8346	0.1328
339.0445	0.138
339.2543	0.1359
339.4642	0.1391
339.674	0.1363
339.8838	0.1434
340.0936	0.1375
340.3034	0.1383
340.5132	0.1344
340.7229	0.1368
340.9327	0.1469
341.1424	0.1416
341.3522	0.1354
341.5619	0.1422
341.7716	0.1488
341.9813	0.1399
342.1909	0.1475
342.4006	0.1453
342.6102	0.1506
342.8199	0.1451
343.0295	0.1414
343.2391	0.1466
343.4487	0.148
343.6583	0.1575
343.8679	0.1435
344.0774	0.1427
344.287	0.1477
344.4965	0.1544
344.706	0.1566
344.9155	0.1467
345.125	0.1485
345.3345	0.1637
345.544	0.1514
345.7534	0.1553
345.9629	0.1611
346.1723	0.163
346.3817	0.1468
346.5911	0.1532
346.8005	0.1588
347.0099	0.1623
347.2193	0.1596
347.4286	0.1665
347.638	0.1653
347.8473	0.1673
348.0566	0.1615
348.2659	0.1703
348.4752	0.167
348.6845	0.1636
348.8937	0.1694
349.103	0.1638
349.3122	0.1669
349.5214	0.1693
349.7306	0.1709
349.9398	0.1656
350.149	0.1639
350.3582	0.1685
350.5674	0.1682
350.7765	0.1774
350.9856	0.1629
351.1948	0.1767
351.4039	0.1685
351.613	0.1754
351.822	0.1727
352.0311	0.1704
352.2402	0.1749
352.4492	0.1768
352.6582	0.1733
352.8672	0.1834
353.0762	0.1731
353.2852	0.1742
353.4942	0.1804
353.7032	0.1816
353.9121	0.1788
354.1211	0.176
354.33	0.18
354.5389	0.18
354.7478	0.1754
354.9567	0.1862
355.1655	0.1869
355.3744	0.1774
355.5833	0.1892
355.7921	0.1882
356.0009	0.1843
356.2097	0.1765
356.4185	0.1839
356.6273	0.1895
356.8361	0.1927
357.0448	0.1904
357.2536	0.1919
357.4623	0.1936
357.671	0.1945
357.8797	0.1915
358.0884	0.1899
358.2971	0.1878
358.5057	0.2025
358.7144	0.1935
358.923	0.2005
359.1316	0.2037
359.3402	0.1937
359.5488	0.1985
359.7574	0.2062
359.966	0.2077
360.1746	0.1977
360.3831	0.2146
360.5916	0.2028
360.8002	0.2053
361.0087	0.2063
361.2172	0.2082
361.4256	0.2084
361.6341	0.2123
361.8426	0.2191
362.051	0.216
362.2594	0.2076
362.4678	0.2145
362.6762	0.2193
362.8846	0.2129
363.093	0.2162
363.3014	0.2216
363.5097	0.2206
363.718	0.2311
363.9264	0.2236
364.1347	0.2174
364.343	0.2235
364.5513	0.2258
364.7595	0.2406
364.9678	0.2285
365.176	0.2271
365.3842	0.2379
365.5925	0.2306
365.8007	0.2277
366.0089	0.2417
366.217	0.232
366.4252	0.2344
366.6333	0.2429
366.8415	0.2418
367.0496	0.2394
367.2577	0.2495
367.4658	0.2337
367.6739	0.2406
367.882	0.2491
368.09	0.2355
368.2981	0.2511
368.5061	0.243
368.7141	0.2451
368.9221	0.2566
369.1301	0.2477
369.3381	0.2477
369.5461	0.2463
369.754	0.2561
369.962	0.249
370.1699	0.2615
370.3778	0.2694
370.5857	0.2542
370.7936	0.2524
371.0015	0.2553
371.2093	0.2568
371.4172	0.2562
371.625	0.257
371.8328	0.2518
372.0406	0.2636
372.2484	0.2728
372.4562	0.2676
372.664	0.2629
372.8717	0.2617
373.0795	0.2753
373.2872	0.2717
373.4949	0.2752
373.7026	0.259
373.9103	0.2699
374.118	0.2742
374.3256	0.2799
374.5333	0.272
374.7409	0.2739
374.9485	0.2684
375.1561	0.2779
375.3637	0.2751
375.5713	0.2827
375.7789	0.2766
375.9864	0.2774
376.194	0.2851
376.4015	0.2858
376.609	0.283
376.8165	0.2868
377.024	0.2824
377.2315	0.2762
377.4389	0.2791
377.6464	0.2951
377.8538	0.2875
378.0612	0.296
378.2686	0.2924
378.476	0.2928
378.6834	0.2898
378.8908	0.292
379.0981	0.2931
379.3055	0.2969
379.5128	0.2888
379.7201	0.3002
379.9274	0.286
380.1347	0.2982
380.342	0.3099
380.5492	0.297
380.7565	0.2918
380.9637	0.307
381.1709	0.3074
381.3781	0.3068
381.5853	0.3027
381.7925	0.2976
381.9997	0.307
382.2068	0.3062
382.4139	0.2986
382.6211	0.3074
382.8282	0.32
383.0353	0.3086
383.2424	0.308
383.4494	0.31
383.6565	0.303
383.8635	0.3037
384.0706	0.3076
384.2776	0.3072
384.4846	0.322
384.6916	0.3126
384.8986	0.3079
385.1055	0.3172
385.3125	0.317
385.5194	0.3232
385.7263	0.3111
385.9333	0.3105
386.1402	0.32
386.347	0.3085
386.5539	0.3122
386.7608	0.3037
386.9676	0.3134
387.1744	0.3043
387.3813	0.315
387.5881	0.2998
387.7948	0.3138
388.0016	0.317
388.2084	0.3074
388.4151	0.3189
388.6219	0.3143
388.8286	0.3129
389.0353	0.3112
389.242	0.3194
389.4487	0.3055
389.6553	0.3089
389.862	0.3112
390.0686	0.3074
390.2753	0.3095
390.4819	0.3045
390.6885	0.3052
390.8951	0.2995
391.1016	0.3067
391.3082	0.3116
391.5147	0.2886
391.7213	0.2972
391.9278	0.2922
392.1343	0.3007
392.3408	0.3015
392.5473	0.2925
392.7537	0.2901
392.9602	0.2898
393.1666	0.2935
393.373	0.2883
393.5794	0.2822
393.7858	0.2871
393.9922	0.2825
394.1986	0.2873
394.4049	0.2823
394.6113	0.2841
394.8176	0.2855
395.0239	0.2816
395.2302	0.2837
395.4365	0.2776
395.6428	0.2751
395.8491	0.2793
396.0553	0.271
396.2615	0.2783
396.4678	0.2751
396.674	0.2679
396.8802	0.276
397.0863	0.2666
397.2925	0.2735
397.4987	0.2703
397.7048	0.2864
397.9109	0.2638
398.117	0.2626
398.3231	0.2698
398.5292	0.2568
398.7353	0.2619
398.9413	0.2615
399.1474	0.2627
399.3534	0.2676
399.5594	0.272
399.7654	0.2682
399.9714	0.2659
400.1774	0.266
400.3833	0.2736
400.5893	0.2635
400.7952	0.2654
401.0011	0.2675
401.207	0.2615
401.4129	0.2665
401.6188	0.2681
401.8247	0.2745
402.0305	0.2713
402.2364	0.2697
402.4422	0.2607
402.648	0.2641
402.8538	0.2661
403.0596	0.2594
403.2654	0.2703
403.4711	0.263
403.6768	0.2628
403.8826	0.2669
404.0883	0.2627
404.294	0.2699
404.4997	0.2675
404.7054	0.2701
404.911	0.2671
405.1167	0.2635
405.3223	0.2489
405.5279	0.2662
405.7335	0.2719
405.9391	0.2596
406.1447	0.2707
406.3502	0.265
406.5558	0.262
406.7613	0.2677
406.9668	0.259
407.1724	0.2628
407.3778	0.2627
407.5833	0.2603
407.7888	0.2696
407.9942	0.2611
408.1997	0.2667
408.4051	0.2753
408.6105	0.2701
408.8159	0.2681
409.0213	0.2729
409.2267	0.2733
409.432	0.2613
409.6374	0.2674
409.8427	0.2632
410.048	0.2721
410.2533	0.2696
410.4586	0.266
410.6639	0.2746
410.8691	0.2639
411.0744	0.2623
411.2796	0.256
411.4848	0.2708
411.69	0.2485
411.8952	0.267
412.1004	0.2634
412.3056	0.2627
412.5107	0.2642
412.7158	0.2699
412.921	0.2652
413.1261	0.2615
413.3312	0.2688
413.5362	0.2785
413.7413	0.2599
413.9464	0.2526
414.1514	0.2543
414.3564	0.2686
414.5614	0.2566
414.7664	0.2547
414.9714	0.2577
415.1764	0.268
415.3813	0.2596
415.5863	0.2549
415.7912	0.2509
415.9961	0.2666
416.201	0.2733
416.4059	0.2592
416.6108	0.2561
416.8156	0.256
417.0205	0.2672
417.2253	0.2553
417.4301	0.2523
417.6349	0.2546
417.8397	0.2506
418.0445	0.2584
418.2492	0.2488
418.454	0.2484
418.6587	0.252
418.8634	0.2556
419.0681	0.2534
419.2728	0.2557
419.4775	0.2629
419.6822	0.2486
419.8868	0.2421
420.0915	0.2482
420.2961	0.2436
420.5007	0.2514
420.7053	0.2377
420.9099	0.2432
421.1144	0.2409
421.319	0.2479
421.5235	0.2353
421.728	0.25
421.9325	0.2465
422.137	0.2439
422.3415	0.2467
422.546	0.2326
422.7504	0.2264
422.9549	0.2437
423.1593	0.2306
423.3637	0.2439
423.5681	0.2449
423.7725	0.236
423.9769	0.235
424.1812	0.2225
424.3856	0.2316
424.5899	0.2343
424.7942	0.2199
424.9985	0.2243
425.2028	0.2347
425.4071	0.225
425.6113	0.2165
425.8156	0.223
426.0198	0.2316
426.224	0.2268
426.4282	0.2234
426.6324	0.2234
426.8366	0.21
427.0407	0.2276
427.2449	0.2187
427.449	0.218
427.6531	0.2191
427.8572	0.2098
428.0613	0.2199
428.2654	0.2132
428.4694	0.2064
428.6735	0.206
428.8775	0.2021
429.0815	0.2035
429.2855	0.2015
429.4895	0.2058
429.6935	0.2015
429.8975	0.1896
430.1014	0.2043
430.3053	0.1959
430.5093	0.1915
430.7132	0.1883
430.9171	0.1829
431.1209	0.197
431.3248	0.1794
431.5286	0.1843
431.7325	0.1976
431.9363	0.1782
432.1401	0.1837
432.3439	0.174
432.5477	0.1759
432.7514	0.177
432.9552	0.171
433.1589	0.1712
433.3627	0.1759
433.5664	0.165
433.7701	0.1649
433.9737	0.1677
434.1774	0.1712
434.3811	0.1523
434.5847	0.1722
434.7883	0.1594
434.9919	0.1605
435.1955	0.1541
435.3991	0.1527
435.6027	0.1441
435.8062	0.1655
436.0098	0.1478
436.2133	0.1442
436.4168	0.1429
436.6203	0.1391
436.8238	0.1508
437.0272	0.1475
437.2307	0.1432
437.4341	0.1418
437.6375	0.1377
437.841	0.1346
438.0443	0.1316
438.2477	0.1209
438.4511	0.1161
438.6545	0.1295
438.8578	0.1319
439.0611	0.1321
439.2644	0.1285
439.4677	0.1258
439.671	0.1118
439.8743	0.1293
440.0775	0.114
440.2808	0.1108
440.484	0.1084
440.6872	0.1108
440.8904	0.1046
441.0936	0.1157
441.2967	0.1004
441.4999	0.0964
441.703	0.1029
441.9062	0.1044
442.1093	0.105
442.3124	0.0931
442.5155	0.1014
442.7185	0.0948
442.9216	0.0987
443.1246	0.0877
443.3276	0.0954
443.5307	0.0799
443.7337	0.091
443.9366	0.0872
444.1396	0.0821
444.3426	0.0831
444.5455	0.0874
444.7484	0.0826
444.9513	0.0812
445.1542	0.0788
445.3571	0.0755
445.56	0.0717
445.7628	0.0625
445.9657	0.0741
446.1685	0.0713
446.3713	0.0809
446.5741	0.074
446.7769	0.0838
446.9797	0.0658
447.1824	0.0668
447.3852	0.0558
447.5879	0.0661
447.7906	0.0545
447.9933	0.0635
448.196	0.0609
448.3986	0.0571
448.6013	0.0543
448.8039	0.0591
449.0066	0.0671
449.2092	0.0618
449.4118	0.0426
449.6143	0.055
449.8169	0.0507
450.0195	0.0543
450.222	0.0523
450.4245	0.0498
450.627	0.0457
450.8295	0.0479
451.032	0.0378
451.2345	0.0436
451.4369	0.0448
451.6394	0.0509
451.8418	0.0454
452.0442	0.0476
452.2466	0.0365
452.449	0.0437
452.6513	0.0404
452.8537	0.0341
453.056	0.0283
453.2583	0.0361
453.4607	0.0278
453.663	0.0392
453.8652	0.0303
454.0675	0.0436
454.2697	0.0281
454.472	0.0246
454.6742	0.0306
454.8764	0.0365
455.0786	0.0244
455.2808	0.0352
455.4829	0.0361
455.6851	0.0299
455.8872	0.0247
456.0893	0.0341
456.2915	0.0257
456.4935	0.0316
456.6956	0.0262
456.8977	0.03
457.0997	0.0298
457.3018	0.0214
457.5038	0.0266
457.7058	0.0354
457.9078	0.0267
458.1098	0.026
458.3117	0.0301
458.5137	0.0177
458.7156	0.028
458.9175	0.0219
459.1194	0.0226
459.3213	0.0176
459.5232	0.02
459.725	0.0198
459.9269	0.0204
460.1287	0.0164
460.3305	0.0263
460.5323	0.0244
460.7341	0.0201
460.9359	0.0181
461.1376	0.0211
461.3394	0.016
461.5411	0.0211
461.7428	0.016
461.9445	0.0129
462.1462	0.0164
462.3479	0.0115
462.5495	0.0224
462.7512	0.0294
462.9528	0.0133
463.1544	0.0114
463.356	0.0182
463.5576	0.0161
463.7592	0.0161
463.9607	0.0098
464.1623	0.0094
464.3638	0.0109
464.5653	0.0136
464.7668	0.0194
464.9683	0.0169
465.1697	0.0091
465.3712	0.0098
465.5726	0.0087
465.7741	0.0186
465.9755	0.0099
466.1769	0.0116
466.3782	0.003
466.5796	0.0106
466.7809	0.0099
466.9823	0.0051
467.1836	0.016
467.3849	0.006
467.5862	0.002
467.7875	-0.0002
467.9887	0.0069
468.19	0.0165
468.3912	0.0134
468.5924	0.0014
468.7936	0.0095
468.9948	0.0061
469.196	0.0074
469.3972	0.013
469.5983	0.0102
469.7994	0.0064
470.0006	0.0043
470.2017	-0.0045
470.4027	0.0162
470.6038	0.0086
470.8049	0.011
471.0059	0.0137
471.2069	0.0102
471.408	0.0105
471.6089	0.0138
471.8099	0.0015
472.0109	0.0054
472.2119	0.0164
472.4128	0.0001
472.6137	0.0137
472.8146	0.0045
473.0155	0.0182
473.2164	0.0041
473.4173	-0.0005
473.6181	-0.006
473.819	0.0152
474.0198	0.0045
474.2206	-0.0047
474.4214	0.0049
474.6222	-0.0068
474.8229	0.0026
475.0237	0.0081
475.2244	0.0099
475.4251	0.0032
475.6258	0.0074
475.8265	0.0078
476.0272	0.0007
476.2278	0.0023
476.4285	0.0064
476.6291	0.0043
476.8297	0.0053
477.0303	0.0027
477.2309	0.0087
477.4315	-0.0011
477.632	0.0009
477.8326	0.0087
478.0331	0.007
478.2336	0.0079
478.4341	0.0102
478.6346	0.0056
478.8351	0.004
479.0355	0.0118
479.236	0.0217
479.4364	0.0008
479.6368	0.0026
479.8372	0.0016
480.0376	0.0052
480.2379	0.0059
480.4383	0.0069
480.6386	-0.0082
480.8389	0.0031
481.0392	0.0067
481.2395	0.0132
481.4398	0.007
481.6401	0.0145
481.8403	0.0091
482.0405	0.0045
482.2408	0.0046
482.441	0.0102
482.6411	0.0014
482.8413	0.0006
483.0415	0.0103
483.2416	0.0023
483.4417	0.0029
483.6419	-0.0006
483.8419	0.0065
484.042	0.0041
484.2421	-0.004
484.4422	0.0053
484.6422	0.0001
484.8422	0.0015
485.0422	0.005
485.2422	0.0024
485.4422	0.003
485.6422	0.0002
485.8421	-0.0022
486.042	0.005
486.242	-0.0009
486.4419	0.0042
486.6417	0.0042
486.8416	0.0073
487.0415	-0.0029
487.2413	-0.0062
487.4411	0.004
487.641	0.0061
487.8408	0.0089
488.0405	0.0118
488.2403	-0.0046
488.4401	0.0052
488.6398	0.0068
488.8395	0.0047
489.0392	0.0126
489.2389	0.0046
489.4386	-0.0005
489.6383	0.009
489.8379	-0.002
490.0376	0.0166
490.2372	0.0026
490.4368	0.0012
490.6364	-0.0048
490.836	0.0084
491.0355	-0.0039
491.2351	0.0037
491.4346	0.0077
491.6341	-0.0043
491.8336	0.0082
492.0331	0.0034
492.2326	0.0032
492.432	0.0067
492.6315	0.0118
492.8309	0.0099
493.0303	0.0036
493.2297	0.0078
493.4291	0.0043
493.6284	0.0118
493.8278	0.0022
494.0271	0.0031
494.2264	0.0011
494.4257	0.0081
494.625	-0.0043
494.8243	-0.0041
495.0236	-0.0014
495.2228	0.0061
495.422	0.0057
495.6213	0.0068
495.8205	-0.0008
496.0196	0.0056
496.2188	0.0048
496.418	0.0039
496.6171	-0.0086
496.8162	0.0014
497.0153	0.0054
497.2144	0.0012
497.4135	0.0032
497.6126	0.0001
497.8116	-0.0043
498.0107	0.0103
498.2097	0.0141
498.4087	0.0037
498.6077	-0.0034
498.8067	0.0091
499.0056	-0.0002
499.2046	0.0085
499.4035	0.0028
499.6024	-0.0006
499.8013	0.0077
500.0002	0.0074
500.199	0.0148
500.3979	0.0013
500.5967	0.006
500.7956	0.0072
500.9944	0.0034
501.1932	0.0101
501.3919	0.0077
501.5907	-0.0015
501.7895	0.0005
501.9882	0.0027
502.1869	0.006
502.3856	0.0034
502.5843	0.0042
502.783	-0.001
502.9816	0.0113
503.1803	0.006
503.3789	0.0051
503.5775	-0.0081
503.7761	0.0013
503.9747	0.0048
504.1732	-0.0035
504.3718	0.0071
504.5703	0.0015
504.7689	-0.0027
504.9674	0.002
505.1658	0.0002
505.3643	0.0079
505.5628	0.006
505.7612	0.0098
505.9597	-0.0008
506.1581	-0.0037
506.3565	0.0035
506.5549	0.0061
506.7532	-0.0028
506.9516	0.0097
507.1499	0.0045
507.3482	0.0061
507.5465	0.0136
507.7448	-0.0009
507.9431	0.0064
508.1414	0.0013
508.3396	-0.0069
508.5379	0.0009
508.7361	0.0001
508.9343	0.0098
509.1325	0.0096
509.3306	-0.0056
509.5288	-0.0069
509.7269	0.0041
509.9251	0.0032
510.1232	0.0089
510.3213	0.0054
510.5193	0.0026
510.7174	-0.0032
510.9154	0.004
511.1135	0.0095
511.3115	0.0002
511.5095	0.0007
511.7075	-0.0017
511.9055	-0.0021
512.1034	0.0035
512.3014	0.0021
512.4993	0.0085
512.6972	0.0045
512.8951	-0.0037
513.093	-0.0047
513.2908	0.0141
513.4887	0.0024
513.6865	0.0044
513.8844	0.0077
514.0822	0.012
514.2799	-0.003
514.4777	-0.0091
514.6755	-0.0005
514.8732	0.0037
515.0709	0.0039
515.2687	0.0022
515.4664	0.0099
515.664	0.0107
515.8617	0.0085
516.0594	-0.0011
516.257	0.0073
516.4546	0.0147
516.6522	0.0079
516.8498	0.0032
517.0474	0.0028
517.2449	-0.0034
517.4425	0.0039
517.64	-0.0037
517.8375	0.007
518.035	-0.0078
518.2325	-0.0054
518.43	-0.0032
518.6274	0.0028
518.8249	-0.0011
519.0223	0.0139
519.2197	0.002
519.4171	-0.0021
519.6145	0.0025
519.8118	0.0011
520.0092	-0.0021
520.2065	0.0105
520.4038	0.0068
520.6011	0.002
520.7984	0.0104
520.9956	0.007
521.1929	0.0012
521.3901	0.0069
521.5874	0.0096
521.7846	0.0033
521.9818	-0.0037
522.1789	-0.0052
522.3761	0.0192
522.5732	0.0031
522.7704	0.0039
522.9675	-0.0057
523.1646	-0.0039
523.3617	0.0184
523.5587	0.0026
523.7558	0.0005
523.9528	0.0128
524.1498	-0.005
524.3468	-0.0017
524.5438	0.0071
524.7408	0.0026
524.9378	0.015
525.1347	0.0073
525.3316	0.0034
525.5285	0.0035
525.7254	0.0091
525.9223	0.018
526.1192	0.0035
526.316	0.011
526.5129	0.0038
526.7097	-0.0011
526.9065	0.0075
527.1033	0.0083
527.3	-0.0028
527.4968	0.0062
527.6935	-0.0048
527.8903	-0.0001
528.087	0.0072
528.2837	0.0109
528.4804	0.003
528.677	0.007
528.8737	0.001
529.0703	0.0004
529.2669	0.007
529.4635	-0.0038
529.6601	-0.0102
529.8567	-0.0016
530.0532	-0.0058
530.2498	-0.0045
530.4463	-0.0002
530.6428	0.0077
530.8393	0.0182
531.0358	0.0004
531.2322	0.0048
531.4287	-0.0028
531.6251	0.0002
531.8215	-0.0034
532.0179	0.0074
532.2143	-0.0033
532.4107	0.0135
532.607	-0.0098
532.8034	-0.0075
532.9997	0.0052
533.196	-0.0059
533.3923	0.005
533.5886	0.0115
533.7848	-0.0096
533.9811	0.0117
534.1773	0.0059
534.3735	0.0066
534.5697	-0.0022
534.7659	-0.0006
534.9621	0.0064
535.1582	0.0044
535.3544	0.0039
535.5505	0.0073
535.7466	0.0073
535.9427	-0.0004
536.1387	-0.0004
536.3348	0.0061
536.5308	0.0026
536.7269	0.0033
536.9229	0.012
537.1189	0.0107
537.3148	0.0064
537.5108	-0.0048
537.7068	0.0131
537.9027	-0.0106
538.0986	0.0077
538.2945	0.0037
538.4904	-0.0042
538.6863	-0.006
538.8821	0.0047
539.078	0.0113
539.2738	0.0022
539.4696	-0.0133
539.6654	-0.0021
539.8611	0.0007
540.0569	-0.005
540.2526	0.005
540.4484	-0.0032
540.6441	0.0071
540.8398	0.0143
541.0355	-0.0003
541.2311	0.0072
541.4268	0.015
541.6224	0.0102
541.818	0.0047
542.0136	0.0067
542.2092	0.0106
542.4048	0.004
542.6003	0.0002
542.7959	0.0058
542.9914	0.0044
543.1869	-0.0035
543.3824	0.0005
543.5779	0.0073
543.7734	0.0255
543.9688	0.0124
544.1642	0.0068
544.3596	0.015
544.555	-0.0036
544.7504	0.0135
544.9458	0.0022
545.1411	0.0062
545.3365	0.0041
545.5318	0.0072
545.7271	0.0028
545.9224	0.0009
546.1177	0.0032
546.3129	0.0026
546.5081	-0.0027
546.7034	0.0081
546.8986	0.0038
547.0938	0.0114
547.289	0.0032
547.4841	0.0051
547.6793	-0.0046
547.8744	0.0074
548.0695	-0.0015
548.2646	0.0049
548.4597	0.0058
548.6548	0.0061
548.8498	0.0075
549.0448	0.0039
549.2399	0.0116
549.4349	0.0076
549.6298	0.0144
549.8248	0.0007
550.0198	0.0099
550.2147	0.0018
550.4096	-0.0063
550.6045	-0.0016
550.7994	0.0045
550.9943	-0.0009
551.1892	-0.0088
551.384	0.0114
551.5788	-0.0003
551.7737	0.007
551.9685	0.0078
552.1632	-0.0064
552.358	-0.0012
552.5528	0.0134
552.7475	0.0021
552.9422	0.0009
553.1369	0.0081
553.3316	0.0073
553.5263	0.011
553.7209	0.0068
553.9156	0.001
554.1102	0.0085
554.3048	-0.0035
554.4994	-0.0007
554.694	0.0092
554.8885	0.0006
555.0831	0.0096
555.2776	0.0012
555.4721	-0.0027
555.6666	0.0098
555.8611	0.0074
556.0555	0.0042
556.25	0.0084
556.4444	0.0001
556.6388	0.0061
556.8332	0.0026
557.0276	0.009
557.222	-0.007
557.4163	0.0122
557.6107	-0.0025
557.805	-0.006
557.9993	-0.0046
558.1936	-0.0029
558.3879	-0.0061
558.5821	-0.001
558.7764	0.0067
558.9706	-0.0042
559.1648	0.0071
559.359	0.0021
559.5532	-0.0068
559.7473	0.0011
559.9415	0.0038
560.1356	0.0108
560.3297	-0.0004
560.5238	0.0022
560.7179	0.0054
560.9119	0.0016
561.106	0.0004
561.3	-0.001
561.494	-0.0131
561.688	-0.0001
561.882	-0.0088
562.076	0.007
562.2699	0.0118
562.4639	0.0122
562.6578	0.0112
562.8517	-0.0021
563.0456	0.0114
563.2395	0.0014
563.4333	0.007
563.6272	-0.0001
563.821	0.003
564.0148	0.0024
564.2086	-0.0001
564.4024	0.005
564.5961	-0.0005
564.7899	0.0116
564.9836	0.0037
565.1773	0.0073
565.371	0.0058
565.5647	0.0032
565.7584	0.0127
565.952	0.0038
566.1456	0.004
566.3393	0.0053
566.5329	0.0007
566.7264	0.004
566.92	0.0006
567.1136	0.0038
567.3071	-0.0031
567.5006	0.0096
567.6941	0.0098
567.8876	0.0061
568.0811	0.0238
568.2745	-0.0044
568.468	0.0034
568.6614	0.0128
568.8548	0.0028
569.0482	0.0057
569.2416	0.0021
569.4349	0.0038
569.6283	0.0003
569.8216	0.0053
570.0149	-0.0033
570.2082	0.0074
570.4015	-0.0004
570.5947	0.0047
570.788	0.0049
570.9812	0.0039
571.1744	0.0068
571.3676	0.0047
571.5608	-0.0006
571.754	0.0117
571.9471	0.0075
572.1402	-0.0032
572.3333	0.0029
572.5264	0.005
572.7195	0.0026
572.9126	0.0018
573.1057	0.0043
573.2987	0.005
573.4917	0.0038
573.6847	0.0021
573.8777	0.0061
574.0707	0.0023
574.2636	0.0006
574.4566	0.0023
574.6495	0.0008
574.8424	0.0071
575.0353	0.0094
575.2281	0.0033
575.421	0.0006
575.6138	0.0011
575.8067	0.0047
575.9995	0.0035
576.1923	0.0025
576.385	0.0007
576.5778	0.0055
576.7706	0.002
576.9633	0.0056
577.156	-0.0046
577.3487	0.003
577.5414	0.0011
577.734	0.0015
577.9267	0.0049
578.1193	0.005
578.3119	-0.0011
578.5045	0.0034
578.6971	-0.0015
578.8897	0.0002
579.0822	0.0058
579.2747	0.0015
579.4673	0.0016
579.6598	0.0041
579.8522	0.0037
580.0447	0.0048
580.2372	0.0102
580.4296	0.0058
580.622	0.0017
580.8144	0.0025
581.0068	0.004
581.1992	0.0053
581.3915	0.0001
581.5839	0.0027
581.7762	0.0006
581.9685	0.0012
582.1608	0.0015
582.353	-0
582.5453	0.0048
582.7375	0.0082
582.9298	-0.0024
583.122	-0.0009
583.3142	0.0038
583.5063	0.0038
583.6985	-0.0024
583.8906	0.001
584.0827	0.0074
584.2749	-0.0023
584.4669	0.0036
584.659	0.0057
584.8511	0.0074
585.0431	0.0056
585.2352	-0.0001
585.4272	0.0022
585.6192	0.0069
585.8111	0.0024
586.0031	-0.0009
586.195	0
586.387	0.0018
586.5789	0.0033
586.7708	0.0067
586.9627	0.0056
587.1545	0.0038
587.3464	0.0069
587.5382	0.0058
587.73	0.0079
587.9218	0.0013
588.1136	-0.0016
588.3053	0.0026
588.4971	-0.0007
588.6888	0.0025
588.8805	-0.003
589.0722	0.0123
589.2639	0.0027
589.4556	0.0073
589.6472	0.011
589.8389	0.0056
590.0305	-0.0031
590.2221	0.01
590.4137	-0.0012
590.6052	0.004
590.7968	0.0004
590.9883	0.0041
591.1798	0.0035
591.3713	0.0008
591.5628	0.0056
591.7543	0.0018
591.9458	0
592.1372	0.0032
592.3286	0.0016
592.52	0.0031
592.7114	0.0011
592.9028	0.0096
593.0941	0.0018
593.2855	-0.0008
593.4768	0.0076
593.6681	0.0069
593.8594	0.0061
594.0506	0.0027
594.2419	0.0078
594.4331	0.0005
594.6244	-0.0029
594.8156	0.0018
595.0067	-0.0034
595.1979	0.0012
595.3891	0.0052
595.5802	0.0059
595.7713	0.0068
595.9624	0.0016
596.1535	0.0018
596.3446	0.0024
596.5357	0.007
596.7267	0.0039
596.9177	0.0014
597.1087	0.0003
597.2997	0.0095
597.4907	0.0021
597.6817	0.0059
597.8726	0.005
598.0635	0.002
598.2544	0.0077
598.4453	0.007
598.6362	0.003
598.827	-0.0002
599.0179	0.0002
599.2087	0.0052
599.3995	0.0074
599.5903	0.0111
599.7811	0.0089
599.9718	0.0021
600.1626	0.0026
600.3533	-0.0021
600.544	0.0009
600.7347	0.0046
600.9254	0.0065
601.116	-0.0002
601.3067	0.0006
601.4973	0.0046
601.6879	0.0003
601.8785	0.0029
602.0691	0.0035
602.2596	-0.0048
602.4502	0.0061
602.6407	0.0081
602.8312	0.0017
603.0217	0.0049
603.2122	0.0019
603.4027	0.0008
603.5931	-0.0047
603.7835	0.0054
603.9739	-0.0012
604.1643	0.0069
604.3547	0.0063
604.5451	0.0064
604.7354	-0.0021
604.9257	0.0015
605.116	-0
605.3063	0.0032
605.4966	0.0012
605.6869	0.0106
605.8771	-0
606.0673	-0.0001
606.2575	0.0059
606.4477	0.0062
606.6379	0.0017
606.8281	-0.0031
607.0182	0.0045
607.2083	0.0017
607.3985	-0.0011
607.5885	0.0049
607.7786	0.0091
607.9687	0.0024
608.1587	0.0099
608.3488	0.0057
608.5388	-0.0026
608.7288	-0.0008
608.9187	0.0035
609.1087	0.0047
609.2986	0.0045
609.4886	0.0005
609.6785	0.0104
609.8684	-0.0012
610.0582	-0.0021
610.2481	-0.0073
610.4379	0.0075
610.6278	0.0032
610.8176	0.008
611.0074	0.0116
611.1971	-0.0017
611.3869	0.0043
611.5766	-0.0082
611.7664	0.0095
611.9561	0.0091
612.1458	0.0081
612.3354	0.0009
612.5251	-0.0033
612.7147	0.0094
612.9044	0.0023
613.094	0.0071
613.2836	0.0027
613.4731	-0.0042
613.6627	0.0086
613.8522	0.0022
614.0417	0.0084
614.2313	0.0032
614.4207	-0.0003
614.6102	-0.0013
614.7997	0.0112
614.9891	0.0062
615.1785	-0.0061
615.3679	0.0083
615.5573	0.0018
615.7467	-0.007
615.9361	0.0043
616.1254	0.0085
616.3147	0.0022
616.504	-0.0061
616.6933	0.0052
616.8826	0.0046
617.0718	0.0081
617.2611	-0.0014
617.4503	-0.0029
617.6395	0.0043
617.8287	0.0085
618.0179	0.0022
618.207	0.0069
618.3961	-0.0029
618.5853	0.0007
618.7744	0.0028
618.9634	0.0109
619.1525	0.0056
619.3416	0.0009
619.5306	0.0114
619.7196	0.0114
619.9086	0.0057
620.0976	-0.0053
620.2866	0.0101
620.4755	-0.0045
620.6645	0.0036
620.8534	0.0083
621.0423	0.0036
621.2312	-0.004
621.42	0.0016
621.6089	0.0012
621.7977	0.0121
621.9865	-0.0025
622.1753	-0.001
622.3641	-0.0065
622.5529	0.0013
622.7416	-0.0022
622.9303	0.0006
623.1191	0.0019
623.3078	0.0022
623.4964	-0.0029
623.6851	0.0024
623.8737	0.0059
624.0624	-0.0049
624.251	-0.0066
624.4396	-0.0025
624.6282	0.0044
624.8167	-0.0042
625.0053	0.0011
625.1938	0.0101
625.3823	0.0067
625.5708	-0.0055
625.7593	-0.0028
625.9477	0.0056
626.1362	-0.0039
626.3246	0.001
626.513	-0.0023
626.7014	0.013
626.8898	0.0159
627.0781	0.0063
627.2665	0.0092
627.4548	0.0044
627.6431	0.0056
627.8314	0.0145
628.0197	0.0021
628.2079	-0.0012
628.3962	0.0044
628.5844	0.0043
628.7726	-0.0072
628.9608	0.0049
629.1489	0.0045
629.3371	-0.0031
629.5252	0.0137
629.7134	0.0014
629.9015	0.0102
630.0895	-0.0145
630.2776	0.0015
630.4657	0.0107
630.6537	0.0085
630.8417	-0.0122
631.0297	0.0043
631.2177	0.0061
631.4057	0.004
631.5936	0.002
631.7815	0.011
631.9695	0.0211
632.1574	0.0154
632.3452	0.0119
632.5331	0.0112
632.7209	0.0222
632.9088	0.0149
633.0966	0.0189
633.2844	-0.0036
633.4722	0.0078
633.6599	0.0188
633.8477	0.0177
634.0354	0.0254
634.2231	-0.0034
634.4108	0.0029
634.5985	0.0151
634.7861	-0.0048
634.9738	-0.0068
635.1614	0.0026
635.349	0.0092
635.5366	0.015
635.7242	0.0032
635.9117	0.0075
636.0993	0.0042
636.2868	0.002
636.4743	0.0107
636.6618	-0.0094
636.8492	0.0148
637.0367	-0.0058
637.2241	0.0198
637.4115	0.0253
637.5989	0.0016
637.7863	0.0332
637.9737	0.0144
638.161	0.0094
638.3484	-0.006
638.5357	0.0066
638.723	0.0028
638.9103	-0.007
639.0975	0.007
639.2848	0.0141
639.472	0.0101
639.6592	-0.0097
639.8464	-0.0109
640.0336	0.0109
640.2208	-0.003
640.4079	-0.0154
640.595	-0.0059
640.7821	0.0194
640.9692	-0.0037
641.1563	0.0062
641.3434	0.0053
641.5304	0.0115
641.7174	0.0158
641.9044	0.0293
642.0914	0.0334
642.2784	-0.0012
642.4653	-0.0113
642.6523	0.0142
642.8392	-0.0003
643.0261	0.0044
643.213	-0.0016
643.3999	0.005
643.5867	0.0065
643.7735	0.0009
643.9604	0.011
644.1472	0.0188
644.3339	-0.0145
644.5207	0.0157
644.7075	0.0116
644.8942	-0.0144
645.0809	0.0061
645.2676	0.0138
645.4543	-0.0187
645.6409	0.0122
645.8276	0.0095
646.0142	-0.0014
646.2008	-0.0022
646.3874	0.0019
646.574	0.0095
646.7605	0.0056
646.9471	0.0095
647.1336	-0.0217
647.3201	0.0172
647.5066	0.0062
647.6931	-0.0049
647.8795	-0.0017
648.0659	0.0009
648.2524	0.0156
648.4388	0.0068
648.6252	0.0049
648.8115	0.0106
648.9979	-0.0103
649.1842	-0.0007
649.3705	0.0014
649.5568	-0.0102
649.7431	-0.0069
649.9294	0.0089
650.1156	-0.0111
650.3018	0.0172
650.488	-0.0142
650.6742	0.0159
650.8604	0.01
651.0466	-0.0042
651.2327	0.0021
651.4188	-0.0087
651.6049	0.0103
651.791	0.0045
651.9771	0.0133
652.1632	0.0026
652.3492	0.0125
652.5352	0.0002
652.7212	0.0089
652.9072	-0
653.0932	0.0027
653.2791	0.0228
653.465	0.0112
653.651	0.0043
653.8369	0.0033
654.0227	-0.0116
654.2086	0.0145
654.3944	0.0219
654.5803	0.0025
654.7661	0.0065
654.9519	0.0036
655.1377	0.0001
655.3234	0.0001
655.5092	0.0001
655.6949	0.0001
655.8806	0.0001
656.0663	0.0001
656.2519	0.0001
656.4376	0.0001
656.6232	0.0001
656.8088	0.0001
656.9945	0.0001
657.18	0.0001
657.3656	0.0001
657.5511	0.0001
657.7367	0.0001
657.9222	0.0001
658.1077	0.0001
658.2932	0.0001
658.4786	0.0001
658.6641	0.0001
658.8495	0.0001
659.0349	0.0001
659.2203	0.0001
659.4057	0.0001
659.591	0.0605
659.7764	0.0161
659.9617	0.0029
660.147	0.0088
660.3323	0.0087
660.5176	0.0013
660.7028	0.0036
660.888	0.0122
661.0733	0.0268
661.2585	-0.0045
661.4436	0.0181
661.6288	-0
661.8139	-0.01
661.9991	-0.0099
662.1842	-0.0178
662.3693	0.0002
662.5544	0.0031
662.7394	0.0068
662.9245	0.0274
663.1095	-0.0096
663.2945	-0.0051
663.4795	-0
663.6644	-0.0014
663.8494	0.0169
664.0343	0.0079
664.2193	0.0013
664.4042	0.0031
664.589	0.0119
664.7739	0.0139
664.9587	-0.011
665.1436	-0.0135
665.3284	0.0065
665.5132	-0.0269
665.698	0.0104
665.8827	0.0165
666.0675	-0.0258
666.2522	0.004
666.4369	0.0095
666.6216	0.003
666.8063	-0.0011
666.9909	0.0081
667.1756	0.01
667.3602	-0.0027
667.5448	0.0257
667.7294	0.0199
667.9139	-0.0289
668.0985	0.0106
668.283	-0.0055
668.4675	0.0066
668.652	0.02
668.8365	-0.0037
669.0209	0.0055
669.2054	0.0089
669.3898	0.0121
669.5742	0.0445
669.7586	0.0421
669.943	0.0211
670.1273	-0.0119
670.3117	0.0299
670.496	0.0254
670.6803	0.0282
670.8646	-0.0082
671.0488	0.0239
671.2331	-0.0131
671.4173	0.0108
671.6015	0.0071
671.7857	0.0072
671.9699	0.0135
672.1541	0.0058
672.3382	0.0219
672.5223	0.0135
672.7064	0.0071
672.8905	-0.016
673.0746	0.0058
673.2587	-0.0018
673.4427	0.0155
673.6267	0.0103
673.8107	0.0233
673.9947	0.0181
674.1787	-0.0064
674.3626	-0.0029
674.5465	0.0079
674.7304	-0.0036
674.9143	-0.0029
675.0982	0.0169
675.2821	-0.0109
675.4659	0.0015
675.6497	0.0118
675.8335	-0.006
676.0173	-0.0113
676.2011	0.0142
676.3849	0.0006
676.5686	0.0025
676.7523	0.0046
676.936	-0.0088
677.1197	0.003
677.3034	0.0227
677.487	0.0137
677.6706	0.0064
677.8542	-0.0105
678.0378	0.0107
678.2214	0.0181
678.405	0.01
678.5885	0.0165
678.772	0.0096
678.9555	-0.0058
679.139	0.0184
679.3225	0.0089
679.5059	-0.0046
679.6894	0.0042
679.8728	0.0103
680.0562	0.0191
680.2395	-0.0059
680.4229	0.0126
680.6062	0.0125
680.7896	0.0007
680.9729	0.0194
681.1562	-0.0171
681.3394	-0.011
681.5227	0.0028
681.7059	0.012
681.8891	0.0026
682.0723	-0.0143
682.2555	0.0037
682.4387	0.0244
682.6218	0.0141
682.805	0.0219
682.9881	0.0161
683.1712	0.0051
683.3542	-0.0017
683.5373	-0.0209
683.7203	-0.0086
683.9034	0.0011
684.0864	-0.0009
684.2694	0.0037
684.4523	0.0147
684.6353	0.0042
684.8182	-0.0124
685.0011	0.0109
685.184	-0.0004
685.3669	0.0191
685.5498	-0.0142
685.7326	0.0036
685.9154	-0.0022
686.0982	0.0197
686.281	-0.0009
686.4638	0.0171
686.6465	-0.0035
686.8293	-0.0069
687.012	0.0092
687.1947	0.0042
687.3774	0.0166
687.56	0.0012
687.7427	0.0044
687.9253	-0.02
688.1079	0.0131
688.2905	0.0091
688.4731	0.0232
688.6556	0.0042
688.8382	-0.049
689.0207	0.0189
689.2032	0.0067
689.3857	-0.0016
689.5681	-0.0006
689.7506	0.0268
689.933	0.009
690.1154	0.0123
690.2978	0.0002
690.4802	0.0267
690.6626	0.0073
690.8449	0.0146
691.0272	-0.0064
691.2095	-0.0232
691.3918	0.009
691.5741	0.0187
691.7563	0.0237
691.9386	0.016
692.1208	0.0126
692.303	0.0048
692.4852	-0.0197
692.6673	0.0272
692.8495	-0.0095
693.0316	0.0118
693.2137	0.0111
693.3958	0.0138
693.5778	0.0071
693.7599	-0.0085
693.9419	0.0017
694.1239	0.01
694.3059	0.0325
694.4879	0.0062
694.6699	0.014
694.8518	-0
695.0337	-0.0038
695.2157	0.0357
695.3975	0.0103
695.5794	0.0003
695.7613	0.0079
695.9431	-0.0189
696.1249	0.0201
696.3067	-0.017
696.4885	0.0064
696.6703	-0.0004
696.852	0.0046
697.0337	0.024
697.2154	0.0237
697.3971	0.0131
697.5788	-0.0095
697.7605	-0.0151
697.9421	0.016
698.1237	0.0062
698.3053	-0.0064
698.4869	0.0067
698.6685	0.0066
698.85	0.0327
699.0315	-0.0166
699.213	0.0086
699.3945	-0.0001
699.576	0.0211
699.7575	0.0069
699.9389	-0.0097
700.1203	0.0039
700.3017	0.02
700.4831	0.0215
700.6645	0.0234
700.8458	-0.0164
701.0271	0.048
701.2084	0.009
701.3897	0.009
701.571	-0.0004
701.7523	0.0003
701.9335	0.0164
702.1147	0.0125
702.2959	-0.0061
702.4771	0.0154
702.6583	0.0028
702.8394	-0.0101
703.0205	0.0164
703.2016	-0.0135
703.3827	-0.0008
703.5638	0.0064
703.7449	0.0165
703.9259	0.0098
704.1069	-0.0102
704.2879	0.0027
704.4689	-0.0118
704.6499	0.0238
704.8308	0.0367
705.0117	0.0213
705.1927	0.0049
705.3735	0.0246
705.5544	0.0081
705.7353	-0.0075
705.9161	-0.0089
706.0969	0.0149
706.2777	0.0018
706.4585	-0.0171
706.6393	0.031
706.82	0.0037
707.0007	-0.0108
707.1815	-0.0076
707.3621	0.0234
707.5428	0.0118
707.7235	0.0047
707.9041	0.0044
708.0847	0.001
708.2653	0.0204
708.4459	-0.006
708.6265	-0.0113
708.807	0.0066
708.9875	-0.0073
709.168	0.0132
709.3485	0.0103
709.529	0.0161
709.7095	0.0027
709.8899	0.0234
710.0703	0.0122
710.2507	0.0128
710.4311	-0.0197
710.6115	0.0228
710.7918	0.0177
710.9721	-0.0025
711.1524	-0.0074
711.3327	-0.0238
711.513	0.0104
711.6932	0.0067
711.8735	0.0395
712.0537	-0.0113
712.2339	0.0176
712.4141	0.0242
712.5942	0.014
712.7744	0.0036
712.9545	0.0051
713.1346	0.0126
713.3147	0.0031
713.4947	0.0047
713.6748	0.0186
713.8548	0.0239
714.0348	0.014
714.2148	0.0138
714.3948	-0.006
714.5748	0.0084
714.7547	0.0101
714.9346	0.0071
715.1145	-0.0105
715.2944	-0.0256
715.4743	0.0441
715.6541	-0.0069
715.834	0.0529
716.0138	-0.0048
716.1936	-0.0101
716.3733	-0.008
716.5531	-0.0201
716.7328	0.0168
716.9126	0.0106
717.0923	-0.0113
717.2719	0.0185
717.4516	0.0043
717.6312	-0.0164
717.8109	0.0414
717.9905	0.0405
718.1701	0.0172
718.3496	0.0043
718.5292	0.0041
718.7087	0.0124
718.8882	0.0325
719.0677	-0.0105
719.2472	0.0076
719.4267	0.0048
719.6061	-0.0018
719.7856	0.0319
719.965	-0.0038
720.1443	-0.0128
720.3237	-0.0175
720.5031	-0.0046
720.6824	0.0003
720.8617	-0.0012
721.041	0.0197
721.2203	-0.0282
721.3995	-0.0001
721.5788	-0.0036
721.758	0.0062
721.9372	-0.0017
722.1164	0.0174
722.2956	0.0017
722.4747	0.007
722.6538	0.0147
722.8329	0.0366
723.012	-0.0068
723.1911	-0.006
723.3702	0.0023
723.5492	0.0188
723.7282	0.0047
723.9072	0.0208
724.0862	-0.0023
724.2652	-0.0081
724.4441	0.0128
724.623	0.009
724.8019	0.0167
724.9808	0.0079
725.1597	0.0141
725.3385	0.0289
725.5174	0.0013
725.6962	0.0234
725.875	0.023
726.0538	0.0038
726.2325	0.0227
726.4112	-0.0104
726.59	-0.0043
726.7687	-0.0123
726.9474	0.0064
727.126	0.0189
727.3047	-0.0001
727.4833	-0.0034
727.6619	-0.0103
727.8405	0.0217
728.0191	0.0435
728.1976	-0.0008
728.3762	0.0239
728.5547	0.0062
728.7332	0.015
728.9116	0.0243
729.0901	0.0009
729.2686	0.0235
729.447	0.0022
729.6254	0.0218
729.8038	-0.001
729.9821	-0.0212
730.1605	0.001
730.3388	0.001
730.5171	0.0084
730.6954	-0.0154
730.8737	0.0145
731.0519	-0.0056
731.2302	0.0173
731.4084	0.0086
731.5866	-0.0198
731.7648	-0.0006
731.9429	0.0259
732.1211	-0.0068
732.2992	0.002
732.4773	-0.002
732.6554	-0.0142
732.8335	0.0152
733.0115	-0.0032
733.1896	-0
733.3676	0.013
733.5456	0.0048
733.7235	-0.0049
733.9015	0.007
734.0794	-0.0019
734.2574	-0.0062
734.4353	0.0154
734.6131	-0.0009
734.791	0.0022
734.9689	-0.0079
735.1467	-0.0031
735.3245	0.0051
735.5023	0.0143
735.68	-0.0055
735.8578	0.0108
736.0355	0.0294
736.2132	0.0071
736.3909	0.0129
736.5686	-0.0006
736.7463	-0.0303
736.9239	0.0224
737.1015	-0.0097
737.2791	0.035
737.4567	0.009
737.6343	-0.0092
737.8118	-0.0115
737.9894	0.0067
738.1669	0.0009
738.3444	0.0287
738.5218	-0.0073
738.6993	0.0022
738.8767	-0.0092
739.0541	-0.0074
739.2315	0.0023
739.4089	0.0336
739.5863	-0.001
739.7636	-0.0004
739.9409	-0.0069
740.1182	-0.005
740.2955	0.0078
740.4728	-0.0074
740.65	0.0117
740.8272	0.0104
741.0044	0.0015
741.1816	0.0245
741.3588	-0.0273
741.5359	-0.0153
741.7131	-0.0049
741.8902	0.0049
742.0673	-0.0111
742.2444	0.0213
742.4214	0.0114
742.5985	-0.0042
742.7755	0.0017
742.9525	-0.0119
743.1295	-0.0349
743.3064	-0.0064
743.4834	-0.0055
743.6603	0.0578
743.8372	-0.0258
744.0141	0.0336
744.191	0.0176
744.3678	-0.033
744.5446	0.0054
744.7215	0.0066
744.8982	0.0168
745.075	0.0141
745.2518	-0.0068
745.4285	0.0412
745.6052	-0.0074
745.7819	-0.0183
745.9586	0.01
746.1353	-0.0559
746.3119	0.0104
746.4885	0.0185
746.6651	0.0051
746.8417	-0.0121
747.0183	0.0109
747.1948	-0.0082
747.3714	0.0221
747.5479	0.0185
747.7244	-0.0023
747.9008	-0.0006
748.0773	0.0211
748.2537	0.0313
748.4301	-0.0228
748.6065	-0.009
748.7829	-0.0042
748.9593	0.0247
749.1356	-0.0122
749.3119	0.0051
749.4882	0.0089
749.6645	0.0088
749.8408	0.0078
750.017	0.0117
750.1933	-0.0021
750.3695	-0.003
750.5457	-0.0017
750.7218	-0.0079
750.898	-0.0064
751.0741	0.0067
751.2502	0.0052
751.4263	-0.0032
751.6024	0.0074
751.7784	-0.0067
751.9545	0.0138
752.1305	0.0189
752.3065	0.0318
752.4825	-0.0044
752.6584	0.0311
752.8344	-0.0077
753.0103	-0.0293
753.1862	0.0044
753.3621	0.0009
753.5379	-0.007
753.7138	0.0061
753.8896	-0.0098
754.0654	0.0047
754.2412	0.0059
754.417	0.0167
754.5927	0.0234
754.7685	0.005
754.9442	0.0154
755.1199	-0.0126
755.2956	-0.0009
755.4712	-0.0095
755.6469	-0.0136
755.8225	0.0002
755.9981	0.0056
756.1736	0.0134
756.3492	0.0068
756.5248	0.0133
756.7003	-0.0027
756.8758	-0.0058
757.0513	0.0075
757.2267	0.0035
757.4022	0.0054
757.5776	0.0024
757.753	0.0303
757.9284	0.0024
758.1038	0.0127
758.2791	0.02
758.4545	-0.0046
758.6298	0.0171
758.8051	-0.0033
758.9803	0.0012
759.1556	-0.0003
759.3308	0.0004
759.506	0.0143
759.6812	-0.0043
759.8564	-0.012
760.0316	-0.0004
760.2067	0.0222
760.3819	0.0024
760.557	0.0021
760.732	0.0056
760.9071	0.0213
761.0821	-0.01
761.2572	-0.0044
761.4322	0.005
761.6072	-0.0065
761.7821	-0.0291
761.9571	0.0178
762.132	0.0107
762.3069	-0.0078
762.4818	0.0146
762.6567	-0.0194
762.8316	0.0052
763.0064	0.0026
763.1812	0.0212
763.356	-0.0142
763.5308	0.0094
763.7055	-0.0038
763.8803	-0.0267
764.055	-0.0028
764.2297	-0.008
764.4044	-0.0114
764.579	0.0097
764.7537	0.0092
764.9283	0.0018
765.1029	0.0069
765.2775	0.01
765.4521	0.007
765.6266	-0.0281
765.8011	-0.0007
765.9756	0.0054
766.1501	-0.003
766.3246	-0.0005
766.4991	0.0047
766.6735	0.0276
766.8479	0.0274
767.0223	0.0194
767.1967	0.009
767.371	0.0248
767.5454	0.0205
767.7197	0.0147
767.894	0.0048
768.0683	0.0123
768.2425	0.0021
768.4168	0.0111
768.591	0.0003
768.7652	-0.006
768.9394	-0.0499
769.1135	-0.0158
769.2877	-0.0055
769.4618	0.0311
769.6359	0.0222
769.81	-0.0009
769.984	0.0052
770.1581	0.0086
770.3321	0.0301
770.5061	0.0014
770.6801	-0.0243
770.8541	-0.0199
771.028	0.029
771.202	0.0189
771.3759	0.0054
771.5498	0.0029
771.7236	0.0076
771.8975	0.0306
772.0713	0.0162
772.2451	-0.027
772.4189	0.0093
772.5927	-0.0366
772.7665	-0.0337
772.9402	-0.0022
773.1139	0.0049
773.2876	0.015
773.4613	0.0225
773.635	0.0448
773.8086	0.0044
773.9822	0.0214
774.1558	0.0181
774.3294	0.0323
774.503	0.0027
774.6765	-0.0001
774.8501	0.0145
775.0236	0.0055
775.1971	-0.0289
775.3705	-0.0063
775.544	-0.0454
775.7174	0.0277
775.8908	0.0306
776.0642	-0.0083
776.2376	-0.0018
776.4109	0.0147
776.5843	0.0078
776.7576	-0.0027
776.9309	0.0024
777.1041	-0.0367
777.2774	0.0108
777.4506	-0.0315
777.6238	-0.0232
777.797	0.0156
777.9702	0.0105
778.1434	0.0188
778.3165	-0.0258
778.4896	-0.0196
778.6627	0.0004
778.8358	-0.0047
779.0089	-0.0229
779.1819	0.0409
779.3549	0.0152
779.5279	0.0064
779.7009	0.0699
779.8739	0.0694
780.0468	-0.0064
780.2197	0.0224
780.3926	-0.0237
780.5655	-0.0097
780.7384	0.0135
780.9112	0.0037
781.0841	0.0027
781.2569	-0.0059
781.4297	0.0194
781.6024	0.0096
781.7752	0.0363
781.9479	0.0619
782.1206	0.0266
782.2933	0.0096
782.466	0.0465
782.6386	-0.0119
782.8113	-0.0205
782.9839	0.0082
783.1565	-0.0012
783.329	0.0051
783.5016	0.0144
783.6741	-0.0204
783.8466	0.07
784.0191	0.023
784.1916	-0.0179
784.3641	-0.066
784.5365	0.0209
784.7089	-0.0205
784.8813	0.0293
785.0537	0.0318
785.2261	0.0196
785.3984	-0.0183
785.5707	-0.0224
785.743	-0.0086
785.9153	-0.0103
786.0876	-0.0359
786.2598	0.0105
786.432	0.0322
786.6042	0.0231
786.7764	-0.0257
786.9486	-0.0077
787.1207	0.0488
787.2928	0.0518
787.4649	-0.0154
787.637	0.0167
787.8091	0.0034
787.9811	0.0313
788.1532	0.0039
788.3252	-0.0047
788.4972	-0.0023
788.6691	-0.0053
788.8411	-0.0084
789.013	0.0068
789.1849	0.0013
789.3568	-0.0033
789.5287	0.1056
789.7005	-0.0177
789.8723	-0.0238
790.0442	-0.009
790.2159	0.021
790.3877	0.0428
790.5595	0.0755
790.7312	-0.0244
790.9029	-0.0103
791.0746	0.016
791.2463	-0.0391
791.4179	-0.0198
791.5896	0.0293
791.7612	0.0363
791.9328	-0.0372
792.1044	0.0556
792.2759	-0.037
792.4474	-0.0184
792.619	-0.0025
792.7905	0.0292
792.9619	0.0221
793.1334	0.1093
793.3048	0.1226
793.4762	0.084
793.6476	-0.0494
793.819	-0.0054
793.9904	-0.0243
794.1617	-0.005
794.333	0.0081
794.5043	0.0145
794.6756	-0.0137
794.8469	-0.0115
795.0181	0.0012
795.1893	0.0288
795.3605	0.0091
795.5317	-0.0033
795.7029	-0.0101
795.874	-0.0229
796.0452	-0.0122
796.2163	0.0614
796.3873	0.0523
796.5584	0.0471
796.7294	0.0387
796.9005	0.0493
797.0715	-0.0408
797.2425	0.0632
797.4134	0.0526
797.5844	0.0149
797.7553	-0.0679
797.9262	0.0731
798.0971	0.0146
798.2679	-0.005
798.4388	0.0182
798.6096	-0.0405
798.7804	-0.0014
798.9512	0.0504
799.122	-0.0078
799.2927	0.0663
799.4635	-0.0598
799.6342	0.0185
799.8049	0.1252
799.9755	-0.0178
800.1462	0.0066
800.3168	0.0051
800.4874	-0.0686
800.658	-0.0003
800.8286	0.0269
800.9991	0.0239
801.1696	0.069
801.3402	0.0351
801.5106	-0.0209
801.6811	0.0406
801.8516	0.088
802.022	0.0035
802.1924	-0.0127
802.3628	-0.0432
802.5332	0.0441
802.7035	0.1047
802.8739	-0.0668
803.0442	-0.0378
803.2145	0.1109
803.3847	0.0775
803.555	0.0183
803.7252	0.0105
803.8954	-0.0656
804.0656	0.012
804.2358	0.0089
804.4059	0.0683
804.5761	0.1185
804.7462	-0.0155
804.9163	0.0825
805.0864	0.0673
805.2564	-0.0486
805.4264	-0.0227
805.5965	0.0682
805.7665	-0.0296
805.9364	0.0596
806.1064	-0.0129
806.2763	0.0342
806.4462	0.0082
806.6161	0.0402
806.786	0.0309
806.9559	0.0311
807.1257	-0.0305
807.2955	-0.0189
807.4653	0.0638
807.6351	0.0288
807.8048	0.0675
807.9746	-0.0088
808.1443	-0.0559
808.314	0.0721
808.4837	0.0788
808.6533	0.0045
808.8229	-0.0179
808.9926	0.1106
809.1622	-0.0072
809.3317	-0.0253
809.5013	-0.047
809.6708	-0.0229
809.8403	-0.0549
810.0098	0.0836
810.1793	0.0322
810.3488	-0.0319
810.5182	0.0784
810.6876	-0.0338
810.857	0.0437
811.0264	-0.0272
811.1958	0.3715
811.3651	0.0655
811.5344	0.1029
811.7037	0.0729
811.873	0.0704
812.0422	0.0329
812.2115	0.0567
812.3807	-0.0858
812.5499	0.0789
812.7191	-0.0403
812.8882	-0.0278
813.0574	0.1695
813.2265	-0.0344
813.3956	0.0166
813.5646	-0.0246
813.7337	-0.0074
813.9027	-0.084
814.0718	0.0334
814.2407	0.003
814.4097	0.1216
814.5787	0.1065
814.7476	0.0457
814.9165	0.0394
815.0854	-0.0486
815.2543	0.0286
815.4232	0.2074
815.592	0.0021
815.7608	-0.1378
815.9296	-0.0222
816.0984	0.0065
816.2671	-0.2421
816.4359	0.1824
816.6046	0.0181
816.7733	-0.0582
816.942	-0.1309
817.1106	0.0354
817.2793	-0.0257
817.4479	0.0628
817.6165	0.0286
817.785	-0.0671
817.9536	-0.1114
818.1221	0.0251
818.2906	-0.042
818.4591	0.0271
818.6276	0.0095
818.7961	0.0571
818.9645	-0.0055
819.1329	0.048
819.3013	-0.0192
819.4697	-0.0424
819.638	0.3966
819.8064	-0.047
819.9747	0.115
820.143	-0.07
820.3113	0.0671
820.4795	0.2451
820.6477	0.0748
820.816	0.0447
820.9842	0.1323
821.1523	0.0043
821.3205	0.0333
821.4886	-0.0668
821.6567	-0.0261
821.8248	0.1855
821.9929	-0.1404
822.1609	0.0643
822.329	-0.1144
822.497	0.0249
822.665	-0.0983
822.833	-0.0469
823.0009	0.0636
823.1688	0.0078
823.3367	-0.1972
823.5046	-0.0589
823.6725	-0.0229
823.8404	0.004
824.0082	-0.1088
824.176	-0.1856
824.3438	0.1084
824.5116	0.0092
824.6793	0.0899
824.847	-0.0451
825.0147	-0.0473
825.1824	0.1157
825.3501	-0.0252
825.5177	0.0795
825.6854	-0.1298
825.853	-0.0799
826.0206	0.0253
826.1881	0.0104
826.3557	-0.0538
826.5232	0.1944
826.6907	0.0164
826.8582	0.0349
827.0257	0.0335
827.1931	0.098
827.3605	-0.0993
827.528	0.1759
827.6953	-0.2004
827.8627	-0.1113
828.03	0.0527
828.1974	0.0062
828.3647	0.1238
828.532	0.0801
828.6992	0.0868
828.8665	-0.0284
829.0337	0.1666
829.2009	-0.0236
829.3681	-0.0252
829.5352	-0.3035
829.7024	0.1424
829.8695	0.0602
830.0366	0.2619
830.2037	0.063
830.3707	0.0519
830.5378	-0.1644
830.7048	-0.0652
830.8718	0.241
831.0388	-0.0267
831.2057	0.8199
831.3727	0.0954
831.5396	0.1616
831.7065	-0.1902
831.8734	0.1121
832.0402	0.24
832.2071	-0
832.3739	-0.1389
832.5407	-1.6927
832.7075	-0.4307
832.8742	0.513
833.041	-0.0728
833.2077	0.3516
833.3744	0.1426
833.541	0.249
833.7077	-0.0753
833.8743	0.0252
834.0409	-0.0172
834.2075	0.1413
834.3741	-0.0841
834.5407	-0.0773
834.7072	0.1451
834.8737	0.276
835.0402	0.2317
835.2067	-0.1215
835.3731	0.0326
835.5395	-0.0873
835.706	0.2536
835.8723	0.7613
836.0387	0.0116
836.2051	-0.1207
836.3714	0.376
836.5377	0.2492
836.704	0.1246
836.8703	0.0549
837.0365	-0.6219
837.2027	0.1377
837.3689	0.272
837.5351	0.2082
837.7013	-0.1916
837.8674	-0
838.0335	0.0603
838.1997	0.0217
838.3657	-0
838.5318	-0.4154
838.6978	-0
838.8639	-0.5285
839.0299	0.4098
839.1958	0.0633
839.3618	-0
839.5277	-0.0432
839.6937	0.0906
839.8596	0.3843
840.0254	-0.049
840.1913	-0.0972
840.3571	0.81
840.523	-0.7324
840.6888	-0.1458
840.8545	-0.5977
841.0203	0.0265
841.186	-0.1058
841.3517	0.0913
841.5174	0.0206
841.6831	0.0189
841.8488	-0
842.0144	0.2922
842.18	0.3459
842.3456	-0.4154
842.5112	-1.032
842.6767	-0.1083
842.8422	0.4705
843.0077	0.3601
843.1732	-0.4555
843.3387	0.3747
843.5042	-0.4238
843.6696	-0
843.835	-0.0713
844.0004	-0.0676
844.1657	-1.2739
844.3311	-0
844.4964	-0
844.6617	0.3165
844.827	0.7409
844.9923	0.3316
845.1575	-0.4098
845.3227	-0.614
845.4879	-0.4
845.6531	0.34
845.8183	0.3018
845.9834	-0
846.1485	0.4789
846.3136	1.332
846.4787	-0
846.6438	0.4816
846.8088	-0
846.9738	0.2218
847.1388	0.2791
847.3038	0.4325
847.4687	-0
847.6337	0.0356
847.7986	-0.0678
847.9635	0.2913
848.1284	-0
848.2932	0.114
848.458	-0
848.6228	0.2903
848.7876	-0.0488
848.9524	0.191
849.1172	-1.5715
849.2819	-0
849.4466	-0
849.6113	-0.1781
849.7759	-0
849.9406	0.086
850.1052	-0.6297
850.2698	-0
850.4344	-0.6611
850.599	0.3939
850.7635	0.1888
850.928	-0
851.0925	0.4553
851.257	0.3157
851.4215	0.0268
851.5859	0.0997
851.7503	-0
851.9147	-0.2297
852.0791	-0.1811
852.2434	-0.0444
852.4078	-0.1967
852.5721	1.8024
852.7364	-0.0865
852.9007	0.0074
853.0649	-0
853.2291	0.2096
853.3934	-0
853.5575	-0.2868
853.7217	0.5942
853.8859	-0.4027
854.05	-0.365
854.2141	0.1758
854.3782	0.1588
854.5423	-0.1119
854.7063	-0.0016
854.8703	-0.2254
855.0343	-0.1811
855.1983	0.563
855.3623	0.0427
855.5262	1.8173
855.6901	-0
855.854	0.4081
856.0179	0.764
856.1818	-0
856.3456	0.2812
856.5094	-0.525
856.6732	-0
856.837	-0.3475
857.0008	-0
857.1645	-0.196
857.3282	0.1324
857.4919	0.204
857.6556	-0
857.8192	-0.1329
857.9828	-0.3314
858.1465	-0.1343
858.31	0.4278
858.4736	-0.755
858.6372	-0.0683
858.8007	-0.1119
858.9642	0.9891
859.1277	1.0712
859.2911	-0.5457
859.4546	-0
859.618	0.6235
859.7814	0.237
859.9448	-0.0295
860.1081	-0
860.2715	-0.6734
860.4348	0.4947
860.5981	0.3319
860.7614	-0
860.9246	0.0675
861.0879	0.0331
861.2511	-0
861.4143	-0.6118
861.5774	0.0532
861.7406	0.1368
861.9037	-0.4495
862.0668	0.4181
862.2299	0.0453
862.393	-0.2038
862.556	0.2345
862.7191	0.0239
862.8821	-0.0053
863.0451	0.3258
863.208	-0
863.371	-0.2046
863.5339	0.2695
863.6968	0.0931
863.8597	-0
864.0225	-0.2274
864.1854	0.0872
864.3482	-0
864.511	-0.1712
864.6737	0.3318
864.8365	-0.0101
864.9992	-0
865.1619	0.6186
865.3246	-1.6646
865.4873	-0
865.65	0.4592
865.8126	-0
865.9752	-0.0029
866.1378	0.4968
866.3004	-0.2137
866.4629	-1.1234
866.6254	-0
866.7879	-0.0435
866.9504	-0.367
867.1129	0.5898
867.2753	-0.0533
867.4377	-0.4116
867.6001	-0.4413
867.7625	1.7225
867.9249	-0
868.0872	-0.0025
868.2495	-0
868.4118	-0
868.5741	-0
868.7363	-0
868.8986	-0.825
869.0608	-0
869.223	-0.508
869.3851	-0
869.5473	0.1157
869.7094	-0
869.8715	-0.5512
870.0336	-0.0169
870.1957	0.1814
870.3577	-0.1109
870.5197	-0.0343
870.6817	-0.4986
870.8437	-0.2698
871.0057	-0
871.1676	0.0976
871.3295	0.063
871.4914	-0
871.6533	-0.6068
871.8151	0.0905
871.977	-0.1244
872.1388	0.3499
872.3006	0.0298
872.4623	-0.3788
872.6241	0.4592
872.7858	-0
872.9475	-0
873.1092	-0.012
873.2709	0.7265
873.4325	-1.7874
873.5941	-0
873.7557	-0
873.9173	0.154
874.0789	-0.0435
874.2404	-0
874.4019	0.0064
874.5634	-0
874.7249	-0
874.8863	-0
875.0478	0.289
875.2092	-0
875.3706	0.047
875.5319	0.1068
875.6933	0.2615
875.8546	-0.1532
876.0159	0.2648
876.1772	-0
876.3385	-0
876.4997	0.6702
876.6609	-0
876.8221	0.763
876.9833	-0.2649
877.1445	0.3383
877.3056	-0
877.4667	0.4367
877.6278	-0
877.7889	0.2996
877.9499	0.3442
878.111	-0.7098
878.272	-0
878.433	0.6129
878.5939	0.0337
878.7549	1.4168
878.9158	-0
879.0767	0.5092
879.2376	-0.5209
879.3984	-0
879.5593	0.4089
879.7201	-0
879.8809	-0
880.0417	0.1651
880.2024	0.0568
880.3632	-0.5014
880.5239	-0
880.6846	-0.2046
880.8452	-0.0699
881.0059	-1.0311
881.1665	0.2433
881.3271	0.1913
881.4877	0.557
881.6483	-1.2334
881.8088	-0
881.9693	-0.8149
882.1298	-0.8149
882.2903	-0.8149
