Data from D4ACN5uM460nmA_Absorbance_13-05-41-795.txt Node
Date: Fri Feb 21 13:05:41 GMT 2025
User: LASERRRRR
Spectrometer: FLMT03099
Trigger mode: 0
Integration Time (sec): 1.500000E-2
Scans to average: 1
Electric dark correction enabled: true
Nonlinearity correction enabled: false
Boxcar width: 0
XAxis mode: Wavelengths
Number of Pixels in Spectrum: 3648
>>>>>Begin Spectral Data<<<<<
179.3399	-0
179.5586	-0
179.7771	-0
179.9957	0.1113
180.2143	-0
180.4329	-0.2462
180.6514	-0.4117
180.8699	-0.0203
181.0885	-0
181.307	0.0873
181.5255	-0.1133
181.744	-0
181.9625	-0
182.181	-0
182.3994	-0.6969
182.6179	0.0531
182.8363	-0
183.0547	-0
183.2732	-0.1014
183.4916	0.367
183.71	0.1108
183.9284	0.0078
184.1467	0.2094
184.3651	-0.0993
184.5835	0.2539
184.8018	0.3757
185.0201	0.3222
185.2385	0.1825
185.4568	0.1635
185.6751	0.2034
185.8934	0.2321
186.1117	-0.0174
186.3299	0.2057
186.5482	0.1322
186.7664	0.154
186.9847	0.1811
187.2029	0.2353
187.4211	0.1988
187.6393	0.1156
187.8575	0.5525
188.0757	0.3399
188.2939	0.0486
188.512	0.2242
188.7302	0.3053
188.9483	0.5364
189.1665	1.1867
189.3846	0.2255
189.6027	0.2142
189.8208	0.7112
190.0389	0.358
190.257	0.2202
190.475	0.4872
190.6931	0.1367
190.9111	0.0345
191.1292	0.3212
191.3472	0.1775
191.5652	0.1747
191.7832	0.092
192.0012	0.3365
192.2192	0.2237
192.4371	0.2358
192.6551	0.2221
192.873	0.0987
193.091	0.1323
193.3089	0.2016
193.5268	0.3095
193.7447	0.1863
193.9626	0.287
194.1805	0.1953
194.3984	0.3051
194.6162	0.2777
194.8341	0.3302
195.0519	0.2481
195.2697	0.2991
195.4875	0.2763
195.7054	0.2809
195.9231	0.2503
196.1409	0.3374
196.3587	0.3704
196.5765	0.3258
196.7942	0.3688
197.012	0.3424
197.2297	0.2824
197.4474	0.4038
197.6651	0.2986
197.8828	0.3319
198.1005	0.4346
198.3182	0.4923
198.5358	0.4116
198.7535	0.3668
198.9711	0.4073
199.1888	0.3489
199.4064	0.4411
199.624	0.4884
199.8416	0.3885
200.0592	0.3583
200.2767	0.4064
200.4943	0.4021
200.7119	0.432
200.9294	0.3847
201.1469	0.4051
201.3645	0.4656
201.582	0.3572
201.7995	0.4228
202.017	0.3965
202.2344	0.4339
202.4519	0.3777
202.6694	0.4289
202.8868	0.3877
203.1042	0.39
203.3217	0.4241
203.5391	0.3954
203.7565	0.3553
203.9739	0.3694
204.1913	0.3682
204.4086	0.3841
204.626	0.3691
204.8433	0.371
205.0607	0.3717
205.278	0.3271
205.4953	0.3336
205.7126	0.353
205.9299	0.3117
206.1472	0.3555
206.3644	0.3515
206.5817	0.3259
206.7989	0.3376
207.0162	0.3394
207.2334	0.3126
207.4506	0.3088
207.6678	0.3139
207.885	0.285
208.1022	0.3143
208.3194	0.3037
208.5365	0.3217
208.7537	0.2949
208.9708	0.2975
209.1879	0.2941
209.405	0.3051
209.6222	0.2843
209.8392	0.3091
210.0563	0.2748
210.2734	0.273
210.4905	0.2758
210.7075	0.278
210.9245	0.2822
211.1416	0.2773
211.3586	0.2711
211.5756	0.2559
211.7926	0.2753
212.0096	0.2569
212.2265	0.2585
212.4435	0.2503
212.6604	0.271
212.8774	0.2767
213.0943	0.2522
213.3112	0.2625
213.5281	0.2574
213.745	0.2419
213.9619	0.261
214.1788	0.2582
214.3956	0.2483
214.6125	0.2782
214.8293	0.2561
215.0461	0.2527
215.2629	0.2494
215.4798	0.2499
215.6965	0.2632
215.9133	0.2529
216.1301	0.2484
216.3469	0.2467
216.5636	0.2533
216.7803	0.2419
216.9971	0.2548
217.2138	0.2555
217.4305	0.2506
217.6472	0.2543
217.8639	0.2655
218.0805	0.2701
218.2972	0.2429
218.5138	0.2733
218.7305	0.2789
218.9471	0.2389
219.1637	0.2599
219.3803	0.2657
219.5969	0.288
219.8135	0.2731
220.0301	0.2645
220.2466	0.2749
220.4632	0.2527
220.6797	0.2632
220.8962	0.2681
221.1127	0.2685
221.3292	0.2698
221.5457	0.2734
221.7622	0.267
221.9787	0.2845
222.1951	0.2783
222.4116	0.2726
222.628	0.2839
222.8444	0.2893
223.0608	0.2772
223.2772	0.2937
223.4936	0.2848
223.71	0.286
223.9264	0.2753
224.1427	0.2906
224.3591	0.2856
224.5754	0.2964
224.7917	0.298
225.008	0.2992
225.2243	0.3048
225.4406	0.2981
225.6569	0.3071
225.8732	0.3119
226.0894	0.3091
226.3057	0.3158
226.5219	0.3099
226.7381	0.3325
226.9543	0.3172
227.1705	0.3197
227.3867	0.3203
227.6029	0.3258
227.8191	0.3285
228.0352	0.3415
228.2513	0.3495
228.4675	0.3365
228.6836	0.3386
228.8997	0.3406
229.1158	0.3549
229.3319	0.3562
229.548	0.3565
229.764	0.3656
229.9801	0.3816
230.1961	0.3624
230.4121	0.3628
230.6282	0.3819
230.8442	0.3824
231.0602	0.3879
231.2761	0.385
231.4921	0.3845
231.7081	0.3868
231.924	0.3972
232.14	0.4156
232.3559	0.4061
232.5718	0.402
232.7877	0.4038
233.0036	0.4075
233.2195	0.4154
233.4353	0.4302
233.6512	0.4206
233.867	0.4215
234.0829	0.4231
234.2987	0.4237
234.5145	0.4278
234.7303	0.439
234.9461	0.4423
235.1619	0.4389
235.3776	0.4387
235.5934	0.435
235.8091	0.4365
236.0249	0.4488
236.2406	0.4407
236.4563	0.4476
236.672	0.4413
236.8877	0.4407
237.1034	0.447
237.319	0.4553
237.5347	0.4493
237.7503	0.4531
237.966	0.4699
238.1816	0.449
238.3972	0.4639
238.6128	0.471
238.8284	0.4718
239.0439	0.4596
239.2595	0.4654
239.475	0.4761
239.6906	0.467
239.9061	0.4626
240.1216	0.4537
240.3371	0.4506
240.5526	0.4589
240.7681	0.4557
240.9836	0.4689
241.199	0.457
241.4145	0.4443
241.6299	0.436
241.8453	0.4302
242.0607	0.4264
242.2761	0.428
242.4915	0.4202
242.7069	0.4155
242.9223	0.416
243.1376	0.4051
243.353	0.3947
243.5683	0.4031
243.7836	0.3793
243.9989	0.3731
244.2142	0.374
244.4295	0.3648
244.6448	0.3663
244.86	0.3414
245.0753	0.3379
245.2905	0.3371
245.5057	0.3317
245.721	0.3292
245.9362	0.3247
246.1514	0.3161
246.3665	0.3035
246.5817	0.2931
246.7969	0.2963
247.012	0.2892
247.2271	0.2919
247.4423	0.2787
247.6574	0.2775
247.8725	0.2654
248.0876	0.2685
248.3026	0.2654
248.5177	0.2546
248.7328	0.2517
248.9478	0.2459
249.1628	0.2516
249.3779	0.2325
249.5929	0.2387
249.8079	0.233
250.0228	0.2323
250.2378	0.233
250.4528	0.2265
250.6677	0.2202
250.8827	0.2143
251.0976	0.2156
251.3125	0.217
251.5274	0.2054
251.7423	0.2034
251.9572	0.2077
252.172	0.2063
252.3869	0.2111
252.6017	0.2068
252.8166	0.1984
253.0314	0.1941
253.2462	0.1926
253.461	0.197
253.6758	0.1951
253.8906	0.1955
254.1053	0.1973
254.3201	0.1949
254.5348	0.1849
254.7496	0.1779
254.9643	0.1855
255.179	0.1834
255.3937	0.1853
255.6083	0.1897
255.823	0.1855
256.0377	0.1795
256.2523	0.177
256.467	0.1844
256.6816	0.1784
256.8962	0.1853
257.1108	0.1862
257.3254	0.179
257.54	0.1727
257.7545	0.1815
257.9691	0.1851
258.1836	0.1748
258.3981	0.1824
258.6127	0.1762
258.8272	0.1842
259.0417	0.1769
259.2561	0.1767
259.4706	0.1746
259.6851	0.1749
259.8995	0.1749
260.114	0.1773
260.3284	0.1729
260.5428	0.1789
260.7572	0.1737
260.9716	0.1813
261.186	0.1767
261.4003	0.166
261.6147	0.1692
261.829	0.1763
262.0433	0.1722
262.2577	0.1773
262.472	0.1676
262.6863	0.179
262.9005	0.1785
263.1148	0.1745
263.3291	0.1713
263.5433	0.1749
263.7576	0.1741
263.9718	0.1778
264.186	0.1816
264.4002	0.1785
264.6144	0.1816
264.8286	0.179
265.0427	0.1854
265.2569	0.1841
265.471	0.1794
265.6851	0.1767
265.8993	0.1774
266.1134	0.1786
266.3275	0.1738
266.5415	0.1835
266.7556	0.1786
266.9697	0.1754
267.1837	0.1745
267.3978	0.1743
267.6118	0.1776
267.8258	0.1812
268.0398	0.1769
268.2538	0.1811
268.4677	0.1767
268.6817	0.1774
268.8957	0.1681
269.1096	0.164
269.3235	0.1706
269.5374	0.1713
269.7514	0.176
269.9652	0.1713
270.1791	0.1607
270.393	0.1741
270.6068	0.1722
270.8207	0.1653
271.0345	0.165
271.2483	0.1616
271.4622	0.1683
271.676	0.1682
271.8897	0.1615
272.1035	0.1694
272.3173	0.1652
272.531	0.1663
272.7448	0.1658
272.9585	0.163
273.1722	0.1673
273.3859	0.1638
273.5996	0.1658
273.8133	0.1716
274.0269	0.1654
274.2406	0.1702
274.4542	0.163
274.6679	0.1659
274.8815	0.1664
275.0951	0.1704
275.3087	0.1719
275.5223	0.1616
275.7358	0.168
275.9494	0.1701
276.1629	0.1732
276.3765	0.1689
276.59	0.1635
276.8035	0.1636
277.017	0.1743
277.2305	0.168
277.444	0.1757
277.6574	0.1719
277.8709	0.1808
278.0843	0.1771
278.2978	0.1761
278.5112	0.173
278.7246	0.1692
278.938	0.1749
279.1513	0.1753
279.3647	0.1792
279.5781	0.179
279.7914	0.1759
280.0047	0.1752
280.2181	0.1744
280.4314	0.1762
280.6447	0.1801
280.8579	0.1747
281.0712	0.1763
281.2845	0.1746
281.4977	0.1798
281.711	0.1768
281.9242	0.1781
282.1374	0.182
282.3506	0.1802
282.5638	0.1768
282.7769	0.1732
282.9901	0.1807
283.2033	0.1776
283.4164	0.1841
283.6295	0.1791
283.8426	0.1756
284.0557	0.1834
284.2688	0.1823
284.4819	0.1762
284.695	0.1912
284.908	0.1759
285.1211	0.1833
285.3341	0.1785
285.5471	0.1805
285.7601	0.1815
285.9731	0.1833
286.1861	0.1865
286.3991	0.1863
286.612	0.1866
286.825	0.1892
287.0379	0.185
287.2508	0.1871
287.4637	0.1938
287.6766	0.1856
287.8895	0.1876
288.1024	0.1904
288.3152	0.1937
288.5281	0.1861
288.7409	0.1915
288.9538	0.1929
289.1666	0.1927
289.3794	0.1951
289.5922	0.1902
289.8049	0.19
290.0177	0.19
290.2304	0.191
290.4432	0.1929
290.6559	0.186
290.8686	0.1891
291.0813	0.1916
291.294	0.1918
291.5067	0.1903
291.7194	0.1955
291.932	0.1927
292.1447	0.1902
292.3573	0.1951
292.5699	0.1952
292.7825	0.1897
292.9951	0.1957
293.2077	0.1878
293.4203	0.1924
293.6328	0.1904
293.8454	0.1964
294.0579	0.1902
294.2704	0.1953
294.4829	0.1954
294.6954	0.1923
294.9079	0.1963
295.1204	0.1894
295.3328	0.1956
295.5453	0.1928
295.7577	0.1922
295.9701	0.1975
296.1825	0.194
296.3949	0.1911
296.6073	0.1924
296.8197	0.19
297.0321	0.1932
297.2444	0.1921
297.4567	0.1933
297.6691	0.1919
297.8814	0.1959
298.0937	0.1901
298.306	0.1972
298.5182	0.2004
298.7305	0.1935
298.9428	0.1955
299.155	0.1921
299.3672	0.1898
299.5794	0.1955
299.7916	0.1953
300.0038	0.1921
300.216	0.1933
300.4282	0.1943
300.6403	0.1982
300.8525	0.1907
301.0646	0.1963
301.2767	0.1935
301.4888	0.1894
301.7009	0.2
301.913	0.1983
302.125	0.1883
302.3371	0.1925
302.5491	0.1924
302.7612	0.196
302.9732	0.1967
303.1852	0.1911
303.3972	0.1932
303.6092	0.1916
303.8211	0.1904
304.0331	0.1881
304.245	0.1906
304.457	0.1931
304.6689	0.1955
304.8808	0.1876
305.0927	0.1932
305.3046	0.1835
305.5164	0.1828
305.7283	0.1794
305.9401	0.1786
306.152	0.1844
306.3638	0.1804
306.5756	0.1805
306.7874	0.1726
306.9992	0.1725
307.2109	0.1684
307.4227	0.1685
307.6344	0.1759
307.8462	0.1668
308.0579	0.1699
308.2696	0.1661
308.4813	0.1666
308.693	0.1605
308.9046	0.167
309.1163	0.1538
309.328	0.1624
309.5396	0.1551
309.7512	0.1548
309.9628	0.1504
310.1744	0.1489
310.386	0.1465
310.5976	0.1467
310.8091	0.1508
311.0207	0.1452
311.2322	0.1402
311.4437	0.1418
311.6552	0.1451
311.8667	0.1475
312.0782	0.1443
312.2897	0.1368
312.5012	0.1384
312.7126	0.1314
312.924	0.1399
313.1355	0.1302
313.3469	0.1304
313.5583	0.1333
313.7696	0.1291
313.981	0.1356
314.1924	0.132
314.4037	0.1258
314.6151	0.1306
314.8264	0.1314
315.0377	0.1288
315.249	0.1288
315.4603	0.121
315.6716	0.1279
315.8828	0.1259
316.0941	0.128
316.3053	0.1221
316.5165	0.1222
316.7277	0.1169
316.9389	0.1297
317.1501	0.1237
317.3613	0.1168
317.5724	0.1198
317.7836	0.1185
317.9947	0.1226
318.2058	0.1216
318.417	0.1208
318.6281	0.1134
318.8391	0.1167
319.0502	0.121
319.2613	0.1194
319.4723	0.1254
319.6834	0.1214
319.8944	0.1197
320.1054	0.1185
320.3164	0.1199
320.5274	0.119
320.7383	0.1233
320.9493	0.1172
321.1602	0.12
321.3712	0.119
321.5821	0.1169
321.793	0.1234
322.0039	0.1227
322.2148	0.1195
322.4257	0.1167
322.6365	0.1158
322.8474	0.1215
323.0582	0.1234
323.269	0.124
323.4798	0.1205
323.6906	0.119
323.9014	0.1162
324.1122	0.1163
324.3229	0.1273
324.5337	0.115
324.7444	0.1208
324.9551	0.1236
325.1658	0.1174
325.3765	0.1211
325.5872	0.1229
325.7979	0.1177
326.0085	0.1207
326.2192	0.1196
326.4298	0.1228
326.6404	0.1236
326.851	0.1217
327.0616	0.122
327.2722	0.1266
327.4828	0.1246
327.6933	0.1299
327.9039	0.125
328.1144	0.125
328.3249	0.1269
328.5354	0.1218
328.7459	0.1258
328.9564	0.1243
329.1669	0.1266
329.3773	0.126
329.5878	0.1212
329.7982	0.1343
330.0086	0.1305
330.219	0.1226
330.4294	0.125
330.6398	0.1296
330.8502	0.1325
331.0605	0.1287
331.2708	0.1287
331.4812	0.126
331.6915	0.13
331.9018	0.13
332.1121	0.1363
332.3224	0.1266
332.5326	0.1244
332.7429	0.1295
332.9531	0.1319
333.1633	0.1253
333.3735	0.1271
333.5837	0.1341
333.7939	0.1284
334.0041	0.1373
334.2143	0.1271
334.4244	0.1363
334.6346	0.1305
334.8447	0.1266
335.0548	0.1331
335.2649	0.1333
335.475	0.1348
335.685	0.1371
335.8951	0.127
336.1051	0.1341
336.3152	0.1349
336.5252	0.1323
336.7352	0.1359
336.9452	0.1343
337.1552	0.1351
337.3652	0.1302
337.5751	0.1381
337.7851	0.1314
337.995	0.1369
338.2049	0.1298
338.4148	0.137
338.6247	0.1369
338.8346	0.1374
339.0445	0.133
339.2543	0.1324
339.4642	0.1331
339.674	0.1322
339.8838	0.1417
340.0936	0.1446
340.3034	0.138
340.5132	0.1316
340.7229	0.1401
340.9327	0.1454
341.1424	0.1346
341.3522	0.1349
341.5619	0.1441
341.7716	0.1429
341.9813	0.1469
342.1909	0.1422
342.4006	0.1466
342.6102	0.1471
342.8199	0.1496
343.0295	0.1465
343.2391	0.1521
343.4487	0.1508
343.6583	0.1582
343.8679	0.1488
344.0774	0.1446
344.287	0.1517
344.4965	0.1512
344.706	0.1537
344.9155	0.1483
345.125	0.1515
345.3345	0.1641
345.544	0.1522
345.7534	0.1498
345.9629	0.1627
346.1723	0.1544
346.3817	0.1532
346.5911	0.1556
346.8005	0.1627
347.0099	0.1567
347.2193	0.1606
347.4286	0.1698
347.638	0.1592
347.8473	0.1636
348.0566	0.1579
348.2659	0.1598
348.4752	0.167
348.6845	0.1579
348.8937	0.1596
349.103	0.1631
349.3122	0.1625
349.5214	0.1674
349.7306	0.1708
349.9398	0.1664
350.149	0.1634
350.3582	0.1744
350.5674	0.1732
350.7765	0.1699
350.9856	0.1725
351.1948	0.1677
351.4039	0.1688
351.613	0.1662
351.822	0.1779
352.0311	0.1777
352.2402	0.176
352.4492	0.1695
352.6582	0.1819
352.8672	0.1745
353.0762	0.1794
353.2852	0.1811
353.4942	0.1854
353.7032	0.179
353.9121	0.1787
354.1211	0.1834
354.33	0.1806
354.5389	0.1827
354.7478	0.1754
354.9567	0.1778
355.1655	0.1846
355.3744	0.1846
355.5833	0.1857
355.7921	0.1901
356.0009	0.1892
356.2097	0.1752
356.4185	0.1876
356.6273	0.1831
356.8361	0.1864
357.0448	0.1889
357.2536	0.1933
357.4623	0.1873
357.671	0.1936
357.8797	0.1899
358.0884	0.1901
358.2971	0.1915
358.5057	0.2009
358.7144	0.2025
358.923	0.2029
359.1316	0.2025
359.3402	0.194
359.5488	0.2037
359.7574	0.2067
359.966	0.2053
360.1746	0.2006
360.3831	0.2125
360.5916	0.2035
360.8002	0.2103
361.0087	0.2049
361.2172	0.2114
361.4256	0.2085
361.6341	0.2051
361.8426	0.2195
362.051	0.2114
362.2594	0.2142
362.4678	0.2088
362.6762	0.2155
362.8846	0.2156
363.093	0.2111
363.3014	0.2215
363.5097	0.2135
363.718	0.2279
363.9264	0.2238
364.1347	0.2156
364.343	0.2309
364.5513	0.2199
364.7595	0.2337
364.9678	0.2238
365.176	0.2321
365.3842	0.2335
365.5925	0.229
365.8007	0.2283
366.0089	0.2448
366.217	0.2352
366.4252	0.2311
366.6333	0.2358
366.8415	0.2469
367.0496	0.2405
367.2577	0.2366
367.4658	0.2399
367.6739	0.2385
367.882	0.2481
368.09	0.2432
368.2981	0.2447
368.5061	0.2483
368.7141	0.248
368.9221	0.2547
369.1301	0.2493
369.3381	0.2497
369.5461	0.2557
369.754	0.2541
369.962	0.2533
370.1699	0.2547
370.3778	0.263
370.5857	0.2581
370.7936	0.2537
371.0015	0.2576
371.2093	0.254
371.4172	0.2504
371.625	0.2607
371.8328	0.2548
372.0406	0.2693
372.2484	0.2561
372.4562	0.2703
372.664	0.2669
372.8717	0.262
373.0795	0.2709
373.2872	0.2813
373.4949	0.2757
373.7026	0.2607
373.9103	0.2654
374.118	0.2712
374.3256	0.2764
374.5333	0.2756
374.7409	0.271
374.9485	0.2719
375.1561	0.2741
375.3637	0.2707
375.5713	0.2781
375.7789	0.2778
375.9864	0.2829
376.194	0.28
376.4015	0.2832
376.609	0.2834
376.8165	0.2825
377.024	0.2762
377.2315	0.2775
377.4389	0.2768
377.6464	0.2881
377.8538	0.2887
378.0612	0.2808
378.2686	0.29
378.476	0.299
378.6834	0.2885
378.8908	0.2885
379.0981	0.282
379.3055	0.2912
379.5128	0.2913
379.7201	0.2912
379.9274	0.292
380.1347	0.2973
380.342	0.2944
380.5492	0.2935
380.7565	0.2896
380.9637	0.2999
381.1709	0.2953
381.3781	0.3066
381.5853	0.2995
381.7925	0.3104
381.9997	0.31
382.2068	0.3101
382.4139	0.2962
382.6211	0.3025
382.8282	0.3053
383.0353	0.3093
383.2424	0.3068
383.4494	0.3062
383.6565	0.306
383.8635	0.3085
384.0706	0.3075
384.2776	0.3108
384.4846	0.3177
384.6916	0.314
384.8986	0.3122
385.1055	0.3145
385.3125	0.3079
385.5194	0.3139
385.7263	0.3053
385.9333	0.3173
386.1402	0.3144
386.347	0.3114
386.5539	0.3134
386.7608	0.3131
386.9676	0.314
387.1744	0.3091
387.3813	0.3126
387.5881	0.3033
387.7948	0.3256
388.0016	0.3228
388.2084	0.3111
388.4151	0.3177
388.6219	0.3055
388.8286	0.3144
389.0353	0.3055
389.242	0.3138
389.4487	0.3038
389.6553	0.2983
389.862	0.2982
390.0686	0.3058
390.2753	0.306
390.4819	0.3048
390.6885	0.3131
390.8951	0.3048
391.1016	0.2954
391.3082	0.2992
391.5147	0.2974
391.7213	0.2963
391.9278	0.2947
392.1343	0.2963
392.3408	0.2858
392.5473	0.2916
392.7537	0.3004
392.9602	0.2854
393.1666	0.2955
393.373	0.2885
393.5794	0.2818
393.7858	0.2842
393.9922	0.2913
394.1986	0.2907
394.4049	0.2832
394.6113	0.286
394.8176	0.2816
395.0239	0.2767
395.2302	0.274
395.4365	0.2826
395.6428	0.2767
395.8491	0.2792
396.0553	0.2722
396.2615	0.2736
396.4678	0.2814
396.674	0.275
396.8802	0.2696
397.0863	0.2606
397.2925	0.272
397.4987	0.2765
397.7048	0.2831
397.9109	0.2689
398.117	0.2643
398.3231	0.2699
398.5292	0.2609
398.7353	0.2645
398.9413	0.2749
399.1474	0.2631
399.3534	0.2682
399.5594	0.2692
399.7654	0.2645
399.9714	0.2555
400.1774	0.2646
400.3833	0.2668
400.5893	0.2642
400.7952	0.2646
401.0011	0.2688
401.207	0.2653
401.4129	0.2719
401.6188	0.2594
401.8247	0.2719
402.0305	0.2689
402.2364	0.2701
402.4422	0.267
402.648	0.2639
402.8538	0.2634
403.0596	0.2645
403.2654	0.2544
403.4711	0.2674
403.6768	0.2596
403.8826	0.2628
404.0883	0.2653
404.294	0.2696
404.4997	0.2582
404.7054	0.2722
404.911	0.2626
405.1167	0.2613
405.3223	0.2594
405.5279	0.2608
405.7335	0.2638
405.9391	0.2525
406.1447	0.2681
406.3502	0.2613
406.5558	0.2641
406.7613	0.2577
406.9668	0.2656
407.1724	0.273
407.3778	0.2724
407.5833	0.2579
407.7888	0.2636
407.9942	0.2561
408.1997	0.2636
408.4051	0.2594
408.6105	0.2675
408.8159	0.2666
409.0213	0.2578
409.2267	0.2733
409.432	0.2651
409.6374	0.2743
409.8427	0.2499
410.048	0.2567
410.2533	0.2612
410.4586	0.2512
410.6639	0.2683
410.8691	0.2501
411.0744	0.267
411.2796	0.2575
411.4848	0.2688
411.69	0.2616
411.8952	0.2639
412.1004	0.265
412.3056	0.261
412.5107	0.2538
412.7158	0.2699
412.921	0.2682
413.1261	0.2615
413.3312	0.2616
413.5362	0.2775
413.7413	0.2688
413.9464	0.2491
414.1514	0.2522
414.3564	0.2554
414.5614	0.2619
414.7664	0.2569
414.9714	0.2532
415.1764	0.2652
415.3813	0.2553
415.5863	0.2591
415.7912	0.2539
415.9961	0.2541
416.201	0.2538
416.4059	0.2555
416.6108	0.264
416.8156	0.2528
417.0205	0.2565
417.2253	0.2526
417.4301	0.2642
417.6349	0.2517
417.8397	0.2589
418.0445	0.249
418.2492	0.244
418.454	0.2486
418.6587	0.2561
418.8634	0.2489
419.0681	0.2563
419.2728	0.2589
419.4775	0.2613
419.6822	0.2407
419.8868	0.2471
420.0915	0.2382
420.2961	0.2265
420.5007	0.245
420.7053	0.2486
420.9099	0.2436
421.1144	0.2468
421.319	0.2439
421.5235	0.2375
421.728	0.2448
421.9325	0.2438
422.137	0.2398
422.3415	0.2309
422.546	0.2353
422.7504	0.2323
422.9549	0.2313
423.1593	0.2264
423.3637	0.2421
423.5681	0.2397
423.7725	0.2345
423.9769	0.247
424.1812	0.2276
424.3856	0.2192
424.5899	0.2253
424.7942	0.2257
424.9985	0.2291
425.2028	0.2396
425.4071	0.2322
425.6113	0.2262
425.8156	0.2154
426.0198	0.2202
426.224	0.2172
426.4282	0.2076
426.6324	0.2172
426.8366	0.215
427.0407	0.2116
427.2449	0.2152
427.449	0.2166
427.6531	0.219
427.8572	0.2094
428.0613	0.2215
428.2654	0.2161
428.4694	0.2057
428.6735	0.2036
428.8775	0.2091
429.0815	0.1996
429.2855	0.2027
429.4895	0.2003
429.6935	0.2019
429.8975	0.1869
430.1014	0.1946
430.3053	0.199
430.5093	0.1928
430.7132	0.1973
430.9171	0.1917
431.1209	0.1978
431.3248	0.1747
431.5286	0.1765
431.7325	0.1902
431.9363	0.1801
432.1401	0.1755
432.3439	0.1725
432.5477	0.1711
432.7514	0.1706
432.9552	0.1696
433.1589	0.1676
433.3627	0.1727
433.5664	0.1737
433.7701	0.1687
433.9737	0.173
434.1774	0.1626
434.3811	0.1627
434.5847	0.1678
434.7883	0.1609
434.9919	0.1566
435.1955	0.1597
435.3991	0.1527
435.6027	0.1511
435.8062	0.1674
436.0098	0.147
436.2133	0.1484
436.4168	0.1424
436.6203	0.128
436.8238	0.1435
437.0272	0.1436
437.2307	0.1323
437.4341	0.14
437.6375	0.1314
437.841	0.1285
438.0443	0.1395
438.2477	0.1246
438.4511	0.1189
438.6545	0.1305
438.8578	0.1307
439.0611	0.1308
439.2644	0.1298
439.4677	0.1216
439.671	0.1065
439.8743	0.1125
440.0775	0.1161
440.2808	0.1179
440.484	0.1084
440.6872	0.1093
440.8904	0.1028
441.0936	0.1108
441.2967	0.0962
441.4999	0.1017
441.703	0.0948
441.9062	0.1034
442.1093	0.1108
442.3124	0.1023
442.5155	0.1031
442.7185	0.0934
442.9216	0.0926
443.1246	0.0904
443.3276	0.0871
443.5307	0.0785
443.7337	0.0894
443.9366	0.0862
444.1396	0.0723
444.3426	0.0804
444.5455	0.0805
444.7484	0.0839
444.9513	0.0741
445.1542	0.0757
445.3571	0.0744
445.56	0.0727
445.7628	0.0785
445.9657	0.0724
446.1685	0.0668
446.3713	0.072
446.5741	0.0796
446.7769	0.0714
446.9797	0.0653
447.1824	0.0711
447.3852	0.0546
447.5879	0.0608
447.7906	0.0551
447.9933	0.0615
448.196	0.0582
448.3986	0.0535
448.6013	0.0537
448.8039	0.0566
449.0066	0.0613
449.2092	0.061
449.4118	0.0565
449.6143	0.054
449.8169	0.0566
450.0195	0.0592
450.222	0.0472
450.4245	0.0561
450.627	0.049
450.8295	0.0422
451.032	0.0418
451.2345	0.0419
451.4369	0.0454
451.6394	0.045
451.8418	0.0498
452.0442	0.0457
452.2466	0.0295
452.449	0.0356
452.6513	0.0238
452.8537	0.0329
453.056	0.0399
453.2583	0.0324
453.4607	0.0267
453.663	0.0345
453.8652	0.0247
454.0675	0.0421
454.2697	0.0328
454.472	0.0299
454.6742	0.0361
454.8764	0.037
455.0786	0.0321
455.2808	0.0287
455.4829	0.0248
455.6851	0.0298
455.8872	0.0122
456.0893	0.0283
456.2915	0.0264
456.4935	0.0335
456.6956	0.0247
456.8977	0.0231
457.0997	0.0229
457.3018	0.017
457.5038	0.0319
457.7058	0.0287
457.9078	0.0239
458.1098	0.0285
458.3117	0.0305
458.5137	0.0066
458.7156	0.0183
458.9175	0.0221
459.1194	0.0173
459.3213	0.0077
459.5232	0.0231
459.725	0.0235
459.9269	0.0192
460.1287	0.0134
460.3305	0.0248
460.5323	0.0156
460.7341	0.024
460.9359	0.0149
461.1376	0.0171
461.3394	0.0188
461.5411	0.0174
461.7428	0.0192
461.9445	0.0157
462.1462	0.011
462.3479	0.0194
462.5495	0.014
462.7512	0.0224
462.9528	0.0059
463.1544	0.01
463.356	0.01
463.5576	0.0214
463.7592	0.0159
463.9607	0.0081
464.1623	0.0092
464.3638	0.0059
464.5653	0.0137
464.7668	0.0127
464.9683	0.0073
465.1697	0.0211
465.3712	0.0044
465.5726	0.0089
465.7741	0.0184
465.9755	0.0102
466.1769	0.0136
466.3782	0.0131
466.5796	0.013
466.7809	0.0105
466.9823	0.0072
467.1836	0.0158
467.3849	0.012
467.5862	0.0036
467.7875	-0.0008
467.9887	0.0119
468.19	0.0127
468.3912	0.0119
468.5924	0.0051
468.7936	0.0109
468.9948	0.0075
469.196	0.0121
469.3972	0.0109
469.5983	0.0097
469.7994	0.015
470.0006	0.0228
470.2017	0.0119
470.4027	0.0107
470.6038	0.005
470.8049	0.0195
471.0059	0.0162
471.2069	0.0067
471.408	0.0147
471.6089	0.0143
471.8099	0.0097
472.0109	0.0053
472.2119	0.0185
472.4128	0.0065
472.6137	0.0113
472.8146	0.0014
473.0155	0.0097
473.2164	0.0067
473.4173	-0.0009
473.6181	-0.0016
473.819	0.0092
474.0198	-0.0025
474.2206	-0.0026
474.4214	0.0052
474.6222	-0.0022
474.8229	0.0086
475.0237	0.0113
475.2244	0.0086
475.4251	0.0054
475.6258	0.0034
475.8265	0.0134
476.0272	0.0032
476.2278	0.0135
476.4285	0.0103
476.6291	0.0092
476.8297	0.0025
477.0303	-0.0023
477.2309	0.0022
477.4315	0.0066
477.632	-0.0021
477.8326	0.003
478.0331	0.0098
478.2336	0.0021
478.4341	0.0093
478.6346	0.0001
478.8351	0.0006
479.0355	0.0083
479.236	0.0061
479.4364	0.0044
479.6368	0.0043
479.8372	0.002
480.0376	0.0052
480.2379	0.0064
480.4383	0.0111
480.6386	0.0005
480.8389	0.0023
481.0392	0.0022
481.2395	0.0147
481.4398	0.0105
481.6401	-0.0014
481.8403	-0.0008
482.0405	0.0057
482.2408	0.0091
482.441	0.0088
482.6411	0.0058
482.8413	-0.002
483.0415	0.0089
483.2416	0.003
483.4417	0.0027
483.6419	0.0033
483.8419	0.0113
484.042	0.0039
484.2421	-0.0017
484.4422	0.0036
484.6422	0.0091
484.8422	0.0074
485.0422	0.0071
485.2422	0.0036
485.4422	0.0025
485.6422	0.0019
485.8421	0.0028
486.042	0.012
486.242	-0.0033
486.4419	0.006
486.6417	0.0006
486.8416	0.0065
487.0415	-0.0017
487.2413	-0.0017
487.4411	0.0081
487.641	0.0013
487.8408	0.0052
488.0405	0.0075
488.2403	-0.0039
488.4401	0.0107
488.6398	0.0033
488.8395	0.0075
489.0392	0.0057
489.2389	0.0128
489.4386	0.0012
489.6383	0.0093
489.8379	0.0072
490.0376	0.0037
490.2372	0.0024
490.4368	0.0074
490.6364	-0.0086
490.836	0.0016
491.0355	-0.0026
491.2351	-0.0034
491.4346	0.0064
491.6341	0.003
491.8336	0.0086
492.0331	0.0048
492.2326	0.0058
492.432	0.0028
492.6315	0.0081
492.8309	0.009
493.0303	0.0108
493.2297	0.007
493.4291	-0.0049
493.6284	0.0068
493.8278	-0.0006
494.0271	0.009
494.2264	-0.0076
494.4257	0.0036
494.625	0.0009
494.8243	0.0021
495.0236	0.0076
495.2228	0.0063
495.422	0.0061
495.6213	0.0027
495.8205	0.0061
496.0196	0.0031
496.2188	0.0022
496.418	0.0035
496.6171	0.0013
496.8162	0.0023
497.0153	0.0038
497.2144	0.0007
497.4135	-0.0003
497.6126	0.0139
497.8116	0.0021
498.0107	0.0057
498.2097	0.0064
498.4087	0.0072
498.6077	-0.005
498.8067	0.0064
499.0056	0.0004
499.2046	0.0032
499.4035	0.0112
499.6024	-0.0029
499.8013	0.0054
500.0002	0.0065
500.199	0.0117
500.3979	-0.0044
500.5967	-0.0001
500.7956	0.0017
500.9944	-0.0024
501.1932	0.0069
501.3919	0.013
501.5907	0.0062
501.7895	0.0021
501.9882	-0.0006
502.1869	0.0088
502.3856	0.0006
502.5843	0.0035
502.783	-0.0019
502.9816	0.008
503.1803	0.0057
503.3789	0.009
503.5775	-0.0005
503.7761	0.003
503.9747	0.0068
504.1732	-0.0005
504.3718	0.0213
504.5703	-0.0009
504.7689	-0.0045
504.9674	-0.0025
505.1658	-0.0044
505.3643	0.0087
505.5628	0.0124
505.7612	0.0073
505.9597	-0.0013
506.1581	0.0028
506.3565	0.006
506.5549	-0.0028
506.7532	-0.0073
506.9516	0.0021
507.1499	-0.0025
507.3482	0.0028
507.5465	0.0051
507.7448	0.0102
507.9431	0.0106
508.1414	0.003
508.3396	0.0031
508.5379	0.003
508.7361	0.0078
508.9343	0.01
509.1325	0.004
509.3306	0.0036
509.5288	-0.0072
509.7269	-0.0012
509.9251	0.0112
510.1232	0.0037
510.3213	0.0097
510.5193	0.0025
510.7174	0.0045
510.9154	0.0044
511.1135	0.0051
511.3115	-0.0018
511.5095	-0.0026
511.7075	-0.001
511.9055	0.0072
512.1034	0.0067
512.3014	0.0044
512.4993	0.003
512.6972	-0.0007
512.8951	0.0014
513.093	-0.0063
513.2908	0.0079
513.4887	0.0016
513.6865	0.0093
513.8844	0.0004
514.0822	-0.002
514.2799	-0.0071
514.4777	-0.0028
514.6755	0.0055
514.8732	0.0007
515.0709	0.0112
515.2687	-0.0014
515.4664	0.0139
515.664	0.0006
515.8617	0.0054
516.0594	0.003
516.257	0.0024
516.4546	0.0187
516.6522	0.0063
516.8498	0.0031
517.0474	0.0126
517.2449	0.0081
517.4425	0.0042
517.64	0.0082
517.8375	0.0076
518.035	0.0056
518.2325	-0.004
518.43	-0.0114
518.6274	-0.001
518.8249	0.0057
519.0223	0.0107
519.2197	-0
519.4171	-0.006
519.6145	0.0091
519.8118	-0.0082
520.0092	0.0071
520.2065	0.0096
520.4038	0.0011
520.6011	0.0053
520.7984	0.0055
520.9956	0.002
521.1929	0.0126
521.3901	0.0054
521.5874	0.0033
521.7846	0.0054
521.9818	0.0139
522.1789	-0.002
522.3761	0.012
522.5732	0.001
522.7704	-0.0021
522.9675	-0.0053
523.1646	-0.003
523.3617	0.0073
523.5587	0.0066
523.7558	0.0067
523.9528	0.007
524.1498	0.0043
524.3468	0.0011
524.5438	0.0041
524.7408	0.0031
524.9378	0.0178
525.1347	0.0108
525.3316	0.0035
525.5285	0.0072
525.7254	0.009
525.9223	0.0132
526.1192	0.0131
526.316	0.0096
526.5129	0.0099
526.7097	0.0005
526.9065	0.0027
527.1033	-0.0003
527.3	-0.0025
527.4968	0.0054
527.6935	0.0042
527.8903	0.0053
528.087	0.0006
528.2837	0.0073
528.4804	0.0025
528.677	0.0131
528.8737	0.0086
529.0703	-0.0017
529.2669	0.0078
529.4635	0.0058
529.6601	-0.0056
529.8567	0.0053
530.0532	0.0015
530.2498	-0.0077
530.4463	-0.0034
530.6428	0.0032
530.8393	0.0075
531.0358	0.0039
531.2322	-0.0005
531.4287	0.0031
531.6251	-0.0081
531.8215	-0.0007
532.0179	0.002
532.2143	0.0076
532.4107	-0.0044
532.607	0.0005
532.8034	-0.0006
532.9997	-0.0037
533.196	0.0027
533.3923	0.0063
533.5886	-0.0017
533.7848	0.0032
533.9811	0.0049
534.1773	0.0027
534.3735	0.0049
534.5697	-0.0029
534.7659	0.0087
534.9621	0.0099
535.1582	0.0096
535.3544	0.0149
535.5505	0.0101
535.7466	0.0012
535.9427	0.0031
536.1387	-0.0047
536.3348	0.0048
536.5308	0.0062
536.7269	-0.0006
536.9229	-0.0026
537.1189	0.0045
537.3148	0.0028
537.5108	-0.0111
537.7068	0.0128
537.9027	-0.006
538.0986	0.0078
538.2945	-0.0016
538.4904	-0.0053
538.6863	-0.0011
538.8821	0.0081
539.078	0.0073
539.2738	0.003
539.4696	-0.0047
539.6654	0.0053
539.8611	0.0083
540.0569	0.005
540.2526	0.0114
540.4484	-0.0053
540.6441	-0.0014
540.8398	0.0019
541.0355	-0.0062
541.2311	0.0068
541.4268	0.0047
541.6224	0.0179
541.818	0.0012
542.0136	0.0095
542.2092	0.0088
542.4048	0.0026
542.6003	-0.0011
542.7959	-0.0018
542.9914	0.0015
543.1869	0.0104
543.3824	-0.0004
543.5779	0.004
543.7734	0.0108
543.9688	0.0104
544.1642	0.0024
544.3596	0.0102
544.555	0.0023
544.7504	0.015
544.9458	0.0061
545.1411	-0.0034
545.3365	0.0001
545.5318	0.0008
545.7271	0.0002
545.9224	-0.0015
546.1177	0.0169
546.3129	-0.0076
546.5081	0.0033
546.7034	0.0007
546.8986	0.0005
547.0938	0.0044
547.289	0.0113
547.4841	0.012
547.6793	0.001
547.8744	0.0053
548.0695	0.0017
548.2646	0.0096
548.4597	0.0013
548.6548	0.0153
548.8498	0.0164
549.0448	0.0005
549.2399	0.0113
549.4349	0.0011
549.6298	0.005
549.8248	0.0021
550.0198	0.006
550.2147	0.0065
550.4096	-0.0026
550.6045	0.0052
550.7994	0.0001
550.9943	0.0004
551.1892	-0.0157
551.384	0.0183
551.5788	0.003
551.7737	0.0051
551.9685	0.0049
552.1632	0.0015
552.358	0.0074
552.5528	0.0091
552.7475	0.0084
552.9422	0.0133
553.1369	0.0072
553.3316	0.0072
553.5263	0.0039
553.7209	-0.0025
553.9156	0.0096
554.1102	0.0061
554.3048	-0.0043
554.4994	0.0016
554.694	0.0009
554.8885	0.0038
555.0831	0.0111
555.2776	0.01
555.4721	0.0079
555.6666	0.0103
555.8611	0.0002
556.0555	0.0019
556.25	0.0101
556.4444	-0.008
556.6388	0.0041
556.8332	0.0022
557.0276	0.0143
557.222	0.0013
557.4163	0.0024
557.6107	-0.0034
557.805	-0.0084
557.9993	0.0113
558.1936	-0.0023
558.3879	0.0097
558.5821	0.0002
558.7764	0.0058
558.9706	-0.0078
559.1648	0.0033
559.359	-0.0017
559.5532	0.0025
559.7473	-0.0053
559.9415	0.0065
560.1356	0.0104
560.3297	-0.0078
560.5238	0.0104
560.7179	-0.0028
560.9119	0.0029
561.106	-0.0023
561.3	-0.0031
561.494	-0.0009
561.688	0.0009
561.882	0.0008
562.076	0.0121
562.2699	0.0087
562.4639	0.0179
562.6578	0.0075
562.8517	0.0027
563.0456	0.0048
563.2395	0.011
563.4333	-0.0022
563.6272	0.0079
563.821	-0.0038
564.0148	-0.0016
564.2086	0.0037
564.4024	0.0029
564.5961	0.0032
564.7899	0.009
564.9836	-0.0037
565.1773	0.0046
565.371	0.0086
565.5647	0.0057
565.7584	0.0084
565.952	0.012
566.1456	0.0045
566.3393	0.0061
566.5329	0.0023
566.7264	0.0065
566.92	0.0032
567.1136	-0.0047
567.3071	-0.0084
567.5006	0.0105
567.6941	0.0081
567.8876	0.0037
568.0811	0.0119
568.2745	-0.0073
568.468	0.0005
568.6614	0.004
568.8548	0.0113
569.0482	0.0101
569.2416	0.0025
569.4349	-0.0022
569.6283	0.0025
569.8216	0.0041
570.0149	-0.0013
570.2082	0.0072
570.4015	0.0052
570.5947	0.0031
570.788	0.0017
570.9812	-0.0015
571.1744	0.0045
571.3676	0.0013
571.5608	0.0017
571.754	0.0062
571.9471	0.0033
572.1402	0.006
572.3333	0.0037
572.5264	0.0015
572.7195	-0.0002
572.9126	0.0034
573.1057	0.0028
573.2987	0.0015
573.4917	0.0012
573.6847	0.0009
573.8777	0.0072
574.0707	-0.0026
574.2636	0.0019
574.4566	-0.0016
574.6495	0.0006
574.8424	0.0058
575.0353	0.0053
575.2281	0.0051
575.421	0.004
575.6138	0.0008
575.8067	0.0045
575.9995	-0.0015
576.1923	0.0027
576.385	0.0029
576.5778	0.0083
576.7706	0.0032
576.9633	0.0015
577.156	-0.0056
577.3487	0.0001
577.5414	0.0045
577.734	-0.0007
577.9267	0.0033
578.1193	0.0076
578.3119	-0.0032
578.5045	0.0054
578.6971	-0.0036
578.8897	0.0014
579.0822	0.006
579.2747	-0.0005
579.4673	0.0004
579.6598	0.0035
579.8522	0.006
580.0447	0.006
580.2372	0.0058
580.4296	0.0098
580.622	0.0044
580.8144	0.0018
581.0068	0.0022
581.1992	0.0024
581.3915	0.0002
581.5839	0.0024
581.7762	0.002
581.9685	0.0032
582.1608	0.0021
582.353	-0.0003
582.5453	0.0043
582.7375	0.0097
582.9298	0.0012
583.122	0.0034
583.3142	0.0085
583.5063	-0.0004
583.6985	-0.0052
583.8906	0.0063
584.0827	0.0068
584.2749	0.0017
584.4669	0.0004
584.659	0.0075
584.8511	0.0074
585.0431	0.0075
585.2352	0.002
585.4272	0.0011
585.6192	0.0039
585.8111	-0.0021
586.0031	-0.002
586.195	0.0012
586.387	0.0005
586.5789	0.0023
586.7708	0.0034
586.9627	0.003
587.1545	0.0019
587.3464	0.003
587.5382	0.0028
587.73	0.005
587.9218	0.0053
588.1136	0.0014
588.3053	0.0008
588.4971	0.002
588.6888	0.0027
588.8805	0.0023
589.0722	0.0091
589.2639	0.0066
589.4556	0.0053
589.6472	0.0103
589.8389	-0.001
590.0305	0.0007
590.2221	0.0082
590.4137	0.0017
590.6052	-0.0008
590.7968	0.0053
590.9883	0.0039
591.1798	-0.0016
591.3713	0.0026
591.5628	0.0021
591.7543	-0.0027
591.9458	0.004
592.1372	0.0015
592.3286	0.0043
592.52	0.0019
592.7114	0.0057
592.9028	0.0054
593.0941	0.0047
593.2855	-0.0002
593.4768	0.0098
593.6681	0.0072
593.8594	0.0039
594.0506	0.0054
594.2419	0.0001
594.4331	0.0027
594.6244	-0.0022
594.8156	0.0003
595.0067	-0.0016
595.1979	0.003
595.3891	0.0054
595.5802	0.0096
595.7713	0.0037
595.9624	0.009
596.1535	-0.0034
596.3446	0
596.5357	0.0051
596.7267	0.0062
596.9177	0.0003
597.1087	-0.0008
597.2997	0.0027
597.4907	0
597.6817	0.0055
597.8726	0.005
598.0635	-0.003
598.2544	0.0045
598.4453	0.0039
598.6362	0.0001
598.827	-0.0002
599.0179	0.0048
599.2087	0.0028
599.3995	0.0079
599.5903	0.0029
599.7811	0.0085
599.9718	-0.0003
600.1626	0.0021
600.3533	0.001
600.544	0.003
600.7347	0.0011
600.9254	0.0078
601.116	0.0034
601.3067	0.003
601.4973	0.0048
601.6879	-0.0009
601.8785	0.0031
602.0691	0.0004
602.2596	0.0024
602.4502	0.0056
602.6407	0.0054
602.8312	0.0015
603.0217	0.0038
603.2122	0.0004
603.4027	0.0047
603.5931	-0.0036
603.7835	-0.001
603.9739	-0.0021
604.1643	0.0108
604.3547	0.0081
604.5451	0.0082
604.7354	-0.0002
604.9257	0.0007
605.116	-0.003
605.3063	0.0027
605.4966	0.0077
605.6869	0.008
605.8771	0.002
606.0673	0.0032
606.2575	-0.0027
606.4477	0.0048
606.6379	-0.0021
606.8281	-0.0002
607.0182	-0.0008
607.2083	0.0014
607.3985	0.0031
607.5885	0.001
607.7786	0.0054
607.9687	0.005
608.1587	0.007
608.3488	-0
608.5388	0.0009
608.7288	-0.0023
608.9187	0.003
609.1087	0.0077
609.2986	0.0049
609.4886	-0.0049
609.6785	0.0039
609.8684	0.0004
610.0582	-0.0003
610.2481	-0.0081
610.4379	0.0083
610.6278	0.0038
610.8176	0.0064
611.0074	0.0071
611.1971	0.0107
611.3869	0.0039
611.5766	-0.008
611.7664	0.0069
611.9561	0.0088
612.1458	-0.0011
612.3354	0.0051
612.5251	0.0013
612.7147	0.0029
612.9044	0.0008
613.094	0.0068
613.2836	0.0038
613.4731	0.0021
613.6627	0.0077
613.8522	0.0089
614.0417	0.0043
614.2313	0.0022
614.4207	0.0053
614.6102	0.0061
614.7997	0.0153
614.9891	0.0017
615.1785	-0.0025
615.3679	-0.0012
615.5573	0.008
615.7467	-0.007
615.9361	0.0023
616.1254	0.0069
616.3147	0.0069
616.504	-0.0021
616.6933	0.0021
616.8826	-0.0032
617.0718	0.0028
617.2611	0.0092
617.4503	0.0002
617.6395	0.0085
617.8287	0.0089
618.0179	-0.002
618.207	0.0103
618.3961	-0.0086
618.5853	-0.0013
618.7744	0.0053
618.9634	0.0097
619.1525	0.0133
619.3416	-0.0008
619.5306	0.0063
619.7196	0.0072
619.9086	0.0061
620.0976	-0.0091
620.2866	0.0106
620.4755	0.0027
620.6645	0.011
620.8534	0.0044
621.0423	0.0017
621.2312	-0.0022
621.42	0.0125
621.6089	0.0143
621.7977	0.0003
621.9865	-0.0032
622.1753	-0.0105
622.3641	-0.0057
622.5529	0.0071
622.7416	-0.0008
622.9303	-0.0034
623.1191	0.0052
623.3078	0.0075
623.4964	0.006
623.6851	0.0066
623.8737	-0.009
624.0624	-0.0022
624.251	0.0002
624.4396	-0.0033
624.6282	0.0113
624.8167	0.0023
625.0053	0.0163
625.1938	-0.0007
625.3823	0.0088
625.5708	-0.0001
625.7593	0.004
625.9477	-0
626.1362	-0.0091
626.3246	0.0041
626.513	0.0069
626.7014	0.0082
626.8898	0.0091
627.0781	0.0057
627.2665	0.009
627.4548	0.001
627.6431	0.0042
627.8314	0.0125
628.0197	0.0095
628.2079	0.0095
628.3962	0.0053
628.5844	0.0121
628.7726	0.0045
628.9608	0.007
629.1489	-0.005
629.3371	-0.0062
629.5252	-0.0001
629.7134	-0.0066
629.9015	0.0056
630.0895	-0.0073
630.2776	0.0094
630.4657	0.0074
630.6537	0.0131
630.8417	0.0027
631.0297	0.0093
631.2177	0.0083
631.4057	0.0042
631.5936	0.0007
631.7815	0.0051
631.9695	0.0231
632.1574	0.0096
632.3452	0.0192
632.5331	0.0115
632.7209	0.0109
632.9088	0.0111
633.0966	0.0079
633.2844	0.0103
633.4722	0.0083
633.6599	0.0157
633.8477	0.0179
634.0354	0.022
634.2231	-0.0053
634.4108	0.0033
634.5985	0.0065
634.7861	0.0019
634.9738	-0.0132
635.1614	-0.005
635.349	-0.0007
635.5366	0.0165
635.7242	0.0021
635.9117	0.0124
636.0993	0.0072
636.2868	0.0031
636.4743	0.0204
636.6618	-0.0136
636.8492	-0.0047
637.0367	-0.0043
637.2241	0.0067
637.4115	0.0407
637.5989	-0.0057
637.7863	0.0309
637.9737	0.0091
638.161	0.0222
638.3484	-0.0106
638.5357	0.0056
638.723	0.0052
638.9103	0.0012
639.0975	0.0077
639.2848	0.0136
639.472	0.0076
639.6592	0.0015
639.8464	0.0038
640.0336	0.0174
640.2208	-0.0004
640.4079	0.0061
640.595	-0.0183
640.7821	0.0002
640.9692	-0.0019
641.1563	0.0004
641.3434	0.0183
641.5304	0.0163
641.7174	-0.0019
641.9044	0.0176
642.0914	0.0325
642.2784	0.0093
642.4653	0.0097
642.6523	0.0115
642.8392	-0.0058
643.0261	0.0057
643.213	0.0098
643.3999	0.0198
643.5867	0.017
643.7735	-0.0091
643.9604	0.02
644.1472	0.0188
644.3339	0.0119
644.5207	0.0066
644.7075	0.0019
644.8942	-0.007
645.0809	-0.01
645.2676	-0.0154
645.4543	-0.0048
645.6409	0.0051
645.8276	0.0168
646.0142	-0.0099
646.2008	0.0122
646.3874	0.0003
646.574	-0.0082
646.7605	0.0258
646.9471	-0
647.1336	-0.0104
647.3201	0.0147
647.5066	0.0071
647.6931	-0.0087
647.8795	-0.0002
648.0659	0.0014
648.2524	0.0062
648.4388	0.0103
648.6252	0.0061
648.8115	-0.0007
648.9979	0.0007
649.1842	0.0091
649.3705	0.0132
649.5568	-0.0098
649.7431	0.0054
649.9294	-0.0101
650.1156	0.0039
650.3018	0.0039
650.488	0.006
650.6742	0.0192
650.8604	0.01
651.0466	-0.0135
651.2327	0.0012
651.4188	-0.0065
651.6049	0.0113
651.791	0.0014
651.9771	0.011
652.1632	0.0034
652.3492	-0.0074
652.5352	0.0004
652.7212	-0.0097
652.9072	-0.0051
653.0932	0.0081
653.2791	0.0053
653.465	0.0179
653.651	0.0029
653.8369	0.005
654.0227	0.0019
654.2086	0.0118
654.3944	0.015
654.5803	0.0016
654.7661	0.0055
654.9519	-0.0027
655.1377	0.0002
655.3234	0.0002
655.5092	0.0002
655.6949	0.0002
655.8806	0.0002
656.0663	0.0002
656.2519	0.0002
656.4376	0.0002
656.6232	0.0002
656.8088	0.0002
656.9945	0.0002
657.18	0.0002
657.3656	0.0002
657.5511	0.0002
657.7367	0.0002
657.9222	0.0002
658.1077	0.0002
658.2932	0.0002
658.4786	0.0002
658.6641	0.0002
658.8495	0.0002
659.0349	0.0002
659.2203	0.0002
659.4057	0.0002
659.591	0.0803
659.7764	0.0185
659.9617	0.007
660.147	0.0055
660.3323	0.0087
660.5176	-0.0043
660.7028	-0.0129
660.888	0.0124
661.0733	0.0076
661.2585	-0.0114
661.4436	0.0093
661.6288	0.0168
661.8139	0.0083
661.9991	-0.0159
662.1842	-0.0148
662.3693	0.0055
662.5544	0.0135
662.7394	0.0174
662.9245	0.0047
663.1095	-0.0112
663.2945	-0.0142
663.4795	-0.0017
663.6644	-0.0138
663.8494	0.0215
664.0343	0.0077
664.2193	0.0268
664.4042	0.0144
664.589	0.0049
664.7739	-0.0066
664.9587	-0.0163
665.1436	-0.0168
665.3284	0.005
665.5132	-0.0266
665.698	0.0057
665.8827	0.0402
666.0675	-0.021
666.2522	0.0109
666.4369	0.0139
666.6216	0.001
666.8063	0.0051
666.9909	0.0088
667.1756	-0.015
667.3602	-0.0023
667.5448	0.0019
667.7294	0.0276
667.9139	-0.0147
668.0985	0.0099
668.283	-0.0051
668.4675	0.0283
668.652	-0.0036
668.8365	-0.0043
669.0209	0.0275
669.2054	0.0086
669.3898	-0
669.5742	0.008
669.7586	0.0078
669.943	0.0043
670.1273	-0.0075
670.3117	0.0095
670.496	0.0333
670.6803	0.0071
670.8646	-0.0095
671.0488	0.0286
671.2331	-0.0116
671.4173	-0.0047
671.6015	-0.0093
671.7857	0.0028
671.9699	0.0208
672.1541	-0.0084
672.3382	-0.0024
672.5223	0.0075
672.7064	-0.0094
672.8905	-0.0121
673.0746	0.022
673.2587	0.0339
673.4427	0.0027
673.6267	0.0212
673.8107	0.0204
673.9947	0.0299
674.1787	0.0079
674.3626	0.0153
674.5465	0.0158
674.7304	0.0082
674.9143	0.0167
675.0982	0.0074
675.2821	-0.0015
675.4659	0.0071
675.6497	-0.0044
675.8335	0.0121
676.0173	0.0071
676.2011	0.0188
676.3849	0.0038
676.5686	0.0319
676.7523	0.0039
676.936	-0.003
677.1197	-0.0101
677.3034	0.0428
677.487	0.007
677.6706	0.0029
677.8542	-0
678.0378	0.0134
678.2214	0.0098
678.405	0.0011
678.5885	-0.0007
678.772	0.0065
678.9555	-0
679.139	-0.0058
679.3225	0.0066
679.5059	-0.0097
679.6894	0.0085
679.8728	0.0137
680.0562	0.0071
680.2395	-0.0033
680.4229	-0.0013
680.6062	0.0087
680.7896	-0.0046
680.9729	0.0154
681.1562	0.0191
681.3394	-0.0005
681.5227	0.0073
681.7059	0.0149
681.8891	0.0168
682.0723	0.008
682.2555	0.005
682.4387	0.0078
682.6218	0.0038
682.805	0.0107
682.9881	0.0164
683.1712	0.0056
683.3542	0.025
683.5373	-0.0051
683.7203	0.0092
683.9034	-0.0122
684.0864	-0.0072
684.2694	-0.0038
684.4523	0.0019
684.6353	-0.0064
684.8182	-0.0114
685.0011	0.0094
685.184	0.0062
685.3669	0.0151
685.5498	0.0045
685.7326	0.0143
685.9154	-0.0065
686.0982	0.0115
686.281	0.0097
686.4638	0.0108
686.6465	0.0029
686.8293	-0.0066
687.012	0.0176
687.1947	0.0032
687.3774	-0.006
687.56	0.0081
687.7427	-0.0032
687.9253	-0.0307
688.1079	0.0029
688.2905	-0.0175
688.4731	-0.0009
688.6556	0.0048
688.8382	-0.0218
689.0207	0.0216
689.2032	0.0194
689.3857	-0.0097
689.5681	-0.0063
689.7506	0.0422
689.933	0.0012
690.1154	0.0094
690.2978	0.0234
690.4802	0.0148
690.6626	0.0027
690.8449	0.0099
691.0272	-0.0166
691.2095	-0.0188
691.3918	0.0157
691.5741	0.0185
691.7563	0.0125
691.9386	0.0203
692.1208	0.0129
692.303	-0.0119
692.4852	-0.0096
692.6673	0.0037
692.8495	-0.0196
693.0316	0.0014
693.2137	0.0118
693.3958	-0.0111
693.5778	0.0119
693.7599	0.0076
693.9419	0.0014
694.1239	-0.0038
694.3059	0.0353
694.4879	-0.0031
694.6699	0.0045
694.8518	0.0225
695.0337	-0.0183
695.2157	0.0476
695.3975	0.0041
695.5794	-0.0078
695.7613	0.01
695.9431	-0
696.1249	0.0251
696.3067	0.0008
696.4885	0.0066
696.6703	0.0034
696.852	-0.0029
697.0337	0.0111
697.2154	-0.0012
697.3971	0.0094
697.5788	0.0029
697.7605	-0.0088
697.9421	0.0102
698.1237	0.0264
698.3053	-0.0058
698.4869	0.0116
698.6685	-0.0106
698.85	0.0092
699.0315	-0.0129
699.213	0.0061
699.3945	-0.0087
699.576	0.0226
699.7575	0.022
699.9389	-0.0062
700.1203	0.0121
700.3017	0.0188
700.4831	-0.0012
700.6645	0.0303
700.8458	-0.0052
701.0271	0.0338
701.2084	-0.007
701.3897	0.0194
701.571	-0.0185
701.7523	0.0097
701.9335	0.0034
702.1147	0.0113
702.2959	0.0012
702.4771	0.0142
702.6583	0.0164
702.8394	-0.0087
703.0205	0.0216
703.2016	-0.0047
703.3827	-0.0054
703.5638	0.0068
703.7449	0.0322
703.9259	0.018
704.1069	0.0057
704.2879	0.0004
704.4689	0.0079
704.6499	0.0143
704.8308	0.0155
705.0117	0.0366
705.1927	0.0104
705.3735	0.0161
705.5544	0.0221
705.7353	0.0012
705.9161	0.0018
706.0969	0.0067
706.2777	0.0077
706.4585	0.0089
706.6393	0.0186
706.82	0.0247
707.0007	-0.0009
707.1815	-0.0024
707.3621	0.0179
707.5428	0.0163
707.7235	-0.0093
707.9041	0.0083
708.0847	0.0018
708.2653	0.0187
708.4459	0.0132
708.6265	0.0006
708.807	-0.0186
708.9875	0.0081
709.168	-0.0018
709.3485	0.0419
709.529	-0.0112
709.7095	-0.0058
709.8899	0.0029
710.0703	0.0402
710.2507	0.02
710.4311	-0.0229
710.6115	0.0287
710.7918	0.0156
710.9721	0.0077
711.1524	-0.0124
711.3327	0.0297
711.513	-0.021
711.6932	-0.0009
711.8735	-0.0157
712.0537	0.0086
712.2339	-0.0004
712.4141	0.0125
712.5942	-0.0108
712.7744	0.0279
712.9545	0.0133
713.1346	0.0323
713.3147	0.0036
713.4947	-0.0149
713.6748	0.0088
713.8548	0.0164
714.0348	0.0193
714.2148	0.0093
714.3948	0.0083
714.5748	0.0278
714.7547	0.0092
714.9346	0.0392
715.1145	0.0158
715.2944	-0.0235
715.4743	0.0261
715.6541	-0.0089
715.834	0.0026
716.0138	0.0115
716.1936	0.0085
716.3733	0.0465
716.5531	0.0243
716.7328	0.0062
716.9126	0.0253
717.0923	0.0027
717.2719	0.0252
717.4516	0.0051
717.6312	-0.0186
717.8109	0.0454
717.9905	0.0255
718.1701	0.0183
718.3496	0.0019
718.5292	-0.0034
718.7087	0.0249
718.8882	0.0054
719.0677	0.013
719.2472	-0.009
719.4267	-0.0103
719.6061	-0.0164
719.7856	0.0405
719.965	0.0189
720.1443	0.0063
720.3237	0.0019
720.5031	-0.0042
720.6824	-0.0064
720.8617	0.0286
721.041	0.0246
721.2203	-0.0225
721.3995	-0.0012
721.5788	-0.0047
721.758	0.0109
721.9372	0.0028
722.1164	-0.0193
722.2956	-0.0066
722.4747	0.0201
722.6538	-0.0014
722.8329	0.0283
723.012	0.009
723.1911	0.0029
723.3702	0.0108
723.5492	0.0047
723.7282	-0.0194
723.9072	0.0312
724.0862	-0.0141
724.2652	0.021
724.4441	0.0016
724.623	-0.0089
724.8019	-0.0141
724.9808	0.0224
725.1597	0.0184
725.3385	0.0054
725.5174	0.0071
725.6962	0.0152
725.875	0.009
726.0538	-0.0011
726.2325	0.0381
726.4112	-0.0165
726.59	-0.0152
726.7687	-0.0131
726.9474	0.0036
727.126	0.0245
727.3047	-0.0032
727.4833	0.0118
727.6619	-0.012
727.8405	0.0017
728.0191	0.0263
728.1976	0.0111
728.3762	0.0087
728.5547	-0.0062
728.7332	0.0281
728.9116	0.0176
729.0901	-0.0032
729.2686	0.0131
729.447	0.0012
729.6254	0.0006
729.8038	-0
729.9821	-0.001
730.1605	0.0268
730.3388	0.0098
730.5171	0.029
730.6954	-0.0081
730.8737	0.0172
731.0519	-0.0026
731.2302	0.0241
731.4084	-0.0003
731.5866	0.007
731.7648	0.0036
731.9429	0.0201
732.1211	0.0012
732.2992	-0
732.4773	-0.0029
732.6554	-0.0131
732.8335	0.0227
733.0115	0.0123
733.1896	-0.017
733.3676	0.0251
733.5456	-0.0021
733.7235	-0.0009
733.9015	0.0273
734.0794	-0.0009
734.2574	-0.0162
734.4353	0.0319
734.6131	-0.0086
734.791	-0.019
734.9689	0.0124
735.1467	-0.0117
735.3245	0.0337
735.5023	0.0293
735.68	0.0044
735.8578	0.0181
736.0355	0.0243
736.2132	0.0088
736.3909	0.0099
736.5686	0.0016
736.7463	-0.0157
736.9239	0.0184
737.1015	0.0202
737.2791	0.0016
737.4567	0.0142
737.6343	0.0014
737.8118	-0.0004
737.9894	-0.0097
738.1669	-0.0115
738.3444	0.0202
738.5218	0.0023
738.6993	0.0074
738.8767	0.0091
739.0541	0.0032
739.2315	0.0018
739.4089	0.0309
739.5863	-0.0131
739.7636	0.0007
739.9409	0.0151
740.1182	-0.0254
740.2955	0.0305
740.4728	0.0008
740.65	-0.0005
740.8272	0.0144
741.0044	-0.0227
741.1816	0.0078
741.3588	0.012
741.5359	0.0091
741.7131	-0.0075
741.8902	0.0251
742.0673	-0.0218
742.2444	0.0336
742.4214	0.0358
742.5985	-0.005
742.7755	-0.0195
742.9525	-0.0198
743.1295	-0.011
743.3064	0.0148
743.4834	0.0394
743.6603	0.0527
743.8372	-0.0477
744.0141	0.0077
744.191	0.0118
744.3678	-0.0266
744.5446	0.0109
744.7215	0.008
744.8982	0.0202
745.075	0.0506
745.2518	-0.0036
745.4285	0.0398
745.6052	-0.0188
745.7819	0.0229
745.9586	0.0105
746.1353	-0.0272
746.3119	0.0099
746.4885	0.0141
746.6651	0.0043
746.8417	-0.0059
747.0183	0.0454
747.1948	0.0118
747.3714	0.0109
747.5479	0.0508
747.7244	0.0268
747.9008	0.0193
748.0773	0.0284
748.2537	-0.0022
748.4301	0.0481
748.6065	0.0184
748.7829	-0.0283
748.9593	0.0123
749.1356	0.0072
749.3119	0.0061
749.4882	0.0435
749.6645	-0.0027
749.8408	0.0333
750.017	0.0101
750.1933	-0.0087
750.3695	0.0156
750.5457	0.0013
750.7218	-0.0138
750.898	-0.0017
751.0741	-0.0019
751.2502	-0.0061
751.4263	-0.0109
751.6024	0.0098
751.7784	-0.0232
751.9545	-0.0015
752.1305	0.0119
752.3065	0.0235
752.4825	0.0109
752.6584	0.0147
752.8344	-0.0099
753.0103	0.0007
753.1862	0.02
753.3621	0.0019
753.5379	-0.003
753.7138	0.0127
753.8896	0.0175
754.0654	0.0066
754.2412	0.0087
754.417	0.022
754.5927	-0.0038
754.7685	0.0067
754.9442	-0.0003
755.1199	0.0055
755.2956	-0.0085
755.4712	0.0045
755.6469	0.0155
755.8225	0.0153
755.9981	0.0167
756.1736	0.0295
756.3492	0.0059
756.5248	0.0182
756.7003	-0.0002
756.8758	-0.0038
757.0513	0.0008
757.2267	0.0166
757.4022	-0.0071
757.5776	0.0032
757.753	0.0026
757.9284	0.0078
758.1038	0.018
758.2791	0.0095
758.4545	-0.0159
758.6298	0.0089
758.8051	0.0178
758.9803	0.0055
759.1556	0.0034
759.3308	0.0038
759.506	0.0104
759.6812	0.006
759.8564	0.0034
760.0316	0.0016
760.2067	0.0107
760.3819	0.0214
760.557	0.0106
760.732	0.0056
760.9071	0.026
761.0821	-0.0006
761.2572	0.0025
761.4322	0.0098
761.6072	0.0044
761.7821	-0.004
761.9571	0.0257
762.132	-0.0161
762.3069	0.0082
762.4818	0.0287
762.6567	-0.0033
762.8316	0.0062
763.0064	0.0091
763.1812	0.0056
763.356	0.0031
763.5308	0.0184
763.7055	-0.0177
763.8803	0.0022
764.055	0.0025
764.2297	-0.0209
764.4044	-0.0072
764.579	-0.0039
764.7537	0.0002
764.9283	-0.0049
765.1029	0.0211
765.2775	0.0021
765.4521	0.0096
765.6266	0.0117
765.8011	0.0006
765.9756	0.0195
766.1501	0.0012
766.3246	-0.0117
766.4991	-0.01
766.6735	0.044
766.8479	0.0124
767.0223	0.0246
767.1967	0.0045
767.371	0.0398
767.5454	0.0186
767.7197	0.0212
767.894	0.0052
768.0683	0.005
768.2425	0.0179
768.4168	0.0047
768.591	0.006
768.7652	-0.0027
768.9394	-0.0069
769.1135	0.0034
769.2877	0.0144
769.4618	0.0377
769.6359	0.0046
769.81	0.0201
769.984	0.0056
770.1581	-0.0158
770.3321	0.0265
770.5061	-0.0176
770.6801	0.0067
770.8541	0.0427
771.028	0.0291
771.202	0.0128
771.3759	0.0101
771.5498	0.0012
771.7236	-0.0141
771.8975	0.0055
772.0713	0.005
772.2451	0.0179
772.4189	0.0128
772.5927	-0.0298
772.7665	-0.0128
772.9402	0.0192
773.1139	-0.0044
773.2876	0.0266
773.4613	0.0291
773.635	0.0507
773.8086	0.0108
773.9822	0.0447
774.1558	0.0434
774.3294	0.011
774.503	-0.0001
774.6765	0.0383
774.8501	0.0082
775.0236	0.0358
775.1971	0.0007
775.3705	-0.0055
775.544	-0.0613
775.7174	0.0278
775.8908	-0.0328
776.0642	0.0041
776.2376	0.0024
776.4109	0.0103
776.5843	-0.001
776.7576	0.0361
776.9309	0.0484
777.1041	-0.0276
777.2774	0.0264
777.4506	-0.0119
777.6238	-0.0362
777.797	0.0443
777.9702	0.0039
778.1434	0.0202
778.3165	-0.0412
778.4896	-0.0253
778.6627	0.0111
778.8358	0.0093
779.0089	-0.038
779.1819	-0.0043
779.3549	0.0159
779.5279	-0.0071
779.7009	0.0518
779.8739	0.075
780.0468	-0.0008
780.2197	0.0204
780.3926	-0.0136
780.5655	0.0086
780.7384	0.0365
780.9112	0.0123
781.0841	0.0282
781.2569	-0.0027
781.4297	0.0214
781.6024	0.0233
781.7752	0.0378
781.9479	0.0482
782.1206	0.0101
782.2933	0.0232
782.466	0.0085
782.6386	0.0277
782.8113	0.0093
782.9839	0.0266
783.1565	0.0111
783.329	-0.0115
783.5016	0.0393
783.6741	0.0006
783.8466	0.0209
784.0191	0.0054
784.1916	-0.0356
784.3641	-0.0333
784.5365	0.0507
784.7089	-0.0067
784.8813	0.0541
785.0537	0.0275
785.2261	-0.0096
785.3984	-0.0255
785.5707	-0.0216
785.743	0.0483
785.9153	-0.0146
786.0876	-0.0295
786.2598	-0.0053
786.432	0.0158
786.6042	0.057
786.7764	-0.0433
786.9486	0.0013
787.1207	0.0475
787.2928	0.0773
787.4649	-0.0077
787.637	0.0107
787.8091	0.01
787.9811	0.047
788.1532	0.0229
788.3252	0.0105
788.4972	0.026
788.6691	0.01
788.8411	-0.0364
789.013	0.0338
789.1849	-0.0208
789.3568	0.0063
789.5287	0.0525
789.7005	-0.0525
789.8723	-0.0471
790.0442	0.0255
790.2159	0.0125
790.3877	0.065
790.5595	-0.0134
790.7312	-0.0177
790.9029	-0.0439
791.0746	0.0125
791.2463	-0.0059
791.4179	0.0238
791.5896	0.0466
791.7612	-0.0177
791.9328	-0.0148
792.1044	-0.0179
792.2759	-0.0099
792.4474	0.0275
792.619	0.0354
792.7905	-0.0012
792.9619	0.055
793.1334	0.0243
793.3048	0.0805
793.4762	0.0498
793.6476	-0.0231
793.819	0.01
793.9904	-0.0405
794.1617	-0.037
794.333	0.0207
794.5043	0.0122
794.6756	-0.0046
794.8469	0.0055
795.0181	0.0232
795.1893	0.0431
795.3605	0.0322
795.5317	0.0469
795.7029	-0.0174
795.874	0.0556
796.0452	0.0218
796.2163	0.0628
796.3873	0.0908
796.5584	-0.022
796.7294	-0.0233
796.9005	0.0713
797.0715	-0.0725
797.2425	0.1149
797.4134	0.0905
797.5844	0.1156
797.7553	-0.033
797.9262	0.079
798.0971	0.0587
798.2679	-0.0049
798.4388	0.0437
798.6096	-0.0015
798.7804	0.0173
798.9512	0.0585
799.122	0.0196
799.2927	0.0205
799.4635	-0.0176
799.6342	-0.0268
799.8049	0.028
799.9755	0.013
800.1462	0.031
800.3168	0.0159
800.4874	-0.1045
800.658	0.0477
800.8286	-0.0108
800.9991	0.0159
801.1696	-0.0186
801.3402	0.01
801.5106	-0.0535
801.6811	0.0161
801.8516	0.0766
802.022	0.027
802.1924	0.0061
802.3628	0.1237
802.5332	0.0059
802.7035	0.0378
802.8739	0.0177
803.0442	0.043
803.2145	0.0519
803.3847	0.0595
803.555	0.0641
803.7252	-0.0158
803.8954	-0.0018
804.0656	0.02
804.2358	0.0261
804.4059	0.0703
804.5761	0.0563
804.7462	0.0284
804.9163	-0.0079
805.0864	0.0614
805.2564	0.0694
805.4264	0.0395
805.5965	0.023
805.7665	0.0217
805.9364	-0.0199
806.1064	0.0314
806.2763	0.0435
806.4462	0.0316
806.6161	0.028
806.786	0.0246
806.9559	0.0428
807.1257	-0.0021
807.2955	-0.0145
807.4653	0.0219
807.6351	0.0355
807.8048	0.0838
807.9746	-0.0075
808.1443	0.0081
808.314	0.0314
808.4837	0.0686
808.6533	-0.0032
808.8229	-0.0056
808.9926	-0.0148
809.1622	0.0353
809.3317	-0.0203
809.5013	0.0282
809.6708	0.0082
809.8403	0.0387
810.0098	0.035
810.1793	0.0235
810.3488	0.0708
810.5182	0.1186
810.6876	0.0403
810.857	0.1516
811.0264	0.0533
811.1958	0.125
811.3651	0.0366
811.5344	0.1109
811.7037	0.0516
811.873	0.0745
812.0422	-0.0367
812.2115	-0.0002
812.3807	-0.0099
812.5499	0.0348
812.7191	-0.1066
812.8882	-0.1005
813.0574	0.013
813.2265	-0.024
813.3956	0.1161
813.5646	0.2584
813.7337	0.0089
813.9027	-0.0701
814.0718	0.1152
814.2407	0.0315
814.4097	0.0314
814.5787	0.0834
814.7476	0.0973
814.9165	0.006
815.0854	0.0075
815.2543	0.0519
815.4232	0.1818
815.592	0.0736
815.7608	-0.0534
815.9296	0.0227
816.0984	0.0325
816.2671	-0.4231
816.4359	0.0771
816.6046	0.0379
816.7733	0.0623
816.942	0.0245
817.1106	0.0381
817.2793	-0.0694
817.4479	-0.0297
817.6165	0.0131
817.785	0.0924
817.9536	-0.0593
818.1221	0.0297
818.2906	-0.0852
818.4591	0.0417
818.6276	0.1332
818.7961	-0.0483
818.9645	0.0425
819.1329	0.6412
819.3013	-0.025
819.4697	-0.0112
819.638	-0.0004
819.8064	-0.0409
819.9747	0.0785
820.143	-0.1607
820.3113	0.0322
820.4795	-0.0136
820.6477	0.0861
820.816	0.0112
820.9842	0.0782
821.1523	0.0462
821.3205	0.0894
821.4886	-0.0002
821.6567	-0.0851
821.8248	0.1116
821.9929	-0.0919
822.1609	0.114
822.329	0.1066
822.497	0.0548
822.665	0.2501
822.833	0.0913
823.0009	-0.0038
823.1688	0.0682
823.3367	-0.1526
823.5046	0.0642
823.6725	0.0373
823.8404	-0.087
824.0082	-0.0003
824.176	0.169
824.3438	0.2791
824.5116	-0.0764
824.6793	0.077
824.847	-0.0652
825.0147	0.4002
825.1824	0.0778
825.3501	0.1918
825.5177	-0.0558
825.6854	-0.1332
825.853	0.1576
826.0206	-0.011
826.1881	-0.0352
826.3557	0.077
826.5232	0.1207
826.6907	-0.0297
826.8582	0.0591
827.0257	0.1463
827.1931	0.0166
827.3605	0.0884
827.528	-0.11
827.6953	-0.1771
827.8627	0.0656
828.03	0.0282
828.1974	0.2886
828.3647	0.0669
828.532	0.0728
828.6992	0.02
828.8665	0.0763
829.0337	0.1103
829.2009	-0.0379
829.3681	0.1033
829.5352	-0.1428
829.7024	0.1614
829.8695	0.1418
830.0366	0.1838
830.2037	0.1886
830.3707	0.0318
830.5378	0.1906
830.7048	0.081
830.8718	0.1067
831.0388	0.0503
831.2057	-0.0104
831.3727	0.3354
831.5396	0.1219
831.7065	-0.7399
831.8734	0.0741
832.0402	0.4202
832.2071	-0.6577
832.3739	-0.1465
832.5407	-0
832.7075	-0.0012
832.8742	0.466
833.041	0.3381
833.2077	2.0429
833.3744	-0.0241
833.541	-0.0274
833.7077	0.0121
833.8743	0.5012
834.0409	0.2445
834.2075	0.2694
834.3741	0.3801
834.5407	-0.1179
834.7072	0.1626
834.8737	0.2696
835.0402	0.3204
835.2067	-0.0734
835.3731	-0.0004
835.5395	0.0988
835.706	0.3355
835.8723	-0.1653
836.0387	0.3026
836.2051	0.1648
836.3714	0.3614
836.5377	-0.0007
836.704	0.7585
836.8703	-0.2553
837.0365	-0.7502
837.2027	0.2365
837.3689	0.2728
837.5351	0.0135
837.7013	-0.1911
837.8674	-0.3326
838.0335	0.1765
838.1997	-0.3919
838.3657	-0
838.5318	-0.3096
838.6978	0.3498
838.8639	-0.0246
839.0299	0.3774
839.1958	0.0481
839.3618	0.844
839.5277	-0.0191
839.6937	-0.1984
839.8596	0.0324
840.0254	0.1726
840.1913	-0.3309
840.3571	0.7015
840.523	-0
840.6888	-0.0991
840.8545	0.942
841.0203	0.0877
841.186	-0.2437
841.3517	-0.1147
841.5174	0.0438
841.6831	-0.0887
841.8488	0.1853
842.0144	0.0732
842.18	0.5406
842.3456	0.5355
842.5112	-0
842.6767	-0.035
842.8422	-0.1364
843.0077	0.8181
843.1732	-0.3997
843.3387	-0
843.5042	1.636
843.6696	0.3892
843.835	-0.0371
844.0004	-0.0304
844.1657	-0
844.3311	0.5237
844.4964	-0.3135
844.6617	0.7471
844.827	-0
844.9923	0.3763
845.1575	-0
845.3227	-0.1078
845.4879	-0.3054
845.6531	0.2355
845.8183	-0.0008
845.9834	-0.3061
846.1485	0.2721
846.3136	-0.0234
846.4787	-0.2288
846.6438	0.5751
846.8088	-0
846.9738	-0
847.1388	0.523
847.3038	0.5676
847.4687	0.0989
847.6337	-0
847.7986	-0.0668
847.9635	-0
848.1284	-0
848.2932	0.0234
848.458	-0
848.6228	-0
848.7876	0.0631
848.9524	-0.2764
849.1172	-2.017
849.2819	-0.4058
849.4466	0.917
849.6113	0.4353
849.7759	-0
849.9406	0.1819
850.1052	-0.4694
850.2698	0.3757
850.4344	-0
850.599	0.1441
850.7635	-0
850.928	0.7747
851.0925	1.5311
851.257	0.1576
851.4215	0.6009
851.5859	0.198
851.7503	-0
851.9147	0.1786
852.0791	-0.0999
852.2434	-0
852.4078	-0.3841
852.5721	-0
852.7364	0.0546
852.9007	-0.0344
853.0649	-0
853.2291	-0.0774
853.3934	-0
853.5575	0.1176
853.7217	0.7541
853.8859	-0.0423
854.05	1.0233
854.2141	0.9512
854.3782	-0
854.5423	-0
854.7063	0.1541
854.8703	-0.0764
855.0343	-0.1862
855.1983	0.288
855.3623	0.0253
855.5262	-0.1527
855.6901	0.2675
855.854	-0.0399
856.0179	-0
856.1818	-0
856.3456	0.1664
856.5094	-0
856.6732	0.1576
856.837	-0
857.0008	0.1803
857.1645	-0.0439
857.3282	-0.2935
857.4919	0.3708
857.6556	1.0233
857.8192	0.0452
857.9828	-0.2309
858.1465	0.5883
858.31	-0.4388
858.4736	-0.386
858.6372	-0
858.8007	0.0383
858.9642	0.0955
859.1277	0.3259
859.2911	-0.2167
859.4546	-0
859.618	0.2871
859.7814	0.0019
859.9448	-0
860.1081	0.4006
860.2715	-0
860.4348	-0
860.5981	-0
860.7614	-0
860.9246	0.1168
861.0879	0.1604
861.2511	-0
861.4143	-0
861.5774	-0.3471
861.7406	-0
861.9037	0.0969
862.0668	-0.9148
862.2299	1.6322
862.393	0.1242
862.556	-0
862.7191	-0
862.8821	0.1266
863.0451	-0
863.208	-0
863.371	-0
863.5339	0.1567
863.6968	0.7237
863.8597	-0.3716
864.0225	-0
864.1854	-0.0453
864.3482	-0.9236
864.511	0.0351
864.6737	-0.2403
864.8365	0.2534
864.9992	-0
865.1619	0.09
865.3246	-1.7664
865.4873	-0
865.65	0.3038
865.8126	-0
865.9752	-0
866.1378	-0.0089
866.3004	0.0467
866.4629	-2.0514
866.6254	-0.1025
866.7879	-0.0959
866.9504	-0
867.1129	-0
867.2753	-0.1157
867.4377	-0
867.6001	0.0043
867.7625	0.2234
867.9249	-0
868.0872	-0.2895
868.2495	0.3757
868.4118	-0
868.5741	-0.3816
868.7363	0.0107
868.8986	-0.623
869.0608	-0
869.223	-0.3676
869.3851	-0.0998
869.5473	0.3119
869.7094	0.3837
869.8715	-0.6676
870.0336	0.1108
870.1957	-0.7296
870.3577	0.1576
870.5197	-0.0636
870.6817	-0.4968
870.8437	-0.1736
871.0057	-0.0009
871.1676	0.2176
871.3295	-0
871.4914	-1.7482
871.6533	-0.5828
871.8151	-0
871.977	0.4393
872.1388	-0.4042
872.3006	-0
872.4623	-0.3479
872.6241	0.0834
872.7858	0.5002
872.9475	0.4986
873.1092	0.6811
873.2709	0.3681
873.4325	-1.7207
873.5941	-0.4793
873.7557	-0
873.9173	0.1157
874.0789	-0
874.2404	-0
874.4019	0.3973
874.5634	-0
874.7249	-0
874.8863	-0
875.0478	-0
875.2092	-0
875.3706	-0.0633
875.5319	-0
875.6933	0.1497
875.8546	0.4105
876.0159	0.3107
876.1772	-0
876.3385	-0
876.4997	0.1073
876.6609	-0
876.8221	-0
876.9833	-0
877.1445	0.3655
877.3056	-0
877.4667	-0.8344
877.6278	-0
877.7889	0.0197
877.9499	0.2911
878.111	-0.0833
878.272	-0
878.433	-0
878.5939	-0
878.7549	0.354
878.9158	0.2397
879.0767	-0
879.2376	0.0718
879.3984	-0
879.5593	-0
879.7201	-1.6915
879.8809	0.1916
880.0417	-0.2347
880.2024	0.5418
880.3632	-0.5121
880.5239	0.0421
880.6846	-0.3601
880.8452	-0.2344
881.0059	0.5883
881.1665	-0.1393
881.3271	-0.1961
881.4877	-0
881.6483	-1.3844
881.8088	-0
881.9693	-1.2854
882.1298	-1.2854
882.2903	-1.2854
