Data from D4ACN5uM460nmA_Absorbance_13-05-41-120.txt Node
Date: Fri Feb 21 13:05:41 GMT 2025
User: LASERRRRR
Spectrometer: FLMT03099
Trigger mode: 0
Integration Time (sec): 1.500000E-2
Scans to average: 1
Electric dark correction enabled: true
Nonlinearity correction enabled: false
Boxcar width: 0
XAxis mode: Wavelengths
Number of Pixels in Spectrum: 3648
>>>>>Begin Spectral Data<<<<<
179.3399	-0.4064
179.5586	-0.4064
179.7771	-0.4064
179.9957	-0.3678
180.2143	-0.6021
180.4329	-0
180.6514	-0
180.8699	-0
181.0885	-0
181.307	0.1882
181.5255	0.3551
181.744	-0
181.9625	0.4078
182.181	0.2345
182.3994	-0.5917
182.6179	1.15
182.8363	0.6973
183.0547	0.0789
183.2732	0.0554
183.4916	0.117
183.71	0.2467
183.9284	0.0956
184.1467	-0.14
184.3651	0.0912
184.5835	0.1903
184.8018	0.0882
185.0201	0.2631
185.2385	0.0959
185.4568	0.0991
185.6751	0.2557
185.8934	0.2467
186.1117	-0.3346
186.3299	0.1283
186.5482	0.2255
186.7664	0.1871
186.9847	0.0452
187.2029	0.1578
187.4211	0.051
187.6393	0.0072
187.8575	0.3236
188.0757	0.4614
188.2939	0.2232
188.512	0.3703
188.7302	0.0442
188.9483	0.1922
189.1665	1.1577
189.3846	0.0273
189.6027	0.1942
189.8208	0.1952
190.0389	0.1977
190.257	0.0073
190.475	0.1103
190.6931	0.2973
190.9111	0.0893
191.1292	0.0303
191.3472	0.1579
191.5652	0.2593
191.7832	0.0105
192.0012	0.0502
192.2192	0.2138
192.4371	0.1163
192.6551	0.1534
192.873	0.0928
193.091	0.1186
193.3089	0.0664
193.5268	0.2552
193.7447	0.1277
193.9626	0.2526
194.1805	0.2297
194.3984	0.1611
194.6162	0.307
194.8341	0.2603
195.0519	0.2119
195.2697	0.3087
195.4875	0.2848
195.7054	0.2527
195.9231	0.1803
196.1409	0.2994
196.3587	0.2845
196.5765	0.2757
196.7942	0.3135
197.012	0.3596
197.2297	0.3902
197.4474	0.3295
197.6651	0.3003
197.8828	0.3221
198.1005	0.3886
198.3182	0.3627
198.5358	0.3544
198.7535	0.3707
198.9711	0.3893
199.1888	0.3811
199.4064	0.344
199.624	0.3722
199.8416	0.3555
200.0592	0.3577
200.2767	0.3784
200.4943	0.3579
200.7119	0.4059
200.9294	0.4179
201.1469	0.4206
201.3645	0.4514
201.582	0.4178
201.7995	0.4705
202.017	0.4031
202.2344	0.4299
202.4519	0.3988
202.6694	0.3958
202.8868	0.3958
203.1042	0.4324
203.3217	0.4228
203.5391	0.4054
203.7565	0.3713
203.9739	0.39
204.1913	0.3568
204.4086	0.3568
204.626	0.3819
204.8433	0.3665
205.0607	0.3868
205.278	0.3997
205.4953	0.3454
205.7126	0.3452
205.9299	0.3392
206.1472	0.3125
206.3644	0.3834
206.5817	0.3123
206.7989	0.353
207.0162	0.3195
207.2334	0.3426
207.4506	0.3387
207.6678	0.3012
207.885	0.3048
208.1022	0.3169
208.3194	0.3106
208.5365	0.2917
208.7537	0.2818
208.9708	0.2996
209.1879	0.3052
209.405	0.295
209.6222	0.2633
209.8392	0.3145
210.0563	0.2773
210.2734	0.2695
210.4905	0.2736
210.7075	0.2632
210.9245	0.2764
211.1416	0.2774
211.3586	0.2562
211.5756	0.2569
211.7926	0.27
212.0096	0.2665
212.2265	0.2544
212.4435	0.259
212.6604	0.2499
212.8774	0.2525
213.0943	0.2464
213.3112	0.2561
213.5281	0.2548
213.745	0.2423
213.9619	0.255
214.1788	0.2472
214.3956	0.2329
214.6125	0.2572
214.8293	0.2511
215.0461	0.261
215.2629	0.26
215.4798	0.2268
215.6965	0.2605
215.9133	0.2317
216.1301	0.2381
216.3469	0.2415
216.5636	0.2558
216.7803	0.245
216.9971	0.2625
217.2138	0.2605
217.4305	0.2488
217.6472	0.2519
217.8639	0.2581
218.0805	0.2573
218.2972	0.246
218.5138	0.2608
218.7305	0.2699
218.9471	0.2473
219.1637	0.276
219.3803	0.2668
219.5969	0.2545
219.8135	0.2564
220.0301	0.2626
220.2466	0.2612
220.4632	0.2617
220.6797	0.2755
220.8962	0.2519
221.1127	0.2657
221.3292	0.2726
221.5457	0.2663
221.7622	0.2647
221.9787	0.2931
222.1951	0.2774
222.4116	0.2725
222.628	0.2941
222.8444	0.2776
223.0608	0.275
223.2772	0.2983
223.4936	0.2852
223.71	0.2936
223.9264	0.2939
224.1427	0.2917
224.3591	0.2842
224.5754	0.2803
224.7917	0.2923
225.008	0.2937
225.2243	0.3008
225.4406	0.2982
225.6569	0.3135
225.8732	0.3125
226.0894	0.3051
226.3057	0.3132
226.5219	0.3214
226.7381	0.314
226.9543	0.3171
227.1705	0.3226
227.3867	0.3189
227.6029	0.3281
227.8191	0.3434
228.0352	0.3337
228.2513	0.3577
228.4675	0.3388
228.6836	0.3507
228.8997	0.3495
229.1158	0.3557
229.3319	0.3591
229.548	0.3489
229.764	0.3564
229.9801	0.3746
230.1961	0.362
230.4121	0.3676
230.6282	0.3881
230.8442	0.3906
231.0602	0.3845
231.2761	0.3864
231.4921	0.3942
231.7081	0.3866
231.924	0.4098
232.14	0.4029
232.3559	0.4094
232.5718	0.4039
232.7877	0.4122
233.0036	0.4083
233.2195	0.4168
233.4353	0.4207
233.6512	0.4263
233.867	0.4226
234.0829	0.4114
234.2987	0.4253
234.5145	0.4343
234.7303	0.4376
234.9461	0.4292
235.1619	0.4376
235.3776	0.4362
235.5934	0.4332
235.8091	0.4412
236.0249	0.4456
236.2406	0.4428
236.4563	0.4411
236.672	0.4526
236.8877	0.4482
237.1034	0.4393
237.319	0.4583
237.5347	0.4496
237.7503	0.4449
237.966	0.4595
238.1816	0.4521
238.3972	0.4553
238.6128	0.456
238.8284	0.4645
239.0439	0.4713
239.2595	0.4629
239.475	0.4644
239.6906	0.4561
239.9061	0.4607
240.1216	0.4623
240.3371	0.4623
240.5526	0.4568
240.7681	0.4647
240.9836	0.4598
241.199	0.4497
241.4145	0.4503
241.6299	0.4565
241.8453	0.4371
242.0607	0.4322
242.2761	0.4342
242.4915	0.4287
242.7069	0.414
242.9223	0.411
243.1376	0.4017
243.353	0.3992
243.5683	0.3941
243.7836	0.389
243.9989	0.3743
244.2142	0.3676
244.4295	0.3698
244.6448	0.36
244.86	0.3487
245.0753	0.3369
245.2905	0.3319
245.5057	0.3269
245.721	0.3368
245.9362	0.3179
246.1514	0.314
246.3665	0.315
246.5817	0.2899
246.7969	0.2949
247.012	0.2892
247.2271	0.2883
247.4423	0.2772
247.6574	0.279
247.8725	0.2648
248.0876	0.2674
248.3026	0.2657
248.5177	0.252
248.7328	0.2483
248.9478	0.2457
249.1628	0.2427
249.3779	0.2432
249.5929	0.2398
249.8079	0.2341
250.0228	0.2306
250.2378	0.2266
250.4528	0.2269
250.6677	0.2231
250.8827	0.2129
251.0976	0.2124
251.3125	0.22
251.5274	0.2047
251.7423	0.2033
251.9572	0.2087
252.172	0.2065
252.3869	0.2059
252.6017	0.2013
252.8166	0.1981
253.0314	0.198
253.2462	0.1936
253.461	0.1951
253.6758	0.1977
253.8906	0.1908
254.1053	0.1912
254.3201	0.1901
254.5348	0.1833
254.7496	0.1884
254.9643	0.1903
255.179	0.1897
255.3937	0.188
255.6083	0.19
255.823	0.1873
256.0377	0.1806
256.2523	0.1891
256.467	0.1825
256.6816	0.1816
256.8962	0.1848
257.1108	0.1818
257.3254	0.1813
257.54	0.1766
257.7545	0.1828
257.9691	0.1743
258.1836	0.1742
258.3981	0.1809
258.6127	0.1732
258.8272	0.1829
259.0417	0.1698
259.2561	0.1744
259.4706	0.1782
259.6851	0.1759
259.8995	0.1715
260.114	0.176
260.3284	0.1732
260.5428	0.1752
260.7572	0.1784
260.9716	0.1781
261.186	0.1777
261.4003	0.1736
261.6147	0.1736
261.829	0.1805
262.0433	0.1775
262.2577	0.1743
262.472	0.1706
262.6863	0.1772
262.9005	0.1723
263.1148	0.1776
263.3291	0.1731
263.5433	0.179
263.7576	0.1738
263.9718	0.1758
264.186	0.1804
264.4002	0.1788
264.6144	0.1809
264.8286	0.1764
265.0427	0.1793
265.2569	0.1747
265.471	0.1828
265.6851	0.1791
265.8993	0.1737
266.1134	0.173
266.3275	0.1784
266.5415	0.1792
266.7556	0.1796
266.9697	0.1704
267.1837	0.1727
267.3978	0.1769
267.6118	0.1728
267.8258	0.1747
268.0398	0.1778
268.2538	0.179
268.4677	0.1755
268.6817	0.1756
268.8957	0.1735
269.1096	0.163
269.3235	0.1703
269.5374	0.1715
269.7514	0.1735
269.9652	0.1726
270.1791	0.1636
270.393	0.1664
270.6068	0.1715
270.8207	0.1698
271.0345	0.1657
271.2483	0.1645
271.4622	0.1661
271.676	0.1682
271.8897	0.1614
272.1035	0.1712
272.3173	0.164
272.531	0.1663
272.7448	0.1643
272.9585	0.1634
273.1722	0.1635
273.3859	0.1687
273.5996	0.1615
273.8133	0.1642
274.0269	0.1628
274.2406	0.1698
274.4542	0.1661
274.6679	0.1626
274.8815	0.1682
275.0951	0.1751
275.3087	0.1688
275.5223	0.172
275.7358	0.1688
275.9494	0.1707
276.1629	0.167
276.3765	0.1708
276.59	0.1657
276.8035	0.1719
277.017	0.1727
277.2305	0.1674
277.444	0.1681
277.6574	0.1648
277.8709	0.1756
278.0843	0.1743
278.2978	0.1743
278.5112	0.1688
278.7246	0.1703
278.938	0.1684
279.1513	0.1752
279.3647	0.1763
279.5781	0.1732
279.7914	0.1761
280.0047	0.1735
280.2181	0.169
280.4314	0.1708
280.6447	0.18
280.8579	0.1743
281.0712	0.1717
281.2845	0.1756
281.4977	0.1755
281.711	0.1715
281.9242	0.1741
282.1374	0.1776
282.3506	0.1774
282.5638	0.1801
282.7769	0.1723
282.9901	0.1839
283.2033	0.1818
283.4164	0.174
283.6295	0.179
283.8426	0.1733
284.0557	0.184
284.2688	0.1855
284.4819	0.1784
284.695	0.1817
284.908	0.1832
285.1211	0.1822
285.3341	0.1771
285.5471	0.1834
285.7601	0.1852
285.9731	0.1882
286.1861	0.1916
286.3991	0.1874
286.612	0.1922
286.825	0.1874
287.0379	0.1884
287.2508	0.186
287.4637	0.1917
287.6766	0.1855
287.8895	0.1846
288.1024	0.1876
288.3152	0.1941
288.5281	0.1846
288.7409	0.1939
288.9538	0.1902
289.1666	0.1929
289.3794	0.1861
289.5922	0.1876
289.8049	0.1936
290.0177	0.1958
290.2304	0.1933
290.4432	0.1934
290.6559	0.1952
290.8686	0.1945
291.0813	0.1909
291.294	0.191
291.5067	0.1905
291.7194	0.1882
291.932	0.1899
292.1447	0.1915
292.3573	0.1927
292.5699	0.1947
292.7825	0.1882
292.9951	0.1973
293.2077	0.192
293.4203	0.1948
293.6328	0.1908
293.8454	0.1958
294.0579	0.1933
294.2704	0.1909
294.4829	0.1887
294.6954	0.1927
294.9079	0.1952
295.1204	0.1871
295.3328	0.2035
295.5453	0.1984
295.7577	0.1958
295.9701	0.1918
296.1825	0.1916
296.3949	0.1848
296.6073	0.1927
296.8197	0.1928
297.0321	0.1985
297.2444	0.1862
297.4567	0.1913
297.6691	0.1888
297.8814	0.1945
298.0937	0.1908
298.306	0.1903
298.5182	0.1972
298.7305	0.1966
298.9428	0.1924
299.155	0.1894
299.3672	0.1931
299.5794	0.1979
299.7916	0.1965
300.0038	0.1973
300.216	0.1905
300.4282	0.1955
300.6403	0.1962
300.8525	0.1893
301.0646	0.1968
301.2767	0.1904
301.4888	0.1921
301.7009	0.1931
301.913	0.1971
302.125	0.1906
302.3371	0.1947
302.5491	0.1905
302.7612	0.1968
302.9732	0.1976
303.1852	0.1917
303.3972	0.1951
303.6092	0.1932
303.8211	0.1899
304.0331	0.1929
304.245	0.1889
304.457	0.1907
304.6689	0.1865
304.8808	0.1859
305.0927	0.189
305.3046	0.1864
305.5164	0.1832
305.7283	0.1843
305.9401	0.1728
306.152	0.1801
306.3638	0.1801
306.5756	0.1795
306.7874	0.1759
306.9992	0.1722
307.2109	0.1676
307.4227	0.1681
307.6344	0.177
307.8462	0.17
308.0579	0.1744
308.2696	0.1732
308.4813	0.1689
308.693	0.163
308.9046	0.1672
309.1163	0.1621
309.328	0.1536
309.5396	0.1516
309.7512	0.156
309.9628	0.1556
310.1744	0.1514
310.386	0.1443
310.5976	0.1428
310.8091	0.1461
311.0207	0.1442
311.2322	0.1469
311.4437	0.1436
311.6552	0.1424
311.8667	0.1444
312.0782	0.1413
312.2897	0.1384
312.5012	0.1419
312.7126	0.1353
312.924	0.1324
313.1355	0.1356
313.3469	0.1321
313.5583	0.1292
313.7696	0.1291
313.981	0.1296
314.1924	0.1281
314.4037	0.1233
314.6151	0.1271
314.8264	0.1299
315.0377	0.1296
315.249	0.124
315.4603	0.122
315.6716	0.1217
315.8828	0.1226
316.0941	0.1272
316.3053	0.1217
316.5165	0.1221
316.7277	0.1143
316.9389	0.1224
317.1501	0.1263
317.3613	0.121
317.5724	0.1234
317.7836	0.1134
317.9947	0.1199
318.2058	0.1189
318.417	0.1195
318.6281	0.1166
318.8391	0.1204
319.0502	0.1237
319.2613	0.1182
319.4723	0.117
319.6834	0.1198
319.8944	0.1193
320.1054	0.1224
320.3164	0.1134
320.5274	0.1215
320.7383	0.1217
320.9493	0.1172
321.1602	0.1145
321.3712	0.1183
321.5821	0.1126
321.793	0.1272
322.0039	0.1223
322.2148	0.1217
322.4257	0.1185
322.6365	0.1171
322.8474	0.1207
323.0582	0.1248
323.269	0.1233
323.4798	0.1226
323.6906	0.1196
323.9014	0.1154
324.1122	0.1145
324.3229	0.1202
324.5337	0.1164
324.7444	0.1194
324.9551	0.1217
325.1658	0.1196
325.3765	0.1229
325.5872	0.1206
325.7979	0.1202
326.0085	0.1126
326.2192	0.1238
326.4298	0.1274
326.6404	0.1285
326.851	0.1246
327.0616	0.1251
327.2722	0.1241
327.4828	0.1239
327.6933	0.135
327.9039	0.1224
328.1144	0.1268
328.3249	0.126
328.5354	0.129
328.7459	0.1215
328.9564	0.1223
329.1669	0.1307
329.3773	0.1207
329.5878	0.1195
329.7982	0.1232
330.0086	0.1224
330.219	0.1235
330.4294	0.1347
330.6398	0.1237
330.8502	0.1277
331.0605	0.1245
331.2708	0.1162
331.4812	0.1239
331.6915	0.1293
331.9018	0.1258
332.1121	0.1293
332.3224	0.1276
332.5326	0.1274
332.7429	0.1267
332.9531	0.1298
333.1633	0.121
333.3735	0.1243
333.5837	0.1312
333.7939	0.1295
334.0041	0.132
334.2143	0.1258
334.4244	0.1299
334.6346	0.1314
334.8447	0.1361
335.0548	0.1351
335.2649	0.1323
335.475	0.1299
335.685	0.1347
335.8951	0.1297
336.1051	0.1374
336.3152	0.1421
336.5252	0.1319
336.7352	0.1319
336.9452	0.1317
337.1552	0.1322
337.3652	0.129
337.5751	0.1353
337.7851	0.1361
337.995	0.1383
338.2049	0.1327
338.4148	0.1311
338.6247	0.1376
338.8346	0.1338
339.0445	0.1374
339.2543	0.1396
339.4642	0.1344
339.674	0.1376
339.8838	0.1382
340.0936	0.1387
340.3034	0.1346
340.5132	0.1363
340.7229	0.1412
340.9327	0.1507
341.1424	0.1397
341.3522	0.1359
341.5619	0.1419
341.7716	0.1373
341.9813	0.1389
342.1909	0.1472
342.4006	0.1446
342.6102	0.1426
342.8199	0.1513
343.0295	0.1397
343.2391	0.1449
343.4487	0.1453
343.6583	0.1529
343.8679	0.1478
344.0774	0.1469
344.287	0.1506
344.4965	0.1489
344.706	0.1545
344.9155	0.1435
345.125	0.1451
345.3345	0.1587
345.544	0.1522
345.7534	0.1529
345.9629	0.1553
346.1723	0.1575
346.3817	0.15
346.5911	0.155
346.8005	0.1578
347.0099	0.1565
347.2193	0.164
347.4286	0.1626
347.638	0.1562
347.8473	0.1686
348.0566	0.1646
348.2659	0.1524
348.4752	0.168
348.6845	0.1569
348.8937	0.1627
349.103	0.1633
349.3122	0.1656
349.5214	0.1715
349.7306	0.1745
349.9398	0.1661
350.149	0.1627
350.3582	0.1686
350.5674	0.1669
350.7765	0.1703
350.9856	0.1648
351.1948	0.1731
351.4039	0.1701
351.613	0.176
351.822	0.1735
352.0311	0.1725
352.2402	0.1803
352.4492	0.1756
352.6582	0.1679
352.8672	0.1732
353.0762	0.1667
353.2852	0.1764
353.4942	0.18
353.7032	0.1799
353.9121	0.1789
354.1211	0.1901
354.33	0.1844
354.5389	0.1754
354.7478	0.182
354.9567	0.1851
355.1655	0.1829
355.3744	0.1811
355.5833	0.1889
355.7921	0.1856
356.0009	0.1865
356.2097	0.1844
356.4185	0.1848
356.6273	0.1859
356.8361	0.1843
357.0448	0.1877
357.2536	0.1959
357.4623	0.1914
357.671	0.1951
357.8797	0.1927
358.0884	0.1878
358.2971	0.1911
358.5057	0.1934
358.7144	0.1966
358.923	0.1981
359.1316	0.2009
359.3402	0.1896
359.5488	0.1899
359.7574	0.2024
359.966	0.1999
360.1746	0.2021
360.3831	0.2056
360.5916	0.2065
360.8002	0.2102
361.0087	0.2005
361.2172	0.2187
361.4256	0.2075
361.6341	0.2136
361.8426	0.2066
362.051	0.2074
362.2594	0.2069
362.4678	0.2142
362.6762	0.2251
362.8846	0.2118
363.093	0.2194
363.3014	0.2269
363.5097	0.2214
363.718	0.2238
363.9264	0.2151
364.1347	0.2288
364.343	0.2245
364.5513	0.2277
364.7595	0.2345
364.9678	0.2252
365.176	0.232
365.3842	0.2319
365.5925	0.2295
365.8007	0.229
366.0089	0.2338
366.217	0.2357
366.4252	0.2371
366.6333	0.2402
366.8415	0.2394
367.0496	0.2366
367.2577	0.2467
367.4658	0.2358
367.6739	0.2377
367.882	0.2513
368.09	0.2402
368.2981	0.2416
368.5061	0.2448
368.7141	0.243
368.9221	0.2658
369.1301	0.2514
369.3381	0.2567
369.5461	0.2453
369.754	0.2474
369.962	0.2551
370.1699	0.2665
370.3778	0.2647
370.5857	0.2511
370.7936	0.2609
371.0015	0.2501
371.2093	0.2557
371.4172	0.2614
371.625	0.2633
371.8328	0.2509
372.0406	0.2692
372.2484	0.2588
372.4562	0.2621
372.664	0.2701
372.8717	0.2687
373.0795	0.2695
373.2872	0.275
373.4949	0.2705
373.7026	0.265
373.9103	0.2624
374.118	0.2721
374.3256	0.2763
374.5333	0.2697
374.7409	0.2754
374.9485	0.2767
375.1561	0.2785
375.3637	0.2694
375.5713	0.2793
375.7789	0.2854
375.9864	0.2798
376.194	0.2881
376.4015	0.2808
376.609	0.2836
376.8165	0.2901
377.024	0.2841
377.2315	0.2881
377.4389	0.2821
377.6464	0.2867
377.8538	0.286
378.0612	0.2871
378.2686	0.2815
378.476	0.2916
378.6834	0.2953
378.8908	0.298
379.0981	0.296
379.3055	0.2932
379.5128	0.2965
379.7201	0.2948
379.9274	0.2948
380.1347	0.296
380.342	0.2903
380.5492	0.2994
380.7565	0.2911
380.9637	0.3
381.1709	0.2962
381.3781	0.2913
381.5853	0.2904
381.7925	0.301
381.9997	0.3059
382.2068	0.3086
382.4139	0.298
382.6211	0.3054
382.8282	0.3117
383.0353	0.3136
383.2424	0.3085
383.4494	0.3056
383.6565	0.301
383.8635	0.3003
384.0706	0.3145
384.2776	0.315
384.4846	0.3092
384.6916	0.3068
384.8986	0.3154
385.1055	0.3132
385.3125	0.3207
385.5194	0.3208
385.7263	0.3106
385.9333	0.3092
386.1402	0.3218
386.347	0.3116
386.5539	0.3166
386.7608	0.2995
386.9676	0.3138
387.1744	0.3106
387.3813	0.3135
387.5881	0.3137
387.7948	0.3122
388.0016	0.311
388.2084	0.3116
388.4151	0.3114
388.6219	0.3133
388.8286	0.3107
389.0353	0.3218
389.242	0.3132
389.4487	0.3125
389.6553	0.2925
389.862	0.2906
390.0686	0.3039
390.2753	0.3073
390.4819	0.3139
390.6885	0.3016
390.8951	0.3058
391.1016	0.297
391.3082	0.2964
391.5147	0.2901
391.7213	0.302
391.9278	0.2936
392.1343	0.3016
392.3408	0.3006
392.5473	0.2997
392.7537	0.2925
392.9602	0.2923
393.1666	0.287
393.373	0.289
393.5794	0.2861
393.7858	0.2867
393.9922	0.2787
394.1986	0.2742
394.4049	0.2889
394.6113	0.2822
394.8176	0.2832
395.0239	0.2792
395.2302	0.281
395.4365	0.2868
395.6428	0.2894
395.8491	0.2699
396.0553	0.2735
396.2615	0.2868
396.4678	0.2863
396.674	0.2736
396.8802	0.2687
397.0863	0.2716
397.2925	0.2711
397.4987	0.2681
397.7048	0.2777
397.9109	0.2653
398.117	0.2637
398.3231	0.2688
398.5292	0.262
398.7353	0.262
398.9413	0.2594
399.1474	0.2693
399.3534	0.269
399.5594	0.2739
399.7654	0.2665
399.9714	0.2635
400.1774	0.2588
400.3833	0.2647
400.5893	0.2616
400.7952	0.2744
401.0011	0.2647
401.207	0.2765
401.4129	0.2698
401.6188	0.2594
401.8247	0.2781
402.0305	0.2623
402.2364	0.2749
402.4422	0.2637
402.648	0.2676
402.8538	0.2643
403.0596	0.2652
403.2654	0.2708
403.4711	0.2582
403.6768	0.2679
403.8826	0.2731
404.0883	0.2717
404.294	0.2665
404.4997	0.2632
404.7054	0.2691
404.911	0.2598
405.1167	0.2586
405.3223	0.2637
405.5279	0.2601
405.7335	0.2702
405.9391	0.2557
406.1447	0.2757
406.3502	0.2625
406.5558	0.2661
406.7613	0.2604
406.9668	0.265
407.1724	0.2591
407.3778	0.2654
407.5833	0.2584
407.7888	0.2637
407.9942	0.2666
408.1997	0.2629
408.4051	0.2603
408.6105	0.2631
408.8159	0.2603
409.0213	0.2701
409.2267	0.2694
409.432	0.2656
409.6374	0.2644
409.8427	0.2688
410.048	0.2638
410.2533	0.2636
410.4586	0.2514
410.6639	0.2714
410.8691	0.2581
411.0744	0.2632
411.2796	0.261
411.4848	0.2638
411.69	0.2634
411.8952	0.2621
412.1004	0.2663
412.3056	0.2551
412.5107	0.265
412.7158	0.274
412.921	0.2544
413.1261	0.2588
413.3312	0.2584
413.5362	0.2705
413.7413	0.2577
413.9464	0.2568
414.1514	0.2573
414.3564	0.2576
414.5614	0.2614
414.7664	0.2562
414.9714	0.2502
415.1764	0.2625
415.3813	0.2609
415.5863	0.2638
415.7912	0.2536
415.9961	0.2608
416.201	0.2658
416.4059	0.2646
416.6108	0.2499
416.8156	0.2554
417.0205	0.2539
417.2253	0.2559
417.4301	0.2664
417.6349	0.2465
417.8397	0.2588
418.0445	0.2474
418.2492	0.2455
418.454	0.2425
418.6587	0.2577
418.8634	0.2566
419.0681	0.259
419.2728	0.2487
419.4775	0.2608
419.6822	0.2478
419.8868	0.2534
420.0915	0.2467
420.2961	0.2311
420.5007	0.2524
420.7053	0.2426
420.9099	0.2552
421.1144	0.2458
421.319	0.2418
421.5235	0.2293
421.728	0.2524
421.9325	0.2444
422.137	0.2393
422.3415	0.2356
422.546	0.2319
422.7504	0.2385
422.9549	0.2431
423.1593	0.2332
423.3637	0.2315
423.5681	0.2457
423.7725	0.2427
423.9769	0.2447
424.1812	0.2316
424.3856	0.2271
424.5899	0.2255
424.7942	0.2262
424.9985	0.2307
425.2028	0.2284
425.4071	0.231
425.6113	0.2302
425.8156	0.226
426.0198	0.2263
426.224	0.2174
426.4282	0.216
426.6324	0.2143
426.8366	0.2164
427.0407	0.2083
427.2449	0.2137
427.449	0.2158
427.6531	0.2245
427.8572	0.2198
428.0613	0.209
428.2654	0.2141
428.4694	0.2011
428.6735	0.2057
428.8775	0.2088
429.0815	0.206
429.2855	0.2017
429.4895	0.2028
429.6935	0.204
429.8975	0.1951
430.1014	0.2053
430.3053	0.207
430.5093	0.196
430.7132	0.1944
430.9171	0.1891
431.1209	0.197
431.3248	0.1815
431.5286	0.178
431.7325	0.1972
431.9363	0.1766
432.1401	0.1771
432.3439	0.1831
432.5477	0.1751
432.7514	0.1763
432.9552	0.1704
433.1589	0.1637
433.3627	0.175
433.5664	0.1707
433.7701	0.1727
433.9737	0.1771
434.1774	0.165
434.3811	0.1692
434.5847	0.1604
434.7883	0.1654
434.9919	0.1471
435.1955	0.1546
435.3991	0.1565
435.6027	0.1489
435.8062	0.1592
436.0098	0.1541
436.2133	0.1467
436.4168	0.1468
436.6203	0.1406
436.8238	0.1479
437.0272	0.1395
437.2307	0.1338
437.4341	0.142
437.6375	0.1407
437.841	0.1364
438.0443	0.1356
438.2477	0.1301
438.4511	0.129
438.6545	0.1243
438.8578	0.1237
439.0611	0.1279
439.2644	0.1366
439.4677	0.1213
439.671	0.1107
439.8743	0.1192
440.0775	0.1153
440.2808	0.1202
440.484	0.1106
440.6872	0.1146
440.8904	0.1018
441.0936	0.1029
441.2967	0.0901
441.4999	0.0956
441.703	0.1018
441.9062	0.1024
442.1093	0.1073
442.3124	0.0938
442.5155	0.0982
442.7185	0.0868
442.9216	0.0956
443.1246	0.0922
443.3276	0.0921
443.5307	0.0888
443.7337	0.0919
443.9366	0.0836
444.1396	0.0837
444.3426	0.0835
444.5455	0.0844
444.7484	0.0767
444.9513	0.0799
445.1542	0.0822
445.3571	0.0763
445.56	0.0658
445.7628	0.0742
445.9657	0.0706
446.1685	0.0785
446.3713	0.0758
446.5741	0.071
446.7769	0.0785
446.9797	0.0672
447.1824	0.0674
447.3852	0.0506
447.5879	0.0653
447.7906	0.0493
447.9933	0.061
448.196	0.0601
448.3986	0.0609
448.6013	0.049
448.8039	0.0602
449.0066	0.0596
449.2092	0.0627
449.4118	0.0499
449.6143	0.0612
449.8169	0.0483
450.0195	0.0514
450.222	0.0547
450.4245	0.0503
450.627	0.0484
450.8295	0.0468
451.032	0.043
451.2345	0.0451
451.4369	0.0484
451.6394	0.0397
451.8418	0.0358
452.0442	0.0417
452.2466	0.0288
452.449	0.0475
452.6513	0.0313
452.8537	0.0298
453.056	0.0336
453.2583	0.044
453.4607	0.0302
453.663	0.0307
453.8652	0.0345
454.0675	0.036
454.2697	0.0306
454.472	0.0312
454.6742	0.0315
454.8764	0.0324
455.0786	0.027
455.2808	0.0268
455.4829	0.0242
455.6851	0.0281
455.8872	0.0148
456.0893	0.0294
456.2915	0.0236
456.4935	0.0324
456.6956	0.018
456.8977	0.0279
457.0997	0.0277
457.3018	0.0286
457.5038	0.0332
457.7058	0.0242
457.9078	0.0333
458.1098	0.017
458.3117	0.0216
458.5137	0.0144
458.7156	0.0194
458.9175	0.0243
459.1194	0.0249
459.3213	0.0201
459.5232	0.0215
459.725	0.0232
459.9269	0.0202
460.1287	0.0126
460.3305	0.0175
460.5323	0.0115
460.7341	0.0214
460.9359	0.0079
461.1376	0.0168
461.3394	0.022
461.5411	0.0364
461.7428	0.0128
461.9445	0.0182
462.1462	0.0109
462.3479	0.0154
462.5495	0.0164
462.7512	0.027
462.9528	0.0073
463.1544	0.0124
463.356	0.0075
463.5576	0.0159
463.7592	0.0184
463.9607	0.015
464.1623	0.0138
464.3638	0.0054
464.5653	0.0184
464.7668	0.0172
464.9683	0.0117
465.1697	0.0132
465.3712	0.0097
465.5726	0.0137
465.7741	0.0207
465.9755	0.0091
466.1769	0.014
466.3782	0.0102
466.5796	0.0116
466.7809	0.0174
466.9823	0.0148
467.1836	0.0085
467.3849	0.0062
467.5862	0.003
467.7875	0.0118
467.9887	0.0125
468.19	0.0142
468.3912	0.0146
468.5924	0.0008
468.7936	0.0036
468.9948	0.0035
469.196	0.0127
469.3972	-0.0009
469.5983	0.0033
469.7994	0.003
470.0006	0.0031
470.2017	0.0014
470.4027	0.0251
470.6038	0.0114
470.8049	0.0087
471.0059	0.0164
471.2069	0.0072
471.408	0.0099
471.6089	0.0049
471.8099	0.0044
472.0109	0.018
472.2119	0.0222
472.4128	0.0061
472.6137	0.0152
472.8146	0.0044
473.0155	0.0114
473.2164	0.016
473.4173	-0.0061
473.6181	0.0047
473.819	0.0068
474.0198	-0.0024
474.2206	0.0001
474.4214	0.0076
474.6222	-0.0057
474.8229	-0.0021
475.0237	0.0089
475.2244	0.0086
475.4251	0.0014
475.6258	0.0011
475.8265	0.0132
476.0272	-0.0045
476.2278	0.0028
476.4285	0.0108
476.6291	0.0112
476.8297	0.0094
477.0303	0.0009
477.2309	0.006
477.4315	0.0128
477.632	0.0005
477.8326	0.0028
478.0331	0.0078
478.2336	0.0052
478.4341	0.0115
478.6346	-0.0026
478.8351	0.0089
479.0355	0.015
479.236	0.0134
479.4364	0.0072
479.6368	0.0044
479.8372	0.0056
480.0376	0.0056
480.2379	0.001
480.4383	0.008
480.6386	-0.0038
480.8389	0.0064
481.0392	0.0093
481.2395	0.0138
481.4398	0.0103
481.6401	0.0011
481.8403	-0.0014
482.0405	0.0105
482.2408	0.0048
482.441	0.0069
482.6411	0.0084
482.8413	0.0025
483.0415	0.0164
483.2416	0.0055
483.4417	-0.0023
483.6419	0.0033
483.8419	0.0041
484.042	0.002
484.2421	-0.0004
484.4422	0.002
484.6422	0.0062
484.8422	0.0014
485.0422	0.0038
485.2422	0.0017
485.4422	0.0014
485.6422	0.0033
485.8421	0.0043
486.042	0.0058
486.242	0.0047
486.4419	0.0104
486.6417	0.0006
486.8416	0.0035
487.0415	0.001
487.2413	0.0011
487.4411	0.005
487.641	-0.0002
487.8408	0.0045
488.0405	0.0096
488.2403	-0.0041
488.4401	0.002
488.6398	0.0113
488.8395	0.0049
489.0392	0.0108
489.2389	0.0139
489.4386	-0.0016
489.6383	0.0061
489.8379	0.0051
490.0376	0.0059
490.2372	-0.0032
490.4368	0.0004
490.6364	-0.0024
490.836	0.001
491.0355	-0.0037
491.2351	0.0043
491.4346	0.0064
491.6341	0.0014
491.8336	0.0031
492.0331	0.003
492.2326	0.0073
492.432	0.0019
492.6315	0.006
492.8309	0.0057
493.0303	0.0115
493.2297	0.006
493.4291	-0.0032
493.6284	0.0061
493.8278	-0.0036
494.0271	0.0101
494.2264	0.0005
494.4257	0.0099
494.625	-0.001
494.8243	-0.0026
495.0236	0.0062
495.2228	0.0049
495.422	0.005
495.6213	0.0045
495.8205	0.01
496.0196	0.0005
496.2188	0.0027
496.418	-0.0021
496.6171	-0.0006
496.8162	0.0075
497.0153	0.0065
497.2144	0.0049
497.4135	-0.0006
497.6126	0.0087
497.8116	-0.0047
498.0107	-0.0008
498.2097	0.0086
498.4087	0.0092
498.6077	-0.011
498.8067	0.0058
499.0056	0.0023
499.2046	0.0129
499.4035	-0.0013
499.6024	0.0038
499.8013	0.0092
500.0002	0.0037
500.199	0.0074
500.3979	0.0037
500.5967	-0.0027
500.7956	0.0081
500.9944	0.0023
501.1932	0.0099
501.3919	0.0081
501.5907	0.0125
501.7895	0.0027
501.9882	0.0018
502.1869	0.0091
502.3856	-0.0007
502.5843	0.0069
502.783	0.0033
502.9816	0.0089
503.1803	0.0064
503.3789	0.0085
503.5775	-0.0001
503.7761	0.0009
503.9747	0.0111
504.1732	0
504.3718	0.0153
504.5703	0.0033
504.7689	0.0037
504.9674	-0.0041
505.1658	0.0054
505.3643	0.003
505.5628	0.0077
505.7612	0.0105
505.9597	-0.006
506.1581	-0.0018
506.3565	0.0012
506.5549	0.0022
506.7532	-0.0032
506.9516	0.0112
507.1499	-0.0007
507.3482	0.0054
507.5465	0.0043
507.7448	0.0032
507.9431	0.006
508.1414	0.0045
508.3396	0.0064
508.5379	-0.003
508.7361	0.0024
508.9343	0.0038
509.1325	0.0078
509.3306	0.0052
509.5288	-0.0075
509.7269	-0.0016
509.9251	0.0063
510.1232	0.0011
510.3213	0.0081
510.5193	-0.0006
510.7174	0.0015
510.9154	0.0078
511.1135	-0.0039
511.3115	-0.0055
511.5095	-0.0001
511.7075	0.0084
511.9055	0.0085
512.1034	0.0045
512.3014	-0.0016
512.4993	0.0049
512.6972	0.0022
512.8951	0.0048
513.093	-0.0003
513.2908	0.0057
513.4887	0.0054
513.6865	0.0095
513.8844	0.0101
514.0822	0.0039
514.2799	-0.0023
514.4777	-0.0001
514.6755	-0.0059
514.8732	0.0058
515.0709	0.0004
515.2687	-0.0015
515.4664	0.0075
515.664	0.007
515.8617	0.0068
516.0594	0.0123
516.257	0.0058
516.4546	0.0194
516.6522	0.0118
516.8498	0.0045
517.0474	0.0041
517.2449	0.0019
517.4425	0.0122
517.64	0.009
517.8375	0.0061
518.035	-0.0009
518.2325	0.0002
518.43	0.0033
518.6274	-0.0053
518.8249	-0.0029
519.0223	0.0013
519.2197	0.0096
519.4171	-0.0063
519.6145	0.0058
519.8118	-0.0024
520.0092	-0.0061
520.2065	0.0046
520.4038	0.0032
520.6011	0.0108
520.7984	0.0003
520.9956	0.0088
521.1929	0.0134
521.3901	0.0094
521.5874	0.0087
521.7846	0.0036
521.9818	0.007
522.1789	0.0023
522.3761	0.0135
522.5732	0.0008
522.7704	-0.0028
522.9675	-0.0092
523.1646	-0.0074
523.3617	0.0098
523.5587	0.0021
523.7558	0.0023
523.9528	0.0118
524.1498	0.0003
524.3468	-0.0118
524.5438	0.0059
524.7408	0.005
524.9378	0.0015
525.1347	0.0053
525.3316	-0.0054
525.5285	0.0078
525.7254	0.0018
525.9223	0.0114
526.1192	0.0093
526.316	0.0216
526.5129	0.0077
526.7097	-0.0019
526.9065	0.0136
527.1033	0.0032
527.3	-0.0026
527.4968	0.0143
527.6935	-0.0062
527.8903	-0.0004
528.087	0.005
528.2837	0.0203
528.4804	0.0041
528.677	0.0089
528.8737	0.0077
529.0703	0.0017
529.2669	0.0071
529.4635	-0.0002
529.6601	-0.0044
529.8567	-0.0024
530.0532	0.0154
530.2498	0.0005
530.4463	-0.0078
530.6428	0.0062
530.8393	0.003
531.0358	0.0067
531.2322	-0.0003
531.4287	-0.0017
531.6251	-0.0089
531.8215	0.0099
532.0179	0.0077
532.2143	0.0003
532.4107	0.006
532.607	-0.006
532.8034	0.001
532.9997	0.0033
533.196	-0.0058
533.3923	0.0109
533.5886	0.0063
533.7848	0.0015
533.9811	0.0048
534.1773	0.0057
534.3735	-0.0007
534.5697	0.0034
534.7659	0.0016
534.9621	-0.0006
535.1582	0.0093
535.3544	0.0041
535.5505	0.0024
535.7466	0.0028
535.9427	-0.0026
536.1387	-0.0031
536.3348	0.0155
536.5308	0.0064
536.7269	0.0011
536.9229	0.013
537.1189	0.0096
537.3148	0.01
537.5108	0.0091
537.7068	0.0035
537.9027	-0.005
538.0986	0.0117
538.2945	-0.0039
538.4904	-0.0091
538.6863	0.0046
538.8821	0.0142
539.078	0.0054
539.2738	0.0083
539.4696	-0.0042
539.6654	0.0073
539.8611	-0.0035
540.0569	-0.0011
540.2526	0.0086
540.4484	-0.0016
540.6441	0.0011
540.8398	0.0102
541.0355	-0.004
541.2311	-0.0004
541.4268	0.0061
541.6224	0.0182
541.818	0.0023
542.0136	0.0058
542.2092	0.0076
542.4048	0.008
542.6003	-0.0043
542.7959	0.0042
542.9914	-0.0023
543.1869	0.0037
543.3824	0.0071
543.5779	0.016
543.7734	0.013
543.9688	0.009
544.1642	0.0065
544.3596	0.0099
544.555	-0.0008
544.7504	0.0132
544.9458	0.0029
545.1411	-0.0039
545.3365	0.0019
545.5318	0.0033
545.7271	0.0069
545.9224	-0.0008
546.1177	-0.0027
546.3129	0.0006
546.5081	0.0036
546.7034	0.0055
546.8986	-0.0035
547.0938	0.0058
547.289	0.0068
547.4841	0.0047
547.6793	0.0093
547.8744	0.007
548.0695	-0.0059
548.2646	0.0046
548.4597	-0.0015
548.6548	0.0191
548.8498	0.0017
549.0448	0.0101
549.2399	0.0164
549.4349	0.0029
549.6298	0.0078
549.8248	-0.0061
550.0198	-0.0009
550.2147	0.0057
550.4096	-0.001
550.6045	0.0035
550.7994	0.0126
550.9943	0.0073
551.1892	-0.0103
551.384	0.005
551.5788	0.0082
551.7737	0.0031
551.9685	0.003
552.1632	-0.0017
552.358	0.0086
552.5528	0.0029
552.7475	0.0058
552.9422	-0.0062
553.1369	0.0062
553.3316	0.0009
553.5263	0.0148
553.7209	0.0086
553.9156	0.0095
554.1102	-0.0007
554.3048	0.0041
554.4994	0.0036
554.694	0.0032
554.8885	0.0035
555.0831	0.0148
555.2776	0.0019
555.4721	0.0059
555.6666	0.0099
555.8611	0.0051
556.0555	0.0063
556.25	0.0057
556.4444	-0.0017
556.6388	-0.0025
556.8332	0.0074
557.0276	0.005
557.222	-0.0097
557.4163	0.006
557.6107	-0.005
557.805	-0.0074
557.9993	0.009
558.1936	0.002
558.3879	0.0135
558.5821	0.0088
558.7764	-0.0087
558.9706	0.007
559.1648	0.0094
559.359	-0.0029
559.5532	-0.0002
559.7473	-0.0005
559.9415	0.0053
560.1356	0.0126
560.3297	0.0005
560.5238	0.0129
560.7179	0.0009
560.9119	0.0028
561.106	-0.0034
561.3	0.0102
561.494	-0.0142
561.688	-0.0056
561.882	-0.0016
562.076	-0.0005
562.2699	0.0079
562.4639	0.0098
562.6578	0.0062
562.8517	0.0036
563.0456	0.0091
563.2395	0.0033
563.4333	0.0068
563.6272	-0.0029
563.821	0.0041
564.0148	-0.0051
564.2086	0.0011
564.4024	-0.0001
564.5961	0.0065
564.7899	0.0128
564.9836	0.0014
565.1773	0.0052
565.371	0.0058
565.5647	0.002
565.7584	0.0107
565.952	0.0015
566.1456	0.002
566.3393	0.0016
566.5329	-0.0019
566.7264	0.004
566.92	0.0034
567.1136	-0.0044
567.3071	-0.0023
567.5006	0.0038
567.6941	0.0024
567.8876	0.0052
568.0811	0.0183
568.2745	-0.0043
568.468	0.0053
568.6614	0.0087
568.8548	0.0068
569.0482	0.009
569.2416	0.0034
569.4349	0.0025
569.6283	-0.0018
569.8216	0.0076
570.0149	0.0045
570.2082	0.0116
570.4015	0.0029
570.5947	0.004
570.788	0.0073
570.9812	-0.0016
571.1744	0.0025
571.3676	0.0027
571.5608	0.0042
571.754	0.0102
571.9471	0.0019
572.1402	0.006
572.3333	0.0026
572.5264	0.0068
572.7195	0.0022
572.9126	-0.0001
573.1057	0.0006
573.2987	0.0008
573.4917	0.0033
573.6847	0.0025
573.8777	0.0021
574.0707	0.0039
574.2636	0.0006
574.4566	0.0012
574.6495	0.0011
574.8424	0.0059
575.0353	0.0037
575.2281	0.0043
575.421	0.0046
575.6138	-0.0024
575.8067	0.0058
575.9995	0.0038
576.1923	0.0049
576.385	0.0031
576.5778	0.0047
576.7706	0.0042
576.9633	0.0066
577.156	-0.0022
577.3487	0.0032
577.5414	0.0025
577.734	-0.001
577.9267	0.0043
578.1193	0.0042
578.3119	-0.0014
578.5045	0.0012
578.6971	0.0011
578.8897	-0.0015
579.0822	0.0088
579.2747	0.0024
579.4673	0.0035
579.6598	0.0067
579.8522	0.0007
580.0447	0.0049
580.2372	0.0068
580.4296	0.0031
580.622	0.0011
580.8144	0.0021
581.0068	0.0013
581.1992	0.0016
581.3915	0
581.5839	0.0021
581.7762	0.0023
581.9685	0.0031
582.1608	0.0009
582.353	0.0016
582.5453	0.0052
582.7375	0.0032
582.9298	-0.0004
583.122	0.0007
583.3142	0.0067
583.5063	0.0032
583.6985	-0.0028
583.8906	0.0001
584.0827	0.0057
584.2749	0.0068
584.4669	0.003
584.659	0.0083
584.8511	0.0035
585.0431	0.0029
585.2352	0.0022
585.4272	0.0041
585.6192	0.0029
585.8111	0.0043
586.0031	0.0012
586.195	0.0029
586.387	0.0019
586.5789	0.004
586.7708	0.0026
586.9627	-0.0013
587.1545	0.003
587.3464	0.0048
587.5382	0.0004
587.73	0.0068
587.9218	0.0003
588.1136	0.0014
588.3053	0.0024
588.4971	0.001
588.6888	0.0039
588.8805	-0.002
589.0722	0.0076
589.2639	0.0018
589.4556	0.0032
589.6472	0.0048
589.8389	0.005
590.0305	0.0014
590.2221	0.0029
590.4137	0.0035
590.6052	0.0043
590.7968	0.0002
590.9883	0.0002
591.1798	-0.002
591.3713	0.0036
591.5628	0.0016
591.7543	0.0001
591.9458	0.0001
592.1372	0.0025
592.3286	-0.0033
592.52	0.0048
592.7114	0.0023
592.9028	0.0056
593.0941	0.0038
593.2855	-0.001
593.4768	0.0054
593.6681	0.0087
593.8594	0.0066
594.0506	-0.0021
594.2419	0.0015
594.4331	0.0036
594.6244	-0.0009
594.8156	0.0034
595.0067	0.0026
595.1979	-0
595.3891	0.0004
595.5802	0.0135
595.7713	0.0057
595.9624	0.0139
596.1535	0.0042
596.3446	0.0021
596.5357	0.003
596.7267	0.005
596.9177	0.0043
597.1087	0.0021
597.2997	0.0026
597.4907	-0.0031
597.6817	0.0035
597.8726	0.0035
598.0635	-0
598.2544	0.0029
598.4453	0.0062
598.6362	0.0054
598.827	0.0008
599.0179	0.0058
599.2087	0.0044
599.3995	0.0027
599.5903	0.0067
599.7811	0.0113
599.9718	0.0018
600.1626	0.0014
600.3533	-0.0012
600.544	0.0056
600.7347	0.0085
600.9254	0.0075
601.116	0.0051
601.3067	0.0033
601.4973	0.0069
601.6879	0.0029
601.8785	0.0036
602.0691	-0.0025
602.2596	0.0011
602.4502	0.0029
602.6407	0.0004
602.8312	0.0066
603.0217	0.0055
603.2122	0.0051
603.4027	0.0075
603.5931	-0.0038
603.7835	0.0031
603.9739	0.0017
604.1643	0.0089
604.3547	0.0075
604.5451	0.0088
604.7354	-0.0026
604.9257	0.0036
605.116	-0.0026
605.3063	0.0031
605.4966	0.0036
605.6869	0.0037
605.8771	0.0003
606.0673	0.0068
606.2575	0.0039
606.4477	0.0068
606.6379	0.001
606.8281	0.0034
607.0182	-0.0027
607.2083	0.0007
607.3985	-0.0036
607.5885	0.0021
607.7786	0.0015
607.9687	0.006
608.1587	0.0018
608.3488	0.0104
608.5388	-0.0042
608.7288	-0.0065
608.9187	0.0042
609.1087	0.0048
609.2986	0.0111
609.4886	0.0029
609.6785	0.0059
609.8684	0.0012
610.0582	0.0001
610.2481	-0.0004
610.4379	0.0015
610.6278	0.0057
610.8176	0.0044
611.0074	0.0035
611.1971	0.0032
611.3869	0.0008
611.5766	-0.0057
611.7664	0.002
611.9561	0.0033
612.1458	0.0061
612.3354	0.0033
612.5251	0.0058
612.7147	0.006
612.9044	-0.0048
613.094	0.0042
613.2836	-0.0052
613.4731	-0.0001
613.6627	0.0104
613.8522	0.0067
614.0417	0.0029
614.2313	0.0009
614.4207	0.0055
614.6102	0.0082
614.7997	0.0067
614.9891	0.0006
615.1785	-0.0022
615.3679	0.0059
615.5573	0.0039
615.7467	-0.0013
615.9361	-0.0018
616.1254	0.0083
616.3147	0.005
616.504	0.0058
616.6933	0.0054
616.8826	0.0003
617.0718	0.0031
617.2611	-0.0033
617.4503	0.0031
617.6395	0.0032
617.8287	0.0056
618.0179	0.004
618.207	0.0135
618.3961	-0.0021
618.5853	0.0065
618.7744	0.0066
618.9634	0.0105
619.1525	0.0038
619.3416	-0.0015
619.5306	0.0062
619.7196	0.0075
619.9086	0.0018
620.0976	-0.0039
620.2866	0.0057
620.4755	0.0062
620.6645	0.0178
620.8534	0.0043
621.0423	0.0016
621.2312	0.0015
621.42	-0.0002
621.6089	-0.003
621.7977	0.0053
621.9865	-0.0002
622.1753	-0.0084
622.3641	-0.0101
622.5529	0.0025
622.7416	-0.005
622.9303	0
623.1191	0.0048
623.3078	0.0038
623.4964	0.007
623.6851	0.0122
623.8737	0.0051
624.0624	-0.0075
624.251	-0.0004
624.4396	0.0003
624.6282	0.0087
624.8167	0.0014
625.0053	0.009
625.1938	-0.0039
625.3823	0.0064
625.5708	-0.0043
625.7593	-0.0056
625.9477	0.0091
626.1362	-0.002
626.3246	0.0016
626.513	0.0024
626.7014	0.0057
626.8898	0.0143
627.0781	0.0079
627.2665	0.0151
627.4548	-0.0111
627.6431	0.0141
627.8314	-0.0002
628.0197	0.0116
628.2079	0.004
628.3962	0.0065
628.5844	0.0103
628.7726	0.0007
628.9608	0.0069
629.1489	0.0078
629.3371	-0.0082
629.5252	0.012
629.7134	-0.0087
629.9015	0.0026
630.0895	-0.0145
630.2776	0.0052
630.4657	0.0098
630.6537	0.0164
630.8417	-0.0115
631.0297	-0.0057
631.2177	0.001
631.4057	0.0026
631.5936	0.0036
631.7815	0.0166
631.9695	0.0167
632.1574	0.0091
632.3452	0.0033
632.5331	0.0039
632.7209	0.0243
632.9088	0.0025
633.0966	0.0215
633.2844	0.0011
633.4722	0.0185
633.6599	0.0269
633.8477	0.007
634.0354	0.015
634.2231	-0.0088
634.4108	-0.0045
634.5985	0.0161
634.7861	0.0075
634.9738	-0.0095
635.1614	-0.0011
635.349	-0.0096
635.5366	0.0002
635.7242	-0.0081
635.9117	0.0014
636.0993	0.018
636.2868	-0.0046
636.4743	0.0009
636.6618	-0.0038
636.8492	0.0172
637.0367	-0.0046
637.2241	-0.0026
637.4115	0.0375
637.5989	0.0098
637.7863	0.022
637.9737	-0.0042
638.161	0.0049
638.3484	-0.0117
638.5357	-0.0019
638.723	0.0054
638.9103	-0.0075
639.0975	-0.0074
639.2848	0.0087
639.472	0.0067
639.6592	-0.0066
639.8464	0.0129
640.0336	0.0023
640.2208	-0.0067
640.4079	-0.006
640.595	-0.0044
640.7821	0.0158
640.9692	0.0057
641.1563	-0.0119
641.3434	0.0188
641.5304	0.0082
641.7174	0.015
641.9044	-0.0096
642.0914	0.0149
642.2784	-0.0135
642.4653	-0.0127
642.6523	0.0007
642.8392	-0.0139
643.0261	0.0044
643.213	0.0001
643.3999	0.0102
643.5867	0.0137
643.7735	-0.0026
643.9604	0.0113
644.1472	0.0062
644.3339	0.0174
644.5207	-0.0064
644.7075	0.0078
644.8942	0.0024
645.0809	-0.0056
645.2676	-0.0172
645.4543	0.0052
645.6409	0.0125
645.8276	-0.0043
646.0142	0.0168
646.2008	-0.0035
646.3874	-0.0184
646.574	-0.0062
646.7605	0.004
646.9471	-0.0065
647.1336	-0.0081
647.3201	-0.0002
647.5066	0.0054
647.6931	-0.0032
647.8795	0.0116
648.0659	0.0013
648.2524	0.0153
648.4388	-0.0072
648.6252	0.0078
648.8115	0.0073
648.9979	0.0162
649.1842	-0.0065
649.3705	0.0191
649.5568	-0.0082
649.7431	-0.0023
649.9294	-0.009
650.1156	-0.0148
650.3018	0.0001
650.488	0.0162
650.6742	0.0318
650.8604	0.0231
651.0466	-0.0072
651.2327	0.0045
651.4188	-0.0169
651.6049	0.0112
651.791	-0.005
651.9771	0.0122
652.1632	0.0091
652.3492	0.003
652.5352	-0.0015
652.7212	0
652.9072	-0.0016
653.0932	0.0125
653.2791	-0.0034
653.465	-0.0006
653.651	-0.0055
653.8369	0.0146
654.0227	-0.0059
654.2086	0.0088
654.3944	-0.0012
654.5803	0.0107
654.7661	0.0065
654.9519	0.0016
655.1377	0
655.3234	0
655.5092	0
655.6949	0
655.8806	0
656.0663	0
656.2519	0
656.4376	0
656.6232	0
656.8088	0
656.9945	0
657.18	0
657.3656	0
657.5511	0
657.7367	0
657.9222	0
658.1077	0
658.2932	0
658.4786	0
658.6641	0
658.8495	0
659.0349	0
659.2203	0
659.4057	0
659.591	0.0951
659.7764	0.0305
659.9617	0.0115
660.147	-0.0056
660.3323	-0.0033
660.5176	-0.0056
660.7028	0.0071
660.888	0.0055
661.0733	0.01
661.2585	-0.0017
661.4436	-0.0119
661.6288	0.0034
661.8139	-0.0007
661.9991	-0.0168
662.1842	-0.015
662.3693	-0.0034
662.5544	0.0085
662.7394	0.0056
662.9245	0.0006
663.1095	-0.0067
663.2945	-0.0005
663.4795	-0.0115
663.6644	-0.007
663.8494	0.0037
664.0343	0.0075
664.2193	-0.0124
664.4042	0.0014
664.589	0.0105
664.7739	0.007
664.9587	-0.02
665.1436	-0.0021
665.3284	-0.0084
665.5132	-0.0042
665.698	0.0147
665.8827	0.0114
666.0675	-0.009
666.2522	0.0057
666.4369	-0.0086
666.6216	0.0107
666.8063	0.0079
666.9909	0.0035
667.1756	0.0128
667.3602	0.0044
667.5448	-0.0073
667.7294	0.0357
667.9139	-0.0156
668.0985	0.0131
668.283	-0.0442
668.4675	-0.0048
668.652	0.0102
668.8365	-0.0162
669.0209	0.0192
669.2054	0.0029
669.3898	0.0077
669.5742	0.0112
669.7586	0.0092
669.943	-0.0011
670.1273	0.0074
670.3117	0.0041
670.496	-0.0148
670.6803	0.0084
670.8646	0.0042
671.0488	0.0165
671.2331	-0.0062
671.4173	0.0103
671.6015	0.0002
671.7857	0.0052
671.9699	0.0088
672.1541	0.0071
672.3382	0.0011
672.5223	0.0025
672.7064	-0.0097
672.8905	0.0018
673.0746	0.0023
673.2587	0.011
673.4427	0.0243
673.6267	0.0101
673.8107	0.0144
673.9947	0.0064
674.1787	0.0105
674.3626	0.0256
674.5465	0.0074
674.7304	-0.0168
674.9143	-0.0157
675.0982	0.0001
675.2821	0.0115
675.4659	-0.0118
675.6497	0.0089
675.8335	-0.0065
676.0173	-0.0147
676.2011	0.0165
676.3849	-0.0002
676.5686	0.0027
676.7523	-0.0135
676.936	-0.0026
677.1197	-0.0027
677.3034	0.0242
677.487	0.0026
677.6706	0.0036
677.8542	0.0039
678.0378	0.0067
678.2214	0.0092
678.405	0.0014
678.5885	-0.0024
678.772	-0.0091
678.9555	-0.0006
679.139	0.0022
679.3225	0.0073
679.5059	-0.0039
679.6894	0.0156
679.8728	0.0015
680.0562	-0.0046
680.2395	-0.007
680.4229	0.0129
680.6062	-0.003
680.7896	-0.0139
680.9729	0.0152
681.1562	-0.0009
681.3394	0.009
681.5227	-0.0119
681.7059	-0.0068
681.8891	-0.0036
682.0723	0.0075
682.2555	0.0073
682.4387	0.0409
682.6218	0.0036
682.805	0.0272
682.9881	0.019
683.1712	0.0083
683.3542	0.0111
683.5373	0.0061
683.7203	0.0106
683.9034	0.0088
684.0864	-0.0063
684.2694	0.0145
684.4523	0.0016
684.6353	-0.0005
684.8182	-0.0032
685.0011	0.0078
685.184	0.0066
685.3669	0.022
685.5498	-0.0035
685.7326	-0.0033
685.9154	0.0038
686.0982	0.0265
686.281	-0.013
686.4638	0.0028
686.6465	0.0009
686.8293	-0.0006
687.012	0.017
687.1947	-0.0031
687.3774	0.0033
687.56	-0.0079
687.7427	-0.0039
687.9253	-0.0221
688.1079	-0.0084
688.2905	0.012
688.4731	0.0405
688.6556	-0.0066
688.8382	-0.0168
689.0207	0.0204
689.2032	0.0244
689.3857	-0.0023
689.5681	0.002
689.7506	0.0423
689.933	-0.0127
690.1154	0.0061
690.2978	-0.0035
690.4802	0.0141
690.6626	-0.0047
690.8449	0.0132
691.0272	-0.0022
691.2095	-0.0272
691.3918	-0.003
691.5741	0.0098
691.7563	0.001
691.9386	0.003
692.1208	-0.0014
692.303	-0.0074
692.4852	0.0051
692.6673	0.015
692.8495	-0.017
693.0316	0.0068
693.2137	0.0221
693.3958	-0.0007
693.5778	0.003
693.7599	-0.0138
693.9419	-0.0051
694.1239	-0.004
694.3059	0.0327
694.4879	-0.008
694.6699	-0.0039
694.8518	0.0046
695.0337	0.0152
695.2157	0.0174
695.3975	-0.0131
695.5794	-0.0051
695.7613	0.0258
695.9431	-0.0112
696.1249	0.0255
696.3067	-0.0331
696.4885	0.0185
696.6703	-0.0065
696.852	-0.0001
697.0337	0.0129
697.2154	0.0187
697.3971	0.007
697.5788	0.0055
697.7605	-0.0031
697.9421	0.0191
698.1237	0.005
698.3053	-0.0028
698.4869	-0.005
698.6685	-0.0023
698.85	0.0048
699.0315	-0.0101
699.213	0.005
699.3945	-0.009
699.576	0.0387
699.7575	0.0283
699.9389	-0.0156
700.1203	0.0037
700.3017	-0.0057
700.4831	0.0292
700.6645	0.0092
700.8458	0.0085
701.0271	0.0339
701.2084	-0.0053
701.3897	0.0057
701.571	-0.0025
701.7523	0.0191
701.9335	0.021
702.1147	0.0224
702.2959	-0.009
702.4771	0.0249
702.6583	-0.008
702.8394	-0.0286
703.0205	0.0155
703.2016	0.0125
703.3827	0.0071
703.5638	-0.0067
703.7449	-0.0085
703.9259	0.0096
704.1069	-0.0199
704.2879	0.0072
704.4689	-0.0025
704.6499	0.0211
704.8308	-0.0063
705.0117	0.0125
705.1927	0.0101
705.3735	0.0069
705.5544	0.0147
705.7353	-0.0391
705.9161	-0.0306
706.0969	0.0009
706.2777	0.0017
706.4585	-0.0007
706.6393	-0.0029
706.82	0.0136
707.0007	0.006
707.1815	-0.0082
707.3621	0.0262
707.5428	-0.0013
707.7235	-0.0002
707.9041	0.0058
708.0847	0.0016
708.2653	0.0276
708.4459	-0.0041
708.6265	-0.0036
708.807	-0.0047
708.9875	0.0149
709.168	-0.0183
709.3485	0.0133
709.529	0.0022
709.7095	-0.0174
709.8899	0.0097
710.0703	0.0175
710.2507	-0.0116
710.4311	0.0007
710.6115	0.0467
710.7918	0.0067
710.9721	0.005
711.1524	0.0113
711.3327	-0.0069
711.513	0.0045
711.6932	-0.0281
711.8735	0.0098
712.0537	-0.0104
712.2339	0.014
712.4141	0.0483
712.5942	-0.0089
712.7744	0.0263
712.9545	-0.0012
713.1346	0.0343
713.3147	0.0109
713.4947	-0.0097
713.6748	0.0089
713.8548	0.0171
714.0348	0.01
714.2148	0.0001
714.3948	0.0173
714.5748	0.013
714.7547	0.0314
714.9346	0.0344
715.1145	0.0091
715.2944	-0.0087
715.4743	0.0222
715.6541	0.0101
715.834	0.0178
716.0138	0.0363
716.1936	-0.0004
716.3733	0.0021
716.5531	0.0007
716.7328	-0.0196
716.9126	-0.0059
717.0923	-0.0163
717.2719	-0.0066
717.4516	0.0203
717.6312	-0.0003
717.8109	0.0217
717.9905	0.0308
718.1701	0.0146
718.3496	0.0072
718.5292	-0.023
718.7087	0.0069
718.8882	0.0205
719.0677	0.0131
719.2472	-0.0162
719.4267	0.002
719.6061	-0.0192
719.7856	0.0187
719.965	-0.0107
720.1443	0.012
720.3237	-0.0038
720.5031	0.0276
720.6824	0.0292
720.8617	-0.0081
721.041	0.0144
721.2203	-0.0196
721.3995	-0.012
721.5788	-0.0023
721.758	-0.0081
721.9372	0.0037
722.1164	-0.0208
722.2956	0.0139
722.4747	0.0116
722.6538	0.0032
722.8329	0.0031
723.012	0.0228
723.1911	0.0061
723.3702	0.0057
723.5492	0.0048
723.7282	0.0027
723.9072	0.0005
724.0862	-0.0026
724.2652	0.0027
724.4441	-0.0088
724.623	0.0008
724.8019	0.008
724.9808	0.0111
725.1597	-0.002
725.3385	-0.0093
725.5174	0.011
725.6962	0.0153
725.875	0.0194
726.0538	0.0163
726.2325	0.0194
726.4112	-0.0285
726.59	-0.0018
726.7687	-0.0056
726.9474	-0.0341
727.126	0.0144
727.3047	-0.0343
727.4833	-0.004
727.6619	-0.0202
727.8405	0.0052
728.0191	0.0195
728.1976	0.0022
728.3762	0.0092
728.5547	-0.0021
728.7332	0.0162
728.9116	-0.008
729.0901	0.0161
729.2686	0.0273
729.447	-0.0081
729.6254	0.0154
729.8038	-0.0052
729.9821	-0.0196
730.1605	0.0094
730.3388	0.0043
730.5171	0.0053
730.6954	-0.0172
730.8737	0.0027
731.0519	-0.0154
731.2302	0.0161
731.4084	-0.0154
731.5866	-0.0099
731.7648	-0.0135
731.9429	0.0313
732.1211	-0.0029
732.2992	0.0124
732.4773	-0.0042
732.6554	-0.0128
732.8335	0.0242
733.0115	0.0113
733.1896	-0.0031
733.3676	0.0242
733.5456	-0.0027
733.7235	-0.0111
733.9015	0.0133
734.0794	-0.0011
734.2574	-0.0273
734.4353	-0.0017
734.6131	-0.0131
734.791	0.0146
734.9689	-0.0103
735.1467	-0.0043
735.3245	0.0506
735.5023	0.002
735.68	-0.0002
735.8578	0.0047
736.0355	0.0035
736.2132	0.0048
736.3909	0.0138
736.5686	0.0039
736.7463	-0.0231
736.9239	0.0099
737.1015	0.0181
737.2791	0.0166
737.4567	0.0028
737.6343	0.0062
737.8118	0.0108
737.9894	-0.0261
738.1669	0.0143
738.3444	0.0306
738.5218	-0.0201
738.6993	0.0109
738.8767	0.0071
739.0541	-0.0112
739.2315	0.0009
739.4089	0.0131
739.5863	-0.0053
739.7636	0.0018
739.9409	0.0008
740.1182	-0.0034
740.2955	0.0298
740.4728	0.0192
740.65	-0.0114
740.8272	0.0101
741.0044	-0.0285
741.1816	0.0237
741.3588	-0.01
741.5359	-0.0024
741.7131	-0.0021
741.8902	-0.0061
742.0673	-0.0382
742.2444	0.0306
742.4214	0.0131
742.5985	-0.0258
742.7755	-0.0181
742.9525	-0.021
743.1295	-0.0425
743.3064	0.0001
743.4834	-0.0033
743.6603	0.0408
743.8372	-0.0443
744.0141	0.0204
744.191	0.0091
744.3678	-0.0405
744.5446	-0.0017
744.7215	-0.0017
744.8982	0.0441
745.075	0.0222
745.2518	0.0024
745.4285	0.0189
745.6052	-0.0307
745.7819	-0.0208
745.9586	0.0261
746.1353	-0.0256
746.3119	0.0308
746.4885	0.0302
746.6651	0.0195
746.8417	-0.0062
747.0183	0.0427
747.1948	0.0031
747.3714	0.0233
747.5479	0.0047
747.7244	-0.0197
747.9008	-0.0253
748.0773	0.0269
748.2537	0.0153
748.4301	0.007
748.6065	0.0024
748.7829	-0.0195
748.9593	-0.0003
749.1356	-0.0057
749.3119	0.0039
749.4882	0.0193
749.6645	0.0077
749.8408	0.0308
750.017	0.0096
750.1933	-0.0201
750.3695	0.003
750.5457	0.0021
750.7218	0.0039
750.898	-0.0157
751.0741	0.0004
751.2502	0.0097
751.4263	0.0026
751.6024	0.0037
751.7784	0.004
751.9545	0.0075
752.1305	0.0012
752.3065	0.018
752.4825	0.0114
752.6584	0.01
752.8344	-0.0003
753.0103	-0.0042
753.1862	0.0175
753.3621	0.0037
753.5379	-0.0039
753.7138	0.0052
753.8896	0.0026
754.0654	-0.01
754.2412	0.0272
754.417	0.0085
754.5927	-0.0023
754.7685	0.0172
754.9442	0.0248
755.1199	0.0015
755.2956	0.0078
755.4712	-0.0005
755.6469	-0.0174
755.8225	0.0051
755.9981	0.0037
756.1736	0.0181
756.3492	0.0074
756.5248	0.0106
756.7003	-0.0017
756.8758	0.0031
757.0513	0.0007
757.2267	0.0016
757.4022	-0.0105
757.5776	0.0043
757.753	0.0157
757.9284	0.0234
758.1038	0.0213
758.2791	0.0023
758.4545	-0.0238
758.6298	0.0183
758.8051	-0.0064
758.9803	0.0044
759.1556	-0.0114
759.3308	0.0141
759.506	-0.0084
759.6812	0.0197
759.8564	-0.0079
760.0316	-0.0184
760.2067	0.0201
760.3819	0.0045
760.557	-0.0169
760.732	-0.0022
760.9071	0.0175
761.0821	-0.0015
761.2572	-0.0027
761.4322	0.0145
761.6072	0.0146
761.7821	-0.019
761.9571	0.0146
762.132	0.0024
762.3069	0.0171
762.4818	0.0109
762.6567	-0.0213
762.8316	0.0053
763.0064	0.022
763.1812	-0.0003
763.356	-0.0134
763.5308	0.0188
763.7055	0.001
763.8803	-0.0058
764.055	-0.0065
764.2297	-0.0051
764.4044	-0.0061
764.579	-0.0086
764.7537	-0.0002
764.9283	0.0139
765.1029	-0.0004
765.2775	0.0061
765.4521	-0.0005
765.6266	0.0083
765.8011	0.0035
765.9756	0.0529
766.1501	-0.0184
766.3246	-0.0044
766.4991	0.0118
766.6735	0.0293
766.8479	-0.0135
767.0223	-0.0026
767.1967	0.0186
767.371	0.0143
767.5454	-0.028
767.7197	0.0205
767.894	-0.0138
768.0683	0.0143
768.2425	0.0018
768.4168	0.0048
768.591	-0.0031
768.7652	0.0016
768.9394	0.0109
769.1135	-0.0251
769.2877	0.0077
769.4618	0.0192
769.6359	-0.0045
769.81	0.0246
769.984	-0.0025
770.1581	-0.0051
770.3321	0.0299
770.5061	-0.0185
770.6801	-0.0032
770.8541	0.0216
771.028	0.0379
771.202	0.0125
771.3759	0.0044
771.5498	0.0128
771.7236	-0.0122
771.8975	0.024
772.0713	0.007
772.2451	0.0237
772.4189	0.011
772.5927	-0.0155
772.7665	-0.0185
772.9402	-0.0107
773.1139	-0.0108
773.2876	-0.0182
773.4613	0.036
773.635	0.0273
773.8086	0.0521
773.9822	0.0204
774.1558	0.0386
774.3294	-0.0475
774.503	-0.0357
774.6765	0.0091
774.8501	0.0176
775.0236	-0.0047
775.1971	-0.0089
775.3705	-0.0211
775.544	-0.0424
775.7174	0.0169
775.8908	0.0245
776.0642	-0.0151
776.2376	0.0486
776.4109	-0.015
776.5843	0.0172
776.7576	0.0309
776.9309	0.0216
777.1041	-0.012
777.2774	0.0069
777.4506	0.0106
777.6238	0.0136
777.797	0.003
777.9702	0.03
778.1434	0.0185
778.3165	-0.0078
778.4896	-0.0182
778.6627	0.0145
778.8358	-0.0273
779.0089	-0.0328
779.1819	0.0261
779.3549	0.0167
779.5279	-0.0263
779.7009	0.0407
779.8739	0.0513
780.0468	-0.0033
780.2197	-0.0018
780.3926	-0.0228
780.5655	0.0165
780.7384	-0.0106
780.9112	0.011
781.0841	0.0254
781.2569	0.0115
781.4297	0.0033
781.6024	0.0312
781.7752	0.0469
781.9479	0.0129
782.1206	-0.0025
782.2933	0.0193
782.466	0.0175
782.6386	-0.0189
782.8113	-0.001
782.9839	-0.016
783.1565	-0.0198
783.329	0.0173
783.5016	0.0164
783.6741	-0.0083
783.8466	0.0198
784.0191	-0.0106
784.1916	-0.0138
784.3641	-0.0421
784.5365	-0.0059
784.7089	-0.0186
784.8813	0.0484
785.0537	-0.0186
785.2261	0.0092
785.3984	-0.0033
785.5707	-0.002
785.743	0.0368
785.9153	-0.0387
786.0876	-0.017
786.2598	-0.0087
786.432	-0.0006
786.6042	0.0126
786.7764	-0.0261
786.9486	0.0164
787.1207	0.0382
787.2928	0.0652
787.4649	-0.0005
787.637	-0.0382
787.8091	-0.0148
787.9811	0.0124
788.1532	0.031
788.3252	0.0107
788.4972	-0.0091
788.6691	0.0001
788.8411	-0.0199
789.013	-0.0042
789.1849	0.0326
789.3568	-0.013
789.5287	0.0578
789.7005	-0.0165
789.8723	-0.0163
790.0442	0.0093
790.2159	0.0236
790.3877	0.0202
790.5595	0.0579
790.7312	0.0357
790.9029	0.0479
791.0746	0.0308
791.2463	-0.0664
791.4179	-0.0293
791.5896	-0.0209
791.7612	0.0093
791.9328	0.0676
792.1044	0.0359
792.2759	-0.0179
792.4474	0.0169
792.619	-0.024
792.7905	0.0535
792.9619	0.0649
793.1334	0.045
793.3048	0.0516
793.4762	0.0174
793.6476	-0.034
793.819	-0.0168
793.9904	0.0014
794.1617	-0.0391
794.333	0.0089
794.5043	-0.0056
794.6756	-0.0067
794.8469	-0.0047
795.0181	-0.0061
795.1893	0.0199
795.3605	0.0163
795.5317	0.0139
795.7029	-0.0314
795.874	0.0252
796.0452	-0.0078
796.2163	0.0436
796.3873	0.0117
796.5584	0.0321
796.7294	0.0218
796.9005	0.0516
797.0715	-0.012
797.2425	0.0638
797.4134	0.0649
797.5844	0.0789
797.7553	-0.0195
797.9262	0.009
798.0971	0.0474
798.2679	-0.0021
798.4388	-0.0042
798.6096	0.0479
798.7804	0.0177
798.9512	0.0457
799.122	-0.0389
799.2927	0.0238
799.4635	-0.0553
799.6342	-0.0805
799.8049	0.0433
799.9755	-0.0202
800.1462	0.0031
800.3168	0.0374
800.4874	-0.1296
800.658	0.0133
800.8286	0.0276
800.9991	0.0004
801.1696	-0.0426
801.3402	0.0426
801.5106	-0.0657
801.6811	0.0167
801.8516	0.159
802.022	0.0743
802.1924	-0.0597
802.3628	0.0331
802.5332	-0.0114
802.7035	0.0215
802.8739	0.0224
803.0442	-0.016
803.2145	0.0053
803.3847	0.013
803.555	0.0616
803.7252	-0.0514
803.8954	-0.0403
804.0656	-0.0026
804.2358	0.0248
804.4059	0.021
804.5761	-0.0393
804.7462	-0.0198
804.9163	0.0574
805.0864	-0.0013
805.2564	-0.0758
805.4264	-0.0283
805.5965	0.0371
805.7665	0.0254
805.9364	-0.0238
806.1064	-0.0258
806.2763	0.0397
806.4462	-0.0143
806.6161	-0.0024
806.786	0.0683
806.9559	-0.0094
807.1257	-0.0068
807.2955	-0.0185
807.4653	-0.0021
807.6351	0.069
807.8048	0.0464
807.9746	0.0003
808.1443	0.0211
808.314	0.042
808.4837	0.0633
808.6533	0.0051
808.8229	0.0365
808.9926	-0.0183
809.1622	0.0687
809.3317	-0.0664
809.5013	-0.038
809.6708	0.0208
809.8403	-0.0092
810.0098	0.0112
810.1793	-0.0279
810.3488	0.0122
810.5182	0.1278
810.6876	-0.0147
810.857	0.0327
811.0264	0.0213
811.1958	-0.0255
811.3651	-0.0334
811.5344	0.0549
811.7037	0.0396
811.873	0.0955
812.0422	-0.103
812.2115	-0.0858
812.3807	-0.0873
812.5499	-0.0461
812.7191	-0.0716
812.8882	-0.1446
813.0574	-0.002
813.2265	0.0652
813.3956	-0.0542
813.5646	-0.0627
813.7337	0.0418
813.9027	-0.0884
814.0718	0.0205
814.2407	0.0718
814.4097	0.0348
814.5787	0.1169
814.7476	0.0077
814.9165	0.0657
815.0854	-0.027
815.2543	-0.0824
815.4232	0.169
815.592	0.016
815.7608	-0.1154
815.9296	-0.0393
816.0984	0.0572
816.2671	-0.2025
816.4359	0.1031
816.6046	-0.0316
816.7733	0.022
816.942	0.0143
817.1106	0.1125
817.2793	-0.051
817.4479	-0.0312
817.6165	0.1153
817.785	0.0143
817.9536	-0.0925
818.1221	0.0673
818.2906	-0.0558
818.4591	0.0575
818.6276	0.0258
818.7961	-0.0087
818.9645	-0.0655
819.1329	0.2883
819.3013	-0.0723
819.4697	0.0599
819.638	0.0339
819.8064	0.1254
819.9747	0.0958
820.143	-0.0478
820.3113	0.0267
820.4795	0.2103
820.6477	0.1253
820.816	0.0285
820.9842	0.0765
821.1523	0.0575
821.3205	0.0025
821.4886	0.0599
821.6567	-0.0764
821.8248	0.0785
821.9929	-0.1946
822.1609	0.011
822.329	0.1646
822.497	0.0557
822.665	0.203
822.833	-0.062
823.0009	-0.1049
823.1688	0.2164
823.3367	-0.1018
823.5046	-0.0258
823.6725	0.0643
823.8404	-0.0614
824.0082	-0.0674
824.176	0.179
824.3438	0.0811
824.5116	-0.1067
824.6793	0.0846
824.847	0.3369
825.0147	0.182
825.1824	0.2174
825.3501	0.1427
825.5177	-0.0095
825.6854	-0.1606
825.853	0.0607
826.0206	-0.2248
826.1881	-0.0027
826.3557	-0.0165
826.5232	0.2341
826.6907	0.0273
826.8582	0.0368
827.0257	0.0681
827.1931	0.1356
827.3605	0.001
827.528	-0.0793
827.6953	-0.2388
827.8627	-0.11
828.03	0.0955
828.1974	0.0698
828.3647	0.0679
828.532	0.0554
828.6992	0.0582
828.8665	0.1732
829.0337	-0.0873
829.2009	0.0878
829.3681	-0.0882
829.5352	-0.4124
829.7024	0.3139
829.8695	-0.0559
830.0366	0.1109
830.2037	0.1464
830.3707	-0.0054
830.5378	0.0544
830.7048	-0.2
830.8718	0.1874
831.0388	0.2364
831.2057	0.0656
831.3727	-0.1346
831.5396	0.1051
831.7065	-1.0461
831.8734	0.9772
832.0402	0.0542
832.2071	-0.3041
832.3739	-0.302
832.5407	-1.8288
832.7075	-0.4601
832.8742	0.1208
833.041	-0.0752
833.2077	0.1238
833.3744	0.0219
833.541	-0.0555
833.7077	-0.1229
833.8743	0.0138
834.0409	0.1087
834.2075	0.0272
834.3741	-0.019
834.5407	0.0493
834.7072	-0.102
834.8737	0.0695
835.0402	0.246
835.2067	-0.0425
835.3731	-0.0995
835.5395	0.0776
835.706	-0.2702
835.8723	0.1317
836.0387	0.1321
836.2051	0.1234
836.3714	-0.1069
836.5377	-0.0506
836.704	0.0493
836.8703	-0.2785
837.0365	-0.5568
837.2027	0.0528
837.3689	-0.0038
837.5351	0.2129
837.7013	0.1036
837.8674	-0.2763
838.0335	0.0568
838.1997	0.0653
838.3657	-0
838.5318	-0.6353
838.6978	-0.2077
838.8639	-0.4968
839.0299	-0.062
839.1958	-0.0629
839.3618	-0
839.5277	0.1174
839.6937	0.0586
839.8596	-0.3378
840.0254	-0.0822
840.1913	-0.2658
840.3571	-0.2434
840.523	-0
840.6888	0.0903
840.8545	-0.4829
841.0203	0.0177
841.186	0.121
841.3517	0.1454
841.5174	0.2326
841.6831	0.0574
841.8488	-0.1759
842.0144	-0.0859
842.18	0.0726
842.3456	-0.6353
842.5112	-0
842.6767	0.0164
842.8422	0.4537
843.0077	-0.2024
843.1732	-0.2468
843.3387	0.1268
843.5042	-0
843.6696	0.4018
843.835	-0.2829
844.0004	-0.0639
844.1657	-0.1684
844.3311	-0.5177
844.4964	-0.252
844.6617	0.3546
844.827	-0
844.9923	0.1305
845.1575	0.0302
845.3227	-0.4536
845.4879	0.3363
845.6531	0.1546
845.8183	-0.1508
845.9834	-0
846.1485	0.2033
846.3136	-0.0198
846.4787	0.4933
846.6438	-0.4476
846.8088	-0
846.9738	-0.3531
847.1388	0.3555
847.3038	0.3075
847.4687	-0
847.6337	0.0546
847.7986	-0.2333
847.9635	-0.0935
848.1284	-0
848.2932	-0
848.458	-0
848.6228	-0
848.7876	-0
848.9524	0.0419
849.1172	-1.8177
849.2819	0.1383
849.4466	0.8848
849.6113	0.3428
849.7759	-0
849.9406	-0.134
850.1052	-1.0393
850.2698	-0
850.4344	-0.4064
850.599	0.1315
850.7635	0.0476
850.928	0.6214
851.0925	0.0743
851.257	-0.23
851.4215	-0.0866
851.5859	0.0159
851.7503	-0
851.9147	-0.4418
852.0791	0.2366
852.2434	0.1575
852.4078	0.3034
852.5721	-0.0495
852.7364	0.2509
852.9007	-0.2096
853.0649	-0
853.2291	0.0314
853.3934	-0
853.5575	0.2459
853.7217	0.9689
853.8859	0.8997
854.05	-0.2509
854.2141	0.6502
854.3782	-0.074
854.5423	-0.5496
854.7063	0.1325
854.8703	-0.0274
855.0343	0.3551
855.1983	-0.0679
855.3623	0.1643
855.5262	-0
855.6901	0.2945
855.854	0.1009
856.0179	0.255
856.1818	0.4635
856.3456	1.4285
856.5094	-0.5892
856.6732	-0.2316
856.837	-1.2982
857.0008	-0.7933
857.1645	-0
857.3282	-0.538
857.4919	-0.16
857.6556	-0.4819
857.8192	0.2486
857.9828	-0.0603
858.1465	0.313
858.31	-0
858.4736	-0.6021
858.6372	-0.3873
858.8007	-0.0878
858.9642	0.1853
859.1277	-0
859.2911	-0.3676
859.4546	-0
859.618	0.2471
859.7814	-0.239
859.9448	0.3544
860.1081	-0
860.2715	-0
860.4348	-0.2823
860.5981	0.4071
860.7614	-0.2225
860.9246	0.8893
861.0879	0.1045
861.2511	-0
861.4143	-0.5777
861.5774	-0.5088
861.7406	-0.0521
861.9037	-0
862.0668	-0.6251
862.2299	0.1479
862.393	-0
862.556	1.541
862.7191	0.2226
862.8821	-0.0124
863.0451	0.0931
863.208	0.0856
863.371	-0
863.5339	0.148
863.6968	-0
863.8597	-0.3794
864.0225	-0.1961
864.1854	-0
864.3482	-0
864.511	-0.2266
864.6737	-0
864.8365	-0.1131
864.9992	-0
865.1619	-0
865.3246	-1.2041
865.4873	-0
865.65	-0.0393
865.8126	-0
865.9752	-0.2257
866.1378	0.1851
866.3004	-0.2627
866.4629	-2.0074
866.6254	-0
866.7879	0.2993
866.9504	-0
867.1129	-0
867.2753	-0.0589
867.4377	-0
867.6001	-0
867.7625	-0.0867
867.9249	-0
868.0872	-0.1042
868.2495	-0
868.4118	-0
868.5741	0.2968
868.7363	-0
868.8986	0.0405
869.0608	0.0104
869.223	-0.3766
869.3851	-0.1578
869.5473	-0.0693
869.7094	-0.1142
869.8715	-0.0825
870.0336	-0.0692
870.1957	-0.8405
870.3577	0.5593
870.5197	0.119
870.6817	-0.5852
870.8437	-0
871.0057	1.0635
871.1676	0.2542
871.3295	-0
871.4914	-1.5752
871.6533	-0.3143
871.8151	-0
871.977	-0.0204
872.1388	0.1669
872.3006	-0.3525
872.4623	-0.7651
872.6241	-0
872.7858	0.4712
872.9475	-0
873.1092	0.1093
873.2709	0.4586
873.4325	-0.8709
873.5941	-0
873.7557	-0.1237
873.9173	0.0505
874.0789	-0.0605
874.2404	-0
874.4019	-0.2488
874.5634	-0
874.7249	0.4167
874.8863	-0
875.0478	-0.3087
875.2092	0.8055
875.3706	-0.0271
875.5319	0.7222
875.6933	0.0993
875.8546	-0.1851
876.0159	0.0595
876.1772	-0
876.3385	0.3124
876.4997	0.0628
876.6609	0.1094
876.8221	-0
876.9833	-0.0048
877.1445	0.8873
877.3056	-1.1826
877.4667	-0
877.6278	-0
877.7889	0.8234
877.9499	-0.0099
878.111	-0.6513
878.272	-0
878.433	-0.0479
878.5939	0.0044
878.7549	0.0788
878.9158	-0.1699
879.0767	-0
879.2376	0.2345
879.3984	1.6428
879.5593	0.2199
879.7201	-1.4973
879.8809	1.6968
880.0417	-0.2326
880.2024	-0
880.3632	-0.0272
880.5239	-0.3658
880.6846	-0.5624
880.8452	-0.237
881.0059	-1.0245
881.1665	-0.0668
881.3271	0.4802
881.4877	-0
881.6483	0.3274
881.8088	-0
881.9693	-0
882.1298	-0
882.2903	-0
