Data from D4ACN5uM460nmA_Absorbance_13-05-42-305.txt Node
Date: Fri Feb 21 13:05:42 GMT 2025
User: LASERRRRR
Spectrometer: FLMT03099
Trigger mode: 0
Integration Time (sec): 1.500000E-2
Scans to average: 1
Electric dark correction enabled: true
Nonlinearity correction enabled: false
Boxcar width: 0
XAxis mode: Wavelengths
Number of Pixels in Spectrum: 3648
>>>>>Begin Spectral Data<<<<<
179.3399	-0.6365
179.5586	-0.6365
179.7771	-0.6365
179.9957	-0
180.2143	-0
180.4329	-0.0956
180.6514	-0
180.8699	1.0905
181.0885	-0
181.307	0.1231
181.5255	-0
181.744	-0
181.9625	0.9536
182.181	-0.3749
182.3994	1.1038
182.6179	-0
182.8363	-0.0431
183.0547	0.4153
183.2732	0.3462
183.4916	0.2791
183.71	0.2979
183.9284	0.1242
184.1467	0.2366
184.3651	0.3093
184.5835	0.2029
184.8018	0.1773
185.0201	0.105
185.2385	0.2359
185.4568	0.1179
185.6751	0.1467
185.8934	0.2971
186.1117	0.4037
186.3299	0.2397
186.5482	0.2603
186.7664	0.2762
186.9847	0.3294
187.2029	0.3136
187.4211	0.1291
187.6393	0.0426
187.8575	0.4774
188.0757	0.4459
188.2939	0.061
188.512	0.3669
188.7302	0.1441
188.9483	0.2316
189.1665	0.7948
189.3846	0.0684
189.6027	0.2697
189.8208	0.2349
190.0389	0.3265
190.257	-0.0287
190.475	0.0932
190.6931	0.0427
190.9111	0.147
191.1292	0.1325
191.3472	0.0994
191.5652	0.0162
191.7832	0.136
192.0012	0.2178
192.2192	0.2383
192.4371	0.1914
192.6551	0.2424
192.873	0.2263
193.091	0.1443
193.3089	0.1801
193.5268	0.2625
193.7447	0.2125
193.9626	0.2866
194.1805	0.183
194.3984	0.2233
194.6162	0.2727
194.8341	0.3103
195.0519	0.2839
195.2697	0.3306
195.4875	0.2721
195.7054	0.255
195.9231	0.2404
196.1409	0.2767
196.3587	0.329
196.5765	0.3407
196.7942	0.2928
197.012	0.3204
197.2297	0.3673
197.4474	0.3416
197.6651	0.3458
197.8828	0.3467
198.1005	0.3561
198.3182	0.362
198.5358	0.3969
198.7535	0.3938
198.9711	0.4519
199.1888	0.3487
199.4064	0.4251
199.624	0.4185
199.8416	0.3851
200.0592	0.4027
200.2767	0.4062
200.4943	0.4651
200.7119	0.4225
200.9294	0.4074
201.1469	0.444
201.3645	0.4128
201.582	0.3578
201.7995	0.4294
202.017	0.4139
202.2344	0.4661
202.4519	0.4064
202.6694	0.3979
202.8868	0.4308
203.1042	0.4104
203.3217	0.3985
203.5391	0.3953
203.7565	0.3921
203.9739	0.4259
204.1913	0.3597
204.4086	0.37
204.626	0.3485
204.8433	0.3598
205.0607	0.3461
205.278	0.3754
205.4953	0.3511
205.7126	0.3408
205.9299	0.3266
206.1472	0.3233
206.3644	0.3359
206.5817	0.313
206.7989	0.3159
207.0162	0.315
207.2334	0.3335
207.4506	0.3229
207.6678	0.3121
207.885	0.3079
208.1022	0.3187
208.3194	0.3149
208.5365	0.3061
208.7537	0.2977
208.9708	0.2841
209.1879	0.2937
209.405	0.2737
209.6222	0.298
209.8392	0.3161
210.0563	0.2727
210.2734	0.2505
210.4905	0.2721
210.7075	0.2896
210.9245	0.2579
211.1416	0.2959
211.3586	0.2597
211.5756	0.2443
211.7926	0.2583
212.0096	0.2557
212.2265	0.281
212.4435	0.2511
212.6604	0.255
212.8774	0.2733
213.0943	0.2519
213.3112	0.2465
213.5281	0.2486
213.745	0.2527
213.9619	0.2459
214.1788	0.2743
214.3956	0.2398
214.6125	0.2481
214.8293	0.2619
215.0461	0.2373
215.2629	0.2496
215.4798	0.2556
215.6965	0.2414
215.9133	0.2487
216.1301	0.2461
216.3469	0.2479
216.5636	0.252
216.7803	0.2497
216.9971	0.2575
217.2138	0.2452
217.4305	0.2546
217.6472	0.2459
217.8639	0.2702
218.0805	0.2448
218.2972	0.2648
218.5138	0.2801
218.7305	0.2582
218.9471	0.2478
219.1637	0.2765
219.3803	0.2587
219.5969	0.2669
219.8135	0.2723
220.0301	0.2535
220.2466	0.2619
220.4632	0.258
220.6797	0.2612
220.8962	0.2697
221.1127	0.2774
221.3292	0.2803
221.5457	0.2825
221.7622	0.2679
221.9787	0.2769
222.1951	0.2669
222.4116	0.2717
222.628	0.3059
222.8444	0.2862
223.0608	0.2838
223.2772	0.2842
223.4936	0.2829
223.71	0.2797
223.9264	0.2795
224.1427	0.2885
224.3591	0.2853
224.5754	0.2963
224.7917	0.287
225.008	0.2982
225.2243	0.308
225.4406	0.2913
225.6569	0.3078
225.8732	0.3177
226.0894	0.323
226.3057	0.3142
226.5219	0.3058
226.7381	0.3237
226.9543	0.3244
227.1705	0.3243
227.3867	0.3334
227.6029	0.3324
227.8191	0.3458
228.0352	0.346
228.2513	0.3495
228.4675	0.3483
228.6836	0.3467
228.8997	0.344
229.1158	0.3641
229.3319	0.3635
229.548	0.3482
229.764	0.3549
229.9801	0.3772
230.1961	0.3629
230.4121	0.364
230.6282	0.3919
230.8442	0.3928
231.0602	0.378
231.2761	0.3842
231.4921	0.3962
231.7081	0.3882
231.924	0.3986
232.14	0.3962
232.3559	0.4105
232.5718	0.4157
232.7877	0.4033
233.0036	0.4051
233.2195	0.4138
233.4353	0.4236
233.6512	0.4152
233.867	0.4233
234.0829	0.4305
234.2987	0.4246
234.5145	0.4184
234.7303	0.4301
234.9461	0.4315
235.1619	0.4515
235.3776	0.434
235.5934	0.4338
235.8091	0.4442
236.0249	0.4464
236.2406	0.4349
236.4563	0.4424
236.672	0.4319
236.8877	0.4495
237.1034	0.4484
237.319	0.4515
237.5347	0.4513
237.7503	0.4502
237.966	0.4566
238.1816	0.45
238.3972	0.4525
238.6128	0.4657
238.8284	0.4663
239.0439	0.4605
239.2595	0.4616
239.475	0.4482
239.6906	0.465
239.9061	0.461
240.1216	0.4596
240.3371	0.4639
240.5526	0.4584
240.7681	0.4618
240.9836	0.4546
241.199	0.4501
241.4145	0.449
241.6299	0.4481
241.8453	0.439
242.0607	0.4429
242.2761	0.4315
242.4915	0.4256
242.7069	0.4154
242.9223	0.4148
243.1376	0.407
243.353	0.4076
243.5683	0.3889
243.7836	0.3881
243.9989	0.3729
244.2142	0.3726
244.4295	0.3646
244.6448	0.3612
244.86	0.3484
245.0753	0.3433
245.2905	0.3326
245.5057	0.3349
245.721	0.3306
245.9362	0.3306
246.1514	0.3213
246.3665	0.3039
246.5817	0.2921
246.7969	0.2966
247.012	0.2857
247.2271	0.2896
247.4423	0.284
247.6574	0.2767
247.8725	0.2666
248.0876	0.2689
248.3026	0.2688
248.5177	0.2572
248.7328	0.251
248.9478	0.2504
249.1628	0.2464
249.3779	0.2379
249.5929	0.2395
249.8079	0.2391
250.0228	0.2331
250.2378	0.2264
250.4528	0.2298
250.6677	0.2208
250.8827	0.2144
251.0976	0.2149
251.3125	0.2233
251.5274	0.2115
251.7423	0.2027
251.9572	0.2067
252.172	0.2077
252.3869	0.1973
252.6017	0.2034
252.8166	0.2007
253.0314	0.1972
253.2462	0.191
253.461	0.1946
253.6758	0.1914
253.8906	0.1859
254.1053	0.1902
254.3201	0.1894
254.5348	0.1805
254.7496	0.1828
254.9643	0.186
255.179	0.1865
255.3937	0.1919
255.6083	0.1909
255.823	0.1808
256.0377	0.1755
256.2523	0.18
256.467	0.1859
256.6816	0.176
256.8962	0.1797
257.1108	0.1814
257.3254	0.187
257.54	0.1782
257.7545	0.1833
257.9691	0.1767
258.1836	0.1685
258.3981	0.1771
258.6127	0.1775
258.8272	0.1796
259.0417	0.1736
259.2561	0.1749
259.4706	0.1725
259.6851	0.1743
259.8995	0.1758
260.114	0.177
260.3284	0.173
260.5428	0.1758
260.7572	0.1745
260.9716	0.1815
261.186	0.1746
261.4003	0.1725
261.6147	0.1693
261.829	0.1755
262.0433	0.1793
262.2577	0.1725
262.472	0.1715
262.6863	0.1713
262.9005	0.1762
263.1148	0.1758
263.3291	0.1756
263.5433	0.1772
263.7576	0.1812
263.9718	0.1731
264.186	0.1757
264.4002	0.1775
264.6144	0.1777
264.8286	0.1821
265.0427	0.1765
265.2569	0.1841
265.471	0.1775
265.6851	0.1769
265.8993	0.1773
266.1134	0.1811
266.3275	0.1783
266.5415	0.179
266.7556	0.1798
266.9697	0.1785
267.1837	0.1756
267.3978	0.1768
267.6118	0.1739
267.8258	0.181
268.0398	0.178
268.2538	0.1792
268.4677	0.1757
268.6817	0.1744
268.8957	0.171
269.1096	0.1649
269.3235	0.1688
269.5374	0.1751
269.7514	0.1684
269.9652	0.17
270.1791	0.1683
270.393	0.1705
270.6068	0.1695
270.8207	0.1654
271.0345	0.1676
271.2483	0.159
271.4622	0.1651
271.676	0.1719
271.8897	0.164
272.1035	0.1699
272.3173	0.1655
272.531	0.1637
272.7448	0.1718
272.9585	0.165
273.1722	0.1633
273.3859	0.1692
273.5996	0.1673
273.8133	0.1698
274.0269	0.1655
274.2406	0.1672
274.4542	0.1651
274.6679	0.166
274.8815	0.1731
275.0951	0.1729
275.3087	0.1667
275.5223	0.1714
275.7358	0.1719
275.9494	0.1729
276.1629	0.1736
276.3765	0.1697
276.59	0.1642
276.8035	0.1696
277.017	0.1704
277.2305	0.1719
277.444	0.1734
277.6574	0.1751
277.8709	0.1775
278.0843	0.1748
278.2978	0.1794
278.5112	0.1752
278.7246	0.1732
278.938	0.1728
279.1513	0.1789
279.3647	0.1719
279.5781	0.1755
279.7914	0.1686
280.0047	0.178
280.2181	0.1717
280.4314	0.1754
280.6447	0.178
280.8579	0.1711
281.0712	0.1796
281.2845	0.1762
281.4977	0.1752
281.711	0.1753
281.9242	0.1761
282.1374	0.1765
282.3506	0.1787
282.5638	0.1745
282.7769	0.1743
282.9901	0.1758
283.2033	0.1761
283.4164	0.1733
283.6295	0.1837
283.8426	0.1799
284.0557	0.1805
284.2688	0.1846
284.4819	0.1748
284.695	0.1796
284.908	0.1844
285.1211	0.1865
285.3341	0.1778
285.5471	0.1844
285.7601	0.1885
285.9731	0.1834
286.1861	0.187
286.3991	0.1862
286.612	0.1866
286.825	0.1843
287.0379	0.1842
287.2508	0.1904
287.4637	0.1876
287.6766	0.1854
287.8895	0.1868
288.1024	0.1904
288.3152	0.188
288.5281	0.1872
288.7409	0.191
288.9538	0.1855
289.1666	0.1925
289.3794	0.1896
289.5922	0.1885
289.8049	0.1919
290.0177	0.1945
290.2304	0.188
290.4432	0.1931
290.6559	0.1911
290.8686	0.1921
291.0813	0.1952
291.294	0.192
291.5067	0.1915
291.7194	0.1899
291.932	0.1938
292.1447	0.1917
292.3573	0.1964
292.5699	0.1982
292.7825	0.1882
292.9951	0.1954
293.2077	0.1917
293.4203	0.1916
293.6328	0.1942
293.8454	0.1906
294.0579	0.1958
294.2704	0.1966
294.4829	0.1876
294.6954	0.1885
294.9079	0.1931
295.1204	0.1918
295.3328	0.1992
295.5453	0.1912
295.7577	0.1943
295.9701	0.1992
296.1825	0.1958
296.3949	0.1855
296.6073	0.188
296.8197	0.1957
297.0321	0.1942
297.2444	0.1911
297.4567	0.1974
297.6691	0.1892
297.8814	0.1897
298.0937	0.1928
298.306	0.1926
298.5182	0.1913
298.7305	0.1914
298.9428	0.1916
299.155	0.1844
299.3672	0.189
299.5794	0.1914
299.7916	0.1924
300.0038	0.1901
300.216	0.1897
300.4282	0.1888
300.6403	0.1992
300.8525	0.1932
301.0646	0.1919
301.2767	0.196
301.4888	0.1866
301.7009	0.197
301.913	0.194
302.125	0.1909
302.3371	0.1885
302.5491	0.1874
302.7612	0.1933
302.9732	0.1997
303.1852	0.1898
303.3972	0.1992
303.6092	0.1916
303.8211	0.1857
304.0331	0.1868
304.245	0.1896
304.457	0.1916
304.6689	0.1942
304.8808	0.1819
305.0927	0.1895
305.3046	0.1829
305.5164	0.1836
305.7283	0.1813
305.9401	0.1692
306.152	0.1788
306.3638	0.1808
306.5756	0.1803
306.7874	0.1705
306.9992	0.1723
307.2109	0.1699
307.4227	0.1695
307.6344	0.1769
307.8462	0.1684
308.0579	0.1761
308.2696	0.1669
308.4813	0.1653
308.693	0.1672
308.9046	0.1629
309.1163	0.1554
309.328	0.1577
309.5396	0.1548
309.7512	0.1554
309.9628	0.1467
310.1744	0.1482
310.386	0.1459
310.5976	0.1485
310.8091	0.1493
311.0207	0.1436
311.2322	0.1379
311.4437	0.1446
311.6552	0.1379
311.8667	0.1477
312.0782	0.1378
312.2897	0.1415
312.5012	0.1338
312.7126	0.136
312.924	0.1399
313.1355	0.1356
313.3469	0.1364
313.5583	0.1304
313.7696	0.1288
313.981	0.1316
314.1924	0.1235
314.4037	0.1279
314.6151	0.1279
314.8264	0.1293
315.0377	0.1313
315.249	0.1279
315.4603	0.1263
315.6716	0.1258
315.8828	0.124
316.0941	0.1286
316.3053	0.1212
316.5165	0.1272
316.7277	0.1231
316.9389	0.127
317.1501	0.1237
317.3613	0.1232
317.5724	0.1222
317.7836	0.1127
317.9947	0.1198
318.2058	0.1227
318.417	0.1188
318.6281	0.1181
318.8391	0.1227
319.0502	0.1174
319.2613	0.1144
319.4723	0.1167
319.6834	0.1238
319.8944	0.1189
320.1054	0.1224
320.3164	0.118
320.5274	0.1203
320.7383	0.1272
320.9493	0.1217
321.1602	0.1188
321.3712	0.1199
321.5821	0.1166
321.793	0.1229
322.0039	0.1181
322.2148	0.1179
322.4257	0.1162
322.6365	0.1143
322.8474	0.1192
323.0582	0.1177
323.269	0.1214
323.4798	0.1218
323.6906	0.1166
323.9014	0.1228
324.1122	0.1182
324.3229	0.1216
324.5337	0.1163
324.7444	0.1205
324.9551	0.1184
325.1658	0.1208
325.3765	0.1252
325.5872	0.1285
325.7979	0.1232
326.0085	0.1226
326.2192	0.12
326.4298	0.1293
326.6404	0.1265
326.851	0.1262
327.0616	0.1267
327.2722	0.1243
327.4828	0.1252
327.6933	0.1362
327.9039	0.1233
328.1144	0.1214
328.3249	0.1303
328.5354	0.1223
328.7459	0.1291
328.9564	0.1249
329.1669	0.1256
329.3773	0.1225
329.5878	0.1249
329.7982	0.1239
330.0086	0.1314
330.219	0.1266
330.4294	0.1267
330.6398	0.1271
330.8502	0.1353
331.0605	0.1276
331.2708	0.1319
331.4812	0.1221
331.6915	0.1312
331.9018	0.1275
332.1121	0.1318
332.3224	0.1303
332.5326	0.1273
332.7429	0.1271
332.9531	0.1351
333.1633	0.1267
333.3735	0.1296
333.5837	0.1292
333.7939	0.1355
334.0041	0.1284
334.2143	0.1277
334.4244	0.1393
334.6346	0.1301
334.8447	0.1328
335.0548	0.1362
335.2649	0.1359
335.475	0.1376
335.685	0.1359
335.8951	0.1298
336.1051	0.1348
336.3152	0.1379
336.5252	0.1335
336.7352	0.1378
336.9452	0.1367
337.1552	0.1352
337.3652	0.1341
337.5751	0.133
337.7851	0.1398
337.995	0.1399
338.2049	0.1355
338.4148	0.1407
338.6247	0.1416
338.8346	0.1338
339.0445	0.1399
339.2543	0.1355
339.4642	0.1411
339.674	0.1429
339.8838	0.14
340.0936	0.1372
340.3034	0.1358
340.5132	0.1334
340.7229	0.1396
340.9327	0.1501
341.1424	0.1421
341.3522	0.1354
341.5619	0.1444
341.7716	0.1445
341.9813	0.1428
342.1909	0.146
342.4006	0.1463
342.6102	0.1463
342.8199	0.1509
343.0295	0.1417
343.2391	0.1446
343.4487	0.1461
343.6583	0.1549
343.8679	0.1485
344.0774	0.1479
344.287	0.1523
344.4965	0.1523
344.706	0.1538
344.9155	0.1456
345.125	0.1488
345.3345	0.1559
345.544	0.1518
345.7534	0.1567
345.9629	0.1581
346.1723	0.1569
346.3817	0.1497
346.5911	0.1557
346.8005	0.1577
347.0099	0.1597
347.2193	0.1627
347.4286	0.1687
347.638	0.1644
347.8473	0.1666
348.0566	0.1658
348.2659	0.1633
348.4752	0.1611
348.6845	0.1618
348.8937	0.164
349.103	0.1655
349.3122	0.1658
349.5214	0.1687
349.7306	0.1733
349.9398	0.1648
350.149	0.1611
350.3582	0.1656
350.5674	0.1681
350.7765	0.1747
350.9856	0.1671
351.1948	0.1754
351.4039	0.1709
351.613	0.1723
351.822	0.176
352.0311	0.1756
352.2402	0.1728
352.4492	0.1797
352.6582	0.1756
352.8672	0.1796
353.0762	0.1798
353.2852	0.1826
353.4942	0.1835
353.7032	0.1801
353.9121	0.1788
354.1211	0.1788
354.33	0.189
354.5389	0.1816
354.7478	0.1791
354.9567	0.1833
355.1655	0.178
355.3744	0.1843
355.5833	0.1868
355.7921	0.189
356.0009	0.1895
356.2097	0.1753
356.4185	0.1828
356.6273	0.1885
356.8361	0.1931
357.0448	0.1968
357.2536	0.1905
357.4623	0.1856
357.671	0.1992
357.8797	0.1867
358.0884	0.1863
358.2971	0.1939
358.5057	0.1935
358.7144	0.1976
358.923	0.1908
359.1316	0.1975
359.3402	0.2014
359.5488	0.2025
359.7574	0.2048
359.966	0.2003
360.1746	0.1984
360.3831	0.2094
360.5916	0.199
360.8002	0.2125
361.0087	0.199
361.2172	0.2098
361.4256	0.2029
361.6341	0.2098
361.8426	0.2088
362.051	0.2129
362.2594	0.2039
362.4678	0.2134
362.6762	0.214
362.8846	0.2185
363.093	0.2168
363.3014	0.2192
363.5097	0.217
363.718	0.226
363.9264	0.2215
364.1347	0.2179
364.343	0.2295
364.5513	0.2268
364.7595	0.228
364.9678	0.2214
365.176	0.2281
365.3842	0.2342
365.5925	0.2297
365.8007	0.234
366.0089	0.2339
366.217	0.228
366.4252	0.2289
366.6333	0.238
366.8415	0.2371
367.0496	0.2291
367.2577	0.2411
367.4658	0.2298
367.6739	0.235
367.882	0.2431
368.09	0.2355
368.2981	0.2503
368.5061	0.2512
368.7141	0.2363
368.9221	0.2482
369.1301	0.2383
369.3381	0.2545
369.5461	0.2555
369.754	0.2509
369.962	0.2484
370.1699	0.2542
370.3778	0.2605
370.5857	0.2555
370.7936	0.2543
371.0015	0.2546
371.2093	0.2623
371.4172	0.2557
371.625	0.2495
371.8328	0.2506
372.0406	0.2659
372.2484	0.2646
372.4562	0.2733
372.664	0.262
372.8717	0.2604
373.0795	0.268
373.2872	0.2685
373.4949	0.272
373.7026	0.2695
373.9103	0.2632
374.118	0.2642
374.3256	0.2732
374.5333	0.2707
374.7409	0.2764
374.9485	0.2733
375.1561	0.2772
375.3637	0.2759
375.5713	0.2812
375.7789	0.2729
375.9864	0.2781
376.194	0.284
376.4015	0.2754
376.609	0.2849
376.8165	0.2843
377.024	0.2881
377.2315	0.2827
377.4389	0.279
377.6464	0.2818
377.8538	0.276
378.0612	0.2768
378.2686	0.2857
378.476	0.2905
378.6834	0.2899
378.8908	0.2852
379.0981	0.289
379.3055	0.2903
379.5128	0.2855
379.7201	0.296
379.9274	0.2869
380.1347	0.2895
380.342	0.2996
380.5492	0.3006
380.7565	0.2967
380.9637	0.2924
381.1709	0.2892
381.3781	0.2958
381.5853	0.2968
381.7925	0.2935
381.9997	0.298
382.2068	0.2997
382.4139	0.305
382.6211	0.3007
382.8282	0.2969
383.0353	0.3096
383.2424	0.3052
383.4494	0.3063
383.6565	0.3095
383.8635	0.3025
384.0706	0.3092
384.2776	0.304
384.4846	0.309
384.6916	0.3059
384.8986	0.3103
385.1055	0.3242
385.3125	0.3153
385.5194	0.3224
385.7263	0.303
385.9333	0.3164
386.1402	0.3097
386.347	0.3115
386.5539	0.3129
386.7608	0.3023
386.9676	0.3095
387.1744	0.3073
387.3813	0.3165
387.5881	0.2886
387.7948	0.316
388.0016	0.3133
388.2084	0.3118
388.4151	0.3104
388.6219	0.2942
388.8286	0.3002
389.0353	0.3088
389.242	0.3056
389.4487	0.3039
389.6553	0.2899
389.862	0.3012
390.0686	0.2982
390.2753	0.3034
390.4819	0.3041
390.6885	0.3024
390.8951	0.2985
391.1016	0.2953
391.3082	0.2975
391.5147	0.2982
391.7213	0.2875
391.9278	0.2868
392.1343	0.2984
392.3408	0.295
392.5473	0.2914
392.7537	0.2846
392.9602	0.2867
393.1666	0.2818
393.373	0.2816
393.5794	0.2846
393.7858	0.2839
393.9922	0.2833
394.1986	0.2826
394.4049	0.2809
394.6113	0.2756
394.8176	0.2842
395.0239	0.273
395.2302	0.2795
395.4365	0.2864
395.6428	0.2767
395.8491	0.2774
396.0553	0.2671
396.2615	0.2735
396.4678	0.2753
396.674	0.261
396.8802	0.2631
397.0863	0.2718
397.2925	0.2727
397.4987	0.2712
397.7048	0.274
397.9109	0.2584
398.117	0.2622
398.3231	0.2652
398.5292	0.2602
398.7353	0.2541
398.9413	0.2628
399.1474	0.2584
399.3534	0.2602
399.5594	0.2719
399.7654	0.2593
399.9714	0.261
400.1774	0.2665
400.3833	0.2527
400.5893	0.2621
400.7952	0.2671
401.0011	0.2652
401.207	0.2535
401.4129	0.2667
401.6188	0.2606
401.8247	0.2689
402.0305	0.2605
402.2364	0.2713
402.4422	0.2597
402.648	0.2616
402.8538	0.2548
403.0596	0.2588
403.2654	0.2567
403.4711	0.2754
403.6768	0.2603
403.8826	0.2659
404.0883	0.2632
404.294	0.2688
404.4997	0.2602
404.7054	0.2641
404.911	0.2582
405.1167	0.2613
405.3223	0.2522
405.5279	0.2625
405.7335	0.2624
405.9391	0.2593
406.1447	0.2684
406.3502	0.257
406.5558	0.2583
406.7613	0.2625
406.9668	0.2665
407.1724	0.2567
407.3778	0.2583
407.5833	0.2568
407.7888	0.2583
407.9942	0.2584
408.1997	0.2664
408.4051	0.2628
408.6105	0.2547
408.8159	0.255
409.0213	0.2682
409.2267	0.2615
409.432	0.2547
409.6374	0.2482
409.8427	0.2719
410.048	0.2541
410.2533	0.2617
410.4586	0.2524
410.6639	0.2644
410.8691	0.2439
411.0744	0.2639
411.2796	0.2664
411.4848	0.2539
411.69	0.2508
411.8952	0.2578
412.1004	0.259
412.3056	0.2567
412.5107	0.2571
412.7158	0.2665
412.921	0.2661
413.1261	0.2534
413.3312	0.2586
413.5362	0.2653
413.7413	0.2584
413.9464	0.2468
414.1514	0.2547
414.3564	0.2498
414.5614	0.2543
414.7664	0.2458
414.9714	0.2511
415.1764	0.2572
415.3813	0.245
415.5863	0.2594
415.7912	0.2465
415.9961	0.2532
416.201	0.2554
416.4059	0.2435
416.6108	0.2506
416.8156	0.2539
417.0205	0.2504
417.2253	0.2421
417.4301	0.2519
417.6349	0.2482
417.8397	0.2469
418.0445	0.256
418.2492	0.2511
418.454	0.2413
418.6587	0.254
418.8634	0.2505
419.0681	0.2609
419.2728	0.2515
419.4775	0.2509
419.6822	0.2463
419.8868	0.2388
420.0915	0.2459
420.2961	0.2325
420.5007	0.2461
420.7053	0.2438
420.9099	0.2479
421.1144	0.2441
421.319	0.2392
421.5235	0.2377
421.728	0.2503
421.9325	0.2415
422.137	0.2383
422.3415	0.2339
422.546	0.2299
422.7504	0.2331
422.9549	0.2452
423.1593	0.2282
423.3637	0.2277
423.5681	0.2407
423.7725	0.2353
423.9769	0.2356
424.1812	0.22
424.3856	0.2305
424.5899	0.2268
424.7942	0.2194
424.9985	0.223
425.2028	0.2309
425.4071	0.2317
425.6113	0.2213
425.8156	0.221
426.0198	0.2203
426.224	0.223
426.4282	0.2109
426.6324	0.217
426.8366	0.2076
427.0407	0.2179
427.2449	0.2186
427.449	0.2218
427.6531	0.2209
427.8572	0.2171
428.0613	0.2175
428.2654	0.2184
428.4694	0.2081
428.6735	0.1999
428.8775	0.1998
429.0815	0.204
429.2855	0.1931
429.4895	0.2031
429.6935	0.2012
429.8975	0.1924
430.1014	0.1918
430.3053	0.1984
430.5093	0.1895
430.7132	0.1862
430.9171	0.1882
431.1209	0.1881
431.3248	0.1782
431.5286	0.1844
431.7325	0.1863
431.9363	0.176
432.1401	0.1681
432.3439	0.1804
432.5477	0.1728
432.7514	0.1733
432.9552	0.1773
433.1589	0.1671
433.3627	0.1729
433.5664	0.1626
433.7701	0.1667
433.9737	0.1641
434.1774	0.169
434.3811	0.1583
434.5847	0.1601
434.7883	0.1635
434.9919	0.154
435.1955	0.1573
435.3991	0.1604
435.6027	0.1392
435.8062	0.1619
436.0098	0.1406
436.2133	0.14
436.4168	0.1456
436.6203	0.1313
436.8238	0.1285
437.0272	0.1416
437.2307	0.14
437.4341	0.1405
437.6375	0.1354
437.841	0.1251
438.0443	0.1305
438.2477	0.1249
438.4511	0.1255
438.6545	0.1173
438.8578	0.1274
439.0611	0.1289
439.2644	0.1214
439.4677	0.1251
439.671	0.1187
439.8743	0.1167
440.0775	0.1148
440.2808	0.1125
440.484	0.1186
440.6872	0.103
440.8904	0.0989
441.0936	0.1149
441.2967	0.0892
441.4999	0.0947
441.703	0.0948
441.9062	0.0993
442.1093	0.1135
442.3124	0.1036
442.5155	0.1002
442.7185	0.0858
442.9216	0.0897
443.1246	0.0895
443.3276	0.0913
443.5307	0.0845
443.7337	0.0891
443.9366	0.0828
444.1396	0.0864
444.3426	0.0804
444.5455	0.0813
444.7484	0.0695
444.9513	0.0741
445.1542	0.0774
445.3571	0.0777
445.56	0.064
445.7628	0.0725
445.9657	0.0771
446.1685	0.0695
446.3713	0.0689
446.5741	0.0769
446.7769	0.0713
446.9797	0.0659
447.1824	0.068
447.3852	0.0543
447.5879	0.0599
447.7906	0.0516
447.9933	0.0565
448.196	0.0551
448.3986	0.0534
448.6013	0.0452
448.8039	0.0624
449.0066	0.067
449.2092	0.0615
449.4118	0.0556
449.6143	0.054
449.8169	0.042
450.0195	0.0598
450.222	0.0511
450.4245	0.0519
450.627	0.0504
450.8295	0.0405
451.032	0.0463
451.2345	0.0366
451.4369	0.0427
451.6394	0.0416
451.8418	0.0395
452.0442	0.0397
452.2466	0.0349
452.449	0.0372
452.6513	0.0399
452.8537	0.036
453.056	0.0351
453.2583	0.0328
453.4607	0.0321
453.663	0.037
453.8652	0.0236
454.0675	0.0364
454.2697	0.0362
454.472	0.0306
454.6742	0.033
454.8764	0.0391
455.0786	0.0362
455.2808	0.0257
455.4829	0.0237
455.6851	0.0225
455.8872	0.0194
456.0893	0.0318
456.2915	0.0317
456.4935	0.0321
456.6956	0.0224
456.8977	0.0264
457.0997	0.0303
457.3018	0.0211
457.5038	0.0255
457.7058	0.027
457.9078	0.0239
458.1098	0.0206
458.3117	0.0298
458.5137	0.01
458.7156	0.0207
458.9175	0.0293
459.1194	0.0141
459.3213	0.0158
459.5232	0.022
459.725	0.0147
459.9269	0.0136
460.1287	0.01
460.3305	0.0211
460.5323	0.0175
460.7341	0.0167
460.9359	0.007
461.1376	0.0162
461.3394	0.0144
461.5411	0.0207
461.7428	0.0184
461.9445	0.0141
462.1462	0.0195
462.3479	0.0061
462.5495	0.0183
462.7512	0.0226
462.9528	0.0114
463.1544	0.0113
463.356	0.0093
463.5576	0.0256
463.7592	0.0088
463.9607	0.0092
464.1623	0.0085
464.3638	0.0038
464.5653	0.0141
464.7668	0.0203
464.9683	0.0101
465.1697	0.0102
465.3712	0.0094
465.5726	0.0072
465.7741	0.0172
465.9755	0.0158
466.1769	0.0057
466.3782	0.0094
466.5796	0.0132
466.7809	0.01
466.9823	0.0076
467.1836	0.0113
467.3849	0.0132
467.5862	0.0065
467.7875	0.0078
467.9887	0.0128
468.19	0.0098
468.3912	0.0072
468.5924	0.0068
468.7936	0.0057
468.9948	0.0029
469.196	0.0143
469.3972	0.0007
469.5983	-0.0001
469.7994	0.018
470.0006	0.0127
470.2017	0.0116
470.4027	0.0252
470.6038	0.015
470.8049	0.0108
471.0059	0.0103
471.2069	0.0105
471.408	0.0117
471.6089	0.0116
471.8099	0.0076
472.0109	0.0176
472.2119	0.0187
472.4128	0.0054
472.6137	0.0098
472.8146	0.0074
473.0155	0.0084
473.2164	0.0018
473.4173	0.0006
473.6181	-0.0034
473.819	0.0064
474.0198	-0.0014
474.2206	0.0011
474.4214	0.0075
474.6222	-0.0016
474.8229	-0.0027
475.0237	0.0119
475.2244	0.0141
475.4251	0.0023
475.6258	-0.0007
475.8265	0.0137
476.0272	0.0017
476.2278	0.0083
476.4285	0.0084
476.6291	0.0066
476.8297	0.0048
477.0303	-0.0021
477.2309	0.0075
477.4315	0.0072
477.632	-0.0002
477.8326	0.0105
478.0331	0.0091
478.2336	0.0054
478.4341	0.0074
478.6346	0.0015
478.8351	0.0012
479.0355	0.0087
479.236	0.009
479.4364	0.0044
479.6368	0.0009
479.8372	0.0106
480.0376	0.0013
480.2379	0.0086
480.4383	0.002
480.6386	-0.0043
480.8389	0.0045
481.0392	-0.0037
481.2395	0.0136
481.4398	0.0056
481.6401	0.0052
481.8403	-0.0043
482.0405	0.0028
482.2408	0.0049
482.441	0.0037
482.6411	0.0037
482.8413	0.0021
483.0415	0.0024
483.2416	0.0045
483.4417	0.0073
483.6419	0.0004
483.8419	0.0017
484.042	0.0015
484.2421	0.001
484.4422	0.0057
484.6422	0.0065
484.8422	0.003
485.0422	0.0068
485.2422	0.0034
485.4422	0.0018
485.6422	-0.0009
485.8421	0.0009
486.042	0.0081
486.242	-0.0014
486.4419	0.003
486.6417	-0.0015
486.8416	0.0067
487.0415	0.0017
487.2413	-0.0059
487.4411	0.0033
487.641	0.0031
487.8408	0.0117
488.0405	0.0043
488.2403	-0.0012
488.4401	-0.0005
488.6398	0.0005
488.8395	0.0077
489.0392	-0.0041
489.2389	0.009
489.4386	-0.0045
489.6383	0.0044
489.8379	0.0043
490.0376	0.0051
490.2372	0.0084
490.4368	-0.0019
490.6364	0.0005
490.836	0.0017
491.0355	-0.0034
491.2351	0.0019
491.4346	0.0006
491.6341	-0.0047
491.8336	0.0033
492.0331	0.0063
492.2326	0.0055
492.432	0.0016
492.6315	0.0098
492.8309	-0.0036
493.0303	0.0037
493.2297	0.001
493.4291	-0.0003
493.6284	0.0115
493.8278	0.0006
494.0271	0.0056
494.2264	-0.0013
494.4257	0.0003
494.625	0.0007
494.8243	-0.0035
495.0236	0.0037
495.2228	0.0054
495.422	0.0035
495.6213	-0.0035
495.8205	0.0055
496.0196	-0.0022
496.2188	0.0016
496.418	0.0019
496.6171	0.002
496.8162	0.0052
497.0153	0.0097
497.2144	0.0062
497.4135	-0
497.6126	0.0097
497.8116	0.0076
498.0107	0.0087
498.2097	0.0041
498.4087	0.0013
498.6077	0.0016
498.8067	0.0114
499.0056	-0.0015
499.2046	0.0038
499.4035	0.0034
499.6024	0.0003
499.8013	0.0048
500.0002	0.0002
500.199	0.0091
500.3979	-0.0023
500.5967	-0.0002
500.7956	0.0003
500.9944	-0.0034
501.1932	0.0084
501.3919	0.0079
501.5907	0.0073
501.7895	0.0004
501.9882	0.0015
502.1869	0.0103
502.3856	0.0005
502.5843	0.0058
502.783	0.0017
502.9816	0.0052
503.1803	0.0121
503.3789	0.0106
503.5775	0.0033
503.7761	0.0048
503.9747	0.0096
504.1732	-0.0029
504.3718	0.0151
504.5703	0.0093
504.7689	-0.0022
504.9674	0.0008
505.1658	-0
505.3643	0.0135
505.5628	0.0045
505.7612	0.0058
505.9597	-0.0058
506.1581	-0.0091
506.3565	0.0061
506.5549	0.0025
506.7532	-0.0001
506.9516	-0.0011
507.1499	-0.0039
507.3482	0.0014
507.5465	0.0133
507.7448	0.0077
507.9431	0.0065
508.1414	0.0044
508.3396	0.0092
508.5379	-0.0032
508.7361	0.0064
508.9343	0.0142
509.1325	0.0145
509.3306	0.0015
509.5288	-0.0036
509.7269	0.0092
509.9251	-0.0007
510.1232	-0.0017
510.3213	-0.0007
510.5193	0.0019
510.7174	-0.003
510.9154	0.0038
511.1135	0.0022
511.3115	0.0036
511.5095	-0.0004
511.7075	0.0012
511.9055	0.0058
512.1034	-0.0033
512.3014	-0.0015
512.4993	0.005
512.6972	-0.0039
512.8951	-0.0023
513.093	0.0026
513.2908	0.0196
513.4887	0.0012
513.6865	0.005
513.8844	0.0042
514.0822	0.0078
514.2799	-0.003
514.4777	0.0057
514.6755	-0.0095
514.8732	-0.0036
515.0709	0.0073
515.2687	0.0057
515.4664	0.0063
515.664	0.0104
515.8617	0.0061
516.0594	0.0078
516.257	0.0082
516.4546	0.0156
516.6522	0.0016
516.8498	0.0004
517.0474	0.0118
517.2449	0.0048
517.4425	-0.0019
517.64	0.0038
517.8375	0.0096
518.035	-0.002
518.2325	-0
518.43	0.0049
518.6274	0.003
518.8249	0.0038
519.0223	0.0021
519.2197	-0
519.4171	0.0051
519.6145	0.0099
519.8118	-0.0088
520.0092	-0.0092
520.2065	0.0218
520.4038	-0.0018
520.6011	-0.0001
520.7984	0.0083
520.9956	0.0011
521.1929	0.0072
521.3901	0.0069
521.5874	0.0166
521.7846	-0.0025
521.9818	-0.0022
522.1789	0.0049
522.3761	0.0077
522.5732	0.0013
522.7704	-0.0089
522.9675	-0.0042
523.1646	0.002
523.3617	0.0055
523.5587	0.0053
523.7558	-0.0027
523.9528	0.0104
524.1498	0.005
524.3468	0.0151
524.5438	0.0046
524.7408	-0.0094
524.9378	0.0067
525.1347	0.0066
525.3316	0.0023
525.5285	0.0046
525.7254	0.0026
525.9223	0.0059
526.1192	0.0048
526.316	0.0096
526.5129	0.0099
526.7097	-0.0038
526.9065	-0.0077
527.1033	0.0029
527.3	-0.0003
527.4968	0.0046
527.6935	0.0006
527.8903	0.0025
528.087	0.0056
528.2837	0.0049
528.4804	-0.0011
528.677	-0.0011
528.8737	0.003
529.0703	0.001
529.2669	0.0079
529.4635	-0.0011
529.6601	-0.0054
529.8567	0.001
530.0532	-0.004
530.2498	0.0087
530.4463	-0.0086
530.6428	-0.0076
530.8393	0.0139
531.0358	-0.0024
531.2322	-0.0075
531.4287	-0
531.6251	-0.008
531.8215	0.001
532.0179	0.0044
532.2143	0.0104
532.4107	0.0023
532.607	0.002
532.8034	-0.0084
532.9997	-0.0047
533.196	-0.0039
533.3923	0.0154
533.5886	0.0052
533.7848	0.0006
533.9811	-0.0011
534.1773	0.0028
534.3735	0.0035
534.5697	0.0027
534.7659	0.0031
534.9621	0.0005
535.1582	0.0066
535.3544	0.0056
535.5505	0.0094
535.7466	0.0129
535.9427	0.0022
536.1387	0.0003
536.3348	-0.0048
536.5308	-0.0031
536.7269	-0.0057
536.9229	-0.0032
537.1189	0.0068
537.3148	-0.0001
537.5108	0.0002
537.7068	0.0102
537.9027	-0.0143
538.0986	0.0065
538.2945	-0.0077
538.4904	0.0054
538.6863	0.0008
538.8821	0.004
539.078	-0.0023
539.2738	0.0046
539.4696	-0.0033
539.6654	0.0044
539.8611	0.0031
540.0569	0.0009
540.2526	0.0022
540.4484	-0.0076
540.6441	0.0033
540.8398	0.0069
541.0355	-0.0011
541.2311	0.0032
541.4268	0.0079
541.6224	0.0115
541.818	0.0052
542.0136	-0.0002
542.2092	0.0164
542.4048	0.0059
542.6003	-0.0035
542.7959	0.0057
542.9914	0.002
543.1869	0.0026
543.3824	0.0055
543.5779	0.0075
543.7734	0.0145
543.9688	0.0059
544.1642	-0.0005
544.3596	0.0059
544.555	0.0099
544.7504	0.0121
544.9458	0.0051
545.1411	0.0007
545.3365	0.0025
545.5318	0.0002
545.7271	0.0065
545.9224	0.0028
546.1177	0.003
546.3129	0.0005
546.5081	0.0008
546.7034	0.0026
546.8986	0.0035
547.0938	0.0076
547.289	0.0114
547.4841	0.0028
547.6793	0.0063
547.8744	0.0083
548.0695	-0.0071
548.2646	0.0013
548.4597	0.0004
548.6548	0.0127
548.8498	0.0111
549.0448	0.0011
549.2399	0.0122
549.4349	-0.0022
549.6298	0.0042
549.8248	0.0011
550.0198	-0.0012
550.2147	0.0109
550.4096	-0.0016
550.6045	0.0025
550.7994	0.003
550.9943	0.0004
551.1892	-0.0104
551.384	0.0003
551.5788	0.0078
551.7737	0.0039
551.9685	-0.0017
552.1632	-0.0036
552.358	0.0006
552.5528	0.0045
552.7475	-0.0019
552.9422	0.007
553.1369	0.0118
553.3316	0.0066
553.5263	0.0029
553.7209	-0.0056
553.9156	0.001
554.1102	0.002
554.3048	0.0046
554.4994	0.0064
554.694	0.0005
554.8885	0.0009
555.0831	0.0132
555.2776	0.0117
555.4721	0.0013
555.6666	0.0023
555.8611	0.0022
556.0555	-0.001
556.25	0.0106
556.4444	-0.0083
556.6388	0.0053
556.8332	0.0022
557.0276	0.0034
557.222	-0.0008
557.4163	0.0042
557.6107	0.0057
557.805	-0.007
557.9993	0.0084
558.1936	-0.0009
558.3879	0.0033
558.5821	0.0074
558.7764	0.0003
558.9706	0.006
559.1648	0.0003
559.359	-0.003
559.5532	0.0074
559.7473	0.0019
559.9415	0.0028
560.1356	0.0173
560.3297	-0.007
560.5238	0.0045
560.7179	0.0027
560.9119	0.006
561.106	-0.0084
561.3	0.0078
561.494	-0.0037
561.688	0.0018
561.882	0.0036
562.076	0.0098
562.2699	0.0092
562.4639	0.0053
562.6578	0.0001
562.8517	0.0024
563.0456	0.0043
563.2395	0.0099
563.4333	0.007
563.6272	0.0059
563.821	0.0088
564.0148	-0.006
564.2086	0.0001
564.4024	0.0015
564.5961	0.0067
564.7899	0.0086
564.9836	0.0057
565.1773	0.0025
565.371	-0.0051
565.5647	0.0051
565.7584	0.02
565.952	-0.0015
566.1456	0.0036
566.3393	0.0038
566.5329	0.0046
566.7264	0.0069
566.92	-0.0068
567.1136	-0.0042
567.3071	-0.004
567.5006	0.006
567.6941	0.0046
567.8876	0.0028
568.0811	0.0168
568.2745	-0.0024
568.468	0.0049
568.6614	0.0129
568.8548	0.0093
569.0482	0.004
569.2416	0.007
569.4349	-0.0003
569.6283	0.0051
569.8216	0.0036
570.0149	0.0002
570.2082	0.0102
570.4015	0.0032
570.5947	0.0038
570.788	0.0015
570.9812	-0.0007
571.1744	0.0038
571.3676	0.0052
571.5608	0.0042
571.754	0.0069
571.9471	0.0074
572.1402	0.0037
572.3333	0.0002
572.5264	0.0018
572.7195	-0.0012
572.9126	0.0019
573.1057	0.0033
573.2987	-0.0016
573.4917	0.0011
573.6847	-0.0007
573.8777	0.0061
574.0707	0.0013
574.2636	0.0037
574.4566	0.0004
574.6495	-0.0014
574.8424	0.0013
575.0353	0.0034
575.2281	0.0069
575.421	-0.0034
575.6138	0.0011
575.8067	0.003
575.9995	-0.0024
576.1923	0.008
576.385	0.0031
576.5778	0.0068
576.7706	0.0073
576.9633	0.0062
577.156	-0.0014
577.3487	0.0003
577.5414	0.0031
577.734	0.0002
577.9267	0.0063
578.1193	0.0085
578.3119	-0.0036
578.5045	0.0032
578.6971	0.0003
578.8897	-0.0001
579.0822	0.0027
579.2747	0.0007
579.4673	0.0034
579.6598	0.002
579.8522	0.0026
580.0447	0.0081
580.2372	0.0076
580.4296	0.0024
580.622	0
580.8144	0.003
581.0068	0.004
581.1992	0.0003
581.3915	0.0003
581.5839	0.0033
581.7762	0.0015
581.9685	0.0013
582.1608	0.003
582.353	0.0045
582.5453	0.0045
582.7375	0.0056
582.9298	-0.0056
583.122	-0.0003
583.3142	0.0044
583.5063	0.0016
583.6985	0.0019
583.8906	0.0017
584.0827	0.0042
584.2749	-0.0025
584.4669	0.0041
584.659	0.0066
584.8511	0.0065
585.0431	0.0032
585.2352	0.0043
585.4272	0.0047
585.6192	0.0045
585.8111	-0.0025
586.0031	0.0006
586.195	0.0006
586.387	0.0045
586.5789	0.0037
586.7708	0.0041
586.9627	0.0041
587.1545	0.0031
587.3464	0.0029
587.5382	-0.0021
587.73	0.006
587.9218	0.0019
588.1136	-0.0012
588.3053	0.0026
588.4971	0.0025
588.6888	-0.0062
588.8805	-0.0016
589.0722	0.0094
589.2639	0.002
589.4556	0.0078
589.6472	0.0044
589.8389	0.0035
590.0305	0.0029
590.2221	0.0051
590.4137	0.0031
590.6052	-0.0003
590.7968	0.002
590.9883	0.0025
591.1798	0.003
591.3713	0.0012
591.5628	0.0054
591.7543	0.0067
591.9458	0.005
592.1372	0.0022
592.3286	-0.0013
592.52	0.0026
592.7114	0.0012
592.9028	0.0039
593.0941	0.0037
593.2855	0.001
593.4768	0.0046
593.6681	0.0069
593.8594	0.0039
594.0506	0.0021
594.2419	0.003
594.4331	0.0003
594.6244	0.0047
594.8156	0.0032
595.0067	-0.0013
595.1979	0.0042
595.3891	0.0063
595.5802	0.0096
595.7713	0.0046
595.9624	0.0059
596.1535	0.0049
596.3446	-0.0059
596.5357	0.0029
596.7267	0.0002
596.9177	0.0018
597.1087	-0.0027
597.2997	0.0068
597.4907	-0.0019
597.6817	0.0061
597.8726	0.0084
598.0635	-0.0004
598.2544	0.0028
598.4453	0.0027
598.6362	0.0054
598.827	0.0017
599.0179	0.0033
599.2087	0.0113
599.3995	0.0112
599.5903	0.0061
599.7811	0.0062
599.9718	0.0008
600.1626	-0.0009
600.3533	-0.0015
600.544	0.0056
600.7347	0.0063
600.9254	0.0079
601.116	0.0022
601.3067	0.0028
601.4973	0.0057
601.6879	0.0062
601.8785	0.009
602.0691	-0.0005
602.2596	0.0041
602.4502	-0.0001
602.6407	0.0023
602.8312	0.0037
603.0217	0.0035
603.2122	0.0077
603.4027	0.0018
603.5931	-0.0011
603.7835	0.0064
603.9739	-0.0007
604.1643	0.0036
604.3547	0.0066
604.5451	0.0023
604.7354	-0.0066
604.9257	-0.0038
605.116	-0.0064
605.3063	0.002
605.4966	-0.0023
605.6869	0.006
605.8771	0.003
606.0673	0.0041
606.2575	-0.0016
606.4477	-0.0015
606.6379	-0.0091
606.8281	-0.0052
607.0182	0.0007
607.2083	0.0027
607.3985	0.0021
607.5885	0.0017
607.7786	0.0049
607.9687	0.0042
608.1587	0.0048
608.3488	-0.0026
608.5388	-0.004
608.7288	-0.0028
608.9187	0.0036
609.1087	0.0102
609.2986	0.0077
609.4886	0.0034
609.6785	-0.0006
609.8684	-0.0024
610.0582	-0.0025
610.2481	-0.0058
610.4379	0.0054
610.6278	-0.0003
610.8176	0.0071
611.0074	0.0023
611.1971	0.0038
611.3869	0.0073
611.5766	-0.0017
611.7664	0.0086
611.9561	0.0003
612.1458	0.0046
612.3354	0.0046
612.5251	0.0015
612.7147	0.0106
612.9044	0.0004
613.094	-0.0001
613.2836	0.0015
613.4731	0.0013
613.6627	0.0113
613.8522	0.0054
614.0417	0.0052
614.2313	0.0031
614.4207	-0.0001
614.6102	0.0063
614.7997	0.0131
614.9891	0.0031
615.1785	-0.0044
615.3679	0.0061
615.5573	0.0052
615.7467	-0.0039
615.9361	-0.0013
616.1254	0.0098
616.3147	0.0051
616.504	0.0039
616.6933	-0.0041
616.8826	0.0012
617.0718	0.0088
617.2611	-0.0025
617.4503	-0.0009
617.6395	-0.0007
617.8287	-0.0004
618.0179	0.0033
618.207	0.0097
618.3961	-0.0035
618.5853	0.0028
618.7744	0.0015
618.9634	0.0094
619.1525	0.0078
619.3416	-0.0005
619.5306	0.0067
619.7196	0.007
619.9086	0.0015
620.0976	-0.0049
620.2866	0.0011
620.4755	0.0029
620.6645	0.0144
620.8534	-0.0004
621.0423	0.003
621.2312	-0.002
621.42	0.0072
621.6089	0.0061
621.7977	0.0165
621.9865	0.0054
622.1753	-0.0044
622.3641	-0.0018
622.5529	0.0002
622.7416	-0.002
622.9303	-0.002
623.1191	-0.0016
623.3078	0.0019
623.4964	-0.0015
623.6851	0.0056
623.8737	-0.0011
624.0624	-0.0102
624.251	0.0036
624.4396	-0.0011
624.6282	0.0078
624.8167	0.0006
625.0053	0.0065
625.1938	-0.003
625.3823	0.011
625.5708	-0.0105
625.7593	-0.0035
625.9477	0.0073
626.1362	0.001
626.3246	-0.0065
626.513	0.0037
626.7014	0.0078
626.8898	0.0125
627.0781	0.002
627.2665	0.0133
627.4548	-0.0032
627.6431	0.0098
627.8314	0.0054
628.0197	0.0001
628.2079	-0.0003
628.3962	0.0064
628.5844	-0.0072
628.7726	-0.0087
628.9608	0.0039
629.1489	0.0109
629.3371	-0.0055
629.5252	0.0052
629.7134	-0.0054
629.9015	0.0086
630.0895	-0.0123
630.2776	0.0036
630.4657	-0.0005
630.6537	0.0041
630.8417	-0.0035
631.0297	0.014
631.2177	0.0014
631.4057	-0.008
631.5936	-0.0039
631.7815	0.0001
631.9695	0.0119
632.1574	-0.0067
632.3452	0.0143
632.5331	0.0006
632.7209	0.0095
632.9088	-0.0075
633.0966	0.0235
633.2844	0.0048
633.4722	0.0145
633.6599	0.0179
633.8477	0.0052
634.0354	0.0069
634.2231	-0.003
634.4108	-0.0057
634.5985	0.0045
634.7861	0.0145
634.9738	-0.0062
635.1614	0.013
635.349	0.006
635.5366	0.0207
635.7242	-0.0092
635.9117	-0.0003
636.0993	0.0113
636.2868	-0.0068
636.4743	0.004
636.6618	-0.0062
636.8492	0.0143
637.0367	-0.0053
637.2241	-0.0059
637.4115	0.0179
637.5989	-0.005
637.7863	0.03
637.9737	0.0068
638.161	0.0132
638.3484	-0.0153
638.5357	-0.0014
638.723	0.003
638.9103	-0.0234
639.0975	0.0039
639.2848	0.0035
639.472	0.0163
639.6592	-0.009
639.8464	-0.0016
640.0336	0.016
640.2208	0.0035
640.4079	-0.008
640.595	-0.0104
640.7821	0.0183
640.9692	0.0031
641.1563	0.0054
641.3434	0.0145
641.5304	0.0075
641.7174	0.0149
641.9044	0.0145
642.0914	0.0191
642.2784	-0.0202
642.4653	-0.0035
642.6523	0.0141
642.8392	-0.0007
643.0261	0.005
643.213	-0.004
643.3999	0.0065
643.5867	0.0146
643.7735	0.0184
643.9604	0.0252
644.1472	0.014
644.3339	0.002
644.5207	-0.0172
644.7075	-0.0095
644.8942	-0.0126
645.0809	0.0047
645.2676	-0.0044
645.4543	0.0162
645.6409	0.0303
645.8276	0.0105
646.0142	0.0064
646.2008	0.0029
646.3874	-0.002
646.574	-0.0083
646.7605	0.0028
646.9471	-0.0083
647.1336	-0.0212
647.3201	0.0024
647.5066	0.02
647.6931	0.0151
647.8795	-0.001
648.0659	0.0106
648.2524	0.0152
648.4388	-0.0055
648.6252	0.0057
648.8115	-0.0114
648.9979	0.011
649.1842	0.0057
649.3705	0.01
649.5568	-0.0136
649.7431	-0.0098
649.9294	-0.0097
650.1156	-0.0054
650.3018	0.012
650.488	0.011
650.6742	0.0121
650.8604	0.0002
651.0466	0.0101
651.2327	-0.0036
651.4188	-0.0099
651.6049	0.0159
651.791	0.0259
651.9771	0.0123
652.1632	0.0094
652.3492	-0.0016
652.5352	0.0102
652.7212	0.0145
652.9072	-0.0069
653.0932	0.0013
653.2791	0.0122
653.465	0.0023
653.651	0.0187
653.8369	-0.0003
654.0227	-0.0108
654.2086	0.0068
654.3944	0.0104
654.5803	0.0036
654.7661	0.002
654.9519	0.0011
655.1377	0.0003
655.3234	0.0003
655.5092	0.0003
655.6949	0.0003
655.8806	0.0003
656.0663	0.0003
656.2519	0.0003
656.4376	0.0003
656.6232	0.0003
656.8088	0.0003
656.9945	0.0003
657.18	0.0003
657.3656	0.0003
657.5511	0.0003
657.7367	0.0003
657.9222	0.0003
658.1077	0.0003
658.2932	0.0003
658.4786	0.0003
658.6641	0.0003
658.8495	0.0003
659.0349	0.0003
659.2203	0.0003
659.4057	0.0003
659.591	0.0652
659.7764	0.0136
659.9617	0.0124
660.147	0.0025
660.3323	-0.0016
660.5176	0.0059
660.7028	-0.0127
660.888	0.0045
661.0733	0.0071
661.2585	-0.0103
661.4436	-0.0094
661.6288	0.0079
661.8139	-0.01
661.9991	-0.0288
662.1842	-0.003
662.3693	0.0124
662.5544	-0.0151
662.7394	0.0063
662.9245	0.0027
663.1095	-0.017
663.2945	-0.015
663.4795	-0.0135
663.6644	-0.011
663.8494	-0.0014
664.0343	0.0243
664.2193	-0.0071
664.4042	0.0075
664.589	0.0172
664.7739	-0.0085
664.9587	-0.0108
665.1436	-0.0289
665.3284	0.0037
665.5132	-0.0241
665.698	0.0115
665.8827	0.0107
666.0675	-0.0091
666.2522	-0.0074
666.4369	-0.0062
666.6216	0.0078
666.8063	0.0016
666.9909	0.0036
667.1756	-0.0034
667.3602	0.0006
667.5448	0.0158
667.7294	0.0112
667.9139	0.0016
668.0985	0.0078
668.283	0.0044
668.4675	0.0174
668.652	0.0097
668.8365	-0.0119
669.0209	0.0022
669.2054	0.0092
669.3898	0.018
669.5742	0.019
669.7586	0.0146
669.943	-0.004
670.1273	0.0063
670.3117	0.0154
670.496	-0.001
670.6803	0.0052
670.8646	-0.0337
671.0488	0.0176
671.2331	-0.0211
671.4173	0.0005
671.6015	0.0039
671.7857	0.0136
671.9699	0.0083
672.1541	-0.0002
672.3382	0.0045
672.5223	0.0059
672.7064	-0.0064
672.8905	0.0134
673.0746	0.0094
673.2587	0.0213
673.4427	0.0208
673.6267	0.0053
673.8107	0.0259
673.9947	0.0213
674.1787	0.0113
674.3626	-0.0118
674.5465	0.0141
674.7304	-0.0084
674.9143	0.0061
675.0982	-0.0041
675.2821	-0.0066
675.4659	-0.0056
675.6497	-0.0033
675.8335	-0.0177
676.0173	0.013
676.2011	0.0182
676.3849	-0.0116
676.5686	0.0006
676.7523	0.0006
676.936	0.0214
677.1197	-0.022
677.3034	0.0343
677.487	-0.0012
677.6706	0.0037
677.8542	-0.019
678.0378	0.0025
678.2214	0.0133
678.405	0.0071
678.5885	0.0142
678.772	-0.0105
678.9555	-0.011
679.139	0.0072
679.3225	-0.0017
679.5059	-0.0037
679.6894	0.0053
679.8728	-0.0015
680.0562	-0.0034
680.2395	-0.0045
680.4229	-0.0033
680.6062	0.0065
680.7896	0.0083
680.9729	0.01
681.1562	-0.0208
681.3394	-0.0046
681.5227	0.0032
681.7059	0.0027
681.8891	0.0021
682.0723	-0.0059
682.2555	0.019
682.4387	0.0187
682.6218	0.0101
682.805	0.0145
682.9881	0.0174
683.1712	0.015
683.3542	0.0073
683.5373	-0.0138
683.7203	0.0271
683.9034	-0.0093
684.0864	-0.0052
684.2694	-0.0104
684.4523	-0.0023
684.6353	-0
684.8182	0.0045
685.0011	0.0057
685.184	-0.0047
685.3669	0.0087
685.5498	-0.0026
685.7326	-0.0036
685.9154	-0.0149
686.0982	0.0051
686.281	-0.0248
686.4638	-0.004
686.6465	-0.0122
686.8293	-0.0021
687.012	0.015
687.1947	0.0106
687.3774	0.0043
687.56	-0.0172
687.7427	-0.0009
687.9253	0.0094
688.1079	-0.0068
688.2905	-0.0155
688.4731	0.0098
688.6556	0.0025
688.8382	-0.0272
689.0207	-0.0136
689.2032	0.0119
689.3857	-0.0045
689.5681	0.0052
689.7506	0.0107
689.933	0.0207
690.1154	-0.0001
690.2978	0.0055
690.4802	0.0202
690.6626	0.0004
690.8449	0.0251
691.0272	0.0033
691.2095	-0.0209
691.3918	0.003
691.5741	0.0143
691.7563	0.0006
691.9386	0.0279
692.1208	0.0086
692.303	0.0052
692.4852	0.0023
692.6673	0.0046
692.8495	-0.0168
693.0316	0.005
693.2137	0.0079
693.3958	0.0088
693.5778	0.0259
693.7599	0.0009
693.9419	-0.0059
694.1239	-0.0165
694.3059	0.0186
694.4879	0.0214
694.6699	-0.0018
694.8518	0.0018
695.0337	0.0095
695.2157	0.0114
695.3975	-0.001
695.5794	-0.0179
695.7613	0.0298
695.9431	-0.0056
696.1249	0.0237
696.3067	-0.014
696.4885	0.0084
696.6703	-0.0137
696.852	0.0098
697.0337	0.0208
697.2154	-0.0047
697.3971	0.0182
697.5788	0.0097
697.7605	-0.0082
697.9421	0.0262
698.1237	0.0102
698.3053	-0.0198
698.4869	-0.0001
698.6685	0.0117
698.85	0.0186
699.0315	-0.0166
699.213	0.0042
699.3945	0.02
699.576	0.0137
699.7575	0.0158
699.9389	-0.0105
700.1203	0.019
700.3017	0.027
700.4831	0.0183
700.6645	0.029
700.8458	0.0115
701.0271	0.0096
701.2084	-0.0048
701.3897	0.0213
701.571	-0.0076
701.7523	0.0051
701.9335	-0.0059
702.1147	0.0082
702.2959	-0.0031
702.4771	0.0047
702.6583	0.0088
702.8394	-0.0205
703.0205	0.032
703.2016	-0.0097
703.3827	0.0124
703.5638	-0.0024
703.7449	-0.0027
703.9259	0.0112
704.1069	-0.0259
704.2879	0.0298
704.4689	-0.0058
704.6499	0.035
704.8308	-0.012
705.0117	0.0181
705.1927	-0.0094
705.3735	-0.0016
705.5544	0.0094
705.7353	-0.0113
705.9161	-0.0187
706.0969	0.0128
706.2777	0.0103
706.4585	-0.0097
706.6393	0.0138
706.82	0.0067
707.0007	0.0048
707.1815	0.0032
707.3621	0.0375
707.5428	0.0008
707.7235	-0.0151
707.9041	0.024
708.0847	0.0209
708.2653	0.0246
708.4459	0.0041
708.6265	0.0132
708.807	0.027
708.9875	0.0058
709.168	0.0132
709.3485	0.0106
709.529	0.0246
709.7095	-0.0215
709.8899	-0.0085
710.0703	0.0021
710.2507	-0.0068
710.4311	-0.0131
710.6115	0.0099
710.7918	0.0009
710.9721	-0.0053
711.1524	-0.0221
711.3327	0.0151
711.513	0.0287
711.6932	-0.0138
711.8735	0.0308
712.0537	-0.0005
712.2339	0.0003
712.4141	0.0025
712.5942	-0.0059
712.7744	0.0212
712.9545	0.0228
713.1346	0.0218
713.3147	0.0036
713.4947	-0.0023
713.6748	-0.0009
713.8548	0.0158
714.0348	0.0255
714.2148	0.0106
714.3948	0.0051
714.5748	0.0096
714.7547	0.013
714.9346	0.0332
715.1145	-0.0317
715.2944	-0.0049
715.4743	0.0072
715.6541	-0.0178
715.834	0.0375
716.0138	0.0139
716.1936	-0.0249
716.3733	0.0225
716.5531	0.0015
716.7328	0.0445
716.9126	-0.0006
717.0923	-0.0201
717.2719	0.0348
717.4516	-0.0103
717.6312	-0.016
717.8109	0.0137
717.9905	-0.0155
718.1701	0.016
718.3496	-0.0013
718.5292	0.0044
718.7087	0.0194
718.8882	0.0196
719.0677	-0.0016
719.2472	-0.0143
719.4267	-0.0111
719.6061	-0.0263
719.7856	0.021
719.965	0.011
720.1443	-0.0009
720.3237	-0.0129
720.5031	-0.0039
720.6824	0.0037
720.8617	-0.0005
721.041	0.0059
721.2203	0.0114
721.3995	0.008
721.5788	0.0147
721.758	-0.018
721.9372	0.0068
722.1164	0.0156
722.2956	0.0047
722.4747	0.0083
722.6538	0.0115
722.8329	0.0138
723.012	-0.0018
723.1911	0.0229
723.3702	0.0402
723.5492	0.0038
723.7282	-0.0153
723.9072	-0.0035
724.0862	-0.0129
724.2652	0.0064
724.4441	0.0216
724.623	0.009
724.8019	0.0042
724.9808	0.0023
725.1597	-0.0062
725.3385	0.0214
725.5174	0.0179
725.6962	0.004
725.875	-0.0086
726.0538	0.0245
726.2325	0.0158
726.4112	-0.0311
726.59	-0.0039
726.7687	-0.0199
726.9474	0.0093
727.126	0.0126
727.3047	-0.0242
727.4833	0.0156
727.6619	-0.0061
727.8405	0.0177
728.0191	0.019
728.1976	-0.0081
728.3762	0.0057
728.5547	0.0061
728.7332	0.0265
728.9116	-0.0018
729.0901	0.0238
729.2686	-0.0143
729.447	-0.0092
729.6254	-0.0069
729.8038	0.0127
729.9821	0.013
730.1605	0.0157
730.3388	-0.0114
730.5171	0.0183
730.6954	-0.0251
730.8737	0.0147
731.0519	-0.0148
731.2302	0.001
731.4084	-0.018
731.5866	0.004
731.7648	-0.0013
731.9429	0.0186
732.1211	-0.0018
732.2992	0.006
732.4773	0.0146
732.6554	-0.0243
732.8335	0.0207
733.0115	0.006
733.1896	0.0002
733.3676	0.0172
733.5456	-0.0117
733.7235	-0.004
733.9015	0.0145
734.0794	-0.0021
734.2574	-0.0365
734.4353	0.0024
734.6131	0.0019
734.791	-0.0136
734.9689	-0.004
735.1467	-0.0258
735.3245	0.0029
735.5023	0.0095
735.68	0.0021
735.8578	0.0166
736.0355	-0.0001
736.2132	0.0147
736.3909	0.0134
736.5686	-0.006
736.7463	-0.0235
736.9239	0.0157
737.1015	0.0128
737.2791	0.0264
737.4567	0.011
737.6343	0.0031
737.8118	0.012
737.9894	0.0031
738.1669	-0.0021
738.3444	0.0259
738.5218	-0.0233
738.6993	-0.0071
738.8767	0.0121
739.0541	-0.0087
739.2315	-0.011
739.4089	0.0261
739.5863	-0.0101
739.7636	-0.0049
739.9409	0.0069
740.1182	-0.0081
740.2955	-0.0028
740.4728	0.0078
740.65	-0.0134
740.8272	0.0048
741.0044	-0.0007
741.1816	0.0196
741.3588	-0.0289
741.5359	-0.0051
741.7131	0.0138
741.8902	-0.0083
742.0673	-0.0206
742.2444	0.0348
742.4214	0.0079
742.5985	-0.0088
742.7755	0.0157
742.9525	-0.0276
743.1295	-0.0026
743.3064	-0.0215
743.4834	0.0176
743.6603	0.0259
743.8372	-0.0519
744.0141	0.0379
744.191	0.0127
744.3678	-0.0344
744.5446	-0.0028
744.7215	0.0185
744.8982	0.0087
745.075	0.0626
745.2518	0.0058
745.4285	0.0107
745.6052	-0.0305
745.7819	0.0079
745.9586	0.0216
746.1353	-0.0067
746.3119	-0.0144
746.4885	0.0278
746.6651	0.0311
746.8417	-0.0076
747.0183	0.0329
747.1948	0.0234
747.3714	0.022
747.5479	0.0275
747.7244	0.0038
747.9008	-0.0024
748.0773	0.0404
748.2537	0.0196
748.4301	0.0368
748.6065	-0.0019
748.7829	-0.0133
748.9593	-0.0062
749.1356	0.0034
749.3119	0.0115
749.4882	0.0272
749.6645	0.0165
749.8408	-0.0078
750.017	0.0126
750.1933	-0.0408
750.3695	0.0068
750.5457	-0.0131
750.7218	-0.0185
750.898	-0.0274
751.0741	-0.0029
751.2502	0.0036
751.4263	-0.0207
751.6024	0.0032
751.7784	-0.0091
751.9545	-0.0052
752.1305	-0.0016
752.3065	0.0089
752.4825	0.0027
752.6584	0.0011
752.8344	0.0115
753.0103	-0.0458
753.1862	0.0167
753.3621	0.0045
753.5379	-0.0028
753.7138	0.0006
753.8896	0.0323
754.0654	0.0028
754.2412	0.0108
754.417	0.0283
754.5927	0.0155
754.7685	0.0034
754.9442	-0.0115
755.1199	0.0126
755.2956	0.0128
755.4712	0.0038
755.6469	0.0051
755.8225	-0.002
755.9981	0.0056
756.1736	-0.0081
756.3492	-0.0109
756.5248	0.0089
756.7003	-0.007
756.8758	0.014
757.0513	0.0066
757.2267	0.008
757.4022	-0.0098
757.5776	-0.0052
757.753	0.0172
757.9284	0.0048
758.1038	0.0217
758.2791	0.0069
758.4545	-0.0032
758.6298	0.0037
758.8051	0.0162
758.9803	-0.0062
759.1556	-0.0041
759.3308	0.0079
759.506	-0.0086
759.6812	0.0047
759.8564	0.0116
760.0316	-0.0112
760.2067	0.0042
760.3819	0.0042
760.557	-0.0111
760.732	0.0008
760.9071	0.022
761.0821	-0.0164
761.2572	0.0143
761.4322	0.0153
761.6072	-0.0048
761.7821	-0.0301
761.9571	-0.0054
762.132	-0.0046
762.3069	0.0405
762.4818	0.0229
762.6567	-0.0048
762.8316	0.0037
763.0064	-0.0145
763.1812	0.0116
763.356	0.001
763.5308	0.0336
763.7055	0.0216
763.8803	-0.0029
764.055	0.002
764.2297	-0.0252
764.4044	-0.0031
764.579	-0.0042
764.7537	0.0101
764.9283	0.0231
765.1029	-0.0018
765.2775	0.0002
765.4521	0.003
765.6266	-0.001
765.8011	0.0207
765.9756	0.0213
766.1501	0.0045
766.3246	0.026
766.4991	-0.0016
766.6735	0.0291
766.8479	-0.0153
767.0223	0.0177
767.1967	0.009
767.371	0.0145
767.5454	0.0137
767.7197	0.0215
767.894	-0.0033
768.0683	0.0108
768.2425	0.0171
768.4168	-0.0087
768.591	0.0031
768.7652	0.0129
768.9394	0.0003
769.1135	-0.0171
769.2877	0.0315
769.4618	0.0399
769.6359	0.0079
769.81	0.0213
769.984	0.0222
770.1581	-0.0016
770.3321	0.0214
770.5061	-0.0152
770.6801	0.0043
770.8541	0.0079
771.028	0.0273
771.202	0.0278
771.3759	-0.0066
771.5498	0.0271
771.7236	0.0107
771.8975	0.0161
772.0713	0.0059
772.2451	-0.0238
772.4189	0.0172
772.5927	0.003
772.7665	0.0024
772.9402	0.0186
773.1139	-0.0169
773.2876	-0.0355
773.4613	0.0332
773.635	0.0116
773.8086	-0.0024
773.9822	0.0017
774.1558	0.0358
774.3294	0.0214
774.503	0.0442
774.6765	0.0039
774.8501	0.0361
775.0236	0.0112
775.1971	0.006
775.3705	-0.0207
775.544	0.0324
775.7174	0.0355
775.8908	0.0176
776.0642	0.0182
776.2376	0.0065
776.4109	0.0128
776.5843	-0.0011
776.7576	0.0083
776.9309	0.0091
777.1041	-0.0659
777.2774	0.0081
777.4506	-0.0078
777.6238	-0.0115
777.797	0.0259
777.9702	0.0172
778.1434	0.0005
778.3165	-0.0311
778.4896	-0.0316
778.6627	0.0487
778.8358	-0.0221
779.0089	-0.0224
779.1819	0.031
779.3549	0.017
779.5279	-0.0192
779.7009	0.0502
779.8739	0.0686
780.0468	0.0012
780.2197	0.0059
780.3926	-0.0175
780.5655	0.032
780.7384	0.0188
780.9112	0.0386
781.0841	0.0188
781.2569	0.0183
781.4297	0.0086
781.6024	0.029
781.7752	0.0306
781.9479	0.047
782.1206	-0.0207
782.2933	0.0452
782.466	0.0134
782.6386	-0.0208
782.8113	0.0164
782.9839	-0.0296
783.1565	0.0294
783.329	-0.0183
783.5016	0.0027
783.6741	-0.0062
783.8466	0.0093
784.0191	0.0053
784.1916	-0.0217
784.3641	-0.0307
784.5365	0.0193
784.7089	-0.015
784.8813	0.07
785.0537	0.0252
785.2261	0.0013
785.3984	0.0153
785.5707	0.0327
785.743	0.0279
785.9153	0.0013
786.0876	-0.001
786.2598	-0.0156
786.432	-0.0296
786.6042	0.0403
786.7764	0.0119
786.9486	-0.0198
787.1207	0.0751
787.2928	0.0554
787.4649	0.0143
787.637	-0.0001
787.8091	-0.0077
787.9811	0.0054
788.1532	0.0482
788.3252	-0.0007
788.4972	-0.0034
788.6691	0.0057
788.8411	0.0152
789.013	-0.0173
789.1849	-0.0223
789.3568	0.0022
789.5287	0.0817
789.7005	-0.0468
789.8723	-0.0077
790.0442	-0.0002
790.2159	0.007
790.3877	0.0496
790.5595	0.0167
790.7312	0.016
790.9029	0.0165
791.0746	0.0182
791.2463	-0.0038
791.4179	0.0214
791.5896	0.0037
791.7612	0.0078
791.9328	0.0047
792.1044	-0.0093
792.2759	0.0305
792.4474	-0.0026
792.619	-0.0393
792.7905	0.0255
792.9619	0.089
793.1334	0.0798
793.3048	0.0957
793.4762	0.01
793.6476	-0.0459
793.819	0.0238
793.9904	-0.0115
794.1617	-0.0142
794.333	-0.0025
794.5043	0.0132
794.6756	0.0254
794.8469	0.0275
795.0181	0.0005
795.1893	0.0099
795.3605	0.025
795.5317	-0.0042
795.7029	-0.0199
795.874	0.0073
796.0452	-0.0003
796.2163	0.1331
796.3873	0.1296
796.5584	0.0579
796.7294	0.0241
796.9005	0.1088
797.0715	-0.0523
797.2425	0.0874
797.4134	0.0928
797.5844	-0.0052
797.7553	-0.0537
797.9262	0.053
798.0971	0.0399
798.2679	0.0195
798.4388	0.0678
798.6096	0.0579
798.7804	0.0352
798.9512	0.0274
799.122	0.0048
799.2927	0.0331
799.4635	0.0117
799.6342	-0.063
799.8049	0.1471
799.9755	0.0028
800.1462	0.0278
800.3168	0.024
800.4874	-0.0375
800.658	0.0745
800.8286	-0.02
800.9991	0.0424
801.1696	0.0376
801.3402	0.0096
801.5106	0.0232
801.6811	0.0503
801.8516	0.0631
802.022	0.0578
802.1924	0.0252
802.3628	0.1029
802.5332	0.0985
802.7035	0.0273
802.8739	-0.0005
803.0442	-0.0693
803.2145	0.0609
803.3847	0.0592
803.555	0.0476
803.7252	0.0899
803.8954	0.0408
804.0656	0.0072
804.2358	0.0375
804.4059	0.0487
804.5761	0.0713
804.7462	0.0355
804.9163	0.0305
805.0864	0.0101
805.2564	0.013
805.4264	0.0303
805.5965	0.0503
805.7665	0.0214
805.9364	0.0043
806.1064	0.014
806.2763	0.0486
806.4462	0.0775
806.6161	0.045
806.786	0.0287
806.9559	0.032
807.1257	0.0468
807.2955	-0.0103
807.4653	0.028
807.6351	0.0353
807.8048	0.0426
807.9746	0.0174
808.1443	-0.0488
808.314	0.0068
808.4837	0.0698
808.6533	0.0653
808.8229	0.0734
808.9926	0.038
809.1622	0.0722
809.3317	0.028
809.5013	0.0397
809.6708	0.0657
809.8403	0.0228
810.0098	0.0346
810.1793	0.0771
810.3488	0.0212
810.5182	0.1268
810.6876	0.1214
810.857	0.0435
811.0264	-0.0931
811.1958	0.2146
811.3651	0.0598
811.5344	0.0015
811.7037	-0.0121
811.873	0.0308
812.0422	-0.0235
812.2115	0.0538
812.3807	-0.023
812.5499	0.04
812.7191	-0.0939
812.8882	0.097
813.0574	0.076
813.2265	0.0048
813.3956	-0.0005
813.5646	0.1185
813.7337	0.0141
813.9027	-0.0634
814.0718	0.0242
814.2407	0.0159
814.4097	0.0477
814.5787	0.0201
814.7476	0.0174
814.9165	-0.0034
815.0854	-0.0172
815.2543	-0.0052
815.4232	0.0755
815.592	0.1338
815.7608	-0.085
815.9296	-0.0035
816.0984	0.115
816.2671	0.0178
816.4359	0.2485
816.6046	-0.0708
816.7733	-0.1251
816.942	0.0472
817.1106	0.0581
817.2793	-0.0673
817.4479	0.0137
817.6165	0.0052
817.785	0.0202
817.9536	-0.0252
818.1221	0.0428
818.2906	0.0304
818.4591	0.0613
818.6276	0.0826
818.7961	0.0088
818.9645	-0.0156
819.1329	0.415
819.3013	-0.0164
819.4697	0.2121
819.638	0.0219
819.8064	0.1232
819.9747	0.2484
820.143	-0.1529
820.3113	0.0741
820.4795	0.0797
820.6477	0.1655
820.816	0.0495
820.9842	0.0344
821.1523	0.0509
821.3205	0.0097
821.4886	-0.0126
821.6567	0.0191
821.8248	0.1269
821.9929	0.0434
822.1609	-0.0268
822.329	0.0143
822.497	0.1576
822.665	0.0123
822.833	0.1343
823.0009	0.0207
823.1688	0.0296
823.3367	-0.1759
823.5046	0.2796
823.6725	-0.1419
823.8404	-0.0992
824.0082	-0.1035
824.176	-0.1624
824.3438	0.2781
824.5116	0.0359
824.6793	0.1544
824.847	-0.1437
825.0147	0.0694
825.1824	0.1475
825.3501	0.0463
825.5177	-0.0009
825.6854	-0.1519
825.853	0.0279
826.0206	-0.0612
826.1881	0.1755
826.3557	0.0438
826.5232	0.1168
826.6907	0.1699
826.8582	-0.0378
827.0257	0.0125
827.1931	0.1337
827.3605	0.0146
827.528	-0.0313
827.6953	-0.2285
827.8627	-0.0085
828.03	0.1794
828.1974	0.0563
828.3647	0.0601
828.532	0.0721
828.6992	0.1417
828.8665	0.0666
829.0337	0.2578
829.2009	-0.0988
829.3681	0.1449
829.5352	0.0064
829.7024	0.0447
829.8695	0.047
830.0366	0.1698
830.2037	0.285
830.3707	0.1112
830.5378	0.2156
830.7048	0.0583
830.8718	0.0843
831.0388	-0.1706
831.2057	-0
831.3727	-0.2986
831.5396	0.1472
831.7065	-0.7312
831.8734	0.3262
832.0402	0.1883
832.2071	-0
832.3739	-0.0142
832.5407	-0
832.7075	-0.0709
832.8742	0.5375
833.041	0.085
833.2077	0.3248
833.3744	0.0791
833.541	0.3394
833.7077	-0.178
833.8743	0.2383
834.0409	0.073
834.2075	0.1555
834.3741	-0.042
834.5407	0.0386
834.7072	-0.0318
834.8737	0.0545
835.0402	0.4955
835.2067	0.4582
835.3731	-0.1265
835.5395	0.0376
835.706	-0.1177
835.8723	0.1781
836.0387	-0
836.2051	0.334
836.3714	-0.0469
836.5377	0.4621
836.704	0.2335
836.8703	0.0806
837.0365	-0.58
837.2027	0.1155
837.3689	0.1702
837.5351	0.2302
837.7013	-0.1448
837.8674	-0
838.0335	-0.0313
838.1997	0.5019
838.3657	-0
838.5318	-0.219
838.6978	-0
838.8639	-0.5493
839.0299	0.1517
839.1958	0.2783
839.3618	0.118
839.5277	0.247
839.6937	-0.2374
839.8596	-0.1613
840.0254	0.5716
840.1913	0.7064
840.3571	-0.0836
840.523	-1.9009
840.6888	0.169
840.8545	0.0907
841.0203	0.712
841.186	0.1066
841.3517	0.0364
841.5174	-0.0117
841.6831	0.1528
841.8488	-0.0716
842.0144	0.8833
842.18	0.2275
842.3456	0.3339
842.5112	-0.704
842.6767	0.3077
842.8422	0.5662
843.0077	0.2141
843.1732	0.3208
843.3387	0.2156
843.5042	0.5391
843.6696	-0
843.835	-0.2729
844.0004	-0.2619
844.1657	-0
844.3311	-0
844.4964	-0.2376
844.6617	1.8543
844.827	-0
844.9923	0.8439
845.1575	-0.2199
845.3227	-0.3364
845.4879	-0.0539
845.6531	0.1112
845.8183	0.5365
845.9834	0.6175
846.1485	0.6034
846.3136	0.086
846.4787	-0.4499
846.6438	0.2156
846.8088	-0
846.9738	-0
847.1388	0.4185
847.3038	0.6182
847.4687	-0
847.6337	-0.2728
847.7986	-0.212
847.9635	0.0305
848.1284	-0
848.2932	0.5454
848.458	-0
848.6228	-0.2137
848.7876	-0
848.9524	-0
849.1172	-0
849.2819	0.0776
849.4466	-0
849.6113	-0
849.7759	-0
849.9406	-0
850.1052	-1.2603
850.2698	-0.3736
850.4344	-0.3463
850.599	-0
850.7635	-0
850.928	0.7664
851.0925	0.1192
851.257	1.5922
851.4215	0.0568
851.5859	0.1077
851.7503	-0.4123
851.9147	-0
852.0791	-0.0942
852.2434	0.1528
852.4078	-0.0713
852.5721	-0
852.7364	0.3002
852.9007	0.0342
853.0649	-0
853.2291	0.0467
853.3934	0.4378
853.5575	-0.1561
853.7217	0.7488
853.8859	0.19
854.05	0.9819
854.2141	-0
854.3782	-0.2136
854.5423	-0.2842
854.7063	-0
854.8703	-0
855.0343	0.0065
855.1983	0.0628
855.3623	0.2096
855.5262	-0
855.6901	-0
855.854	0.8741
856.0179	-0.274
856.1818	-0
856.3456	1.0305
856.5094	-0.3176
856.6732	-0
856.837	-0.7591
857.0008	0.3501
857.1645	-0.0055
857.3282	-0.1753
857.4919	0.4262
857.6556	0.2524
857.8192	-0.1571
857.9828	0.1577
858.1465	-0
858.31	-0.3569
858.4736	-0.716
858.6372	-0
858.8007	0.0226
858.9642	0.2782
859.1277	0.4975
859.2911	0.4267
859.4546	-0
859.618	0.6207
859.7814	0.7876
859.9448	-0
860.1081	1.9058
860.2715	-1.1802
860.4348	-0
860.5981	-0
860.7614	-0
860.9246	1.6053
861.0879	1.1341
861.2511	-0.267
861.4143	-0
861.5774	0.0932
861.7406	0.0829
861.9037	-0
862.0668	-0.565
862.2299	-0
862.393	-0
862.556	-0
862.7191	-0.3493
862.8821	0.3866
863.0451	1.3118
863.208	-0
863.371	-0
863.5339	1.4904
863.6968	0.9241
863.8597	-0
864.0225	-0
864.1854	-0.1047
864.3482	-0
864.511	0.3238
864.6737	0.4144
864.8365	0.1925
864.9992	-0
865.1619	-0
865.3246	-1.2923
865.4873	-0
865.65	-0
865.8126	1.2498
865.9752	0.8071
866.1378	-0.0338
866.3004	0.4214
866.4629	-1.5315
866.6254	-0
866.7879	0.8612
866.9504	-0
867.1129	-0
867.2753	-0.1866
867.4377	0.0975
867.6001	-0.645
867.7625	0.2025
867.9249	-0
868.0872	0.1374
868.2495	-0
868.4118	-0
868.5741	-0
868.7363	-0
868.8986	-0.6998
869.0608	-0
869.223	-0
869.3851	-0.513
869.5473	0.1747
869.7094	-0.0415
869.8715	-0
870.0336	0.0568
870.1957	-0.9601
870.3577	0.6718
870.5197	0.3352
870.6817	0.5552
870.8437	0.1394
871.0057	-0
871.1676	0.4875
871.3295	0.0599
871.4914	-1.7634
871.6533	-0.7541
871.8151	0.9944
871.977	-0
872.1388	-0
872.3006	-0
872.4623	-0
872.6241	1.0139
872.7858	0.1464
872.9475	2.2467
873.1092	0.116
873.2709	0.4831
873.4325	-1.4053
873.5941	0.3979
873.7557	-0
873.9173	0.6364
874.0789	0.1463
874.2404	-0
874.4019	0.073
874.5634	1.0839
874.7249	-0
874.8863	-0.3173
875.0478	-0
875.2092	-0
875.3706	0.2528
875.5319	-0
875.6933	1.5647
875.8546	-0
876.0159	-0
876.1772	-0
876.3385	-0
876.4997	0.8152
876.6609	0.3799
876.8221	-0
876.9833	-0.2196
877.1445	0.5408
877.3056	-0
877.4667	-0.8121
877.6278	-0
877.7889	-0.2373
877.9499	-0
878.111	-0.4024
878.272	-0
878.433	1.1094
878.5939	0.0135
878.7549	-0
878.9158	0.5407
879.0767	-0.2006
879.2376	-0.3124
879.3984	0.449
879.5593	0.665
879.7201	-1
879.8809	-0
880.0417	-0.4244
880.2024	-0
880.3632	-0.5472
880.5239	0.0549
880.6846	-0.4435
880.8452	-0.3159
881.0059	-0
881.1665	-0.2662
881.3271	0.0822
881.4877	1.7745
881.6483	-1.2136
881.8088	-0.2366
881.9693	-0
882.1298	-0
882.2903	-0
