Data from D4ACN5uM460nmA_Absorbance_13-05-41-690.txt Node
Date: Fri Feb 21 13:05:41 GMT 2025
User: LASERRRRR
Spectrometer: FLMT03099
Trigger mode: 0
Integration Time (sec): 1.500000E-2
Scans to average: 1
Electric dark correction enabled: true
Nonlinearity correction enabled: false
Boxcar width: 0
XAxis mode: Wavelengths
Number of Pixels in Spectrum: 3648
>>>>>Begin Spectral Data<<<<<
179.3399	-0
179.5586	-0
179.7771	-0
179.9957	-0
180.2143	-0
180.4329	0.023
180.6514	-0
180.8699	-0.2695
181.0885	-0
181.307	0.3479
181.5255	0.7498
181.744	-0
181.9625	0.1002
182.181	-0
182.3994	-0.6286
182.6179	0.0197
182.8363	0.188
183.0547	0.9308
183.2732	0.2513
183.4916	0.2965
183.71	0.2535
183.9284	0.0586
184.1467	0.4313
184.3651	0.0025
184.5835	0.2325
184.8018	0.0991
185.0201	0.1042
185.2385	0.3832
185.4568	0.2869
185.6751	0.1323
185.8934	0.2121
186.1117	0.086
186.3299	0.0627
186.5482	0.2453
186.7664	0.0153
186.9847	0.0267
187.2029	0.2402
187.4211	0.1856
187.6393	0.2721
187.8575	0.5226
188.0757	0.2203
188.2939	0.6365
188.512	0.2689
188.7302	0.173
188.9483	0.4375
189.1665	0.2799
189.3846	0.1069
189.6027	0.0911
189.8208	0.2859
190.0389	0.0842
190.257	0.0677
190.475	-0.0821
190.6931	0.1447
190.9111	0.1015
191.1292	0.0632
191.3472	0.187
191.5652	0.2492
191.7832	0.1127
192.0012	0.1218
192.2192	0.1831
192.4371	0.0674
192.6551	0.1693
192.873	0.0784
193.091	0.1053
193.3089	0.2257
193.5268	0.4153
193.7447	0.1902
193.9626	0.1412
194.1805	0.2132
194.3984	0.292
194.6162	0.2792
194.8341	0.2835
195.0519	0.292
195.2697	0.2566
195.4875	0.3381
195.7054	0.2486
195.9231	0.2261
196.1409	0.2983
196.3587	0.2944
196.5765	0.3482
196.7942	0.3278
197.012	0.3616
197.2297	0.2858
197.4474	0.3443
197.6651	0.3301
197.8828	0.3154
198.1005	0.3905
198.3182	0.3352
198.5358	0.3941
198.7535	0.3508
198.9711	0.3802
199.1888	0.3636
199.4064	0.4663
199.624	0.4013
199.8416	0.3743
200.0592	0.3423
200.2767	0.4198
200.4943	0.4825
200.7119	0.4102
200.9294	0.4222
201.1469	0.4479
201.3645	0.408
201.582	0.3931
201.7995	0.3992
202.017	0.39
202.2344	0.42
202.4519	0.3951
202.6694	0.3466
202.8868	0.3969
203.1042	0.3984
203.3217	0.3716
203.5391	0.3925
203.7565	0.3642
203.9739	0.3523
204.1913	0.3463
204.4086	0.3328
204.626	0.3739
204.8433	0.3738
205.0607	0.3351
205.278	0.3264
205.4953	0.3261
205.7126	0.3861
205.9299	0.3205
206.1472	0.3303
206.3644	0.3248
206.5817	0.3164
206.7989	0.3251
207.0162	0.323
207.2334	0.3383
207.4506	0.297
207.6678	0.3425
207.885	0.3007
208.1022	0.3174
208.3194	0.2941
208.5365	0.2935
208.7537	0.294
208.9708	0.3127
209.1879	0.2829
209.405	0.2833
209.6222	0.2758
209.8392	0.2948
210.0563	0.2964
210.2734	0.2693
210.4905	0.2668
210.7075	0.3149
210.9245	0.2732
211.1416	0.2747
211.3586	0.2695
211.5756	0.2457
211.7926	0.2683
212.0096	0.2825
212.2265	0.259
212.4435	0.266
212.6604	0.2449
212.8774	0.2487
213.0943	0.2554
213.3112	0.2925
213.5281	0.241
213.745	0.254
213.9619	0.2463
214.1788	0.2532
214.3956	0.2539
214.6125	0.2672
214.8293	0.2409
215.0461	0.2467
215.2629	0.2419
215.4798	0.2568
215.6965	0.2466
215.9133	0.2439
216.1301	0.2439
216.3469	0.2431
216.5636	0.2543
216.7803	0.2483
216.9971	0.2554
217.2138	0.2589
217.4305	0.2556
217.6472	0.2357
217.8639	0.2652
218.0805	0.2494
218.2972	0.244
218.5138	0.2427
218.7305	0.2622
218.9471	0.2415
219.1637	0.2782
219.3803	0.2729
219.5969	0.2405
219.8135	0.2629
220.0301	0.266
220.2466	0.2496
220.4632	0.2658
220.6797	0.2613
220.8962	0.2624
221.1127	0.2571
221.3292	0.2621
221.5457	0.2737
221.7622	0.2553
221.9787	0.2907
222.1951	0.2705
222.4116	0.2831
222.628	0.2833
222.8444	0.2846
223.0608	0.2838
223.2772	0.2866
223.4936	0.2702
223.71	0.2967
223.9264	0.2978
224.1427	0.2892
224.3591	0.2846
224.5754	0.2904
224.7917	0.2897
225.008	0.3016
225.2243	0.2987
225.4406	0.2999
225.6569	0.3129
225.8732	0.3134
226.0894	0.3107
226.3057	0.3079
226.5219	0.3098
226.7381	0.3323
226.9543	0.3126
227.1705	0.3164
227.3867	0.3202
227.6029	0.3183
227.8191	0.3343
228.0352	0.3388
228.2513	0.3477
228.4675	0.3412
228.6836	0.3514
228.8997	0.3469
229.1158	0.3524
229.3319	0.3548
229.548	0.3443
229.764	0.346
229.9801	0.3725
230.1961	0.3728
230.4121	0.3682
230.6282	0.3824
230.8442	0.3838
231.0602	0.3875
231.2761	0.3903
231.4921	0.3896
231.7081	0.3899
231.924	0.4016
232.14	0.4007
232.3559	0.4043
232.5718	0.4052
232.7877	0.4018
233.0036	0.4133
233.2195	0.4174
233.4353	0.4157
233.6512	0.4152
233.867	0.425
234.0829	0.4161
234.2987	0.4253
234.5145	0.4387
234.7303	0.439
234.9461	0.4292
235.1619	0.4347
235.3776	0.4367
235.5934	0.4388
235.8091	0.4431
236.0249	0.4496
236.2406	0.4539
236.4563	0.447
236.672	0.4402
236.8877	0.4468
237.1034	0.4428
237.319	0.4493
237.5347	0.4372
237.7503	0.4506
237.966	0.4556
238.1816	0.4456
238.3972	0.4559
238.6128	0.4615
238.8284	0.4662
239.0439	0.4591
239.2595	0.461
239.475	0.4595
239.6906	0.4488
239.9061	0.4587
240.1216	0.455
240.3371	0.4609
240.5526	0.4612
240.7681	0.4497
240.9836	0.4541
241.199	0.4501
241.4145	0.448
241.6299	0.4363
241.8453	0.4309
242.0607	0.4263
242.2761	0.4228
242.4915	0.4224
242.7069	0.411
242.9223	0.4181
243.1376	0.4078
243.353	0.4061
243.5683	0.3887
243.7836	0.3841
243.9989	0.3714
244.2142	0.3697
244.4295	0.3563
244.6448	0.3537
244.86	0.351
245.0753	0.3399
245.2905	0.3271
245.5057	0.3271
245.721	0.3272
245.9362	0.3162
246.1514	0.3076
246.3665	0.306
246.5817	0.2992
246.7969	0.2942
247.012	0.2914
247.2271	0.2885
247.4423	0.2833
247.6574	0.2758
247.8725	0.2632
248.0876	0.258
248.3026	0.272
248.5177	0.2616
248.7328	0.2477
248.9478	0.2452
249.1628	0.2473
249.3779	0.2433
249.5929	0.2348
249.8079	0.2346
250.0228	0.2295
250.2378	0.2312
250.4528	0.2208
250.6677	0.2215
250.8827	0.2076
251.0976	0.2145
251.3125	0.2205
251.5274	0.2085
251.7423	0.2048
251.9572	0.2055
252.172	0.2023
252.3869	0.2005
252.6017	0.2024
252.8166	0.1999
253.0314	0.1962
253.2462	0.1983
253.461	0.1932
253.6758	0.1918
253.8906	0.1964
254.1053	0.1919
254.3201	0.1914
254.5348	0.1816
254.7496	0.1803
254.9643	0.1876
255.179	0.188
255.3937	0.188
255.6083	0.1883
255.823	0.1809
256.0377	0.1786
256.2523	0.1787
256.467	0.1856
256.6816	0.1811
256.8962	0.1823
257.1108	0.1817
257.3254	0.1794
257.54	0.1748
257.7545	0.1861
257.9691	0.1766
258.1836	0.1699
258.3981	0.1798
258.6127	0.1775
258.8272	0.1821
259.0417	0.1767
259.2561	0.1776
259.4706	0.1765
259.6851	0.1727
259.8995	0.1787
260.114	0.1764
260.3284	0.1668
260.5428	0.1701
260.7572	0.1751
260.9716	0.1811
261.186	0.1688
261.4003	0.1785
261.6147	0.1738
261.829	0.1767
262.0433	0.1749
262.2577	0.1814
262.472	0.1757
262.6863	0.1793
262.9005	0.1732
263.1148	0.1762
263.3291	0.1704
263.5433	0.1776
263.7576	0.1725
263.9718	0.1743
264.186	0.1782
264.4002	0.1755
264.6144	0.184
264.8286	0.181
265.0427	0.1827
265.2569	0.1822
265.471	0.1785
265.6851	0.1773
265.8993	0.1766
266.1134	0.1709
266.3275	0.175
266.5415	0.1787
266.7556	0.1811
266.9697	0.1758
267.1837	0.175
267.3978	0.1758
267.6118	0.1713
267.8258	0.1759
268.0398	0.1796
268.2538	0.1805
268.4677	0.1747
268.6817	0.1667
268.8957	0.1658
269.1096	0.1643
269.3235	0.1732
269.5374	0.1708
269.7514	0.1741
269.9652	0.1708
270.1791	0.1641
270.393	0.1701
270.6068	0.1785
270.8207	0.164
271.0345	0.1647
271.2483	0.1647
271.4622	0.1713
271.676	0.1691
271.8897	0.1682
272.1035	0.1697
272.3173	0.1653
272.531	0.1651
272.7448	0.1623
272.9585	0.1638
273.1722	0.1649
273.3859	0.1668
273.5996	0.1676
273.8133	0.1691
274.0269	0.1613
274.2406	0.1653
274.4542	0.1679
274.6679	0.1665
274.8815	0.167
275.0951	0.1718
275.3087	0.172
275.5223	0.1694
275.7358	0.1726
275.9494	0.1739
276.1629	0.1719
276.3765	0.1669
276.59	0.1704
276.8035	0.1723
277.017	0.1692
277.2305	0.1657
277.444	0.1743
277.6574	0.1749
277.8709	0.1774
278.0843	0.1759
278.2978	0.1704
278.5112	0.1717
278.7246	0.1683
278.938	0.1717
279.1513	0.1792
279.3647	0.1698
279.5781	0.1712
279.7914	0.1689
280.0047	0.1761
280.2181	0.1691
280.4314	0.1757
280.6447	0.1815
280.8579	0.169
281.0712	0.175
281.2845	0.1722
281.4977	0.1769
281.711	0.1696
281.9242	0.1779
282.1374	0.1767
282.3506	0.1755
282.5638	0.1756
282.7769	0.1731
282.9901	0.1771
283.2033	0.1789
283.4164	0.1773
283.6295	0.1802
283.8426	0.1726
284.0557	0.1806
284.2688	0.1779
284.4819	0.1757
284.695	0.1848
284.908	0.1759
285.1211	0.1854
285.3341	0.1766
285.5471	0.1823
285.7601	0.1857
285.9731	0.1808
286.1861	0.1874
286.3991	0.1904
286.612	0.1821
286.825	0.1848
287.0379	0.1867
287.2508	0.1894
287.4637	0.1926
287.6766	0.185
287.8895	0.183
288.1024	0.1928
288.3152	0.1873
288.5281	0.186
288.7409	0.1913
288.9538	0.1905
289.1666	0.1861
289.3794	0.1894
289.5922	0.1876
289.8049	0.1882
290.0177	0.1885
290.2304	0.1903
290.4432	0.1929
290.6559	0.1911
290.8686	0.1983
291.0813	0.1965
291.294	0.1928
291.5067	0.195
291.7194	0.1924
291.932	0.1858
292.1447	0.1933
292.3573	0.1938
292.5699	0.1944
292.7825	0.1909
292.9951	0.1907
293.2077	0.1924
293.4203	0.194
293.6328	0.1869
293.8454	0.1901
294.0579	0.1894
294.2704	0.1971
294.4829	0.1915
294.6954	0.1898
294.9079	0.1932
295.1204	0.1901
295.3328	0.1972
295.5453	0.1924
295.7577	0.196
295.9701	0.1917
296.1825	0.1933
296.3949	0.1871
296.6073	0.1859
296.8197	0.1911
297.0321	0.1931
297.2444	0.1897
297.4567	0.1938
297.6691	0.187
297.8814	0.1953
298.0937	0.1952
298.306	0.1936
298.5182	0.1955
298.7305	0.1926
298.9428	0.1896
299.155	0.1897
299.3672	0.1942
299.5794	0.1927
299.7916	0.1901
300.0038	0.1954
300.216	0.19
300.4282	0.1901
300.6403	0.194
300.8525	0.1908
301.0646	0.1889
301.2767	0.1912
301.4888	0.1953
301.7009	0.1922
301.913	0.1939
302.125	0.1917
302.3371	0.189
302.5491	0.1946
302.7612	0.1944
302.9732	0.1955
303.1852	0.194
303.3972	0.1935
303.6092	0.1873
303.8211	0.1901
304.0331	0.1829
304.245	0.1883
304.457	0.1884
304.6689	0.192
304.8808	0.1827
305.0927	0.1869
305.3046	0.1829
305.5164	0.1853
305.7283	0.1801
305.9401	0.1716
306.152	0.1811
306.3638	0.1808
306.5756	0.1815
306.7874	0.1742
306.9992	0.1738
307.2109	0.17
307.4227	0.1684
307.6344	0.1742
307.8462	0.1684
308.0579	0.1699
308.2696	0.171
308.4813	0.1687
308.693	0.1629
308.9046	0.165
309.1163	0.1615
309.328	0.1544
309.5396	0.1526
309.7512	0.151
309.9628	0.1558
310.1744	0.148
310.386	0.1458
310.5976	0.1469
310.8091	0.1481
311.0207	0.1465
311.2322	0.1401
311.4437	0.1429
311.6552	0.1461
311.8667	0.1449
312.0782	0.1395
312.2897	0.1393
312.5012	0.1349
312.7126	0.1305
312.924	0.1351
313.1355	0.1337
313.3469	0.1333
313.5583	0.1344
313.7696	0.1246
313.981	0.1365
314.1924	0.1311
314.4037	0.127
314.6151	0.1275
314.8264	0.1307
315.0377	0.128
315.249	0.1314
315.4603	0.1195
315.6716	0.1208
315.8828	0.1295
316.0941	0.1252
316.3053	0.1196
316.5165	0.1226
316.7277	0.119
316.9389	0.1225
317.1501	0.1212
317.3613	0.118
317.5724	0.1203
317.7836	0.111
317.9947	0.1209
318.2058	0.12
318.417	0.117
318.6281	0.1191
318.8391	0.1196
319.0502	0.1225
319.2613	0.1171
319.4723	0.1166
319.6834	0.1167
319.8944	0.1128
320.1054	0.1205
320.3164	0.1162
320.5274	0.1205
320.7383	0.1206
320.9493	0.1211
321.1602	0.1186
321.3712	0.1186
321.5821	0.1152
321.793	0.1262
322.0039	0.118
322.2148	0.1191
322.4257	0.1184
322.6365	0.1191
322.8474	0.1208
323.0582	0.1171
323.269	0.1184
323.4798	0.1214
323.6906	0.1191
323.9014	0.1159
324.1122	0.1178
324.3229	0.1273
324.5337	0.1246
324.7444	0.1228
324.9551	0.1224
325.1658	0.1206
325.3765	0.1302
325.5872	0.1234
325.7979	0.1208
326.0085	0.1185
326.2192	0.1171
326.4298	0.1265
326.6404	0.1237
326.851	0.1204
327.0616	0.1224
327.2722	0.123
327.4828	0.1219
327.6933	0.1298
327.9039	0.1236
328.1144	0.1246
328.3249	0.125
328.5354	0.1249
328.7459	0.1252
328.9564	0.1254
329.1669	0.1297
329.3773	0.1205
329.5878	0.1266
329.7982	0.1263
330.0086	0.1265
330.219	0.1252
330.4294	0.1262
330.6398	0.1251
330.8502	0.1331
331.0605	0.1257
331.2708	0.127
331.4812	0.1246
331.6915	0.127
331.9018	0.1274
332.1121	0.1343
332.3224	0.1255
332.5326	0.1273
332.7429	0.1334
332.9531	0.1325
333.1633	0.129
333.3735	0.1283
333.5837	0.1334
333.7939	0.136
334.0041	0.1243
334.2143	0.1269
334.4244	0.1351
334.6346	0.133
334.8447	0.128
335.0548	0.1364
335.2649	0.1375
335.475	0.1272
335.685	0.1255
335.8951	0.128
336.1051	0.14
336.3152	0.1341
336.5252	0.1357
336.7352	0.1294
336.9452	0.1377
337.1552	0.1329
337.3652	0.1326
337.5751	0.1309
337.7851	0.137
337.995	0.1332
338.2049	0.137
338.4148	0.138
338.6247	0.1376
338.8346	0.135
339.0445	0.1375
339.2543	0.1378
339.4642	0.1347
339.674	0.1417
339.8838	0.1369
340.0936	0.1318
340.3034	0.1356
340.5132	0.1359
340.7229	0.1381
340.9327	0.144
341.1424	0.1425
341.3522	0.1334
341.5619	0.1398
341.7716	0.1398
341.9813	0.1473
342.1909	0.1506
342.4006	0.1456
342.6102	0.1399
342.8199	0.1404
343.0295	0.1417
343.2391	0.1439
343.4487	0.144
343.6583	0.152
343.8679	0.1452
344.0774	0.1464
344.287	0.1456
344.4965	0.1511
344.706	0.1489
344.9155	0.148
345.125	0.1455
345.3345	0.1576
345.544	0.153
345.7534	0.1504
345.9629	0.1524
346.1723	0.1509
346.3817	0.1607
346.5911	0.1545
346.8005	0.1586
347.0099	0.1563
347.2193	0.1663
347.4286	0.1585
347.638	0.1603
347.8473	0.1659
348.0566	0.1643
348.2659	0.1594
348.4752	0.1632
348.6845	0.1643
348.8937	0.1615
349.103	0.154
349.3122	0.1601
349.5214	0.1678
349.7306	0.1678
349.9398	0.1665
350.149	0.1656
350.3582	0.1639
350.5674	0.1638
350.7765	0.1715
350.9856	0.1606
351.1948	0.1715
351.4039	0.1725
351.613	0.1684
351.822	0.1794
352.0311	0.1695
352.2402	0.1723
352.4492	0.1654
352.6582	0.1733
352.8672	0.1767
353.0762	0.1785
353.2852	0.1732
353.4942	0.1827
353.7032	0.1783
353.9121	0.1822
354.1211	0.1859
354.33	0.1793
354.5389	0.1851
354.7478	0.1793
354.9567	0.1808
355.1655	0.1819
355.3744	0.1763
355.5833	0.185
355.7921	0.1892
356.0009	0.1838
356.2097	0.1779
356.4185	0.1838
356.6273	0.1891
356.8361	0.1838
357.0448	0.1847
357.2536	0.187
357.4623	0.1947
357.671	0.196
357.8797	0.1851
358.0884	0.1836
358.2971	0.1959
358.5057	0.1905
358.7144	0.1941
358.923	0.197
359.1316	0.1994
359.3402	0.203
359.5488	0.1857
359.7574	0.2072
359.966	0.1986
360.1746	0.1981
360.3831	0.2089
360.5916	0.1999
360.8002	0.2133
361.0087	0.201
361.2172	0.2031
361.4256	0.2083
361.6341	0.2057
361.8426	0.2081
362.051	0.2085
362.2594	0.205
362.4678	0.2184
362.6762	0.221
362.8846	0.2092
363.093	0.219
363.3014	0.2218
363.5097	0.2189
363.718	0.2225
363.9264	0.2244
364.1347	0.2216
364.343	0.2257
364.5513	0.2205
364.7595	0.2314
364.9678	0.2196
365.176	0.2329
365.3842	0.2254
365.5925	0.2262
365.8007	0.2302
366.0089	0.235
366.217	0.2342
366.4252	0.2355
366.6333	0.2365
366.8415	0.2396
367.0496	0.2304
367.2577	0.2436
367.4658	0.2305
367.6739	0.2418
367.882	0.2448
368.09	0.2383
368.2981	0.2397
368.5061	0.2417
368.7141	0.2409
368.9221	0.251
369.1301	0.2508
369.3381	0.2608
369.5461	0.2524
369.754	0.2518
369.962	0.2505
370.1699	0.2563
370.3778	0.2642
370.5857	0.2603
370.7936	0.2566
371.0015	0.2578
371.2093	0.2484
371.4172	0.2595
371.625	0.2514
371.8328	0.258
372.0406	0.2633
372.2484	0.2687
372.4562	0.2629
372.664	0.2619
372.8717	0.261
373.0795	0.2702
373.2872	0.2706
373.4949	0.2685
373.7026	0.2582
373.9103	0.2681
374.118	0.2661
374.3256	0.2795
374.5333	0.2753
374.7409	0.2699
374.9485	0.2695
375.1561	0.2798
375.3637	0.2753
375.5713	0.2792
375.7789	0.2751
375.9864	0.2775
376.194	0.2794
376.4015	0.2739
376.609	0.2684
376.8165	0.2896
377.024	0.2745
377.2315	0.2817
377.4389	0.2767
377.6464	0.2823
377.8538	0.2861
378.0612	0.2853
378.2686	0.2822
378.476	0.2949
378.6834	0.2847
378.8908	0.2826
379.0981	0.2938
379.3055	0.288
379.5128	0.2819
379.7201	0.29
379.9274	0.2925
380.1347	0.2966
380.342	0.2959
380.5492	0.2914
380.7565	0.3068
380.9637	0.2967
381.1709	0.2905
381.3781	0.3006
381.5853	0.3002
381.7925	0.2994
381.9997	0.3086
382.2068	0.3078
382.4139	0.299
382.6211	0.2997
382.8282	0.3088
383.0353	0.3117
383.2424	0.3009
383.4494	0.3026
383.6565	0.307
383.8635	0.298
384.0706	0.3108
384.2776	0.3002
384.4846	0.3135
384.6916	0.3142
384.8986	0.3154
385.1055	0.3151
385.3125	0.3044
385.5194	0.3021
385.7263	0.3057
385.9333	0.3154
386.1402	0.3101
386.347	0.3056
386.5539	0.3124
386.7608	0.3034
386.9676	0.3168
387.1744	0.3079
387.3813	0.3164
387.5881	0.302
387.7948	0.3108
388.0016	0.3142
388.2084	0.3069
388.4151	0.3054
388.6219	0.2991
388.8286	0.3074
389.0353	0.3188
389.242	0.3129
389.4487	0.2991
389.6553	0.2909
389.862	0.2954
390.0686	0.3023
390.2753	0.304
390.4819	0.3047
390.6885	0.3015
390.8951	0.2981
391.1016	0.3026
391.3082	0.3013
391.5147	0.2977
391.7213	0.2868
391.9278	0.2952
392.1343	0.2964
392.3408	0.2929
392.5473	0.2864
392.7537	0.2976
392.9602	0.2891
393.1666	0.2909
393.373	0.2902
393.5794	0.2873
393.7858	0.2861
393.9922	0.2742
394.1986	0.2804
394.4049	0.2838
394.6113	0.2729
394.8176	0.2825
395.0239	0.2719
395.2302	0.2753
395.4365	0.2804
395.6428	0.2753
395.8491	0.2762
396.0553	0.2739
396.2615	0.2787
396.4678	0.2817
396.674	0.2661
396.8802	0.2631
397.0863	0.265
397.2925	0.2723
397.4987	0.2707
397.7048	0.2738
397.9109	0.2666
398.117	0.2665
398.3231	0.2648
398.5292	0.2606
398.7353	0.259
398.9413	0.2568
399.1474	0.2679
399.3534	0.2557
399.5594	0.2653
399.7654	0.2669
399.9714	0.2644
400.1774	0.2656
400.3833	0.2549
400.5893	0.2622
400.7952	0.2674
401.0011	0.2583
401.207	0.2624
401.4129	0.2527
401.6188	0.2581
401.8247	0.2767
402.0305	0.2486
402.2364	0.2607
402.4422	0.2604
402.648	0.2708
402.8538	0.2694
403.0596	0.2585
403.2654	0.2617
403.4711	0.259
403.6768	0.249
403.8826	0.2619
404.0883	0.262
404.294	0.2585
404.4997	0.2564
404.7054	0.2663
404.911	0.2642
405.1167	0.2659
405.3223	0.2628
405.5279	0.2569
405.7335	0.2645
405.9391	0.2621
406.1447	0.2639
406.3502	0.261
406.5558	0.2667
406.7613	0.2584
406.9668	0.2564
407.1724	0.2511
407.3778	0.2637
407.5833	0.2476
407.7888	0.2712
407.9942	0.2571
408.1997	0.2607
408.4051	0.2522
408.6105	0.2595
408.8159	0.2543
409.0213	0.2629
409.2267	0.2728
409.432	0.2621
409.6374	0.2638
409.8427	0.2683
410.048	0.2627
410.2533	0.2584
410.4586	0.2603
410.6639	0.2611
410.8691	0.2546
411.0744	0.2525
411.2796	0.2672
411.4848	0.2638
411.69	0.2562
411.8952	0.2571
412.1004	0.2634
412.3056	0.2602
412.5107	0.258
412.7158	0.2678
412.921	0.2715
413.1261	0.2556
413.3312	0.2578
413.5362	0.2702
413.7413	0.2613
413.9464	0.2558
414.1514	0.254
414.3564	0.2654
414.5614	0.2591
414.7664	0.2528
414.9714	0.2537
415.1764	0.261
415.3813	0.247
415.5863	0.2615
415.7912	0.2538
415.9961	0.2569
416.201	0.2634
416.4059	0.2499
416.6108	0.2638
416.8156	0.2549
417.0205	0.2587
417.2253	0.2556
417.4301	0.2489
417.6349	0.2432
417.8397	0.2533
418.0445	0.2478
418.2492	0.2397
418.454	0.2478
418.6587	0.2567
418.8634	0.2492
419.0681	0.2482
419.2728	0.2513
419.4775	0.2487
419.6822	0.2398
419.8868	0.2486
420.0915	0.2517
420.2961	0.2346
420.5007	0.249
420.7053	0.2424
420.9099	0.2421
421.1144	0.2391
421.319	0.2375
421.5235	0.2419
421.728	0.2431
421.9325	0.2433
422.137	0.2352
422.3415	0.2385
422.546	0.2308
422.7504	0.2411
422.9549	0.2434
423.1593	0.227
423.3637	0.2385
423.5681	0.2363
423.7725	0.2309
423.9769	0.227
424.1812	0.2246
424.3856	0.2293
424.5899	0.2201
424.7942	0.2259
424.9985	0.2194
425.2028	0.2314
425.4071	0.242
425.6113	0.2288
425.8156	0.2187
426.0198	0.226
426.224	0.2299
426.4282	0.2172
426.6324	0.2186
426.8366	0.2224
427.0407	0.2162
427.2449	0.2059
427.449	0.2055
427.6531	0.2183
427.8572	0.2242
428.0613	0.2179
428.2654	0.2079
428.4694	0.2026
428.6735	0.202
428.8775	0.2061
429.0815	0.2012
429.2855	0.1964
429.4895	0.1968
429.6935	0.2045
429.8975	0.1982
430.1014	0.1972
430.3053	0.1991
430.5093	0.1896
430.7132	0.1812
430.9171	0.1881
431.1209	0.181
431.3248	0.1798
431.5286	0.1858
431.7325	0.1873
431.9363	0.1829
432.1401	0.1796
432.3439	0.1873
432.5477	0.1686
432.7514	0.1722
432.9552	0.1696
433.1589	0.1667
433.3627	0.178
433.5664	0.1652
433.7701	0.162
433.9737	0.174
434.1774	0.1632
434.3811	0.148
434.5847	0.1694
434.7883	0.1589
434.9919	0.1637
435.1955	0.1664
435.3991	0.162
435.6027	0.154
435.8062	0.1546
436.0098	0.1413
436.2133	0.1465
436.4168	0.1453
436.6203	0.144
436.8238	0.1406
437.0272	0.1442
437.2307	0.1344
437.4341	0.1397
437.6375	0.1315
437.841	0.1249
438.0443	0.1326
438.2477	0.1245
438.4511	0.1197
438.6545	0.1204
438.8578	0.1281
439.0611	0.1271
439.2644	0.1234
439.4677	0.1268
439.671	0.1103
439.8743	0.1146
440.0775	0.1073
440.2808	0.1176
440.484	0.1182
440.6872	0.1149
440.8904	0.0972
441.0936	0.1112
441.2967	0.0965
441.4999	0.1
441.703	0.0964
441.9062	0.1021
442.1093	0.1101
442.3124	0.093
442.5155	0.0987
442.7185	0.0963
442.9216	0.0951
443.1246	0.0886
443.3276	0.091
443.5307	0.082
443.7337	0.0836
443.9366	0.08
444.1396	0.0808
444.3426	0.082
444.5455	0.0804
444.7484	0.0726
444.9513	0.0734
445.1542	0.0772
445.3571	0.0803
445.56	0.069
445.7628	0.0752
445.9657	0.0754
446.1685	0.0748
446.3713	0.0688
446.5741	0.0705
446.7769	0.0716
446.9797	0.0683
447.1824	0.0617
447.3852	0.0459
447.5879	0.0628
447.7906	0.0542
447.9933	0.0643
448.196	0.0448
448.3986	0.0535
448.6013	0.0495
448.8039	0.0587
449.0066	0.0639
449.2092	0.0684
449.4118	0.0524
449.6143	0.0571
449.8169	0.0544
450.0195	0.0507
450.222	0.0512
450.4245	0.0567
450.627	0.0535
450.8295	0.0467
451.032	0.0422
451.2345	0.0404
451.4369	0.0431
451.6394	0.0362
451.8418	0.042
452.0442	0.0402
452.2466	0.037
452.449	0.0432
452.6513	0.0354
452.8537	0.0325
453.056	0.04
453.2583	0.0333
453.4607	0.037
453.663	0.0379
453.8652	0.0291
454.0675	0.0464
454.2697	0.0322
454.472	0.0305
454.6742	0.0301
454.8764	0.0355
455.0786	0.0322
455.2808	0.0173
455.4829	0.0314
455.6851	0.0257
455.8872	0.0205
456.0893	0.0281
456.2915	0.0244
456.4935	0.0293
456.6956	0.0133
456.8977	0.0226
457.0997	0.0343
457.3018	0.0159
457.5038	0.0358
457.7058	0.032
457.9078	0.0271
458.1098	0.0221
458.3117	0.0315
458.5137	0.0115
458.7156	0.0228
458.9175	0.0199
459.1194	0.0202
459.3213	0.0189
459.5232	0.0239
459.725	0.0196
459.9269	0.0193
460.1287	0.0111
460.3305	0.0184
460.5323	0.0147
460.7341	0.0194
460.9359	0.008
461.1376	0.0222
461.3394	0.0207
461.5411	0.0157
461.7428	0.0155
461.9445	0.019
462.1462	0.0128
462.3479	0.0113
462.5495	0.0129
462.7512	0.0164
462.9528	0.0105
463.1544	0.0125
463.356	0.0086
463.5576	0.019
463.7592	0.0182
463.9607	0.0156
464.1623	0.0108
464.3638	0.0126
464.5653	0.0047
464.7668	0.0155
464.9683	0.0069
465.1697	0.011
465.3712	-0.0003
465.5726	0.011
465.7741	0.0173
465.9755	0.0099
466.1769	0.0082
466.3782	0.0083
466.5796	0.0121
466.7809	0.0089
466.9823	0.0097
467.1836	0.0028
467.3849	0.005
467.5862	0.0058
467.7875	0.0066
467.9887	0.0147
468.19	0.0119
468.3912	0.0081
468.5924	0.0015
468.7936	0.0079
468.9948	0.0058
469.196	0.011
469.3972	0.0005
469.5983	0.0054
469.7994	0.0102
470.0006	0.0063
470.2017	0.0078
470.4027	0.0149
470.6038	0.002
470.8049	0.0123
471.0059	0.0096
471.2069	0.0061
471.408	0.0137
471.6089	0.0061
471.8099	0.004
472.0109	0.0129
472.2119	0.0104
472.4128	0.0018
472.6137	0.0088
472.8146	0.0044
473.0155	0.0195
473.2164	0.0101
473.4173	-0.005
473.6181	-0.0043
473.819	0.0065
474.0198	-0.0016
474.2206	-0.0054
474.4214	0.0025
474.6222	-0.0038
474.8229	0.0014
475.0237	0.0107
475.2244	0.007
475.4251	0.0032
475.6258	0.0002
475.8265	0.0061
476.0272	-0.0012
476.2278	0.0046
476.4285	0.0041
476.6291	0.0034
476.8297	0.0139
477.0303	0.0016
477.2309	-0.0013
477.4315	0.0056
477.632	-0.0016
477.8326	0.0124
478.0331	0.0147
478.2336	-0.0008
478.4341	0.0057
478.6346	0.0004
478.8351	-0.0003
479.0355	0.007
479.236	0.0068
479.4364	0.006
479.6368	-0.0004
479.8372	-0.0001
480.0376	0.0079
480.2379	0.0085
480.4383	0.005
480.6386	-0.001
480.8389	0.0011
481.0392	-0.0019
481.2395	0.0098
481.4398	0.0011
481.6401	0.0077
481.8403	-0.0004
482.0405	0.0076
482.2408	0.0077
482.441	0.0086
482.6411	-0.0009
482.8413	0.0007
483.0415	0.0106
483.2416	0.005
483.4417	0.0032
483.6419	-0.0055
483.8419	0.0019
484.042	-0.0003
484.2421	0.0002
484.4422	0.0033
484.6422	-0.0012
484.8422	0.0067
485.0422	0.0062
485.2422	0.0001
485.4422	0.0015
485.6422	0.0031
485.8421	0.002
486.042	0.01
486.242	-0.0039
486.4419	0.0041
486.6417	-0.0007
486.8416	0.0005
487.0415	-0.0001
487.2413	0.0008
487.4411	0.003
487.641	0.0037
487.8408	0.0083
488.0405	0.006
488.2403	0.004
488.4401	-0.0025
488.6398	0.0042
488.8395	0.0097
489.0392	0.0007
489.2389	0.0023
489.4386	-0.0117
489.6383	0.0075
489.8379	0.002
490.0376	0.0048
490.2372	0.0016
490.4368	-0.0045
490.6364	-0.0044
490.836	0.0033
491.0355	-0.0046
491.2351	-0.0034
491.4346	-0.0026
491.6341	-0.0013
491.8336	0.0032
492.0331	0.0021
492.2326	0.0066
492.432	0.0004
492.6315	0.0049
492.8309	0.0015
493.0303	0.005
493.2297	0.0049
493.4291	0.0013
493.6284	0.0119
493.8278	-0.0055
494.0271	0.0072
494.2264	-0.0004
494.4257	0.0033
494.625	0.0014
494.8243	0.0002
495.0236	0.0073
495.2228	0.0089
495.422	0.012
495.6213	0.0045
495.8205	0.0096
496.0196	0.0053
496.2188	0.0043
496.418	0.0019
496.6171	-0.0056
496.8162	0.0062
497.0153	0.0104
497.2144	0.0022
497.4135	0.0042
497.6126	0.0034
497.8116	-0.0046
498.0107	0.0081
498.2097	0.0064
498.4087	0.0002
498.6077	-0.0002
498.8067	0.004
499.0056	0.0015
499.2046	0.0045
499.4035	0.0048
499.6024	-0.0064
499.8013	0.0105
500.0002	0.0015
500.199	0.0121
500.3979	-0.0061
500.5967	-0.0018
500.7956	0.0082
500.9944	-0.0018
501.1932	0.0084
501.3919	0.0059
501.5907	0.0022
501.7895	-0.0022
501.9882	0.0038
502.1869	0.0086
502.3856	-0.0048
502.5843	0.0049
502.783	-0.0003
502.9816	0.0068
503.1803	-0.0012
503.3789	0.0049
503.5775	-0.0051
503.7761	-0.0003
503.9747	0.0049
504.1732	-0.0043
504.3718	0.0132
504.5703	0.003
504.7689	-0.0093
504.9674	0.0066
505.1658	-0.0004
505.3643	0.0137
505.5628	0.011
505.7612	0.0107
505.9597	-0.0043
506.1581	0.0069
506.3565	0.0053
506.5549	0.0083
506.7532	-0.0063
506.9516	0.0073
507.1499	0.0086
507.3482	0.0098
507.5465	0.0062
507.7448	0.0073
507.9431	0.0069
508.1414	-0.002
508.3396	0.0007
508.5379	-0.0014
508.7361	0.001
508.9343	0.0062
509.1325	0.0067
509.3306	0.0021
509.5288	-0.0048
509.7269	0.007
509.9251	0.0072
510.1232	0.002
510.3213	0.0099
510.5193	0.0008
510.7174	0.0015
510.9154	0.009
511.1135	-0.0037
511.3115	0.0027
511.5095	-0.0032
511.7075	0.0063
511.9055	0.0054
512.1034	-0.0005
512.3014	0.0051
512.4993	0.0051
512.6972	0.002
512.8951	0.0032
513.093	0.0068
513.2908	0.011
513.4887	-0.001
513.6865	0.0061
513.8844	0.0055
514.0822	0.0023
514.2799	-0.0072
514.4777	-0.001
514.6755	0.0017
514.8732	0.0085
515.0709	0.002
515.2687	0.0012
515.4664	0.0111
515.664	0.006
515.8617	0.0059
516.0594	0.0073
516.257	0.008
516.4546	0.0158
516.6522	0.0065
516.8498	0.0111
517.0474	0.0035
517.2449	-0.0063
517.4425	0.0099
517.64	0.0074
517.8375	0.006
518.035	-0.0003
518.2325	-0.0052
518.43	-0.0026
518.6274	0.0011
518.8249	-0.005
519.0223	0.0047
519.2197	0.0047
519.4171	0.0007
519.6145	0.003
519.8118	-0.0099
520.0092	-0.0008
520.2065	0.0113
520.4038	0.0054
520.6011	0.0018
520.7984	0.0158
520.9956	0.0109
521.1929	0.003
521.3901	0.007
521.5874	0.007
521.7846	-0.0051
521.9818	-0.003
522.1789	-0.0035
522.3761	0.0151
522.5732	0.0013
522.7704	-0.0103
522.9675	-0.0052
523.1646	-0.0055
523.3617	0.0099
523.5587	0.0019
523.7558	0.0068
523.9528	0.0138
524.1498	0.0035
524.3468	0.003
524.5438	0.0095
524.7408	-0.0019
524.9378	0.0006
525.1347	0.0102
525.3316	-0.0024
525.5285	0.0013
525.7254	0.0036
525.9223	0.0126
526.1192	-0.0005
526.316	0.004
526.5129	-0.0011
526.7097	-0.0038
526.9065	0.0148
527.1033	0.0047
527.3	0.0046
527.4968	0.0057
527.6935	-0.0057
527.8903	-0.0063
528.087	-0.0048
528.2837	0.014
528.4804	-0.0037
528.677	-0.0015
528.8737	0.0014
529.0703	-0.0028
529.2669	0.0004
529.4635	0.0015
529.6601	-0
529.8567	-0.0108
530.0532	-0.0026
530.2498	-0.0049
530.4463	-0.0078
530.6428	0.0064
530.8393	0.0114
531.0358	-0.0079
531.2322	0.0011
531.4287	0.0072
531.6251	0.0003
531.8215	-0.0044
532.0179	0.0057
532.2143	-0.0005
532.4107	0.0096
532.607	-0.0031
532.8034	-0.0059
532.9997	-0.0045
533.196	-0.0011
533.3923	0.0028
533.5886	0.0118
533.7848	-0.0056
533.9811	0.006
534.1773	0.0034
534.3735	0.0154
534.5697	-0.0027
534.7659	0.0031
534.9621	0.0019
535.1582	0.003
535.3544	-0.0065
535.5505	0.0076
535.7466	0.0125
535.9427	-0.0035
536.1387	-0.0055
536.3348	0.0077
536.5308	0.0009
536.7269	-0.0108
536.9229	0.005
537.1189	0.0132
537.3148	0.0083
537.5108	0.0046
537.7068	0.0076
537.9027	-0.0099
538.0986	0.0046
538.2945	-0.0034
538.4904	-0.0062
538.6863	0.0057
538.8821	0.0037
539.078	0.0071
539.2738	-0.0059
539.4696	-0.0146
539.6654	-0
539.8611	0.0003
540.0569	0.0009
540.2526	0.0162
540.4484	-0.0069
540.6441	0.0052
540.8398	0.009
541.0355	-0.01
541.2311	0.0026
541.4268	0.0074
541.6224	0.0036
541.818	0.007
542.0136	0.0043
542.2092	0.0052
542.4048	0.0081
542.6003	0.0009
542.7959	0.0057
542.9914	0.0064
543.1869	0.0004
543.3824	-0.003
543.5779	0.0098
543.7734	0.013
543.9688	0.0021
544.1642	-0.0021
544.3596	0.0091
544.555	0.0093
544.7504	0.0043
544.9458	-0.001
545.1411	0.0013
545.3365	0.0057
545.5318	0.002
545.7271	0.0036
545.9224	0.0012
546.1177	0.005
546.3129	-0.0005
546.5081	-0.0023
546.7034	-0.0002
546.8986	0.0054
547.0938	0.0035
547.289	0.0192
547.4841	0.0107
547.6793	-0.0022
547.8744	0.0094
548.0695	-0.0067
548.2646	0.0014
548.4597	0.0073
548.6548	0.0088
548.8498	0.0049
549.0448	-0.0082
549.2399	0.0123
549.4349	-0.0001
549.6298	0.0057
549.8248	0.0016
550.0198	0.003
550.2147	0.0093
550.4096	-0.0063
550.6045	0.003
550.7994	0.0128
550.9943	0.0061
551.1892	-0.0114
551.384	0.0063
551.5788	0.0059
551.7737	0.0108
551.9685	0.0069
552.1632	-0.003
552.358	0.0041
552.5528	0.0086
552.7475	0.0005
552.9422	0.005
553.1369	0.0037
553.3316	0.0035
553.5263	0.0063
553.7209	0.0055
553.9156	0.005
554.1102	-0.0034
554.3048	-0.0037
554.4994	0.0026
554.694	-0.0056
554.8885	0.0063
555.0831	0.0027
555.2776	0.0027
555.4721	0.0033
555.6666	0.001
555.8611	0.0042
556.0555	0.0041
556.25	0.0056
556.4444	0.0028
556.6388	-0.0003
556.8332	0.0022
557.0276	0.0016
557.222	-0.0091
557.4163	0.0116
557.6107	0.0076
557.805	-0.0118
557.9993	0.0068
558.1936	0.0014
558.3879	0.0038
558.5821	0.0101
558.7764	-0.0072
558.9706	-0.0013
559.1648	0.004
559.359	-0.0046
559.5532	-0.0082
559.7473	0.0047
559.9415	-0.0069
560.1356	0.0099
560.3297	-0.0038
560.5238	0.0103
560.7179	0.001
560.9119	0.0032
561.106	-0.006
561.3	0.0044
561.494	-0.0077
561.688	-0.0085
561.882	-0.0007
562.076	-0.0006
562.2699	0.0032
562.4639	0.0118
562.6578	0.0028
562.8517	0.0076
563.0456	0.0005
563.2395	0.0015
563.4333	0.0004
563.6272	-0.0043
563.821	0.0011
564.0148	-0.0009
564.2086	0.001
564.4024	0.0113
564.5961	0.0044
564.7899	0.0088
564.9836	-0.0004
565.1773	0.0153
565.371	0.0042
565.5647	0.0013
565.7584	0.0096
565.952	0.009
566.1456	0.0002
566.3393	0.0002
566.5329	-0.005
566.7264	-0.0044
566.92	-0.0015
567.1136	-0.0001
567.3071	-0.0089
567.5006	0.0071
567.6941	-0.0023
567.8876	-0.0032
568.0811	0.0206
568.2745	0.0017
568.468	0.0059
568.6614	0.0042
568.8548	0.0047
569.0482	0.0083
569.2416	0.0037
569.4349	0.0034
569.6283	0.003
569.8216	0.0049
570.0149	-0.0044
570.2082	0.0049
570.4015	-0.0002
570.5947	0.0006
570.788	0.0068
570.9812	-0.0041
571.1744	0.0057
571.3676	0.0014
571.5608	0.0016
571.754	0.0047
571.9471	0.0018
572.1402	0.003
572.3333	0.0046
572.5264	0.0062
572.7195	0.0017
572.9126	-0.0016
573.1057	0.0034
573.2987	0.0074
573.4917	0.0014
573.6847	-0.0032
573.8777	0.0046
574.0707	0.0046
574.2636	0.0028
574.4566	0.0036
574.6495	-0.0031
574.8424	0.0059
575.0353	0.0044
575.2281	0.0066
575.421	0.0028
575.6138	-0.0009
575.8067	0.0035
575.9995	-0.001
576.1923	0.0025
576.385	0.0033
576.5778	0.0067
576.7706	0.001
576.9633	0.0039
577.156	-0.0064
577.3487	0.0011
577.5414	-0.001
577.734	-0.0004
577.9267	0.0031
578.1193	0.0061
578.3119	-0.0001
578.5045	0.0035
578.6971	-0.0005
578.8897	0.0019
579.0822	0.0099
579.2747	-0.0014
579.4673	0.0037
579.6598	0.01
579.8522	0.0034
580.0447	0.0054
580.2372	0.0091
580.4296	0.0087
580.622	-0.0033
580.8144	0.0019
581.0068	0.002
581.1992	0.0016
581.3915	0.0001
581.5839	0.0036
581.7762	0.0004
581.9685	0.0036
582.1608	0.0005
582.353	0.0067
582.5453	0.0048
582.7375	0.0018
582.9298	-0.0028
583.122	-0.0037
583.3142	0.0046
583.5063	0.0012
583.6985	-0.0028
583.8906	0.0012
584.0827	0.0065
584.2749	-0.0019
584.4669	0.0015
584.659	0.0072
584.8511	0.0047
585.0431	0.0047
585.2352	0.0006
585.4272	0.0013
585.6192	-0.001
585.8111	0.0038
586.0031	0.0019
586.195	-0.0021
586.387	0.0041
586.5789	0.0035
586.7708	0.0051
586.9627	0.0024
587.1545	0.0013
587.3464	0.0039
587.5382	0.0046
587.73	0.0018
587.9218	-0.0033
588.1136	-0.0042
588.3053	0.0014
588.4971	0.0068
588.6888	-0.0011
588.8805	-0.0009
589.0722	0.0101
589.2639	0.0066
589.4556	0.0017
589.6472	0.0081
589.8389	0.0026
590.0305	-0.0007
590.2221	0.005
590.4137	0.0042
590.6052	0.0023
590.7968	0.0036
590.9883	0.0007
591.1798	0.0013
591.3713	-0.0004
591.5628	-0.0009
591.7543	-0.0011
591.9458	-0.0002
592.1372	0.0034
592.3286	-0.0036
592.52	0.0013
592.7114	0.0038
592.9028	0.0098
593.0941	-0.0009
593.2855	0.0013
593.4768	0.0061
593.6681	0.0044
593.8594	0.003
594.0506	0.003
594.2419	0.0036
594.4331	0.0025
594.6244	-0.0007
594.8156	-0.0028
595.0067	-0.0028
595.1979	-0.0061
595.3891	0.002
595.5802	0.0036
595.7713	0.002
595.9624	0.0061
596.1535	-0.0018
596.3446	-0.0012
596.5357	0.0062
596.7267	-0.0006
596.9177	0.0047
597.1087	0.0014
597.2997	0.0023
597.4907	-0.0064
597.6817	0.0048
597.8726	0.0019
598.0635	0.0028
598.2544	-0.003
598.4453	0.002
598.6362	0.0018
598.827	0.0024
599.0179	0.0004
599.2087	0.0074
599.3995	0.0058
599.5903	0.0049
599.7811	0.0066
599.9718	-0.0007
600.1626	0.0005
600.3533	-0.0056
600.544	-0.0001
600.7347	0.0005
600.9254	0.0074
601.116	0.0005
601.3067	0.004
601.4973	0.0023
601.6879	0.002
601.8785	0.005
602.0691	-0.0002
602.2596	0.003
602.4502	0.0068
602.6407	0.0011
602.8312	0.0029
603.0217	0.0045
603.2122	0.002
603.4027	0.0045
603.5931	-0.0006
603.7835	0.0055
603.9739	-0.0028
604.1643	0.0016
604.3547	0.0062
604.5451	0.0069
604.7354	0.0017
604.9257	-0.0031
605.116	-0.0031
605.3063	0.0039
605.4966	-0.0047
605.6869	0.0073
605.8771	0.0032
606.0673	0.0019
606.2575	-0.0042
606.4477	0.0086
606.6379	0.0023
606.8281	-0.0005
607.0182	0.0016
607.2083	0.0039
607.3985	0.0027
607.5885	-0.0026
607.7786	0.0015
607.9687	0.0072
608.1587	0.0022
608.3488	0.0084
608.5388	-0.0082
608.7288	-0.0014
608.9187	-0.0007
609.1087	0.007
609.2986	0.0041
609.4886	-0.0046
609.6785	0.0055
609.8684	0.0001
610.0582	-0.003
610.2481	-0.0081
610.4379	0.0087
610.6278	0.0074
610.8176	0.0085
611.0074	0.0001
611.1971	0.0017
611.3869	-0
611.5766	-0.0068
611.7664	0.0072
611.9561	0.0023
612.1458	0.003
612.3354	-0.0016
612.5251	0.001
612.7147	0.0047
612.9044	0.0017
613.094	0.0051
613.2836	0.0054
613.4731	0.005
613.6627	0.0108
613.8522	0.0051
614.0417	0.0031
614.2313	0.0065
614.4207	-0.0034
614.6102	0.0029
614.7997	0.0071
614.9891	0.0104
615.1785	-0.002
615.3679	0.0001
615.5573	0.0014
615.7467	0.0011
615.9361	0.0075
616.1254	0.007
616.3147	-0.0052
616.504	0.0063
616.6933	0.005
616.8826	0.0036
617.0718	0.0045
617.2611	-0.0028
617.4503	-0.0034
617.6395	0.0006
617.8287	0.0003
618.0179	-0.001
618.207	0.0098
618.3961	-0.003
618.5853	-0.0047
618.7744	0.0054
618.9634	0.0135
619.1525	0.0027
619.3416	0.0018
619.5306	0.0038
619.7196	0.0017
619.9086	-0
620.0976	-0.0079
620.2866	0.0022
620.4755	0.0041
620.6645	0.0087
620.8534	-0.0022
621.0423	0.0053
621.2312	-0.0034
621.42	-0.0016
621.6089	-0.0012
621.7977	0.0103
621.9865	0.0039
622.1753	-0.0067
622.3641	-0.0068
622.5529	-0.0034
622.7416	-0.0025
622.9303	0.0085
623.1191	0.0043
623.3078	0.0049
623.4964	0.0002
623.6851	0.0017
623.8737	0.0015
624.0624	-0.0136
624.251	0.0037
624.4396	0.0079
624.6282	0.0123
624.8167	0.0014
625.0053	0.0212
625.1938	0.0013
625.3823	0.0095
625.5708	0.0044
625.7593	-0.0061
625.9477	0.0023
626.1362	0.0004
626.3246	-0.0034
626.513	0.0047
626.7014	0.0024
626.8898	0.0123
627.0781	0.0022
627.2665	0.005
627.4548	-0.0139
627.6431	-0.0022
627.8314	0.0033
628.0197	0.0039
628.2079	-0.0078
628.3962	0.0001
628.5844	0.0073
628.7726	-0.0035
628.9608	0.0013
629.1489	-0.004
629.3371	-0.0115
629.5252	0.0053
629.7134	0.0011
629.9015	0.0023
630.0895	-0.0101
630.2776	0.0094
630.4657	0.0057
630.6537	0.0091
630.8417	-0.0114
631.0297	0.011
631.2177	0.0053
631.4057	0.0021
631.5936	-0.0025
631.7815	0.0159
631.9695	0.011
632.1574	0.0141
632.3452	0.0093
632.5331	0.0229
632.7209	0.0107
632.9088	0.0045
633.0966	0.0232
633.2844	-0.0001
633.4722	0.0073
633.6599	0.0222
633.8477	0.0047
634.0354	0.0107
634.2231	-0.0079
634.4108	0.0076
634.5985	0.0066
634.7861	-0.0083
634.9738	-0.0066
635.1614	0.006
635.349	-0.0046
635.5366	-0.0055
635.7242	0.0107
635.9117	-0.0006
636.0993	0.002
636.2868	-0.0071
636.4743	0.006
636.6618	-0.0126
636.8492	0.0073
637.0367	-0.0102
637.2241	0.0006
637.4115	0.0311
637.5989	0.0008
637.7863	0.0224
637.9737	-0.0039
638.161	0.0037
638.3484	-0.0153
638.5357	0.0008
638.723	0.0103
638.9103	-0.0114
639.0975	-0.0019
639.2848	0.0133
639.472	0.0117
639.6592	-0.0147
639.8464	-0.0065
640.0336	-0.0006
640.2208	0.0013
640.4079	-0.0069
640.595	-0.0126
640.7821	0.007
640.9692	-0.0229
641.1563	0.0089
641.3434	0.0084
641.5304	0.0024
641.7174	0.0103
641.9044	-0.0005
642.0914	0.0197
642.2784	-0.0106
642.4653	-0.0058
642.6523	0.0063
642.8392	-0.0065
643.0261	0.0171
643.213	-0.0001
643.3999	0.0168
643.5867	0.0167
643.7735	-0.0185
643.9604	0.0117
644.1472	0.0112
644.3339	-0.0063
644.5207	-0.0075
644.7075	-0.0006
644.8942	0.0123
645.0809	0.0044
645.2676	-0.0194
645.4543	-0.0129
645.6409	0.0096
645.8276	0.0129
646.0142	0.0097
646.2008	0.0109
646.3874	-0.011
646.574	0.0138
646.7605	-0.0065
646.9471	-0.0172
647.1336	-0.0236
647.3201	-0.0127
647.5066	0.0008
647.6931	-0.0043
647.8795	0.0027
648.0659	0.0058
648.2524	0.0123
648.4388	0.0071
648.6252	0.0207
648.8115	-0.0011
648.9979	0.0081
649.1842	-0.0018
649.3705	0.0066
649.5568	-0.033
649.7431	-0.0031
649.9294	-0.0075
650.1156	-0.0071
650.3018	0.0246
650.488	0.0054
650.6742	0.0105
650.8604	0.0201
651.0466	-0.0025
651.2327	-0.0094
651.4188	0.0053
651.6049	0.0003
651.791	-0.0104
651.9771	0.0036
652.1632	0.0033
652.3492	-0.0053
652.5352	0.0162
652.7212	0.0044
652.9072	-0.0145
653.0932	0.0189
653.2791	0.0001
653.465	0.0133
653.651	0.0053
653.8369	0.0085
654.0227	-0.0052
654.2086	0.0042
654.3944	0.0081
654.5803	0.0008
654.7661	0.0005
654.9519	-0.0011
655.1377	0.0001
655.3234	0.0001
655.5092	0.0001
655.6949	0.0001
655.8806	0.0001
656.0663	0.0001
656.2519	0.0001
656.4376	0.0001
656.6232	0.0001
656.8088	0.0001
656.9945	0.0001
657.18	0.0001
657.3656	0.0001
657.5511	0.0001
657.7367	0.0001
657.9222	0.0001
658.1077	0.0001
658.2932	0.0001
658.4786	0.0001
658.6641	0.0001
658.8495	0.0001
659.0349	0.0001
659.2203	0.0001
659.4057	0.0001
659.591	0.0676
659.7764	0.03
659.9617	0.0037
660.147	0.0071
660.3323	-0.002
660.5176	-0.0023
660.7028	-0.0201
660.888	0.0086
661.0733	-0.0064
661.2585	-0.0165
661.4436	0.006
661.6288	0.0192
661.8139	-0.0181
661.9991	-0.0291
662.1842	0.0007
662.3693	-0.0093
662.5544	0.0072
662.7394	0.0236
662.9245	-0.0077
663.1095	-0.0318
663.2945	0.0044
663.4795	-0.0109
663.6644	0.0144
663.8494	-0.0058
664.0343	0.0035
664.2193	-0.0141
664.4042	0.0025
664.589	0.0053
664.7739	0.0136
664.9587	-0.0216
665.1436	-0.018
665.3284	-0.0001
665.5132	-0.0264
665.698	0.0087
665.8827	0.0247
666.0675	-0.0297
666.2522	0.014
666.4369	0.0015
666.6216	0.0026
666.8063	0.0206
666.9909	-0.0141
667.1756	-0.0077
667.3602	-0.014
667.5448	0.0002
667.7294	0.0347
667.9139	-0.0338
668.0985	0.0189
668.283	-0.0018
668.4675	0.0035
668.652	-0.0144
668.8365	-0.0196
669.0209	0.0005
669.2054	-0.0114
669.3898	0.0069
669.5742	0.0205
669.7586	0.0176
669.943	0.0094
670.1273	-0.0107
670.3117	0.0035
670.496	0.007
670.6803	0.016
670.8646	-0.0184
671.0488	0.0287
671.2331	-0.0096
671.4173	0.0121
671.6015	-0.0132
671.7857	0.0068
671.9699	0.0117
672.1541	0.0004
672.3382	-0.0085
672.5223	-0.0059
672.7064	-0.012
672.8905	-0.0021
673.0746	0.0014
673.2587	0.0167
673.4427	0.0132
673.6267	0.0149
673.8107	0.0103
673.9947	0.008
674.1787	0.01
674.3626	-0.0036
674.5465	0.0206
674.7304	-0.0114
674.9143	0.006
675.0982	-0.0174
675.2821	0.0089
675.4659	0.0027
675.6497	0.0084
675.8335	0.0029
676.0173	-0.0056
676.2011	0.0256
676.3849	-0.0017
676.5686	0.0034
676.7523	-0.0083
676.936	0.0064
677.1197	0.0076
677.3034	0.0283
677.487	-0.0043
677.6706	0.0026
677.8542	0.0113
678.0378	0.009
678.2214	-0.0131
678.405	0.0123
678.5885	0.0128
678.772	0.0001
678.9555	-0.0134
679.139	-0.0009
679.3225	-0.0092
679.5059	0.0067
679.6894	0.002
679.8728	-0.0138
680.0562	0.002
680.2395	-0.0057
680.4229	-0.0219
680.6062	-0.0125
680.7896	-0.0117
680.9729	0.0104
681.1562	0.0018
681.3394	0.0095
681.5227	-0.0013
681.7059	0.0036
681.8891	0.0088
682.0723	0.0002
682.2555	-0.0051
682.4387	0.0243
682.6218	0.016
682.805	-0.015
682.9881	0.0149
683.1712	0.0019
683.3542	0.0226
683.5373	-0.0163
683.7203	0.0143
683.9034	-0.0127
684.0864	0.0012
684.2694	-0.0064
684.4523	-0.0037
684.6353	-0.0076
684.8182	-0.0102
685.0011	0.0178
685.184	-0.0006
685.3669	0.0108
685.5498	-0.0201
685.7326	0.0045
685.9154	-0.0107
686.0982	0.0159
686.281	-0.0096
686.4638	0.0192
686.6465	0.0163
686.8293	-0.0225
687.012	0.0056
687.1947	-0.0136
687.3774	-0.0042
687.56	-0.0194
687.7427	0.0049
687.9253	-0.0145
688.1079	-0.006
688.2905	-0.0034
688.4731	0.001
688.6556	-0.0172
688.8382	-0.0405
689.0207	0.0212
689.2032	0.0208
689.3857	-0.0235
689.5681	-0.0148
689.7506	0.0082
689.933	0.0061
690.1154	0.0202
690.2978	-0.0004
690.4802	0.0272
690.6626	-0.0068
690.8449	-0.0015
691.0272	-0.0158
691.2095	-0.013
691.3918	0.0052
691.5741	0.0229
691.7563	-0.0035
691.9386	0.0109
692.1208	-0.0136
692.303	0.0006
692.4852	0.0151
692.6673	0.0034
692.8495	-0.0155
693.0316	0.0062
693.2137	0.0096
693.3958	0.0047
693.5778	0.0022
693.7599	-0.0041
693.9419	-0.0008
694.1239	0.0016
694.3059	0.0057
694.4879	0.0011
694.6699	-0.0071
694.8518	0.0028
695.0337	0.0156
695.2157	0.0344
695.3975	0.0005
695.5794	-0.0406
695.7613	0.0234
695.9431	0.001
696.1249	0.0174
696.3067	-0.0198
696.4885	0.022
696.6703	-0.0005
696.852	-0.0143
697.0337	0.0141
697.2154	0.0078
697.3971	0.0124
697.5788	0.0037
697.7605	-0.0251
697.9421	0.0096
698.1237	0.0089
698.3053	-0.0155
698.4869	0.0104
698.6685	0.0141
698.85	0.0168
699.0315	-0.025
699.213	0.0234
699.3945	-0.0001
699.576	0.0136
699.7575	0.0192
699.9389	-0.0086
700.1203	-0.015
700.3017	0.0093
700.4831	0.0097
700.6645	0.0253
700.8458	-0.0025
701.0271	0.0048
701.2084	0.0153
701.3897	0.0051
701.571	-0.0287
701.7523	0.0218
701.9335	-0.0029
702.1147	0.0112
702.2959	-0.0035
702.4771	-0.0046
702.6583	-0.0113
702.8394	-0.0295
703.0205	0.0052
703.2016	-0.0222
703.3827	-0.0193
703.5638	0.022
703.7449	-0.0054
703.9259	-0.014
704.1069	0.006
704.2879	-0.0098
704.4689	-0.0084
704.6499	0.0295
704.8308	0.0031
705.0117	0.0039
705.1927	0.0047
705.3735	0.0209
705.5544	0.0238
705.7353	-0.0238
705.9161	-0.0192
706.0969	0.0042
706.2777	0.0084
706.4585	-0.006
706.6393	0.0215
706.82	-0.0018
707.0007	0.0003
707.1815	-0.0075
707.3621	0.0256
707.5428	-0.0014
707.7235	-0.005
707.9041	0.0159
708.0847	-0.0126
708.2653	0.0271
708.4459	-0.0139
708.6265	-0.0156
708.807	0.0142
708.9875	0.0087
709.168	-0.0175
709.3485	0.0057
709.529	0.0139
709.7095	-0.0367
709.8899	-0.0066
710.0703	0.0086
710.2507	-0.009
710.4311	-0.0157
710.6115	0.0323
710.7918	0.0176
710.9721	0.0005
711.1524	-0.0175
711.3327	-0.0272
711.513	-0.0077
711.6932	0.0036
711.8735	0.0095
712.0537	-0.0354
712.2339	-0.0054
712.4141	0.0328
712.5942	-0.0049
712.7744	0.0119
712.9545	0.0031
713.1346	0.0302
713.3147	0.0116
713.4947	-0.0088
713.6748	0.0133
713.8548	0.0211
714.0348	0.0184
714.2148	0.003
714.3948	0.0106
714.5748	0.0087
714.7547	-0.0042
714.9346	0.0034
715.1145	0.0059
715.2944	-0.0201
715.4743	0.016
715.6541	-0.001
715.834	0.035
716.0138	-0.003
716.1936	-0.0029
716.3733	-0.0217
716.5531	-0.0045
716.7328	0.0177
716.9126	0.0008
717.0923	-0.0403
717.2719	0.0071
717.4516	-0.0068
717.6312	-0.0214
717.8109	0.0078
717.9905	0.0115
718.1701	0.0028
718.3496	0.007
718.5292	-0.0211
718.7087	0.0002
718.8882	0.0231
719.0677	-0.0056
719.2472	0.0024
719.4267	-0.0147
719.6061	-0.0132
719.7856	0.0293
719.965	-0.0243
720.1443	-0.0163
720.3237	0.0082
720.5031	0.0025
720.6824	0.0083
720.8617	0.0296
721.041	0.0073
721.2203	-0.0086
721.3995	-0.0152
721.5788	-0.0095
721.758	-0.0232
721.9372	0.0192
722.1164	0.02
722.2956	-0.0084
722.4747	-0.0006
722.6538	-0.0341
722.8329	0.0245
723.012	-0.0189
723.1911	-0.0139
723.3702	0.0119
723.5492	-0.0049
723.7282	-0.0036
723.9072	0.0207
724.0862	0.0061
724.2652	-0.0145
724.4441	-0.0006
724.623	0.0289
724.8019	-0.0083
724.9808	0.0205
725.1597	0.0193
725.3385	0.0143
725.5174	-0.0075
725.6962	-0.0012
725.875	0.0059
726.0538	0.0143
726.2325	0.0035
726.4112	-0.0188
726.59	-0.0223
726.7687	-0.0274
726.9474	0.0019
727.126	0.0121
727.3047	-0.0302
727.4833	0.007
727.6619	-0.0306
727.8405	-0.0059
728.0191	0.0089
728.1976	-0.0033
728.3762	-0.0009
728.5547	-0.0081
728.7332	0.0261
728.9116	0.0239
729.0901	-0.0001
729.2686	0.0185
729.447	0.0082
729.6254	0.0037
729.8038	0.0008
729.9821	-0.0234
730.1605	0.0234
730.3388	-0.0038
730.5171	0.0011
730.6954	-0.0152
730.8737	0.0069
731.0519	-0.0165
731.2302	0.0151
731.4084	0.0007
731.5866	-0.0056
731.7648	0.0032
731.9429	0.0045
732.1211	0.0064
732.2992	0.0022
732.4773	0.0205
732.6554	-0.0035
732.8335	0.0215
733.0115	0.0087
733.1896	-0.0171
733.3676	0.0181
733.5456	0.0098
733.7235	-0.0272
733.9015	0.0084
734.0794	-0.0069
734.2574	-0.0182
734.4353	0.0089
734.6131	-0.01
734.791	-0.0084
734.9689	0.0097
735.1467	-0.0188
735.3245	0.0127
735.5023	0.0192
735.68	-0.0167
735.8578	0.008
736.0355	-0.0028
736.2132	-0.0126
736.3909	0.0318
736.5686	-0.0137
736.7463	-0.0296
736.9239	0.0282
737.1015	0.0167
737.2791	0.017
737.4567	0.0144
737.6343	0.0006
737.8118	0.0048
737.9894	-0.0064
738.1669	-0.0044
738.3444	0.0388
738.5218	-0.0033
738.6993	0.0135
738.8767	-0.0014
739.0541	-0.009
739.2315	-0.0137
739.4089	0.0002
739.5863	0.016
739.7636	0.011
739.9409	0.0158
740.1182	-0.023
740.2955	0.0375
740.4728	-0.0172
740.65	-0.0149
740.8272	-0.007
741.0044	-0.0117
741.1816	0.0055
741.3588	-0.0208
741.5359	-0.0221
741.7131	0.0025
741.8902	0.0031
742.0673	-0.0219
742.2444	0.0416
742.4214	-0.0077
742.5985	-0.0096
742.7755	0.0229
742.9525	-0.0344
743.1295	-0.0294
743.3064	-0.0141
743.4834	-0.0144
743.6603	0.037
743.8372	-0.0384
744.0141	0.0374
744.191	-0.023
744.3678	-0.0286
744.5446	0.0326
744.7215	0.0088
744.8982	-0.0097
745.075	0.0314
745.2518	-0.0083
745.4285	0.0173
745.6052	-0.0458
745.7819	-0.0184
745.9586	0.0071
746.1353	-0.0172
746.3119	0.0127
746.4885	0.0232
746.6651	-0.0053
746.8417	-0.0048
747.0183	0.0293
747.1948	0.0077
747.3714	0.0017
747.5479	0.0183
747.7244	0.0141
747.9008	-0.0293
748.0773	0.0204
748.2537	-0.0068
748.4301	0.0252
748.6065	0.0039
748.7829	-0.0253
748.9593	-0.0043
749.1356	0.003
749.3119	0.0082
749.4882	0.0182
749.6645	-0.0164
749.8408	0.005
750.017	0.0151
750.1933	-0.0251
750.3695	0.0022
750.5457	-0.0197
750.7218	-0.003
750.898	-0.0297
751.0741	-0.0024
751.2502	0.0155
751.4263	-0.0104
751.6024	0.0349
751.7784	0.003
751.9545	-0.0085
752.1305	0.0021
752.3065	-0.0017
752.4825	0.003
752.6584	0.0002
752.8344	-0.0121
753.0103	-0.0195
753.1862	0.0046
753.3621	0.0055
753.5379	-0.0065
753.7138	-0.0008
753.8896	-0.0068
754.0654	-0.0096
754.2412	0.0266
754.417	-0.0025
754.5927	0.0074
754.7685	0.0021
754.9442	0.0175
755.1199	0.0081
755.2956	-0.0167
755.4712	0.0005
755.6469	-0.0001
755.8225	-0.007
755.9981	0.026
756.1736	0.0216
756.3492	-0.0121
756.5248	0.0146
756.7003	-0.0156
756.8758	-0.0069
757.0513	-0.0035
757.2267	0.006
757.4022	-0.0085
757.5776	-0.0013
757.753	0.0123
757.9284	-0.0194
758.1038	-0.0092
758.2791	-0.002
758.4545	-0.0315
758.6298	-0.002
758.8051	0.0185
758.9803	-0.006
759.1556	-0.0107
759.3308	-0.0032
759.506	0.0059
759.6812	0.0018
759.8564	-0.0051
760.0316	-0.0076
760.2067	0.0269
760.3819	0.0036
760.557	0.0005
760.732	-0.0123
760.9071	0.0265
761.0821	-0.0208
761.2572	0.0043
761.4322	0.007
761.6072	-0.0045
761.7821	-0.0409
761.9571	0.0045
762.132	-0.0028
762.3069	0.0107
762.4818	0.0177
762.6567	-0.0184
762.8316	0.0172
763.0064	-0.0155
763.1812	0.0229
763.356	0.0059
763.5308	0.0136
763.7055	0.0046
763.8803	-0.0076
764.055	0.004
764.2297	-0.0069
764.4044	0.0019
764.579	-0.0069
764.7537	0.003
764.9283	0.0147
765.1029	0.0086
765.2775	0.0193
765.4521	0.0038
765.6266	-0.0097
765.8011	0.0228
765.9756	-0.0019
766.1501	-0.0314
766.3246	-0.0127
766.4991	0.0301
766.6735	0.0449
766.8479	0.0116
767.0223	0.0075
767.1967	0.0431
767.371	0.0171
767.5454	0.0338
767.7197	-0.0047
767.894	-0.0137
768.0683	0.0148
768.2425	0.0044
768.4168	-0.0038
768.591	-0.017
768.7652	-0.0069
768.9394	0.0011
769.1135	-0.0134
769.2877	0.0036
769.4618	0.0266
769.6359	-0.0101
769.81	0.0056
769.984	0.0273
770.1581	-0.0079
770.3321	0.0264
770.5061	-0.0058
770.6801	0.0221
770.8541	0.0061
771.028	0.0279
771.202	0.0334
771.3759	-0.0142
771.5498	-0.0031
771.7236	0.007
771.8975	0.0044
772.0713	0.0095
772.2451	-0.0041
772.4189	0.0032
772.5927	-0.0338
772.7665	-0.0259
772.9402	0.0163
773.1139	-0.01
773.2876	-0.0154
773.4613	-0.0081
773.635	-0.0157
773.8086	0.041
773.9822	0.0107
774.1558	0.0394
774.3294	-0.0176
774.503	0.0217
774.6765	0.0206
774.8501	-0.017
775.0236	0.0487
775.1971	0.0043
775.3705	-0.0095
775.544	-0.0236
775.7174	0.0146
775.8908	-0.0266
776.0642	0.0419
776.2376	0.0565
776.4109	0.0083
776.5843	0.0157
776.7576	0.0213
776.9309	0.0141
777.1041	-0.0194
777.2774	-0.002
777.4506	-0.0179
777.6238	-0.0167
777.797	0.028
777.9702	0.0017
778.1434	0.0232
778.3165	-0.0436
778.4896	-0.0334
778.6627	0.0072
778.8358	-0.0083
779.0089	-0.0298
779.1819	0.0286
779.3549	-0.0128
779.5279	-0.0137
779.7009	0.0788
779.8739	0.05
780.0468	-0.0216
780.2197	-0.0211
780.3926	-0.0294
780.5655	0.0055
780.7384	0.0252
780.9112	-0.0016
781.0841	0.0206
781.2569	0.0196
781.4297	-0.018
781.6024	-0.0083
781.7752	0.0196
781.9479	0.0305
782.1206	0.0181
782.2933	0.0309
782.466	0.0318
782.6386	0.0003
782.8113	-0.0008
782.9839	-0.027
783.1565	0.0299
783.329	-0.0145
783.5016	0.025
783.6741	-0.0274
783.8466	0.0182
784.0191	0.0031
784.1916	-0.0234
784.3641	-0.0346
784.5365	0.0191
784.7089	0.0047
784.8813	0.032
785.0537	0.0038
785.2261	-0.0149
785.3984	0.0424
785.5707	-0.0212
785.743	0.0518
785.9153	-0.001
786.0876	-0.0175
786.2598	-0.0092
786.432	0.0226
786.6042	0.051
786.7764	-0.0067
786.9486	-0.0024
787.1207	0.018
787.2928	0.0406
787.4649	-0.041
787.637	-0.002
787.8091	-0.0008
787.9811	0.058
788.1532	0.0009
788.3252	0.005
788.4972	-0.0116
788.6691	-0.0014
788.8411	-0.0293
789.013	0.0131
789.1849	-0.0244
789.3568	0.0092
789.5287	0.0606
789.7005	-0.0788
789.8723	-0.0573
790.0442	-0.0448
790.2159	0.0317
790.3877	0.0168
790.5595	0.0133
790.7312	-0.0583
790.9029	-0.0095
791.0746	0.0575
791.2463	0.0018
791.4179	-0.0119
791.5896	0.0085
791.7612	0.0138
791.9328	0.0147
792.1044	0.0833
792.2759	-0.0327
792.4474	-0.0176
792.619	0.0577
792.7905	-0.0061
792.9619	0.0186
793.1334	0.0229
793.3048	0.0246
793.4762	-0.0225
793.6476	-0.0264
793.819	-0.0101
793.9904	-0.0169
794.1617	-0.0191
794.333	-0.002
794.5043	0.035
794.6756	0.0003
794.8469	-0.0099
795.0181	-0.0096
795.1893	0.0195
795.3605	-0.0075
795.5317	0.0183
795.7029	-0.0465
795.874	-0.0301
796.0452	-0.0065
796.2163	0.0264
796.3873	0.0297
796.5584	0.0173
796.7294	-0.0266
796.9005	0.0392
797.0715	-0.0553
797.2425	0.1013
797.4134	0.0523
797.5844	0.0263
797.7553	-0.0725
797.9262	0.0113
798.0971	0.0583
798.2679	-0.0286
798.4388	0.0433
798.6096	-0.014
798.7804	0.0131
798.9512	0.0527
799.122	-0.0242
799.2927	0.0613
799.4635	-0.0403
799.6342	-0.0552
799.8049	0.0223
799.9755	0.0209
800.1462	-0.0321
800.3168	-0.0309
800.4874	-0.0458
800.658	0.039
800.8286	0.0135
800.9991	0.0616
801.1696	0.0127
801.3402	-0.0692
801.5106	-0.0273
801.6811	0.0343
801.8516	0.0483
802.022	0.0204
802.1924	-0.0663
802.3628	0.0668
802.5332	0.0156
802.7035	0.0237
802.8739	0.0528
803.0442	-0.0208
803.2145	0.0228
803.3847	-0.0557
803.555	0.0073
803.7252	-0.0381
803.8954	-0.012
804.0656	0.0323
804.2358	0.0313
804.4059	0.0882
804.5761	0.0146
804.7462	-0.0572
804.9163	-0.0115
805.0864	-0.0093
805.2564	-0.0318
805.4264	0.0389
805.5965	0.1202
805.7665	0.0009
805.9364	-0.0926
806.1064	0.0211
806.2763	0.0169
806.4462	0.0127
806.6161	0.0148
806.786	0.0036
806.9559	-0.0138
807.1257	-0.0055
807.2955	-0.0159
807.4653	0.0031
807.6351	0.0856
807.8048	-0.0371
807.9746	0.0121
808.1443	-0.0392
808.314	0.0113
808.4837	0.0264
808.6533	-0.0452
808.8229	0.0682
808.9926	0.0203
809.1622	0.0273
809.3317	-0.0192
809.5013	-0.0635
809.6708	-0.0007
809.8403	0.0507
810.0098	0.0401
810.1793	0.0362
810.3488	-0.0008
810.5182	0.1221
810.6876	0.0011
810.857	0.0431
811.0264	-0.0372
811.1958	0.003
811.3651	-0.001
811.5344	0.0353
811.7037	0.0328
811.873	0.0287
812.0422	-0.0375
812.2115	0.1342
812.3807	-0.0356
812.5499	-0.0429
812.7191	-0.0669
812.8882	-0.0651
813.0574	-0.0114
813.2265	0.0477
813.3956	0.0248
813.5646	0.0675
813.7337	-0.0043
813.9027	-0.0895
814.0718	0.0037
814.2407	-0.0133
814.4097	0.0414
814.5787	0.0609
814.7476	-0.0021
814.9165	0.0406
815.0854	0.003
815.2543	0.0726
815.4232	0.0998
815.592	0.0697
815.7608	-0.0652
815.9296	0.0427
816.0984	0.1329
816.2671	0.0037
816.4359	0.0822
816.6046	-0.0073
816.7733	0.0417
816.942	-0.0344
817.1106	0.195
817.2793	-0.0041
817.4479	0.0133
817.6165	0.0444
817.785	0.2239
817.9536	-0.0644
818.1221	0.0334
818.2906	-0.0518
818.4591	0.0765
818.6276	0.0346
818.7961	0.0709
818.9645	0.0501
819.1329	0.1232
819.3013	-0.1052
819.4697	-0.0859
819.638	0.0928
819.8064	-0.0014
819.9747	0.188
820.143	-0.0675
820.3113	0.3156
820.4795	0.0759
820.6477	0.0852
820.816	0.0466
820.9842	0.1729
821.1523	-0.0235
821.3205	0.0053
821.4886	-0.0209
821.6567	-0.1533
821.8248	0.0979
821.9929	-0.1662
822.1609	0.0481
822.329	-0.01
822.497	0.1102
822.665	0.0534
822.833	-0.0674
823.0009	-0.0186
823.1688	-0.0303
823.3367	-0.109
823.5046	0.1096
823.6725	-0.0706
823.8404	-0.0473
824.0082	0.1329
824.176	-0.0216
824.3438	0.1616
824.5116	0.0284
824.6793	0.0183
824.847	0.0945
825.0147	0.0557
825.1824	0.0089
825.3501	0.3354
825.5177	-0.0349
825.6854	-0.1381
825.853	-0.0185
826.0206	-0.109
826.1881	0.0691
826.3557	0.1853
826.5232	0.1624
826.6907	0.0383
826.8582	-0.1071
827.0257	0.1634
827.1931	0.0971
827.3605	-0.0416
827.528	0.0356
827.6953	-0.1245
827.8627	0.0219
828.03	0.0577
828.1974	0.002
828.3647	-0.0661
828.532	0.0791
828.6992	0.0402
828.8665	0.0652
829.0337	0.0335
829.2009	-0.0427
829.3681	-0.0199
829.5352	-0.2465
829.7024	0.0488
829.8695	-0.0053
830.0366	0.0387
830.2037	0.122
830.3707	0.1065
830.5378	-0.0732
830.7048	-0.2275
830.8718	0.2391
831.0388	0.1335
831.2057	0.3704
831.3727	0.9939
831.5396	0.1888
831.7065	-0.9397
831.8734	0.0791
832.0402	0.3636
832.2071	-0.2786
832.3739	-0.3493
832.5407	-1.9744
832.7075	-0.404
832.8742	-0
833.041	0.148
833.2077	0.2986
833.3744	0.1034
833.541	-0.0019
833.7077	-0.1069
833.8743	0.1345
834.0409	-0.0845
834.2075	0.1974
834.3741	-0.0739
834.5407	-0
834.7072	0.1665
834.8737	0.2471
835.0402	0.1737
835.2067	-0.1517
835.3731	-0.0076
835.5395	-0.03
835.706	-0.1111
835.8723	0.4688
836.0387	-0.0869
836.2051	-0.0772
836.3714	0.0552
836.5377	-0.0264
836.704	0.0939
836.8703	-0.1148
837.0365	-0.5351
837.2027	0.2899
837.3689	0.6102
837.5351	-0.1226
837.7013	0.2591
837.8674	-0
838.0335	-0.0779
838.1997	-0.0782
838.3657	-0
838.5318	-0.3152
838.6978	1.1845
838.8639	-0.0319
839.0299	-0.1157
839.1958	0.1246
839.3618	0.3369
839.5277	0.3047
839.6937	-0.2384
839.8596	-0.124
840.0254	0.2074
840.1913	-0.4902
840.3571	-0.0596
840.523	-0
840.6888	0.0358
840.8545	-0.3676
841.0203	0.1712
841.186	-0.146
841.3517	0.2703
841.5174	-0.0787
841.6831	0.1421
841.8488	0.0135
842.0144	0.0694
842.18	0.2944
842.3456	-0.3474
842.5112	-0.5477
842.6767	-0.01
842.8422	-0
843.0077	0.4231
843.1732	0.5354
843.3387	0.212
843.5042	-0.1836
843.6696	-0.1971
843.835	0.0475
844.0004	-0.0783
844.1657	-0
844.3311	13.8462
844.4964	-0.4643
844.6617	0.629
844.827	-0
844.9923	-0.0731
845.1575	-0.3841
845.3227	-0.1572
845.4879	-0.3418
845.6531	-0.0707
845.8183	-0
845.9834	-0
846.1485	0.144
846.3136	0.0187
846.4787	0.3586
846.6438	0.1706
846.8088	0.3606
846.9738	-0
847.1388	0.0272
847.3038	0.7103
847.4687	1.1337
847.6337	-0.4525
847.7986	-0.3139
847.9635	0.1612
848.1284	0.2981
848.2932	-0.1896
848.458	-0
848.6228	0.4172
848.7876	-0
848.9524	0.2299
849.1172	-1.9243
849.2819	-0
849.4466	0.3497
849.6113	-0.0772
849.7759	-0.537
849.9406	0.5979
850.1052	-1.2318
850.2698	-0
850.4344	-0.1993
850.599	0.1377
850.7635	0.2568
850.928	0.3323
851.0925	0.4799
851.257	0.4338
851.4215	-0
851.5859	-0.0669
851.7503	-0.5448
851.9147	-0.4796
852.0791	0.005
852.2434	-0
852.4078	-0
852.5721	0.0977
852.7364	0.8408
852.9007	-0.2023
853.0649	-0
853.2291	0.0248
853.3934	0.1544
853.5575	-0.124
853.7217	0.2085
853.8859	-0.0168
854.05	-0.3781
854.2141	0.3127
854.3782	0.6298
854.5423	-0.3231
854.7063	0.1368
854.8703	0.2689
855.0343	-0.3334
855.1983	0.0279
855.3623	-0.174
855.5262	-0
855.6901	-0.0797
855.854	0.0407
856.0179	0.8386
856.1818	-0
856.3456	0.4347
856.5094	-0
856.6732	0.2034
856.837	-0.9858
857.0008	0.6326
857.1645	0.2919
857.3282	-0.2675
857.4919	-0.1243
857.6556	0.4
857.8192	-0.0837
857.9828	0.0812
858.1465	-0.0971
858.31	-0
858.4736	-0.3247
858.6372	-0.0531
858.8007	0.1075
858.9642	0.7023
859.1277	0.6528
859.2911	-0.3514
859.4546	-0
859.618	0.1058
859.7814	0.0329
859.9448	0.2654
860.1081	-0
860.2715	-1.8968
860.4348	-0
860.5981	0.872
860.7614	-0
860.9246	-0.2142
861.0879	0.4725
861.2511	-0
861.4143	-0
861.5774	-0
861.7406	0.0788
861.9037	-0.545
862.0668	-0.2931
862.2299	-0.1459
862.393	0.0692
862.556	-0
862.7191	-0.3755
862.8821	0.0893
863.0451	0.1771
863.208	-0
863.371	-0.7291
863.5339	0.3032
863.6968	-0
863.8597	-0
864.0225	-0
864.1854	0.127
864.3482	-1.1193
864.511	-0.0378
864.6737	-0.3195
864.8365	0.0326
864.9992	-0
865.1619	-0.6067
865.3246	-2.0334
865.4873	-0.5351
865.65	0.0534
865.8126	1.0359
865.9752	14.0442
866.1378	-0
866.3004	-0
866.4629	-1.7656
866.6254	-0.2372
866.7879	0.7115
866.9504	-0.1284
867.1129	0.1225
867.2753	-0.0257
867.4377	-0.021
867.6001	-0.6659
867.7625	0.0064
867.9249	0.5756
868.0872	0.28
868.2495	0.5975
868.4118	-0
868.5741	-0.5978
868.7363	-0
868.8986	-0.3301
869.0608	-0.2541
869.223	-0.5572
869.3851	-0.3059
869.5473	0.1855
869.7094	1.137
869.8715	-0
870.0336	-0.0859
870.1957	-0.9578
870.3577	0.5145
870.5197	0.155
870.6817	-0.8048
870.8437	-0.2996
871.0057	0.7413
871.1676	0.1765
871.3295	0.5309
871.4914	-0
871.6533	-0.2703
871.8151	-0
871.977	0.8916
872.1388	-0.1553
872.3006	-0
872.4623	-0.6587
872.6241	-0
872.7858	0.5824
872.9475	0.5655
873.1092	0.2572
873.2709	0.3902
873.4325	-1.9331
873.5941	-0.3077
873.7557	-0
873.9173	0.0561
874.0789	0.1767
874.2404	-0
874.4019	0.0284
874.5634	-0
874.7249	0.568
874.8863	-0.3823
875.0478	-0.3131
875.2092	0.8479
875.3706	0.2112
875.5319	-0.4177
875.6933	0.1431
875.8546	0.2608
876.0159	0.3547
876.1772	-0
876.3385	-0
876.4997	-0.1538
876.6609	-0.2295
876.8221	-0
876.9833	-0.1935
877.1445	0.1461
877.3056	-1.2006
877.4667	-0
877.6278	-0
877.7889	-0
877.9499	-0.0668
878.111	-0.2675
878.272	-0.0861
878.433	-0
878.5939	0.0289
878.7549	0.0878
878.9158	-0
879.0767	0.2234
879.2376	-0.4317
879.3984	0.3876
879.5593	0.8362
879.7201	-0
879.8809	-0
880.0417	-0.255
880.2024	0.8993
880.3632	-0.5382
880.5239	-0.0191
880.6846	-0
880.8452	-0.2754
881.0059	-1.241
881.1665	-0.3696
881.3271	0.1828
881.4877	0.2182
881.6483	-1.1275
881.8088	-0
881.9693	-0.8901
882.1298	-0.8901
882.2903	-0.8901
