Data from D4ACN5uM460nmA_Absorbance_13-05-41-961.txt Node
Date: Fri Feb 21 13:05:41 GMT 2025
User: LASERRRRR
Spectrometer: FLMT03099
Trigger mode: 0
Integration Time (sec): 1.500000E-2
Scans to average: 1
Electric dark correction enabled: true
Nonlinearity correction enabled: false
Boxcar width: 0
XAxis mode: Wavelengths
Number of Pixels in Spectrum: 3648
>>>>>Begin Spectral Data<<<<<
179.3399	-0.5004
179.5586	-0.5004
179.7771	-0.5004
179.9957	-0.2047
180.2143	-1.1883
180.4329	0.3966
180.6514	12.7647
180.8699	0.6548
181.0885	0.0166
181.307	0.41
181.5255	0.3423
181.744	0.7167
181.9625	0.2523
182.181	-0
182.3994	-0.3904
182.6179	-0.4733
182.8363	-0.0083
183.0547	-0.2048
183.2732	0.1352
183.4916	0.1354
183.71	0.2187
183.9284	-0.0888
184.1467	0.245
184.3651	0.1318
184.5835	0.1672
184.8018	0.1087
185.0201	0.0799
185.2385	0.262
185.4568	0.1172
185.6751	0.1426
185.8934	0.23
186.1117	-0.0137
186.3299	0.1503
186.5482	0.0494
186.7664	0.164
186.9847	0.3691
187.2029	0.0068
187.4211	-0.0158
187.6393	0.2378
187.8575	0.1858
188.0757	0.6005
188.2939	0.0221
188.512	0.1591
188.7302	0.0305
188.9483	0.2948
189.1665	0.3086
189.3846	0.2401
189.6027	0.0153
189.8208	0.1501
190.0389	0.1455
190.257	0.0423
190.475	-0.1008
190.6931	0.1351
190.9111	0.1402
191.1292	0.1553
191.3472	0.1728
191.5652	0.1681
191.7832	0.2408
192.0012	0.0587
192.2192	0.0668
192.4371	0.1197
192.6551	0.105
192.873	0.1137
193.091	0.2181
193.3089	0.0458
193.5268	0.2096
193.7447	0.1604
193.9626	0.2112
194.1805	0.1987
194.3984	0.1652
194.6162	0.2437
194.8341	0.1897
195.0519	0.2437
195.2697	0.314
195.4875	0.3184
195.7054	0.2642
195.9231	0.1739
196.1409	0.308
196.3587	0.2699
196.5765	0.3467
196.7942	0.2958
197.012	0.323
197.2297	0.3445
197.4474	0.3743
197.6651	0.2625
197.8828	0.2919
198.1005	0.3471
198.3182	0.3532
198.5358	0.4488
198.7535	0.3399
198.9711	0.3463
199.1888	0.3319
199.4064	0.4073
199.624	0.3373
199.8416	0.3203
200.0592	0.3695
200.2767	0.3847
200.4943	0.4221
200.7119	0.3711
200.9294	0.4152
201.1469	0.403
201.3645	0.4497
201.582	0.4199
201.7995	0.3938
202.017	0.3809
202.2344	0.4276
202.4519	0.4169
202.6694	0.3806
202.8868	0.4188
203.1042	0.4318
203.3217	0.3905
203.5391	0.4098
203.7565	0.3934
203.9739	0.3951
204.1913	0.3401
204.4086	0.3475
204.626	0.3796
204.8433	0.3732
205.0607	0.346
205.278	0.3501
205.4953	0.3762
205.7126	0.3576
205.9299	0.3126
206.1472	0.3314
206.3644	0.3389
206.5817	0.3105
206.7989	0.3322
207.0162	0.3259
207.2334	0.3231
207.4506	0.2913
207.6678	0.3077
207.885	0.3206
208.1022	0.2944
208.3194	0.3043
208.5365	0.3291
208.7537	0.3034
208.9708	0.2753
209.1879	0.3057
209.405	0.2881
209.6222	0.2841
209.8392	0.3006
210.0563	0.2927
210.2734	0.2643
210.4905	0.2824
210.7075	0.2827
210.9245	0.2818
211.1416	0.2807
211.3586	0.2695
211.5756	0.2639
211.7926	0.2642
212.0096	0.2663
212.2265	0.2659
212.4435	0.2625
212.6604	0.2605
212.8774	0.2462
213.0943	0.2665
213.3112	0.2717
213.5281	0.2467
213.745	0.2339
213.9619	0.2504
214.1788	0.2597
214.3956	0.2534
214.6125	0.2735
214.8293	0.2734
215.0461	0.2462
215.2629	0.2472
215.4798	0.2468
215.6965	0.2365
215.9133	0.2512
216.1301	0.2366
216.3469	0.2685
216.5636	0.2612
216.7803	0.2521
216.9971	0.2639
217.2138	0.255
217.4305	0.2376
217.6472	0.2538
217.8639	0.2524
218.0805	0.249
218.2972	0.2378
218.5138	0.255
218.7305	0.2723
218.9471	0.2492
219.1637	0.2557
219.3803	0.2749
219.5969	0.252
219.8135	0.2629
220.0301	0.2555
220.2466	0.2639
220.4632	0.2562
220.6797	0.2691
220.8962	0.2727
221.1127	0.283
221.3292	0.2672
221.5457	0.275
221.7622	0.2616
221.9787	0.2854
222.1951	0.2782
222.4116	0.2843
222.628	0.2956
222.8444	0.2741
223.0608	0.2854
223.2772	0.2823
223.4936	0.2974
223.71	0.2879
223.9264	0.2933
224.1427	0.3062
224.3591	0.2972
224.5754	0.298
224.7917	0.2981
225.008	0.2901
225.2243	0.3031
225.4406	0.299
225.6569	0.2937
225.8732	0.3029
226.0894	0.3073
226.3057	0.3081
226.5219	0.3082
226.7381	0.3183
226.9543	0.3058
227.1705	0.3115
227.3867	0.3266
227.6029	0.3256
227.8191	0.3386
228.0352	0.3344
228.2513	0.3505
228.4675	0.3398
228.6836	0.3539
228.8997	0.348
229.1158	0.359
229.3319	0.3667
229.548	0.3553
229.764	0.3664
229.9801	0.374
230.1961	0.3785
230.4121	0.3688
230.6282	0.3801
230.8442	0.3959
231.0602	0.385
231.2761	0.3764
231.4921	0.386
231.7081	0.3944
231.924	0.3934
232.14	0.3983
232.3559	0.422
232.5718	0.4124
232.7877	0.4128
233.0036	0.4007
233.2195	0.4096
233.4353	0.4166
233.6512	0.4123
233.867	0.4215
234.0829	0.4275
234.2987	0.4233
234.5145	0.4312
234.7303	0.4214
234.9461	0.4338
235.1619	0.4441
235.3776	0.4316
235.5934	0.4337
235.8091	0.4349
236.0249	0.4494
236.2406	0.4411
236.4563	0.4493
236.672	0.4441
236.8877	0.4487
237.1034	0.4493
237.319	0.4461
237.5347	0.4446
237.7503	0.4442
237.966	0.4543
238.1816	0.4515
238.3972	0.4646
238.6128	0.4646
238.8284	0.4577
239.0439	0.4609
239.2595	0.462
239.475	0.4561
239.6906	0.4605
239.9061	0.4626
240.1216	0.4612
240.3371	0.458
240.5526	0.4623
240.7681	0.459
240.9836	0.4512
241.199	0.4559
241.4145	0.4509
241.6299	0.4425
241.8453	0.4376
242.0607	0.4323
242.2761	0.4225
242.4915	0.4233
242.7069	0.4106
242.9223	0.4188
243.1376	0.4115
243.353	0.3875
243.5683	0.3936
243.7836	0.3894
243.9989	0.3728
244.2142	0.3749
244.4295	0.3665
244.6448	0.3545
244.86	0.3467
245.0753	0.3376
245.2905	0.3347
245.5057	0.3294
245.721	0.3342
245.9362	0.3183
246.1514	0.318
246.3665	0.3013
246.5817	0.2895
246.7969	0.2956
247.012	0.2917
247.2271	0.2915
247.4423	0.2773
247.6574	0.2746
247.8725	0.2662
248.0876	0.2657
248.3026	0.2654
248.5177	0.2569
248.7328	0.2533
248.9478	0.2475
249.1628	0.2463
249.3779	0.2362
249.5929	0.2354
249.8079	0.2349
250.0228	0.2247
250.2378	0.2291
250.4528	0.2286
250.6677	0.2208
250.8827	0.215
251.0976	0.2183
251.3125	0.2138
251.5274	0.2042
251.7423	0.2051
251.9572	0.2028
252.172	0.2068
252.3869	0.2041
252.6017	0.2012
252.8166	0.1969
253.0314	0.1945
253.2462	0.1972
253.461	0.1913
253.6758	0.1882
253.8906	0.1931
254.1053	0.1927
254.3201	0.1935
254.5348	0.1797
254.7496	0.1825
254.9643	0.191
255.179	0.1832
255.3937	0.1907
255.6083	0.1889
255.823	0.1848
256.0377	0.1818
256.2523	0.1812
256.467	0.1857
256.6816	0.1818
256.8962	0.1787
257.1108	0.1803
257.3254	0.1792
257.54	0.1834
257.7545	0.1791
257.9691	0.1817
258.1836	0.1726
258.3981	0.1763
258.6127	0.1705
258.8272	0.1827
259.0417	0.173
259.2561	0.1741
259.4706	0.1725
259.6851	0.1734
259.8995	0.1739
260.114	0.1737
260.3284	0.1717
260.5428	0.1767
260.7572	0.1752
260.9716	0.1785
261.186	0.1755
261.4003	0.1763
261.6147	0.1728
261.829	0.1775
262.0433	0.1753
262.2577	0.1772
262.472	0.1725
262.6863	0.1723
262.9005	0.1734
263.1148	0.1707
263.3291	0.1719
263.5433	0.178
263.7576	0.1776
263.9718	0.1796
264.186	0.1773
264.4002	0.1823
264.6144	0.1815
264.8286	0.1797
265.0427	0.1802
265.2569	0.1799
265.471	0.1785
265.6851	0.1861
265.8993	0.1737
266.1134	0.1772
266.3275	0.1806
266.5415	0.1757
266.7556	0.1774
266.9697	0.1793
267.1837	0.1763
267.3978	0.176
267.6118	0.1707
267.8258	0.179
268.0398	0.1741
268.2538	0.1771
268.4677	0.1754
268.6817	0.172
268.8957	0.1728
269.1096	0.1684
269.3235	0.1728
269.5374	0.1763
269.7514	0.1739
269.9652	0.1694
270.1791	0.1712
270.393	0.169
270.6068	0.1708
270.8207	0.1655
271.0345	0.1638
271.2483	0.1646
271.4622	0.1683
271.676	0.1653
271.8897	0.1649
272.1035	0.1762
272.3173	0.1685
272.531	0.1704
272.7448	0.1614
272.9585	0.1573
273.1722	0.1621
273.3859	0.1649
273.5996	0.1637
273.8133	0.1709
274.0269	0.1625
274.2406	0.1636
274.4542	0.1664
274.6679	0.171
274.8815	0.1662
275.0951	0.1787
275.3087	0.1687
275.5223	0.1658
275.7358	0.17
275.9494	0.1699
276.1629	0.1727
276.3765	0.1704
276.59	0.1632
276.8035	0.1672
277.017	0.1687
277.2305	0.1749
277.444	0.1691
277.6574	0.1724
277.8709	0.1766
278.0843	0.1707
278.2978	0.1741
278.5112	0.1774
278.7246	0.1772
278.938	0.1711
279.1513	0.1745
279.3647	0.1735
279.5781	0.17
279.7914	0.1744
280.0047	0.1765
280.2181	0.174
280.4314	0.1693
280.6447	0.1854
280.8579	0.174
281.0712	0.174
281.2845	0.1745
281.4977	0.1762
281.711	0.1733
281.9242	0.1777
282.1374	0.1783
282.3506	0.1802
282.5638	0.1737
282.7769	0.1751
282.9901	0.1764
283.2033	0.1833
283.4164	0.1791
283.6295	0.1764
283.8426	0.174
284.0557	0.1784
284.2688	0.1827
284.4819	0.1788
284.695	0.1814
284.908	0.1809
285.1211	0.1868
285.3341	0.1803
285.5471	0.1881
285.7601	0.1881
285.9731	0.1828
286.1861	0.1859
286.3991	0.1904
286.612	0.1854
286.825	0.1855
287.0379	0.1813
287.2508	0.1864
287.4637	0.1865
287.6766	0.1856
287.8895	0.1841
288.1024	0.1873
288.3152	0.1859
288.5281	0.1813
288.7409	0.1876
288.9538	0.1933
289.1666	0.1926
289.3794	0.1931
289.5922	0.1891
289.8049	0.1875
290.0177	0.1892
290.2304	0.1907
290.4432	0.1924
290.6559	0.1877
290.8686	0.1904
291.0813	0.193
291.294	0.1883
291.5067	0.1921
291.7194	0.1933
291.932	0.1901
292.1447	0.1933
292.3573	0.1969
292.5699	0.1971
292.7825	0.1899
292.9951	0.1927
293.2077	0.1896
293.4203	0.1901
293.6328	0.1935
293.8454	0.1946
294.0579	0.1932
294.2704	0.1974
294.4829	0.1915
294.6954	0.19
294.9079	0.1907
295.1204	0.1902
295.3328	0.1967
295.5453	0.1957
295.7577	0.1949
295.9701	0.1967
296.1825	0.1929
296.3949	0.1886
296.6073	0.1919
296.8197	0.192
297.0321	0.1958
297.2444	0.1903
297.4567	0.1959
297.6691	0.1948
297.8814	0.1908
298.0937	0.1907
298.306	0.1899
298.5182	0.1948
298.7305	0.1946
298.9428	0.1932
299.155	0.1913
299.3672	0.1948
299.5794	0.1874
299.7916	0.1953
300.0038	0.1947
300.216	0.1885
300.4282	0.1847
300.6403	0.1944
300.8525	0.1907
301.0646	0.1925
301.2767	0.1929
301.4888	0.1896
301.7009	0.1979
301.913	0.1942
302.125	0.1939
302.3371	0.1875
302.5491	0.1969
302.7612	0.1961
302.9732	0.1972
303.1852	0.195
303.3972	0.1913
303.6092	0.193
303.8211	0.1926
304.0331	0.1902
304.245	0.1894
304.457	0.1898
304.6689	0.191
304.8808	0.1825
305.0927	0.186
305.3046	0.1851
305.5164	0.1777
305.7283	0.1888
305.9401	0.1767
306.152	0.1803
306.3638	0.1827
306.5756	0.1786
306.7874	0.1766
306.9992	0.1719
307.2109	0.1725
307.4227	0.1698
307.6344	0.1723
307.8462	0.1679
308.0579	0.1687
308.2696	0.1651
308.4813	0.1647
308.693	0.1596
308.9046	0.1659
309.1163	0.1573
309.328	0.1576
309.5396	0.1533
309.7512	0.1533
309.9628	0.1548
310.1744	0.1518
310.386	0.1503
310.5976	0.1462
310.8091	0.1532
311.0207	0.15
311.2322	0.1415
311.4437	0.1373
311.6552	0.1462
311.8667	0.1442
312.0782	0.1359
312.2897	0.1428
312.5012	0.1366
312.7126	0.1332
312.924	0.1299
313.1355	0.1325
313.3469	0.1308
313.5583	0.1292
313.7696	0.1291
313.981	0.1359
314.1924	0.1261
314.4037	0.1284
314.6151	0.1245
314.8264	0.1317
315.0377	0.1311
315.249	0.134
315.4603	0.1164
315.6716	0.1248
315.8828	0.1226
316.0941	0.1166
316.3053	0.1166
316.5165	0.1245
316.7277	0.1216
316.9389	0.1292
317.1501	0.1214
317.3613	0.119
317.5724	0.119
317.7836	0.1147
317.9947	0.1192
318.2058	0.1178
318.417	0.1205
318.6281	0.1203
318.8391	0.1245
319.0502	0.1201
319.2613	0.1169
319.4723	0.1164
319.6834	0.1271
319.8944	0.1229
320.1054	0.1201
320.3164	0.1184
320.5274	0.1186
320.7383	0.1197
320.9493	0.1218
321.1602	0.118
321.3712	0.1228
321.5821	0.1104
321.793	0.1248
322.0039	0.12
322.2148	0.1184
322.4257	0.12
322.6365	0.1176
322.8474	0.1221
323.0582	0.1179
323.269	0.1258
323.4798	0.118
323.6906	0.1199
323.9014	0.1239
324.1122	0.1127
324.3229	0.1236
324.5337	0.1178
324.7444	0.1169
324.9551	0.1277
325.1658	0.1227
325.3765	0.1253
325.5872	0.1195
325.7979	0.1222
326.0085	0.1243
326.2192	0.1178
326.4298	0.1292
326.6404	0.1286
326.851	0.1199
327.0616	0.1312
327.2722	0.1248
327.4828	0.118
327.6933	0.1311
327.9039	0.1186
328.1144	0.1255
328.3249	0.1281
328.5354	0.1251
328.7459	0.1265
328.9564	0.1297
329.1669	0.1336
329.3773	0.1243
329.5878	0.1253
329.7982	0.1314
330.0086	0.1243
330.219	0.1256
330.4294	0.1299
330.6398	0.1271
330.8502	0.1276
331.0605	0.1269
331.2708	0.1225
331.4812	0.1254
331.6915	0.1269
331.9018	0.1244
332.1121	0.1276
332.3224	0.128
332.5326	0.1251
332.7429	0.1294
332.9531	0.1327
333.1633	0.1256
333.3735	0.1322
333.5837	0.1321
333.7939	0.131
334.0041	0.1365
334.2143	0.1319
334.4244	0.1357
334.6346	0.1296
334.8447	0.1335
335.0548	0.1369
335.2649	0.1323
335.475	0.133
335.685	0.1342
335.8951	0.1279
336.1051	0.1339
336.3152	0.1363
336.5252	0.1285
336.7352	0.1325
336.9452	0.1351
337.1552	0.1313
337.3652	0.1279
337.5751	0.1337
337.7851	0.1374
337.995	0.1401
338.2049	0.1372
338.4148	0.1352
338.6247	0.139
338.8346	0.1335
339.0445	0.1352
339.2543	0.1405
339.4642	0.1371
339.674	0.133
339.8838	0.1395
340.0936	0.1336
340.3034	0.1368
340.5132	0.1366
340.7229	0.1373
340.9327	0.1487
341.1424	0.137
341.3522	0.1396
341.5619	0.1439
341.7716	0.1434
341.9813	0.1414
342.1909	0.1431
342.4006	0.1473
342.6102	0.1454
342.8199	0.1415
343.0295	0.1455
343.2391	0.1495
343.4487	0.151
343.6583	0.1515
343.8679	0.146
344.0774	0.1457
344.287	0.1508
344.4965	0.1541
344.706	0.1543
344.9155	0.1526
345.125	0.1466
345.3345	0.1612
345.544	0.1589
345.7534	0.154
345.9629	0.1558
346.1723	0.1596
346.3817	0.16
346.5911	0.1559
346.8005	0.1623
347.0099	0.1574
347.2193	0.1682
347.4286	0.1669
347.638	0.1617
347.8473	0.1634
348.0566	0.1719
348.2659	0.1621
348.4752	0.1628
348.6845	0.1651
348.8937	0.17
349.103	0.1597
349.3122	0.1551
349.5214	0.1696
349.7306	0.1738
349.9398	0.1692
350.149	0.1646
350.3582	0.171
350.5674	0.17
350.7765	0.1682
350.9856	0.1682
351.1948	0.1695
351.4039	0.1722
351.613	0.1745
351.822	0.1836
352.0311	0.1741
352.2402	0.174
352.4492	0.1733
352.6582	0.1818
352.8672	0.1753
353.0762	0.1801
353.2852	0.1788
353.4942	0.1805
353.7032	0.1712
353.9121	0.1747
354.1211	0.1775
354.33	0.1914
354.5389	0.1778
354.7478	0.1758
354.9567	0.187
355.1655	0.1823
355.3744	0.1772
355.5833	0.1832
355.7921	0.1861
356.0009	0.1855
356.2097	0.1775
356.4185	0.1896
356.6273	0.1876
356.8361	0.186
357.0448	0.1956
357.2536	0.1835
357.4623	0.1895
357.671	0.1968
357.8797	0.1914
358.0884	0.19
358.2971	0.1946
358.5057	0.1978
358.7144	0.195
358.923	0.2014
359.1316	0.1967
359.3402	0.1989
359.5488	0.1948
359.7574	0.2018
359.966	0.2049
360.1746	0.1985
360.3831	0.205
360.5916	0.2071
360.8002	0.2127
361.0087	0.2021
361.2172	0.2073
361.4256	0.2079
361.6341	0.2115
361.8426	0.2076
362.051	0.2106
362.2594	0.2122
362.4678	0.2175
362.6762	0.2196
362.8846	0.2191
363.093	0.2122
363.3014	0.2174
363.5097	0.2159
363.718	0.222
363.9264	0.2181
364.1347	0.2248
364.343	0.2174
364.5513	0.2245
364.7595	0.2203
364.9678	0.2284
365.176	0.2354
365.3842	0.2309
365.5925	0.2264
365.8007	0.2354
366.0089	0.2404
366.217	0.2296
366.4252	0.2292
366.6333	0.2345
366.8415	0.2385
367.0496	0.2432
367.2577	0.2405
367.4658	0.24
367.6739	0.2271
367.882	0.2437
368.09	0.2327
368.2981	0.2514
368.5061	0.2467
368.7141	0.2392
368.9221	0.2549
369.1301	0.2571
369.3381	0.2533
369.5461	0.2485
369.754	0.253
369.962	0.2499
370.1699	0.2549
370.3778	0.2663
370.5857	0.2532
370.7936	0.2521
371.0015	0.2532
371.2093	0.248
371.4172	0.2594
371.625	0.2597
371.8328	0.2513
372.0406	0.263
372.2484	0.2659
372.4562	0.2627
372.664	0.2695
372.8717	0.266
373.0795	0.2802
373.2872	0.272
373.4949	0.2779
373.7026	0.2664
373.9103	0.2583
374.118	0.2745
374.3256	0.2727
374.5333	0.2787
374.7409	0.2672
374.9485	0.2733
375.1561	0.2749
375.3637	0.2719
375.5713	0.279
375.7789	0.2878
375.9864	0.2764
376.194	0.2876
376.4015	0.2698
376.609	0.2719
376.8165	0.282
377.024	0.2826
377.2315	0.2823
377.4389	0.2769
377.6464	0.2847
377.8538	0.2906
378.0612	0.2848
378.2686	0.2897
378.476	0.2958
378.6834	0.2844
378.8908	0.2868
379.0981	0.2938
379.3055	0.2884
379.5128	0.2893
379.7201	0.2823
379.9274	0.2998
380.1347	0.3003
380.342	0.3055
380.5492	0.2981
380.7565	0.2979
380.9637	0.3009
381.1709	0.2923
381.3781	0.3027
381.5853	0.2993
381.7925	0.2965
381.9997	0.3061
382.2068	0.3062
382.4139	0.3078
382.6211	0.2956
382.8282	0.3123
383.0353	0.31
383.2424	0.3039
383.4494	0.3098
383.6565	0.3036
383.8635	0.3039
384.0706	0.3191
384.2776	0.3011
384.4846	0.3175
384.6916	0.2968
384.8986	0.3162
385.1055	0.3109
385.3125	0.3129
385.5194	0.3073
385.7263	0.2985
385.9333	0.3091
386.1402	0.3119
386.347	0.3105
386.5539	0.3114
386.7608	0.3033
386.9676	0.3063
387.1744	0.3066
387.3813	0.3048
387.5881	0.2998
387.7948	0.3154
388.0016	0.3261
388.2084	0.3076
388.4151	0.3075
388.6219	0.3012
388.8286	0.3185
389.0353	0.3109
389.242	0.3114
389.4487	0.3055
389.6553	0.3012
389.862	0.3033
390.0686	0.3048
390.2753	0.3029
390.4819	0.3077
390.6885	0.3093
390.8951	0.2967
391.1016	0.2944
391.3082	0.2999
391.5147	0.2916
391.7213	0.2867
391.9278	0.2929
392.1343	0.2905
392.3408	0.2855
392.5473	0.2835
392.7537	0.2875
392.9602	0.29
393.1666	0.2915
393.373	0.2836
393.5794	0.2829
393.7858	0.2799
393.9922	0.2758
394.1986	0.2821
394.4049	0.2842
394.6113	0.2824
394.8176	0.2766
395.0239	0.275
395.2302	0.2767
395.4365	0.2833
395.6428	0.2753
395.8491	0.2738
396.0553	0.2646
396.2615	0.2769
396.4678	0.2709
396.674	0.2688
396.8802	0.2686
397.0863	0.2724
397.2925	0.2658
397.4987	0.2672
397.7048	0.2711
397.9109	0.2553
398.117	0.2606
398.3231	0.2686
398.5292	0.255
398.7353	0.2656
398.9413	0.2591
399.1474	0.2676
399.3534	0.2569
399.5594	0.265
399.7654	0.2665
399.9714	0.2646
400.1774	0.2582
400.3833	0.2615
400.5893	0.2693
400.7952	0.2695
401.0011	0.2514
401.207	0.2601
401.4129	0.2602
401.6188	0.2507
401.8247	0.2689
402.0305	0.2568
402.2364	0.2613
402.4422	0.2635
402.648	0.2742
402.8538	0.2624
403.0596	0.259
403.2654	0.2596
403.4711	0.2548
403.6768	0.2601
403.8826	0.2648
404.0883	0.2576
404.294	0.2637
404.4997	0.252
404.7054	0.2616
404.911	0.2685
405.1167	0.2672
405.3223	0.2594
405.5279	0.2749
405.7335	0.2666
405.9391	0.2631
406.1447	0.2698
406.3502	0.2655
406.5558	0.2587
406.7613	0.2626
406.9668	0.2666
407.1724	0.2572
407.3778	0.2632
407.5833	0.2639
407.7888	0.2651
407.9942	0.2678
408.1997	0.2627
408.4051	0.2645
408.6105	0.2547
408.8159	0.2511
409.0213	0.2683
409.2267	0.2608
409.432	0.2594
409.6374	0.2603
409.8427	0.2562
410.048	0.271
410.2533	0.2612
410.4586	0.2537
410.6639	0.2664
410.8691	0.2531
411.0744	0.264
411.2796	0.2601
411.4848	0.2669
411.69	0.2534
411.8952	0.2628
412.1004	0.2681
412.3056	0.2515
412.5107	0.2468
412.7158	0.2552
412.921	0.2598
413.1261	0.2602
413.3312	0.2665
413.5362	0.2612
413.7413	0.2598
413.9464	0.2552
414.1514	0.2542
414.3564	0.251
414.5614	0.2563
414.7664	0.2518
414.9714	0.2528
415.1764	0.2615
415.3813	0.2579
415.5863	0.2599
415.7912	0.2551
415.9961	0.2582
416.201	0.2599
416.4059	0.2671
416.6108	0.2601
416.8156	0.2527
417.0205	0.2519
417.2253	0.266
417.4301	0.2656
417.6349	0.2519
417.8397	0.2557
418.0445	0.251
418.2492	0.2501
418.454	0.2506
418.6587	0.2432
418.8634	0.2542
419.0681	0.2509
419.2728	0.2538
419.4775	0.2574
419.6822	0.2458
419.8868	0.2401
420.0915	0.2518
420.2961	0.2405
420.5007	0.2494
420.7053	0.2438
420.9099	0.2435
421.1144	0.2457
421.319	0.2409
421.5235	0.2374
421.728	0.2573
421.9325	0.2443
422.137	0.2297
422.3415	0.2343
422.546	0.2318
422.7504	0.2395
422.9549	0.2467
423.1593	0.22
423.3637	0.2339
423.5681	0.237
423.7725	0.229
423.9769	0.2414
424.1812	0.2204
424.3856	0.2224
424.5899	0.2212
424.7942	0.2216
424.9985	0.2207
425.2028	0.2283
425.4071	0.2256
425.6113	0.2309
425.8156	0.2195
426.0198	0.2232
426.224	0.2294
426.4282	0.216
426.6324	0.2189
426.8366	0.2159
427.0407	0.2128
427.2449	0.205
427.449	0.2076
427.6531	0.2183
427.8572	0.2069
428.0613	0.2093
428.2654	0.2053
428.4694	0.1926
428.6735	0.2054
428.8775	0.2033
429.0815	0.2009
429.2855	0.2043
429.4895	0.2008
429.6935	0.2046
429.8975	0.1909
430.1014	0.1988
430.3053	0.2022
430.5093	0.182
430.7132	0.1928
430.9171	0.193
431.1209	0.1891
431.3248	0.1835
431.5286	0.186
431.7325	0.1938
431.9363	0.1839
432.1401	0.1869
432.3439	0.1721
432.5477	0.1735
432.7514	0.1749
432.9552	0.1772
433.1589	0.1705
433.3627	0.1715
433.5664	0.1653
433.7701	0.164
433.9737	0.1688
434.1774	0.1636
434.3811	0.1634
434.5847	0.1625
434.7883	0.1611
434.9919	0.1526
435.1955	0.1559
435.3991	0.1609
435.6027	0.1512
435.8062	0.1614
436.0098	0.1454
436.2133	0.1431
436.4168	0.1411
436.6203	0.1303
436.8238	0.1402
437.0272	0.1407
437.2307	0.1357
437.4341	0.1338
437.6375	0.1408
437.841	0.1266
438.0443	0.1327
438.2477	0.1189
438.4511	0.1226
438.6545	0.1235
438.8578	0.1251
439.0611	0.1258
439.2644	0.125
439.4677	0.1133
439.671	0.1195
439.8743	0.1198
440.0775	0.1085
440.2808	0.112
440.484	0.1097
440.6872	0.113
440.8904	0.1015
441.0936	0.1058
441.2967	0.0919
441.4999	0.0961
441.703	0.1002
441.9062	0.0986
442.1093	0.1179
442.3124	0.0926
442.5155	0.1004
442.7185	0.092
442.9216	0.0949
443.1246	0.0889
443.3276	0.0884
443.5307	0.0862
443.7337	0.0845
443.9366	0.087
444.1396	0.0719
444.3426	0.0782
444.5455	0.079
444.7484	0.072
444.9513	0.0755
445.1542	0.0841
445.3571	0.0729
445.56	0.0719
445.7628	0.0667
445.9657	0.0754
446.1685	0.0689
446.3713	0.0699
446.5741	0.0718
446.7769	0.0719
446.9797	0.0657
447.1824	0.0605
447.3852	0.0544
447.5879	0.0663
447.7906	0.0546
447.9933	0.0591
448.196	0.0526
448.3986	0.054
448.6013	0.0454
448.8039	0.0584
449.0066	0.0668
449.2092	0.0612
449.4118	0.0521
449.6143	0.0579
449.8169	0.0434
450.0195	0.0563
450.222	0.0454
450.4245	0.055
450.627	0.0478
450.8295	0.0471
451.032	0.048
451.2345	0.0406
451.4369	0.0478
451.6394	0.0336
451.8418	0.0505
452.0442	0.0385
452.2466	0.0302
452.449	0.0405
452.6513	0.0321
452.8537	0.0315
453.056	0.0411
453.2583	0.0411
453.4607	0.0309
453.663	0.0352
453.8652	0.0321
454.0675	0.0433
454.2697	0.0371
454.472	0.0335
454.6742	0.0326
454.8764	0.0334
455.0786	0.0325
455.2808	0.0231
455.4829	0.0316
455.6851	0.0362
455.8872	0.019
456.0893	0.0282
456.2915	0.0298
456.4935	0.0289
456.6956	0.0175
456.8977	0.028
457.0997	0.0282
457.3018	0.0259
457.5038	0.0225
457.7058	0.0299
457.9078	0.0242
458.1098	0.0275
458.3117	0.0268
458.5137	0.0118
458.7156	0.0171
458.9175	0.0195
459.1194	0.0181
459.3213	0.013
459.5232	0.0279
459.725	0.0236
459.9269	0.0216
460.1287	0.0088
460.3305	0.0229
460.5323	0.0196
460.7341	0.0152
460.9359	0.0158
461.1376	0.0178
461.3394	0.019
461.5411	0.0215
461.7428	0.0114
461.9445	0.0119
462.1462	0.0137
462.3479	0.0109
462.5495	0.0136
462.7512	0.0231
462.9528	0.0121
463.1544	0.0064
463.356	0.0089
463.5576	0.0148
463.7592	0.0028
463.9607	0.0121
464.1623	0.0055
464.3638	0.0093
464.5653	0.0139
464.7668	0.0187
464.9683	0.0125
465.1697	0.0081
465.3712	0.0065
465.5726	0.0064
465.7741	0.0144
465.9755	0.0043
466.1769	0.0069
466.3782	0.0136
466.5796	0.0079
466.7809	0.019
466.9823	0.0092
467.1836	0.0099
467.3849	0.0078
467.5862	0.0022
467.7875	-0.002
467.9887	0.01
468.19	0.018
468.3912	0.0159
468.5924	0.0059
468.7936	0.0081
468.9948	0.0054
469.196	0.0065
469.3972	-0.0009
469.5983	0.0053
469.7994	0.01
470.0006	0.0038
470.2017	0.0075
470.4027	0.0203
470.6038	-0.0021
470.8049	0.0141
471.0059	0.0128
471.2069	0.0059
471.408	0.0097
471.6089	0.0107
471.8099	0.0079
472.0109	0.0113
472.2119	0.0193
472.4128	0.0088
472.6137	0.0015
472.8146	0.0076
473.0155	0.0128
473.2164	0.0101
473.4173	0.0002
473.6181	0.0037
473.819	-0.0012
474.0198	0.0041
474.2206	0.0006
474.4214	-0.003
474.6222	-0.0101
474.8229	-0.0029
475.0237	0.0119
475.2244	0.0028
475.4251	0.0053
475.6258	0.0013
475.8265	0.0054
476.0272	0.0008
476.2278	0.0012
476.4285	0.0075
476.6291	0.0122
476.8297	0.0025
477.0303	0.0028
477.2309	0.007
477.4315	0.0056
477.632	-0.0035
477.8326	0.0098
478.0331	0.0082
478.2336	0.0077
478.4341	-0.0001
478.6346	-0.0002
478.8351	0.0034
479.0355	0.0046
479.236	0.01
479.4364	0.015
479.6368	0.0066
479.8372	0.0045
480.0376	-0.0015
480.2379	0.0006
480.4383	0.0095
480.6386	-0.0037
480.8389	-0.0012
481.0392	-0.0034
481.2395	0.0111
481.4398	0.0027
481.6401	0.0047
481.8403	0.0043
482.0405	0.0042
482.2408	0.0114
482.441	0.007
482.6411	0.0029
482.8413	-0.0007
483.0415	0.0076
483.2416	0.013
483.4417	0.0023
483.6419	0.0016
483.8419	0.0022
484.042	0.0063
484.2421	0.0014
484.4422	0.0056
484.6422	0.005
484.8422	0.0047
485.0422	0.0024
485.2422	-0.0032
485.4422	-0.0007
485.6422	0.0025
485.8421	0.0019
486.042	0.0081
486.242	0.0012
486.4419	0.0022
486.6417	-0.0006
486.8416	0.0087
487.0415	-0.0035
487.2413	-0.0044
487.4411	0.0046
487.641	0.0008
487.8408	0.0072
488.0405	0.0076
488.2403	-0.0033
488.4401	0.0059
488.6398	0.0129
488.8395	0.0045
489.0392	0.002
489.2389	0.0118
489.4386	0.0013
489.6383	0.0092
489.8379	-0.0008
490.0376	-0.0028
490.2372	0.0049
490.4368	-0.0052
490.6364	0.0053
490.836	0.0025
491.0355	0.001
491.2351	0.0032
491.4346	0.0019
491.6341	0.0021
491.8336	0.0029
492.0331	0.0038
492.2326	0.0049
492.432	0.004
492.6315	0.0065
492.8309	0.0054
493.0303	0.0031
493.2297	0.0041
493.4291	-0.0011
493.6284	0.0142
493.8278	-0.0002
494.0271	0.005
494.2264	0.0023
494.4257	0.0093
494.625	0.0037
494.8243	0.0009
495.0236	0.0034
495.2228	0.0021
495.422	0.0064
495.6213	0.0062
495.8205	0.0022
496.0196	0.0018
496.2188	0.004
496.418	-0.0016
496.6171	-0.0009
496.8162	-0.003
497.0153	0.0082
497.2144	0.0046
497.4135	-0.0041
497.6126	-0.0006
497.8116	0.0019
498.0107	0.0016
498.2097	0.0005
498.4087	-0.0001
498.6077	0.0032
498.8067	0.0044
499.0056	-0.0032
499.2046	0.0058
499.4035	0.007
499.6024	-0
499.8013	0.0087
500.0002	0.0065
500.199	0.0137
500.3979	-0.0033
500.5967	-0.0042
500.7956	0.0025
500.9944	0.0054
501.1932	0.0104
501.3919	0.0104
501.5907	0.0088
501.7895	0.0019
501.9882	0.0062
502.1869	0.011
502.3856	-0.0002
502.5843	0.0049
502.783	-0.0004
502.9816	0.0035
503.1803	0.0076
503.3789	0.0096
503.5775	-0.0007
503.7761	-0.0004
503.9747	0.0085
504.1732	-0.0043
504.3718	0.01
504.5703	0.001
504.7689	-0.0005
504.9674	-0.0058
505.1658	0.0022
505.3643	0.0037
505.5628	0.0125
505.7612	0.0015
505.9597	-0.0064
506.1581	0.0095
506.3565	0.0063
506.5549	0.0009
506.7532	-0.0007
506.9516	0.0004
507.1499	0.001
507.3482	0.0011
507.5465	0.0081
507.7448	-0.0063
507.9431	0.0055
508.1414	-0.0034
508.3396	0.0061
508.5379	0.0001
508.7361	0.0025
508.9343	0.0062
509.1325	0.0029
509.3306	0.0008
509.5288	0.003
509.7269	0.0015
509.9251	0.0069
510.1232	0.0024
510.3213	0.0068
510.5193	0.0037
510.7174	-0.0022
510.9154	0.0114
511.1135	0.0061
511.3115	-0.0019
511.5095	0.0024
511.7075	0.0072
511.9055	0.0089
512.1034	0.0012
512.3014	0.0021
512.4993	0.0061
512.6972	0.0075
512.8951	0.002
513.093	0.0002
513.2908	0.0126
513.4887	0.002
513.6865	0.0055
513.8844	0.0071
514.0822	0.0039
514.2799	0.0008
514.4777	-0.0064
514.6755	0.0003
514.8732	0.0012
515.0709	0.0028
515.2687	-0.001
515.4664	0.0209
515.664	0.0104
515.8617	0.0051
516.0594	0.0027
516.257	0.0059
516.4546	0.0079
516.6522	0.0105
516.8498	0.0064
517.0474	0.009
517.2449	-0.0016
517.4425	0.0021
517.64	0.0027
517.8375	0.0142
518.035	-0.0019
518.2325	-0.0052
518.43	0.0053
518.6274	-0.0006
518.8249	-0.0047
519.0223	0.0093
519.2197	0.0075
519.4171	0.005
519.6145	0.0056
519.8118	-0.0157
520.0092	-0.0062
520.2065	0.008
520.4038	0.0023
520.6011	0.0115
520.7984	0.0081
520.9956	0.0154
521.1929	0.005
521.3901	0.0066
521.5874	0.0105
521.7846	-0.001
521.9818	-0.0036
522.1789	0.0018
522.3761	0.0164
522.5732	-0.0035
522.7704	-0.008
522.9675	0.0029
523.1646	-0.0014
523.3617	0.0112
523.5587	0.0021
523.7558	-0.0039
523.9528	0.007
524.1498	-0.0025
524.3468	0.0177
524.5438	0.0069
524.7408	-0
524.9378	0.0088
525.1347	-0.0089
525.3316	-0.0013
525.5285	0.0008
525.7254	0.01
525.9223	0.0229
526.1192	0.0033
526.316	0.0119
526.5129	0.0055
526.7097	-0.0001
526.9065	0.0026
527.1033	0.0078
527.3	-0
527.4968	0.0034
527.6935	-0.0071
527.8903	0.0004
528.087	0.0084
528.2837	0.0186
528.4804	-0.0077
528.677	0.0004
528.8737	0.0055
529.0703	-0.0061
529.2669	0.0165
529.4635	0.0017
529.6601	-0.0012
529.8567	-0.0036
530.0532	0.0039
530.2498	0.0051
530.4463	-0.0099
530.6428	0.0054
530.8393	0.0122
531.0358	0.002
531.2322	-0.0098
531.4287	-0.0039
531.6251	-0.0085
531.8215	-0.004
532.0179	0.0106
532.2143	0.0045
532.4107	0.0016
532.607	-0.0031
532.8034	0.0092
532.9997	0.0028
533.196	0.0007
533.3923	0.005
533.5886	0.0061
533.7848	0.0064
533.9811	0.0045
534.1773	0.002
534.3735	0.0023
534.5697	-0.0084
534.7659	0.0004
534.9621	-0.0017
535.1582	0.0064
535.3544	0.0133
535.5505	0.0052
535.7466	0.0051
535.9427	0.001
536.1387	-0.0019
536.3348	0.0085
536.5308	0.0068
536.7269	0.0017
536.9229	0.0013
537.1189	0.0045
537.3148	0.0052
537.5108	0.0053
537.7068	0.007
537.9027	-0.007
538.0986	0.0119
538.2945	0.0017
538.4904	-0.0088
538.6863	0.0035
538.8821	0.0014
539.078	-0.0008
539.2738	0.0041
539.4696	-0.0015
539.6654	0.0006
539.8611	0.0032
540.0569	0.0044
540.2526	0.0118
540.4484	-0.0099
540.6441	0.0071
540.8398	0.0026
541.0355	0
541.2311	-0.0085
541.4268	0.0071
541.6224	0.0146
541.818	0.0032
542.0136	0.0066
542.2092	0.012
542.4048	0.0082
542.6003	0.0013
542.7959	-0.0045
542.9914	0.007
543.1869	0.0019
543.3824	0.0008
543.5779	0.0158
543.7734	0.0162
543.9688	0.0141
544.1642	-0.0024
544.3596	0.0122
544.555	-0.0044
544.7504	0.0081
544.9458	-0.0015
545.1411	0.0004
545.3365	0.01
545.5318	0.0091
545.7271	0.0002
545.9224	-0.0022
546.1177	0.0063
546.3129	-0.0021
546.5081	-0.0039
546.7034	-0.0061
546.8986	-0.0031
547.0938	0.0086
547.289	0.0102
547.4841	0.0094
547.6793	0.0028
547.8744	0.0098
548.0695	-0.0015
548.2646	0.0137
548.4597	0.0019
548.6548	0.0158
548.8498	0.0125
549.0448	-0.0021
549.2399	0.0103
549.4349	0.0002
549.6298	0.0031
549.8248	-0.002
550.0198	0.0038
550.2147	-0.0002
550.4096	-0.0061
550.6045	0.0023
550.7994	0.0017
550.9943	0.0073
551.1892	-0.0033
551.384	0.0067
551.5788	-0.0055
551.7737	0.0039
551.9685	0.0058
552.1632	0.0007
552.358	-0.0017
552.5528	-0.0036
552.7475	0.0046
552.9422	-0.0005
553.1369	0
553.3316	0.0031
553.5263	0.0076
553.7209	0.0074
553.9156	0.0035
554.1102	0.0026
554.3048	-0.0058
554.4994	-0.0017
554.694	0.0002
554.8885	0.0048
555.0831	0.0044
555.2776	0.0038
555.4721	0.0095
555.6666	0.006
555.8611	0.0061
556.0555	0.002
556.25	-0.0011
556.4444	-0.0053
556.6388	0.003
556.8332	0.0077
557.0276	0.0115
557.222	-0.0035
557.4163	0.0096
557.6107	0.0038
557.805	0.0004
557.9993	0.0052
558.1936	0.0027
558.3879	0.0085
558.5821	-0.0057
558.7764	-0.0028
558.9706	-0.0057
559.1648	0.0082
559.359	0.0009
559.5532	-0.0064
559.7473	-0.0005
559.9415	0.0038
560.1356	0.0111
560.3297	-0.0007
560.5238	0.0064
560.7179	-0.0029
560.9119	-0.0075
561.106	-0.0033
561.3	0.0023
561.494	-0.0043
561.688	0.0011
561.882	-0.0034
562.076	-0.0027
562.2699	0.0072
562.4639	0.0063
562.6578	0.0085
562.8517	0.0053
563.0456	0.0057
563.2395	0.0119
563.4333	-0.0005
563.6272	-0.0037
563.821	0.0018
564.0148	0.0043
564.2086	0.0097
564.4024	0.0003
564.5961	0.0118
564.7899	0.0042
564.9836	0.0017
565.1773	0.0063
565.371	-0.0023
565.5647	0.0035
565.7584	0.01
565.952	0.0054
566.1456	0.0033
566.3393	0
566.5329	-0.0014
566.7264	0.0042
566.92	0.0054
567.1136	0.004
567.3071	-0.0014
567.5006	0.0101
567.6941	-0.0027
567.8876	0.0004
568.0811	0.0193
568.2745	-0.006
568.468	0.0034
568.6614	0.003
568.8548	0.0036
569.0482	0.0012
569.2416	0.0046
569.4349	0.0036
569.6283	-0.0013
569.8216	0.0072
570.0149	0.0013
570.2082	0.0102
570.4015	0.0087
570.5947	-0.0005
570.788	0.0057
570.9812	-0.0003
571.1744	0.0056
571.3676	0.0014
571.5608	-0.0037
571.754	0.0077
571.9471	0.0085
572.1402	0.0012
572.3333	0.0042
572.5264	0.0013
572.7195	0.0025
572.9126	-0.0009
573.1057	0.0017
573.2987	0.0027
573.4917	-0.0051
573.6847	0.0016
573.8777	0.005
574.0707	0.0018
574.2636	0.0016
574.4566	-0.0009
574.6495	0.0028
574.8424	0.0091
575.0353	0.0028
575.2281	0.0041
575.421	0.0019
575.6138	0.0014
575.8067	0.0036
575.9995	0.0037
576.1923	0.006
576.385	0.0091
576.5778	0.0087
576.7706	0.0012
576.9633	0.0052
577.156	-0.0032
577.3487	-0
577.5414	0.0006
577.734	-0.0002
577.9267	0.0057
578.1193	0.0058
578.3119	0.0006
578.5045	0.0039
578.6971	0.0007
578.8897	0.0029
579.0822	0.0075
579.2747	0.0009
579.4673	0.003
579.6598	0.0047
579.8522	0.0019
580.0447	0.0028
580.2372	0.0092
580.4296	0.0102
580.622	0.0006
580.8144	0.0031
581.0068	0.0031
581.1992	0.0021
581.3915	0
581.5839	0.002
581.7762	0.0018
581.9685	0.0034
582.1608	0.0034
582.353	0.0017
582.5453	0.0008
582.7375	0.0066
582.9298	-0.0032
583.122	-0.0002
583.3142	0.0015
583.5063	0.0025
583.6985	0.0007
583.8906	-0.0015
584.0827	0.0014
584.2749	-0.0008
584.4669	0.0051
584.659	0.0065
584.8511	0.0043
585.0431	0.0075
585.2352	0.0042
585.4272	0.0036
585.6192	0.0011
585.8111	0.0009
586.0031	0.0018
586.195	0.0046
586.387	0.0018
586.5789	0.0047
586.7708	0.0039
586.9627	0.0051
587.1545	-0.0009
587.3464	0.0029
587.5382	0.0031
587.73	0.0027
587.9218	-0.0011
588.1136	-0.0048
588.3053	-0.0016
588.4971	-0.0015
588.6888	0.0023
588.8805	-0
589.0722	0.0136
589.2639	0.0045
589.4556	0.0046
589.6472	0.0075
589.8389	-0.0043
590.0305	0.0078
590.2221	0.0056
590.4137	0.0039
590.6052	-0.0017
590.7968	0.0029
590.9883	-0.0009
591.1798	0.0038
591.3713	0.0044
591.5628	0.0041
591.7543	0.0036
591.9458	0.0018
592.1372	-0.0002
592.3286	0.0012
592.52	0.0024
592.7114	0.0043
592.9028	0.0101
593.0941	0.0013
593.2855	0.0043
593.4768	0.0071
593.6681	0.0074
593.8594	0.011
594.0506	0.0038
594.2419	0.0065
594.4331	0.006
594.6244	-0.0011
594.8156	0.0034
595.0067	-0.0042
595.1979	-0.0018
595.3891	0.0076
595.5802	-0.0009
595.7713	0.005
595.9624	0.0083
596.1535	0.0063
596.3446	0.0018
596.5357	0.0074
596.7267	0.0003
596.9177	-0.0051
597.1087	0.0034
597.2997	-0.0007
597.4907	0.0016
597.6817	0.0024
597.8726	0.0074
598.0635	0.0014
598.2544	0.0055
598.4453	0.0018
598.6362	0.0005
598.827	0.0015
599.0179	0.0053
599.2087	0.0052
599.3995	0.0072
599.5903	0.0082
599.7811	0.0048
599.9718	-0.0022
600.1626	0.0021
600.3533	0.002
600.544	0.0043
600.7347	0.0034
600.9254	0.0072
601.116	0.0073
601.3067	0.0008
601.4973	0.0032
601.6879	-0.0008
601.8785	0.0124
602.0691	-0.001
602.2596	0.0026
602.4502	0.0031
602.6407	0.0073
602.8312	0.006
603.0217	-0.0039
603.2122	0.0002
603.4027	-0.002
603.5931	-0.0009
603.7835	0.0038
603.9739	-0.0005
604.1643	0.0071
604.3547	0.0057
604.5451	0.0114
604.7354	-0.0043
604.9257	0.002
605.116	-0.0009
605.3063	0.0049
605.4966	-0.0031
605.6869	0.0064
605.8771	-0.001
606.0673	0.0031
606.2575	-0.0007
606.4477	0.0067
606.6379	-0.0065
606.8281	0.0024
607.0182	0.0022
607.2083	0.0047
607.3985	0.0028
607.5885	0.0036
607.7786	0.0009
607.9687	0.0037
608.1587	0.0045
608.3488	0.0033
608.5388	0.0024
608.7288	0.0033
608.9187	-0.0016
609.1087	0.0064
609.2986	0.0065
609.4886	0.0029
609.6785	0.0004
609.8684	-0.0051
610.0582	-0.003
610.2481	-0.004
610.4379	-0
610.6278	0.0016
610.8176	0.0138
611.0074	0.0077
611.1971	0.0106
611.3869	0.0098
611.5766	-0.0032
611.7664	0.002
611.9561	-0.0027
612.1458	0.006
612.3354	0.0048
612.5251	0.0037
612.7147	0.0037
612.9044	-0.0058
613.094	0.0079
613.2836	0.0073
613.4731	0.0067
613.6627	-0.0031
613.8522	0.0077
614.0417	0.0069
614.2313	-0.0029
614.4207	0.002
614.6102	0.0059
614.7997	0.0114
614.9891	-0.0006
615.1785	-0.01
615.3679	0.0011
615.5573	0.0071
615.7467	-0.0007
615.9361	0.0036
616.1254	0.0114
616.3147	0.0003
616.504	-0.0034
616.6933	0.0015
616.8826	-0.0005
617.0718	0.0002
617.2611	0.0059
617.4503	0.0094
617.6395	-0.0061
617.8287	0.0084
618.0179	0.0068
618.207	0.0132
618.3961	0.0048
618.5853	0.0061
618.7744	0.0104
618.9634	0.0084
619.1525	0.0053
619.3416	-0.0057
619.5306	0.0018
619.7196	0.0103
619.9086	-0.0015
620.0976	-0
620.2866	-0.0064
620.4755	-0.0093
620.6645	0.0051
620.8534	0.0043
621.0423	0.0054
621.2312	0.0085
621.42	0.0148
621.6089	0.0001
621.7977	0.0042
621.9865	-0.0034
622.1753	0.001
622.3641	-0.0026
622.5529	-0.0047
622.7416	0.0068
622.9303	-0.0009
623.1191	0.0008
623.3078	0.0052
623.4964	-0.0065
623.6851	0.0144
623.8737	0.0065
624.0624	-0.0064
624.251	0.0012
624.4396	0.0096
624.6282	0.0116
624.8167	-0.0119
625.0053	0.0049
625.1938	0.0042
625.3823	0.005
625.5708	-0.0022
625.7593	0.0003
625.9477	0.0183
626.1362	-0.003
626.3246	-0.0012
626.513	-0.0019
626.7014	0.01
626.8898	0.0094
627.0781	-0.001
627.2665	0.0112
627.4548	0.0007
627.6431	0.0167
627.8314	0.0173
628.0197	0.0097
628.2079	-0.0057
628.3962	0.0032
628.5844	0.0088
628.7726	0.0039
628.9608	0.0045
629.1489	0.0013
629.3371	0.003
629.5252	0.0013
629.7134	-0.0021
629.9015	0.0132
630.0895	-0.0097
630.2776	0.0074
630.4657	0.0036
630.6537	0.0106
630.8417	-0.0061
631.0297	-0.0045
631.2177	-0.004
631.4057	0.0037
631.5936	-0.0022
631.7815	0.006
631.9695	-0.0005
632.1574	0.0083
632.3452	0.0036
632.5331	-0.0017
632.7209	0.011
632.9088	0.0037
633.0966	0.0153
633.2844	0.0121
633.4722	0.0064
633.6599	0.0164
633.8477	-0.0004
634.0354	0.0051
634.2231	-0.0265
634.4108	0.0036
634.5985	0.0101
634.7861	-0.0066
634.9738	-0.005
635.1614	0.005
635.349	-0.0031
635.5366	0.0026
635.7242	0.001
635.9117	0.0191
636.0993	0.0116
636.2868	-0.0094
636.4743	-0.0017
636.6618	-0.0129
636.8492	0.0094
637.0367	-0.011
637.2241	0.0001
637.4115	0.0289
637.5989	-0.0127
637.7863	0.0247
637.9737	0.0045
638.161	0.005
638.3484	-0.0046
638.5357	0.0076
638.723	0.0159
638.9103	-0.0204
639.0975	0.013
639.2848	0.0113
639.472	-0.0019
639.6592	-0.0066
639.8464	-0.0096
640.0336	0.0064
640.2208	-0.0094
640.4079	-0.0216
640.595	-0.0058
640.7821	0.0165
640.9692	-0.0011
641.1563	0.0082
641.3434	0.0195
641.5304	0.0154
641.7174	0.0226
641.9044	0.0043
642.0914	0.0294
642.2784	-0.0062
642.4653	0.0026
642.6523	0.0092
642.8392	-0.0019
643.0261	-0.0053
643.213	0.001
643.3999	0.0141
643.5867	0.0067
643.7735	-0.0113
643.9604	-0.0012
644.1472	0.0197
644.3339	-0.0031
644.5207	0.0006
644.7075	-0.0008
644.8942	-0.0006
645.0809	-0.0101
645.2676	-0.0025
645.4543	-0.0001
645.6409	0.0109
645.8276	0.0142
646.0142	0.0155
646.2008	0.0034
646.3874	-0.0059
646.574	0.0071
646.7605	0.0183
646.9471	-0.0064
647.1336	-0.0215
647.3201	0.0251
647.5066	-0.0025
647.6931	-0.0153
647.8795	0.0001
648.0659	0.0006
648.2524	0.0322
648.4388	-0.0043
648.6252	0.0134
648.8115	-0.0026
648.9979	0.0006
649.1842	0.0025
649.3705	0.0194
649.5568	-0.0115
649.7431	-0.0084
649.9294	-0.0129
650.1156	-0.0187
650.3018	0.0011
650.488	-0.0011
650.6742	0.038
650.8604	0.0206
651.0466	-0.0042
651.2327	0.0034
651.4188	-0.0083
651.6049	0.0193
651.791	0.0024
651.9771	0.0107
652.1632	0.0015
652.3492	0.0038
652.5352	0.0192
652.7212	0.0027
652.9072	0.0017
653.0932	0.0158
653.2791	0.0087
653.465	0.0079
653.651	0.0215
653.8369	-0.0109
654.0227	0.0155
654.2086	0.0064
654.3944	-0.0089
654.5803	-0.0017
654.7661	-0.0021
654.9519	-0.0001
655.1377	0
655.3234	0
655.5092	0
655.6949	0
655.8806	0
656.0663	0
656.2519	0
656.4376	0
656.6232	0
656.8088	0
656.9945	0
657.18	0
657.3656	0
657.5511	0
657.7367	0
657.9222	0
658.1077	0
658.2932	0
658.4786	0
658.6641	0
658.8495	0
659.0349	0
659.2203	0
659.4057	0
659.591	0.0404
659.7764	0.017
659.9617	-0.0081
660.147	0.0071
660.3323	-0.0048
660.5176	0.006
660.7028	0.001
660.888	0.0026
661.0733	0.0238
661.2585	-0.0072
661.4436	0.0097
661.6288	0.0187
661.8139	0.0024
661.9991	-0.0201
662.1842	0.0015
662.3693	0.0001
662.5544	0.0007
662.7394	0.0113
662.9245	-0.0015
663.1095	-0.0108
663.2945	-0.0121
663.4795	-0.0135
663.6644	-0.0074
663.8494	0.0109
664.0343	0.0157
664.2193	-0.004
664.4042	-0.005
664.589	0.0202
664.7739	0.0075
664.9587	-0.014
665.1436	-0.0076
665.3284	0.0027
665.5132	-0.0287
665.698	0.0054
665.8827	0.0095
666.0675	-0.0036
666.2522	0.0024
666.4369	0.0071
666.6216	0.0033
666.8063	0.0249
666.9909	-0.0018
667.1756	-0.0028
667.3602	0.0035
667.5448	0.0038
667.7294	0.0211
667.9139	0.0061
668.0985	0.0033
668.283	-0.0056
668.4675	0.016
668.652	0.0093
668.8365	-0.0161
669.0209	0.0139
669.2054	0.025
669.3898	0.0091
669.5742	0.0122
669.7586	0.0139
669.943	-0.0007
670.1273	-0.0129
670.3117	0.0002
670.496	-0.0068
670.6803	-0.0019
670.8646	-0.0004
671.0488	0.0189
671.2331	-0.0085
671.4173	0.0125
671.6015	0.0065
671.7857	-0.0004
671.9699	0.0019
672.1541	-0.0036
672.3382	-0.0011
672.5223	0.0039
672.7064	-0.0027
672.8905	-0.0115
673.0746	0.0179
673.2587	0.0389
673.4427	0.0061
673.6267	0.0116
673.8107	0.0174
673.9947	-0.0047
674.1787	-0.0064
674.3626	-0.0107
674.5465	-0.0095
674.7304	-0.0034
674.9143	-0.0056
675.0982	0.0036
675.2821	-0.0058
675.4659	-0.0093
675.6497	-0.0016
675.8335	-0.0096
676.0173	0.0026
676.2011	0.0144
676.3849	0.0021
676.5686	0.0005
676.7523	-0.0226
676.936	0.0008
677.1197	-0.0012
677.3034	0.0155
677.487	0.0146
677.6706	0.0143
677.8542	-0.001
678.0378	0.0133
678.2214	-0.0162
678.405	0.0038
678.5885	0.0123
678.772	-0.0107
678.9555	-0.0005
679.139	0.0036
679.3225	0.0058
679.5059	-0.0005
679.6894	0.0003
679.8728	-0.0088
680.0562	0.0129
680.2395	-0.0006
680.4229	-0.0119
680.6062	0.0084
680.7896	0.0011
680.9729	0.0186
681.1562	-0.0063
681.3394	-0.0075
681.5227	0.0244
681.7059	-0.0013
681.8891	0.0007
682.0723	-0.0074
682.2555	0.0157
682.4387	0.0077
682.6218	0.0199
682.805	0.021
682.9881	0.0091
683.1712	0.0063
683.3542	0.0137
683.5373	-0.0256
683.7203	0.018
683.9034	0.0068
684.0864	0.0047
684.2694	-0.0112
684.4523	0.0084
684.6353	0.0057
684.8182	-0.0058
685.0011	0.0026
685.184	0.0049
685.3669	0.0036
685.5498	-0.0061
685.7326	-0.0158
685.9154	-0.0155
686.0982	0.0071
686.281	-0.0005
686.4638	0.0054
686.6465	0.0091
686.8293	-0.0069
687.012	0.0231
687.1947	0.0149
687.3774	0.0146
687.56	-0.0054
687.7427	-0.0084
687.9253	-0.0145
688.1079	-0.0057
688.2905	-0.0156
688.4731	0.0027
688.6556	-0.0109
688.8382	-0.0224
689.0207	0.0113
689.2032	0.0014
689.3857	-0.0111
689.5681	-0.0026
689.7506	0.0166
689.933	-0.0078
690.1154	0.0193
690.2978	-0.0056
690.4802	0.0154
690.6626	0.0079
690.8449	-0.0001
691.0272	0.0058
691.2095	-0.009
691.3918	0.0089
691.5741	0.0026
691.7563	0.0112
691.9386	0.0179
692.1208	-0.0107
692.303	-0.0161
692.4852	-0.0027
692.6673	-0.0008
692.8495	-0.0086
693.0316	-0.0063
693.2137	0.0037
693.3958	0.0012
693.5778	0.0067
693.7599	0.0095
693.9419	0.0033
694.1239	0.0043
694.3059	-0.0011
694.4879	-0.0051
694.6699	0.007
694.8518	0.0023
695.0337	-0.0015
695.2157	0.0164
695.3975	-0.0121
695.5794	-0.0079
695.7613	0.001
695.9431	-0.0017
696.1249	-0.0004
696.3067	-0.0086
696.4885	0.0156
696.6703	0.0031
696.852	0.0005
697.0337	0.0175
697.2154	0.0082
697.3971	0.001
697.5788	0.0089
697.7605	-0.0166
697.9421	0.0078
698.1237	0.0303
698.3053	-0.0134
698.4869	-0.0201
698.6685	-0.0022
698.85	0.0182
699.0315	-0.0232
699.213	0.0138
699.3945	0.0088
699.576	0.0168
699.7575	-0.0005
699.9389	-0.0136
700.1203	0.0002
700.3017	0.013
700.4831	0.0063
700.6645	0.061
700.8458	0.0002
701.0271	0.0295
701.2084	0.0153
701.3897	0.0025
701.571	-0.011
701.7523	-0.0134
701.9335	0.0005
702.1147	0.0148
702.2959	-0.0157
702.4771	0.0101
702.6583	-0.0202
702.8394	-0.0092
703.0205	0.0348
703.2016	-0.0167
703.3827	-0.0277
703.5638	0.0184
703.7449	0.0164
703.9259	0.0282
704.1069	-0.0206
704.2879	0.0121
704.4689	-0.0119
704.6499	0.0459
704.8308	0.0116
705.0117	0.0013
705.1927	-0.0022
705.3735	-0.0007
705.5544	-0.0086
705.7353	-0.0072
705.9161	-0.0061
706.0969	0.0022
706.2777	-0.0027
706.4585	0.0025
706.6393	0.0107
706.82	0.0139
707.0007	-0.0007
707.1815	-0.009
707.3621	0.0297
707.5428	0.0106
707.7235	0.0066
707.9041	-0.009
708.0847	-0.0073
708.2653	0.0315
708.4459	-0.0142
708.6265	-0.0274
708.807	-0.0127
708.9875	-0.002
709.168	0.0066
709.3485	0.0009
709.529	0.0124
709.7095	-0.0063
709.8899	-0.0117
710.0703	-0.002
710.2507	0.0099
710.4311	-0.0368
710.6115	0.0077
710.7918	0.0028
710.9721	-0.006
711.1524	-0.0075
711.3327	-0.0076
711.513	-0.0313
711.6932	-0.0163
711.8735	0.0119
712.0537	-0.017
712.2339	-0.0006
712.4141	0.0284
712.5942	-0.0253
712.7744	0.0009
712.9545	0.0188
713.1346	0.0122
713.3147	0.0081
713.4947	-0.015
713.6748	0.0188
713.8548	0.034
714.0348	0.0112
714.2148	0.0052
714.3948	0.0036
714.5748	0.0152
714.7547	0.0024
714.9346	0.0143
715.1145	0.0045
715.2944	-0.0186
715.4743	0.0156
715.6541	-0.0078
715.834	0.0322
716.0138	0.0114
716.1936	0.0486
716.3733	0.0003
716.5531	0.014
716.7328	0.0172
716.9126	0.0013
717.0923	0.0085
717.2719	0.0085
717.4516	-0.0017
717.6312	0.0018
717.8109	0.0278
717.9905	0.0228
718.1701	0.0072
718.3496	-0.0231
718.5292	0.001
718.7087	0.0174
718.8882	-0.0134
719.0677	0.0024
719.2472	0.0006
719.4267	-0.0154
719.6061	-0.0099
719.7856	0.0439
719.965	0.0007
720.1443	0.0038
720.3237	-0.0095
720.5031	-0.0051
720.6824	0.004
720.8617	0.004
721.041	0.0384
721.2203	-0.0149
721.3995	-0.0047
721.5788	0.0167
721.758	-0.0076
721.9372	0.0067
722.1164	0.02
722.2956	-0.017
722.4747	0.0024
722.6538	-0.0353
722.8329	0.0323
723.012	-0.0148
723.1911	0.0011
723.3702	-0.0061
723.5492	-0.0057
723.7282	-0.0224
723.9072	-0.009
724.0862	-0.0185
724.2652	0.0089
724.4441	-0.0114
724.623	0.0128
724.8019	0.01
724.9808	-0.0005
725.1597	0.0057
725.3385	-0.0001
725.5174	0.0122
725.6962	-0.0015
725.875	0.0133
726.0538	0.0023
726.2325	0.0237
726.4112	-0.0227
726.59	-0.0048
726.7687	-0.0144
726.9474	0.0055
727.126	0.0458
727.3047	-0.0168
727.4833	0.0101
727.6619	-0.0069
727.8405	0.0092
728.0191	0.0225
728.1976	0.0183
728.3762	0.0071
728.5547	-0.0148
728.7332	0.0117
728.9116	-0.0187
729.0901	0.0231
729.2686	0.0027
729.447	0.0114
729.6254	0.0018
729.8038	0.0033
729.9821	-0.0198
730.1605	0.007
730.3388	0.0097
730.5171	0.0274
730.6954	-0.0171
730.8737	0.0001
731.0519	-0.0016
731.2302	0.0106
731.4084	0.0066
731.5866	-0.0129
731.7648	-0.004
731.9429	0.0016
732.1211	-0.0004
732.2992	-0.0041
732.4773	0.0091
732.6554	-0.0168
732.8335	0.0206
733.0115	0.0052
733.1896	0.0058
733.3676	0.0077
733.5456	-0.0026
733.7235	-0.0126
733.9015	0.0054
734.0794	-0.0145
734.2574	-0.0376
734.4353	0.0169
734.6131	-0.0012
734.791	-0.0131
734.9689	-0.022
735.1467	-0.0045
735.3245	0.0252
735.5023	0.0108
735.68	-0.0026
735.8578	0.0149
736.0355	0.0044
736.2132	0.0025
736.3909	-0.0009
736.5686	-0.0103
736.7463	-0.0246
736.9239	0.0252
737.1015	0.0189
737.2791	-0.0123
737.4567	-0.0034
737.6343	-0.019
737.8118	0.0189
737.9894	-0.0064
738.1669	-0.0103
738.3444	0.0454
738.5218	-0.0096
738.6993	0.0065
738.8767	-0.0063
739.0541	-0.0092
739.2315	-0.0048
739.4089	0.021
739.5863	0.0082
739.7636	0.0103
739.9409	0.0072
740.1182	-0.0032
740.2955	0.0136
740.4728	0.0024
740.65	-0.0171
740.8272	-0.0113
741.0044	-0.0086
741.1816	0.047
741.3588	-0.0161
741.5359	-0.0101
741.7131	0.002
741.8902	-0.008
742.0673	-0.0258
742.2444	0.0271
742.4214	0.0176
742.5985	-0.0169
742.7755	0.0003
742.9525	-0.0111
743.1295	-0.017
743.3064	0.0037
743.4834	-0.0299
743.6603	0.0531
743.8372	-0.0317
744.0141	0.0186
744.191	0.0258
744.3678	-0.0309
744.5446	-0.0038
744.7215	0.0047
744.8982	0.0143
745.075	0.0197
745.2518	0.0053
745.4285	0.0369
745.6052	-0.0241
745.7819	-0.0048
745.9586	0.0085
746.1353	-0.0147
746.3119	0.0122
746.4885	0.0092
746.6651	-0.0057
746.8417	-0.0159
747.0183	0.0239
747.1948	0.033
747.3714	0.0141
747.5479	0.0344
747.7244	-0.0125
747.9008	-0.0283
748.0773	0.0697
748.2537	-0.0052
748.4301	-0.0012
748.6065	0.0126
748.7829	-0.0288
748.9593	0.0142
749.1356	0.0159
749.3119	0.0118
749.4882	-0.0016
749.6645	-0.0022
749.8408	0.0173
750.017	0.0205
750.1933	-0.0229
750.3695	0.0058
750.5457	0.0002
750.7218	0.0027
750.898	-0.0051
751.0741	0.0037
751.2502	0.0083
751.4263	-0.0086
751.6024	0.0133
751.7784	0.0073
751.9545	-0.0064
752.1305	0.0255
752.3065	0.0209
752.4825	-0.0045
752.6584	0.0137
752.8344	-0.0031
753.0103	-0.0062
753.1862	0.0156
753.3621	-0.0159
753.5379	-0.0081
753.7138	0.0029
753.8896	0.0105
754.0654	-0.0106
754.2412	0.0306
754.417	0.0204
754.5927	-0.0112
754.7685	0.0101
754.9442	0.0066
755.1199	-0.0004
755.2956	0.0122
755.4712	-0.0013
755.6469	-0.0038
755.8225	-0.0103
755.9981	0.0161
756.1736	-0.0096
756.3492	-0.0061
756.5248	0.004
756.7003	-0.0084
756.8758	-0.0113
757.0513	-0.0019
757.2267	0.0034
757.4022	0.0011
757.5776	-0.0054
757.753	-0.0018
757.9284	-0.0006
758.1038	0.0176
758.2791	-0.0059
758.4545	-0.0146
758.6298	-0.0073
758.8051	-0.0018
758.9803	-0.0027
759.1556	0.0017
759.3308	-0.0026
759.506	0.0001
759.6812	0.004
759.8564	-0.0049
760.0316	-0.0019
760.2067	0.0214
760.3819	-0.0011
760.557	0.008
760.732	-0.0052
760.9071	0.02
761.0821	-0.0149
761.2572	0.0071
761.4322	0.0214
761.6072	-0.0125
761.7821	-0.0265
761.9571	-0.0183
762.132	0.0339
762.3069	0.0085
762.4818	0.0289
762.6567	0.0068
762.8316	-0.0188
763.0064	0.0281
763.1812	0.0073
763.356	-0.019
763.5308	-0.0007
763.7055	-0.0097
763.8803	0.0052
764.055	0.0058
764.2297	-0.0031
764.4044	-0.0174
764.579	0.0029
764.7537	0.0075
764.9283	0.008
765.1029	-0.0042
765.2775	0.0152
765.4521	0.007
765.6266	-0.0045
765.8011	0.0046
765.9756	0.0057
766.1501	0.0294
766.3246	0.0003
766.4991	0.0164
766.6735	0.0187
766.8479	-0.006
767.0223	0.0103
767.1967	0.0072
767.371	0.0247
767.5454	0.0333
767.7197	0.0285
767.894	0.0014
768.0683	0.0246
768.2425	0.0027
768.4168	0.0144
768.591	0.0236
768.7652	-0.0013
768.9394	-0.0107
769.1135	0.0003
769.2877	0.0274
769.4618	0.0465
769.6359	-0.0129
769.81	0.0174
769.984	0.0116
770.1581	0.0182
770.3321	0.0085
770.5061	-0.0153
770.6801	0.0015
770.8541	-0.0036
771.028	0.0427
771.202	0.0255
771.3759	0.0136
771.5498	-0.0186
771.7236	-0.0037
771.8975	0.0179
772.0713	-0.0083
772.2451	0.0097
772.4189	0.0116
772.5927	-0.0252
772.7665	-0.0012
772.9402	0.0061
773.1139	-0.0165
773.2876	0.027
773.4613	0.0283
773.635	0.0275
773.8086	0.0466
773.9822	0.0219
774.1558	0.0509
774.3294	0.0156
774.503	-0.0099
774.6765	0.008
774.8501	-0.0084
775.0236	0.037
775.1971	0.0012
775.3705	-0.0303
775.544	-0.008
775.7174	-0.0341
775.8908	0.0067
776.0642	0.0311
776.2376	0.0184
776.4109	0.0162
776.5843	-0.0082
776.7576	0.0339
776.9309	-0.0045
777.1041	-0.0545
777.2774	-0.0518
777.4506	0.0243
777.6238	-0.0107
777.797	0.0213
777.9702	0.0063
778.1434	0.0155
778.3165	-0.0189
778.4896	-0.0552
778.6627	0.0191
778.8358	-0.0071
779.0089	-0.0219
779.1819	0.0167
779.3549	-0.0173
779.5279	-0.0376
779.7009	0.0587
779.8739	0.0389
780.0468	-0.0114
780.2197	0.0078
780.3926	0.0043
780.5655	0.0009
780.7384	-0.0058
780.9112	0.0003
781.0841	0.0295
781.2569	0.0315
781.4297	0.0099
781.6024	0.003
781.7752	0.0408
781.9479	0.0116
782.1206	0.0259
782.2933	0.0218
782.466	-0.0066
782.6386	-0.0126
782.8113	-0.0267
782.9839	0.0069
783.1565	-0.0073
783.329	-0.0173
783.5016	0.0238
783.6741	-0.0129
783.8466	0.0603
784.0191	0.0279
784.1916	0.024
784.3641	-0.0704
784.5365	0.0027
784.7089	-0.0717
784.8813	0.0221
785.0537	0.0136
785.2261	-0.0303
785.3984	-0.0179
785.5707	-0.0219
785.743	0.0466
785.9153	-0.0261
786.0876	-0.0153
786.2598	0.011
786.432	-0.0011
786.6042	0.0546
786.7764	-0.0074
786.9486	-0.0139
787.1207	0.0148
787.2928	0.0364
787.4649	0.0056
787.637	0.0009
787.8091	0.0238
787.9811	0.0178
788.1532	0.0424
788.3252	-0.0256
788.4972	0.0042
788.6691	0.011
788.8411	0.0076
789.013	0.0202
789.1849	-0.0498
789.3568	-0.0011
789.5287	0.0335
789.7005	-0.0461
789.8723	-0.0087
790.0442	-0.0484
790.2159	0.01
790.3877	0.0168
790.5595	0.0307
790.7312	-0.0064
790.9029	-0.0015
791.0746	-0.0182
791.2463	-0.0051
791.4179	-0.0586
791.5896	-0.0111
791.7612	0.0285
791.9328	-0.0104
792.1044	0.0375
792.2759	-0.0507
792.4474	-0.004
792.619	-0.0061
792.7905	-0.0301
792.9619	0.0476
793.1334	0.076
793.3048	0.1061
793.4762	0.0168
793.6476	-0.0749
793.819	0.0372
793.9904	-0.0284
794.1617	-0.0215
794.333	-0.0288
794.5043	0.0425
794.6756	-0.0111
794.8469	-0.0003
795.0181	-0.0009
795.1893	0.0327
795.3605	0.0515
795.5317	0.0284
795.7029	-0.0312
795.874	-0.0114
796.0452	-0.0004
796.2163	0.0649
796.3873	0.0321
796.5584	0.0344
796.7294	-0.0238
796.9005	-0.033
797.0715	-0.0525
797.2425	0.0722
797.4134	-0.0255
797.5844	0.0548
797.7553	-0.0494
797.9262	0.0203
798.0971	0.0341
798.2679	-0.0005
798.4388	0.0286
798.6096	-0.0494
798.7804	0.058
798.9512	0.003
799.122	-0.0144
799.2927	0.0644
799.4635	-0.0815
799.6342	-0.0456
799.8049	0.075
799.9755	-0.0119
800.1462	0.0499
800.3168	-0.026
800.4874	-0.0674
800.658	0.041
800.8286	0.0607
800.9991	0.0527
801.1696	-0.0301
801.3402	-0.0428
801.5106	-0.0615
801.6811	-0.0232
801.8516	0.0483
802.022	0.0068
802.1924	0.0838
802.3628	0.0467
802.5332	0.0641
802.7035	0.0373
802.8739	0.0441
803.0442	0.0485
803.2145	0.074
803.3847	0.0265
803.555	-0.0083
803.7252	-0.0872
803.8954	-0.0338
804.0656	-0.0081
804.2358	-0.044
804.4059	0.0087
804.5761	-0.03
804.7462	-0.0339
804.9163	0.0708
805.0864	0.0709
805.2564	-0.0439
805.4264	0.0282
805.5965	0.0285
805.7665	-0.0126
805.9364	-0.049
806.1064	-0.0287
806.2763	0.0339
806.4462	0.0253
806.6161	0.04
806.786	-0.0477
806.9559	0.0174
807.1257	-0.0144
807.2955	-0.069
807.4653	-0.0017
807.6351	0.0233
807.8048	0.0022
807.9746	-0.0293
808.1443	0.0021
808.314	0.0235
808.4837	0.0495
808.6533	-0.0577
808.8229	0.0236
808.9926	0.0621
809.1622	0.0114
809.3317	-0.063
809.5013	-0.0026
809.6708	0.0179
809.8403	-0.0258
810.0098	0.0401
810.1793	-0.0388
810.3488	-0.0716
810.5182	0.0915
810.6876	-0.0122
810.857	-0.0118
811.0264	0.0847
811.1958	0.1267
811.3651	-0.0974
811.5344	0.0137
811.7037	0.1279
811.873	0.0525
812.0422	-0.1158
812.2115	-0.0169
812.3807	-0.1839
812.5499	0.0481
812.7191	-0.0099
812.8882	-0.0758
813.0574	-0.1168
813.2265	0.024
813.3956	0.0568
813.5646	0.0036
813.7337	-0.0318
813.9027	-0.1232
814.0718	-0.0048
814.2407	0.0521
814.4097	0.0192
814.5787	0.0666
814.7476	-0.0395
814.9165	0.007
815.0854	0.0471
815.2543	-0.0516
815.4232	0.1539
815.592	-0.0325
815.7608	-0.0438
815.9296	0.078
816.0984	0.1426
816.2671	-0.1323
816.4359	0.0526
816.6046	0.1541
816.7733	-0.1044
816.942	-0.0654
817.1106	-0.0211
817.2793	-0.0894
817.4479	-0.0498
817.6165	-0.0534
817.785	0.1173
817.9536	-0.1158
818.1221	0.0563
818.2906	-0.123
818.4591	-0.0309
818.6276	0.091
818.7961	-0.0169
818.9645	0.0305
819.1329	0.2024
819.3013	0.1142
819.4697	-0.0582
819.638	-0.0019
819.8064	-0.011
819.9747	-0.0897
820.143	-0.1449
820.3113	0.1164
820.4795	-0.0547
820.6477	-0.0168
820.816	-0.0164
820.9842	0.1376
821.1523	0.0107
821.3205	-0.0128
821.4886	0.063
821.6567	-0.1051
821.8248	0.0833
821.9929	-0.0903
822.1609	-0.1204
822.329	0.02
822.497	-0.0732
822.665	-0.0294
822.833	0.2304
823.0009	0.0351
823.1688	0.1246
823.3367	-0.2539
823.5046	-0.0425
823.6725	0.1731
823.8404	0.0486
824.0082	0.1943
824.176	-0.0403
824.3438	0.1073
824.5116	0.0715
824.6793	0.1818
824.847	0.0034
825.0147	0.0557
825.1824	0.002
825.3501	0.0343
825.5177	-0.0599
825.6854	-0.156
825.853	-0.0977
826.0206	-0.071
826.1881	0.0606
826.3557	0.0021
826.5232	-0.0309
826.6907	0.0307
826.8582	-0.0651
827.0257	0.1055
827.1931	0.0802
827.3605	-0.0416
827.528	-0.0822
827.6953	-0.154
827.8627	-0.062
828.03	0.004
828.1974	0.0444
828.3647	0.1019
828.532	-0.0351
828.6992	0.0929
828.8665	-0.0366
829.0337	-0.0985
829.2009	-0.0962
829.3681	0.0083
829.5352	-0.2369
829.7024	-0.0882
829.8695	0.0297
830.0366	0.0935
830.2037	0.0561
830.3707	0.058
830.5378	-0.0637
830.7048	-0.1222
830.8718	0.068
831.0388	0.0085
831.2057	0.0259
831.3727	-0.1724
831.5396	0.0331
831.7065	-0.6516
831.8734	0.1797
832.0402	0.1549
832.2071	-0.2372
832.3739	-0.1732
832.5407	-1.9584
832.7075	-0.073
832.8742	0.2747
833.041	0.2661
833.2077	0.1766
833.3744	0.2718
833.541	0.0791
833.7077	-0.233
833.8743	-0.0454
834.0409	0.0376
834.2075	0.0421
834.3741	-0.1883
834.5407	0.0664
834.7072	0.072
834.8737	0.1582
835.0402	0.2599
835.2067	-0.1918
835.3731	-0.1149
835.5395	-0.0335
835.706	0.0852
835.8723	0.0959
836.0387	0.0572
836.2051	-0.0563
836.3714	0.2719
836.5377	-0.1322
836.704	0.1353
836.8703	0.0527
837.0365	-0.7734
837.2027	0.0469
837.3689	0.1063
837.5351	0.1244
837.7013	-0.0931
837.8674	-0.1421
838.0335	-0.2017
838.1997	-0.0483
838.3657	0.4152
838.5318	-0.3316
838.6978	0.1845
838.8639	-0.2991
839.0299	0.0791
839.1958	0.6141
839.3618	-0
839.5277	-0.1033
839.6937	-0.0887
839.8596	-0.191
840.0254	0.0313
840.1913	0.0104
840.3571	-0.2415
840.523	-0
840.6888	-0.0544
840.8545	-0.2833
841.0203	0.0728
841.186	0.0602
841.3517	0.0662
841.5174	-0.0325
841.6831	0.1158
841.8488	-0.0118
842.0144	0.0259
842.18	0.5352
842.3456	-0.7131
842.5112	-0
842.6767	-0.017
842.8422	-0.0767
843.0077	0.5481
843.1732	-0.3586
843.3387	-0.0552
843.5042	-0
843.6696	-0.2429
843.835	0.0337
844.0004	-0.2516
844.1657	-0
844.3311	0.2384
844.4964	-0.3886
844.6617	0.3602
844.827	-0
844.9923	0.3394
845.1575	-0.0531
845.3227	-0.4218
845.4879	-0.0565
845.6531	0.0542
845.8183	0.1589
845.9834	-0.031
846.1485	0.4308
846.3136	-0.2639
846.4787	-0.2849
846.6438	0.2342
846.8088	0.9404
846.9738	-0.719
847.1388	0.0272
847.3038	0.1267
847.4687	-0
847.6337	-0.0168
847.7986	-0.1958
847.9635	-0.1698
848.1284	0.1874
848.2932	0.6658
848.458	-0
848.6228	0.8643
848.7876	0.4098
848.9524	-0
849.1172	-2.0666
849.2819	-0
849.4466	0.2016
849.6113	0.1058
849.7759	0.3795
849.9406	-0.146
850.1052	-0.8796
850.2698	-0
850.4344	-0.7734
850.599	-0.1907
850.7635	0.1855
850.928	-0
851.0925	0.1182
851.257	-0.0552
851.4215	0.1238
851.5859	0.1837
851.7503	-0
851.9147	-0.1979
852.0791	0.0912
852.2434	0.5223
852.4078	-0
852.5721	0.5635
852.7364	0.1718
852.9007	-0.0289
853.0649	-0
853.2291	0.015
853.3934	0.1033
853.5575	-0.2103
853.7217	0.528
853.8859	13.6782
854.05	-0.0771
854.2141	0.4327
854.3782	-0
854.5423	-0.4177
854.7063	-0.1447
854.8703	-0.0786
855.0343	0.005
855.1983	-0.0526
855.3623	0.181
855.5262	-0
855.6901	0.0419
855.854	0.1592
856.0179	-0.2315
856.1818	0.2512
856.3456	0.0889
856.5094	0.9337
856.6732	-0.4956
856.837	-1.2868
857.0008	0.0886
857.1645	-0.2396
857.3282	-0.2675
857.4919	0.0126
857.6556	-0.2734
857.8192	0.2173
857.9828	-0.2198
858.1465	0.2251
858.31	0.209
858.4736	-0
858.6372	0.093
858.8007	-0.0293
858.9642	0.2764
859.1277	-0
859.2911	-0.6462
859.4546	-0
859.618	1.2519
859.7814	0.1121
859.9448	-0.0108
860.1081	-0
860.2715	12.4195
860.4348	-0.1366
860.5981	0.1841
860.7614	-0
860.9246	-0.2063
861.0879	-0
861.2511	-0
861.4143	0.0591
861.5774	-0.1007
861.7406	0.0788
861.9037	-0
862.0668	-0.9621
862.2299	0.0759
862.393	-0
862.556	0.7628
862.7191	-0.1876
862.8821	0.137
863.0451	0.5336
863.208	-0.2012
863.371	-0.2968
863.5339	0.2816
863.6968	0.3779
863.8597	-0.4508
864.0225	-0.3855
864.1854	-0
864.3482	-1.1899
864.511	0.0565
864.6737	-0.2526
864.8365	-0.162
864.9992	-0
865.1619	-0.6524
865.3246	-0.8573
865.4873	-0
865.65	0.0924
865.8126	-0
865.9752	1.0896
866.1378	-0.0034
866.3004	0.0247
866.4629	-1.0122
866.6254	0.1607
866.7879	0.0831
866.9504	-0
867.1129	-0.1372
867.2753	-0.0837
867.4377	-0.0754
867.6001	-0.9499
867.7625	-0.311
867.9249	-0
868.0872	0.2008
868.2495	-0
868.4118	-0.2032
868.5741	-0
868.7363	-0
868.8986	-0.4173
869.0608	-0
869.223	-0.7058
869.3851	-0
869.5473	0.1358
869.7094	0.2339
869.8715	-0.4
870.0336	-0.0387
870.1957	-0
870.3577	-0.0259
870.5197	-0.1918
870.6817	-0.8537
870.8437	0.1865
871.0057	0.9843
871.1676	0.09
871.3295	-0.5104
871.4914	-0
871.6533	0.8266
871.8151	0.3801
871.977	-0.2697
872.1388	0.2127
872.3006	-0.0463
872.4623	0.5174
872.6241	-0.1806
872.7858	0.0875
872.9475	-0
873.1092	0.2387
873.2709	0.1319
873.4325	-1.8676
873.5941	-0
873.7557	0.7721
873.9173	-0.2365
874.0789	0.2626
874.2404	-0
874.4019	0.1506
874.5634	-0
874.7249	-0
874.8863	-0
875.0478	-0.3955
875.2092	-0
875.3706	0.1585
875.5319	-0
875.6933	-0
875.8546	-0.3547
876.0159	0.0203
876.1772	-0.4498
876.3385	0.5512
876.4997	0.1377
876.6609	0.4184
876.8221	-0
876.9833	-0.0296
877.1445	0.2513
877.3056	-0
877.4667	-0.8978
877.6278	-0
877.7889	-0
877.9499	0.1706
878.111	-0.5843
878.272	-0
878.433	0.0716
878.5939	0.4364
878.7549	0.9909
878.9158	-0
879.0767	-0.0776
879.2376	-0
879.3984	-0
879.5593	0.514
879.7201	-1.6654
879.8809	0.0156
880.0417	0.1312
880.2024	0.0864
880.3632	-0.8227
880.5239	0.0523
880.6846	-0.4088
880.8452	-0
881.0059	-0.4909
881.1665	0.4249
881.3271	1.0749
881.4877	0.2804
881.6483	-0.9627
881.8088	-0
881.9693	-0
882.1298	-0
882.2903	-0
