Data from D4ACN5uM460nmA_Absorbance_13-05-41-180.txt Node
Date: Fri Feb 21 13:05:41 GMT 2025
User: LASERRRRR
Spectrometer: FLMT03099
Trigger mode: 0
Integration Time (sec): 1.500000E-2
Scans to average: 1
Electric dark correction enabled: true
Nonlinearity correction enabled: false
Boxcar width: 0
XAxis mode: Wavelengths
Number of Pixels in Spectrum: 3648
>>>>>Begin Spectral Data<<<<<
179.3399	-0.4157
179.5586	-0.4157
179.7771	-0.4157
179.9957	0.0919
180.2143	-0
180.4329	0.4719
180.6514	-0
180.8699	-0
181.0885	-0
181.307	-0.0107
181.5255	0.0436
181.744	-0
181.9625	0.5069
182.181	0.3401
182.3994	0.1353
182.6179	-0
182.8363	-0.2865
183.0547	0.2392
183.2732	0.1759
183.4916	0.1236
183.71	0.1454
183.9284	0.0242
184.1467	0.2374
184.3651	-0.0175
184.5835	0.1888
184.8018	0.0684
185.0201	0.1643
185.2385	0.2922
185.4568	0.224
185.6751	0.2769
185.8934	0.2135
186.1117	-0.1499
186.3299	0.2669
186.5482	0.1854
186.7664	0.9839
186.9847	-0.0692
187.2029	0.7155
187.4211	0.003
187.6393	0.1634
187.8575	0.1385
188.0757	0.5008
188.2939	0.2539
188.512	0.6841
188.7302	0.0464
188.9483	0.2103
189.1665	0.7963
189.3846	0.0362
189.6027	0.1563
189.8208	0.2024
190.0389	0.2321
190.257	0.2471
190.475	0.2608
190.6931	0.0788
190.9111	0.0296
191.1292	0.1168
191.3472	0.0547
191.5652	0.0643
191.7832	0.1821
192.0012	0.1285
192.2192	0.2014
192.4371	0.1799
192.6551	0.2808
192.873	0.1428
193.091	0.3122
193.3089	0.1027
193.5268	0.2455
193.7447	0.198
193.9626	0.171
194.1805	0.2421
194.3984	0.1675
194.6162	0.3135
194.8341	0.2335
195.0519	0.248
195.2697	0.2945
195.4875	0.3276
195.7054	0.215
195.9231	0.2771
196.1409	0.3738
196.3587	0.2932
196.5765	0.3502
196.7942	0.3804
197.012	0.3305
197.2297	0.3333
197.4474	0.4121
197.6651	0.3277
197.8828	0.2673
198.1005	0.4645
198.3182	0.434
198.5358	0.3682
198.7535	0.4164
198.9711	0.3829
199.1888	0.3592
199.4064	0.3776
199.624	0.4076
199.8416	0.3492
200.0592	0.3915
200.2767	0.398
200.4943	0.4594
200.7119	0.3814
200.9294	0.4174
201.1469	0.3986
201.3645	0.4561
201.582	0.4393
201.7995	0.469
202.017	0.4132
202.2344	0.4409
202.4519	0.4212
202.6694	0.4481
202.8868	0.3792
203.1042	0.4045
203.3217	0.403
203.5391	0.4044
203.7565	0.3915
203.9739	0.4096
204.1913	0.3571
204.4086	0.3923
204.626	0.3462
204.8433	0.3722
205.0607	0.3836
205.278	0.3232
205.4953	0.3356
205.7126	0.3356
205.9299	0.3495
206.1472	0.3325
206.3644	0.3515
206.5817	0.3189
206.7989	0.3266
207.0162	0.3207
207.2334	0.3565
207.4506	0.313
207.6678	0.307
207.885	0.3242
208.1022	0.3138
208.3194	0.2891
208.5365	0.3221
208.7537	0.3077
208.9708	0.2931
209.1879	0.3043
209.405	0.2993
209.6222	0.2755
209.8392	0.2836
210.0563	0.2968
210.2734	0.2767
210.4905	0.2672
210.7075	0.2787
210.9245	0.2736
211.1416	0.2843
211.3586	0.2834
211.5756	0.2556
211.7926	0.2829
212.0096	0.2851
212.2265	0.2537
212.4435	0.2591
212.6604	0.2659
212.8774	0.2426
213.0943	0.2677
213.3112	0.2516
213.5281	0.2658
213.745	0.2527
213.9619	0.2446
214.1788	0.2822
214.3956	0.2477
214.6125	0.2623
214.8293	0.2635
215.0461	0.2601
215.2629	0.2461
215.4798	0.2464
215.6965	0.2484
215.9133	0.2448
216.1301	0.2489
216.3469	0.2772
216.5636	0.2438
216.7803	0.2588
216.9971	0.2641
217.2138	0.2732
217.4305	0.2475
217.6472	0.2504
217.8639	0.2586
218.0805	0.2583
218.2972	0.2662
218.5138	0.2592
218.7305	0.2563
218.9471	0.2568
219.1637	0.2666
219.3803	0.2633
219.5969	0.2624
219.8135	0.2647
220.0301	0.2575
220.2466	0.2687
220.4632	0.2556
220.6797	0.2635
220.8962	0.2591
221.1127	0.2752
221.3292	0.2638
221.5457	0.2806
221.7622	0.2652
221.9787	0.2819
222.1951	0.28
222.4116	0.2699
222.628	0.2961
222.8444	0.2978
223.0608	0.2866
223.2772	0.2932
223.4936	0.2796
223.71	0.2854
223.9264	0.2978
224.1427	0.292
224.3591	0.289
224.5754	0.297
224.7917	0.2989
225.008	0.2953
225.2243	0.3004
225.4406	0.2963
225.6569	0.308
225.8732	0.3152
226.0894	0.2977
226.3057	0.3156
226.5219	0.314
226.7381	0.3246
226.9543	0.32
227.1705	0.3146
227.3867	0.3206
227.6029	0.3318
227.8191	0.3461
228.0352	0.3441
228.2513	0.3629
228.4675	0.3388
228.6836	0.349
228.8997	0.3439
229.1158	0.3522
229.3319	0.3559
229.548	0.3611
229.764	0.3678
229.9801	0.3656
230.1961	0.3778
230.4121	0.3668
230.6282	0.3834
230.8442	0.3852
231.0602	0.3841
231.2761	0.391
231.4921	0.3937
231.7081	0.3908
231.924	0.4045
232.14	0.3864
232.3559	0.4053
232.5718	0.4128
232.7877	0.4082
233.0036	0.4059
233.2195	0.4204
233.4353	0.4247
233.6512	0.4178
233.867	0.4151
234.0829	0.4339
234.2987	0.4258
234.5145	0.4379
234.7303	0.4329
234.9461	0.4419
235.1619	0.4423
235.3776	0.4365
235.5934	0.4243
235.8091	0.4364
236.0249	0.4383
236.2406	0.448
236.4563	0.4545
236.672	0.4404
236.8877	0.4458
237.1034	0.453
237.319	0.456
237.5347	0.4605
237.7503	0.4529
237.966	0.4604
238.1816	0.4507
238.3972	0.4694
238.6128	0.464
238.8284	0.4672
239.0439	0.4608
239.2595	0.4547
239.475	0.4588
239.6906	0.4718
239.9061	0.4509
240.1216	0.4533
240.3371	0.463
240.5526	0.4635
240.7681	0.4621
240.9836	0.4577
241.199	0.4539
241.4145	0.4595
241.6299	0.441
241.8453	0.4411
242.0607	0.4394
242.2761	0.432
242.4915	0.4215
242.7069	0.4124
242.9223	0.4242
243.1376	0.4126
243.353	0.4023
243.5683	0.3899
243.7836	0.3892
243.9989	0.376
244.2142	0.3694
244.4295	0.3688
244.6448	0.3571
244.86	0.3476
245.0753	0.3363
245.2905	0.336
245.5057	0.3294
245.721	0.3309
245.9362	0.3279
246.1514	0.3141
246.3665	0.3051
246.5817	0.2977
246.7969	0.2952
247.012	0.2878
247.2271	0.2874
247.4423	0.2816
247.6574	0.2791
247.8725	0.2651
248.0876	0.2637
248.3026	0.2626
248.5177	0.2557
248.7328	0.2539
248.9478	0.2426
249.1628	0.2419
249.3779	0.2346
249.5929	0.2372
249.8079	0.2339
250.0228	0.2323
250.2378	0.2258
250.4528	0.2292
250.6677	0.2209
250.8827	0.2233
251.0976	0.2112
251.3125	0.2121
251.5274	0.2128
251.7423	0.2058
251.9572	0.2096
252.172	0.2055
252.3869	0.2102
252.6017	0.199
252.8166	0.203
253.0314	0.199
253.2462	0.1975
253.461	0.1879
253.6758	0.1955
253.8906	0.1876
254.1053	0.1953
254.3201	0.1902
254.5348	0.1868
254.7496	0.1799
254.9643	0.1911
255.179	0.1843
255.3937	0.1867
255.6083	0.1856
255.823	0.1862
256.0377	0.1842
256.2523	0.1809
256.467	0.1844
256.6816	0.1774
256.8962	0.1837
257.1108	0.1828
257.3254	0.1771
257.54	0.1779
257.7545	0.1803
257.9691	0.1813
258.1836	0.1802
258.3981	0.1781
258.6127	0.1691
258.8272	0.1865
259.0417	0.1764
259.2561	0.172
259.4706	0.1715
259.6851	0.1724
259.8995	0.1788
260.114	0.1763
260.3284	0.1719
260.5428	0.1697
260.7572	0.1722
260.9716	0.1784
261.186	0.1732
261.4003	0.1705
261.6147	0.1726
261.829	0.1753
262.0433	0.177
262.2577	0.1731
262.472	0.1768
262.6863	0.1715
262.9005	0.1751
263.1148	0.1721
263.3291	0.1812
263.5433	0.1807
263.7576	0.1733
263.9718	0.175
264.186	0.177
264.4002	0.1761
264.6144	0.1791
264.8286	0.1813
265.0427	0.1776
265.2569	0.1786
265.471	0.178
265.6851	0.1783
265.8993	0.176
266.1134	0.1825
266.3275	0.1782
266.5415	0.1738
266.7556	0.1767
266.9697	0.1814
267.1837	0.173
267.3978	0.1791
267.6118	0.1704
267.8258	0.1751
268.0398	0.1803
268.2538	0.1753
268.4677	0.1718
268.6817	0.1732
268.8957	0.1702
269.1096	0.1687
269.3235	0.1661
269.5374	0.1729
269.7514	0.1727
269.9652	0.1729
270.1791	0.1714
270.393	0.1711
270.6068	0.1689
270.8207	0.1679
271.0345	0.1643
271.2483	0.1667
271.4622	0.1678
271.676	0.163
271.8897	0.1665
272.1035	0.1718
272.3173	0.1647
272.531	0.169
272.7448	0.1669
272.9585	0.164
273.1722	0.163
273.3859	0.164
273.5996	0.1671
273.8133	0.1675
274.0269	0.1594
274.2406	0.1662
274.4542	0.1631
274.6679	0.1653
274.8815	0.1774
275.0951	0.174
275.3087	0.1703
275.5223	0.1694
275.7358	0.1674
275.9494	0.1666
276.1629	0.17
276.3765	0.1682
276.59	0.164
276.8035	0.1683
277.017	0.1771
277.2305	0.167
277.444	0.164
277.6574	0.1728
277.8709	0.1792
278.0843	0.1782
278.2978	0.1753
278.5112	0.1698
278.7246	0.1676
278.938	0.1701
279.1513	0.1718
279.3647	0.1729
279.5781	0.1722
279.7914	0.1748
280.0047	0.1751
280.2181	0.1781
280.4314	0.1793
280.6447	0.1804
280.8579	0.1708
281.0712	0.1718
281.2845	0.1767
281.4977	0.1784
281.711	0.1724
281.9242	0.181
282.1374	0.1795
282.3506	0.1783
282.5638	0.1817
282.7769	0.1731
282.9901	0.1701
283.2033	0.1766
283.4164	0.1824
283.6295	0.178
283.8426	0.1785
284.0557	0.1829
284.2688	0.1854
284.4819	0.1795
284.695	0.1816
284.908	0.179
285.1211	0.1816
285.3341	0.1747
285.5471	0.1872
285.7601	0.1836
285.9731	0.1822
286.1861	0.1887
286.3991	0.1892
286.612	0.1841
286.825	0.189
287.0379	0.1859
287.2508	0.1899
287.4637	0.19
287.6766	0.1915
287.8895	0.1865
288.1024	0.1873
288.3152	0.1947
288.5281	0.189
288.7409	0.1877
288.9538	0.1903
289.1666	0.1934
289.3794	0.1846
289.5922	0.1845
289.8049	0.1938
290.0177	0.1918
290.2304	0.1916
290.4432	0.1937
290.6559	0.1949
290.8686	0.1915
291.0813	0.1926
291.294	0.1913
291.5067	0.1929
291.7194	0.1961
291.932	0.1924
292.1447	0.1934
292.3573	0.1961
292.5699	0.201
292.7825	0.1941
292.9951	0.1921
293.2077	0.1861
293.4203	0.1968
293.6328	0.1925
293.8454	0.1937
294.0579	0.194
294.2704	0.1967
294.4829	0.1977
294.6954	0.1931
294.9079	0.1875
295.1204	0.1918
295.3328	0.1996
295.5453	0.1913
295.7577	0.1907
295.9701	0.1929
296.1825	0.1977
296.3949	0.1947
296.6073	0.1895
296.8197	0.1962
297.0321	0.1926
297.2444	0.1874
297.4567	0.1957
297.6691	0.1939
297.8814	0.199
298.0937	0.1967
298.306	0.1905
298.5182	0.1934
298.7305	0.1983
298.9428	0.1876
299.155	0.1853
299.3672	0.1966
299.5794	0.1949
299.7916	0.1891
300.0038	0.1985
300.216	0.1956
300.4282	0.1883
300.6403	0.1984
300.8525	0.192
301.0646	0.1957
301.2767	0.1954
301.4888	0.1986
301.7009	0.1944
301.913	0.1928
302.125	0.1866
302.3371	0.1923
302.5491	0.1922
302.7612	0.2
302.9732	0.1968
303.1852	0.1968
303.3972	0.1955
303.6092	0.1956
303.8211	0.1929
304.0331	0.1909
304.245	0.1869
304.457	0.1906
304.6689	0.1887
304.8808	0.186
305.0927	0.1923
305.3046	0.1842
305.5164	0.1857
305.7283	0.186
305.9401	0.1759
306.152	0.1848
306.3638	0.1811
306.5756	0.1822
306.7874	0.1728
306.9992	0.1764
307.2109	0.1736
307.4227	0.1688
307.6344	0.1719
307.8462	0.1693
308.0579	0.1747
308.2696	0.1706
308.4813	0.1645
308.693	0.1576
308.9046	0.1599
309.1163	0.1607
309.328	0.1539
309.5396	0.155
309.7512	0.1579
309.9628	0.1492
310.1744	0.1522
310.386	0.151
310.5976	0.1416
310.8091	0.152
311.0207	0.1424
311.2322	0.1456
311.4437	0.1456
311.6552	0.1436
311.8667	0.1452
312.0782	0.1365
312.2897	0.1391
312.5012	0.1356
312.7126	0.1349
312.924	0.1396
313.1355	0.1328
313.3469	0.1332
313.5583	0.1296
313.7696	0.1282
313.981	0.1314
314.1924	0.1261
314.4037	0.1279
314.6151	0.1257
314.8264	0.1317
315.0377	0.1251
315.249	0.1224
315.4603	0.1242
315.6716	0.1307
315.8828	0.1259
316.0941	0.1288
316.3053	0.1212
316.5165	0.1257
316.7277	0.1188
316.9389	0.1235
317.1501	0.119
317.3613	0.1188
317.5724	0.1256
317.7836	0.116
317.9947	0.1149
318.2058	0.1196
318.417	0.1173
318.6281	0.1124
318.8391	0.1202
319.0502	0.121
319.2613	0.1173
319.4723	0.1213
319.6834	0.1189
319.8944	0.1204
320.1054	0.118
320.3164	0.1157
320.5274	0.1117
320.7383	0.1192
320.9493	0.1195
321.1602	0.1153
321.3712	0.1142
321.5821	0.1157
321.793	0.1247
322.0039	0.1215
322.2148	0.1145
322.4257	0.1172
322.6365	0.1212
322.8474	0.1204
323.0582	0.1244
323.269	0.1221
323.4798	0.1203
323.6906	0.1166
323.9014	0.1181
324.1122	0.1198
324.3229	0.122
324.5337	0.1282
324.7444	0.1247
324.9551	0.1206
325.1658	0.1244
325.3765	0.1217
325.5872	0.1211
325.7979	0.1234
326.0085	0.1228
326.2192	0.1192
326.4298	0.1265
326.6404	0.1261
326.851	0.1209
327.0616	0.1257
327.2722	0.1282
327.4828	0.1296
327.6933	0.129
327.9039	0.1219
328.1144	0.1213
328.3249	0.1284
328.5354	0.1223
328.7459	0.1254
328.9564	0.1201
329.1669	0.1279
329.3773	0.1262
329.5878	0.1301
329.7982	0.1281
330.0086	0.1281
330.219	0.1284
330.4294	0.1263
330.6398	0.1234
330.8502	0.1251
331.0605	0.1267
331.2708	0.122
331.4812	0.1266
331.6915	0.1274
331.9018	0.1287
332.1121	0.1364
332.3224	0.1275
332.5326	0.1251
332.7429	0.1258
332.9531	0.1352
333.1633	0.1228
333.3735	0.1211
333.5837	0.1275
333.7939	0.1302
334.0041	0.1338
334.2143	0.1243
334.4244	0.1361
334.6346	0.1264
334.8447	0.1304
335.0548	0.1314
335.2649	0.1297
335.475	0.133
335.685	0.1347
335.8951	0.1293
336.1051	0.1324
336.3152	0.136
336.5252	0.1361
336.7352	0.1332
336.9452	0.1325
337.1552	0.1292
337.3652	0.1303
337.5751	0.1353
337.7851	0.1325
337.995	0.1349
338.2049	0.1351
338.4148	0.137
338.6247	0.1392
338.8346	0.1369
339.0445	0.1377
339.2543	0.1398
339.4642	0.134
339.674	0.137
339.8838	0.1355
340.0936	0.133
340.3034	0.1355
340.5132	0.1363
340.7229	0.1437
340.9327	0.1426
341.1424	0.1394
341.3522	0.1352
341.5619	0.1419
341.7716	0.144
341.9813	0.1444
342.1909	0.1436
342.4006	0.1474
342.6102	0.1403
342.8199	0.1468
343.0295	0.1386
343.2391	0.1468
343.4487	0.1413
343.6583	0.1528
343.8679	0.1498
344.0774	0.1463
344.287	0.1465
344.4965	0.1505
344.706	0.1555
344.9155	0.1487
345.125	0.1529
345.3345	0.1622
345.544	0.15
345.7534	0.1517
345.9629	0.1559
346.1723	0.1586
346.3817	0.1488
346.5911	0.1574
346.8005	0.157
347.0099	0.156
347.2193	0.1641
347.4286	0.167
347.638	0.164
347.8473	0.1588
348.0566	0.1603
348.2659	0.1611
348.4752	0.1677
348.6845	0.1636
348.8937	0.1637
349.103	0.1587
349.3122	0.1609
349.5214	0.1656
349.7306	0.1726
349.9398	0.1676
350.149	0.1672
350.3582	0.1649
350.5674	0.1676
350.7765	0.1686
350.9856	0.174
351.1948	0.167
351.4039	0.1694
351.613	0.1724
351.822	0.1786
352.0311	0.1713
352.2402	0.1804
352.4492	0.1742
352.6582	0.1791
352.8672	0.1768
353.0762	0.1783
353.2852	0.1821
353.4942	0.1824
353.7032	0.1774
353.9121	0.1764
354.1211	0.1808
354.33	0.1855
354.5389	0.1745
354.7478	0.1804
354.9567	0.1795
355.1655	0.184
355.3744	0.1838
355.5833	0.1817
355.7921	0.1886
356.0009	0.1882
356.2097	0.1853
356.4185	0.1897
356.6273	0.1905
356.8361	0.1877
357.0448	0.189
357.2536	0.1972
357.4623	0.1926
357.671	0.1978
357.8797	0.1896
358.0884	0.1944
358.2971	0.197
358.5057	0.1815
358.7144	0.1979
358.923	0.2015
359.1316	0.1983
359.3402	0.2026
359.5488	0.1952
359.7574	0.2041
359.966	0.2024
360.1746	0.2015
360.3831	0.2089
360.5916	0.2069
360.8002	0.2065
361.0087	0.212
361.2172	0.2034
361.4256	0.2146
361.6341	0.2071
361.8426	0.2108
362.051	0.2205
362.2594	0.208
362.4678	0.2111
362.6762	0.2209
362.8846	0.2165
363.093	0.208
363.3014	0.2283
363.5097	0.2194
363.718	0.2231
363.9264	0.2239
364.1347	0.2275
364.343	0.2252
364.5513	0.229
364.7595	0.2338
364.9678	0.2225
365.176	0.2324
365.3842	0.2375
365.5925	0.2282
365.8007	0.2335
366.0089	0.2427
366.217	0.2358
366.4252	0.2418
366.6333	0.2347
366.8415	0.2376
367.0496	0.2444
367.2577	0.2463
367.4658	0.2372
367.6739	0.2312
367.882	0.2541
368.09	0.2461
368.2981	0.2467
368.5061	0.2434
368.7141	0.2493
368.9221	0.2549
369.1301	0.2488
369.3381	0.2544
369.5461	0.2514
369.754	0.2542
369.962	0.249
370.1699	0.2556
370.3778	0.2676
370.5857	0.2562
370.7936	0.2538
371.0015	0.2581
371.2093	0.2615
371.4172	0.2543
371.625	0.2573
371.8328	0.2563
372.0406	0.2673
372.2484	0.2644
372.4562	0.2649
372.664	0.2595
372.8717	0.2671
373.0795	0.2764
373.2872	0.2672
373.4949	0.277
373.7026	0.2768
373.9103	0.2703
374.118	0.2722
374.3256	0.2776
374.5333	0.2751
374.7409	0.2792
374.9485	0.2714
375.1561	0.2816
375.3637	0.2724
375.5713	0.2773
375.7789	0.2688
375.9864	0.2782
376.194	0.2815
376.4015	0.2885
376.609	0.2857
376.8165	0.2896
377.024	0.2835
377.2315	0.2805
377.4389	0.2806
377.6464	0.285
377.8538	0.2871
378.0612	0.2919
378.2686	0.2871
378.476	0.286
378.6834	0.2819
378.8908	0.2975
379.0981	0.2969
379.3055	0.2949
379.5128	0.2915
379.7201	0.2953
379.9274	0.3007
380.1347	0.2947
380.342	0.307
380.5492	0.2925
380.7565	0.3028
380.9637	0.3028
381.1709	0.2955
381.3781	0.2963
381.5853	0.3074
381.7925	0.3042
381.9997	0.3082
382.2068	0.3071
382.4139	0.3053
382.6211	0.3051
382.8282	0.3096
383.0353	0.3103
383.2424	0.3158
383.4494	0.2991
383.6565	0.315
383.8635	0.3011
384.0706	0.3117
384.2776	0.3182
384.4846	0.3056
384.6916	0.316
384.8986	0.314
385.1055	0.3186
385.3125	0.3057
385.5194	0.3229
385.7263	0.3123
385.9333	0.3138
386.1402	0.3103
386.347	0.314
386.5539	0.3128
386.7608	0.3068
386.9676	0.3147
387.1744	0.3123
387.3813	0.3154
387.5881	0.3046
387.7948	0.3151
388.0016	0.3156
388.2084	0.3126
388.4151	0.3151
388.6219	0.3056
388.8286	0.3165
389.0353	0.3131
389.242	0.3097
389.4487	0.3157
389.6553	0.3066
389.862	0.3029
390.0686	0.3131
390.2753	0.3049
390.4819	0.3133
390.6885	0.3095
390.8951	0.2996
391.1016	0.3051
391.3082	0.3066
391.5147	0.2899
391.7213	0.2934
391.9278	0.303
392.1343	0.3008
392.3408	0.2863
392.5473	0.2943
392.7537	0.2951
392.9602	0.2835
393.1666	0.2976
393.373	0.2863
393.5794	0.2897
393.7858	0.2924
393.9922	0.2792
394.1986	0.2805
394.4049	0.2826
394.6113	0.2881
394.8176	0.2826
395.0239	0.2819
395.2302	0.2871
395.4365	0.2838
395.6428	0.2805
395.8491	0.2804
396.0553	0.2756
396.2615	0.2714
396.4678	0.284
396.674	0.28
396.8802	0.2661
397.0863	0.2669
397.2925	0.2752
397.4987	0.2653
397.7048	0.2772
397.9109	0.2597
398.117	0.2675
398.3231	0.2663
398.5292	0.2632
398.7353	0.2628
398.9413	0.2618
399.1474	0.2652
399.3534	0.262
399.5594	0.2741
399.7654	0.2632
399.9714	0.2646
400.1774	0.2608
400.3833	0.2638
400.5893	0.2685
400.7952	0.2722
401.0011	0.2611
401.207	0.2645
401.4129	0.2602
401.6188	0.2651
401.8247	0.2679
402.0305	0.2635
402.2364	0.2646
402.4422	0.2693
402.648	0.2626
402.8538	0.2621
403.0596	0.2699
403.2654	0.2649
403.4711	0.2662
403.6768	0.2611
403.8826	0.2606
404.0883	0.2671
404.294	0.2689
404.4997	0.2618
404.7054	0.274
404.911	0.264
405.1167	0.2639
405.3223	0.2652
405.5279	0.2646
405.7335	0.2638
405.9391	0.2772
406.1447	0.273
406.3502	0.265
406.5558	0.2678
406.7613	0.2626
406.9668	0.2572
407.1724	0.2646
407.3778	0.2712
407.5833	0.257
407.7888	0.2627
407.9942	0.2619
408.1997	0.2668
408.4051	0.2558
408.6105	0.2651
408.8159	0.2688
409.0213	0.2652
409.2267	0.2726
409.432	0.2534
409.6374	0.2643
409.8427	0.2785
410.048	0.2648
410.2533	0.2602
410.4586	0.2514
410.6639	0.2732
410.8691	0.2584
411.0744	0.2628
411.2796	0.2599
411.4848	0.259
411.69	0.252
411.8952	0.2603
412.1004	0.2562
412.3056	0.2551
412.5107	0.2663
412.7158	0.2731
412.921	0.2667
413.1261	0.2497
413.3312	0.2587
413.5362	0.2728
413.7413	0.2593
413.9464	0.2475
414.1514	0.2655
414.3564	0.26
414.5614	0.2566
414.7664	0.2488
414.9714	0.2589
415.1764	0.2626
415.3813	0.2639
415.5863	0.2627
415.7912	0.2613
415.9961	0.2539
416.201	0.2659
416.4059	0.249
416.6108	0.256
416.8156	0.251
417.0205	0.2589
417.2253	0.2649
417.4301	0.2571
417.6349	0.2547
417.8397	0.2521
418.0445	0.2469
418.2492	0.242
418.454	0.2504
418.6587	0.2515
418.8634	0.2581
419.0681	0.2595
419.2728	0.2543
419.4775	0.2615
419.6822	0.2428
419.8868	0.2444
420.0915	0.2517
420.2961	0.2462
420.5007	0.2455
420.7053	0.2424
420.9099	0.2461
421.1144	0.2488
421.319	0.2353
421.5235	0.2403
421.728	0.2434
421.9325	0.2463
422.137	0.2409
422.3415	0.2354
422.546	0.2429
422.7504	0.234
422.9549	0.2484
423.1593	0.2268
423.3637	0.2418
423.5681	0.2314
423.7725	0.2306
423.9769	0.241
424.1812	0.2299
424.3856	0.2309
424.5899	0.2293
424.7942	0.2262
424.9985	0.229
425.2028	0.2348
425.4071	0.2253
425.6113	0.2321
425.8156	0.2213
426.0198	0.2255
426.224	0.2297
426.4282	0.2127
426.6324	0.2223
426.8366	0.2143
427.0407	0.2221
427.2449	0.2237
427.449	0.2152
427.6531	0.22
427.8572	0.2156
428.0613	0.214
428.2654	0.2187
428.4694	0.208
428.6735	0.2056
428.8775	0.2161
429.0815	0.2033
429.2855	0.1994
429.4895	0.2082
429.6935	0.192
429.8975	0.2013
430.1014	0.1972
430.3053	0.2049
430.5093	0.1957
430.7132	0.1904
430.9171	0.1863
431.1209	0.1967
431.3248	0.1861
431.5286	0.1782
431.7325	0.1986
431.9363	0.1762
432.1401	0.1794
432.3439	0.1785
432.5477	0.1735
432.7514	0.1816
432.9552	0.1701
433.1589	0.1747
433.3627	0.1735
433.5664	0.1678
433.7701	0.1666
433.9737	0.1653
434.1774	0.1612
434.3811	0.1603
434.5847	0.1607
434.7883	0.1639
434.9919	0.1554
435.1955	0.163
435.3991	0.1558
435.6027	0.1557
435.8062	0.1657
436.0098	0.1439
436.2133	0.1488
436.4168	0.1453
436.6203	0.1359
436.8238	0.1458
437.0272	0.1412
437.2307	0.1401
437.4341	0.1286
437.6375	0.1378
437.841	0.1253
438.0443	0.1305
438.2477	0.1267
438.4511	0.1244
438.6545	0.1236
438.8578	0.1211
439.0611	0.1248
439.2644	0.1295
439.4677	0.1221
439.671	0.1089
439.8743	0.1177
440.0775	0.1169
440.2808	0.1175
440.484	0.1176
440.6872	0.1148
440.8904	0.1068
441.0936	0.1164
441.2967	0.0998
441.4999	0.0976
441.703	0.1016
441.9062	0.1043
442.1093	0.1092
442.3124	0.0966
442.5155	0.1096
442.7185	0.0967
442.9216	0.0887
443.1246	0.0968
443.3276	0.0945
443.5307	0.0893
443.7337	0.0931
443.9366	0.086
444.1396	0.085
444.3426	0.0737
444.5455	0.0825
444.7484	0.0765
444.9513	0.0823
445.1542	0.076
445.3571	0.0801
445.56	0.0692
445.7628	0.0747
445.9657	0.0685
446.1685	0.0739
446.3713	0.0739
446.5741	0.0744
446.7769	0.0773
446.9797	0.0651
447.1824	0.0667
447.3852	0.0451
447.5879	0.0648
447.7906	0.0574
447.9933	0.0635
448.196	0.057
448.3986	0.0564
448.6013	0.0467
448.8039	0.0605
449.0066	0.0665
449.2092	0.0639
449.4118	0.0625
449.6143	0.0552
449.8169	0.0509
450.0195	0.0522
450.222	0.0506
450.4245	0.0496
450.627	0.0445
450.8295	0.0405
451.032	0.046
451.2345	0.0421
451.4369	0.0434
451.6394	0.0424
451.8418	0.0415
452.0442	0.0482
452.2466	0.0316
452.449	0.0369
452.6513	0.0331
452.8537	0.038
453.056	0.0338
453.2583	0.0317
453.4607	0.0382
453.663	0.0382
453.8652	0.0315
454.0675	0.0362
454.2697	0.0395
454.472	0.0274
454.6742	0.045
454.8764	0.0368
455.0786	0.0303
455.2808	0.0228
455.4829	0.0333
455.6851	0.0256
455.8872	0.025
456.0893	0.025
456.2915	0.0145
456.4935	0.0323
456.6956	0.0305
456.8977	0.0294
457.0997	0.0348
457.3018	0.0266
457.5038	0.0324
457.7058	0.032
457.9078	0.0226
458.1098	0.0264
458.3117	0.0299
458.5137	0.0103
458.7156	0.026
458.9175	0.0217
459.1194	0.0248
459.3213	0.022
459.5232	0.0218
459.725	0.0202
459.9269	0.022
460.1287	0.0205
460.3305	0.0269
460.5323	0.0195
460.7341	0.0184
460.9359	0.0168
461.1376	0.0164
461.3394	0.0193
461.5411	0.0237
461.7428	0.0216
461.9445	0.0239
462.1462	0.0201
462.3479	0.0225
462.5495	0.022
462.7512	0.023
462.9528	0.0196
463.1544	0.0116
463.356	0.0081
463.5576	0.0134
463.7592	0.0101
463.9607	0.0119
464.1623	0.0149
464.3638	0.0117
464.5653	0.0182
464.7668	0.0152
464.9683	0.0192
465.1697	0.01
465.3712	0.0034
465.5726	0.0049
465.7741	0.019
465.9755	0.0149
466.1769	0.0117
466.3782	0.0039
466.5796	0.0211
466.7809	0.0139
466.9823	0.0069
467.1836	0.0086
467.3849	0.0089
467.5862	0.006
467.7875	0.0067
467.9887	0.0043
468.19	0.0178
468.3912	0.0104
468.5924	0.0049
468.7936	0.0107
468.9948	0.0073
469.196	0.0089
469.3972	0.0001
469.5983	0.0074
469.7994	0.0107
470.0006	0.0148
470.2017	0.0099
470.4027	0.0178
470.6038	0.0064
470.8049	-0.0011
471.0059	0.0139
471.2069	0.0085
471.408	0.012
471.6089	0.0131
471.8099	0.0063
472.0109	0.0071
472.2119	0.0121
472.4128	0.005
472.6137	0.0087
472.8146	0.01
473.0155	0.0193
473.2164	0.0124
473.4173	-0.0008
473.6181	-0.0032
473.819	0.0114
474.0198	-0.0045
474.2206	-0.0058
474.4214	0.013
474.6222	-0.0001
474.8229	0.0066
475.0237	0.0094
475.2244	0.0042
475.4251	0.0142
475.6258	0.0039
475.8265	0.0051
476.0272	0.0054
476.2278	0.0046
476.4285	0.0035
476.6291	0.0052
476.8297	0.0126
477.0303	0.004
477.2309	0.0054
477.4315	0.006
477.632	-0.0001
477.8326	0.007
478.0331	0.01
478.2336	0.0031
478.4341	0.0057
478.6346	0.0114
478.8351	0.0014
479.0355	0.0156
479.236	0.008
479.4364	0.0018
479.6368	0.0031
479.8372	0.0076
480.0376	0.0072
480.2379	0.0136
480.4383	0.0118
480.6386	-0.0016
480.8389	-0.0006
481.0392	0.0024
481.2395	0.01
481.4398	0.0035
481.6401	0.0068
481.8403	0.0042
482.0405	0.0088
482.2408	0.0025
482.441	-0.001
482.6411	0.0034
482.8413	0.0017
483.0415	0.0136
483.2416	0.002
483.4417	0.0142
483.6419	-0.0055
483.8419	0.0019
484.042	0.0017
484.2421	0.0031
484.4422	0.0064
484.6422	0.0023
484.8422	-0.0011
485.0422	0.005
485.2422	0.0037
485.4422	0.0024
485.6422	0.0035
485.8421	0.0055
486.042	0.0072
486.242	0.0017
486.4419	0.0043
486.6417	0.0021
486.8416	0.0049
487.0415	0.0007
487.2413	-0.0025
487.4411	0.0116
487.641	-0.0004
487.8408	0.0087
488.0405	0.0115
488.2403	-0.0067
488.4401	0.0072
488.6398	0.0103
488.8395	0.0022
489.0392	0.01
489.2389	0.004
489.4386	0.001
489.6383	0.0117
489.8379	-0.0041
490.0376	0.001
490.2372	-0.0073
490.4368	-0.0009
490.6364	-0.0055
490.836	0.0031
491.0355	-0.0084
491.2351	0.0006
491.4346	0.0054
491.6341	0.0007
491.8336	0.0084
492.0331	0.0002
492.2326	0.0052
492.432	0.0034
492.6315	0.0148
492.8309	0.0069
493.0303	-0.0021
493.2297	0.0037
493.4291	0.0053
493.6284	0.0118
493.8278	0.002
494.0271	0.0042
494.2264	-0.0038
494.4257	0.0068
494.625	0.0045
494.8243	0.0014
495.0236	0.003
495.2228	0.0063
495.422	0.0016
495.6213	0.0025
495.8205	0.0122
496.0196	0.0011
496.2188	0.0039
496.418	0.0051
496.6171	0.0035
496.8162	0.0032
497.0153	0.0098
497.2144	0.0037
497.4135	0.0053
497.6126	0.0077
497.8116	-0.0027
498.0107	0.0026
498.2097	0.0091
498.4087	-0.003
498.6077	-0.0048
498.8067	0.0005
499.0056	-0.0023
499.2046	0.0131
499.4035	0.0028
499.6024	0.005
499.8013	0.0089
500.0002	0.0105
500.199	0.0093
500.3979	-0.0061
500.5967	-0
500.7956	0.0054
500.9944	0.0045
501.1932	0.012
501.3919	0.0024
501.5907	0.0021
501.7895	-0.0044
501.9882	-0.0024
502.1869	0.0086
502.3856	0.0056
502.5843	0.0022
502.783	0.0007
502.9816	0.005
503.1803	0.0016
503.3789	0.0089
503.5775	-0.0027
503.7761	0.002
503.9747	-0.0032
504.1732	-0.0036
504.3718	0.0069
504.5703	-0.0015
504.7689	-0.0078
504.9674	-0.0041
505.1658	0.0026
505.3643	0.0041
505.5628	0.0154
505.7612	0.0153
505.9597	-0.0017
506.1581	-0.0012
506.3565	0.0061
506.5549	0.0064
506.7532	0.001
506.9516	0.0125
507.1499	0.0024
507.3482	-0.0001
507.5465	0.0175
507.7448	0.0084
507.9431	0.0069
508.1414	-0.0046
508.3396	0.003
508.5379	0.0023
508.7361	0.0046
508.9343	0.0057
509.1325	0.0115
509.3306	0.0022
509.5288	-0.003
509.7269	0.0112
509.9251	0.0041
510.1232	0.0045
510.3213	0.0039
510.5193	-0.0032
510.7174	0.0003
510.9154	0.0122
511.1135	0.0022
511.3115	-0.0052
511.5095	0.008
511.7075	-0.0004
511.9055	0.0035
512.1034	0.003
512.3014	-0.001
512.4993	0.0028
512.6972	0.0056
512.8951	0.0042
513.093	0.0034
513.2908	0.0117
513.4887	0.0022
513.6865	0.0072
513.8844	0.0066
514.0822	0.0042
514.2799	-0.0047
514.4777	0.0019
514.6755	-0.0017
514.8732	-0.0017
515.0709	0.0049
515.2687	-0.0003
515.4664	0.0174
515.664	0.0037
515.8617	0.0209
516.0594	0.0093
516.257	0.0033
516.4546	0.0189
516.6522	0.0034
516.8498	-0.0004
517.0474	-0.0003
517.2449	0.0018
517.4425	0.0123
517.64	0.0069
517.8375	0.0084
518.035	-0.0044
518.2325	-0.0018
518.43	-0.001
518.6274	0.0122
518.8249	-0.0042
519.0223	0.016
519.2197	0.0078
519.4171	-0.0052
519.6145	0.003
519.8118	-0.0076
520.0092	0.0036
520.2065	0.0001
520.4038	0.0096
520.6011	0.0104
520.7984	0.0161
520.9956	0.0138
521.1929	0.0094
521.3901	0.0096
521.5874	0.019
521.7846	-0.0038
521.9818	0.005
522.1789	-0.0051
522.3761	0.0147
522.5732	0.0015
522.7704	-0.0062
522.9675	-0.0039
523.1646	0.0064
523.3617	0.0117
523.5587	0.0054
523.7558	-0.0004
523.9528	0.008
524.1498	0.0029
524.3468	-0.0045
524.5438	0.0116
524.7408	-0.0067
524.9378	0.0124
525.1347	0.0078
525.3316	-0.0004
525.5285	0.0006
525.7254	0.003
525.9223	0.0074
526.1192	0.0047
526.316	0.0123
526.5129	0.0068
526.7097	0.0082
526.9065	0.0121
527.1033	0.0064
527.3	0.0007
527.4968	0.0133
527.6935	-0.0075
527.8903	-0.0007
528.087	-0.0032
528.2837	0.0071
528.4804	0.0076
528.677	0.0049
528.8737	0.002
529.0703	-0.0017
529.2669	0.0108
529.4635	-0.0023
529.6601	-0.0019
529.8567	0.0084
530.0532	0.0091
530.2498	0.0038
530.4463	-0.0108
530.6428	0.0055
530.8393	0.0098
531.0358	0.0027
531.2322	-0.0125
531.4287	0.0029
531.6251	-0.0133
531.8215	0.0025
532.0179	0.0037
532.2143	0.012
532.4107	0.008
532.607	0.0007
532.8034	-0.0003
532.9997	-0.0022
533.196	-0.0035
533.3923	0.009
533.5886	0.0097
533.7848	0.0011
533.9811	-0.0027
534.1773	0.004
534.3735	0.0041
534.5697	0.0001
534.7659	0.0087
534.9621	0.0115
535.1582	0.0099
535.3544	0.004
535.5505	0.0057
535.7466	0.0019
535.9427	0.0034
536.1387	-0.0013
536.3348	0.0127
536.5308	0.0052
536.7269	0.0034
536.9229	0.0085
537.1189	0.0124
537.3148	0.0113
537.5108	0.0068
537.7068	0.0132
537.9027	-0.0149
538.0986	0.0115
538.2945	-0.0097
538.4904	-0.0043
538.6863	0.0072
538.8821	0.0106
539.078	0.0057
539.2738	0.0052
539.4696	-0.0147
539.6654	0.0093
539.8611	0.0027
540.0569	-0.0009
540.2526	0.0138
540.4484	-0.0058
540.6441	0.0074
540.8398	0.0087
541.0355	-0.0097
541.2311	0.0077
541.4268	0.0079
541.6224	0.0162
541.818	0.0063
542.0136	0.0186
542.2092	-0.001
542.4048	0.003
542.6003	-0.0045
542.7959	0.0091
542.9914	0.0126
543.1869	-0.0056
543.3824	0.0188
543.5779	0.008
543.7734	0.0116
543.9688	0.006
544.1642	0.0026
544.3596	0.015
544.555	0.0043
544.7504	0.0122
544.9458	0.001
545.1411	0.0056
545.3365	0.0119
545.5318	0.0006
545.7271	0.0109
545.9224	-0.0017
546.1177	0.0032
546.3129	0.0064
546.5081	0.0012
546.7034	0.0077
546.8986	0.0005
547.0938	0.0068
547.289	0.0083
547.4841	0.0018
547.6793	0.0098
547.8744	0.0107
548.0695	0.0022
548.2646	0.0017
548.4597	-0.0025
548.6548	0.021
548.8498	0.0088
549.0448	0.0016
549.2399	0.0101
549.4349	0.0034
549.6298	0.0102
549.8248	-0.005
550.0198	0.0146
550.2147	0.0048
550.4096	-0.0022
550.6045	0.0036
550.7994	0.0037
550.9943	0.0137
551.1892	-0.0045
551.384	0.008
551.5788	0.0071
551.7737	0.0103
551.9685	0.0049
552.1632	-0.0135
552.358	0.0012
552.5528	0.0078
552.7475	0.0022
552.9422	0.0083
553.1369	0.0106
553.3316	0.0047
553.5263	0.0062
553.7209	0.0096
553.9156	0.0006
554.1102	0.0086
554.3048	-0.0134
554.4994	-0.0078
554.694	0.0096
554.8885	0.0078
555.0831	0.0063
555.2776	0.0035
555.4721	0.0106
555.6666	0.0017
555.8611	0.0027
556.0555	-0.0028
556.25	0.0146
556.4444	-0.011
556.6388	0.0033
556.8332	0.0071
557.0276	0.013
557.222	-0.0028
557.4163	0.0047
557.6107	0.0045
557.805	0.0058
557.9993	0.0152
558.1936	-0.0117
558.3879	0.0053
558.5821	0.0012
558.7764	-0.0075
558.9706	0.0082
559.1648	0.0067
559.359	0.0008
559.5532	0.0093
559.7473	0.0014
559.9415	0.0051
560.1356	0.0102
560.3297	0.0064
560.5238	0.0011
560.7179	-0.0026
560.9119	-0.0015
561.106	-0.0001
561.3	0.0057
561.494	-0.0024
561.688	0.0053
561.882	0.0105
562.076	-0.0042
562.2699	0.0112
562.4639	0.0116
562.6578	0.0089
562.8517	0.0152
563.0456	0.0033
563.2395	0.0107
563.4333	0.0052
563.6272	0.0052
563.821	0.0028
564.0148	0.0027
564.2086	0.0062
564.4024	0.0087
564.5961	0.0099
564.7899	0.0066
564.9836	-0.0003
565.1773	0.0126
565.371	0.0138
565.5647	0.0043
565.7584	0.0087
565.952	0.0081
566.1456	0.0011
566.3393	0.0025
566.5329	0.0068
566.7264	0.0081
566.92	0.004
567.1136	-0.0064
567.3071	-0.005
567.5006	0.0063
567.6941	0.0013
567.8876	-0.0008
568.0811	0.0119
568.2745	0.001
568.468	0.0001
568.6614	0.0074
568.8548	0.002
569.0482	0.0053
569.2416	0.0068
569.4349	0.0055
569.6283	-0.0031
569.8216	0.0053
570.0149	-0.0025
570.2082	0.0068
570.4015	-0.0021
570.5947	0.0043
570.788	0.0004
570.9812	0.0007
571.1744	0.0006
571.3676	0.0037
571.5608	0.0039
571.754	0.0138
571.9471	0.0102
572.1402	0.0011
572.3333	0.0044
572.5264	0.0003
572.7195	-0.0005
572.9126	0.0012
573.1057	0.0001
573.2987	0.0034
573.4917	0.0032
573.6847	0.0063
573.8777	0.0055
574.0707	0.0034
574.2636	0.0044
574.4566	0.002
574.6495	0.003
574.8424	0.0075
575.0353	0.0037
575.2281	0.0104
575.421	-0.0017
575.6138	-0.001
575.8067	0.0029
575.9995	0.0027
576.1923	0.0038
576.385	0.0068
576.5778	0.0074
576.7706	0.004
576.9633	0.0049
577.156	-0.0027
577.3487	0.0024
577.5414	-0.0008
577.734	0.0028
577.9267	0.0058
578.1193	0.007
578.3119	-0.0027
578.5045	0.0014
578.6971	-0
578.8897	-0.0012
579.0822	0.0058
579.2747	-0.001
579.4673	0.0081
579.6598	0.0017
579.8522	0.0047
580.0447	0.0058
580.2372	0.0082
580.4296	0.0092
580.622	0.0003
580.8144	0.0051
581.0068	0.0051
581.1992	0.0044
581.3915	0.0002
581.5839	0.0037
581.7762	-0.0001
581.9685	0.0028
582.1608	0.0063
582.353	-0.0006
582.5453	0.0027
582.7375	0.0062
582.9298	-0.0034
583.122	0.0043
583.3142	0.0041
583.5063	0.005
583.6985	0.0027
583.8906	0.0001
584.0827	0.0046
584.2749	-0.002
584.4669	0.0022
584.659	0.0067
584.8511	0.008
585.0431	0.0034
585.2352	0.0011
585.4272	0.0023
585.6192	0.0055
585.8111	0.0005
586.0031	-0.0011
586.195	0.001
586.387	0.0012
586.5789	0.0075
586.7708	0.0033
586.9627	0.0018
587.1545	-0.001
587.3464	0.0073
587.5382	0.0014
587.73	0.0067
587.9218	0.0013
588.1136	-0.0022
588.3053	0.0047
588.4971	0.0002
588.6888	-0.0017
588.8805	-0.003
589.0722	0.0052
589.2639	0.0026
589.4556	0.0068
589.6472	0.0091
589.8389	0.0044
590.0305	-0.0009
590.2221	0.0099
590.4137	0.0051
590.6052	-0.0016
590.7968	0.0082
590.9883	0.0032
591.1798	0.0037
591.3713	-0.0021
591.5628	0.0041
591.7543	0.0013
591.9458	0.0047
592.1372	0.0059
592.3286	0.001
592.52	0.0052
592.7114	0.0036
592.9028	0.0099
593.0941	0.0008
593.2855	0.0021
593.4768	0.0113
593.6681	0.0043
593.8594	0.0104
594.0506	-0.0019
594.2419	0.0035
594.4331	0.0041
594.6244	-0.0013
594.8156	0.0002
595.0067	0.0012
595.1979	-0.0034
595.3891	0.0033
595.5802	0.0086
595.7713	0.0056
595.9624	0.008
596.1535	0.0047
596.3446	-0.001
596.5357	0.0023
596.7267	0.0046
596.9177	0.0008
597.1087	-0.0038
597.2997	0.005
597.4907	0.0017
597.6817	0.0083
597.8726	0.0052
598.0635	-0.0052
598.2544	0.0068
598.4453	-0.002
598.6362	0.0033
598.827	0.0037
599.0179	0.0007
599.2087	0.0065
599.3995	0.0073
599.5903	0.009
599.7811	0.013
599.9718	0.0044
600.1626	0.0051
600.3533	0.0051
600.544	0.0024
600.7347	0.0069
600.9254	0.0039
601.116	0.0016
601.3067	0.0039
601.4973	0.0051
601.6879	0.0047
601.8785	0.007
602.0691	0.0048
602.2596	0.0067
602.4502	0.0088
602.6407	0.0043
602.8312	0.0039
603.0217	0.0075
603.2122	0.005
603.4027	-0.0006
603.5931	-0.0025
603.7835	0.004
603.9739	-0.0036
604.1643	0.0034
604.3547	0.0035
604.5451	0.01
604.7354	-0.0026
604.9257	0.002
605.116	-0.001
605.3063	0.0066
605.4966	0.0035
605.6869	0.0033
605.8771	0.002
606.0673	0.0001
606.2575	-0.0038
606.4477	0.0115
606.6379	0.0041
606.8281	0.0002
607.0182	-0.0007
607.2083	0.002
607.3985	0.0014
607.5885	0.0002
607.7786	0.0105
607.9687	0.0024
608.1587	0.0077
608.3488	0.0067
608.5388	-0.0065
608.7288	-0.0049
608.9187	0.0062
609.1087	0.0032
609.2986	0.0063
609.4886	0.0041
609.6785	0.0069
609.8684	-0.0049
610.0582	0.0005
610.2481	-0.008
610.4379	0.0072
610.6278	0.0062
610.8176	0.0107
611.0074	0.0046
611.1971	0.0092
611.3869	0.0055
611.5766	-0.0081
611.7664	0.0079
611.9561	0.0059
612.1458	0.0041
612.3354	0.0053
612.5251	0.0027
612.7147	0.0141
612.9044	0.0035
613.094	0.0046
613.2836	0.0012
613.4731	0.0046
613.6627	0.0045
613.8522	0.0049
614.0417	0.0073
614.2313	0.0051
614.4207	0.0053
614.6102	0.0114
614.7997	0.0087
614.9891	0.0082
615.1785	0.0027
615.3679	0.0033
615.5573	0.0059
615.7467	-0.0035
615.9361	0.0067
616.1254	0.0147
616.3147	-0.0006
616.504	0.0052
616.6933	0.0041
616.8826	0.0038
617.0718	0.0082
617.2611	0.0056
617.4503	0.002
617.6395	-0.0012
617.8287	0.0025
618.0179	0.0006
618.207	0.0067
618.3961	0.0033
618.5853	0.0006
618.7744	0.0099
618.9634	0.0072
619.1525	-0.0004
619.3416	0.0033
619.5306	0.0036
619.7196	0.0072
619.9086	0.0033
620.0976	0.0003
620.2866	0.0127
620.4755	-0.0034
620.6645	0.0147
620.8534	-0.0014
621.0423	0.0037
621.2312	0.0002
621.42	0.0014
621.6089	0.0071
621.7977	-0.0013
621.9865	0.0057
622.1753	-0.0067
622.3641	-0.0031
622.5529	0.0028
622.7416	0.0001
622.9303	0.0051
623.1191	0.0032
623.3078	0.0033
623.4964	0.0083
623.6851	0.0087
623.8737	0.0048
624.0624	0.0016
624.251	-0.0019
624.4396	0.0103
624.6282	0.0063
624.8167	0.0038
625.0053	0.0088
625.1938	0.0103
625.3823	0.0052
625.5708	0.0017
625.7593	0.0009
625.9477	0.005
626.1362	-0.0041
626.3246	0.0004
626.513	0.0092
626.7014	0.0063
626.8898	0.0021
627.0781	0.0117
627.2665	0.0032
627.4548	-0.0009
627.6431	0.003
627.8314	0.0115
628.0197	0.0036
628.2079	0.0038
628.3962	0.0052
628.5844	0.0076
628.7726	-0.0022
628.9608	0.0028
629.1489	0.0052
629.3371	-0.0101
629.5252	0.0016
629.7134	-0.002
629.9015	0.0035
630.0895	-0.0016
630.2776	0.0067
630.4657	0.0033
630.6537	0.0051
630.8417	0.0009
631.0297	0.0061
631.2177	-0.0019
631.4057	0.0098
631.5936	0.0041
631.7815	-0.0041
631.9695	0.0109
632.1574	-0.0002
632.3452	0.0133
632.5331	0.0043
632.7209	0.0104
632.9088	-0.0002
633.0966	0.0296
633.2844	0.0173
633.4722	0.0114
633.6599	0.016
633.8477	0.0039
634.0354	0.022
634.2231	-0.0084
634.4108	0.0043
634.5985	0.0095
634.7861	-0.0033
634.9738	-0.0004
635.1614	0.0215
635.349	-0.0055
635.5366	0.0008
635.7242	-0.0035
635.9117	0.0095
636.0993	0.006
636.2868	-0.0021
636.4743	0.0064
636.6618	-0.001
636.8492	0.004
637.0367	-0.0055
637.2241	0.0001
637.4115	0.0131
637.5989	-0.0048
637.7863	0.0251
637.9737	-0.0096
638.161	0.0103
638.3484	-0.0055
638.5357	0.0016
638.723	0.0223
638.9103	-0.017
639.0975	0.0166
639.2848	0.016
639.472	-0.0002
639.6592	-0.0056
639.8464	0.0055
640.0336	0.0164
640.2208	0.0119
640.4079	-0.0022
640.595	-0.0165
640.7821	0.0177
640.9692	-0.0062
641.1563	0.0052
641.3434	0.013
641.5304	0.0235
641.7174	-0.0149
641.9044	0.0067
642.0914	0.0184
642.2784	0.0004
642.4653	-0.0106
642.6523	0.0112
642.8392	-0.0064
643.0261	0.0028
643.213	0.0042
643.3999	0.0074
643.5867	0.0172
643.7735	-0.0082
643.9604	0.0188
644.1472	-0.0005
644.3339	0.0171
644.5207	0.0028
644.7075	-0.0102
644.8942	-0.0169
645.0809	0.0002
645.2676	-0.0125
645.4543	-0.0039
645.6409	0.005
645.8276	0.0117
646.0142	-0.0027
646.2008	0.0099
646.3874	0.0066
646.574	0.0074
646.7605	0.0137
646.9471	0.0103
647.1336	-0.0107
647.3201	0.0114
647.5066	0.0024
647.6931	-0.0053
647.8795	0.002
648.0659	0.0023
648.2524	-0.0002
648.4388	0.0063
648.6252	0.0061
648.8115	0.0086
648.9979	0.0164
649.1842	0.0106
649.3705	0.0075
649.5568	-0.0047
649.7431	-0.0086
649.9294	0.0234
650.1156	-0.0044
650.3018	0.0105
650.488	0.0151
650.6742	0.0139
650.8604	0.0069
651.0466	0.0071
651.2327	0.0133
651.4188	-0.0155
651.6049	0.0149
651.791	0.0099
651.9771	0.0072
652.1632	0.0076
652.3492	-0.0002
652.5352	0.01
652.7212	0.0155
652.9072	0.0103
653.0932	0.0165
653.2791	-0.0021
653.465	0.0012
653.651	0.0123
653.8369	0.0128
654.0227	-0.0062
654.2086	0.0195
654.3944	0.0243
654.5803	0.0038
654.7661	0.0011
654.9519	0.0021
655.1377	0.0002
655.3234	0.0002
655.5092	0.0002
655.6949	0.0002
655.8806	0.0002
656.0663	0.0002
656.2519	0.0002
656.4376	0.0002
656.6232	0.0002
656.8088	0.0002
656.9945	0.0002
657.18	0.0002
657.3656	0.0002
657.5511	0.0002
657.7367	0.0002
657.9222	0.0002
658.1077	0.0002
658.2932	0.0002
658.4786	0.0002
658.6641	0.0002
658.8495	0.0002
659.0349	0.0002
659.2203	0.0002
659.4057	0.0002
659.591	0.0798
659.7764	0.0274
659.9617	0.0019
660.147	0.0023
660.3323	-0.0103
660.5176	-0.0101
660.7028	-0.0067
660.888	-0.0068
661.0733	0.0172
661.2585	-0.0035
661.4436	0.0343
661.6288	0.0089
661.8139	0.0022
661.9991	-0.0179
662.1842	0.0061
662.3693	0.002
662.5544	0.0134
662.7394	0.0122
662.9245	0.0187
663.1095	0.0022
663.2945	0.0079
663.4795	-0.0057
663.6644	0.0055
663.8494	0.0199
664.0343	0.0087
664.2193	-0.0006
664.4042	0.024
664.589	0.0007
664.7739	-0.0042
664.9587	-0.0008
665.1436	-0.0114
665.3284	0.0173
665.5132	-0.0207
665.698	0.0203
665.8827	0.007
666.0675	-0.0249
666.2522	0.0056
666.4369	0.0203
666.6216	0.0137
666.8063	-0.0078
666.9909	-0.015
667.1756	-0.0159
667.3602	-0.0059
667.5448	0.0052
667.7294	0.0119
667.9139	-0.01
668.0985	-0.0051
668.283	0.0023
668.4675	0.0033
668.652	-0.001
668.8365	-0.0024
669.0209	0.0285
669.2054	0.0031
669.3898	0.0183
669.5742	0.0335
669.7586	0.0202
669.943	0.0157
670.1273	0.0073
670.3117	0.0196
670.496	0.011
670.6803	0.0232
670.8646	-0.0123
671.0488	0.0076
671.2331	-0.0186
671.4173	0.0036
671.6015	0.0081
671.7857	0.008
671.9699	0.008
672.1541	-0.0073
672.3382	-0.0141
672.5223	0.0184
672.7064	0.0174
672.8905	-0.001
673.0746	0.0292
673.2587	0.0175
673.4427	0.0048
673.6267	0.015
673.8107	0.0239
673.9947	0.0151
674.1787	0.0262
674.3626	-0.0041
674.5465	0.0244
674.7304	-0.0059
674.9143	0.0019
675.0982	-0.005
675.2821	-0.0023
675.4659	0.0125
675.6497	0.0109
675.8335	0.0069
676.0173	-0.0001
676.2011	0.0163
676.3849	0.0031
676.5686	-0.0065
676.7523	0.0205
676.936	0.0041
677.1197	-0.0041
677.3034	0.0469
677.487	0.0118
677.6706	-0.0051
677.8542	-0.0034
678.0378	0.0158
678.2214	0.0039
678.405	0.0105
678.5885	0.0011
678.772	0.0065
678.9555	0.0082
679.139	0.0224
679.3225	0.0064
679.5059	-0.0162
679.6894	0.0138
679.8728	-0.0002
680.0562	-0.0017
680.2395	0.0083
680.4229	-0.0072
680.6062	0.0151
680.7896	0.0027
680.9729	0.0137
681.1562	-0.003
681.3394	0.0045
681.5227	0.0152
681.7059	0.0034
681.8891	0.0179
682.0723	0.0083
682.2555	0.0113
682.4387	0.0104
682.6218	0.0216
682.805	0.0107
682.9881	0.0248
683.1712	0.0093
683.3542	0.026
683.5373	0.0007
683.7203	0.0071
683.9034	-0.0163
684.0864	0.0079
684.2694	0.0092
684.4523	0.0166
684.6353	0.0104
684.8182	-0.004
685.0011	0.0077
685.184	0.0051
685.3669	0.0172
685.5498	-0.0015
685.7326	0.0013
685.9154	-0.0028
686.0982	0.0072
686.281	-0.0116
686.4638	0.0046
686.6465	-0.0011
686.8293	-0.0106
687.012	0.0102
687.1947	-0.0019
687.3774	0.0155
687.56	-0.0017
687.7427	0.0074
687.9253	-0.0096
688.1079	0.0158
688.2905	-0.0043
688.4731	0.0002
688.6556	-0.004
688.8382	-0.032
689.0207	0.0161
689.2032	0.0224
689.3857	-0.0102
689.5681	-0.0182
689.7506	0.0173
689.933	-0.0167
690.1154	0.0173
690.2978	0.003
690.4802	0.0116
690.6626	0.0084
690.8449	0.0138
691.0272	0.0025
691.2095	-0.0288
691.3918	0.0123
691.5741	0.0134
691.7563	0.0179
691.9386	0.0109
692.1208	0.02
692.303	0.0137
692.4852	0.0052
692.6673	-0.0035
692.8495	-0.013
693.0316	0.0009
693.2137	0.0021
693.3958	0.0056
693.5778	0.0161
693.7599	-0.0127
693.9419	-0.011
694.1239	0.01
694.3059	0.0166
694.4879	-0.009
694.6699	0.0025
694.8518	0.0059
695.0337	0.0373
695.2157	0.0284
695.3975	0.0205
695.5794	-0.0078
695.7613	0.0083
695.9431	-0.0186
696.1249	0.0059
696.3067	0.0002
696.4885	0.0203
696.6703	0.0026
696.852	0.0007
697.0337	0.0275
697.2154	-0.0004
697.3971	0.0246
697.5788	0.0113
697.7605	-0.0133
697.9421	0.0142
698.1237	0.0127
698.3053	-0.0074
698.4869	-0.0035
698.6685	-0.0193
698.85	0.0092
699.0315	-0.0072
699.213	0.0149
699.3945	0.003
699.576	0.024
699.7575	0.0102
699.9389	-0.0165
700.1203	-0.0048
700.3017	0.0151
700.4831	0.0223
700.6645	0.0278
700.8458	0.0075
701.0271	0.0108
701.2084	-0.012
701.3897	0.0109
701.571	0.0091
701.7523	0.0118
701.9335	-0.0007
702.1147	0.0032
702.2959	-0.018
702.4771	0.027
702.6583	-0.0225
702.8394	-0.0214
703.0205	0.0257
703.2016	-0.0022
703.3827	-0.0092
703.5638	-0.02
703.7449	0.0233
703.9259	0.0007
704.1069	0.0069
704.2879	-0.0055
704.4689	0.022
704.6499	0.04
704.8308	0.0362
705.0117	0.0393
705.1927	0.0342
705.3735	0.0156
705.5544	0.0127
705.7353	-0.0177
705.9161	-0.0251
706.0969	0.0185
706.2777	0.0199
706.4585	-0.0024
706.6393	0.0147
706.82	0.0112
707.0007	0.0026
707.1815	-0.0055
707.3621	0.0509
707.5428	0.0198
707.7235	-0.0035
707.9041	0.0025
708.0847	0.0054
708.2653	0.0318
708.4459	0.0002
708.6265	-0.0044
708.807	0.0066
708.9875	0.0114
709.168	-0.0025
709.3485	0.0156
709.529	0.018
709.7095	0.0118
709.8899	0.0149
710.0703	0.0284
710.2507	0.0148
710.4311	-0.0082
710.6115	0.0173
710.7918	0.017
710.9721	0.0148
711.1524	-0.015
711.3327	0.0063
711.513	0.0055
711.6932	0.0097
711.8735	0.036
712.0537	-0.0053
712.2339	0.0231
712.4141	0.0281
712.5942	-0.0371
712.7744	0.0036
712.9545	0.0222
713.1346	0.018
713.3147	-0.0017
713.4947	0.0041
713.6748	0.0093
713.8548	0.0295
714.0348	0.0078
714.2148	0.0081
714.3948	0.0145
714.5748	0.0153
714.7547	0.0272
714.9346	0.0048
715.1145	0.0337
715.2944	-0.0214
715.4743	0.0281
715.6541	-0.0144
715.834	0.0309
716.0138	0.0444
716.1936	0.0234
716.3733	0.0029
716.5531	-0.0164
716.7328	0.0271
716.9126	0.0096
717.0923	-0.0044
717.2719	0.0022
717.4516	0.0019
717.6312	-0.006
717.8109	0.0272
717.9905	0.0148
718.1701	0.0014
718.3496	0.0055
718.5292	-0.0181
718.7087	-0.0158
718.8882	0.003
719.0677	0.0096
719.2472	0.0135
719.4267	-0.007
719.6061	-0.0001
719.7856	0.026
719.965	0.008
720.1443	0.0187
720.3237	0.0011
720.5031	0.0107
720.6824	0.0084
720.8617	0.0218
721.041	0.0324
721.2203	-0.0335
721.3995	0.0139
721.5788	0.0019
721.758	-0.0005
721.9372	0.0011
722.1164	-0.0022
722.2956	0.0035
722.4747	0.0021
722.6538	-0.011
722.8329	0.0334
723.012	0.0142
723.1911	0.0216
723.3702	0.0253
723.5492	0.0219
723.7282	0.0004
723.9072	0.0208
724.0862	0.029
724.2652	0.0047
724.4441	0.0144
724.623	0.0148
724.8019	0.0035
724.9808	0.0227
725.1597	0.0166
725.3385	0.0133
725.5174	0.0322
725.6962	0.0113
725.875	0.0096
726.0538	0.0083
726.2325	0.0256
726.4112	-0.0067
726.59	0.0148
726.7687	-0.007
726.9474	0.0097
727.126	0.0326
727.3047	0.0172
727.4833	0.0196
727.6619	-0.0234
727.8405	-0.0115
728.0191	0.0201
728.1976	0.0345
728.3762	0.0394
728.5547	-0.0037
728.7332	0.02
728.9116	0.0095
729.0901	-0.0134
729.2686	0.0248
729.447	0.0131
729.6254	0.0072
729.8038	0.0012
729.9821	-0.0137
730.1605	0.0221
730.3388	0.006
730.5171	0.0165
730.6954	-0.001
730.8737	0.013
731.0519	-0.0073
731.2302	0.0195
731.4084	-0.0058
731.5866	-0.0221
731.7648	0.0014
731.9429	0.0268
732.1211	-0.0015
732.2992	-0.0072
732.4773	-0.002
732.6554	0.0031
732.8335	0.0475
733.0115	0.0263
733.1896	-0.0132
733.3676	0.0179
733.5456	-0.0046
733.7235	0.0015
733.9015	0.0076
734.0794	0.0057
734.2574	-0.0288
734.4353	0.0065
734.6131	-0.0039
734.791	-0.0098
734.9689	-0.002
735.1467	0.0038
735.3245	0.0211
735.5023	0.0157
735.68	0.0057
735.8578	0.0035
736.0355	0.0176
736.2132	0.008
736.3909	0.004
736.5686	0.0082
736.7463	0.0005
736.9239	0.0169
737.1015	0.014
737.2791	-0.0187
737.4567	0.0159
737.6343	0.0141
737.8118	0.0245
737.9894	0.0182
738.1669	-0.0119
738.3444	0.0355
738.5218	-0.0252
738.6993	0.0044
738.8767	-0.0057
739.0541	0.0131
739.2315	0.0005
739.4089	0.03
739.5863	-0.006
739.7636	-0.0096
739.9409	-0.0066
740.1182	0.0026
740.2955	0.0125
740.4728	0.0181
740.65	-0.0075
740.8272	0.0134
741.0044	-0.0069
741.1816	0.0115
741.3588	-0.0359
741.5359	-0.0139
741.7131	0.0107
741.8902	-0.005
742.0673	-0.0284
742.2444	0.0352
742.4214	0.0321
742.5985	-0.0091
742.7755	0.0212
742.9525	-0.0072
743.1295	-0.0255
743.3064	-0.0111
743.4834	-0.02
743.6603	0.0547
743.8372	-0.0592
744.0141	0.0434
744.191	0.0132
744.3678	-0.0074
744.5446	-0.0086
744.7215	-0.0049
744.8982	0.0045
745.075	0.0626
745.2518	0.0213
745.4285	0.0152
745.6052	-0.003
745.7819	-0.0294
745.9586	0.0004
746.1353	-0.0006
746.3119	-0.0029
746.4885	0.0401
746.6651	0.0056
746.8417	-0.0047
747.0183	0.0375
747.1948	-0.0107
747.3714	-0.0066
747.5479	0.0091
747.7244	-0.0129
747.9008	0.0257
748.0773	0.0318
748.2537	0.0349
748.4301	0.0193
748.6065	-0.0041
748.7829	-0.0201
748.9593	-0.0065
749.1356	0.0044
749.3119	0.0093
749.4882	0.0241
749.6645	-0.0016
749.8408	0.0177
750.017	0.0083
750.1933	-0.0189
750.3695	0.0125
750.5457	-0.0134
750.7218	0.0041
750.898	-0.0103
751.0741	-0.0114
751.2502	-0.0053
751.4263	0.0037
751.6024	0.0084
751.7784	-0.0115
751.9545	-0.0088
752.1305	0.0248
752.3065	0.0372
752.4825	0.025
752.6584	0.0257
752.8344	0.0022
753.0103	-0.0149
753.1862	0.0038
753.3621	-0.0152
753.5379	0.0047
753.7138	0.0078
753.8896	0.0204
754.0654	-0.0015
754.2412	0.036
754.417	0.0016
754.5927	-0.0068
754.7685	0.0112
754.9442	0.0367
755.1199	-0.0035
755.2956	0.0178
755.4712	-0.0018
755.6469	0.0046
755.8225	0.0033
755.9981	0.0226
756.1736	0.0022
756.3492	0.0166
756.5248	0.0261
756.7003	-0.0031
756.8758	-0.0028
757.0513	-0.0127
757.2267	-0.0022
757.4022	0.0072
757.5776	0.0042
757.753	0.0108
757.9284	0.0192
758.1038	0.01
758.2791	0.0066
758.4545	-0.028
758.6298	0.0149
758.8051	0.0175
758.9803	0.0086
759.1556	0.005
759.3308	0.0086
759.506	0.008
759.6812	0.004
759.8564	0.0059
760.0316	-0.0104
760.2067	0.0333
760.3819	0.0028
760.557	0.0108
760.732	0.0104
760.9071	0.0211
761.0821	-0.0097
761.2572	0.0166
761.4322	0.0208
761.6072	0.0003
761.7821	-0.0205
761.9571	0.0014
762.132	-0.0373
762.3069	0.0332
762.4818	0.0266
762.6567	0.0062
762.8316	0.0126
763.0064	0.0201
763.1812	0.0234
763.356	-0.0152
763.5308	0.0193
763.7055	-0.0201
763.8803	0.0191
764.055	-0.0071
764.2297	-0.0089
764.4044	-0.0152
764.579	0.0127
764.7537	0.0014
764.9283	0.0119
765.1029	0.0007
765.2775	-0.0044
765.4521	0.0068
765.6266	-0.0047
765.8011	0.0064
765.9756	0.024
766.1501	0.0033
766.3246	-0.0126
766.4991	0.02
766.6735	0.0549
766.8479	0.0123
767.0223	0.0234
767.1967	0.0137
767.371	0.0156
767.5454	0.0284
767.7197	0.0494
767.894	-0.0053
768.0683	0.0043
768.2425	0.0233
768.4168	0.0104
768.591	-0.0042
768.7652	0.0137
768.9394	-0.0294
769.1135	0.0091
769.2877	-0.0009
769.4618	0.0628
769.6359	0.0118
769.81	-0.0005
769.984	-0.0049
770.1581	0.0202
770.3321	0.0261
770.5061	-0.0022
770.6801	0.0306
770.8541	0.0244
771.028	0.0301
771.202	0.0124
771.3759	0.0169
771.5498	0.0298
771.7236	0.0067
771.8975	-0.0042
772.0713	-0.0082
772.2451	-0.002
772.4189	0.0038
772.5927	-0.0187
772.7665	-0.0295
772.9402	0.0154
773.1139	-0.0077
773.2876	-0.0099
773.4613	0.0308
773.635	0.0111
773.8086	0.0332
773.9822	0.0201
774.1558	0.0453
774.3294	0.0074
774.503	-0.0015
774.6765	0.0258
774.8501	0.0166
775.0236	0.0616
775.1971	-0.0253
775.3705	0.0022
775.544	-0.0133
775.7174	0.0286
775.8908	-0.0062
776.0642	0.0261
776.2376	0.03
776.4109	0.0059
776.5843	0.0205
776.7576	0.0145
776.9309	0.0195
777.1041	-0.0268
777.2774	0.0065
777.4506	0.029
777.6238	-0.008
777.797	0.0305
777.9702	0.0468
778.1434	0.0086
778.3165	0.0055
778.4896	-0.0167
778.6627	0.0004
778.8358	-0.016
779.0089	-0.0102
779.1819	0.0247
779.3549	-0.0047
779.5279	-0.0027
779.7009	0.0567
779.8739	0.0354
780.0468	-0.0147
780.2197	0.0432
780.3926	-0.0079
780.5655	0.0092
780.7384	-0.0042
780.9112	0.026
781.0841	0.0116
781.2569	0.0174
781.4297	0.0073
781.6024	0.0119
781.7752	0.043
781.9479	0.0142
782.1206	-0.0038
782.2933	0.0022
782.466	0.0145
782.6386	-0.0272
782.8113	0.0318
782.9839	0.0278
783.1565	0.0179
783.329	-0.0456
783.5016	-0.0074
783.6741	-0.0019
783.8466	0.0552
784.0191	0.0267
784.1916	0.025
784.3641	-0.0652
784.5365	0.0014
784.7089	-0.0018
784.8813	0.0437
785.0537	0.0124
785.2261	0.0014
785.3984	0.0006
785.5707	-0.0416
785.743	0.0351
785.9153	-0.0417
786.0876	-0.0359
786.2598	0.0029
786.432	0.0074
786.6042	0.019
786.7764	-0.0135
786.9486	-0.0276
787.1207	0.0468
787.2928	0.0786
787.4649	0.0058
787.637	0.0034
787.8091	-0.0099
787.9811	0.0343
788.1532	0.0332
788.3252	0.0338
788.4972	-0.0061
788.6691	0.0034
788.8411	-0.012
789.013	0.0152
789.1849	-0.0209
789.3568	0.0054
789.5287	0.0051
789.7005	-0.0484
789.8723	-0.0203
790.0442	-0.0299
790.2159	0.0286
790.3877	0.0733
790.5595	0.0539
790.7312	0.013
790.9029	0.0092
791.0746	0.0231
791.2463	-0.0506
791.4179	-0.0065
791.5896	0.0159
791.7612	0.0918
791.9328	-0.0496
792.1044	0.0543
792.2759	-0.016
792.4474	0.0464
792.619	-0.0266
792.7905	0.0125
792.9619	0.0766
793.1334	0.1106
793.3048	0.0855
793.4762	0.0205
793.6476	-0.0557
793.819	-0.0119
793.9904	0.032
794.1617	-0.0038
794.333	0.0081
794.5043	0.0458
794.6756	0.0304
794.8469	0.0441
795.0181	0.047
795.1893	0.0157
795.3605	0.0224
795.5317	-0.0119
795.7029	0.0348
795.874	0.0238
796.0452	0.0358
796.2163	0.0911
796.3873	0.0824
796.5584	0.0471
796.7294	0.0088
796.9005	0.0131
797.0715	-0.0034
797.2425	0.0793
797.4134	0.041
797.5844	0.0035
797.7553	-0.004
797.9262	0.0329
798.0971	0.004
798.2679	0.026
798.4388	0.0461
798.6096	0.0659
798.7804	0.0696
798.9512	0.0788
799.122	-0.0475
799.2927	0.0695
799.4635	-0.0331
799.6342	-0.0562
799.8049	0.0319
799.9755	0.0265
800.1462	0.0903
800.3168	0.0588
800.4874	-0.0625
800.658	0.0107
800.8286	0.0028
800.9991	0.0863
801.1696	-0.0297
801.3402	-0.0063
801.5106	-0.0927
801.6811	0.0505
801.8516	0.021
802.022	0.0073
802.1924	0.048
802.3628	0.0933
802.5332	0.0078
802.7035	0.1088
802.8739	0.0805
803.0442	-0.0239
803.2145	0.0047
803.3847	0.0123
803.555	0.0307
803.7252	0.0197
803.8954	-0.0454
804.0656	0.0013
804.2358	0.0034
804.4059	0.0419
804.5761	-0.0003
804.7462	-0.0003
804.9163	0.1413
805.0864	-0.0223
805.2564	-0.0242
805.4264	-0.0003
805.5965	0.0319
805.7665	0.0296
805.9364	0.0336
806.1064	0.044
806.2763	0.0476
806.4462	0.0415
806.6161	0.0317
806.786	0.011
806.9559	0.0157
807.1257	-0.0062
807.2955	0.0601
807.4653	0.0022
807.6351	0.0502
807.8048	-0.0292
807.9746	0.0111
808.1443	0.0093
808.314	0.0376
808.4837	0.0729
808.6533	0.0013
808.8229	0.067
808.9926	0.0094
809.1622	0.0153
809.3317	-0.0349
809.5013	-0.0182
809.6708	0.0582
809.8403	0.0095
810.0098	0.0197
810.1793	0.0124
810.3488	-0.0283
810.5182	0.106
810.6876	0.0174
810.857	0.0956
811.0264	-0.0502
811.1958	0.1818
811.3651	0.0263
811.5344	0.0425
811.7037	-0.0164
811.873	0.0684
812.0422	-0.0315
812.2115	-0.0296
812.3807	-0.1478
812.5499	-0.0763
812.7191	-0.0288
812.8882	0.0058
813.0574	-0.0257
813.2265	0.0545
813.3956	0.0254
813.5646	0.0603
813.7337	-0.0092
813.9027	-0.0339
814.0718	0.0273
814.2407	0.0194
814.4097	0.0327
814.5787	0.0612
814.7476	-0.0418
814.9165	0.1233
815.0854	-0.07
815.2543	0.0212
815.4232	0.1442
815.592	0.0175
815.7608	-0.0643
815.9296	0.0466
816.0984	0.1294
816.2671	-0.0315
816.4359	0.2625
816.6046	0.2158
816.7733	-0.0074
816.942	-0.011
817.1106	0.0967
817.2793	-0.0034
817.4479	0.0139
817.6165	0.0793
817.785	0.1122
817.9536	-0.0505
818.1221	0.0295
818.2906	-0.0936
818.4591	0.0224
818.6276	0.1639
818.7961	0.1409
818.9645	0.034
819.1329	0.1595
819.3013	-0.0282
819.4697	-0.0981
819.638	0.154
819.8064	0.0161
819.9747	-0.0005
820.143	-0.2052
820.3113	0.292
820.4795	0.1509
820.6477	0.0859
820.816	0.0422
820.9842	0.0445
821.1523	0.1341
821.3205	0.0311
821.4886	-0.0301
821.6567	-0.0215
821.8248	0.2123
821.9929	-0.1088
822.1609	-0.0657
822.329	-0.0291
822.497	0.1079
822.665	0.0435
822.833	-0.1066
823.0009	0.0029
823.1688	0.1802
823.3367	-0.2562
823.5046	0.0702
823.6725	-0.0837
823.8404	-0.1425
824.0082	0.0636
824.176	-0.0615
824.3438	-0.0507
824.5116	0.0191
824.6793	0.0966
824.847	0.2844
825.0147	0.0272
825.1824	0.2879
825.3501	0.3605
825.5177	-0.0006
825.6854	-0.0008
825.853	0.0136
826.0206	-0.0823
826.1881	0.1246
826.3557	0.0683
826.5232	0.0602
826.6907	-0.0277
826.8582	-0.0567
827.0257	0.5232
827.1931	0.068
827.3605	0.0352
827.528	-0.0854
827.6953	-0.1566
827.8627	0.0521
828.03	0.0021
828.1974	-0.017
828.3647	0.1202
828.532	0.0258
828.6992	0.0568
828.8665	-0.0899
829.0337	0.0427
829.2009	-0.1199
829.3681	0.2391
829.5352	-0.2258
829.7024	-0.022
829.8695	0.0559
830.0366	0.216
830.2037	0.1054
830.3707	-0.0303
830.5378	-0.133
830.7048	-0.1772
830.8718	0.0036
831.0388	-0.0829
831.2057	-0
831.3727	-0.0822
831.5396	-0.0882
831.7065	-0.4771
831.8734	0.038
832.0402	0.2455
832.2071	-0.6584
832.3739	0.0467
832.5407	-1.3041
832.7075	-0.4771
832.8742	-0
833.041	-0.0728
833.2077	0.7285
833.3744	0.0894
833.541	0.2744
833.7077	-0.0311
833.8743	0.0078
834.0409	0.1247
834.2075	0.2323
834.3741	-0.0899
834.5407	0.3712
834.7072	0.1233
834.8737	0.3127
835.0402	0.2123
835.2067	0.0784
835.3731	0.7375
835.5395	0.1579
835.706	0.041
835.8723	-0.0765
836.0387	0.0963
836.2051	-0.0686
836.3714	0.2501
836.5377	0.0491
836.704	0.5868
836.8703	-0.1975
837.0365	-0
837.2027	0.1488
837.3689	-0.0158
837.5351	0.3378
837.7013	-0.0017
837.8674	-0.6362
838.0335	-0.0211
838.1997	-0.0559
838.3657	0.2339
838.5318	-0.4885
838.6978	-0
838.8639	-0.2187
839.0299	0.2264
839.1958	0.3552
839.3618	-0.0863
839.5277	-0.0709
839.6937	0.4216
839.8596	0.009
840.0254	0.239
840.1913	-0.4944
840.3571	-0.2401
840.523	-0
840.6888	0.0243
840.8545	-0.3894
841.0203	0.5359
841.186	-0.1901
841.3517	-0.2896
841.5174	0.1333
841.6831	0.1354
841.8488	0.0427
842.0144	0.1082
842.18	0.2968
842.3456	-0.4535
842.5112	-0
842.6767	-0.0012
842.8422	0.0741
843.0077	0.1336
843.1732	-0.4555
843.3387	0.1373
843.5042	-0
843.6696	-0
843.835	-0.2724
844.0004	-0.2385
844.1657	-0
844.3311	0.3034
844.4964	-0.7967
844.6617	0.5511
844.827	0.056
844.9923	0.1687
845.1575	-0
845.3227	-0.0415
845.4879	0.1414
845.6531	0.1242
845.8183	0.3819
845.9834	-0
846.1485	0.1837
846.3136	-0.104
846.4787	-0
846.6438	0.0252
846.8088	-0
846.9738	-0.1681
847.1388	0.2475
847.3038	0.1291
847.4687	0.6135
847.6337	-0.2246
847.7986	-0.0163
847.9635	-0.2161
848.1284	0.8005
848.2932	0.1456
848.458	-0
848.6228	0.4578
848.7876	-0
848.9524	-0
849.1172	-1.7493
849.2819	-0
849.4466	0.1944
849.6113	0.8997
849.7759	-0
849.9406	-0.1513
850.1052	-0
850.2698	-0.1782
850.4344	-0.1902
850.599	-0
850.7635	-0
850.928	-0
851.0925	0.2603
851.257	-0.0523
851.4215	-0
851.5859	0.0058
851.7503	-0
851.9147	-0
852.0791	0.0939
852.2434	0.1179
852.4078	0.0342
852.5721	0.5392
852.7364	0.8593
852.9007	0.0644
853.0649	-0
853.2291	-0
853.3934	-0
853.5575	0.0467
853.7217	0.4311
853.8859	-0
854.05	-0.1982
854.2141	0.2469
854.3782	0.2697
854.5423	-0
854.7063	0.1947
854.8703	-0
855.0343	-0.1005
855.1983	0.1396
855.3623	-0.1248
855.5262	-0
855.6901	0.4612
855.854	-0
856.0179	-0.3209
856.1818	0.7072
856.3456	0.4395
856.5094	-0.4599
856.6732	0.4075
856.837	-0.7261
857.0008	-0
857.1645	-0
857.3282	-0.6338
857.4919	-0.0386
857.6556	-0
857.8192	0.6555
857.9828	0.6444
858.1465	0.2769
858.31	-0.2945
858.4736	-0.5761
858.6372	-0
858.8007	-0.0818
858.9642	0.3502
859.1277	1.5794
859.2911	-0.6692
859.4546	-0
859.618	0.5317
859.7814	-0.2945
859.9448	-0
860.1081	-0
860.2715	-1.5071
860.4348	0.3021
860.5981	0.7861
860.7614	-0.1854
860.9246	0.0109
861.0879	0.2908
861.2511	-0
861.4143	-0
861.5774	-0.23
861.7406	0.2641
861.9037	-0.6685
862.0668	-0
862.2299	0.0453
862.393	0.0615
862.556	-0
862.7191	-0.428
862.8821	0.0375
863.0451	-0
863.208	-0.2759
863.371	-0
863.5339	0.2431
863.6968	-0
863.8597	0.7533
864.0225	-0
864.1854	0.1187
864.3482	-0
864.511	-0.2156
864.6737	-0.0832
864.8365	0.9357
864.9992	-0
865.1619	-0.2506
865.3246	-0
865.4873	-0
865.65	-0
865.8126	-0
865.9752	-0
866.1378	0.1556
866.3004	0.2069
866.4629	-0
866.6254	-0
866.7879	0.2435
866.9504	-0
867.1129	-0.4568
867.2753	0.0823
867.4377	-0.0972
867.6001	-0.4022
867.7625	-0.4185
867.9249	1.1107
868.0872	-0.0025
868.2495	-0
868.4118	-0.0782
868.5741	-0.3393
868.7363	-0.6202
868.8986	-0.3813
869.0608	-0.2246
869.223	-0.3405
869.3851	-0
869.5473	0.3665
869.7094	-0
869.8715	-0
870.0336	0.0699
870.1957	-0
870.3577	0.6749
870.5197	-0.0644
870.6817	-0.7225
870.8437	-0.2403
871.0057	0.6971
871.1676	0.3164
871.3295	0.6937
871.4914	-0
871.6533	-0.6523
871.8151	0.3667
871.977	0.0872
872.1388	0.0427
872.3006	-0.551
872.4623	-0.9506
872.6241	0.2805
872.7858	-0.1352
872.9475	-0
873.1092	0.1454
873.2709	1.456
873.4325	-1.6097
873.5941	1.3358
873.7557	0.6417
873.9173	-0.0572
874.0789	0.6623
874.2404	-0
874.4019	0.0143
874.5634	-0
874.7249	-0
874.8863	-0.2398
875.0478	-0.0153
875.2092	2.0868
875.3706	0.6144
875.5319	-0
875.6933	-0
875.8546	-0.2118
876.0159	0.3094
876.1772	-0
876.3385	-0
876.4997	-0
876.6609	-0
876.8221	-0
876.9833	-0.3145
877.1445	0.4027
877.3056	-1.1647
877.4667	-0.8511
877.6278	-0
877.7889	0.2996
877.9499	0.24
878.111	-0.4965
878.272	0.516
878.433	-0.0547
878.5939	-0
878.7549	-0
878.9158	-0
879.0767	-0
879.2376	1.2247
879.3984	0.5186
879.5593	0.1854
879.7201	-0
879.8809	1.3446
880.0417	0.1497
880.2024	0.34
880.3632	0.1745
880.5239	0.3939
880.6846	-0
880.8452	-0.1317
881.0059	-0
881.1665	0.1453
881.3271	0.1691
881.4877	1.8203
881.6483	-0
881.8088	-0.9441
881.9693	-0
882.1298	-0
882.2903	-0
