Data from D4ACN5uM460nmA_Absorbance_13-05-41-014.txt Node
Date: Fri Feb 21 13:05:41 GMT 2025
User: LASERRRRR
Spectrometer: FLMT03099
Trigger mode: 0
Integration Time (sec): 1.500000E-2
Scans to average: 1
Electric dark correction enabled: true
Nonlinearity correction enabled: false
Boxcar width: 0
XAxis mode: Wavelengths
Number of Pixels in Spectrum: 3648
>>>>>Begin Spectral Data<<<<<
179.3399	-0.6161
179.5586	-0.6161
179.7771	-0.6161
179.9957	-0.2575
180.2143	-0
180.4329	-0
180.6514	-0
180.8699	-0.1136
181.0885	-0
181.307	-0.0853
181.5255	0.2221
181.744	-0
181.9625	0.3695
182.181	-0
182.3994	0.1593
182.6179	-0
182.8363	0.4688
183.0547	-0
183.2732	0.3167
183.4916	0.1047
183.71	0.3626
183.9284	0.244
184.1467	0.1434
184.3651	-0.1116
184.5835	0.2084
184.8018	0.1526
185.0201	0.1667
185.2385	0.2714
185.4568	0.4991
185.6751	0.2338
185.8934	0.2662
186.1117	-0.1563
186.3299	0.1574
186.5482	0.0791
186.7664	0.0453
186.9847	-0.1634
187.2029	0.3948
187.4211	-0.0099
187.6393	0.1942
187.8575	0.2582
188.0757	0.641
188.2939	-0.0067
188.512	0.2258
188.7302	0.1465
188.9483	0.357
189.1665	0.3373
189.3846	0.074
189.6027	0.2201
189.8208	0.096
190.0389	0.057
190.257	0.0628
190.475	-0.0431
190.6931	-0.0128
190.9111	-0.0031
191.1292	0.0329
191.3472	0.1284
191.5652	0.2472
191.7832	0.1245
192.0012	0.0306
192.2192	0.1245
192.4371	0.092
192.6551	0.12
192.873	0.1564
193.091	0.0799
193.3089	0.128
193.5268	0.4181
193.7447	0.1894
193.9626	0.2127
194.1805	0.1801
194.3984	0.2081
194.6162	0.243
194.8341	0.4023
195.0519	0.1894
195.2697	0.2599
195.4875	0.3072
195.7054	0.1723
195.9231	0.2194
196.1409	0.2805
196.3587	0.3981
196.5765	0.3175
196.7942	0.3308
197.012	0.3126
197.2297	0.3144
197.4474	0.3631
197.6651	0.3596
197.8828	0.2996
198.1005	0.4055
198.3182	0.3395
198.5358	0.412
198.7535	0.392
198.9711	0.4166
199.1888	0.3459
199.4064	0.3911
199.624	0.3778
199.8416	0.375
200.0592	0.3929
200.2767	0.4173
200.4943	0.4334
200.7119	0.4049
200.9294	0.4219
201.1469	0.3971
201.3645	0.4788
201.582	0.3829
201.7995	0.4017
202.017	0.4031
202.2344	0.4334
202.4519	0.4249
202.6694	0.3837
202.8868	0.3818
203.1042	0.4284
203.3217	0.3839
203.5391	0.4613
203.7565	0.3673
203.9739	0.373
204.1913	0.3308
204.4086	0.3393
204.626	0.3608
204.8433	0.3595
205.0607	0.343
205.278	0.3608
205.4953	0.3454
205.7126	0.3395
205.9299	0.3429
206.1472	0.3276
206.3644	0.3517
206.5817	0.3221
206.7989	0.3106
207.0162	0.3091
207.2334	0.3421
207.4506	0.3018
207.6678	0.29
207.885	0.3253
208.1022	0.3321
208.3194	0.2734
208.5365	0.2844
208.7537	0.2822
208.9708	0.331
209.1879	0.3102
209.405	0.2942
209.6222	0.2807
209.8392	0.3059
210.0563	0.2582
210.2734	0.2652
210.4905	0.2638
210.7075	0.2961
210.9245	0.2695
211.1416	0.2712
211.3586	0.2467
211.5756	0.2669
211.7926	0.2757
212.0096	0.2695
212.2265	0.2642
212.4435	0.251
212.6604	0.2539
212.8774	0.2531
213.0943	0.2679
213.3112	0.2525
213.5281	0.2458
213.745	0.2596
213.9619	0.2478
214.1788	0.2591
214.3956	0.2622
214.6125	0.2674
214.8293	0.2513
215.0461	0.2577
215.2629	0.2625
215.4798	0.2525
215.6965	0.2336
215.9133	0.2431
216.1301	0.235
216.3469	0.2543
216.5636	0.2567
216.7803	0.2478
216.9971	0.2532
217.2138	0.2503
217.4305	0.2562
217.6472	0.2596
217.8639	0.2372
218.0805	0.251
218.2972	0.2637
218.5138	0.2525
218.7305	0.2572
218.9471	0.2464
219.1637	0.2842
219.3803	0.2702
219.5969	0.2593
219.8135	0.2641
220.0301	0.2704
220.2466	0.2419
220.4632	0.256
220.6797	0.2568
220.8962	0.2752
221.1127	0.2725
221.3292	0.2812
221.5457	0.2689
221.7622	0.2651
221.9787	0.282
222.1951	0.2829
222.4116	0.2831
222.628	0.2844
222.8444	0.2886
223.0608	0.2694
223.2772	0.288
223.4936	0.2782
223.71	0.279
223.9264	0.2964
224.1427	0.2802
224.3591	0.2893
224.5754	0.2959
224.7917	0.2999
225.008	0.2982
225.2243	0.31
225.4406	0.3003
225.6569	0.298
225.8732	0.3209
226.0894	0.3063
226.3057	0.3069
226.5219	0.3206
226.7381	0.3132
226.9543	0.3199
227.1705	0.3159
227.3867	0.3288
227.6029	0.3248
227.8191	0.3332
228.0352	0.3436
228.2513	0.3395
228.4675	0.3411
228.6836	0.3366
228.8997	0.3436
229.1158	0.3559
229.3319	0.3681
229.548	0.3673
229.764	0.3562
229.9801	0.3802
230.1961	0.3804
230.4121	0.3831
230.6282	0.3862
230.8442	0.3896
231.0602	0.3996
231.2761	0.3856
231.4921	0.3942
231.7081	0.3914
231.924	0.3989
232.14	0.408
232.3559	0.4079
232.5718	0.4062
232.7877	0.4025
233.0036	0.4108
233.2195	0.4042
233.4353	0.4205
233.6512	0.4217
233.867	0.4128
234.0829	0.4231
234.2987	0.4193
234.5145	0.4357
234.7303	0.4385
234.9461	0.4398
235.1619	0.4401
235.3776	0.4288
235.5934	0.4374
235.8091	0.4431
236.0249	0.4466
236.2406	0.4446
236.4563	0.4455
236.672	0.45
236.8877	0.4453
237.1034	0.4427
237.319	0.4633
237.5347	0.4349
237.7503	0.4474
237.966	0.4508
238.1816	0.4623
238.3972	0.4541
238.6128	0.4628
238.8284	0.4579
239.0439	0.4744
239.2595	0.4646
239.475	0.4568
239.6906	0.4644
239.9061	0.4568
240.1216	0.458
240.3371	0.4547
240.5526	0.4566
240.7681	0.4613
240.9836	0.4562
241.199	0.4479
241.4145	0.4505
241.6299	0.4413
241.8453	0.4316
242.0607	0.433
242.2761	0.4324
242.4915	0.4291
242.7069	0.4151
242.9223	0.4207
243.1376	0.4036
243.353	0.396
243.5683	0.3966
243.7836	0.3853
243.9989	0.3747
244.2142	0.3659
244.4295	0.3613
244.6448	0.3574
244.86	0.3495
245.0753	0.3357
245.2905	0.3452
245.5057	0.3358
245.721	0.3273
245.9362	0.3255
246.1514	0.3226
246.3665	0.3092
246.5817	0.2997
246.7969	0.2898
247.012	0.2892
247.2271	0.2925
247.4423	0.278
247.6574	0.2841
247.8725	0.2687
248.0876	0.2704
248.3026	0.2674
248.5177	0.2526
248.7328	0.2449
248.9478	0.2526
249.1628	0.2429
249.3779	0.2371
249.5929	0.2325
249.8079	0.2337
250.0228	0.231
250.2378	0.2281
250.4528	0.227
250.6677	0.2215
250.8827	0.2191
251.0976	0.2155
251.3125	0.2191
251.5274	0.2127
251.7423	0.2102
251.9572	0.2081
252.172	0.207
252.3869	0.2083
252.6017	0.2008
252.8166	0.1969
253.0314	0.1948
253.2462	0.1919
253.461	0.1967
253.6758	0.193
253.8906	0.1941
254.1053	0.1935
254.3201	0.1926
254.5348	0.1847
254.7496	0.1871
254.9643	0.1931
255.179	0.1837
255.3937	0.191
255.6083	0.1905
255.823	0.1845
256.0377	0.1842
256.2523	0.1828
256.467	0.1911
256.6816	0.1815
256.8962	0.1862
257.1108	0.1856
257.3254	0.1792
257.54	0.1759
257.7545	0.1829
257.9691	0.1784
258.1836	0.1743
258.3981	0.1745
258.6127	0.1737
258.8272	0.1781
259.0417	0.1747
259.2561	0.1728
259.4706	0.1748
259.6851	0.1704
259.8995	0.1725
260.114	0.1746
260.3284	0.17
260.5428	0.1727
260.7572	0.1754
260.9716	0.1869
261.186	0.1748
261.4003	0.1714
261.6147	0.1707
261.829	0.173
262.0433	0.1758
262.2577	0.1708
262.472	0.1764
262.6863	0.18
262.9005	0.1765
263.1148	0.1733
263.3291	0.1717
263.5433	0.173
263.7576	0.1766
263.9718	0.1739
264.186	0.178
264.4002	0.1781
264.6144	0.1843
264.8286	0.1724
265.0427	0.1745
265.2569	0.1782
265.471	0.1674
265.6851	0.1792
265.8993	0.1717
266.1134	0.1819
266.3275	0.175
266.5415	0.1746
266.7556	0.1754
266.9697	0.1797
267.1837	0.1782
267.3978	0.1757
267.6118	0.177
267.8258	0.175
268.0398	0.1782
268.2538	0.1784
268.4677	0.1667
268.6817	0.1751
268.8957	0.1672
269.1096	0.1606
269.3235	0.175
269.5374	0.1676
269.7514	0.1736
269.9652	0.1676
270.1791	0.1714
270.393	0.1725
270.6068	0.1686
270.8207	0.1664
271.0345	0.1655
271.2483	0.1608
271.4622	0.1672
271.676	0.1633
271.8897	0.1672
272.1035	0.1705
272.3173	0.1611
272.531	0.1609
272.7448	0.1628
272.9585	0.1586
273.1722	0.1603
273.3859	0.159
273.5996	0.1589
273.8133	0.1668
274.0269	0.1645
274.2406	0.1639
274.4542	0.1633
274.6679	0.1718
274.8815	0.1704
275.0951	0.1785
275.3087	0.1673
275.5223	0.1668
275.7358	0.1722
275.9494	0.1721
276.1629	0.167
276.3765	0.164
276.59	0.165
276.8035	0.1684
277.017	0.1709
277.2305	0.1721
277.444	0.1692
277.6574	0.1709
277.8709	0.1786
278.0843	0.1686
278.2978	0.1737
278.5112	0.1677
278.7246	0.1657
278.938	0.1704
279.1513	0.1745
279.3647	0.1687
279.5781	0.1687
279.7914	0.1744
280.0047	0.1735
280.2181	0.1706
280.4314	0.173
280.6447	0.1798
280.8579	0.1692
281.0712	0.1764
281.2845	0.1791
281.4977	0.1714
281.711	0.1771
281.9242	0.1799
282.1374	0.1763
282.3506	0.1763
282.5638	0.1716
282.7769	0.1778
282.9901	0.1767
283.2033	0.1808
283.4164	0.1784
283.6295	0.1776
283.8426	0.1734
284.0557	0.1794
284.2688	0.1765
284.4819	0.1784
284.695	0.1848
284.908	0.1808
285.1211	0.1866
285.3341	0.1806
285.5471	0.1811
285.7601	0.1793
285.9731	0.1864
286.1861	0.1843
286.3991	0.1885
286.612	0.1807
286.825	0.1909
287.0379	0.1805
287.2508	0.1868
287.4637	0.1847
287.6766	0.1862
287.8895	0.1861
288.1024	0.1924
288.3152	0.1887
288.5281	0.1844
288.7409	0.1961
288.9538	0.1869
289.1666	0.1912
289.3794	0.1895
289.5922	0.1898
289.8049	0.1941
290.0177	0.1898
290.2304	0.1929
290.4432	0.1903
290.6559	0.1882
290.8686	0.1935
291.0813	0.1917
291.294	0.1943
291.5067	0.1917
291.7194	0.1919
291.932	0.1887
292.1447	0.1929
292.3573	0.1948
292.5699	0.1975
292.7825	0.1963
292.9951	0.1938
293.2077	0.1917
293.4203	0.1954
293.6328	0.1923
293.8454	0.1964
294.0579	0.1899
294.2704	0.196
294.4829	0.1976
294.6954	0.1979
294.9079	0.1929
295.1204	0.1872
295.3328	0.1994
295.5453	0.1947
295.7577	0.1927
295.9701	0.192
296.1825	0.1998
296.3949	0.1889
296.6073	0.1895
296.8197	0.1913
297.0321	0.1923
297.2444	0.1909
297.4567	0.1948
297.6691	0.1937
297.8814	0.191
298.0937	0.1894
298.306	0.19
298.5182	0.1956
298.7305	0.1925
298.9428	0.1956
299.155	0.1876
299.3672	0.1932
299.5794	0.1908
299.7916	0.1948
300.0038	0.1964
300.216	0.1905
300.4282	0.1918
300.6403	0.1984
300.8525	0.1979
301.0646	0.1987
301.2767	0.1894
301.4888	0.193
301.7009	0.1926
301.913	0.1958
302.125	0.188
302.3371	0.1918
302.5491	0.1964
302.7612	0.2033
302.9732	0.1946
303.1852	0.194
303.3972	0.196
303.6092	0.1985
303.8211	0.1909
304.0331	0.1929
304.245	0.1934
304.457	0.1891
304.6689	0.189
304.8808	0.1808
305.0927	0.1885
305.3046	0.183
305.5164	0.1828
305.7283	0.186
305.9401	0.1763
306.152	0.1832
306.3638	0.1781
306.5756	0.1812
306.7874	0.1776
306.9992	0.1792
307.2109	0.1685
307.4227	0.1713
307.6344	0.1721
307.8462	0.1681
308.0579	0.1656
308.2696	0.1664
308.4813	0.1625
308.693	0.1635
308.9046	0.1615
309.1163	0.1565
309.328	0.1645
309.5396	0.1523
309.7512	0.1515
309.9628	0.15
310.1744	0.1537
310.386	0.1471
310.5976	0.1426
310.8091	0.1493
311.0207	0.1436
311.2322	0.1368
311.4437	0.1449
311.6552	0.1429
311.8667	0.1404
312.0782	0.1401
312.2897	0.1402
312.5012	0.1351
312.7126	0.1381
312.924	0.1342
313.1355	0.1311
313.3469	0.1311
313.5583	0.1321
313.7696	0.1273
313.981	0.1332
314.1924	0.1278
314.4037	0.1266
314.6151	0.1222
314.8264	0.1212
315.0377	0.1229
315.249	0.1303
315.4603	0.1276
315.6716	0.1237
315.8828	0.1211
316.0941	0.1219
316.3053	0.1207
316.5165	0.1254
316.7277	0.1206
316.9389	0.1245
317.1501	0.1165
317.3613	0.1208
317.5724	0.12
317.7836	0.1095
317.9947	0.1181
318.2058	0.1195
318.417	0.1178
318.6281	0.1165
318.8391	0.1177
319.0502	0.1236
319.2613	0.1181
319.4723	0.1136
319.6834	0.1262
319.8944	0.1202
320.1054	0.1215
320.3164	0.1192
320.5274	0.1227
320.7383	0.12
320.9493	0.119
321.1602	0.1154
321.3712	0.1125
321.5821	0.117
321.793	0.1228
322.0039	0.1205
322.2148	0.1155
322.4257	0.1158
322.6365	0.1184
322.8474	0.1214
323.0582	0.1207
323.269	0.1192
323.4798	0.1207
323.6906	0.1137
323.9014	0.1187
324.1122	0.1157
324.3229	0.127
324.5337	0.1234
324.7444	0.1171
324.9551	0.122
325.1658	0.123
325.3765	0.1183
325.5872	0.1245
325.7979	0.1159
326.0085	0.1207
326.2192	0.1194
326.4298	0.1236
326.6404	0.1276
326.851	0.1193
327.0616	0.122
327.2722	0.1265
327.4828	0.121
327.6933	0.1316
327.9039	0.1207
328.1144	0.1251
328.3249	0.1322
328.5354	0.125
328.7459	0.1262
328.9564	0.1215
329.1669	0.1275
329.3773	0.1259
329.5878	0.1279
329.7982	0.1262
330.0086	0.1215
330.219	0.1259
330.4294	0.1245
330.6398	0.1265
330.8502	0.1313
331.0605	0.1246
331.2708	0.1229
331.4812	0.1276
331.6915	0.1282
331.9018	0.1253
332.1121	0.1303
332.3224	0.13
332.5326	0.1244
332.7429	0.126
332.9531	0.1279
333.1633	0.1254
333.3735	0.1254
333.5837	0.129
333.7939	0.1325
334.0041	0.1281
334.2143	0.1246
334.4244	0.1386
334.6346	0.1301
334.8447	0.1304
335.0548	0.1358
335.2649	0.1291
335.475	0.1336
335.685	0.1321
335.8951	0.1289
336.1051	0.1357
336.3152	0.136
336.5252	0.1371
336.7352	0.1305
336.9452	0.1343
337.1552	0.1357
337.3652	0.1305
337.5751	0.1311
337.7851	0.1314
337.995	0.1336
338.2049	0.1383
338.4148	0.1333
338.6247	0.1383
338.8346	0.1369
339.0445	0.1372
339.2543	0.1332
339.4642	0.133
339.674	0.136
339.8838	0.1414
340.0936	0.1396
340.3034	0.1367
340.5132	0.1344
340.7229	0.1426
340.9327	0.1431
341.1424	0.1413
341.3522	0.1342
341.5619	0.1448
341.7716	0.1443
341.9813	0.1475
342.1909	0.1495
342.4006	0.1421
342.6102	0.1452
342.8199	0.1375
343.0295	0.143
343.2391	0.1464
343.4487	0.1488
343.6583	0.1524
343.8679	0.1482
344.0774	0.1476
344.287	0.1484
344.4965	0.1579
344.706	0.1484
344.9155	0.1448
345.125	0.1473
345.3345	0.1538
345.544	0.1576
345.7534	0.1535
345.9629	0.1492
346.1723	0.1564
346.3817	0.1515
346.5911	0.1597
346.8005	0.1589
347.0099	0.1573
347.2193	0.1614
347.4286	0.1626
347.638	0.1606
347.8473	0.1598
348.0566	0.1636
348.2659	0.1577
348.4752	0.1646
348.6845	0.1601
348.8937	0.1634
349.103	0.162
349.3122	0.1611
349.5214	0.1674
349.7306	0.1723
349.9398	0.1645
350.149	0.1594
350.3582	0.1685
350.5674	0.1751
350.7765	0.1666
350.9856	0.1642
351.1948	0.1757
351.4039	0.1749
351.613	0.1733
351.822	0.1771
352.0311	0.1679
352.2402	0.174
352.4492	0.1778
352.6582	0.1777
352.8672	0.1727
353.0762	0.1753
353.2852	0.1828
353.4942	0.18
353.7032	0.1735
353.9121	0.1799
354.1211	0.187
354.33	0.18
354.5389	0.1832
354.7478	0.1744
354.9567	0.1786
355.1655	0.1844
355.3744	0.1809
355.5833	0.1815
355.7921	0.1865
356.0009	0.1854
356.2097	0.1822
356.4185	0.1868
356.6273	0.1896
356.8361	0.1913
357.0448	0.1824
357.2536	0.1871
357.4623	0.1917
357.671	0.1958
357.8797	0.1957
358.0884	0.1845
358.2971	0.1913
358.5057	0.193
358.7144	0.1936
358.923	0.1955
359.1316	0.201
359.3402	0.1964
359.5488	0.198
359.7574	0.2068
359.966	0.197
360.1746	0.1976
360.3831	0.2066
360.5916	0.2113
360.8002	0.2083
361.0087	0.2013
361.2172	0.2149
361.4256	0.2076
361.6341	0.2105
361.8426	0.2155
362.051	0.209
362.2594	0.2085
362.4678	0.2189
362.6762	0.2225
362.8846	0.2186
363.093	0.2179
363.3014	0.2204
363.5097	0.2249
363.718	0.2265
363.9264	0.2241
364.1347	0.223
364.343	0.2236
364.5513	0.2223
364.7595	0.2369
364.9678	0.2239
365.176	0.2306
365.3842	0.2291
365.5925	0.2314
365.8007	0.2336
366.0089	0.2373
366.217	0.23
366.4252	0.2334
366.6333	0.2409
366.8415	0.2403
367.0496	0.2399
367.2577	0.2376
367.4658	0.2383
367.6739	0.236
367.882	0.2448
368.09	0.2412
368.2981	0.2449
368.5061	0.2458
368.7141	0.237
368.9221	0.256
369.1301	0.2525
369.3381	0.2522
369.5461	0.2498
369.754	0.2485
369.962	0.255
370.1699	0.2596
370.3778	0.26
370.5857	0.2531
370.7936	0.2617
371.0015	0.2598
371.2093	0.2591
371.4172	0.2561
371.625	0.26
371.8328	0.262
372.0406	0.2719
372.2484	0.2606
372.4562	0.2644
372.664	0.274
372.8717	0.2631
373.0795	0.2759
373.2872	0.2802
373.4949	0.2731
373.7026	0.2621
373.9103	0.2603
374.118	0.2713
374.3256	0.2766
374.5333	0.2754
374.7409	0.2707
374.9485	0.2763
375.1561	0.2758
375.3637	0.2659
375.5713	0.2809
375.7789	0.274
375.9864	0.2806
376.194	0.2872
376.4015	0.2797
376.609	0.2874
376.8165	0.2838
377.024	0.2888
377.2315	0.2889
377.4389	0.2792
377.6464	0.2999
377.8538	0.2936
378.0612	0.2875
378.2686	0.2914
378.476	0.2894
378.6834	0.2857
378.8908	0.2889
379.0981	0.2908
379.3055	0.2892
379.5128	0.2845
379.7201	0.2903
379.9274	0.2976
380.1347	0.2858
380.342	0.305
380.5492	0.2949
380.7565	0.3033
380.9637	0.3056
381.1709	0.2934
381.3781	0.303
381.5853	0.3015
381.7925	0.2978
381.9997	0.3129
382.2068	0.302
382.4139	0.3084
382.6211	0.3058
382.8282	0.3099
383.0353	0.3057
383.2424	0.3068
383.4494	0.3039
383.6565	0.3083
383.8635	0.3021
384.0706	0.3129
384.2776	0.3086
384.4846	0.3203
384.6916	0.3068
384.8986	0.3107
385.1055	0.315
385.3125	0.3206
385.5194	0.3113
385.7263	0.3056
385.9333	0.3118
386.1402	0.3167
386.347	0.3081
386.5539	0.3135
386.7608	0.3057
386.9676	0.3182
387.1744	0.3021
387.3813	0.3174
387.5881	0.3017
387.7948	0.3104
388.0016	0.32
388.2084	0.3152
388.4151	0.3105
388.6219	0.308
388.8286	0.3145
389.0353	0.3109
389.242	0.3129
389.4487	0.3042
389.6553	0.304
389.862	0.2998
390.0686	0.3088
390.2753	0.3057
390.4819	0.3055
390.6885	0.3041
390.8951	0.3135
391.1016	0.3015
391.3082	0.3018
391.5147	0.293
391.7213	0.304
391.9278	0.2931
392.1343	0.2933
392.3408	0.2981
392.5473	0.2921
392.7537	0.2884
392.9602	0.2887
393.1666	0.2926
393.373	0.2854
393.5794	0.2854
393.7858	0.2805
393.9922	0.294
394.1986	0.279
394.4049	0.2814
394.6113	0.2886
394.8176	0.2879
395.0239	0.2796
395.2302	0.282
395.4365	0.2874
395.6428	0.2753
395.8491	0.2736
396.0553	0.2738
396.2615	0.2805
396.4678	0.2768
396.674	0.2718
396.8802	0.2667
397.0863	0.2709
397.2925	0.2713
397.4987	0.2667
397.7048	0.2758
397.9109	0.2614
398.117	0.2684
398.3231	0.2683
398.5292	0.2565
398.7353	0.2714
398.9413	0.2646
399.1474	0.2652
399.3534	0.2704
399.5594	0.2649
399.7654	0.2563
399.9714	0.2723
400.1774	0.2581
400.3833	0.2643
400.5893	0.2699
400.7952	0.2686
401.0011	0.2652
401.207	0.2729
401.4129	0.2617
401.6188	0.2654
401.8247	0.2669
402.0305	0.2705
402.2364	0.2628
402.4422	0.2639
402.648	0.2677
402.8538	0.2634
403.0596	0.2603
403.2654	0.255
403.4711	0.2549
403.6768	0.2623
403.8826	0.2622
404.0883	0.2684
404.294	0.2612
404.4997	0.268
404.7054	0.2705
404.911	0.2535
405.1167	0.2748
405.3223	0.2567
405.5279	0.2622
405.7335	0.2642
405.9391	0.2561
406.1447	0.2581
406.3502	0.2584
406.5558	0.2633
406.7613	0.2594
406.9668	0.2594
407.1724	0.2618
407.3778	0.2718
407.5833	0.2574
407.7888	0.262
407.9942	0.2697
408.1997	0.2693
408.4051	0.2661
408.6105	0.2679
408.8159	0.2588
409.0213	0.2661
409.2267	0.2646
409.432	0.259
409.6374	0.2631
409.8427	0.2692
410.048	0.2694
410.2533	0.26
410.4586	0.2572
410.6639	0.275
410.8691	0.2586
411.0744	0.2654
411.2796	0.2623
411.4848	0.2638
411.69	0.2453
411.8952	0.2588
412.1004	0.2558
412.3056	0.2613
412.5107	0.264
412.7158	0.2692
412.921	0.2621
413.1261	0.26
413.3312	0.2672
413.5362	0.2722
413.7413	0.272
413.9464	0.2586
414.1514	0.2643
414.3564	0.2592
414.5614	0.2635
414.7664	0.2602
414.9714	0.2638
415.1764	0.2547
415.3813	0.2637
415.5863	0.265
415.7912	0.2607
415.9961	0.2532
416.201	0.2684
416.4059	0.2513
416.6108	0.2558
416.8156	0.254
417.0205	0.2631
417.2253	0.2563
417.4301	0.2668
417.6349	0.2584
417.8397	0.2561
418.0445	0.2448
418.2492	0.2506
418.454	0.2509
418.6587	0.2518
418.8634	0.2481
419.0681	0.2653
419.2728	0.2521
419.4775	0.2592
419.6822	0.2455
419.8868	0.2537
420.0915	0.2404
420.2961	0.2478
420.5007	0.2504
420.7053	0.2458
420.9099	0.2559
421.1144	0.246
421.319	0.2391
421.5235	0.2376
421.728	0.2556
421.9325	0.2434
422.137	0.2477
422.3415	0.2439
422.546	0.2258
422.7504	0.2391
422.9549	0.2382
423.1593	0.234
423.3637	0.2339
423.5681	0.2417
423.7725	0.2361
423.9769	0.2417
424.1812	0.2273
424.3856	0.2286
424.5899	0.2334
424.7942	0.2287
424.9985	0.2368
425.2028	0.2399
425.4071	0.2371
425.6113	0.2303
425.8156	0.2151
426.0198	0.2291
426.224	0.2263
426.4282	0.2146
426.6324	0.2201
426.8366	0.2228
427.0407	0.216
427.2449	0.2092
427.449	0.2172
427.6531	0.2258
427.8572	0.2196
428.0613	0.2129
428.2654	0.2167
428.4694	0.2046
428.6735	0.2009
428.8775	0.2123
429.0815	0.2002
429.2855	0.211
429.4895	0.2046
429.6935	0.1897
429.8975	0.1905
430.1014	0.2013
430.3053	0.1949
430.5093	0.1924
430.7132	0.1903
430.9171	0.1847
431.1209	0.1882
431.3248	0.186
431.5286	0.177
431.7325	0.1873
431.9363	0.1763
432.1401	0.1776
432.3439	0.1835
432.5477	0.1795
432.7514	0.1645
432.9552	0.1727
433.1589	0.1767
433.3627	0.1772
433.5664	0.168
433.7701	0.1738
433.9737	0.1731
434.1774	0.1736
434.3811	0.1603
434.5847	0.1584
434.7883	0.1519
434.9919	0.1608
435.1955	0.1599
435.3991	0.1559
435.6027	0.1561
435.8062	0.1617
436.0098	0.1527
436.2133	0.1506
436.4168	0.1488
436.6203	0.1367
436.8238	0.1393
437.0272	0.1384
437.2307	0.139
437.4341	0.1372
437.6375	0.1345
437.841	0.1312
438.0443	0.1325
438.2477	0.1239
438.4511	0.1244
438.6545	0.1291
438.8578	0.1286
439.0611	0.1377
439.2644	0.1253
439.4677	0.1247
439.671	0.1194
439.8743	0.1231
440.0775	0.1218
440.2808	0.1174
440.484	0.1115
440.6872	0.117
440.8904	0.1026
441.0936	0.1161
441.2967	0.1032
441.4999	0.1002
441.703	0.0969
441.9062	0.1018
442.1093	0.1115
442.3124	0.0977
442.5155	0.1004
442.7185	0.0948
442.9216	0.0883
443.1246	0.0939
443.3276	0.0921
443.5307	0.0817
443.7337	0.0941
443.9366	0.0818
444.1396	0.0755
444.3426	0.0807
444.5455	0.0814
444.7484	0.0814
444.9513	0.0716
445.1542	0.0848
445.3571	0.0818
445.56	0.0669
445.7628	0.0739
445.9657	0.0649
446.1685	0.0707
446.3713	0.0775
446.5741	0.0712
446.7769	0.08
446.9797	0.0662
447.1824	0.0644
447.3852	0.0542
447.5879	0.0671
447.7906	0.0583
447.9933	0.0605
448.196	0.0545
448.3986	0.0512
448.6013	0.0525
448.8039	0.0645
449.0066	0.058
449.2092	0.0652
449.4118	0.0527
449.6143	0.0621
449.8169	0.0567
450.0195	0.0447
450.222	0.0479
450.4245	0.0552
450.627	0.0386
450.8295	0.0402
451.032	0.0396
451.2345	0.0387
451.4369	0.0442
451.6394	0.0445
451.8418	0.0395
452.0442	0.0437
452.2466	0.0325
452.449	0.044
452.6513	0.0337
452.8537	0.0253
453.056	0.0335
453.2583	0.0318
453.4607	0.0315
453.663	0.0419
453.8652	0.0319
454.0675	0.0449
454.2697	0.0344
454.472	0.0233
454.6742	0.0285
454.8764	0.0394
455.0786	0.0193
455.2808	0.0219
455.4829	0.0376
455.6851	0.0282
455.8872	0.0192
456.0893	0.0357
456.2915	0.0219
456.4935	0.0309
456.6956	0.0236
456.8977	0.027
457.0997	0.0299
457.3018	0.0188
457.5038	0.0255
457.7058	0.0208
457.9078	0.0255
458.1098	0.0247
458.3117	0.0287
458.5137	0.0112
458.7156	0.0242
458.9175	0.018
459.1194	0.0201
459.3213	0.0217
459.5232	0.0233
459.725	0.0243
459.9269	0.0165
460.1287	0.0114
460.3305	0.0147
460.5323	0.0205
460.7341	0.0237
460.9359	0.0153
461.1376	0.0167
461.3394	0.022
461.5411	0.0276
461.7428	0.0209
461.9445	0.0119
462.1462	0.0209
462.3479	0.0123
462.5495	0.0286
462.7512	0.0158
462.9528	0.0128
463.1544	0.0088
463.356	0.0107
463.5576	0.0227
463.7592	0.0143
463.9607	0.006
464.1623	0.0131
464.3638	0.0039
464.5653	0.0131
464.7668	0.0239
464.9683	0.019
465.1697	0.0121
465.3712	-0.0008
465.5726	0.0106
465.7741	0.0147
465.9755	0.0136
466.1769	0.0113
466.3782	0.0064
466.5796	0.0142
466.7809	0.0122
466.9823	0.002
467.1836	0.0071
467.3849	0.0109
467.5862	0.0005
467.7875	0.0087
467.9887	0.0142
468.19	0.0067
468.3912	0.0162
468.5924	0.009
468.7936	0.0098
468.9948	0.0127
469.196	0.0026
469.3972	-0.0019
469.5983	0.0033
469.7994	0.009
470.0006	0.0034
470.2017	0.0114
470.4027	0.0178
470.6038	0.0061
470.8049	0.012
471.0059	0.0164
471.2069	0.0082
471.408	0.0083
471.6089	0.0158
471.8099	0.0059
472.0109	0.001
472.2119	0.0163
472.4128	0.005
472.6137	0.01
472.8146	0.0156
473.0155	0.0057
473.2164	0.0061
473.4173	-0.0037
473.6181	0.0017
473.819	-0.001
474.0198	0.0002
474.2206	-0.0008
474.4214	0.0102
474.6222	0.0002
474.8229	0.0002
475.0237	0.0137
475.2244	0.0088
475.4251	0.0106
475.6258	-0.0099
475.8265	0.009
476.0272	-0.0034
476.2278	0.0061
476.4285	-0.0011
476.6291	0.0054
476.8297	0.0056
477.0303	0.0003
477.2309	0.0082
477.4315	0.0096
477.632	0.0023
477.8326	0.0074
478.0331	0.0129
478.2336	-0.0002
478.4341	0.0101
478.6346	0.0066
478.8351	-0.0004
479.0355	0.0147
479.236	0.0097
479.4364	0.0079
479.6368	0.0047
479.8372	0.0065
480.0376	0.0054
480.2379	0.0065
480.4383	0.0086
480.6386	0.0045
480.8389	0.0066
481.0392	0.0095
481.2395	0.0099
481.4398	0.0038
481.6401	0.0049
481.8403	0.0053
482.0405	-0.0032
482.2408	0.001
482.441	0.0075
482.6411	-0.002
482.8413	0.0028
483.0415	0.0136
483.2416	-0.0002
483.4417	0.0026
483.6419	-0.0008
483.8419	0.0047
484.042	0.0085
484.2421	-0.0028
484.4422	0.0009
484.6422	0.0035
484.8422	0.0058
485.0422	0.0074
485.2422	-0.0005
485.4422	0.0058
485.6422	0.0032
485.8421	0.0015
486.042	0.0089
486.242	0.0016
486.4419	0.0016
486.6417	-0.0017
486.8416	0.001
487.0415	-0.0002
487.2413	-0.0032
487.4411	0.0038
487.641	0.0045
487.8408	0.0058
488.0405	0.0039
488.2403	-0.0005
488.4401	0.0018
488.6398	0.0101
488.8395	0.0041
489.0392	0.0036
489.2389	0.0088
489.4386	0.0027
489.6383	0.0092
489.8379	-0.007
490.0376	0.0014
490.2372	-0.0005
490.4368	0.001
490.6364	-0.0015
490.836	0.005
491.0355	0.0027
491.2351	0.0036
491.4346	0.0035
491.6341	0.0008
491.8336	0.0097
492.0331	0.0019
492.2326	0.0086
492.432	0.0045
492.6315	0.0064
492.8309	0.0092
493.0303	0.0057
493.2297	0.0062
493.4291	0.0067
493.6284	0.0062
493.8278	-0.0007
494.0271	0.0038
494.2264	-0.0054
494.4257	0.0065
494.625	0.0052
494.8243	-0.0028
495.0236	0.0045
495.2228	0.0125
495.422	0.005
495.6213	0.0008
495.8205	0.0052
496.0196	0.0119
496.2188	0.0039
496.418	-0.002
496.6171	0.0001
496.8162	0.0045
497.0153	0.0024
497.2144	0.0002
497.4135	0.0048
497.6126	0.0021
497.8116	-0.0056
498.0107	0.0045
498.2097	0.0091
498.4087	0.0028
498.6077	-0.0082
498.8067	0.008
499.0056	0.008
499.2046	0.0109
499.4035	0.0038
499.6024	-0.0068
499.8013	0.0143
500.0002	0.0043
500.199	-0.0005
500.3979	0.0007
500.5967	0.0026
500.7956	0.0068
500.9944	0.0082
501.1932	0.0127
501.3919	0.0052
501.5907	0.0114
501.7895	0.0021
501.9882	0.0063
502.1869	0.0095
502.3856	0.0041
502.5843	0.0034
502.783	-0.0026
502.9816	0.0151
503.1803	-0.0042
503.3789	0.0124
503.5775	0.0071
503.7761	-0.0015
503.9747	0.0077
504.1732	-0.011
504.3718	0.0121
504.5703	0.0018
504.7689	0.0013
504.9674	0.0017
505.1658	0.0059
505.3643	0.0034
505.5628	0.0121
505.7612	0.0121
505.9597	-0.0012
506.1581	0.0075
506.3565	-0.002
506.5549	0.0067
506.7532	-0.0027
506.9516	0.0104
507.1499	0.0011
507.3482	0.0069
507.5465	0.0053
507.7448	-0.0018
507.9431	0.0057
508.1414	-0.0002
508.3396	0.0027
508.5379	-0.0001
508.7361	0.0035
508.9343	0.0022
509.1325	0.008
509.3306	-0
509.5288	-0.0034
509.7269	0.0086
509.9251	0.001
510.1232	0.0039
510.3213	0.0078
510.5193	-0.0014
510.7174	0.0012
510.9154	0.0094
511.1135	0.0034
511.3115	0.0042
511.5095	0.0018
511.7075	-0.0014
511.9055	0.001
512.1034	0.0009
512.3014	-0.003
512.4993	0.013
512.6972	0.0089
512.8951	-0.0025
513.093	0.0014
513.2908	0.0074
513.4887	0.0091
513.6865	0.0049
513.8844	0.0159
514.0822	0.0043
514.2799	-0.0049
514.4777	0.0003
514.6755	0.0001
514.8732	-0.0005
515.0709	0.0083
515.2687	-0.0001
515.4664	0.0219
515.664	-0.0033
515.8617	0.0149
516.0594	0.0076
516.257	0.0051
516.4546	0.0199
516.6522	-0.0031
516.8498	0.0105
517.0474	0.0062
517.2449	0.0125
517.4425	0.0041
517.64	0.0034
517.8375	0.0085
518.035	-0.003
518.2325	-0.0038
518.43	0.0015
518.6274	0.0034
518.8249	-0.0072
519.0223	0.0038
519.2197	0.0031
519.4171	0.0016
519.6145	0.0092
519.8118	-0.0047
520.0092	0.0023
520.2065	0.01
520.4038	-0.0017
520.6011	0.0073
520.7984	0.0046
520.9956	0.0051
521.1929	0.0079
521.3901	0.0108
521.5874	0.0063
521.7846	-0.004
521.9818	0.0029
522.1789	-0.0043
522.3761	0.0153
522.5732	0.0013
522.7704	0.0036
522.9675	0.0025
523.1646	-0.0067
523.3617	0.0188
523.5587	0.0023
523.7558	0.0035
523.9528	0.0067
524.1498	-0.002
524.3468	-0.001
524.5438	0.0035
524.7408	-0.0021
524.9378	0.0042
525.1347	0.0076
525.3316	-0.0006
525.5285	-0.0019
525.7254	0.0097
525.9223	0.0094
526.1192	0.005
526.316	0.0015
526.5129	0.0084
526.7097	0.0032
526.9065	0.0002
527.1033	-0.0025
527.3	0.0107
527.4968	0.004
527.6935	0.0028
527.8903	0.001
528.087	-0.0035
528.2837	0.012
528.4804	-0.0039
528.677	0.0083
528.8737	-0.004
529.0703	-0.0067
529.2669	0.0119
529.4635	0.0085
529.6601	-0.004
529.8567	0.0006
530.0532	0.0039
530.2498	0.0086
530.4463	-0.0032
530.6428	0.0007
530.8393	0.0098
531.0358	-0.0036
531.2322	-0.009
531.4287	0.0051
531.6251	-0.0072
531.8215	0.0015
532.0179	0.0161
532.2143	0.0044
532.4107	0.0149
532.607	-0.0013
532.8034	-0.0068
532.9997	-0.0086
533.196	0.0065
533.3923	0.008
533.5886	0.0039
533.7848	0.0006
533.9811	0.0003
534.1773	0.0073
534.3735	0.0107
534.5697	0.012
534.7659	-0.0015
534.9621	0.0023
535.1582	0.0051
535.3544	0.0076
535.5505	0.0031
535.7466	0.0152
535.9427	-0.0049
536.1387	0.0052
536.3348	0.0077
536.5308	0.0032
536.7269	0.0019
536.9229	-0.0004
537.1189	0.0141
537.3148	0.0057
537.5108	0.0038
537.7068	0.0121
537.9027	-0.0088
538.0986	-0.0004
538.2945	-0.0044
538.4904	-0.0009
538.6863	0.0016
538.8821	0.0068
539.078	0.0036
539.2738	0.002
539.4696	-0.0089
539.6654	0.006
539.8611	0.0069
540.0569	0.0045
540.2526	0.0139
540.4484	-0.0011
540.6441	0.0112
540.8398	0.0093
541.0355	0.0045
541.2311	0.0047
541.4268	0.0073
541.6224	0.0085
541.818	0.0106
542.0136	0.0015
542.2092	0.0062
542.4048	0.005
542.6003	0.0043
542.7959	0.0107
542.9914	0.007
543.1869	-0.0021
543.3824	0.0033
543.5779	0.0107
543.7734	0.0161
543.9688	0.007
544.1642	0.0058
544.3596	0.0069
544.555	-0.0015
544.7504	0.0023
544.9458	-0.0044
545.1411	0.0042
545.3365	0.004
545.5318	0.0095
545.7271	0.0012
545.9224	0.0025
546.1177	0.0047
546.3129	0.0036
546.5081	-0.0007
546.7034	0.0009
546.8986	0.0061
547.0938	0.0112
547.289	0.0044
547.4841	0.0058
547.6793	0.002
547.8744	0.0136
548.0695	-0.0067
548.2646	-0.0028
548.4597	-0.0026
548.6548	0.0117
548.8498	0.0054
549.0448	0.0054
549.2399	0.0075
549.4349	0.0109
549.6298	0.0081
549.8248	0.0031
550.0198	0.0119
550.2147	0.0146
550.4096	0.001
550.6045	0.0021
550.7994	-0.0034
550.9943	0.0026
551.1892	-0.0126
551.384	0.0078
551.5788	-0.0005
551.7737	0.0065
551.9685	0.0024
552.1632	-0.0091
552.358	-0.003
552.5528	-0.0014
552.7475	-0.0068
552.9422	0.006
553.1369	0.0146
553.3316	0.0101
553.5263	0.0088
553.7209	-0.0022
553.9156	-0.0006
554.1102	0.0076
554.3048	0.0011
554.4994	0.0061
554.694	0.0057
554.8885	0.0002
555.0831	0.0079
555.2776	0.0127
555.4721	0.0048
555.6666	0.0037
555.8611	0.0032
556.0555	0.0026
556.25	0.0055
556.4444	-0.0053
556.6388	0.0013
556.8332	-0.0001
557.0276	0.0103
557.222	0.0025
557.4163	0.0011
557.6107	0.0003
557.805	0.002
557.9993	0.0174
558.1936	-0.0143
558.3879	0.011
558.5821	0.006
558.7764	0.0071
558.9706	-0.0029
559.1648	0.0132
559.359	0.0017
559.5532	0.0013
559.7473	-0.0113
559.9415	-0.0012
560.1356	0.0157
560.3297	0.0066
560.5238	0.0107
560.7179	0.0084
560.9119	-0.0014
561.106	-0.0016
561.3	0.0072
561.494	-0.0054
561.688	0.0019
561.882	-0.0039
562.076	0.0018
562.2699	0.0121
562.4639	0.0114
562.6578	0.0105
562.8517	0.0029
563.0456	0.0049
563.2395	0.0068
563.4333	-0.0008
563.6272	0.0027
563.821	0.0048
564.0148	-0.0067
564.2086	-0.0021
564.4024	0.0061
564.5961	0.0059
564.7899	0.0106
564.9836	0.0065
565.1773	0.0102
565.371	0.0034
565.5647	0.0056
565.7584	0.0103
565.952	0.008
566.1456	-0.0023
566.3393	0.0107
566.5329	0.004
566.7264	0.0108
566.92	0.007
567.1136	-0.0006
567.3071	-0.0056
567.5006	-0.001
567.6941	-0.0002
567.8876	-0.0017
568.0811	0.0151
568.2745	-0.0053
568.468	-0.0005
568.6614	0.0094
568.8548	-0.0051
569.0482	0.0079
569.2416	0.0014
569.4349	0.0037
569.6283	-0.0015
569.8216	0.0068
570.0149	0.0004
570.2082	0.0091
570.4015	0.003
570.5947	0.0031
570.788	-0.0003
570.9812	-0.0015
571.1744	0.0054
571.3676	-0.0009
571.5608	-0.0012
571.754	0.0073
571.9471	0.0035
572.1402	0.0007
572.3333	0.001
572.5264	0.0038
572.7195	0.0021
572.9126	0.0063
573.1057	0.0045
573.2987	0.0019
573.4917	0.0028
573.6847	0.004
573.8777	0.004
574.0707	0.0037
574.2636	-0.0002
574.4566	-0
574.6495	0.0033
574.8424	0.0075
575.0353	0.0064
575.2281	0.0047
575.421	-0.0036
575.6138	0.0029
575.8067	0.0076
575.9995	-0.0007
576.1923	0.0041
576.385	0.0036
576.5778	0.011
576.7706	0.0033
576.9633	0.0047
577.156	-0.0039
577.3487	0.0005
577.5414	0.0011
577.734	0.0019
577.9267	0.0011
578.1193	0.0028
578.3119	-0.0009
578.5045	0.0011
578.6971	-0.0037
578.8897	-0.0006
579.0822	0.005
579.2747	-0.0022
579.4673	-0.0002
579.6598	0.0038
579.8522	0.002
580.0447	0.0066
580.2372	0.0103
580.4296	0.0052
580.622	-0.003
580.8144	0.0031
581.0068	0.0042
581.1992	0.002
581.3915	0
581.5839	0.0026
581.7762	0.0027
581.9685	0.0021
582.1608	0.0011
582.353	0.0013
582.5453	0.0046
582.7375	0.0058
582.9298	0.0001
583.122	0.0042
583.3142	0.0071
583.5063	0.0012
583.6985	0.0013
583.8906	-0.0006
584.0827	0.0025
584.2749	-0.0002
584.4669	0.0029
584.659	0.0061
584.8511	0.005
585.0431	0.002
585.2352	0.0007
585.4272	0.0029
585.6192	0.0051
585.8111	0.0021
586.0031	0
586.195	-0.0003
586.387	-0.0027
586.5789	0.0103
586.7708	0.0034
586.9627	0.0049
587.1545	0.005
587.3464	0.0028
587.5382	0.0055
587.73	0.005
587.9218	0.0023
588.1136	-0.0022
588.3053	0.0005
588.4971	-0.0013
588.6888	0.0032
588.8805	-0.0034
589.0722	0.0094
589.2639	0.0014
589.4556	0.0019
589.6472	0.0083
589.8389	0.006
590.0305	-0.0013
590.2221	0.0061
590.4137	-0.0003
590.6052	0.0053
590.7968	0.0052
590.9883	0.0031
591.1798	-0.0023
591.3713	0.0027
591.5628	0.0003
591.7543	0.0025
591.9458	0.0018
592.1372	0.0066
592.3286	0.002
592.52	0.0039
592.7114	0.0028
592.9028	0.0075
593.0941	0.0033
593.2855	0.0029
593.4768	0.0107
593.6681	0.007
593.8594	0.0073
594.0506	0.0064
594.2419	0.0081
594.4331	0.0043
594.6244	-0.0031
594.8156	0.0021
595.0067	0.0006
595.1979	0.0004
595.3891	-0.0003
595.5802	0.0109
595.7713	0.0107
595.9624	0.0065
596.1535	-0.0021
596.3446	-0.0047
596.5357	0.0072
596.7267	0.0045
596.9177	0.0057
597.1087	-0.0012
597.2997	0.0049
597.4907	0.0043
597.6817	0.0007
597.8726	-0.0009
598.0635	-0.0028
598.2544	0.004
598.4453	0.0021
598.6362	-0.0004
598.827	-0.0015
599.0179	0.0024
599.2087	0.0085
599.3995	0.0064
599.5903	0.0086
599.7811	0.0125
599.9718	-0.0022
600.1626	-0.0021
600.3533	0.0016
600.544	0.0047
600.7347	0.0075
600.9254	0.007
601.116	0.0021
601.3067	0.0048
601.4973	0.0034
601.6879	-0.0023
601.8785	0.0003
602.0691	-0
602.2596	0.0038
602.4502	0.0063
602.6407	0.0019
602.8312	0.006
603.0217	-0.0001
603.2122	-0.0004
603.4027	0.002
603.5931	-0.001
603.7835	0.0062
603.9739	-0.0005
604.1643	0.0048
604.3547	0.0077
604.5451	0.0082
604.7354	-0.0019
604.9257	0.003
605.116	-0.0061
605.3063	0.0093
605.4966	0.0026
605.6869	0.0098
605.8771	0.0064
606.0673	0.0071
606.2575	-0.0039
606.4477	0.0022
606.6379	0.0024
606.8281	0.0001
607.0182	0.0017
607.2083	0.0053
607.3985	0.0021
607.5885	0.002
607.7786	0.0056
607.9687	0.0045
608.1587	0.0026
608.3488	0.0032
608.5388	-0.0017
608.7288	0.0002
608.9187	-0.0031
609.1087	0
609.2986	0.0113
609.4886	0.0018
609.6785	0.0017
609.8684	-0.0017
610.0582	-0.0044
610.2481	-0.0003
610.4379	0.0038
610.6278	0.0046
610.8176	0.0124
611.0074	0.0004
611.1971	0.0008
611.3869	-0.0023
611.5766	-0.0018
611.7664	0.0065
611.9561	0.0094
612.1458	0.0023
612.3354	0.0089
612.5251	0.0024
612.7147	0.0048
612.9044	0
613.094	0.0072
613.2836	0.0033
613.4731	0.0028
613.6627	0.0026
613.8522	0.0063
614.0417	0.0108
614.2313	0.0035
614.4207	0.0037
614.6102	0.0082
614.7997	0.0049
614.9891	0.0038
615.1785	-0.0075
615.3679	0.0037
615.5573	0.0093
615.7467	-0.0076
615.9361	-0.0087
616.1254	0.0062
616.3147	-0.0002
616.504	0.0065
616.6933	0.0053
616.8826	-0.0052
617.0718	0.0107
617.2611	0.0021
617.4503	-0.0017
617.6395	0.0071
617.8287	0.0084
618.0179	0.0057
618.207	0.0058
618.3961	-0.0027
618.5853	0.0021
618.7744	0.0103
618.9634	0.0143
619.1525	0.0085
619.3416	-0.0019
619.5306	0.0012
619.7196	0.006
619.9086	0.0025
620.0976	-0.0055
620.2866	0.0147
620.4755	-0.0068
620.6645	0.0158
620.8534	0.0097
621.0423	0.0057
621.2312	0.0024
621.42	0.007
621.6089	-0.0045
621.7977	0.0031
621.9865	0.0084
622.1753	-0.0075
622.3641	-0.0055
622.5529	-0.0018
622.7416	0.0041
622.9303	-0.0001
623.1191	0.0018
623.3078	0.0027
623.4964	0.0079
623.6851	0.0011
623.8737	-0.0002
624.0624	-0.0096
624.251	-0.0045
624.4396	0
624.6282	0.0083
624.8167	-0.0023
625.0053	0.0127
625.1938	-0.003
625.3823	0.0103
625.5708	0
625.7593	-0.006
625.9477	0.0067
626.1362	-0.0076
626.3246	-0.0064
626.513	0.008
626.7014	0.0055
626.8898	0.0218
627.0781	0.004
627.2665	0.0095
627.4548	-0.012
627.6431	0.0035
627.8314	0.0068
628.0197	0.0093
628.2079	-0.0018
628.3962	0.001
628.5844	-0.0104
628.7726	-0.0012
628.9608	0.0082
629.1489	0.0003
629.3371	-0.0086
629.5252	0.005
629.7134	-0.0065
629.9015	0.0014
630.0895	-0.0169
630.2776	0.0158
630.4657	0.0058
630.6537	0.0181
630.8417	-0.0057
631.0297	0.0035
631.2177	0.0016
631.4057	0.0059
631.5936	0.0007
631.7815	0.0026
631.9695	0.0262
632.1574	0.0022
632.3452	0.0075
632.5331	0.0016
632.7209	0.0103
632.9088	0.0053
633.0966	0.0136
633.2844	-0.0029
633.4722	0.0051
633.6599	0.0228
633.8477	0.0188
634.0354	0
634.2231	-0.0198
634.4108	-0.013
634.5985	0.0235
634.7861	-0.0119
634.9738	-0.0051
635.1614	-0.0019
635.349	-0.0082
635.5366	0.0027
635.7242	0.0036
635.9117	0.0115
636.0993	-0.0002
636.2868	0.0069
636.4743	-0.0014
636.6618	-0.006
636.8492	0.0182
637.0367	-0.0019
637.2241	-0.0013
637.4115	0.0241
637.5989	-0.0088
637.7863	0.0299
637.9737	0.0019
638.161	0.0108
638.3484	-0.0275
638.5357	-0.0039
638.723	0.0183
638.9103	-0.0161
639.0975	-0.0085
639.2848	0.0074
639.472	0.0087
639.6592	-0.0179
639.8464	-0.0028
640.0336	-0.0114
640.2208	0.0004
640.4079	-0.0159
640.595	-0.0081
640.7821	0.016
640.9692	-0.0063
641.1563	0.0113
641.3434	0.0222
641.5304	0.0183
641.7174	0.0077
641.9044	0.0137
642.0914	0.0217
642.2784	-0.0002
642.4653	-0.0009
642.6523	0.0174
642.8392	-0.0017
643.0261	0.0084
643.213	0.002
643.3999	0.0236
643.5867	-0.0036
643.7735	-0.0038
643.9604	0.0213
644.1472	0.0093
644.3339	-0.0004
644.5207	-0.0067
644.7075	-0.0094
644.8942	-0.0141
645.0809	-0.0132
645.2676	-0.0204
645.4543	-0.0059
645.6409	0.0147
645.8276	0.0111
646.0142	0.0058
646.2008	0.0039
646.3874	-0.0192
646.574	-0.0165
646.7605	0.0057
646.9471	0.0124
647.1336	-0.0148
647.3201	-0.0034
647.5066	0.019
647.6931	-0.0138
647.8795	-0.0081
648.0659	0.0046
648.2524	0.0117
648.4388	-0.0001
648.6252	0.0111
648.8115	0.0063
648.9979	0.0116
649.1842	-0.0029
649.3705	0.0035
649.5568	-0.0034
649.7431	0.0026
649.9294	-0.0103
650.1156	-0.0131
650.3018	0.0057
650.488	0.0018
650.6742	0.0168
650.8604	-0.0051
651.0466	0.0025
651.2327	-0.0145
651.4188	-0.0082
651.6049	0.0052
651.791	0.009
651.9771	0.0023
652.1632	-0.0059
652.3492	0.0014
652.5352	0.002
652.7212	0.005
652.9072	-0.0038
653.0932	0.0036
653.2791	0.0031
653.465	0.027
653.651	0.0229
653.8369	0.0101
654.0227	-0.0125
654.2086	0.01
654.3944	0.0161
654.5803	0.0088
654.7661	0.0031
654.9519	-0.0024
655.1377	0
655.3234	0
655.5092	0
655.6949	0
655.8806	0
656.0663	0
656.2519	0
656.4376	0
656.6232	0
656.8088	0
656.9945	0
657.18	0
657.3656	0
657.5511	0
657.7367	0
657.9222	0
658.1077	0
658.2932	0
658.4786	0
658.6641	0
658.8495	0
659.0349	0
659.2203	0
659.4057	0
659.591	0.0648
659.7764	0.0217
659.9617	0.0057
660.147	-0.0045
660.3323	-0.0114
660.5176	0.0011
660.7028	-0.0026
660.888	0.0165
661.0733	0.003
661.2585	-0.0009
661.4436	0.0099
661.6288	0.0179
661.8139	-0.0027
661.9991	-0.015
662.1842	0.0011
662.3693	0.0061
662.5544	0.0095
662.7394	0.0199
662.9245	-0.014
663.1095	-0.01
663.2945	-0.0069
663.4795	-0.0215
663.6644	0.0038
663.8494	0.0151
664.0343	0.0133
664.2193	-0.0002
664.4042	0.0102
664.589	0.0003
664.7739	0.01
664.9587	0.0073
665.1436	-0.007
665.3284	0.0187
665.5132	-0.0293
665.698	0.0064
665.8827	0.0063
666.0675	0.001
666.2522	0.0051
666.4369	0.01
666.6216	-0.0023
666.8063	0.0191
666.9909	-0.0096
667.1756	0.0011
667.3602	0.0021
667.5448	0.0066
667.7294	-0.0041
667.9139	-0.0051
668.0985	0.0364
668.283	0.0118
668.4675	0.0166
668.652	0.0229
668.8365	-0.0104
669.0209	-0.0098
669.2054	-0.0134
669.3898	-0.0037
669.5742	0.0097
669.7586	0.0095
669.943	-0.0078
670.1273	0.0274
670.3117	0.0175
670.496	0.0082
670.6803	-0.0066
670.8646	-0.0282
671.0488	0.0195
671.2331	-0.0185
671.4173	0.0169
671.6015	-0.0034
671.7857	0.0106
671.9699	0.0153
672.1541	0.0062
672.3382	0.0007
672.5223	-0.0001
672.7064	-0.0024
672.8905	-0.0101
673.0746	0.0184
673.2587	0.0092
673.4427	0.0003
673.6267	0.0148
673.8107	0.0037
673.9947	0.0149
674.1787	0.0028
674.3626	-0.0018
674.5465	0.0149
674.7304	-0.0076
674.9143	0.0036
675.0982	-0.0054
675.2821	-0.0002
675.4659	-0.0045
675.6497	0.0063
675.8335	0.0125
676.0173	-0.0247
676.2011	0.007
676.3849	0.0084
676.5686	0.0112
676.7523	-0.0012
676.936	0.0115
677.1197	-0.0216
677.3034	0.0372
677.487	0.004
677.6706	0.0081
677.8542	-0.0174
678.0378	-0.0016
678.2214	0.0052
678.405	0.0136
678.5885	-0.0053
678.772	0.0079
678.9555	0.0034
679.139	-0.0009
679.3225	0.0008
679.5059	-0.0051
679.6894	0.0196
679.8728	0.0003
680.0562	0.0093
680.2395	-0.0053
680.4229	0.0011
680.6062	0.0109
680.7896	0.002
680.9729	0.0192
681.1562	-0.0077
681.3394	-0.0049
681.5227	-0.0027
681.7059	0.0204
681.8891	0.0084
682.0723	0.0033
682.2555	0.0054
682.4387	0.0105
682.6218	0.011
682.805	0.0108
682.9881	0.0134
683.1712	0.0001
683.3542	0.0081
683.5373	0.0057
683.7203	0.0108
683.9034	-0.0177
684.0864	-0.0176
684.2694	-0.0058
684.4523	0.0097
684.6353	-0.0087
684.8182	-0.0103
685.0011	0.0073
685.184	0.0022
685.3669	0.0073
685.5498	-0.0064
685.7326	0.0033
685.9154	-0.0098
686.0982	0.0089
686.281	-0.0038
686.4638	0.0128
686.6465	-0.0069
686.8293	-0.0076
687.012	0.0045
687.1947	0.0054
687.3774	0.0016
687.56	-0.0043
687.7427	0.0003
687.9253	-0.0165
688.1079	-0.0064
688.2905	-0.0116
688.4731	0.0227
688.6556	-0.005
688.8382	-0.0301
689.0207	0.0074
689.2032	0.01
689.3857	0.0001
689.5681	-0.0024
689.7506	0.0064
689.933	-0.0024
690.1154	0.0159
690.2978	0.0113
690.4802	0.0134
690.6626	0.0016
690.8449	0.0115
691.0272	-0.0104
691.2095	-0.0196
691.3918	0.0033
691.5741	0.0167
691.7563	0.01
691.9386	0.0299
692.1208	0.0008
692.303	0.0069
692.4852	0.0082
692.6673	-0.0002
692.8495	-0.0198
693.0316	0.0085
693.2137	-0.0011
693.3958	0.0076
693.5778	0.0075
693.7599	0.006
693.9419	-0.0219
694.1239	0.0052
694.3059	0.0085
694.4879	-0.0067
694.6699	-0.0125
694.8518	0.0134
695.0337	-0.004
695.2157	0.0252
695.3975	-0.0137
695.5794	-0.0192
695.7613	0.0443
695.9431	-0.0252
696.1249	0.0209
696.3067	-0.0176
696.4885	0.0146
696.6703	0.0031
696.852	0.0079
697.0337	0.0037
697.2154	0.014
697.3971	0.0057
697.5788	0.0139
697.7605	-0.0047
697.9421	0.013
698.1237	0.0216
698.3053	-0.0133
698.4869	-0.0161
698.6685	-0.012
698.85	0.0079
699.0315	-0.02
699.213	0.0371
699.3945	-0.0006
699.576	0.0358
699.7575	0.0221
699.9389	0.0123
700.1203	0.0021
700.3017	0.0153
700.4831	0.0248
700.6645	0.0316
700.8458	-0.0389
701.0271	0.0165
701.2084	0.006
701.3897	0.0023
701.571	-0.0177
701.7523	0.0022
701.9335	0.0054
702.1147	0.0057
702.2959	-0.012
702.4771	0.0082
702.6583	0.0093
702.8394	-0.0145
703.0205	0.0097
703.2016	0.0008
703.3827	-0.0147
703.5638	0.0187
703.7449	0.0218
703.9259	-0.0071
704.1069	-0.0409
704.2879	0.0402
704.4689	-0.0008
704.6499	0.0145
704.8308	0.0299
705.0117	0.0047
705.1927	0.0146
705.3735	0.0011
705.5544	-0.0092
705.7353	0.0035
705.9161	-0.0175
706.0969	0.028
706.2777	-0.006
706.4585	0.0041
706.6393	0.0132
706.82	0.0074
707.0007	-0.0109
707.1815	-0.0099
707.3621	0.0348
707.5428	0.0185
707.7235	0.0068
707.9041	0.01
708.0847	-0.0082
708.2653	0.0118
708.4459	-0.0038
708.6265	-0.0199
708.807	0.0074
708.9875	-0.0114
709.168	0.0061
709.3485	0.0346
709.529	0.0061
709.7095	-0.0101
709.8899	0.005
710.0703	0.0139
710.2507	0.0019
710.4311	-0.0218
710.6115	0.0295
710.7918	0.0233
710.9721	0.0138
711.1524	-0.0173
711.3327	0.004
711.513	0.0041
711.6932	0.0316
711.8735	0.0209
712.0537	0.0087
712.2339	0.0161
712.4141	0.0122
712.5942	-0.0178
712.7744	0.0071
712.9545	0.0312
713.1346	0.044
713.3147	0.0253
713.4947	-0.0032
713.6748	-0.0068
713.8548	0.0165
714.0348	0.0208
714.2148	0.002
714.3948	-0.0005
714.5748	0.0157
714.7547	0.0327
714.9346	0.0316
715.1145	-0.0009
715.2944	-0.0173
715.4743	0.0266
715.6541	-0.018
715.834	0.0468
716.0138	0.0266
716.1936	-0.0104
716.3733	-0.0058
716.5531	-0.0052
716.7328	0.0069
716.9126	0.0057
717.0923	0.0001
717.2719	0.0268
717.4516	-0.0027
717.6312	-0.0093
717.8109	0.0408
717.9905	0.0182
718.1701	0.0281
718.3496	-0.0214
718.5292	-0.0089
718.7087	-0.0014
718.8882	0.029
719.0677	-0.0075
719.2472	0.0166
719.4267	0.0042
719.6061	-0.0105
719.7856	0.042
719.965	-0.0028
720.1443	-0.0061
720.3237	0.0013
720.5031	-0.0108
720.6824	-0.0257
720.8617	0.0271
721.041	0.0199
721.2203	-0.0359
721.3995	-0.0041
721.5788	-0.0104
721.758	-0.0277
721.9372	0.0153
722.1164	0.0127
722.2956	0.0263
722.4747	0.0253
722.6538	0.0104
722.8329	0.023
723.012	0.0157
723.1911	0.0069
723.3702	0.0061
723.5492	-0.0037
723.7282	0.0031
723.9072	-0.0338
724.0862	-0.0087
724.2652	0.004
724.4441	-0.0294
724.623	0.0058
724.8019	0.0044
724.9808	0.0294
725.1597	-0.0033
725.3385	0.0048
725.5174	0.0212
725.6962	0.0235
725.875	0.0037
726.0538	-0.0003
726.2325	0.0396
726.4112	-0.0225
726.59	0.002
726.7687	-0.0435
726.9474	0.0145
727.126	0.0275
727.3047	-0.0131
727.4833	0.0016
727.6619	0.0037
727.8405	0.0046
728.0191	-0.0027
728.1976	0.0237
728.3762	0.007
728.5547	0.0067
728.7332	0.0155
728.9116	-0.0036
729.0901	0.0077
729.2686	0.0029
729.447	0.0055
729.6254	0.0096
729.8038	-0.0148
729.9821	-0.0145
730.1605	0.0134
730.3388	-0.0062
730.5171	0.0063
730.6954	-0.0107
730.8737	0.0005
731.0519	-0.0251
731.2302	0.018
731.4084	-0.0065
731.5866	-0.0195
731.7648	0.0037
731.9429	0.031
732.1211	0.0013
732.2992	0.0062
732.4773	0.0078
732.6554	-0.0215
732.8335	0.0132
733.0115	-0.0044
733.1896	-0.0264
733.3676	0.0141
733.5456	-0.0136
733.7235	-0.0101
733.9015	0.0139
734.0794	-0.0115
734.2574	-0.011
734.4353	0.017
734.6131	-0.0052
734.791	-0.0047
734.9689	-0.0089
735.1467	-0.017
735.3245	0.0384
735.5023	0.016
735.68	0.0222
735.8578	0.0044
736.0355	0.0076
736.2132	-0.0083
736.3909	0.0095
736.5686	-0.0088
736.7463	-0.0156
736.9239	0.0133
737.1015	0.0021
737.2791	0.0172
737.4567	0.0105
737.6343	-0.0101
737.8118	-0.0168
737.9894	0.0004
738.1669	-0.0059
738.3444	0.0233
738.5218	-0.0262
738.6993	-0.0117
738.8767	-0.0064
739.0541	-0.0042
739.2315	-0.0039
739.4089	0.028
739.5863	-0.0034
739.7636	0.0092
739.9409	-0.0243
740.1182	-0.0014
740.2955	0.0503
740.4728	-0.0025
740.65	0.0029
740.8272	0.0116
741.0044	-0.031
741.1816	0.0177
741.3588	0.0105
741.5359	0.018
741.7131	0.0095
741.8902	0.0022
742.0673	-0.0185
742.2444	0.0118
742.4214	0.0112
742.5985	-0.0032
742.7755	-0.0118
742.9525	-0.0389
743.1295	-0.0342
743.3064	0.0221
743.4834	-0.0131
743.6603	0.0781
743.8372	-0.0485
744.0141	0.0092
744.191	0.0159
744.3678	-0.0566
744.5446	-0.0003
744.7215	0.0295
744.8982	0.0385
745.075	0.0437
745.2518	0.0258
745.4285	0.0261
745.6052	-0.0233
745.7819	-0.005
745.9586	-0.0044
746.1353	0.0006
746.3119	-0.0133
746.4885	0.0222
746.6651	0.001
746.8417	-0.0257
747.0183	0.0341
747.1948	0.0146
747.3714	0.012
747.5479	0.0272
747.7244	-0.0088
747.9008	-0.0032
748.0773	0.0579
748.2537	0.0251
748.4301	0.0418
748.6065	-0.0035
748.7829	-0.0118
748.9593	-0.0237
749.1356	-0.0033
749.3119	0.0033
749.4882	0.0036
749.6645	0.0164
749.8408	0.0085
750.017	0.0165
750.1933	-0.0259
750.3695	0.0093
750.5457	-0.0217
750.7218	0.0068
750.898	-0.0131
751.0741	-0.0006
751.2502	0.006
751.4263	0.001
751.6024	0.0146
751.7784	-0.0013
751.9545	0.0057
752.1305	0.0073
752.3065	0.0052
752.4825	-0.0098
752.6584	-0.0076
752.8344	0.0193
753.0103	-0.0275
753.1862	0.0322
753.3621	0.0011
753.5379	-0.0163
753.7138	-0.0083
753.8896	0.0093
754.0654	-0.0104
754.2412	0.021
754.417	0.0082
754.5927	0.0025
754.7685	0.0225
754.9442	0.0222
755.1199	0.0098
755.2956	-0.0052
755.4712	0.0106
755.6469	0.0219
755.8225	-0.0101
755.9981	0.0094
756.1736	-0.0009
756.3492	0.0106
756.5248	0.0214
756.7003	-0.0101
756.8758	0.0028
757.0513	-0.0101
757.2267	-0.004
757.4022	-0.0015
757.5776	0.0114
757.753	0.0074
757.9284	-0.0023
758.1038	-0.0032
758.2791	0.0003
758.4545	-0.0105
758.6298	0.0133
758.8051	0.0102
758.9803	-0.0025
759.1556	-0.0031
759.3308	-0.0091
759.506	0.0023
759.6812	-0.0029
759.8564	0.0072
760.0316	-0.003
760.2067	0.0123
760.3819	0.015
760.557	0.0073
760.732	0.0003
760.9071	0.0177
761.0821	-0.0153
761.2572	0.0045
761.4322	0.0213
761.6072	-0.0107
761.7821	-0.0423
761.9571	-0.0006
762.132	0.0109
762.3069	0.019
762.4818	0.0082
762.6567	-0.0035
762.8316	0.0247
763.0064	0.0199
763.1812	-0.0089
763.356	-0.0218
763.5308	0.0175
763.7055	0.0038
763.8803	-0.0164
764.055	-0.0004
764.2297	-0.0051
764.4044	0.0072
764.579	-0.0015
764.7537	0.0217
764.9283	-0.0004
765.1029	-0.007
765.2775	0.0228
765.4521	0.008
765.6266	-0.0164
765.8011	0.0073
765.9756	0.0272
766.1501	0.0095
766.3246	0.0282
766.4991	0.0202
766.6735	0.012
766.8479	0.0197
767.0223	-0.0206
767.1967	-0.0088
767.371	0.0311
767.5454	0.0296
767.7197	0.0323
767.894	0.0074
768.0683	0.0106
768.2425	-0.0093
768.4168	0.0034
768.591	0.0213
768.7652	-0.0033
768.9394	-0.0269
769.1135	-0.0093
769.2877	0.0211
769.4618	0.0265
769.6359	-0.0086
769.81	0.0017
769.984	0.0197
770.1581	0.0016
770.3321	0.0208
770.5061	-0.0045
770.6801	-0.0009
770.8541	-0.0016
771.028	0.0563
771.202	0.0456
771.3759	-0.0003
771.5498	0.0172
771.7236	0.0235
771.8975	0.0279
772.0713	0.0061
772.2451	-0.0081
772.4189	0.0226
772.5927	-0.0135
772.7665	-0.0093
772.9402	0.0183
773.1139	0.04
773.2876	-0.0224
773.4613	-0.0077
773.635	0.0456
773.8086	0.0371
773.9822	-0.0209
774.1558	0.0526
774.3294	0.0189
774.503	0.0086
774.6765	0.0607
774.8501	0.0077
775.0236	0.024
775.1971	-0.0185
775.3705	0.0128
775.544	-0.0083
775.7174	0.0229
775.8908	0.018
776.0642	0.0553
776.2376	0.0775
776.4109	0.035
776.5843	-0.0295
776.7576	0.0282
776.9309	0.0487
777.1041	-0.0532
777.2774	-0.0137
777.4506	-0.0083
777.6238	0.0037
777.797	0.0346
777.9702	0.0088
778.1434	-0.0054
778.3165	0.0108
778.4896	-0.0153
778.6627	0.0368
778.8358	0.0083
779.0089	-0.035
779.1819	0.0301
779.3549	-0.0062
779.5279	-0.0158
779.7009	0.052
779.8739	0.0416
780.0468	-0.0047
780.2197	-0.0012
780.3926	-0.0197
780.5655	0.0129
780.7384	-0.0106
780.9112	0.0183
781.0841	0.0268
781.2569	0.0111
781.4297	0.0079
781.6024	0.024
781.7752	0.0553
781.9479	0.0324
782.1206	-0.0159
782.2933	-0.0055
782.466	0.0259
782.6386	-0.0078
782.8113	-0.001
782.9839	0.0206
783.1565	0.0193
783.329	-0.0027
783.5016	0.0036
783.6741	0.0008
783.8466	0.0126
784.0191	0.0241
784.1916	0.001
784.3641	-0.0247
784.5365	0.0173
784.7089	-0.0442
784.8813	0.0396
785.0537	-0.008
785.2261	0.0421
785.3984	0.0099
785.5707	-0.0249
785.743	0.0192
785.9153	-0.002
786.0876	-0.0439
786.2598	-0.037
786.432	-0.0086
786.6042	0.0529
786.7764	-0.0201
786.9486	-0.0141
787.1207	0.0471
787.2928	0.0646
787.4649	-0.0024
787.637	0.0176
787.8091	0.0031
787.9811	0.0245
788.1532	0.0094
788.3252	0.0149
788.4972	0.0001
788.6691	0.012
788.8411	-0.0295
789.013	0.0361
789.1849	0.0002
789.3568	0.0081
789.5287	0.0332
789.7005	-0.0091
789.8723	-0.0485
790.0442	-0.0067
790.2159	-0.016
790.3877	0.0582
790.5595	0.0097
790.7312	0.0422
790.9029	-0.0276
791.0746	0.0357
791.2463	-0.0179
791.4179	0.0003
791.5896	-0.056
791.7612	-0.0096
791.9328	0.0053
792.1044	-0.0187
792.2759	-0.0662
792.4474	-0.0009
792.619	-0.0679
792.7905	0.0459
792.9619	0.0381
793.1334	0.0733
793.3048	0.0602
793.4762	0.038
793.6476	-0.0214
793.819	-0.0174
793.9904	-0.0159
794.1617	-0.0316
794.333	0.0113
794.5043	0.0195
794.6756	-0.0179
794.8469	0.0304
795.0181	-0.0343
795.1893	0.0173
795.3605	0.0088
795.5317	0.0156
795.7029	-0.0006
795.874	0.0068
796.0452	0.0486
796.2163	0.0657
796.3873	0.0776
796.5584	0.039
796.7294	0.0171
796.9005	-0.0026
797.0715	0.0036
797.2425	0.1066
797.4134	0.0472
797.5844	0.06
797.7553	-0.1136
797.9262	0.0601
798.0971	0.027
798.2679	0.0189
798.4388	0.0555
798.6096	0.0256
798.7804	0.0534
798.9512	0.0445
799.122	-0.0378
799.2927	0.0501
799.4635	-0.0514
799.6342	-0.0027
799.8049	0.0378
799.9755	-0.0248
800.1462	-0.0375
800.3168	0.0016
800.4874	-0.1217
800.658	0.0887
800.8286	0.0427
800.9991	0.0665
801.1696	-0.0251
801.3402	-0.0075
801.5106	-0.0675
801.6811	-0.0561
801.8516	0.0459
802.022	-0.0269
802.1924	0.0154
802.3628	-0.0335
802.5332	0.019
802.7035	0.0248
802.8739	-0.0438
803.0442	0.0335
803.2145	0.0004
803.3847	0.0393
803.555	-0.0036
803.7252	0.0004
803.8954	-0.0251
804.0656	-0.013
804.2358	0.1646
804.4059	0.0427
804.5761	0.1586
804.7462	-0.0485
804.9163	0.0246
805.0864	-0.0505
805.2564	-0.0341
805.4264	0.0121
805.5965	0.0205
805.7665	-0.0417
805.9364	-0.0209
806.1064	-0.0356
806.2763	0.0069
806.4462	0.0221
806.6161	0.0633
806.786	-0.0007
806.9559	-0.0528
807.1257	0.0485
807.2955	-0.027
807.4653	-0.0308
807.6351	0.0015
807.8048	0.0128
807.9746	0.0822
808.1443	-0.0143
808.314	0.0243
808.4837	0.0618
808.6533	0.0536
808.8229	-0.0106
808.9926	0.0142
809.1622	0.0281
809.3317	-0.1192
809.5013	-0.0656
809.6708	-0.0285
809.8403	0.0086
810.0098	0.0594
810.1793	0.1041
810.3488	-0.04
810.5182	0.0459
810.6876	0.0005
810.857	0.0118
811.0264	0.0402
811.1958	0.0447
811.3651	0.0273
811.5344	0.0549
811.7037	-0.0437
811.873	0.0557
812.0422	-0.0165
812.2115	-0.0287
812.3807	-0.0542
812.5499	0.1227
812.7191	0.0224
812.8882	-0.1144
813.0574	0.0193
813.2265	-0.065
813.3956	0.0005
813.5646	0.0435
813.7337	-0.0188
813.9027	-0.0406
814.0718	-0.0216
814.2407	0.0461
814.4097	0.0579
814.5787	0.059
814.7476	0.0352
814.9165	0.0675
815.0854	-0.0341
815.2543	0.0029
815.4232	0.0173
815.592	-0.031
815.7608	-0.007
815.9296	-0.0049
816.0984	-0.0394
816.2671	-0.2788
816.4359	0.0691
816.6046	0.0997
816.7733	-0.1561
816.942	0.0061
817.1106	0.0674
817.2793	-0.0163
817.4479	-0.0133
817.6165	0.0437
817.785	-0.0193
817.9536	-0.0168
818.1221	0.0508
818.2906	0.011
818.4591	0.0652
818.6276	-0.0524
818.7961	-0.0642
818.9645	-0.0169
819.1329	-0.0195
819.3013	-0.0559
819.4697	0.0014
819.638	-0.1497
819.8064	0.0494
819.9747	-0.0399
820.143	-0.0852
820.3113	0.1317
820.4795	0.0062
820.6477	0.0006
820.816	-0.0485
820.9842	0.0738
821.1523	0.0171
821.3205	0.0342
821.4886	0.0005
821.6567	0.0254
821.8248	0.0509
821.9929	-0.2225
822.1609	0.0941
822.329	0.0821
822.497	-0.1154
822.665	0.0041
822.833	-0.1256
823.0009	-0.033
823.1688	0.0552
823.3367	-0.1778
823.5046	-0.0154
823.6725	-0.0603
823.8404	-0.0896
824.0082	-0.049
824.176	-0.1572
824.3438	0.0391
824.5116	-0.0056
824.6793	-0.0127
824.847	-0.0832
825.0147	0.1131
825.1824	0.0476
825.3501	0.0547
825.5177	0.0115
825.6854	-0.1972
825.853	0.0298
826.0206	-0.0659
826.1881	0.2007
826.3557	0.1278
826.5232	0.1574
826.6907	0.0979
826.8582	0.0276
827.0257	0.1666
827.1931	0.0825
827.3605	0.09
827.528	-0.2462
827.6953	-0.1657
827.8627	0.0806
828.03	0.1113
828.1974	-0.0124
828.3647	0.0775
828.532	-0.0477
828.6992	0.0988
828.8665	-0.229
829.0337	0.158
829.2009	-0.1504
829.3681	-0.0118
829.5352	-0.1814
829.7024	-0.0161
829.8695	0.0204
830.0366	0.1383
830.2037	0.077
830.3707	0.1826
830.5378	0.1148
830.7048	-0.0832
830.8718	0.1255
831.0388	-0.0855
831.2057	-0
831.3727	-0.4392
831.5396	0.1717
831.7065	-0.4064
831.8734	0.7514
832.0402	0.2261
832.2071	-0.5309
832.3739	-0.0814
832.5407	-1.8808
832.7075	-0.1658
832.8742	0.0528
833.041	0.2455
833.2077	0.0862
833.3744	0.2544
833.541	0.0504
833.7077	-0.2041
833.8743	0.0499
834.0409	0.067
834.2075	0.1961
834.3741	-0.3699
834.5407	-0.091
834.7072	0.0215
834.8737	0.1108
835.0402	0.2067
835.2067	-0.1143
835.3731	0.1403
835.5395	-0.092
835.706	-0.2301
835.8723	-0.0694
836.0387	0.0016
836.2051	0.3428
836.3714	-0.0794
836.5377	0.3334
836.704	0.0343
836.8703	0.1235
837.0365	0.357
837.2027	0.2411
837.3689	0.2956
837.5351	0.2017
837.7013	-0.0957
837.8674	-0.4991
838.0335	0.1562
838.1997	-0.2197
838.3657	0.997
838.5318	-0.1133
838.6978	0.1564
838.8639	-0.6248
839.0299	0.0374
839.1958	0.2654
839.3618	0.3274
839.5277	-0.0794
839.6937	0.4058
839.8596	0.0726
840.0254	-0.0383
840.1913	-0.1451
840.3571	-0.1554
840.523	-0
840.6888	-0.1351
840.8545	-0.473
841.0203	0.6484
841.186	0.0659
841.3517	-0.0249
841.5174	0.1153
841.6831	0.065
841.8488	-0.0822
842.0144	0.3002
842.18	0.4569
842.3456	-0.4484
842.5112	-0
842.6767	0.0636
842.8422	0.2188
843.0077	0.1102
843.1732	-0.4216
843.3387	0.3274
843.5042	-0.0075
843.6696	0.243
843.835	-0.3438
844.0004	0.0935
844.1657	-0
844.3311	-0.413
844.4964	-0.7767
844.6617	0.7208
844.827	-0
844.9923	0.3919
845.1575	-0.3256
845.3227	-0.3929
845.4879	-0.2658
845.6531	0.3095
845.8183	0.0023
845.9834	-0
846.1485	0.0394
846.3136	-0.2722
846.4787	0.6316
846.6438	-0.3152
846.8088	-0
846.9738	-0
847.1388	0.0567
847.3038	0.3372
847.4687	-0
847.6337	-0.8748
847.7986	-0.1093
847.9635	0.3451
848.1284	-0
848.2932	0.1393
848.458	-0
848.6228	0.0959
848.7876	-0
848.9524	-0.0526
849.1172	-1.8709
849.2819	-0.1405
849.4466	0.136
849.6113	0.0272
849.7759	-0
849.9406	-0.1037
850.1052	-1.3361
850.2698	-0.0301
850.4344	-0.4283
850.599	-0.2513
850.7635	-0
850.928	0.5562
851.0925	0.4474
851.257	0.017
851.4215	-0
851.5859	-0.1347
851.7503	-0
851.9147	-0
852.0791	-0.0619
852.2434	0.0726
852.4078	-0
852.5721	-0
852.7364	0.1093
852.9007	-0.1264
853.0649	-0
853.2291	0.0519
853.3934	-0
853.5575	0.1076
853.7217	0.2239
853.8859	-0
854.05	-0.1916
854.2141	0.1695
854.3782	-0.3108
854.5423	0.3243
854.7063	0.3193
854.8703	0.0415
855.0343	0.0288
855.1983	-0.2189
855.3623	0.1404
855.5262	-0
855.6901	0.4181
855.854	0.2009
856.0179	-0.361
856.1818	-0
856.3456	0.4475
856.5094	-0
856.6732	-0.3267
856.837	-1.3308
857.0008	0.8087
857.1645	-0.2917
857.3282	-0.5946
857.4919	0.0885
857.6556	-0.2368
857.8192	-0.3074
857.9828	-0.1324
858.1465	0.0032
858.31	0.7239
858.4736	-0.1179
858.6372	-0.4893
858.8007	-0.0774
858.9642	0.4747
859.1277	0.7652
859.2911	-0.5879
859.4546	-0
859.618	0.6041
859.7814	-0
859.9448	-0
860.1081	-0
860.2715	-1.6021
860.4348	0.4012
860.5981	-0
860.7614	-0
860.9246	-0
861.0879	-0.3292
861.2511	0.4232
861.4143	-0
861.5774	-0.5302
861.7406	-0.2606
861.9037	-0
862.0668	-0.2596
862.2299	-0
862.393	-0
862.556	0.541
862.7191	-0.5581
862.8821	0.0248
863.0451	0.2668
863.208	-0.6808
863.371	-0.4868
863.5339	0.2458
863.6968	-0
863.8597	0.0677
864.0225	-0
864.1854	0.174
864.3482	-0
864.511	0.3894
864.6737	-0
864.8365	0.243
864.9992	-0
865.1619	-0.0936
865.3246	-1.8062
865.4873	-0.359
865.65	-0.1758
865.8126	0.3274
865.9752	-0.2041
866.1378	0.2842
866.3004	0.0038
866.4629	-2.0812
866.6254	-0.0611
866.7879	-0.4216
866.9504	-0
867.1129	-0
867.2753	-0.2964
867.4377	-0.2543
867.6001	-0.7881
867.7625	-0.3181
867.9249	0.3395
868.0872	-0.0535
868.2495	-0
868.4118	-0
868.5741	-0.2227
868.7363	0.3118
868.8986	-0
869.0608	0.1038
869.223	-0.6754
869.3851	-0
869.5473	-0.1672
869.7094	-0
869.8715	0.0314
870.0336	0.1275
870.1957	-0
870.3577	0.3587
870.5197	0.3001
870.6817	-0.2726
870.8437	1.0227
871.0057	0.9496
871.1676	0.3105
871.3295	-0
871.4914	-0
871.6533	-0.3996
871.8151	0.0851
871.977	-0
872.1388	-0
872.3006	-0.3676
872.4623	-0.1958
872.6241	-0
872.7858	0.0332
872.9475	-0
873.1092	0.0133
873.2709	1.5274
873.4325	-2.0218
873.5941	0.3078
873.7557	1.9482
873.9173	0.6057
874.0789	0.1019
874.2404	-0
874.4019	0.4445
874.5634	-0
874.7249	-0.0771
874.8863	-0
875.0478	0.3274
875.2092	0.5251
875.3706	-0
875.5319	-0
875.6933	-0.323
875.8546	0.3622
876.0159	0.1364
876.1772	-0
876.3385	-0
876.4997	0.2132
876.6609	-0
876.8221	-0
876.9833	-0.1766
877.1445	0.2155
877.3056	-0
877.4667	-1.0648
877.6278	-0
877.7889	0.252
877.9499	-0
878.111	-0.2041
878.272	-0.595
878.433	-0.0136
878.5939	0.7538
878.7549	1.769
878.9158	-0.2092
879.0767	-0
879.2376	-0
879.3984	-0
879.5593	0.2415
879.7201	-1.9529
879.8809	-0
880.0417	-0.1576
880.2024	0.6632
880.3632	-0.175
880.5239	-0.157
880.6846	-0.7032
880.8452	0.2768
881.0059	-0
881.1665	0.0866
881.3271	0.707
881.4877	0.641
881.6483	-1.0437
881.8088	-0
881.9693	-0
882.1298	-0
882.2903	-0
