Data from D4ACN5uM460nmA_Absorbance_13-05-42-245.txt Node
Date: Fri Feb 21 13:05:42 GMT 2025
User: LASERRRRR
Spectrometer: FLMT03099
Trigger mode: 0
Integration Time (sec): 1.500000E-2
Scans to average: 1
Electric dark correction enabled: true
Nonlinearity correction enabled: false
Boxcar width: 0
XAxis mode: Wavelengths
Number of Pixels in Spectrum: 3648
>>>>>Begin Spectral Data<<<<<
179.3399	-0.1648
179.5586	-0.1648
179.7771	-0.1648
179.9957	-0.4643
180.2143	-1.1923
180.4329	-0.1946
180.6514	-0
180.8699	0.3955
181.0885	-0
181.307	-0
181.5255	1.3852
181.744	-0
181.9625	0.0454
182.181	-0.5542
182.3994	-0.7164
182.6179	1.0117
182.8363	0.55
183.0547	0.0086
183.2732	-0.05
183.4916	0.0523
183.71	0.2089
183.9284	0.1019
184.1467	0.2977
184.3651	-0.0904
184.5835	0.0321
184.8018	0.0713
185.0201	0.0795
185.2385	0.0856
185.4568	0.1711
185.6751	0.0839
185.8934	0.0317
186.1117	-0.1431
186.3299	-0.019
186.5482	0.176
186.7664	0.307
186.9847	-0.086
187.2029	0.0864
187.4211	-0.0366
187.6393	0.2428
187.8575	0.1577
188.0757	0.2989
188.2939	0.2727
188.512	0.1263
188.7302	0.4581
188.9483	0.5454
189.1665	0.58
189.3846	0.4502
189.6027	0.0975
189.8208	0.3022
190.0389	0.1452
190.257	0.2233
190.475	0.0098
190.6931	0.0194
190.9111	-0.0419
191.1292	0.0602
191.3472	0.0957
191.5652	0.1254
191.7832	0.3976
192.0012	0.107
192.2192	0.0991
192.4371	0.0562
192.6551	0.1515
192.873	0.0825
193.091	0.2489
193.3089	0.0872
193.5268	0.1204
193.7447	0.1201
193.9626	0.1575
194.1805	0.1865
194.3984	0.1969
194.6162	0.2699
194.8341	0.1655
195.0519	0.1882
195.2697	0.2275
195.4875	0.2974
195.7054	0.2439
195.9231	0.1538
196.1409	0.2855
196.3587	0.2114
196.5765	0.3193
196.7942	0.2892
197.012	0.3102
197.2297	0.308
197.4474	0.3441
197.6651	0.3124
197.8828	0.2958
198.1005	0.3876
198.3182	0.3458
198.5358	0.3727
198.7535	0.3791
198.9711	0.3801
199.1888	0.3384
199.4064	0.4141
199.624	0.329
199.8416	0.3568
200.0592	0.3579
200.2767	0.4176
200.4943	0.3957
200.7119	0.3868
200.9294	0.3975
201.1469	0.4228
201.3645	0.4135
201.582	0.3989
201.7995	0.3876
202.017	0.3793
202.2344	0.4125
202.4519	0.3736
202.6694	0.3916
202.8868	0.3874
203.1042	0.3925
203.3217	0.3615
203.5391	0.4027
203.7565	0.3294
203.9739	0.3645
204.1913	0.3407
204.4086	0.3576
204.626	0.3537
204.8433	0.341
205.0607	0.3448
205.278	0.3418
205.4953	0.3164
205.7126	0.3365
205.9299	0.3179
206.1472	0.2985
206.3644	0.3388
206.5817	0.3405
206.7989	0.3204
207.0162	0.3259
207.2334	0.3265
207.4506	0.2884
207.6678	0.3221
207.885	0.295
208.1022	0.2979
208.3194	0.2724
208.5365	0.2997
208.7537	0.2618
208.9708	0.2787
209.1879	0.2951
209.405	0.269
209.6222	0.2808
209.8392	0.2631
210.0563	0.2806
210.2734	0.2601
210.4905	0.2704
210.7075	0.2885
210.9245	0.2696
211.1416	0.2651
211.3586	0.2679
211.5756	0.2617
211.7926	0.2755
212.0096	0.2621
212.2265	0.2769
212.4435	0.2599
212.6604	0.2601
212.8774	0.2535
213.0943	0.2582
213.3112	0.2409
213.5281	0.2525
213.745	0.2411
213.9619	0.2499
214.1788	0.2622
214.3956	0.2405
214.6125	0.2351
214.8293	0.2676
215.0461	0.2409
215.2629	0.2449
215.4798	0.253
215.6965	0.2382
215.9133	0.2384
216.1301	0.2572
216.3469	0.2459
216.5636	0.2459
216.7803	0.2448
216.9971	0.2518
217.2138	0.2638
217.4305	0.2447
217.6472	0.2562
217.8639	0.2514
218.0805	0.2558
218.2972	0.2541
218.5138	0.2456
218.7305	0.267
218.9471	0.2418
219.1637	0.2643
219.3803	0.2814
219.5969	0.2558
219.8135	0.2743
220.0301	0.26
220.2466	0.2579
220.4632	0.2507
220.6797	0.2651
220.8962	0.2655
221.1127	0.2702
221.3292	0.2809
221.5457	0.2771
221.7622	0.268
221.9787	0.2881
222.1951	0.2813
222.4116	0.2908
222.628	0.2846
222.8444	0.2704
223.0608	0.2903
223.2772	0.2786
223.4936	0.2747
223.71	0.2858
223.9264	0.2886
224.1427	0.2863
224.3591	0.2982
224.5754	0.2917
224.7917	0.2896
225.008	0.3035
225.2243	0.2959
225.4406	0.3033
225.6569	0.3127
225.8732	0.306
226.0894	0.3193
226.3057	0.3118
226.5219	0.32
226.7381	0.3252
226.9543	0.3015
227.1705	0.331
227.3867	0.3296
227.6029	0.3176
227.8191	0.3305
228.0352	0.3475
228.2513	0.342
228.4675	0.3328
228.6836	0.3479
228.8997	0.3396
229.1158	0.356
229.3319	0.3465
229.548	0.3547
229.764	0.3605
229.9801	0.3792
230.1961	0.3695
230.4121	0.3646
230.6282	0.38
230.8442	0.3835
231.0602	0.383
231.2761	0.3765
231.4921	0.3816
231.7081	0.3868
231.924	0.3937
232.14	0.4078
232.3559	0.3974
232.5718	0.4031
232.7877	0.4133
233.0036	0.406
233.2195	0.4062
233.4353	0.4215
233.6512	0.4192
233.867	0.4141
234.0829	0.4213
234.2987	0.4221
234.5145	0.4467
234.7303	0.429
234.9461	0.439
235.1619	0.4363
235.3776	0.4293
235.5934	0.4308
235.8091	0.4403
236.0249	0.4503
236.2406	0.449
236.4563	0.4412
236.672	0.4379
236.8877	0.4434
237.1034	0.4434
237.319	0.4432
237.5347	0.4492
237.7503	0.4506
237.966	0.4598
238.1816	0.4517
238.3972	0.449
238.6128	0.4668
238.8284	0.4572
239.0439	0.4622
239.2595	0.4601
239.475	0.4623
239.6906	0.4616
239.9061	0.4629
240.1216	0.4547
240.3371	0.459
240.5526	0.4558
240.7681	0.4512
240.9836	0.4642
241.199	0.4461
241.4145	0.4412
241.6299	0.4395
241.8453	0.4383
242.0607	0.4394
242.2761	0.4308
242.4915	0.4223
242.7069	0.4146
242.9223	0.4158
243.1376	0.4064
243.353	0.3999
243.5683	0.3874
243.7836	0.3806
243.9989	0.3725
244.2142	0.3774
244.4295	0.3717
244.6448	0.3671
244.86	0.3504
245.0753	0.3378
245.2905	0.3387
245.5057	0.3222
245.721	0.3371
245.9362	0.3293
246.1514	0.3164
246.3665	0.3067
246.5817	0.2942
246.7969	0.2951
247.012	0.2925
247.2271	0.2877
247.4423	0.2807
247.6574	0.282
247.8725	0.2662
248.0876	0.2659
248.3026	0.2642
248.5177	0.2559
248.7328	0.2522
248.9478	0.2535
249.1628	0.2462
249.3779	0.2346
249.5929	0.2366
249.8079	0.2381
250.0228	0.2258
250.2378	0.2258
250.4528	0.2264
250.6677	0.2207
250.8827	0.2142
251.0976	0.2077
251.3125	0.2162
251.5274	0.2081
251.7423	0.2018
251.9572	0.2041
252.172	0.2021
252.3869	0.2067
252.6017	0.1999
252.8166	0.1987
253.0314	0.1979
253.2462	0.1968
253.461	0.197
253.6758	0.1965
253.8906	0.1955
254.1053	0.1971
254.3201	0.1947
254.5348	0.1841
254.7496	0.1824
254.9643	0.1874
255.179	0.1857
255.3937	0.1858
255.6083	0.1884
255.823	0.1844
256.0377	0.1825
256.2523	0.1725
256.467	0.1853
256.6816	0.1783
256.8962	0.1864
257.1108	0.1836
257.3254	0.1746
257.54	0.18
257.7545	0.1842
257.9691	0.1843
258.1836	0.1719
258.3981	0.1759
258.6127	0.176
258.8272	0.1782
259.0417	0.1708
259.2561	0.174
259.4706	0.1762
259.6851	0.1786
259.8995	0.1726
260.114	0.173
260.3284	0.1793
260.5428	0.178
260.7572	0.1707
260.9716	0.1755
261.186	0.174
261.4003	0.1731
261.6147	0.1759
261.829	0.1762
262.0433	0.1797
262.2577	0.1804
262.472	0.1685
262.6863	0.1784
262.9005	0.173
263.1148	0.1709
263.3291	0.1741
263.5433	0.1791
263.7576	0.1752
263.9718	0.1709
264.186	0.1741
264.4002	0.1779
264.6144	0.1794
264.8286	0.1775
265.0427	0.1791
265.2569	0.176
265.471	0.18
265.6851	0.1806
265.8993	0.1721
266.1134	0.1723
266.3275	0.1788
266.5415	0.1785
266.7556	0.1863
266.9697	0.1803
267.1837	0.1768
267.3978	0.1752
267.6118	0.1775
267.8258	0.1783
268.0398	0.1793
268.2538	0.1733
268.4677	0.1724
268.6817	0.1738
268.8957	0.1695
269.1096	0.1672
269.3235	0.1704
269.5374	0.1723
269.7514	0.173
269.9652	0.1734
270.1791	0.1654
270.393	0.167
270.6068	0.1702
270.8207	0.1662
271.0345	0.166
271.2483	0.1633
271.4622	0.1714
271.676	0.1694
271.8897	0.1703
272.1035	0.1702
272.3173	0.1637
272.531	0.1708
272.7448	0.1676
272.9585	0.1636
273.1722	0.1573
273.3859	0.1714
273.5996	0.1695
273.8133	0.1708
274.0269	0.1576
274.2406	0.1716
274.4542	0.165
274.6679	0.1687
274.8815	0.169
275.0951	0.1732
275.3087	0.1741
275.5223	0.1705
275.7358	0.1705
275.9494	0.173
276.1629	0.1714
276.3765	0.1704
276.59	0.1649
276.8035	0.1689
277.017	0.1741
277.2305	0.1788
277.444	0.1713
277.6574	0.1724
277.8709	0.182
278.0843	0.1759
278.2978	0.1736
278.5112	0.1772
278.7246	0.1732
278.938	0.1754
279.1513	0.1796
279.3647	0.1736
279.5781	0.1778
279.7914	0.1713
280.0047	0.1759
280.2181	0.1743
280.4314	0.1742
280.6447	0.1792
280.8579	0.172
281.0712	0.1733
281.2845	0.1715
281.4977	0.1762
281.711	0.1732
281.9242	0.1781
282.1374	0.1745
282.3506	0.1813
282.5638	0.1753
282.7769	0.1753
282.9901	0.1791
283.2033	0.1858
283.4164	0.1761
283.6295	0.1794
283.8426	0.1801
284.0557	0.1851
284.2688	0.1805
284.4819	0.1733
284.695	0.186
284.908	0.1752
285.1211	0.1832
285.3341	0.1758
285.5471	0.1884
285.7601	0.182
285.9731	0.1824
286.1861	0.1892
286.3991	0.1842
286.612	0.1817
286.825	0.1847
287.0379	0.1849
287.2508	0.1857
287.4637	0.1845
287.6766	0.186
287.8895	0.183
288.1024	0.183
288.3152	0.1843
288.5281	0.1857
288.7409	0.1878
288.9538	0.1891
289.1666	0.1901
289.3794	0.1912
289.5922	0.1886
289.8049	0.1905
290.0177	0.1912
290.2304	0.1917
290.4432	0.1937
290.6559	0.1944
290.8686	0.1926
291.0813	0.1885
291.294	0.1897
291.5067	0.1917
291.7194	0.1891
291.932	0.1903
292.1447	0.1945
292.3573	0.1917
292.5699	0.1941
292.7825	0.1898
292.9951	0.1901
293.2077	0.1929
293.4203	0.1892
293.6328	0.1884
293.8454	0.1935
294.0579	0.1886
294.2704	0.1927
294.4829	0.1915
294.6954	0.1932
294.9079	0.1957
295.1204	0.1884
295.3328	0.1904
295.5453	0.1903
295.7577	0.1915
295.9701	0.1911
296.1825	0.1907
296.3949	0.1875
296.6073	0.1928
296.8197	0.1948
297.0321	0.1908
297.2444	0.1921
297.4567	0.2
297.6691	0.1904
297.8814	0.189
298.0937	0.1922
298.306	0.1905
298.5182	0.1953
298.7305	0.1919
298.9428	0.1882
299.155	0.1862
299.3672	0.1931
299.5794	0.1914
299.7916	0.1925
300.0038	0.1924
300.216	0.1946
300.4282	0.1904
300.6403	0.1949
300.8525	0.193
301.0646	0.1933
301.2767	0.1914
301.4888	0.1916
301.7009	0.1943
301.913	0.1948
302.125	0.1932
302.3371	0.1926
302.5491	0.1944
302.7612	0.1966
302.9732	0.1939
303.1852	0.1951
303.3972	0.1935
303.6092	0.192
303.8211	0.1905
304.0331	0.1874
304.245	0.1862
304.457	0.1912
304.6689	0.1871
304.8808	0.1846
305.0927	0.189
305.3046	0.1852
305.5164	0.1845
305.7283	0.1835
305.9401	0.1745
306.152	0.1805
306.3638	0.1771
306.5756	0.1808
306.7874	0.1778
306.9992	0.1763
307.2109	0.1739
307.4227	0.1656
307.6344	0.1706
307.8462	0.1674
308.0579	0.1685
308.2696	0.1652
308.4813	0.1702
308.693	0.1591
308.9046	0.1649
309.1163	0.1595
309.328	0.1614
309.5396	0.1582
309.7512	0.1531
309.9628	0.153
310.1744	0.1497
310.386	0.1455
310.5976	0.1458
310.8091	0.1492
311.0207	0.1486
311.2322	0.1401
311.4437	0.1416
311.6552	0.1424
311.8667	0.1377
312.0782	0.1378
312.2897	0.1368
312.5012	0.14
312.7126	0.1326
312.924	0.1362
313.1355	0.131
313.3469	0.1306
313.5583	0.129
313.7696	0.1238
313.981	0.1339
314.1924	0.1261
314.4037	0.1256
314.6151	0.1259
314.8264	0.1269
315.0377	0.1259
315.249	0.128
315.4603	0.1252
315.6716	0.1289
315.8828	0.12
316.0941	0.129
316.3053	0.123
316.5165	0.1239
316.7277	0.1188
316.9389	0.1258
317.1501	0.1211
317.3613	0.1221
317.5724	0.1209
317.7836	0.1163
317.9947	0.1175
318.2058	0.114
318.417	0.1196
318.6281	0.1209
318.8391	0.1193
319.0502	0.1225
319.2613	0.1216
319.4723	0.1202
319.6834	0.1237
319.8944	0.1157
320.1054	0.1194
320.3164	0.1157
320.5274	0.1206
320.7383	0.1211
320.9493	0.1173
321.1602	0.1196
321.3712	0.1207
321.5821	0.1181
321.793	0.1274
322.0039	0.1206
322.2148	0.1225
322.4257	0.1208
322.6365	0.1181
322.8474	0.1215
323.0582	0.1197
323.269	0.1191
323.4798	0.1248
323.6906	0.1231
323.9014	0.1162
324.1122	0.1188
324.3229	0.1268
324.5337	0.1198
324.7444	0.1246
324.9551	0.1226
325.1658	0.1239
325.3765	0.1214
325.5872	0.1239
325.7979	0.1252
326.0085	0.1216
326.2192	0.118
326.4298	0.1229
326.6404	0.1295
326.851	0.1229
327.0616	0.1159
327.2722	0.1252
327.4828	0.1218
327.6933	0.1266
327.9039	0.1246
328.1144	0.1252
328.3249	0.1222
328.5354	0.1268
328.7459	0.1256
328.9564	0.1296
329.1669	0.1311
329.3773	0.1255
329.5878	0.1259
329.7982	0.1292
330.0086	0.1308
330.219	0.1234
330.4294	0.1282
330.6398	0.1288
330.8502	0.1335
331.0605	0.1276
331.2708	0.1253
331.4812	0.1288
331.6915	0.1333
331.9018	0.1273
332.1121	0.1334
332.3224	0.1317
332.5326	0.119
332.7429	0.1332
332.9531	0.1348
333.1633	0.129
333.3735	0.1286
333.5837	0.1291
333.7939	0.1318
334.0041	0.1332
334.2143	0.126
334.4244	0.1361
334.6346	0.1296
334.8447	0.1303
335.0548	0.1348
335.2649	0.1379
335.475	0.1356
335.685	0.1311
335.8951	0.1334
336.1051	0.1334
336.3152	0.1381
336.5252	0.1309
336.7352	0.1301
336.9452	0.1357
337.1552	0.1352
337.3652	0.1337
337.5751	0.1366
337.7851	0.1385
337.995	0.1382
338.2049	0.1353
338.4148	0.14
338.6247	0.1389
338.8346	0.1317
339.0445	0.1397
339.2543	0.1392
339.4642	0.1338
339.674	0.1349
339.8838	0.1355
340.0936	0.135
340.3034	0.145
340.5132	0.135
340.7229	0.1389
340.9327	0.1434
341.1424	0.1399
341.3522	0.1407
341.5619	0.1403
341.7716	0.1485
341.9813	0.148
342.1909	0.1463
342.4006	0.1509
342.6102	0.1425
342.8199	0.1394
343.0295	0.137
343.2391	0.1447
343.4487	0.1419
343.6583	0.1514
343.8679	0.1465
344.0774	0.1473
344.287	0.1478
344.4965	0.15
344.706	0.1495
344.9155	0.1496
345.125	0.1468
345.3345	0.1625
345.544	0.152
345.7534	0.155
345.9629	0.1524
346.1723	0.1594
346.3817	0.152
346.5911	0.157
346.8005	0.1609
347.0099	0.1559
347.2193	0.1674
347.4286	0.1661
347.638	0.16
347.8473	0.1628
348.0566	0.1576
348.2659	0.1598
348.4752	0.1636
348.6845	0.1634
348.8937	0.1604
349.103	0.1635
349.3122	0.1657
349.5214	0.1619
349.7306	0.1701
349.9398	0.1647
350.149	0.1645
350.3582	0.1691
350.5674	0.1684
350.7765	0.1685
350.9856	0.1604
351.1948	0.1753
351.4039	0.1759
351.613	0.1676
351.822	0.179
352.0311	0.1722
352.2402	0.1757
352.4492	0.1752
352.6582	0.1705
352.8672	0.1746
353.0762	0.1819
353.2852	0.1836
353.4942	0.179
353.7032	0.1824
353.9121	0.178
354.1211	0.1833
354.33	0.1799
354.5389	0.1752
354.7478	0.1766
354.9567	0.1856
355.1655	0.1796
355.3744	0.1795
355.5833	0.1819
355.7921	0.1983
356.0009	0.1809
356.2097	0.1764
356.4185	0.1869
356.6273	0.1807
356.8361	0.183
357.0448	0.1928
357.2536	0.1882
357.4623	0.1919
357.671	0.1911
357.8797	0.1915
358.0884	0.1825
358.2971	0.1888
358.5057	0.1927
358.7144	0.1951
358.923	0.1935
359.1316	0.2009
359.3402	0.1969
359.5488	0.1949
359.7574	0.202
359.966	0.2001
360.1746	0.1946
360.3831	0.2038
360.5916	0.1994
360.8002	0.2097
361.0087	0.1961
361.2172	0.2094
361.4256	0.2002
361.6341	0.211
361.8426	0.2086
362.051	0.205
362.2594	0.2052
362.4678	0.2156
362.6762	0.222
362.8846	0.2184
363.093	0.2175
363.3014	0.2211
363.5097	0.2266
363.718	0.2224
363.9264	0.2192
364.1347	0.2245
364.343	0.2255
364.5513	0.2225
364.7595	0.2327
364.9678	0.2185
365.176	0.2346
365.3842	0.2243
365.5925	0.2248
365.8007	0.2349
366.0089	0.2357
366.217	0.238
366.4252	0.2378
366.6333	0.2329
366.8415	0.24
367.0496	0.2375
367.2577	0.2399
367.4658	0.2369
367.6739	0.2356
367.882	0.2453
368.09	0.2285
368.2981	0.242
368.5061	0.2462
368.7141	0.2416
368.9221	0.2524
369.1301	0.2522
369.3381	0.2494
369.5461	0.2473
369.754	0.2526
369.962	0.2441
370.1699	0.2541
370.3778	0.2654
370.5857	0.2517
370.7936	0.2588
371.0015	0.2532
371.2093	0.252
371.4172	0.2601
371.625	0.2611
371.8328	0.2506
372.0406	0.2665
372.2484	0.262
372.4562	0.2621
372.664	0.2598
372.8717	0.2639
373.0795	0.275
373.2872	0.2688
373.4949	0.2708
373.7026	0.2624
373.9103	0.2604
374.118	0.2628
374.3256	0.2729
374.5333	0.2727
374.7409	0.2714
374.9485	0.2737
375.1561	0.2752
375.3637	0.2718
375.5713	0.2806
375.7789	0.2818
375.9864	0.2685
376.194	0.2812
376.4015	0.2763
376.609	0.2807
376.8165	0.2818
377.024	0.2693
377.2315	0.2878
377.4389	0.2625
377.6464	0.2861
377.8538	0.286
378.0612	0.2876
378.2686	0.2814
378.476	0.2917
378.6834	0.2842
378.8908	0.2893
379.0981	0.2816
379.3055	0.2932
379.5128	0.2863
379.7201	0.298
379.9274	0.2965
380.1347	0.2959
380.342	0.2999
380.5492	0.2978
380.7565	0.2946
380.9637	0.2888
381.1709	0.3022
381.3781	0.2943
381.5853	0.293
381.7925	0.2972
381.9997	0.3095
382.2068	0.2958
382.4139	0.299
382.6211	0.3006
382.8282	0.3161
383.0353	0.3106
383.2424	0.3038
383.4494	0.3072
383.6565	0.3028
383.8635	0.2951
384.0706	0.3096
384.2776	0.3059
384.4846	0.3024
384.6916	0.3041
384.8986	0.3136
385.1055	0.3107
385.3125	0.3151
385.5194	0.3127
385.7263	0.3094
385.9333	0.3138
386.1402	0.3115
386.347	0.295
386.5539	0.3137
386.7608	0.3042
386.9676	0.3057
387.1744	0.3072
387.3813	0.3005
387.5881	0.306
387.7948	0.3071
388.0016	0.3182
388.2084	0.3015
388.4151	0.306
388.6219	0.3042
388.8286	0.3123
389.0353	0.304
389.242	0.2974
389.4487	0.2986
389.6553	0.2904
389.862	0.2977
390.0686	0.2999
390.2753	0.296
390.4819	0.3015
390.6885	0.3005
390.8951	0.2972
391.1016	0.2948
391.3082	0.2964
391.5147	0.2906
391.7213	0.2905
391.9278	0.2912
392.1343	0.2968
392.3408	0.299
392.5473	0.2927
392.7537	0.2826
392.9602	0.2904
393.1666	0.2859
393.373	0.2752
393.5794	0.2828
393.7858	0.2849
393.9922	0.2864
394.1986	0.2852
394.4049	0.2877
394.6113	0.2792
394.8176	0.2745
395.0239	0.2752
395.2302	0.2728
395.4365	0.2702
395.6428	0.2835
395.8491	0.2694
396.0553	0.2688
396.2615	0.2794
396.4678	0.2736
396.674	0.2616
396.8802	0.2685
397.0863	0.2684
397.2925	0.2711
397.4987	0.2599
397.7048	0.2721
397.9109	0.2652
398.117	0.267
398.3231	0.2623
398.5292	0.2642
398.7353	0.2559
398.9413	0.2741
399.1474	0.2646
399.3534	0.2531
399.5594	0.2607
399.7654	0.2572
399.9714	0.2611
400.1774	0.2545
400.3833	0.2635
400.5893	0.252
400.7952	0.267
401.0011	0.2512
401.207	0.2612
401.4129	0.2652
401.6188	0.2622
401.8247	0.2656
402.0305	0.2645
402.2364	0.2643
402.4422	0.2709
402.648	0.2597
402.8538	0.2493
403.0596	0.2566
403.2654	0.2678
403.4711	0.2541
403.6768	0.2536
403.8826	0.263
404.0883	0.2635
404.294	0.2603
404.4997	0.2533
404.7054	0.2655
404.911	0.259
405.1167	0.2663
405.3223	0.2512
405.5279	0.2646
405.7335	0.2551
405.9391	0.2568
406.1447	0.2665
406.3502	0.2617
406.5558	0.2598
406.7613	0.2644
406.9668	0.2517
407.1724	0.2598
407.3778	0.2658
407.5833	0.2469
407.7888	0.2566
407.9942	0.2593
408.1997	0.2632
408.4051	0.2653
408.6105	0.2611
408.8159	0.2539
409.0213	0.2702
409.2267	0.2657
409.432	0.255
409.6374	0.2544
409.8427	0.2635
410.048	0.2648
410.2533	0.2639
410.4586	0.2639
410.6639	0.2651
410.8691	0.2483
411.0744	0.2571
411.2796	0.2472
411.4848	0.2594
411.69	0.2555
411.8952	0.2574
412.1004	0.2545
412.3056	0.2613
412.5107	0.262
412.7158	0.2668
412.921	0.267
413.1261	0.2531
413.3312	0.2671
413.5362	0.2653
413.7413	0.262
413.9464	0.2402
414.1514	0.2506
414.3564	0.2604
414.5614	0.2575
414.7664	0.2598
414.9714	0.2465
415.1764	0.2586
415.3813	0.2502
415.5863	0.2646
415.7912	0.2548
415.9961	0.2516
416.201	0.2606
416.4059	0.2451
416.6108	0.2564
416.8156	0.2524
417.0205	0.2609
417.2253	0.2607
417.4301	0.2563
417.6349	0.2485
417.8397	0.2487
418.0445	0.2473
418.2492	0.2397
418.454	0.2421
418.6587	0.2478
418.8634	0.2519
419.0681	0.2526
419.2728	0.2463
419.4775	0.2503
419.6822	0.2443
419.8868	0.2361
420.0915	0.2441
420.2961	0.2411
420.5007	0.2463
420.7053	0.2397
420.9099	0.249
421.1144	0.234
421.319	0.2357
421.5235	0.2321
421.728	0.2379
421.9325	0.2333
422.137	0.2393
422.3415	0.2366
422.546	0.2319
422.7504	0.23
422.9549	0.247
423.1593	0.2251
423.3637	0.2321
423.5681	0.2349
423.7725	0.2267
423.9769	0.2372
424.1812	0.2192
424.3856	0.2233
424.5899	0.2216
424.7942	0.2211
424.9985	0.2274
425.2028	0.2298
425.4071	0.2248
425.6113	0.2248
425.8156	0.235
426.0198	0.229
426.224	0.2208
426.4282	0.2155
426.6324	0.2188
426.8366	0.2108
427.0407	0.2115
427.2449	0.2119
427.449	0.2173
427.6531	0.2219
427.8572	0.2098
428.0613	0.2217
428.2654	0.212
428.4694	0.205
428.6735	0.2022
428.8775	0.2077
429.0815	0.2083
429.2855	0.2009
429.4895	0.1947
429.6935	0.1997
429.8975	0.1927
430.1014	0.1965
430.3053	0.1938
430.5093	0.1904
430.7132	0.1855
430.9171	0.1877
431.1209	0.1917
431.3248	0.1774
431.5286	0.181
431.7325	0.1887
431.9363	0.1838
432.1401	0.1786
432.3439	0.1823
432.5477	0.1708
432.7514	0.1701
432.9552	0.1686
433.1589	0.1657
433.3627	0.1734
433.5664	0.1614
433.7701	0.1688
433.9737	0.1668
434.1774	0.1648
434.3811	0.1603
434.5847	0.1518
434.7883	0.1571
434.9919	0.1609
435.1955	0.1605
435.3991	0.1601
435.6027	0.1512
435.8062	0.1639
436.0098	0.1471
436.2133	0.1395
436.4168	0.1404
436.6203	0.1445
436.8238	0.1367
437.0272	0.1357
437.2307	0.1335
437.4341	0.136
437.6375	0.1275
437.841	0.1312
438.0443	0.1286
438.2477	0.1183
438.4511	0.1132
438.6545	0.119
438.8578	0.1218
439.0611	0.1246
439.2644	0.12
439.4677	0.1168
439.671	0.1107
439.8743	0.115
440.0775	0.1086
440.2808	0.1055
440.484	0.1129
440.6872	0.1143
440.8904	0.0938
441.0936	0.1108
441.2967	0.0948
441.4999	0.0974
441.703	0.1037
441.9062	0.0966
442.1093	0.1071
442.3124	0.0972
442.5155	0.1043
442.7185	0.0856
442.9216	0.0928
443.1246	0.0901
443.3276	0.081
443.5307	0.0791
443.7337	0.0837
443.9366	0.0809
444.1396	0.0813
444.3426	0.0828
444.5455	0.0827
444.7484	0.0694
444.9513	0.0836
445.1542	0.08
445.3571	0.0746
445.56	0.0692
445.7628	0.0662
445.9657	0.0714
446.1685	0.0675
446.3713	0.0679
446.5741	0.072
446.7769	0.0768
446.9797	0.0729
447.1824	0.0686
447.3852	0.0591
447.5879	0.0599
447.7906	0.0545
447.9933	0.0599
448.196	0.058
448.3986	0.0629
448.6013	0.0483
448.8039	0.054
449.0066	0.0667
449.2092	0.0533
449.4118	0.0458
449.6143	0.0545
449.8169	0.0488
450.0195	0.0427
450.222	0.0556
450.4245	0.0497
450.627	0.0408
450.8295	0.0483
451.032	0.0426
451.2345	0.0404
451.4369	0.0481
451.6394	0.0482
451.8418	0.0423
452.0442	0.0485
452.2466	0.0255
452.449	0.0467
452.6513	0.0343
452.8537	0.0318
453.056	0.0369
453.2583	0.0343
453.4607	0.0283
453.663	0.028
453.8652	0.0318
454.0675	0.042
454.2697	0.0384
454.472	0.0211
454.6742	0.0305
454.8764	0.0348
455.0786	0.0219
455.2808	0.0251
455.4829	0.0346
455.6851	0.0255
455.8872	0.0325
456.0893	0.0333
456.2915	0.0108
456.4935	0.0311
456.6956	0.0209
456.8977	0.0226
457.0997	0.0264
457.3018	0.018
457.5038	0.017
457.7058	0.0296
457.9078	0.0231
458.1098	0.0248
458.3117	0.0288
458.5137	0.0082
458.7156	0.0302
458.9175	0.0295
459.1194	0.0202
459.3213	0.0183
459.5232	0.0284
459.725	0.019
459.9269	0.0158
460.1287	0.016
460.3305	0.0258
460.5323	0.0244
460.7341	0.0088
460.9359	0.0133
461.1376	0.0213
461.3394	0.0218
461.5411	0.0257
461.7428	0.0085
461.9445	0.0192
462.1462	0.015
462.3479	0.0143
462.5495	0.0161
462.7512	0.0187
462.9528	0.0131
463.1544	0.0113
463.356	0.0028
463.5576	0.0166
463.7592	0.0128
463.9607	0.0082
464.1623	0.0059
464.3638	0.0078
464.5653	0.0139
464.7668	0.0148
464.9683	0.0095
465.1697	0.0118
465.3712	0.0031
465.5726	0.0104
465.7741	0.0123
465.9755	0.0122
466.1769	0.0171
466.3782	0.0047
466.5796	0.0147
466.7809	0.0109
466.9823	0.0046
467.1836	0.0089
467.3849	0.0102
467.5862	0.0018
467.7875	0.0077
467.9887	0.0094
468.19	0.0116
468.3912	0.0195
468.5924	0.012
468.7936	0.0087
468.9948	0.0057
469.196	0.0042
469.3972	-0.003
469.5983	0.0086
469.7994	0.0059
470.0006	0.0104
470.2017	0.0075
470.4027	0.0206
470.6038	0.0043
470.8049	0.0044
471.0059	0.0118
471.2069	0.0111
471.408	0.0146
471.6089	0.0077
471.8099	0.0022
472.0109	0.008
472.2119	0.013
472.4128	0.0063
472.6137	0.0107
472.8146	0.0075
473.0155	0.0149
473.2164	0.0061
473.4173	-0.0045
473.6181	-0.0022
473.819	0.0075
474.0198	-0.0049
474.2206	0.002
474.4214	0.0032
474.6222	-0.0025
474.8229	0.001
475.0237	0.0141
475.2244	0.0051
475.4251	0.0082
475.6258	-0.0028
475.8265	0.0099
476.0272	0.0047
476.2278	-0.004
476.4285	0.0084
476.6291	0.001
476.8297	0.0005
477.0303	0.003
477.2309	0.0019
477.4315	0.0081
477.632	0.0003
477.8326	0.0078
478.0331	0.0025
478.2336	-0.0021
478.4341	0.0137
478.6346	-0.0045
478.8351	0.0052
479.0355	0.0013
479.236	0.0128
479.4364	0.0043
479.6368	0.002
479.8372	0.0053
480.0376	0.0087
480.2379	0.0052
480.4383	0.0116
480.6386	-0.0013
480.8389	0.0004
481.0392	0.0014
481.2395	0.0103
481.4398	0.0062
481.6401	0.0071
481.8403	-0.002
482.0405	0.0013
482.2408	0.0063
482.441	0.0088
482.6411	0.0067
482.8413	-0.0054
483.0415	0.0035
483.2416	0.0024
483.4417	0.008
483.6419	-0.0076
483.8419	0.0075
484.042	0.0048
484.2421	-0.0036
484.4422	-0.0013
484.6422	0.0028
484.8422	0.0079
485.0422	0.0037
485.2422	-0.001
485.4422	0.003
485.6422	0.0002
485.8421	-0.0005
486.042	0.0094
486.242	0.0014
486.4419	0.0074
486.6417	-0.0028
486.8416	-0.0011
487.0415	-0.0053
487.2413	-0.0073
487.4411	0.0065
487.641	-0.003
487.8408	0.0004
488.0405	0.0089
488.2403	-0.0012
488.4401	0.0061
488.6398	-0.0008
488.8395	0.0085
489.0392	0.0088
489.2389	0.0049
489.4386	-0.0107
489.6383	-0.0004
489.8379	0.0059
490.0376	0.0061
490.2372	0.0069
490.4368	0.0058
490.6364	0.0002
490.836	0.0015
491.0355	0.0024
491.2351	0.0084
491.4346	0.0111
491.6341	-0.0003
491.8336	0.0034
492.0331	-0.0028
492.2326	-0.0008
492.432	0.0013
492.6315	0.0104
492.8309	0.0063
493.0303	0.0039
493.2297	0.0005
493.4291	-0.0038
493.6284	0.0089
493.8278	-0.001
494.0271	0.0042
494.2264	0.0029
494.4257	0.0034
494.625	-0.0046
494.8243	-0.0012
495.0236	0.0119
495.2228	0.0071
495.422	0.0027
495.6213	0.0082
495.8205	0.0119
496.0196	0.0057
496.2188	0.0019
496.418	-0.0028
496.6171	0.0006
496.8162	0.0042
497.0153	0.0078
497.2144	0.0073
497.4135	0.0081
497.6126	-0.0007
497.8116	-0.0023
498.0107	0.0013
498.2097	0.0092
498.4087	0.0041
498.6077	-0.0077
498.8067	-0.0013
499.0056	-0.0055
499.2046	0.0048
499.4035	0.0039
499.6024	0.0032
499.8013	0.0079
500.0002	0.0022
500.199	0.0067
500.3979	-0.0093
500.5967	0.0011
500.7956	-0.0007
500.9944	0.0019
501.1932	0.0082
501.3919	0.0049
501.5907	0.0054
501.7895	0.0012
501.9882	0.001
502.1869	0.0085
502.3856	-0.0004
502.5843	0.0018
502.783	0.0004
502.9816	0.0082
503.1803	0.0015
503.3789	0.0033
503.5775	-0.0061
503.7761	-0.0004
503.9747	-0.0009
504.1732	-0.004
504.3718	0.0123
504.5703	0.001
504.7689	-0.0073
504.9674	0.0031
505.1658	-0.005
505.3643	0.008
505.5628	0.0075
505.7612	0.0082
505.9597	-0.0046
506.1581	-0.002
506.3565	0.0059
506.5549	0.0022
506.7532	0.0026
506.9516	-0.0005
507.1499	0.004
507.3482	-0
507.5465	-0.0029
507.7448	0.0024
507.9431	0.0092
508.1414	-0.0005
508.3396	0.0014
508.5379	-0.0012
508.7361	0.007
508.9343	0.0064
509.1325	0.0092
509.3306	0.011
509.5288	-0.0107
509.7269	0.0119
509.9251	0.0063
510.1232	0.0065
510.3213	0.0065
510.5193	0.0034
510.7174	0.0023
510.9154	0.0112
511.1135	-0.0048
511.3115	-0.0028
511.5095	0.0064
511.7075	-0.0032
511.9055	-0.0028
512.1034	-0.0117
512.3014	0.0068
512.4993	0.0115
512.6972	-0.0019
512.8951	0.0054
513.093	-0.0064
513.2908	0.0217
513.4887	0.0079
513.6865	0.0016
513.8844	0.0067
514.0822	-0.0047
514.2799	-0.0049
514.4777	-0.0066
514.6755	-0.0021
514.8732	0.0116
515.0709	0.0037
515.2687	0.009
515.4664	0.0097
515.664	0.0084
515.8617	0.0128
516.0594	0.0011
516.257	0.008
516.4546	0.0129
516.6522	0.0001
516.8498	0.0021
517.0474	0.0027
517.2449	-0.0018
517.4425	0.0071
517.64	0.002
517.8375	0.0054
518.035	-0.0021
518.2325	-0.0052
518.43	0.0034
518.6274	-0.0015
518.8249	0.0021
519.0223	0.0131
519.2197	0.0046
519.4171	-0.0011
519.6145	0.0002
519.8118	-0.0078
520.0092	-0.0018
520.2065	0.0139
520.4038	0.0013
520.6011	-0.0032
520.7984	0.0021
520.9956	0.011
521.1929	0.008
521.3901	0.0104
521.5874	0
521.7846	-0.0015
521.9818	-0.0122
522.1789	0.0018
522.3761	0.0178
522.5732	0.0026
522.7704	-0.012
522.9675	-0.0017
523.1646	0.0069
523.3617	0.0046
523.5587	0.0127
523.7558	0.0054
523.9528	-0.0006
524.1498	-0.0019
524.3468	-0.003
524.5438	0.0062
524.7408	-0.0095
524.9378	0.0043
525.1347	0.0096
525.3316	-0.0029
525.5285	0.0062
525.7254	0.006
525.9223	0.0042
526.1192	0.0192
526.316	0.0064
526.5129	0.001
526.7097	-0.0034
526.9065	0.0076
527.1033	0.0048
527.3	0.0076
527.4968	0.0148
527.6935	-0.0022
527.8903	0.0038
528.087	0.001
528.2837	0.007
528.4804	0.0018
528.677	0.0062
528.8737	-0.0044
529.0703	-0.0019
529.2669	0.0063
529.4635	0.0007
529.6601	-0.0056
529.8567	-0.0015
530.0532	0.0009
530.2498	-0.0088
530.4463	-0.0072
530.6428	-0.0001
530.8393	0.0065
531.0358	-0.0044
531.2322	-0.0036
531.4287	0.0065
531.6251	-0.0036
531.8215	0.0059
532.0179	0.0072
532.2143	0.0066
532.4107	0.006
532.607	-0.0076
532.8034	-0.0031
532.9997	0.0021
533.196	-0.0066
533.3923	0.0065
533.5886	0.0011
533.7848	0.0013
533.9811	0.0068
534.1773	0.0036
534.3735	0.0016
534.5697	-0.0003
534.7659	0.0015
534.9621	-0.001
535.1582	0.0186
535.3544	0.0017
535.5505	-0.0004
535.7466	-0.0007
535.9427	-0.0006
536.1387	-0.0007
536.3348	-0.0009
536.5308	-0.0004
536.7269	0.0017
536.9229	-0.0008
537.1189	0.0047
537.3148	-0.0007
537.5108	0.0041
537.7068	0.0055
537.9027	-0.0153
538.0986	0.0071
538.2945	-0.0047
538.4904	-0.013
538.6863	0.0021
538.8821	0.0039
539.078	0.0062
539.2738	0.0033
539.4696	0.0026
539.6654	0.0022
539.8611	0.0001
540.0569	-0.0017
540.2526	0.0098
540.4484	-0.004
540.6441	0.0039
540.8398	0.0047
541.0355	0.0013
541.2311	-0.0062
541.4268	0.0013
541.6224	0.0091
541.818	0.0024
542.0136	0.0091
542.2092	0.0085
542.4048	0.009
542.6003	0.0048
542.7959	0.0015
542.9914	0.0069
543.1869	0.0042
543.3824	0.0027
543.5779	0.0145
543.7734	0.0109
543.9688	0.0124
544.1642	0.0029
544.3596	0.0131
544.555	0.0053
544.7504	0.0096
544.9458	0.0124
545.1411	-0.0045
545.3365	-0.001
545.5318	0.0055
545.7271	0.0039
545.9224	-0.0059
546.1177	0.004
546.3129	-0.0038
546.5081	0.0039
546.7034	-0.0018
546.8986	-0.001
547.0938	0.0053
547.289	0.0115
547.4841	0.003
547.6793	-0.001
547.8744	0.008
548.0695	-0.0002
548.2646	0.0099
548.4597	-0.0032
548.6548	0.0144
548.8498	0.0155
549.0448	-0.0025
549.2399	0.0047
549.4349	0.0076
549.6298	0.0051
549.8248	-0.0114
550.0198	0.009
550.2147	0.005
550.4096	-0.0008
550.6045	0.003
550.7994	0.0097
550.9943	-0.0004
551.1892	-0.0123
551.384	0.0066
551.5788	0.0043
551.7737	0.0046
551.9685	-0.0018
552.1632	0.0012
552.358	-0.0079
552.5528	0.0024
552.7475	0.0047
552.9422	0.0122
553.1369	0.0144
553.3316	0.0005
553.5263	0.0083
553.7209	0.0057
553.9156	0.0062
554.1102	0.0017
554.3048	-0.0064
554.4994	-0.0024
554.694	-0.0035
554.8885	-0.0023
555.0831	-0.0017
555.2776	0.0033
555.4721	0.0094
555.6666	-0.0016
555.8611	-0.003
556.0555	0.0045
556.25	0.0043
556.4444	-0.0008
556.6388	-0.0038
556.8332	0.0005
557.0276	0.008
557.222	-0.0069
557.4163	-0.005
557.6107	-0.004
557.805	-0.0045
557.9993	0.011
558.1936	-0.0075
558.3879	0.004
558.5821	0.0029
558.7764	-0.0017
558.9706	0.0016
559.1648	0.0019
559.359	0.003
559.5532	0.0053
559.7473	-0.0025
559.9415	0.0096
560.1356	0.0135
560.3297	0.0024
560.5238	0.0122
560.7179	-0.003
560.9119	0.001
561.106	-0.0047
561.3	0.003
561.494	-0.0019
561.688	0.0114
561.882	0.0047
562.076	-0.001
562.2699	0.0092
562.4639	0.0158
562.6578	0.0154
562.8517	0.0049
563.0456	0.0059
563.2395	-0.0027
563.4333	-0.0018
563.6272	-0.0018
563.821	-0.0043
564.0148	-0.0006
564.2086	-0.0001
564.4024	0.0158
564.5961	0.0075
564.7899	0.0142
564.9836	-0.0022
565.1773	0.0098
565.371	0.0002
565.5647	0.0066
565.7584	0.0135
565.952	-0.0051
566.1456	0.0038
566.3393	0.0074
566.5329	-0.0018
566.7264	0.009
566.92	-0.0002
567.1136	-0.0064
567.3071	-0.0039
567.5006	0.0058
567.6941	0.0053
567.8876	0.001
568.0811	0.0186
568.2745	-0.0056
568.468	0.0056
568.6614	0.0022
568.8548	0.0081
569.0482	0.0013
569.2416	0.0037
569.4349	-0.0015
569.6283	0.0001
569.8216	0.0097
570.0149	0.0016
570.2082	0.0069
570.4015	0.0039
570.5947	0.0096
570.788	0.0024
570.9812	0.0008
571.1744	0.0017
571.3676	0.0022
571.5608	-0.0065
571.754	0.0097
571.9471	0.0063
572.1402	0.0058
572.3333	0.0096
572.5264	0.0015
572.7195	0.0034
572.9126	0.002
573.1057	0.0044
573.2987	0.0031
573.4917	-0.0011
573.6847	0.0009
573.8777	0.0063
574.0707	0.0063
574.2636	0.003
574.4566	0.0013
574.6495	-0.0041
574.8424	0.0009
575.0353	0.0084
575.2281	0.0077
575.421	0.001
575.6138	0
575.8067	0.0006
575.9995	0.0003
576.1923	0.0061
576.385	0.0063
576.5778	0.0104
576.7706	0.0065
576.9633	0.0011
577.156	-0.0049
577.3487	0.0016
577.5414	-0.0017
577.734	0.0013
577.9267	0.0037
578.1193	0.0082
578.3119	-0.0009
578.5045	0.006
578.6971	0.003
578.8897	-0.0001
579.0822	0.0013
579.2747	0.0021
579.4673	0.0045
579.6598	0.0024
579.8522	0.0024
580.0447	0.0015
580.2372	0.0082
580.4296	0.0069
580.622	0.0025
580.8144	0.0027
581.0068	0.0058
581.1992	0.0032
581.3915	-0.0001
581.5839	0.0025
581.7762	0.0012
581.9685	0.005
582.1608	0.0016
582.353	0.0008
582.5453	0.0054
582.7375	0.0052
582.9298	-0.0031
583.122	0.001
583.3142	0.0044
583.5063	0.0032
583.6985	-0.0031
583.8906	0.001
584.0827	0.0027
584.2749	0.0019
584.4669	0.0006
584.659	0.0049
584.8511	0.0068
585.0431	0.0033
585.2352	0.0015
585.4272	0.0018
585.6192	0.0037
585.8111	0.0002
586.0031	0.0037
586.195	0.0001
586.387	-0.0025
586.5789	0.006
586.7708	0.004
586.9627	0.0022
587.1545	0.0037
587.3464	0.0044
587.5382	0.0034
587.73	0.0106
587.9218	-0.0022
588.1136	-0.0017
588.3053	0.0083
588.4971	-0.001
588.6888	0.0035
588.8805	-0.0003
589.0722	0.0061
589.2639	0.0015
589.4556	0.0046
589.6472	0.0079
589.8389	0.0004
590.0305	0.002
590.2221	0.0041
590.4137	0.0031
590.6052	-0.0006
590.7968	-0.0029
590.9883	0.0036
591.1798	0.001
591.3713	-0.0007
591.5628	0.0064
591.7543	0.0039
591.9458	0.0022
592.1372	0.0027
592.3286	0.0006
592.52	0
592.7114	0.0018
592.9028	0.0088
593.0941	0.0024
593.2855	0.0003
593.4768	0.0078
593.6681	0.0098
593.8594	0.0047
594.0506	0.0008
594.2419	0.0074
594.4331	-0.0021
594.6244	-0.0012
594.8156	0.0002
595.0067	0.0003
595.1979	0.0017
595.3891	0.0037
595.5802	0.011
595.7713	0.0002
595.9624	0.0061
596.1535	-0.0006
596.3446	0.0009
596.5357	0.0034
596.7267	0.0014
596.9177	0.0021
597.1087	-0.0023
597.2997	0.0062
597.4907	-0.0065
597.6817	0.0022
597.8726	0.0063
598.0635	-0.0016
598.2544	0.0072
598.4453	0.0016
598.6362	0.0015
598.827	0.0029
599.0179	0.0061
599.2087	0.0073
599.3995	0.0059
599.5903	0.0026
599.7811	0.0088
599.9718	0.0031
600.1626	-0.0047
600.3533	0.0012
600.544	0.0024
600.7347	0.0053
600.9254	0.005
601.116	-0.0018
601.3067	0.0008
601.4973	0.0102
601.6879	-0.0007
601.8785	0.0069
602.0691	-0.0004
602.2596	0.0055
602.4502	0.0028
602.6407	0.0036
602.8312	0.0023
603.0217	0.0039
603.2122	0.0023
603.4027	0.0016
603.5931	0.005
603.7835	0.0009
603.9739	-0
604.1643	0.0105
604.3547	0.0042
604.5451	0.0055
604.7354	-0.0025
604.9257	-0.003
605.116	-0.0019
605.3063	0.002
605.4966	0.0001
605.6869	0.0097
605.8771	0.003
606.0673	-0.0027
606.2575	0.0035
606.4477	0.0048
606.6379	-0.0041
606.8281	0.0017
607.0182	0.0022
607.2083	0.006
607.3985	0.0016
607.5885	0.0002
607.7786	0.0003
607.9687	0.007
608.1587	0.0044
608.3488	0.0026
608.5388	-0.0054
608.7288	0.0009
608.9187	0.0014
609.1087	0.0034
609.2986	0.01
609.4886	-0.002
609.6785	0.0026
609.8684	-0.0019
610.0582	-0.0023
610.2481	-0.0073
610.4379	0.0038
610.6278	0.0045
610.8176	0.0018
611.0074	0.0044
611.1971	-0.0005
611.3869	0.0103
611.5766	-0.001
611.7664	0.0089
611.9561	0
612.1458	0.003
612.3354	0.0038
612.5251	0.0039
612.7147	0.0063
612.9044	0.0007
613.094	0.0004
613.2836	0.0059
613.4731	0.0021
613.6627	0.0036
613.8522	0.0047
614.0417	0.0047
614.2313	-0.0021
614.4207	0.0035
614.6102	0.0041
614.7997	0.0053
614.9891	-0.001
615.1785	-0.0058
615.3679	0.0013
615.5573	0.0012
615.7467	-0.0026
615.9361	-0.0012
616.1254	0.007
616.3147	-0.0012
616.504	0.0016
616.6933	0.009
616.8826	0.0025
617.0718	0.0067
617.2611	-0.0012
617.4503	-0.0035
617.6395	0.0093
617.8287	0.0041
618.0179	0.0046
618.207	0.0129
618.3961	-0.0051
618.5853	-0.0039
618.7744	0.0057
618.9634	0.0137
619.1525	-0.0025
619.3416	-0.0042
619.5306	0.009
619.7196	0.0101
619.9086	-0.0013
620.0976	-0.0007
620.2866	0.0059
620.4755	-0.0052
620.6645	0.0096
620.8534	0.01
621.0423	-0.0042
621.2312	0.0072
621.42	0.0015
621.6089	0.0136
621.7977	0.0034
621.9865	0.0038
622.1753	-0.012
622.3641	-0.0096
622.5529	0.0006
622.7416	-0.0003
622.9303	-0.0014
623.1191	0.0087
623.3078	-0.0035
623.4964	0.0004
623.6851	0.0045
623.8737	0.0024
624.0624	-0.0095
624.251	0.006
624.4396	0.0015
624.6282	0.009
624.8167	-0.0028
625.0053	0.0028
625.1938	-0.0045
625.3823	0.0085
625.5708	-0.0042
625.7593	-0.004
625.9477	0.0114
626.1362	-0.0018
626.3246	0.0094
626.513	0.01
626.7014	0.0176
626.8898	0.0034
627.0781	-0.0019
627.2665	0.0044
627.4548	-0.012
627.6431	-0.0042
627.8314	0.0087
628.0197	0.0097
628.2079	0.0003
628.3962	0.0125
628.5844	0.0078
628.7726	-0.0027
628.9608	0.0067
629.1489	0.0026
629.3371	-0.0039
629.5252	0.0042
629.7134	-0.0121
629.9015	0.007
630.0895	-0.0253
630.2776	0.0055
630.4657	0.0118
630.6537	0.0001
630.8417	-0.0136
631.0297	-0.0086
631.2177	0.0019
631.4057	0.0032
631.5936	-0.0028
631.7815	-0.0018
631.9695	0.0104
632.1574	0.0182
632.3452	0.0056
632.5331	-0.0088
632.7209	0.0106
632.9088	-0.0064
633.0966	0.014
633.2844	0.0019
633.4722	0.0045
633.6599	0.0124
633.8477	0.0047
634.0354	0.0168
634.2231	-0.0062
634.4108	-0.0083
634.5985	0.0027
634.7861	-0.0092
634.9738	-0.0133
635.1614	-0.0061
635.349	-0.0064
635.5366	0.004
635.7242	0.0072
635.9117	0.003
636.0993	0.0166
636.2868	-0.0074
636.4743	0.009
636.6618	-0.0029
636.8492	0.0028
637.0367	-0.0147
637.2241	0.0069
637.4115	0.0273
637.5989	-0.0107
637.7863	0.0268
637.9737	0.0047
638.161	0.0028
638.3484	0.0009
638.5357	-0.0016
638.723	0.0137
638.9103	-0.0234
639.0975	0.0024
639.2848	0.0044
639.472	0.0051
639.6592	-0.0092
639.8464	0.0062
640.0336	-0.0084
640.2208	0.0038
640.4079	-0.0028
640.595	0.0094
640.7821	0.0015
640.9692	-0.0166
641.1563	0.006
641.3434	0.0071
641.5304	0.0247
641.7174	0.0324
641.9044	0.0133
642.0914	0.0248
642.2784	-0.0008
642.4653	-0.0076
642.6523	0.0145
642.8392	-0.0272
643.0261	0.0085
643.213	0.0008
643.3999	0.012
643.5867	0.0031
643.7735	-0.0061
643.9604	0.007
644.1472	0.0105
644.3339	-0.0122
644.5207	0.0004
644.7075	0.0181
644.8942	-0.0138
645.0809	-0.002
645.2676	0.0036
645.4543	-0.0054
645.6409	0.0285
645.8276	0.0077
646.0142	-0.002
646.2008	0.0151
646.3874	-0.0262
646.574	0.0176
646.7605	-0.0107
646.9471	-0.0238
647.1336	-0.0094
647.3201	-0.0023
647.5066	0.0052
647.6931	0.0048
647.8795	0.0048
648.0659	0.0137
648.2524	0.0109
648.4388	0.0101
648.6252	0.0085
648.8115	0.0101
648.9979	0.0035
649.1842	0.0015
649.3705	0.0131
649.5568	0.0036
649.7431	-0.0178
649.9294	-0.0055
650.1156	-0.0016
650.3018	0.0045
650.488	-0.008
650.6742	0.0115
650.8604	0.0129
651.0466	-0.0011
651.2327	0.0106
651.4188	-0.0099
651.6049	0.0125
651.791	-0.0021
651.9771	0.0057
652.1632	-0.0017
652.3492	-0.0185
652.5352	0.013
652.7212	0.0015
652.9072	-0.0017
653.0932	-0.0069
653.2791	-0.0029
653.465	-0.008
653.651	0.0028
653.8369	-0.0013
654.0227	-0.0089
654.2086	0.0094
654.3944	0.0226
654.5803	0.002
654.7661	-0.0023
654.9519	0.0004
655.1377	-0.0001
655.3234	-0.0001
655.5092	-0.0001
655.6949	-0.0001
655.8806	-0.0001
656.0663	-0.0001
656.2519	-0.0001
656.4376	-0.0001
656.6232	-0.0001
656.8088	-0.0001
656.9945	-0.0001
657.18	-0.0001
657.3656	-0.0001
657.5511	-0.0001
657.7367	-0.0001
657.9222	-0.0001
658.1077	-0.0001
658.2932	-0.0001
658.4786	-0.0001
658.6641	-0.0001
658.8495	-0.0001
659.0349	-0.0001
659.2203	-0.0001
659.4057	-0.0001
659.591	0.0803
659.7764	0.0161
659.9617	-0.0109
660.147	-0.0089
660.3323	-0.0168
660.5176	0.0008
660.7028	0.0042
660.888	0.0026
661.0733	0.0154
661.2585	-0.0045
661.4436	-0.0071
661.6288	0.0272
661.8139	-0.0118
661.9991	-0.0065
662.1842	-0.0098
662.3693	-0.0049
662.5544	0.0101
662.7394	0.0132
662.9245	-0.0075
663.1095	0.003
663.2945	-0.0085
663.4795	-0.018
663.6644	-0.0152
663.8494	0.002
664.0343	-0.0049
664.2193	-0.0079
664.4042	0.0009
664.589	0.01
664.7739	-0.0013
664.9587	-0.0041
665.1436	-0.0074
665.3284	0.0014
665.5132	-0.0259
665.698	-0.0026
665.8827	0.0089
666.0675	-0.003
666.2522	-0.028
666.4369	-0.0069
666.6216	-0.0019
666.8063	-0.0082
666.9909	0.0008
667.1756	-0.0018
667.3602	-0.0018
667.5448	-0.012
667.7294	0.0135
667.9139	-0.028
668.0985	-0.0032
668.283	-0.0052
668.4675	0.026
668.652	0.0126
668.8365	-0.0152
669.0209	0.006
669.2054	-0.0008
669.3898	0.003
669.5742	0.0283
669.7586	0.0102
669.943	0.0026
670.1273	-0.0033
670.3117	0.0144
670.496	-0.0014
670.6803	-0.0016
670.8646	-0.0237
671.0488	0.0177
671.2331	-0.0224
671.4173	-0.0023
671.6015	0.0179
671.7857	0.0069
671.9699	0.0147
672.1541	-0.0103
672.3382	-0.0018
672.5223	0.0028
672.7064	-0.0073
672.8905	-0.0026
673.0746	0.0083
673.2587	0.0199
673.4427	-0.0052
673.6267	0.0023
673.8107	-0.0032
673.9947	0.015
674.1787	0.0084
674.3626	0.0005
674.5465	0.0094
674.7304	-0.0066
674.9143	-0.0027
675.0982	-0.0135
675.2821	-0.0095
675.4659	-0.0005
675.6497	-0.0199
675.8335	0.012
676.0173	-0.0223
676.2011	0.008
676.3849	-0.0111
676.5686	0.0054
676.7523	0.0061
676.936	0.0195
677.1197	0.0101
677.3034	0.0233
677.487	-0.0006
677.6706	-0.0117
677.8542	0.0008
678.0378	-0.0113
678.2214	0.0013
678.405	-0.0115
678.5885	0.0128
678.772	0.0115
678.9555	-0.0114
679.139	0.0063
679.3225	-0.0083
679.5059	0.0045
679.6894	0.0155
679.8728	0.004
680.0562	0.002
680.2395	-0.0013
680.4229	-0.0205
680.6062	-0.0098
680.7896	-0.0296
680.9729	0.0144
681.1562	-0.0113
681.3394	-0.0135
681.5227	-0.0052
681.7059	0.0011
681.8891	-0.0009
682.0723	-0.0046
682.2555	0.0086
682.4387	0.0093
682.6218	-0.0008
682.805	0.0144
682.9881	0.0107
683.1712	0.01
683.3542	0.0167
683.5373	-0.0188
683.7203	0.0012
683.9034	-0.0056
684.0864	-0.0065
684.2694	0.0023
684.4523	0.0016
684.6353	-0.0065
684.8182	-0.0172
685.0011	0.0085
685.184	0.0086
685.3669	0.01
685.5498	-0.0019
685.7326	-0.0007
685.9154	0.0051
686.0982	0.0047
686.281	-0.0001
686.4638	0.0159
686.6465	0.0015
686.8293	-0.0131
687.012	0.0093
687.1947	0.0097
687.3774	0.0119
687.56	-0.0138
687.7427	0.0004
687.9253	-0.0151
688.1079	0.0094
688.2905	-0.007
688.4731	-0.0044
688.6556	-0.0038
688.8382	-0.0186
689.0207	0.0121
689.2032	0.019
689.3857	-0.0001
689.5681	-0.0204
689.7506	0.0218
689.933	-0.0156
690.1154	0.0246
690.2978	0.0083
690.4802	0.0061
690.6626	-0.0035
690.8449	0.0071
691.0272	-0.0136
691.2095	-0.0128
691.3918	-0.0042
691.5741	0.0026
691.7563	0.0047
691.9386	0.0095
692.1208	-0.0055
692.303	0.0009
692.4852	0.0008
692.6673	0.0146
692.8495	-0.005
693.0316	0.0135
693.2137	0.0052
693.3958	-0.0243
693.5778	-0.0134
693.7599	-0.0134
693.9419	-0.0284
694.1239	-0.0283
694.3059	0.0125
694.4879	-0.0155
694.6699	0.0064
694.8518	0.0028
695.0337	0.0145
695.2157	0.0193
695.3975	0.003
695.5794	-0.0279
695.7613	0.0058
695.9431	-0.0225
696.1249	0.0187
696.3067	-0.0255
696.4885	0.009
696.6703	0.0021
696.852	-0.0097
697.0337	0.0135
697.2154	0.01
697.3971	-0.004
697.5788	-0.0012
697.7605	0.0057
697.9421	0.0225
698.1237	0.0321
698.3053	-0.017
698.4869	-0.0073
698.6685	-0.0134
698.85	0.0085
699.0315	-0.0131
699.213	0.0273
699.3945	-0.0089
699.576	0.0282
699.7575	0.0142
699.9389	-0.0029
700.1203	-0.01
700.3017	-0.0072
700.4831	0.0277
700.6645	0.0305
700.8458	-0.0218
701.0271	0.023
701.2084	0.0145
701.3897	0.022
701.571	-0.0443
701.7523	0.004
701.9335	0.007
702.1147	0.0353
702.2959	-0.014
702.4771	0.0095
702.6583	-0.0163
702.8394	-0.0367
703.0205	0.0092
703.2016	-0.027
703.3827	-0.0321
703.5638	-0.0062
703.7449	0.0117
703.9259	-0.0066
704.1069	-0.0299
704.2879	0.0214
704.4689	-0.0055
704.6499	0.0179
704.8308	0.0077
705.0117	0.0049
705.1927	0.0002
705.3735	0.0109
705.5544	0.0204
705.7353	-0.0101
705.9161	-0.0256
706.0969	-0.0087
706.2777	0.0044
706.4585	0.0056
706.6393	0.0109
706.82	0.0169
707.0007	-0.0064
707.1815	-0.0023
707.3621	0.0154
707.5428	0.0078
707.7235	-0.0121
707.9041	0.0064
708.0847	0.0035
708.2653	0.0058
708.4459	-0.0122
708.6265	-0.0182
708.807	-0.0084
708.9875	-0.0156
709.168	-0.004
709.3485	0.0155
709.529	-0.0009
709.7095	-0.0077
709.8899	-0.0066
710.0703	-0.0008
710.2507	0.0092
710.4311	-0.0211
710.6115	0.0182
710.7918	0.0248
710.9721	0.0111
711.1524	0.0065
711.3327	-0.0198
711.513	-0.0085
711.6932	-0.0151
711.8735	0.0277
712.0537	-0.0123
712.2339	0.003
712.4141	0.0139
712.5942	-0.011
712.7744	0.0191
712.9545	0.0027
713.1346	0.0246
713.3147	0.0101
713.4947	-0.0001
713.6748	-0.0111
713.8548	0.0052
714.0348	0.0109
714.2148	0.0029
714.3948	0.0073
714.5748	0.0352
714.7547	0.0059
714.9346	0.0136
715.1145	-0.0103
715.2944	-0.0126
715.4743	0.0059
715.6541	-0.0191
715.834	0.0229
716.0138	0.0162
716.1936	-0.0185
716.3733	0.0048
716.5531	-0.004
716.7328	-0.0234
716.9126	-0.0107
717.0923	-0.0423
717.2719	-0.0011
717.4516	0.0078
717.6312	-0.0104
717.8109	0.0169
717.9905	0.014
718.1701	0.0186
718.3496	0.0002
718.5292	0.0101
718.7087	-0.0094
718.8882	0.0174
719.0677	0.0128
719.2472	-0.0109
719.4267	-0.002
719.6061	-0.0133
719.7856	0.0382
719.965	-0.0196
720.1443	-0.0167
720.3237	-0.0369
720.5031	-0.0232
720.6824	0.0082
720.8617	-0.0032
721.041	0.0134
721.2203	-0.0054
721.3995	-0.001
721.5788	-0.0228
721.758	-0.006
721.9372	0.001
722.1164	-0.0006
722.2956	0.0163
722.4747	0.0213
722.6538	0.0078
722.8329	0.0089
723.012	0.0062
723.1911	-0.0027
723.3702	0.009
723.5492	-0.01
723.7282	0.0138
723.9072	-0.0049
724.0862	-0.0024
724.2652	0.0195
724.4441	-0.0209
724.623	-0.0207
724.8019	0.0107
724.9808	0.0269
725.1597	0.0186
725.3385	0.0002
725.5174	0.0046
725.6962	0.0102
725.875	-0.0008
726.0538	0.01
726.2325	0.0092
726.4112	-0.0076
726.59	0.0052
726.7687	-0.0324
726.9474	0.0146
727.126	0.0117
727.3047	-0.0168
727.4833	0.0234
727.6619	-0.0249
727.8405	0.0241
728.0191	0.0287
728.1976	-0.0072
728.3762	0.0013
728.5547	-0.0088
728.7332	0.0145
728.9116	-0.0082
729.0901	-0.0036
729.2686	-0.0186
729.447	-0.0096
729.6254	0.0129
729.8038	0.0049
729.9821	-0.0216
730.1605	0.0295
730.3388	0.0177
730.5171	-0.0094
730.6954	-0.0195
730.8737	0.0025
731.0519	-0.0195
731.2302	0.0159
731.4084	-0.004
731.5866	-0.0191
731.7648	-0.0052
731.9429	0.0271
732.1211	-0.0135
732.2992	-0.0121
732.4773	0.005
732.6554	-0.0182
732.8335	0.0212
733.0115	0.0111
733.1896	-0.0057
733.3676	0.0242
733.5456	-0.0067
733.7235	-0.0104
733.9015	0.0111
734.0794	-0.0103
734.2574	-0.0163
734.4353	0.0132
734.6131	0.006
734.791	0.0018
734.9689	-0.0177
735.1467	-0.01
735.3245	0.0113
735.5023	0.0064
735.68	0.0012
735.8578	0.0047
736.0355	0.0063
736.2132	0.0215
736.3909	-0.0017
736.5686	-0.0098
736.7463	-0.0128
736.9239	0.02
737.1015	-0.0155
737.2791	0.0157
737.4567	-0.0081
737.6343	0.0088
737.8118	0.013
737.9894	-0.0184
738.1669	-0.0113
738.3444	0.0261
738.5218	-0.0401
738.6993	0.0087
738.8767	-0.0034
739.0541	-0.0102
739.2315	-0.0157
739.4089	0.024
739.5863	0.0173
739.7636	-0.0181
739.9409	-0.0013
740.1182	-0.001
740.2955	0.0112
740.4728	0.0002
740.65	-0.0135
740.8272	-0.0071
741.0044	-0.0348
741.1816	0.006
741.3588	-0.0454
741.5359	-0.0096
741.7131	0.0192
741.8902	-0.0051
742.0673	-0.018
742.2444	0.0287
742.4214	0.0152
742.5985	-0.0097
742.7755	-0.0066
742.9525	-0.0218
743.1295	0.0053
743.3064	-0.0266
743.4834	-0.012
743.6603	0.0163
743.8372	-0.0225
744.0141	0.0149
744.191	0.0059
744.3678	-0.0381
744.5446	0.022
744.7215	-0.0432
744.8982	0.009
745.075	0.0586
745.2518	0.0273
745.4285	-0.0045
745.6052	-0.0306
745.7819	-0.0062
745.9586	0.0286
746.1353	-0.0048
746.3119	-0.0164
746.4885	0.0196
746.6651	-0.01
746.8417	-0.004
747.0183	0.0156
747.1948	0.0302
747.3714	0.0136
747.5479	-0.0102
747.7244	-0.0131
747.9008	-0.022
748.0773	0.0282
748.2537	0.027
748.4301	0.0257
748.6065	-0.0083
748.7829	-0.0182
748.9593	0.0087
749.1356	-0.007
749.3119	-0.0017
749.4882	0.02
749.6645	-0.0135
749.8408	-0.0016
750.017	0.0166
750.1933	0.007
750.3695	0.0168
750.5457	0.0043
750.7218	-0.0124
750.898	-0.0186
751.0741	-0.0059
751.2502	0.0308
751.4263	-0.0008
751.6024	-0.0027
751.7784	-0.016
751.9545	0.0121
752.1305	0.0295
752.3065	-0.0029
752.4825	-0.0006
752.6584	0.0194
752.8344	0.0065
753.0103	-0.0397
753.1862	0.0017
753.3621	-0.0344
753.5379	-0.0061
753.7138	0.0091
753.8896	0.0041
754.0654	0.0076
754.2412	0.0093
754.417	0.0225
754.5927	0.0036
754.7685	-0.0039
754.9442	0.0191
755.1199	0.0185
755.2956	0.0085
755.4712	-0.0122
755.6469	0.0051
755.8225	-0.0051
755.9981	0.01
756.1736	-0.0084
756.3492	-0.0076
756.5248	0.0127
756.7003	-0.0084
756.8758	-0.015
757.0513	0.0052
757.2267	-0.002
757.4022	-0.0001
757.5776	-0.0041
757.753	0.0182
757.9284	-0.0059
758.1038	0.012
758.2791	0.0024
758.4545	-0.0168
758.6298	-0.0033
758.8051	0.0206
758.9803	0.0054
759.1556	-0.0096
759.3308	-0.0037
759.506	-0.0088
759.6812	0.0042
759.8564	-0.0028
760.0316	-0.014
760.2067	0.0277
760.3819	0.0031
760.557	-0.0111
760.732	-0.0145
760.9071	0.0101
761.0821	-0.0315
761.2572	0.0021
761.4322	0.0097
761.6072	0.0043
761.7821	-0.0285
761.9571	0.0078
762.132	0.0114
762.3069	-0.0002
762.4818	0.0161
762.6567	-0.0092
762.8316	0.0114
763.0064	0.0348
763.1812	-0.0085
763.356	-0.0113
763.5308	0.0142
763.7055	-0.0082
763.8803	-0.0057
764.055	-0.0144
764.2297	-0.0136
764.4044	-0.0047
764.579	-0.006
764.7537	0.0089
764.9283	-0.0018
765.1029	0.0138
765.2775	0.0215
765.4521	-0.0071
765.6266	-0.01
765.8011	0.0108
765.9756	-0.0016
766.1501	0.0032
766.3246	0.0002
766.4991	-0.0041
766.6735	0.0427
766.8479	-0.0045
767.0223	-0.01
767.1967	-0.0003
767.371	0.0257
767.5454	0.0021
767.7197	0.0077
767.894	-0.0241
768.0683	0.0215
768.2425	0.017
768.4168	0.0086
768.591	-0.0075
768.7652	-0.0161
768.9394	-0.0344
769.1135	-0.0045
769.2877	-0.0178
769.4618	0.0296
769.6359	0.0151
769.81	0.0225
769.984	0.007
770.1581	0.0058
770.3321	0.0155
770.5061	-0.0111
770.6801	0.0038
770.8541	-0.0019
771.028	0.0248
771.202	0.0069
771.3759	-0.0079
771.5498	-0.0118
771.7236	-0.0241
771.8975	0.0039
772.0713	0.0034
772.2451	-0.0322
772.4189	0.0032
772.5927	-0.0433
772.7665	-0.0012
772.9402	0.0157
773.1139	-0.0244
773.2876	0.0047
773.4613	0.0014
773.635	0.0325
773.8086	0.0175
773.9822	0.034
774.1558	0.0294
774.3294	0.0031
774.503	-0.0133
774.6765	0.0031
774.8501	0.0086
775.0236	0.0046
775.1971	0.0199
775.3705	-0.0004
775.544	-0.0819
775.7174	-0.0149
775.8908	0.0075
776.0642	0.032
776.2376	0.0461
776.4109	0.0144
776.5843	-0.0301
776.7576	0.0293
776.9309	-0.0184
777.1041	-0.0442
777.2774	0.0234
777.4506	-0.0412
777.6238	-0.0268
777.797	0.0046
777.9702	-0.001
778.1434	-0.0071
778.3165	-0.019
778.4896	-0.0306
778.6627	0.0141
778.8358	-0.031
779.0089	-0.0214
779.1819	0.0019
779.3549	-0.039
779.5279	-0.0125
779.7009	-0.0079
779.8739	0.0959
780.0468	0.0169
780.2197	0.0264
780.3926	-0.0635
780.5655	0.0184
780.7384	-0.0174
780.9112	0.0238
781.0841	-0.0007
781.2569	0.0369
781.4297	-0.0002
781.6024	0.0289
781.7752	0.019
781.9479	0.0232
782.1206	0.0024
782.2933	0.0009
782.466	0.0199
782.6386	0.0178
782.8113	-0.0043
782.9839	-0.0209
783.1565	0.003
783.329	-0.0228
783.5016	0.0014
783.6741	-0.0229
783.8466	0.0261
784.0191	0.0024
784.1916	-0.0453
784.3641	-0.0838
784.5365	0.0104
784.7089	-0.0318
784.8813	0.0545
785.0537	0.0236
785.2261	0.017
785.3984	0.0431
785.5707	-0.012
785.743	0.0313
785.9153	-0.0033
786.0876	-0.0403
786.2598	-0.0556
786.432	-0.0143
786.6042	0.0249
786.7764	-0.05
786.9486	-0.0336
787.1207	0.0097
787.2928	0.0019
787.4649	-0.0236
787.637	0.027
787.8091	-0.0049
787.9811	0.0148
788.1532	0.009
788.3252	-0.0387
788.4972	-0.0036
788.6691	0.0176
788.8411	-0.0128
789.013	0.0079
789.1849	-0.0298
789.3568	-0.0151
789.5287	0.077
789.7005	-0.0252
789.8723	-0.0549
790.0442	-0.0293
790.2159	-0.0107
790.3877	0.0214
790.5595	0.0185
790.7312	-0.035
790.9029	-0.0331
791.0746	-0.0258
791.2463	-0.0509
791.4179	-0.0211
791.5896	-0.0601
791.7612	0.0106
791.9328	-0.0153
792.1044	-0.0249
792.2759	-0.0816
792.4474	-0.0394
792.619	-0.0062
792.7905	0.0349
792.9619	0.0713
793.1334	0.0597
793.3048	0.0643
793.4762	0.0336
793.6476	-0.0482
793.819	0.0166
793.9904	-0.0134
794.1617	-0.032
794.333	-0.0043
794.5043	0.0227
794.6756	-0.006
794.8469	0.0096
795.0181	0.0131
795.1893	0.0162
795.3605	0.0494
795.5317	-0.0281
795.7029	-0.0177
795.874	-0.0345
796.0452	0.0015
796.2163	0.0286
796.3873	0.0468
796.5584	0.0412
796.7294	0.0083
796.9005	-0.0051
797.0715	-0.0951
797.2425	0.0761
797.4134	0.0452
797.5844	0.0019
797.7553	-0.0573
797.9262	0.0549
798.0971	0.0751
798.2679	-0.0332
798.4388	0.0178
798.6096	-0.0114
798.7804	0.0257
798.9512	0.0029
799.122	-0.0421
799.2927	0.0535
799.4635	-0.0153
799.6342	-0.058
799.8049	-0.014
799.9755	-0.0229
800.1462	-0.0074
800.3168	0.032
800.4874	-0.0995
800.658	0.0214
800.8286	-0.0599
800.9991	-0.058
801.1696	-0.0369
801.3402	0.0071
801.5106	-0.0689
801.6811	-0.0463
801.8516	0.0122
802.022	0.0793
802.1924	-0.0311
802.3628	0.0109
802.5332	-0.009
802.7035	0.032
802.8739	-0.0181
803.0442	-0.0535
803.2145	0.0438
803.3847	-0.0462
803.555	0.0046
803.7252	-0.0526
803.8954	-0.0294
804.0656	-0.0156
804.2358	0.083
804.4059	0.0768
804.5761	0.0641
804.7462	0.0114
804.9163	-0.0266
805.0864	-0.0212
805.2564	-0.0657
805.4264	-0.0706
805.5965	0.081
805.7665	-0.072
805.9364	-0.0379
806.1064	-0.0155
806.2763	0.0188
806.4462	0.0282
806.6161	-0.0142
806.786	0.0338
806.9559	-0.0421
807.1257	-0.0075
807.2955	-0.0062
807.4653	-0.0563
807.6351	-0.0055
807.8048	-0.0309
807.9746	-0.008
808.1443	-0.0668
808.314	0.0449
808.4837	0.0665
808.6533	-0.0424
808.8229	0.0007
808.9926	-0.0333
809.1622	-0.0006
809.3317	-0.0763
809.5013	0.0313
809.6708	0.0059
809.8403	0.0207
810.0098	0.0247
810.1793	-0.0485
810.3488	-0.0551
810.5182	0.1115
810.6876	0.0068
810.857	-0.0588
811.0264	-0.0812
811.1958	0.0737
811.3651	0.0701
811.5344	-0.0306
811.7037	0.0154
811.873	0.0267
812.0422	-0.0977
812.2115	-0.0515
812.3807	-0.1249
812.5499	0.0065
812.7191	-0.2086
812.8882	-0.068
813.0574	-0.0216
813.2265	-0.0199
813.3956	0.0137
813.5646	0.0726
813.7337	-0.0385
813.9027	-0.0743
814.0718	0.0283
814.2407	0.0448
814.4097	0.0322
814.5787	0.0159
814.7476	-0.0036
814.9165	0.0769
815.0854	-0.0592
815.2543	-0.0641
815.4232	0.0537
815.592	-0.0185
815.7608	-0.0989
815.9296	-0.0204
816.0984	0.096
816.2671	-0.2504
816.4359	0.0301
816.6046	-0.0015
816.7733	-0.0711
816.942	-0.0923
817.1106	0.0011
817.2793	0.0192
817.4479	0.0813
817.6165	0.0085
817.785	0.0643
817.9536	-0.0624
818.1221	-0.0308
818.2906	-0.0808
818.4591	-0.0055
818.6276	-0.0226
818.7961	-0.1481
818.9645	0.0249
819.1329	-0.0185
819.3013	-0.1481
819.4697	0.1009
819.638	-0.0836
819.8064	-0.0049
819.9747	0.1221
820.143	-0.17
820.3113	0.1823
820.4795	0.0444
820.6477	0.0347
820.816	0.0776
820.9842	-0.0355
821.1523	-0.0674
821.3205	-0.011
821.4886	-0.0345
821.6567	-0.0859
821.8248	0.079
821.9929	-0.1433
822.1609	-0.0667
822.329	-0.0542
822.497	-0.0204
822.665	0.0081
822.833	-0.0446
823.0009	-0.0575
823.1688	-0.0423
823.3367	-0.232
823.5046	0.0238
823.6725	-0.1655
823.8404	-0.0071
824.0082	-0.0418
824.176	-0.0841
824.3438	0.0625
824.5116	0.0788
824.6793	0.0181
824.847	0.1396
825.0147	-0.1787
825.1824	-0.0763
825.3501	-0.1273
825.5177	-0.0571
825.6854	-0.2301
825.853	-0.0632
826.0206	-0.0262
826.1881	-0.124
826.3557	-0.0821
826.5232	-0.0214
826.6907	0.0229
826.8582	-0.1007
827.0257	0.1926
827.1931	0.176
827.3605	-0.0313
827.528	-0.1235
827.6953	-0.2202
827.8627	-0.1324
828.03	0.0931
828.1974	0.0708
828.3647	-0.0067
828.532	-0.0203
828.6992	0.0857
828.8665	-0.2195
829.0337	-0.0412
829.2009	-0.219
829.3681	-0.0351
829.5352	-0.4308
829.7024	0.1001
829.8695	0.161
830.0366	0.0015
830.2037	0.0321
830.3707	0.0438
830.5378	0.056
830.7048	-0.1964
830.8718	0.0936
831.0388	-0.0478
831.2057	-0.0418
831.3727	-0.4102
831.5396	0.2112
831.7065	-0.7009
831.8734	0.2288
832.0402	0.048
832.2071	-0.4813
832.3739	-0.2249
832.5407	-1.9829
832.7075	-0.3868
832.8742	0.0204
833.041	0.1908
833.2077	0.3743
833.3744	-0.0764
833.541	0.1256
833.7077	-0.2333
833.8743	-0.0784
834.0409	0.0017
834.2075	-0.0013
834.3741	-0.3112
834.5407	-0.1
834.7072	-0.0176
834.8737	-0.0306
835.0402	0.2485
835.2067	-0.0098
835.3731	0.0606
835.5395	-0.0371
835.706	-0.015
835.8723	-0.0974
836.0387	0.2733
836.2051	-0.1348
836.3714	-0.0167
836.5377	-0.1665
836.704	0.1874
836.8703	-0.2132
837.0365	-0.978
837.2027	0.1798
837.3689	-0.0636
837.5351	0.1935
837.7013	-0.0937
837.8674	0.103
838.0335	-0.056
838.1997	-0.4121
838.3657	-0
838.5318	-0.5637
838.6978	-0.0953
838.8639	-0.6997
839.0299	0.0104
839.1958	-0.0374
839.3618	-0
839.5277	-0.1327
839.6937	0.1705
839.8596	-0.2495
840.0254	-0.207
840.1913	-0.1156
840.3571	-0.2749
840.523	-0
840.6888	0.0221
840.8545	-0.4902
841.0203	0.4053
841.186	-0.1517
841.3517	-0.1711
841.5174	-0.1365
841.6831	-0.0222
841.8488	0.0884
842.0144	-0.0048
842.18	0.1878
842.3456	-0.6333
842.5112	-0
842.6767	-0.0932
842.8422	-0.1674
843.0077	-0.0423
843.1732	-0.3685
843.3387	-0.2511
843.5042	-0
843.6696	-0.3298
843.835	0.0193
844.0004	-0.1422
844.1657	-1.3455
844.3311	-0
844.4964	-0.3692
844.6617	0.3934
844.827	-0
844.9923	0.1808
845.1575	-0.3944
845.3227	-0.3989
845.4879	-0.4906
845.6531	0.1324
845.8183	-0.1619
845.9834	-0
846.1485	0.1507
846.3136	-0.3285
846.4787	-0
846.6438	-0.4512
846.8088	0.4329
846.9738	-0.8313
847.1388	0.0206
847.3038	0.0406
847.4687	0.5922
847.6337	-0.7003
847.7986	-0.271
847.9635	0.7008
848.1284	-0
848.2932	-0.048
848.458	-0
848.6228	0.1816
848.7876	-0
848.9524	-0.4911
849.1172	-1.9161
849.2819	-0
849.4466	0.0481
849.6113	0.1261
849.7759	-0
849.9406	0.1068
850.1052	-0.6507
850.2698	-0
850.4344	-0.5195
850.599	-0.2255
850.7635	0.112
850.928	0.2489
851.0925	0.3997
851.257	-0.09
851.4215	-0.0471
851.5859	-0.017
851.7503	-0
851.9147	-0
852.0791	-0.1095
852.2434	0.1505
852.4078	-0
852.5721	0.1578
852.7364	-0
852.9007	-0.2082
853.0649	-0
853.2291	-0.2187
853.3934	-0
853.5575	-0.2109
853.7217	0.2657
853.8859	-0.2782
854.05	-0.575
854.2141	0.3757
854.3782	-0.1493
854.5423	-0.3892
854.7063	0.024
854.8703	-0.2401
855.0343	-0.2876
855.1983	-0.0038
855.3623	-0.1856
855.5262	-0
855.6901	0.3623
855.854	0.3605
856.0179	0.0773
856.1818	0.1041
856.3456	0.5158
856.5094	-0.1831
856.6732	-0
856.837	-1.1074
857.0008	-0.0246
857.1645	-0.0714
857.3282	-0.3145
857.4919	0.054
857.6556	2.3243
857.8192	-0.2603
857.9828	-0.2135
858.1465	-0.1736
858.31	-0
858.4736	-0.5253
858.6372	0.0118
858.8007	-0.134
858.9642	-0.0141
859.1277	-0
859.2911	-0.524
859.4546	-0
859.618	0.0208
859.7814	-0
859.9448	0.071
860.1081	-0
860.2715	-1.0843
860.4348	-0.0875
860.5981	0.5966
860.7614	-0.609
860.9246	-0.0064
861.0879	-0.2654
861.2511	-0
861.4143	-0
861.5774	-0.223
861.7406	-0.3199
861.9037	-0.2165
862.0668	-0
862.2299	-0.0364
862.393	-0
862.556	-0.6692
862.7191	-0.3993
862.8821	0.0833
863.0451	-0.2249
863.208	-0.1575
863.371	-0.6237
863.5339	0.4397
863.6968	0.209
863.8597	-0
864.0225	0.4059
864.1854	-0
864.3482	-0.6325
864.511	0.1933
864.6737	-0.3335
864.8365	0.3925
864.9992	-0
865.1619	-0.4614
865.3246	-1.959
865.4873	-0
865.65	0.0055
865.8126	0.0494
865.9752	-0.1901
866.1378	-0.2707
866.3004	0.0234
866.4629	-1.7537
866.6254	-0.5603
866.7879	0.0107
866.9504	0.0675
867.1129	-0.4281
867.2753	0.0912
867.4377	0.3074
867.6001	-0.4536
867.7625	0.3169
867.9249	0.8648
868.0872	0.0928
868.2495	-0
868.4118	-0
868.5741	-0.2989
868.7363	-0.8265
868.8986	-0.5049
869.0608	-0
869.223	-0.3306
869.3851	-0
869.5473	-0.2102
869.7094	-0
869.8715	-0
870.0336	-0.0995
870.1957	-0.3063
870.3577	0.1208
870.5197	0.0668
870.6817	-0.1852
870.8437	-0.5183
871.0057	0.0291
871.1676	0.1985
871.3295	-0
871.4914	-0
871.6533	-0
871.8151	0.0353
871.977	-0.4314
872.1388	-0.2277
872.3006	-0.5731
872.4623	-0.8983
872.6241	0.5153
872.7858	-0
872.9475	0.4722
873.1092	-0.106
873.2709	0.689
873.4325	-1.7404
873.5941	-0
873.7557	-0.1319
873.9173	0.2138
874.0789	-0.0653
874.2404	-0
874.4019	0.0891
874.5634	-0
874.7249	0.0383
874.8863	-0
875.0478	-0.1953
875.2092	0.5291
875.3706	0.1014
875.5319	-0.1876
875.6933	0.1038
875.8546	-0
876.0159	0.3533
876.1772	-0
876.3385	-0.157
876.4997	-0.0925
876.6609	0.1153
876.8221	-0
876.9833	0.4004
877.1445	0.4094
877.3056	-0.4381
877.4667	-0
877.6278	0.742
877.7889	0.3496
877.9499	0.0803
878.111	-0.6361
878.272	-0.0137
878.433	-0
878.5939	0.387
878.7549	-0.1408
878.9158	-0
879.0767	-0
879.2376	-0.5822
879.3984	-0
879.5593	0.878
879.7201	-2.0055
879.8809	0.5135
880.0417	0.0392
880.2024	0.2448
880.3632	-0.4424
880.5239	-0.1734
880.6846	0.6149
880.8452	0.6254
881.0059	-0
881.1665	0.5353
881.3271	0.6002
881.4877	-0.1181
881.6483	-1.102
881.8088	-0
881.9693	-0
882.1298	-0
882.2903	-0
