Data from D4ACN5uM460nmA_Absorbance_13-05-42-395.txt Node
Date: Fri Feb 21 13:05:42 GMT 2025
User: LASERRRRR
Spectrometer: FLMT03099
Trigger mode: 0
Integration Time (sec): 1.500000E-2
Scans to average: 1
Electric dark correction enabled: true
Nonlinearity correction enabled: false
Boxcar width: 0
XAxis mode: Wavelengths
Number of Pixels in Spectrum: 3648
>>>>>Begin Spectral Data<<<<<
179.3399	-0
179.5586	-0
179.7771	-0
179.9957	-0.3104
180.2143	-0.7782
180.4329	-0.1122
180.6514	-0
180.8699	0.0016
181.0885	0.4523
181.307	0.2809
181.5255	0.2808
181.744	-0
181.9625	0.2738
182.181	0.1221
182.3994	-0.3276
182.6179	-0.2164
182.8363	0.6809
183.0547	1.01
183.2732	0.1117
183.4916	0.142
183.71	0.1628
183.9284	0.1206
184.1467	0.3534
184.3651	-0.0918
184.5835	0.3117
184.8018	0.2026
185.0201	0.0919
185.2385	0.4961
185.4568	0.2964
185.6751	0.2641
185.8934	0.1864
186.1117	0.1501
186.3299	0.3211
186.5482	0.2668
186.7664	0.0635
186.9847	0.2192
187.2029	0.2514
187.4211	0.0003
187.6393	0.2632
187.8575	0.47
188.0757	0.3105
188.2939	-0.0805
188.512	0.2555
188.7302	0.2604
188.9483	0.0773
189.1665	0.9816
189.3846	0.1756
189.6027	0.2815
189.8208	0.1441
190.0389	0.121
190.257	-0.0092
190.475	-0.0574
190.6931	0.0635
190.9111	0.0733
191.1292	0.2003
191.3472	0.1962
191.5652	0.1607
191.7832	0.1143
192.0012	0.154
192.2192	0.1952
192.4371	0.1984
192.6551	0.0887
192.873	0.1957
193.091	0.1849
193.3089	0.1559
193.5268	0.2665
193.7447	0.1093
193.9626	0.247
194.1805	0.1353
194.3984	0.1941
194.6162	0.3191
194.8341	0.2648
195.0519	0.208
195.2697	0.2286
195.4875	0.367
195.7054	0.2746
195.9231	0.2147
196.1409	0.3839
196.3587	0.2827
196.5765	0.2972
196.7942	0.3305
197.012	0.3028
197.2297	0.2776
197.4474	0.3479
197.6651	0.3145
197.8828	0.374
198.1005	0.401
198.3182	0.3625
198.5358	0.4078
198.7535	0.3881
198.9711	0.4215
199.1888	0.3821
199.4064	0.3715
199.624	0.3675
199.8416	0.4132
200.0592	0.3807
200.2767	0.4391
200.4943	0.4609
200.7119	0.3545
200.9294	0.4019
201.1469	0.3915
201.3645	0.4411
201.582	0.4177
201.7995	0.4015
202.017	0.4385
202.2344	0.4572
202.4519	0.3847
202.6694	0.3896
202.8868	0.4134
203.1042	0.4084
203.3217	0.3866
203.5391	0.3915
203.7565	0.3255
203.9739	0.3463
204.1913	0.3657
204.4086	0.3618
204.626	0.3469
204.8433	0.343
205.0607	0.3654
205.278	0.3552
205.4953	0.3459
205.7126	0.3368
205.9299	0.3365
206.1472	0.328
206.3644	0.3623
206.5817	0.3567
206.7989	0.3455
207.0162	0.3104
207.2334	0.3258
207.4506	0.3039
207.6678	0.3322
207.885	0.3144
208.1022	0.3415
208.3194	0.2994
208.5365	0.2759
208.7537	0.2853
208.9708	0.3092
209.1879	0.32
209.405	0.2734
209.6222	0.2699
209.8392	0.2904
210.0563	0.2882
210.2734	0.2714
210.4905	0.2849
210.7075	0.2326
210.9245	0.2711
211.1416	0.2687
211.3586	0.2629
211.5756	0.2316
211.7926	0.2739
212.0096	0.2796
212.2265	0.2672
212.4435	0.2899
212.6604	0.2496
212.8774	0.2687
213.0943	0.2619
213.3112	0.2626
213.5281	0.2482
213.745	0.2366
213.9619	0.2343
214.1788	0.2575
214.3956	0.2508
214.6125	0.2636
214.8293	0.2467
215.0461	0.2602
215.2629	0.2518
215.4798	0.2529
215.6965	0.254
215.9133	0.2388
216.1301	0.2521
216.3469	0.2516
216.5636	0.2405
216.7803	0.2571
216.9971	0.2551
217.2138	0.2568
217.4305	0.2538
217.6472	0.2606
217.8639	0.2619
218.0805	0.2698
218.2972	0.2613
218.5138	0.2547
218.7305	0.2748
218.9471	0.2549
219.1637	0.2693
219.3803	0.2481
219.5969	0.2745
219.8135	0.2647
220.0301	0.2532
220.2466	0.259
220.4632	0.2563
220.6797	0.2687
220.8962	0.2681
221.1127	0.259
221.3292	0.2663
221.5457	0.2731
221.7622	0.2755
221.9787	0.2837
222.1951	0.276
222.4116	0.2656
222.628	0.2931
222.8444	0.2918
223.0608	0.2782
223.2772	0.2833
223.4936	0.2828
223.71	0.2847
223.9264	0.2848
224.1427	0.2986
224.3591	0.3014
224.5754	0.2985
224.7917	0.3024
225.008	0.2915
225.2243	0.3117
225.4406	0.3004
225.6569	0.312
225.8732	0.3079
226.0894	0.3029
226.3057	0.3115
226.5219	0.304
226.7381	0.3196
226.9543	0.3084
227.1705	0.3296
227.3867	0.3242
227.6029	0.3278
227.8191	0.3417
228.0352	0.351
228.2513	0.3533
228.4675	0.3565
228.6836	0.354
228.8997	0.3435
229.1158	0.3562
229.3319	0.3635
229.548	0.3518
229.764	0.367
229.9801	0.3734
230.1961	0.3766
230.4121	0.3663
230.6282	0.3883
230.8442	0.3919
231.0602	0.39
231.2761	0.378
231.4921	0.3855
231.7081	0.3968
231.924	0.4037
232.14	0.393
232.3559	0.4174
232.5718	0.4167
232.7877	0.4082
233.0036	0.4051
233.2195	0.4124
233.4353	0.4204
233.6512	0.4137
233.867	0.427
234.0829	0.4172
234.2987	0.4336
234.5145	0.4415
234.7303	0.4347
234.9461	0.4315
235.1619	0.4397
235.3776	0.4359
235.5934	0.4317
235.8091	0.4347
236.0249	0.4452
236.2406	0.4379
236.4563	0.4648
236.672	0.4386
236.8877	0.4495
237.1034	0.4435
237.319	0.462
237.5347	0.4568
237.7503	0.451
237.966	0.4534
238.1816	0.4509
238.3972	0.4591
238.6128	0.4606
238.8284	0.4687
239.0439	0.4561
239.2595	0.4665
239.475	0.4483
239.6906	0.4611
239.9061	0.4542
240.1216	0.4513
240.3371	0.4583
240.5526	0.4609
240.7681	0.465
240.9836	0.4463
241.199	0.4429
241.4145	0.446
241.6299	0.4455
241.8453	0.4349
242.0607	0.435
242.2761	0.4356
242.4915	0.4216
242.7069	0.4072
242.9223	0.4214
243.1376	0.4026
243.353	0.3928
243.5683	0.3955
243.7836	0.3861
243.9989	0.3743
244.2142	0.3734
244.4295	0.3627
244.6448	0.3614
244.86	0.3397
245.0753	0.3348
245.2905	0.3406
245.5057	0.3275
245.721	0.3267
245.9362	0.3214
246.1514	0.3113
246.3665	0.3039
246.5817	0.2993
246.7969	0.2944
247.012	0.2816
247.2271	0.2873
247.4423	0.2794
247.6574	0.2782
247.8725	0.2622
248.0876	0.2678
248.3026	0.2616
248.5177	0.2526
248.7328	0.2519
248.9478	0.2494
249.1628	0.2542
249.3779	0.2453
249.5929	0.2325
249.8079	0.2364
250.0228	0.2331
250.2378	0.23
250.4528	0.2249
250.6677	0.2212
250.8827	0.2086
251.0976	0.2133
251.3125	0.2144
251.5274	0.2069
251.7423	0.2177
251.9572	0.2052
252.172	0.2033
252.3869	0.209
252.6017	0.2004
252.8166	0.2037
253.0314	0.1981
253.2462	0.1972
253.461	0.1905
253.6758	0.1933
253.8906	0.1942
254.1053	0.1943
254.3201	0.1944
254.5348	0.1821
254.7496	0.1828
254.9643	0.1912
255.179	0.1877
255.3937	0.1916
255.6083	0.1905
255.823	0.1866
256.0377	0.1865
256.2523	0.186
256.467	0.1868
256.6816	0.1804
256.8962	0.1814
257.1108	0.181
257.3254	0.1764
257.54	0.174
257.7545	0.181
257.9691	0.183
258.1836	0.1755
258.3981	0.1787
258.6127	0.1696
258.8272	0.1848
259.0417	0.1769
259.2561	0.1763
259.4706	0.1726
259.6851	0.1757
259.8995	0.1718
260.114	0.1754
260.3284	0.1705
260.5428	0.1784
260.7572	0.1681
260.9716	0.1829
261.186	0.1759
261.4003	0.1712
261.6147	0.1774
261.829	0.1708
262.0433	0.173
262.2577	0.1811
262.472	0.1715
262.6863	0.1806
262.9005	0.1777
263.1148	0.1775
263.3291	0.1735
263.5433	0.178
263.7576	0.1731
263.9718	0.179
264.186	0.1767
264.4002	0.1698
264.6144	0.1778
264.8286	0.1752
265.0427	0.1826
265.2569	0.1802
265.471	0.1775
265.6851	0.1757
265.8993	0.1738
266.1134	0.1784
266.3275	0.1743
266.5415	0.1839
266.7556	0.1812
266.9697	0.1789
267.1837	0.1757
267.3978	0.1787
267.6118	0.1725
267.8258	0.1809
268.0398	0.1758
268.2538	0.1816
268.4677	0.1753
268.6817	0.1733
268.8957	0.1669
269.1096	0.1639
269.3235	0.1723
269.5374	0.1758
269.7514	0.1718
269.9652	0.1746
270.1791	0.1666
270.393	0.1771
270.6068	0.1713
270.8207	0.1713
271.0345	0.1706
271.2483	0.1616
271.4622	0.17
271.676	0.1702
271.8897	0.1654
272.1035	0.1696
272.3173	0.168
272.531	0.1643
272.7448	0.1674
272.9585	0.1659
273.1722	0.1645
273.3859	0.1632
273.5996	0.1709
273.8133	0.1717
274.0269	0.1635
274.2406	0.171
274.4542	0.1664
274.6679	0.1737
274.8815	0.1712
275.0951	0.1717
275.3087	0.1648
275.5223	0.1717
275.7358	0.1737
275.9494	0.1687
276.1629	0.1737
276.3765	0.1697
276.59	0.1679
276.8035	0.1706
277.017	0.1736
277.2305	0.1729
277.444	0.1795
277.6574	0.1759
277.8709	0.1746
278.0843	0.173
278.2978	0.173
278.5112	0.172
278.7246	0.1693
278.938	0.1754
279.1513	0.1785
279.3647	0.1724
279.5781	0.1706
279.7914	0.1724
280.0047	0.178
280.2181	0.1735
280.4314	0.1758
280.6447	0.1774
280.8579	0.1753
281.0712	0.1727
281.2845	0.1785
281.4977	0.179
281.711	0.1738
281.9242	0.1802
282.1374	0.1794
282.3506	0.1811
282.5638	0.1768
282.7769	0.1791
282.9901	0.1775
283.2033	0.1824
283.4164	0.1776
283.6295	0.1757
283.8426	0.1737
284.0557	0.1845
284.2688	0.1808
284.4819	0.1788
284.695	0.1846
284.908	0.1766
285.1211	0.1804
285.3341	0.1824
285.5471	0.1864
285.7601	0.1817
285.9731	0.1803
286.1861	0.1838
286.3991	0.1867
286.612	0.1891
286.825	0.1887
287.0379	0.1853
287.2508	0.1866
287.4637	0.1868
287.6766	0.1841
287.8895	0.1844
288.1024	0.189
288.3152	0.1879
288.5281	0.1872
288.7409	0.1939
288.9538	0.1918
289.1666	0.1822
289.3794	0.1883
289.5922	0.1874
289.8049	0.1896
290.0177	0.1868
290.2304	0.1924
290.4432	0.1945
290.6559	0.1942
290.8686	0.1943
291.0813	0.1902
291.294	0.1925
291.5067	0.1873
291.7194	0.1865
291.932	0.1867
292.1447	0.1919
292.3573	0.1903
292.5699	0.1924
292.7825	0.1866
292.9951	0.1889
293.2077	0.1897
293.4203	0.1879
293.6328	0.1915
293.8454	0.1929
294.0579	0.1894
294.2704	0.1912
294.4829	0.1939
294.6954	0.1949
294.9079	0.196
295.1204	0.1863
295.3328	0.1969
295.5453	0.1953
295.7577	0.1961
295.9701	0.1899
296.1825	0.1921
296.3949	0.1865
296.6073	0.1913
296.8197	0.193
297.0321	0.1948
297.2444	0.1862
297.4567	0.1932
297.6691	0.1933
297.8814	0.196
298.0937	0.1925
298.306	0.1934
298.5182	0.1944
298.7305	0.1931
298.9428	0.1966
299.155	0.1814
299.3672	0.1954
299.5794	0.1945
299.7916	0.192
300.0038	0.1888
300.216	0.1888
300.4282	0.1926
300.6403	0.199
300.8525	0.1962
301.0646	0.1906
301.2767	0.1915
301.4888	0.1912
301.7009	0.1903
301.913	0.1909
302.125	0.193
302.3371	0.193
302.5491	0.1974
302.7612	0.1975
302.9732	0.1963
303.1852	0.1943
303.3972	0.199
303.6092	0.192
303.8211	0.1925
304.0331	0.1885
304.245	0.1941
304.457	0.1821
304.6689	0.1926
304.8808	0.1871
305.0927	0.185
305.3046	0.1848
305.5164	0.1829
305.7283	0.1796
305.9401	0.1725
306.152	0.1789
306.3638	0.1781
306.5756	0.1832
306.7874	0.1756
306.9992	0.174
307.2109	0.169
307.4227	0.1694
307.6344	0.1741
307.8462	0.1715
308.0579	0.1719
308.2696	0.1655
308.4813	0.1609
308.693	0.1608
308.9046	0.1669
309.1163	0.1592
309.328	0.1537
309.5396	0.1532
309.7512	0.1501
309.9628	0.1467
310.1744	0.1471
310.386	0.1433
310.5976	0.15
310.8091	0.151
311.0207	0.1427
311.2322	0.1453
311.4437	0.1442
311.6552	0.1362
311.8667	0.1448
312.0782	0.1376
312.2897	0.1407
312.5012	0.1349
312.7126	0.1334
312.924	0.1355
313.1355	0.131
313.3469	0.1368
313.5583	0.1348
313.7696	0.1337
313.981	0.1314
314.1924	0.1287
314.4037	0.1261
314.6151	0.1277
314.8264	0.1277
315.0377	0.1269
315.249	0.1292
315.4603	0.1234
315.6716	0.1277
315.8828	0.1236
316.0941	0.1297
316.3053	0.1225
316.5165	0.123
316.7277	0.1207
316.9389	0.1181
317.1501	0.1219
317.3613	0.1161
317.5724	0.1226
317.7836	0.1156
317.9947	0.1163
318.2058	0.1238
318.417	0.1206
318.6281	0.1162
318.8391	0.1278
319.0502	0.1215
319.2613	0.1232
319.4723	0.1187
319.6834	0.1238
319.8944	0.1179
320.1054	0.1187
320.3164	0.1139
320.5274	0.1165
320.7383	0.1139
320.9493	0.1241
321.1602	0.1183
321.3712	0.1184
321.5821	0.1138
321.793	0.1229
322.0039	0.1238
322.2148	0.1224
322.4257	0.1213
322.6365	0.1175
322.8474	0.1204
323.0582	0.1195
323.269	0.1195
323.4798	0.1223
323.6906	0.1159
323.9014	0.1137
324.1122	0.1181
324.3229	0.125
324.5337	0.1226
324.7444	0.1201
324.9551	0.1236
325.1658	0.1212
325.3765	0.1275
325.5872	0.1244
325.7979	0.1151
326.0085	0.1205
326.2192	0.1195
326.4298	0.1273
326.6404	0.1321
326.851	0.1169
327.0616	0.1214
327.2722	0.1249
327.4828	0.1268
327.6933	0.1324
327.9039	0.1258
328.1144	0.1241
328.3249	0.1251
328.5354	0.1299
328.7459	0.1237
328.9564	0.1285
329.1669	0.1303
329.3773	0.1292
329.5878	0.1274
329.7982	0.1284
330.0086	0.1312
330.219	0.1286
330.4294	0.1287
330.6398	0.1266
330.8502	0.1284
331.0605	0.1286
331.2708	0.1267
331.4812	0.1297
331.6915	0.1289
331.9018	0.1322
332.1121	0.1332
332.3224	0.1275
332.5326	0.1209
332.7429	0.1271
332.9531	0.1321
333.1633	0.1292
333.3735	0.1236
333.5837	0.1282
333.7939	0.1327
334.0041	0.141
334.2143	0.1328
334.4244	0.139
334.6346	0.1359
334.8447	0.1307
335.0548	0.1424
335.2649	0.1334
335.475	0.1391
335.685	0.1339
335.8951	0.1374
336.1051	0.1343
336.3152	0.1355
336.5252	0.1278
336.7352	0.1362
336.9452	0.1324
337.1552	0.1326
337.3652	0.1299
337.5751	0.1379
337.7851	0.136
337.995	0.1329
338.2049	0.1405
338.4148	0.1342
338.6247	0.1395
338.8346	0.1318
339.0445	0.137
339.2543	0.138
339.4642	0.1379
339.674	0.1393
339.8838	0.1439
340.0936	0.1357
340.3034	0.1364
340.5132	0.1344
340.7229	0.1444
340.9327	0.1436
341.1424	0.1389
341.3522	0.1309
341.5619	0.1431
341.7716	0.148
341.9813	0.1445
342.1909	0.1473
342.4006	0.1425
342.6102	0.1433
342.8199	0.142
343.0295	0.1411
343.2391	0.145
343.4487	0.1456
343.6583	0.1518
343.8679	0.1504
344.0774	0.148
344.287	0.1523
344.4965	0.1503
344.706	0.1548
344.9155	0.1499
345.125	0.1507
345.3345	0.1593
345.544	0.1462
345.7534	0.1577
345.9629	0.1543
346.1723	0.1584
346.3817	0.1583
346.5911	0.161
346.8005	0.1687
347.0099	0.151
347.2193	0.1624
347.4286	0.1629
347.638	0.1596
347.8473	0.1655
348.0566	0.1556
348.2659	0.1574
348.4752	0.1648
348.6845	0.1584
348.8937	0.1581
349.103	0.1697
349.3122	0.1649
349.5214	0.1681
349.7306	0.1758
349.9398	0.1635
350.149	0.1644
350.3582	0.1713
350.5674	0.1689
350.7765	0.1764
350.9856	0.1707
351.1948	0.1689
351.4039	0.1729
351.613	0.17
351.822	0.1777
352.0311	0.1822
352.2402	0.1745
352.4492	0.1726
352.6582	0.1782
352.8672	0.1809
353.0762	0.1785
353.2852	0.1749
353.4942	0.1851
353.7032	0.1814
353.9121	0.1815
354.1211	0.1805
354.33	0.1818
354.5389	0.1794
354.7478	0.1737
354.9567	0.1844
355.1655	0.1801
355.3744	0.1815
355.5833	0.1866
355.7921	0.188
356.0009	0.1829
356.2097	0.1842
356.4185	0.1822
356.6273	0.1779
356.8361	0.1864
357.0448	0.1833
357.2536	0.194
357.4623	0.1862
357.671	0.1876
357.8797	0.1952
358.0884	0.1874
358.2971	0.1935
358.5057	0.2026
358.7144	0.1932
358.923	0.2008
359.1316	0.1936
359.3402	0.1955
359.5488	0.196
359.7574	0.2034
359.966	0.1978
360.1746	0.2023
360.3831	0.2057
360.5916	0.2028
360.8002	0.2106
361.0087	0.2054
361.2172	0.2118
361.4256	0.2078
361.6341	0.2046
361.8426	0.2103
362.051	0.209
362.2594	0.205
362.4678	0.2107
362.6762	0.2179
362.8846	0.2154
363.093	0.2147
363.3014	0.2214
363.5097	0.2132
363.718	0.2261
363.9264	0.2258
364.1347	0.2175
364.343	0.2246
364.5513	0.2208
364.7595	0.2311
364.9678	0.2274
365.176	0.2292
365.3842	0.2293
365.5925	0.2269
365.8007	0.2242
366.0089	0.2446
366.217	0.2296
366.4252	0.2336
366.6333	0.2301
366.8415	0.235
367.0496	0.2265
367.2577	0.242
367.4658	0.2331
367.6739	0.2343
367.882	0.2373
368.09	0.2382
368.2981	0.2438
368.5061	0.2416
368.7141	0.2457
368.9221	0.2514
369.1301	0.2552
369.3381	0.2565
369.5461	0.249
369.754	0.2474
369.962	0.2474
370.1699	0.2625
370.3778	0.2611
370.5857	0.2581
370.7936	0.2568
371.0015	0.2563
371.2093	0.2538
371.4172	0.2565
371.625	0.2586
371.8328	0.2563
372.0406	0.2616
372.2484	0.2614
372.4562	0.2591
372.664	0.2629
372.8717	0.2719
373.0795	0.2683
373.2872	0.2692
373.4949	0.271
373.7026	0.2637
373.9103	0.2636
374.118	0.2711
374.3256	0.2661
374.5333	0.2669
374.7409	0.2654
374.9485	0.2774
375.1561	0.2763
375.3637	0.2749
375.5713	0.2768
375.7789	0.2728
375.9864	0.274
376.194	0.2901
376.4015	0.2788
376.609	0.2669
376.8165	0.2793
377.024	0.2853
377.2315	0.2836
377.4389	0.2773
377.6464	0.2834
377.8538	0.2841
378.0612	0.2907
378.2686	0.2904
378.476	0.2877
378.6834	0.2814
378.8908	0.2898
379.0981	0.2781
379.3055	0.2909
379.5128	0.2888
379.7201	0.2927
379.9274	0.2934
380.1347	0.2911
380.342	0.2916
380.5492	0.2932
380.7565	0.3078
380.9637	0.2991
381.1709	0.3023
381.3781	0.3074
381.5853	0.2911
381.7925	0.2926
381.9997	0.3031
382.2068	0.3046
382.4139	0.2915
382.6211	0.2992
382.8282	0.3104
383.0353	0.3054
383.2424	0.3011
383.4494	0.3037
383.6565	0.3011
383.8635	0.3026
384.0706	0.3046
384.2776	0.3098
384.4846	0.3015
384.6916	0.3042
384.8986	0.3103
385.1055	0.3137
385.3125	0.3092
385.5194	0.3208
385.7263	0.3104
385.9333	0.3249
386.1402	0.3143
386.347	0.2983
386.5539	0.3153
386.7608	0.3025
386.9676	0.3136
387.1744	0.3133
387.3813	0.3078
387.5881	0.2969
387.7948	0.3124
388.0016	0.3166
388.2084	0.3054
388.4151	0.3137
388.6219	0.3007
388.8286	0.3131
389.0353	0.3087
389.242	0.3119
389.4487	0.2984
389.6553	0.3036
389.862	0.2932
390.0686	0.3014
390.2753	0.3079
390.4819	0.3003
390.6885	0.3088
390.8951	0.2949
391.1016	0.2996
391.3082	0.2944
391.5147	0.3029
391.7213	0.2949
391.9278	0.2844
392.1343	0.2844
392.3408	0.2966
392.5473	0.2943
392.7537	0.2882
392.9602	0.2873
393.1666	0.2877
393.373	0.2851
393.5794	0.2869
393.7858	0.283
393.9922	0.2808
394.1986	0.2711
394.4049	0.2787
394.6113	0.2794
394.8176	0.2734
395.0239	0.278
395.2302	0.2706
395.4365	0.2711
395.6428	0.2792
395.8491	0.2797
396.0553	0.2603
396.2615	0.2681
396.4678	0.2855
396.674	0.263
396.8802	0.2654
397.0863	0.2612
397.2925	0.2676
397.4987	0.265
397.7048	0.2795
397.9109	0.262
398.117	0.2567
398.3231	0.2668
398.5292	0.258
398.7353	0.2589
398.9413	0.2588
399.1474	0.2691
399.3534	0.2675
399.5594	0.2641
399.7654	0.2627
399.9714	0.271
400.1774	0.259
400.3833	0.268
400.5893	0.264
400.7952	0.2716
401.0011	0.257
401.207	0.2654
401.4129	0.2592
401.6188	0.2674
401.8247	0.2722
402.0305	0.2562
402.2364	0.2661
402.4422	0.2576
402.648	0.2592
402.8538	0.2544
403.0596	0.2537
403.2654	0.2589
403.4711	0.2587
403.6768	0.2567
403.8826	0.2678
404.0883	0.2598
404.294	0.2618
404.4997	0.263
404.7054	0.2626
404.911	0.2699
405.1167	0.2641
405.3223	0.2507
405.5279	0.2626
405.7335	0.253
405.9391	0.2569
406.1447	0.2721
406.3502	0.2606
406.5558	0.2588
406.7613	0.2554
406.9668	0.2565
407.1724	0.2566
407.3778	0.2637
407.5833	0.2604
407.7888	0.2697
407.9942	0.2596
408.1997	0.2587
408.4051	0.2585
408.6105	0.2689
408.8159	0.2574
409.0213	0.2549
409.2267	0.2578
409.432	0.2701
409.6374	0.2535
409.8427	0.2565
410.048	0.2512
410.2533	0.2623
410.4586	0.2549
410.6639	0.2592
410.8691	0.253
411.0744	0.2561
411.2796	0.2572
411.4848	0.2639
411.69	0.2587
411.8952	0.2619
412.1004	0.2642
412.3056	0.2534
412.5107	0.2645
412.7158	0.2647
412.921	0.2639
413.1261	0.2528
413.3312	0.2652
413.5362	0.2659
413.7413	0.2686
413.9464	0.251
414.1514	0.2657
414.3564	0.2463
414.5614	0.2592
414.7664	0.2486
414.9714	0.2496
415.1764	0.2594
415.3813	0.2508
415.5863	0.2667
415.7912	0.2504
415.9961	0.2529
416.201	0.2583
416.4059	0.2582
416.6108	0.2459
416.8156	0.2495
417.0205	0.2461
417.2253	0.2482
417.4301	0.2506
417.6349	0.2587
417.8397	0.2428
418.0445	0.2482
418.2492	0.2538
418.454	0.2384
418.6587	0.2512
418.8634	0.2463
419.0681	0.2504
419.2728	0.2515
419.4775	0.2537
419.6822	0.2375
419.8868	0.2275
420.0915	0.2375
420.2961	0.2371
420.5007	0.2477
420.7053	0.2391
420.9099	0.2412
421.1144	0.2353
421.319	0.2405
421.5235	0.2286
421.728	0.2469
421.9325	0.2447
422.137	0.2262
422.3415	0.2342
422.546	0.2333
422.7504	0.2305
422.9549	0.239
423.1593	0.2328
423.3637	0.2349
423.5681	0.2407
423.7725	0.2384
423.9769	0.2396
424.1812	0.2324
424.3856	0.2216
424.5899	0.2316
424.7942	0.231
424.9985	0.2279
425.2028	0.2319
425.4071	0.2366
425.6113	0.2191
425.8156	0.216
426.0198	0.2243
426.224	0.2255
426.4282	0.2103
426.6324	0.2083
426.8366	0.2158
427.0407	0.211
427.2449	0.2094
427.449	0.2096
427.6531	0.2244
427.8572	0.2058
428.0613	0.2209
428.2654	0.2136
428.4694	0.1984
428.6735	0.2004
428.8775	0.2164
429.0815	0.1971
429.2855	0.1946
429.4895	0.1944
429.6935	0.1983
429.8975	0.1956
430.1014	0.1994
430.3053	0.1972
430.5093	0.1798
430.7132	0.1918
430.9171	0.1842
431.1209	0.1951
431.3248	0.1848
431.5286	0.1867
431.7325	0.1901
431.9363	0.1721
432.1401	0.1754
432.3439	0.1791
432.5477	0.1638
432.7514	0.166
432.9552	0.1786
433.1589	0.175
433.3627	0.1725
433.5664	0.17
433.7701	0.167
433.9737	0.1661
434.1774	0.1759
434.3811	0.1613
434.5847	0.1524
434.7883	0.1626
434.9919	0.1514
435.1955	0.148
435.3991	0.1551
435.6027	0.1536
435.8062	0.1536
436.0098	0.1447
436.2133	0.1503
436.4168	0.1512
436.6203	0.1325
436.8238	0.1413
437.0272	0.1398
437.2307	0.1303
437.4341	0.1387
437.6375	0.1466
437.841	0.1258
438.0443	0.1249
438.2477	0.1187
438.4511	0.122
438.6545	0.1249
438.8578	0.1287
439.0611	0.1319
439.2644	0.1215
439.4677	0.1183
439.671	0.1081
439.8743	0.1199
440.0775	0.1177
440.2808	0.1101
440.484	0.1085
440.6872	0.1097
440.8904	0.1049
441.0936	0.1089
441.2967	0.0947
441.4999	0.0979
441.703	0.0971
441.9062	0.1037
442.1093	0.1093
442.3124	0.0858
442.5155	0.1027
442.7185	0.0851
442.9216	0.0894
443.1246	0.0928
443.3276	0.0878
443.5307	0.0849
443.7337	0.0903
443.9366	0.0759
444.1396	0.0819
444.3426	0.0787
444.5455	0.0761
444.7484	0.0814
444.9513	0.076
445.1542	0.0772
445.3571	0.0738
445.56	0.0666
445.7628	0.0751
445.9657	0.0694
446.1685	0.0762
446.3713	0.0746
446.5741	0.0772
446.7769	0.0693
446.9797	0.0661
447.1824	0.063
447.3852	0.0573
447.5879	0.061
447.7906	0.0508
447.9933	0.062
448.196	0.057
448.3986	0.0606
448.6013	0.0592
448.8039	0.0602
449.0066	0.0603
449.2092	0.0603
449.4118	0.0618
449.6143	0.0507
449.8169	0.0451
450.0195	0.0558
450.222	0.0485
450.4245	0.0551
450.627	0.0441
450.8295	0.0411
451.032	0.0529
451.2345	0.0407
451.4369	0.0449
451.6394	0.0499
451.8418	0.0455
452.0442	0.0457
452.2466	0.0315
452.449	0.0433
452.6513	0.0315
452.8537	0.0345
453.056	0.0339
453.2583	0.0305
453.4607	0.03
453.663	0.0416
453.8652	0.0279
454.0675	0.0302
454.2697	0.0353
454.472	0.0289
454.6742	0.0429
454.8764	0.0381
455.0786	0.0292
455.2808	0.0223
455.4829	0.0289
455.6851	0.0326
455.8872	0.0167
456.0893	0.0299
456.2915	0.0326
456.4935	0.033
456.6956	0.0307
456.8977	0.0199
457.0997	0.0319
457.3018	0.0162
457.5038	0.0257
457.7058	0.0278
457.9078	0.0303
458.1098	0.0338
458.3117	0.0267
458.5137	0.0086
458.7156	0.0193
458.9175	0.0245
459.1194	0.0169
459.3213	0.012
459.5232	0.0212
459.725	0.0144
459.9269	0.0228
460.1287	0.0178
460.3305	0.0212
460.5323	0.0165
460.7341	0.0186
460.9359	0.0077
461.1376	0.0218
461.3394	0.0159
461.5411	0.0218
461.7428	0.0195
461.9445	0.0176
462.1462	0.0076
462.3479	0.013
462.5495	0.0198
462.7512	0.0256
462.9528	0.0104
463.1544	0.009
463.356	0.0009
463.5576	0.0177
463.7592	0.0094
463.9607	0.0101
464.1623	0.0091
464.3638	0.0076
464.5653	0.0113
464.7668	0.0233
464.9683	0.0129
465.1697	0.0103
465.3712	-0.0012
465.5726	0.0098
465.7741	0.0139
465.9755	0.0079
466.1769	0.011
466.3782	0.0155
466.5796	0.0023
466.7809	0.0129
466.9823	0.0132
467.1836	0.0152
467.3849	0.0104
467.5862	0.0051
467.7875	0.0106
467.9887	0.0116
468.19	0.0045
468.3912	0.0215
468.5924	0.0046
468.7936	0.014
468.9948	0.0052
469.196	0.0045
469.3972	-0.0002
469.5983	0.0029
469.7994	0.0099
470.0006	0.0095
470.2017	0.0065
470.4027	0.0142
470.6038	-0.0003
470.8049	0.0071
471.0059	0.0143
471.2069	0.006
471.408	0.0092
471.6089	0.013
471.8099	0.0096
472.0109	0.0082
472.2119	0.0159
472.4128	-0.0001
472.6137	0.0055
472.8146	0.0111
473.0155	0.0119
473.2164	0.0049
473.4173	-0.0004
473.6181	-0.0029
473.819	-0.0033
474.0198	0.0011
474.2206	-0.0059
474.4214	0.0145
474.6222	-0.002
474.8229	0.0041
475.0237	0.0104
475.2244	0.0157
475.4251	0.0008
475.6258	0.007
475.8265	0.0038
476.0272	0.0008
476.2278	0.0093
476.4285	0.0016
476.6291	0.004
476.8297	0.0077
477.0303	-0.0029
477.2309	0.0072
477.4315	0.0066
477.632	-0.0024
477.8326	0.0085
478.0331	0.0104
478.2336	0.0024
478.4341	0.0085
478.6346	0.0071
478.8351	-0.002
479.0355	0.011
479.236	0.0116
479.4364	0.0077
479.6368	0.0071
479.8372	0.0047
480.0376	0.005
480.2379	0.0035
480.4383	0.0194
480.6386	0.0077
480.8389	-0.0016
481.0392	0.0077
481.2395	0.0084
481.4398	0.0022
481.6401	0.0097
481.8403	0.0005
482.0405	0.0028
482.2408	0.0014
482.441	0.003
482.6411	0.0077
482.8413	-0.0003
483.0415	0.0111
483.2416	0.0013
483.4417	0.0052
483.6419	-0.0017
483.8419	0.0022
484.042	0.003
484.2421	-0.001
484.4422	-0.0005
484.6422	0.0048
484.8422	0.0056
485.0422	0.0053
485.2422	0.0028
485.4422	0.0016
485.6422	-0.0004
485.8421	-0.0004
486.042	0.0086
486.242	0.0004
486.4419	0.0046
486.6417	-0.0005
486.8416	0.0088
487.0415	-0.0011
487.2413	-0.0013
487.4411	0.0077
487.641	0.0013
487.8408	0.0073
488.0405	0.0037
488.2403	-0.0015
488.4401	-0.0031
488.6398	0.0036
488.8395	0.0045
489.0392	0.0005
489.2389	0.0117
489.4386	-0.006
489.6383	0.0064
489.8379	-0.0025
490.0376	-0.0009
490.2372	0.0046
490.4368	-0.0069
490.6364	0.0029
490.836	-0.0007
491.0355	0.0036
491.2351	-0.0079
491.4346	0.0048
491.6341	-0.0026
491.8336	0.0085
492.0331	0.0036
492.2326	0.0073
492.432	-0.0001
492.6315	0.0037
492.8309	0.0069
493.0303	0.0053
493.2297	0.006
493.4291	0.0041
493.6284	0.0113
493.8278	0.001
494.0271	0.0053
494.2264	0.0027
494.4257	0.0065
494.625	0.0004
494.8243	0.0006
495.0236	0.0066
495.2228	0.0101
495.422	0.0025
495.6213	0.0053
495.8205	0.0042
496.0196	0.0055
496.2188	0.0084
496.418	-0.0021
496.6171	-0.0006
496.8162	0.0054
497.0153	0.007
497.2144	-0.0004
497.4135	-0.0029
497.6126	-0.0002
497.8116	0.0008
498.0107	0.0027
498.2097	-0.0001
498.4087	0.0033
498.6077	-0.0077
498.8067	0.0058
499.0056	0.0086
499.2046	0.0111
499.4035	0.0003
499.6024	-0.0075
499.8013	0.0029
500.0002	0.008
500.199	0.0043
500.3979	0.0035
500.5967	0.0001
500.7956	0.0092
500.9944	0.0047
501.1932	0.0034
501.3919	0.0059
501.5907	0.006
501.7895	0.0009
501.9882	-0.002
502.1869	0.0153
502.3856	0.0027
502.5843	0.0044
502.783	-0.0056
502.9816	0.0028
503.1803	0.0022
503.3789	0.0057
503.5775	-0.0015
503.7761	-0.0059
503.9747	0.0115
504.1732	-0.0013
504.3718	0.0118
504.5703	-0.0036
504.7689	-0.0041
504.9674	-0.0049
505.1658	-0.0003
505.3643	0.0058
505.5628	0.0083
505.7612	0.0176
505.9597	-0.0067
506.1581	0.0028
506.3565	-0.0004
506.5549	-0.0004
506.7532	-0.0015
506.9516	0.0038
507.1499	-0.0018
507.3482	0.0053
507.5465	0.0001
507.7448	0.0028
507.9431	0.009
508.1414	-0.0067
508.3396	-0.0032
508.5379	-0.0022
508.7361	0.009
508.9343	0.006
509.1325	0.0048
509.3306	0.0003
509.5288	-0.0046
509.7269	0.0105
509.9251	0.0088
510.1232	0.0048
510.3213	0.0043
510.5193	0.0007
510.7174	-0.003
510.9154	0.0086
511.1135	0.0014
511.3115	0.0009
511.5095	0.0063
511.7075	0.0064
511.9055	0.0059
512.1034	0.0048
512.3014	0.0017
512.4993	0.0014
512.6972	-0.0034
512.8951	0.0024
513.093	0.0018
513.2908	0.0128
513.4887	0.0052
513.6865	0.0056
513.8844	0.0116
514.0822	-0.0008
514.2799	-0.0077
514.4777	-0.0058
514.6755	-0.0022
514.8732	-0.0018
515.0709	-0.0009
515.2687	0.0039
515.4664	0.013
515.664	0.006
515.8617	0.0107
516.0594	0.0075
516.257	0.0125
516.4546	0.0101
516.6522	-0.003
516.8498	0.0106
517.0474	0.003
517.2449	0.004
517.4425	0.0028
517.64	0.0035
517.8375	0.0066
518.035	-0.0007
518.2325	-0.0052
518.43	0.0027
518.6274	-0.0005
518.8249	-0.001
519.0223	0.0076
519.2197	0.0006
519.4171	-0.0008
519.6145	0.0104
519.8118	-0.0033
520.0092	0.0012
520.2065	0.0095
520.4038	0.0063
520.6011	0.0106
520.7984	0.0103
520.9956	0.0115
521.1929	0.0053
521.3901	0.0143
521.5874	0.0094
521.7846	-0.0028
521.9818	0.0046
522.1789	-0.0009
522.3761	0.0124
522.5732	0.0079
522.7704	-0.0008
522.9675	0.0014
523.1646	-0.0024
523.3617	0.0026
523.5587	0.0106
523.7558	0.0065
523.9528	0.0057
524.1498	0.0009
524.3468	0.0013
524.5438	0.0012
524.7408	0.0018
524.9378	0.0142
525.1347	0.0014
525.3316	0.0021
525.5285	0.0053
525.7254	0.0067
525.9223	0.02
526.1192	0.0068
526.316	0.0169
526.5129	0.0087
526.7097	-0.0006
526.9065	0.002
527.1033	0.0091
527.3	0.0015
527.4968	-0.0005
527.6935	-0.0022
527.8903	0.0045
528.087	0.0004
528.2837	0.0117
528.4804	0.0047
528.677	0.0051
528.8737	0.0001
529.0703	-0.0015
529.2669	0.0062
529.4635	-0.0083
529.6601	-0.0022
529.8567	0.0041
530.0532	-0.0075
530.2498	-0.0024
530.4463	0.0018
530.6428	0.0057
530.8393	0.0116
531.0358	0.0006
531.2322	-0.006
531.4287	-0.0074
531.6251	-0.0107
531.8215	0.0036
532.0179	0.0114
532.2143	0.0028
532.4107	0.0068
532.607	0.0009
532.8034	-0.0001
532.9997	-0.0017
533.196	-0.0032
533.3923	0.0065
533.5886	0.0077
533.7848	0.011
533.9811	-0.0029
534.1773	0.0083
534.3735	0.0126
534.5697	-0.0015
534.7659	0.0063
534.9621	0.0063
535.1582	0.0053
535.3544	0.0023
535.5505	0.0075
535.7466	0.0098
535.9427	0.0019
536.1387	0.0068
536.3348	0.0122
536.5308	-0.0021
536.7269	-0.002
536.9229	0.0092
537.1189	0.0081
537.3148	0.0054
537.5108	0.0007
537.7068	0.013
537.9027	-0.0168
538.0986	0.0005
538.2945	-0.0071
538.4904	-0.0067
538.6863	0.0024
538.8821	0.0029
539.078	0.008
539.2738	-0.0034
539.4696	-0.0081
539.6654	0.0024
539.8611	0.0153
540.0569	0.0048
540.2526	0.0027
540.4484	-0.0043
540.6441	0.0038
540.8398	0.0109
541.0355	-0.0068
541.2311	0.0088
541.4268	0.0067
541.6224	0.0145
541.818	0.0066
542.0136	0.0087
542.2092	0.0117
542.4048	0.0041
542.6003	-0.0037
542.7959	0.0066
542.9914	0.0007
543.1869	0.0008
543.3824	0.0026
543.5779	0.0051
543.7734	0.0097
543.9688	0.0093
544.1642	0.0026
544.3596	0.0114
544.555	-0.0031
544.7504	0.0158
544.9458	0.0086
545.1411	-0.0044
545.3365	0.0068
545.5318	0.0033
545.7271	0.0102
545.9224	0.0015
546.1177	0.0025
546.3129	-0.0053
546.5081	-0.005
546.7034	0.0078
546.8986	0.0021
547.0938	0.0038
547.289	0.0129
547.4841	0.0058
547.6793	-0.0003
547.8744	0.0041
548.0695	-0.0024
548.2646	0.0051
548.4597	0.0011
548.6548	0.014
548.8498	0.013
549.0448	0.0061
549.2399	0.005
549.4349	0.0047
549.6298	-0.0016
549.8248	0.0007
550.0198	0.0103
550.2147	0.0049
550.4096	-0.0102
550.6045	0.0048
550.7994	-0.0044
550.9943	0.0022
551.1892	-0.0103
551.384	0.0105
551.5788	0.0014
551.7737	0.0074
551.9685	0.0085
552.1632	-0.0018
552.358	-0.002
552.5528	0.0086
552.7475	0.0068
552.9422	-0.0011
553.1369	0.0058
553.3316	0.0014
553.5263	-0.0016
553.7209	0.003
553.9156	0.0058
554.1102	0.0025
554.3048	-0.0005
554.4994	-0.0014
554.694	-0.0039
554.8885	0.009
555.0831	0.0139
555.2776	0.0089
555.4721	-0.0028
555.6666	0.0007
555.8611	0.0127
556.0555	0.0107
556.25	0.0071
556.4444	0.0015
556.6388	0.0007
556.8332	-0.0007
557.0276	0
557.222	-0.0072
557.4163	0.0122
557.6107	-0.0017
557.805	-0.0042
557.9993	0.0065
558.1936	-0.0064
558.3879	0.0095
558.5821	-0.003
558.7764	-0.0067
558.9706	-0.0017
559.1648	0.009
559.359	-0.008
559.5532	0.0023
559.7473	-0.0024
559.9415	0.0001
560.1356	0.0125
560.3297	0.0016
560.5238	-0.006
560.7179	-0.0067
560.9119	-0.0031
561.106	-0.0111
561.3	0.0032
561.494	-0.005
561.688	0.0041
561.882	0.0032
562.076	-0.002
562.2699	0.0056
562.4639	0.0076
562.6578	0.0154
562.8517	0.0001
563.0456	0.0018
563.2395	0.0023
563.4333	0.0046
563.6272	-0.0042
563.821	0.0006
564.0148	0.0038
564.2086	-0.0035
564.4024	0.0018
564.5961	0.0088
564.7899	0.0125
564.9836	0.005
565.1773	0.0051
565.371	0.0048
565.5647	0.0039
565.7584	0.019
565.952	0.0014
566.1456	0.0088
566.3393	0
566.5329	-0.0051
566.7264	0.0058
566.92	0.0028
567.1136	-0.0012
567.3071	0.0002
567.5006	0.0066
567.6941	-0.0039
567.8876	0.0031
568.0811	0.0113
568.2745	-0.0019
568.468	0.0008
568.6614	0.0071
568.8548	0.0009
569.0482	0.0048
569.2416	0.0017
569.4349	0.0049
569.6283	0.003
569.8216	0.0071
570.0149	-0.0015
570.2082	0.0092
570.4015	0.0007
570.5947	0.0054
570.788	0.0043
570.9812	-0.0008
571.1744	0.0045
571.3676	0.0058
571.5608	-0.0007
571.754	0.0056
571.9471	0.0078
572.1402	0.0041
572.3333	0.004
572.5264	0.0029
572.7195	0.0032
572.9126	0.0014
573.1057	0.0051
573.2987	0.0004
573.4917	0.0029
573.6847	-0.0002
573.8777	0.0082
574.0707	0.0028
574.2636	0.0027
574.4566	0.0012
574.6495	-0.002
574.8424	0.0043
575.0353	0.006
575.2281	0.0066
575.421	-0.002
575.6138	-0.0052
575.8067	0.0096
575.9995	0.0048
576.1923	0.0071
576.385	0.0026
576.5778	0.0084
576.7706	0.002
576.9633	0.0021
577.156	-0.0042
577.3487	0.0031
577.5414	-0.0002
577.734	-0.0003
577.9267	0.0063
578.1193	0.0053
578.3119	-0.0003
578.5045	0.0048
578.6971	-0.0008
578.8897	-0.0019
579.0822	0.0073
579.2747	0
579.4673	0.0048
579.6598	0.0066
579.8522	0.0016
580.0447	0.0092
580.2372	0.006
580.4296	0.009
580.622	0.0028
580.8144	0.0048
581.0068	0.0027
581.1992	0.0009
581.3915	0.0001
581.5839	0.0031
581.7762	-0.0026
581.9685	0.0017
582.1608	0
582.353	0.0015
582.5453	0.003
582.7375	0.0051
582.9298	0.0029
583.122	0.0002
583.3142	0.0065
583.5063	-0.0019
583.6985	-0.0055
583.8906	-0.0019
584.0827	0.0071
584.2749	0.002
584.4669	-0.0013
584.659	0.0044
584.8511	0.0095
585.0431	0.0037
585.2352	0.0004
585.4272	0.0008
585.6192	0.0024
585.8111	-0.0014
586.0031	-0.0003
586.195	0.0022
586.387	0.0005
586.5789	0.0067
586.7708	0.0093
586.9627	0.0047
587.1545	0.0042
587.3464	0.0033
587.5382	0.0023
587.73	0.0056
587.9218	0.0027
588.1136	-0.0024
588.3053	0.0054
588.4971	-0.0018
588.6888	0.0007
588.8805	0.0032
589.0722	0.0081
589.2639	0.0081
589.4556	0.0068
589.6472	0.0075
589.8389	0.007
590.0305	0.0031
590.2221	0.0104
590.4137	0.0039
590.6052	0.0018
590.7968	0.0029
590.9883	0.0054
591.1798	0.0016
591.3713	-0.0019
591.5628	0.0064
591.7543	-0
591.9458	0.0058
592.1372	0.0057
592.3286	0.0072
592.52	0.0036
592.7114	0.0002
592.9028	0.0081
593.0941	0
593.2855	-0.0013
593.4768	0.0052
593.6681	0.0086
593.8594	0.0072
594.0506	0.0024
594.2419	0.0026
594.4331	-0.0003
594.6244	-0.0017
594.8156	0.0055
595.0067	-0.0004
595.1979	0.0015
595.3891	-0.0003
595.5802	0.0082
595.7713	0.0073
595.9624	0.007
596.1535	0.004
596.3446	0.0042
596.5357	0.0038
596.7267	0.0032
596.9177	-0.0012
597.1087	-0.0019
597.2997	0.0026
597.4907	0.0011
597.6817	0.0009
597.8726	0.0069
598.0635	-0.004
598.2544	0.002
598.4453	0.0054
598.6362	0.0024
598.827	0.0016
599.0179	0.0023
599.2087	0.0036
599.3995	0.0076
599.5903	0.0053
599.7811	0.0102
599.9718	0.0057
600.1626	0.0017
600.3533	-0.0014
600.544	0.0018
600.7347	0.0001
600.9254	0.0054
601.116	0.0043
601.3067	-0.0021
601.4973	0.0044
601.6879	0.0014
601.8785	0.0066
602.0691	0.005
602.2596	-0
602.4502	0.0102
602.6407	0.004
602.8312	0.004
603.0217	0.0079
603.2122	0.0027
603.4027	0.006
603.5931	0.0021
603.7835	0.0027
603.9739	0.0004
604.1643	0.0036
604.3547	0.0041
604.5451	0.0091
604.7354	-0.0048
604.9257	0.001
605.116	-0.0001
605.3063	0.0006
605.4966	-0.0078
605.6869	0.0046
605.8771	0.0009
606.0673	-0.0003
606.2575	0.0024
606.4477	0.0108
606.6379	-0.0029
606.8281	-0.0018
607.0182	-0.0003
607.2083	0.0055
607.3985	0.0014
607.5885	0.0045
607.7786	0.0026
607.9687	0.0067
608.1587	0.0062
608.3488	0.0003
608.5388	-0.0035
608.7288	-0.0009
608.9187	0.0001
609.1087	0.0029
609.2986	0.0064
609.4886	0.0001
609.6785	0.0014
609.8684	-0.0012
610.0582	0.0001
610.2481	0.0013
610.4379	0.0026
610.6278	0.0036
610.8176	0.0064
611.0074	0.0021
611.1971	0.0009
611.3869	0.0012
611.5766	-0.0036
611.7664	0.0044
611.9561	-0.0043
612.1458	0.0052
612.3354	-0.0002
612.5251	0.0015
612.7147	0.0038
612.9044	-0.0067
613.094	0.0084
613.2836	0.0043
613.4731	-0.0055
613.6627	0.0063
613.8522	0.005
614.0417	0.0021
614.2313	0.0088
614.4207	0.0066
614.6102	0.0053
614.7997	0.0069
614.9891	0.0011
615.1785	-0.0068
615.3679	0.0065
615.5573	0.002
615.7467	-0.0079
615.9361	-0.001
616.1254	0.0036
616.3147	0.0028
616.504	-0.0023
616.6933	0.0024
616.8826	0.0032
617.0718	0.0014
617.2611	0.0064
617.4503	0
617.6395	0.0012
617.8287	0.0005
618.0179	0.0006
618.207	0.0105
618.3961	-0.0052
618.5853	0.0043
618.7744	0.0004
618.9634	0.0041
619.1525	0.0013
619.3416	-0.0029
619.5306	0.0044
619.7196	0.0088
619.9086	0.0011
620.0976	-0.0107
620.2866	0.0031
620.4755	0.0076
620.6645	0.0094
620.8534	0.0039
621.0423	-0.0054
621.2312	0.0056
621.42	0.0004
621.6089	-0.0042
621.7977	0.0084
621.9865	0.0034
622.1753	-0.0049
622.3641	-0.0096
622.5529	-0.0005
622.7416	0.0031
622.9303	-0.0009
623.1191	0.0076
623.3078	-0.0016
623.4964	0.0058
623.6851	0.0014
623.8737	0.0001
624.0624	-0.0158
624.251	-0.0015
624.4396	0.0102
624.6282	0.0055
624.8167	0.0004
625.0053	0.0086
625.1938	0.0016
625.3823	0.0061
625.5708	0
625.7593	0.0129
625.9477	0.008
626.1362	0.0005
626.3246	0.0056
626.513	0.0042
626.7014	0.0056
626.8898	0.0104
627.0781	-0.0009
627.2665	0.0024
627.4548	-0.0109
627.6431	-0.0015
627.8314	0.0115
628.0197	0.0118
628.2079	-0.0069
628.3962	0.0062
628.5844	0.0079
628.7726	0.0055
628.9608	-0.0006
629.1489	0.0018
629.3371	-0.0212
629.5252	0.0124
629.7134	-0.0062
629.9015	0.0072
630.0895	-0.0108
630.2776	0.0065
630.4657	0.0017
630.6537	0.0065
630.8417	-0.0115
631.0297	-0.0084
631.2177	0.0023
631.4057	0.0072
631.5936	-0.0029
631.7815	-0.0042
631.9695	0.0109
632.1574	0.0101
632.3452	0.0174
632.5331	0.007
632.7209	0.0189
632.9088	0.0002
633.0966	0.011
633.2844	0.0135
633.4722	0.0111
633.6599	0.0161
633.8477	0.0019
634.0354	0.0062
634.2231	-0.0076
634.4108	-0.0024
634.5985	0.0089
634.7861	-0.0055
634.9738	-0.01
635.1614	0.0025
635.349	0.0087
635.5366	0.0083
635.7242	0.0048
635.9117	0.0052
636.0993	0.0045
636.2868	0.0063
636.4743	0.0079
636.6618	-0.0083
636.8492	0.0003
637.0367	-0.0066
637.2241	0
637.4115	0.0171
637.5989	-0.0012
637.7863	0.033
637.9737	-0.0044
638.161	0.0082
638.3484	-0.0133
638.5357	-0.001
638.723	0.0127
638.9103	-0.0161
639.0975	0.0103
639.2848	0.0083
639.472	0.0067
639.6592	-0.0106
639.8464	0.0013
640.0336	-0.0053
640.2208	0.0049
640.4079	-0.0046
640.595	0.0045
640.7821	0.0059
640.9692	-0.0004
641.1563	0.0002
641.3434	0.0062
641.5304	0.008
641.7174	0.0169
641.9044	-0.0113
642.0914	0.0198
642.2784	-0.0059
642.4653	0.0051
642.6523	0.0106
642.8392	0.0056
643.0261	0.0138
643.213	-0.0076
643.3999	0.0144
643.5867	-0.0069
643.7735	-0.0069
643.9604	0.0094
644.1472	-0.0097
644.3339	-0.0048
644.5207	-0.0062
644.7075	-0.0024
644.8942	0.0007
645.0809	0.0168
645.2676	-0.0132
645.4543	0
645.6409	0.0145
645.8276	0.0064
646.0142	-0.0202
646.2008	0.0055
646.3874	0.0073
646.574	0.0003
646.7605	0.0026
646.9471	-0.0173
647.1336	-0.0045
647.3201	-0.0036
647.5066	0.0036
647.6931	-0.004
647.8795	0.0056
648.0659	-0.0029
648.2524	0.0089
648.4388	0.0038
648.6252	0.0076
648.8115	0.0029
648.9979	0.0134
649.1842	-0.005
649.3705	0.0098
649.5568	-0.003
649.7431	-0.0049
649.9294	0.003
650.1156	-0.016
650.3018	0.0161
650.488	0.005
650.6742	0.0099
650.8604	0.0067
651.0466	0.0035
651.2327	0.0026
651.4188	-0.0004
651.6049	0.0149
651.791	0.0058
651.9771	-0.0026
652.1632	0.0262
652.3492	-0.0037
652.5352	0.0291
652.7212	0.0067
652.9072	-0.0024
653.0932	0.0103
653.2791	0.0129
653.465	0.0009
653.651	-0.0031
653.8369	-0.0053
654.0227	-0.0215
654.2086	0.0049
654.3944	0.0125
654.5803	0.0075
654.7661	-0.0008
654.9519	0.0009
655.1377	0.0001
655.3234	0.0001
655.5092	0.0001
655.6949	0.0001
655.8806	0.0001
656.0663	0.0001
656.2519	0.0001
656.4376	0.0001
656.6232	0.0001
656.8088	0.0001
656.9945	0.0001
657.18	0.0001
657.3656	0.0001
657.5511	0.0001
657.7367	0.0001
657.9222	0.0001
658.1077	0.0001
658.2932	0.0001
658.4786	0.0001
658.6641	0.0001
658.8495	0.0001
659.0349	0.0001
659.2203	0.0001
659.4057	0.0001
659.591	0.0694
659.7764	0.0126
659.9617	-0.0077
660.147	-0.015
660.3323	-0.0081
660.5176	0.0031
660.7028	-0.0093
660.888	0.0041
661.0733	0.0235
661.2585	-0.0041
661.4436	0.0186
661.6288	0.0109
661.8139	-0.0082
661.9991	-0.0141
662.1842	-0.0145
662.3693	0.0081
662.5544	0.006
662.7394	0.0381
662.9245	0.0094
663.1095	-0.0178
663.2945	-0.0061
663.4795	-0.0083
663.6644	-0.0044
663.8494	-0.008
664.0343	0.0156
664.2193	0.0034
664.4042	0.0026
664.589	-0.0092
664.7739	0.0064
664.9587	-0.0136
665.1436	-0.012
665.3284	-0.0087
665.5132	-0.0051
665.698	0.0267
665.8827	0.0085
666.0675	-0.0009
666.2522	0.0123
666.4369	0.0183
666.6216	0.0141
666.8063	-0.0103
666.9909	-0.0113
667.1756	-0.0171
667.3602	-0.001
667.5448	0.0196
667.7294	-0.0091
667.9139	0.0123
668.0985	0.0226
668.283	0.0028
668.4675	-0.001
668.652	-0.0032
668.8365	-0.0159
669.0209	0.002
669.2054	0.0013
669.3898	-0.0028
669.5742	0.0316
669.7586	-0.005
669.943	0.0003
670.1273	-0.0081
670.3117	0.0037
670.496	0.0154
670.6803	0.0186
670.8646	-0.0108
671.0488	0.0128
671.2331	-0.017
671.4173	0.0072
671.6015	0.022
671.7857	0.0037
671.9699	0.0069
672.1541	-0.0091
672.3382	0.0079
672.5223	0.0085
672.7064	0.0055
672.8905	-0.0077
673.0746	-0.0082
673.2587	0.0026
673.4427	0.0114
673.6267	-0.0019
673.8107	0.0076
673.9947	0.0058
674.1787	-0.0075
674.3626	0.015
674.5465	0.0116
674.7304	-0.0301
674.9143	-0.0076
675.0982	0.0087
675.2821	0.0006
675.4659	-0.0211
675.6497	0.0167
675.8335	-0.0135
676.0173	-0.0036
676.2011	-0.0003
676.3849	-0.0022
676.5686	0.0192
676.7523	-0.0081
676.936	0.0042
677.1197	-0.0041
677.3034	0.0222
677.487	0.0193
677.6706	0.0117
677.8542	-0.0056
678.0378	0.0072
678.2214	-0.0037
678.405	-0.0046
678.5885	0.0045
678.772	0.0041
678.9555	0.0129
679.139	0.0142
679.3225	0.0004
679.5059	-0.0072
679.6894	0
679.8728	-0.0041
680.0562	-0.008
680.2395	-0.015
680.4229	-0.0012
680.6062	0.008
680.7896	-0.012
680.9729	0.0283
681.1562	-0.0161
681.3394	0.0036
681.5227	0.0097
681.7059	0.0108
681.8891	0.0081
682.0723	-0.0014
682.2555	0.0025
682.4387	-0.0041
682.6218	0.0083
682.805	-0.0065
682.9881	0.0046
683.1712	0.0093
683.3542	0.0222
683.5373	-0.0062
683.7203	0.0045
683.9034	-0.0048
684.0864	-0.0074
684.2694	0.0026
684.4523	0.0029
684.6353	-0.0015
684.8182	-0.0052
685.0011	0.0053
685.184	-0.0028
685.3669	0.0242
685.5498	0.0069
685.7326	-0.0187
685.9154	-0.0175
686.0982	0.0179
686.281	-0.0019
686.4638	0.0061
686.6465	0.0136
686.8293	-0.0089
687.012	0.007
687.1947	0.009
687.3774	0.0074
687.56	0.0064
687.7427	-0.0042
687.9253	-0.0061
688.1079	0.0027
688.2905	-0.018
688.4731	0.0214
688.6556	-0.0022
688.8382	-0.0261
689.0207	0.0315
689.2032	0.0112
689.3857	0.0024
689.5681	-0.0103
689.7506	0.0228
689.933	0.0087
690.1154	0.0086
690.2978	0.0014
690.4802	0.0248
690.6626	-0.0074
690.8449	0.0102
691.0272	-0.0141
691.2095	-0.0305
691.3918	0.0189
691.5741	0.01
691.7563	0.0069
691.9386	0.0345
692.1208	-0.0046
692.303	-0.0067
692.4852	0.0024
692.6673	-0.0085
692.8495	-0.0263
693.0316	0.0131
693.2137	-0.0143
693.3958	0.0139
693.5778	0.0116
693.7599	0.0073
693.9419	-0.0126
694.1239	0.0111
694.3059	0.0144
694.4879	0.0086
694.6699	-0.0087
694.8518	0.0172
695.0337	0.0132
695.2157	0.0227
695.3975	0.0074
695.5794	-0.0142
695.7613	0.006
695.9431	-0.026
696.1249	0.0111
696.3067	0.0034
696.4885	-0.0085
696.6703	-0.002
696.852	-0.0034
697.0337	0.0059
697.2154	0.0163
697.3971	0.007
697.5788	0.0061
697.7605	0.0027
697.9421	0.0165
698.1237	0.0057
698.3053	-0.0361
698.4869	0.0152
698.6685	-0.008
698.85	0.0201
699.0315	-0.0168
699.213	0.0373
699.3945	-0.0067
699.576	0.0262
699.7575	0.016
699.9389	-0.0088
700.1203	0.0089
700.3017	0.0128
700.4831	0.0103
700.6645	0.0513
700.8458	-0.0287
701.0271	0.0232
701.2084	0.0095
701.3897	-0.0037
701.571	-0.0011
701.7523	0.008
701.9335	0.0082
702.1147	0.0336
702.2959	-0.0218
702.4771	0.0152
702.6583	-0.0012
702.8394	-0.0201
703.0205	0.0083
703.2016	-0.0078
703.3827	0.0058
703.5638	-0.0119
703.7449	0.0162
703.9259	0.0257
704.1069	-0.0044
704.2879	0.0036
704.4689	0.0134
704.6499	0.0088
704.8308	0.0244
705.0117	0.0124
705.1927	0.028
705.3735	0.0252
705.5544	0.0128
705.7353	0.0282
705.9161	-0.0132
706.0969	0.0192
706.2777	0.0228
706.4585	0.0087
706.6393	0.0073
706.82	0.0034
707.0007	-0.011
707.1815	-0.0048
707.3621	0.0239
707.5428	0.0229
707.7235	0
707.9041	-0.0051
708.0847	-0.0085
708.2653	0.0207
708.4459	-0.0015
708.6265	-0.0158
708.807	0.0014
708.9875	-0.015
709.168	0.0151
709.3485	0.0062
709.529	0.0159
709.7095	-0.0247
709.8899	-0.0119
710.0703	0.0072
710.2507	-0.0143
710.4311	-0.013
710.6115	0.0226
710.7918	0.0215
710.9721	-0.0058
711.1524	-0.0044
711.3327	-0.0085
711.513	-0.0039
711.6932	0.0288
711.8735	0.0105
712.0537	-0.0136
712.2339	0.0021
712.4141	0.0125
712.5942	-0.0025
712.7744	0.0151
712.9545	0.0267
713.1346	0.0443
713.3147	0.0097
713.4947	-0.0049
713.6748	0.0151
713.8548	0.0105
714.0348	0.0089
714.2148	0.0226
714.3948	0.0154
714.5748	0.0053
714.7547	0.025
714.9346	0.0189
715.1145	-0.0069
715.2944	-0.0124
715.4743	0.0035
715.6541	-0.0025
715.834	0.0343
716.0138	0.0275
716.1936	-0.0242
716.3733	-0.02
716.5531	0.0318
716.7328	0.0191
716.9126	-0.0109
717.0923	-0.0236
717.2719	0.0414
717.4516	0.0299
717.6312	-0.0178
717.8109	0.0076
717.9905	-0.0038
718.1701	0.0261
718.3496	0.0008
718.5292	-0.0071
718.7087	0.0023
718.8882	0.0236
719.0677	-0.0175
719.2472	0.0151
719.4267	-0.0095
719.6061	0.0153
719.7856	0.0354
719.965	0.0133
720.1443	0.002
720.3237	-0.033
720.5031	0.0199
720.6824	-0.0189
720.8617	0.0042
721.041	0.0202
721.2203	0.0029
721.3995	0.0066
721.5788	0.0044
721.758	0.0231
721.9372	0.0065
722.1164	-0.008
722.2956	-0.0193
722.4747	0.0252
722.6538	0.0121
722.8329	0.0149
723.012	0.013
723.1911	-0.0054
723.3702	0.0271
723.5492	0.0211
723.7282	0.0031
723.9072	0.0117
724.0862	0.0045
724.2652	0.0118
724.4441	-0.0016
724.623	0.0023
724.8019	-0.0049
724.9808	0.033
725.1597	-0.0013
725.3385	0.0229
725.5174	0.0141
725.6962	0.0256
725.875	0.0165
726.0538	0.0127
726.2325	0.0152
726.4112	-0.0088
726.59	-0.0269
726.7687	-0.011
726.9474	0.0174
727.126	0.0331
727.3047	0.0064
727.4833	0.013
727.6619	-0.0085
727.8405	0.0066
728.0191	0.0264
728.1976	-0.0056
728.3762	0.0128
728.5547	0.0239
728.7332	0.0187
728.9116	0.0086
729.0901	0.0109
729.2686	-0.005
729.447	0.0019
729.6254	0.0176
729.8038	0.0086
729.9821	0.001
730.1605	-0.0021
730.3388	-0.0121
730.5171	0.007
730.6954	-0.0156
730.8737	0.0141
731.0519	-0.006
731.2302	0.0134
731.4084	0.0022
731.5866	-0.0137
731.7648	0.0162
731.9429	0.035
732.1211	-0.0082
732.2992	0.0111
732.4773	0.0052
732.6554	-0.0098
732.8335	0.0211
733.0115	0.0134
733.1896	0.0014
733.3676	0.0078
733.5456	-0.0061
733.7235	-0.0133
733.9015	-0.0019
734.0794	0.0072
734.2574	-0.0171
734.4353	0.0088
734.6131	-0.0088
734.791	0.0111
734.9689	-0.0045
735.1467	-0.0122
735.3245	0.0328
735.5023	0.0044
735.68	-0.0176
735.8578	0
736.0355	0.0022
736.2132	0.0099
736.3909	0.0016
736.5686	-0.0019
736.7463	-0.026
736.9239	0.0124
737.1015	0.006
737.2791	-0.0028
737.4567	0.0222
737.6343	0.0153
737.8118	0.0195
737.9894	-0.0117
738.1669	-0.001
738.3444	0.017
738.5218	-0.014
738.6993	-0.0084
738.8767	0.0043
739.0541	-0.0042
739.2315	-0.0018
739.4089	0.0183
739.5863	0.0042
739.7636	0.022
739.9409	0.0074
740.1182	0.0137
740.2955	0.0055
740.4728	-0.0098
740.65	-0.0327
740.8272	0.0316
741.0044	-0.0301
741.1816	-0.0097
741.3588	-0.0307
741.5359	-0.0147
741.7131	-0.0065
741.8902	-0.0086
742.0673	-0.0275
742.2444	0.0341
742.4214	0.0019
742.5985	-0.0099
742.7755	0.011
742.9525	-0.0188
743.1295	-0.0403
743.3064	0.0144
743.4834	-0.0029
743.6603	0.0432
743.8372	-0.06
744.0141	0.0241
744.191	0.0153
744.3678	-0.0196
744.5446	-0.0062
744.7215	0.0126
744.8982	0.0266
745.075	0.0627
745.2518	0.0041
745.4285	0.0135
745.6052	-0.0238
745.7819	0.0047
745.9586	0.0284
746.1353	-0.0281
746.3119	0.0057
746.4885	0.0365
746.6651	-0.0123
746.8417	0.0073
747.0183	0.0277
747.1948	0.024
747.3714	0.001
747.5479	0.0287
747.7244	-0.0117
747.9008	-0.0055
748.0773	0.0291
748.2537	-0.006
748.4301	0.0089
748.6065	-0.0228
748.7829	-0.02
748.9593	0.0016
749.1356	0.0129
749.3119	-0.0003
749.4882	0.0144
749.6645	-0.0122
749.8408	0.0317
750.017	0.0108
750.1933	-0.014
750.3695	0.0099
750.5457	-0.0205
750.7218	0.001
750.898	-0.0056
751.0741	-0.0116
751.2502	-0.0064
751.4263	0.0099
751.6024	0.0155
751.7784	0.0128
751.9545	0.0227
752.1305	0.0162
752.3065	0.0306
752.4825	-0.0191
752.6584	0.0143
752.8344	-0.0166
753.0103	-0.0186
753.1862	0.0032
753.3621	-0.0052
753.5379	-0.0278
753.7138	0.0058
753.8896	0.0161
754.0654	0.0056
754.2412	0.0169
754.417	0.0404
754.5927	0.0093
754.7685	0.0029
754.9442	0.0247
755.1199	0.0245
755.2956	-0.0035
755.4712	-0.0006
755.6469	-0.0088
755.8225	-0.0008
755.9981	0.0159
756.1736	0.006
756.3492	-0.0036
756.5248	-0.0022
756.7003	-0.0134
756.8758	-0.0004
757.0513	0.0094
757.2267	0.0051
757.4022	0.001
757.5776	-0.0046
757.753	0.0106
757.9284	-0.0026
758.1038	0.0234
758.2791	0.0152
758.4545	-0.0108
758.6298	-0.004
758.8051	0.0168
758.9803	0.0055
759.1556	-0.007
759.3308	0.0062
759.506	-0.0111
759.6812	0.0097
759.8564	0.0011
760.0316	-0.0006
760.2067	0.0229
760.3819	0.0002
760.557	-0.0087
760.732	-0.0042
760.9071	0.0057
761.0821	-0.0156
761.2572	-0.0041
761.4322	0.0081
761.6072	-0.0209
761.7821	-0.017
761.9571	0.0051
762.132	0.0136
762.3069	0.0018
762.4818	0.0219
762.6567	-0.0143
762.8316	0.0181
763.0064	0.0054
763.1812	0.0053
763.356	-0.0097
763.5308	0.0116
763.7055	0.0006
763.8803	0.0017
764.055	0.0243
764.2297	0.0067
764.4044	-0.0028
764.579	0.0049
764.7537	0.0102
764.9283	0.0149
765.1029	0.0155
765.2775	0.0098
765.4521	-0.0058
765.6266	-0.0046
765.8011	0.0107
765.9756	0.0073
766.1501	0.0055
766.3246	-0.008
766.4991	0.0063
766.6735	0.0377
766.8479	-0.0288
767.0223	0.0184
767.1967	0.0098
767.371	0.0094
767.5454	0.0062
767.7197	0.0445
767.894	0.0152
768.0683	0.0336
768.2425	-0.0128
768.4168	0.0212
768.591	0.0067
768.7652	-0.0166
768.9394	-0.0093
769.1135	-0.0102
769.2877	0.0063
769.4618	0.0325
769.6359	0.0025
769.81	0.0037
769.984	0.0076
770.1581	0.0118
770.3321	0.0339
770.5061	-0.006
770.6801	0.002
770.8541	0.0105
771.028	0.0333
771.202	0.0165
771.3759	0.0039
771.5498	0.0237
771.7236	0.0114
771.8975	0.0278
772.0713	0.0098
772.2451	-0.0167
772.4189	0.0204
772.5927	-0.0298
772.7665	-0.0152
772.9402	0.0177
773.1139	0.0192
773.2876	0
773.4613	-0.0056
773.635	0.0096
773.8086	0.0144
773.9822	0.0079
774.1558	0.036
774.3294	-0.0192
774.503	0.0192
774.6765	-0.0087
774.8501	-0.0147
775.0236	0.0057
775.1971	0.0093
775.3705	-0.0386
775.544	-0.0177
775.7174	0.0159
775.8908	-0.0069
776.0642	0.0134
776.2376	0.0017
776.4109	0.0367
776.5843	-0.0034
776.7576	0.0298
776.9309	0.0294
777.1041	0.0045
777.2774	0.0354
777.4506	0.0284
777.6238	-0.0642
777.797	0.0329
777.9702	0.0174
778.1434	0.0295
778.3165	-0.0216
778.4896	-0.0453
778.6627	0.021
778.8358	-0.0252
779.0089	-0.0005
779.1819	0.0209
779.3549	0.0053
779.5279	0.018
779.7009	0.0344
779.8739	0.0459
780.0468	-0.0131
780.2197	0.0021
780.3926	-0.0154
780.5655	0.0093
780.7384	-0.0116
780.9112	0.0119
781.0841	0.008
781.2569	0.0009
781.4297	0.0215
781.6024	0.0351
781.7752	0.0164
781.9479	0.0276
782.1206	-0.0005
782.2933	0.0239
782.466	0.0224
782.6386	-0.0346
782.8113	-0.0069
782.9839	-0.0212
783.1565	0.0238
783.329	0.0202
783.5016	0.0104
783.6741	0.0001
783.8466	-0.0011
784.0191	-0.002
784.1916	-0.0116
784.3641	-0.0734
784.5365	0.0432
784.7089	-0.0187
784.8813	0.0211
785.0537	0.0364
785.2261	-0.008
785.3984	-0.0155
785.5707	-0.0285
785.743	0.0156
785.9153	-0.0428
786.0876	-0.0215
786.2598	0.0122
786.432	0.0076
786.6042	0.0484
786.7764	-0.0622
786.9486	-0.0352
787.1207	0.0321
787.2928	0.0748
787.4649	-0.0089
787.637	-0.0139
787.8091	0.0042
787.9811	0.0279
788.1532	-0.0129
788.3252	-0.0254
788.4972	0.0123
788.6691	0.0266
788.8411	0.0154
789.013	0.0193
789.1849	-0.0098
789.3568	-0.0039
789.5287	0.0502
789.7005	-0.0499
789.8723	-0.0436
790.0442	-0.0334
790.2159	-0.0151
790.3877	0.0127
790.5595	-0.0241
790.7312	0.0216
790.9029	-0.0306
791.0746	0.0081
791.2463	-0.0215
791.4179	0.0022
791.5896	-0.0135
791.7612	0.0589
791.9328	0.0461
792.1044	-0.0432
792.2759	0.0217
792.4474	-0.008
792.619	-0.0592
792.7905	0.0283
792.9619	0.0505
793.1334	0.057
793.3048	0.0668
793.4762	-0.0083
793.6476	-0.0725
793.819	0.0047
793.9904	-0.0195
794.1617	-0.0176
794.333	0.0006
794.5043	0.0396
794.6756	0.01
794.8469	0.0168
795.0181	-0.022
795.1893	0.0237
795.3605	0.0156
795.5317	0.0001
795.7029	0.0342
795.874	-0.0305
796.0452	-0.004
796.2163	0.0316
796.3873	0.0577
796.5584	0.0352
796.7294	-0.0465
796.9005	0.053
797.0715	-0.0092
797.2425	0.0851
797.4134	0.0599
797.5844	0.0376
797.7553	-0.0489
797.9262	0.1128
798.0971	-0.0122
798.2679	-0.0059
798.4388	0.028
798.6096	0.0001
798.7804	0.0436
798.9512	0.0095
799.122	-0.0075
799.2927	0.0574
799.4635	-0.0529
799.6342	-0.0895
799.8049	0.1
799.9755	0.0083
800.1462	0.0431
800.3168	0.0041
800.4874	-0.0386
800.658	0.042
800.8286	0.0111
800.9991	0.0277
801.1696	-0.0596
801.3402	0.1065
801.5106	-0.1155
801.6811	-0.0324
801.8516	0.1405
802.022	0.0396
802.1924	-0.0222
802.3628	0.0679
802.5332	0.0315
802.7035	0.0992
802.8739	-0.0938
803.0442	-0.0109
803.2145	-0.0031
803.3847	0.0911
803.555	0.0381
803.7252	-0.0485
803.8954	-0.0207
804.0656	-0.0248
804.2358	-0.0142
804.4059	0.0064
804.5761	-0.0396
804.7462	-0.0457
804.9163	0.0792
805.0864	-0.0397
805.2564	-0.0854
805.4264	-0.0332
805.5965	-0.0402
805.7665	0.0399
805.9364	-0.027
806.1064	0.0431
806.2763	0.0184
806.4462	0.0066
806.6161	0.0541
806.786	0.0174
806.9559	0.043
807.1257	0.0052
807.2955	-0.0325
807.4653	0.0519
807.6351	0.0411
807.8048	0.0182
807.9746	0.0404
808.1443	0.018
808.314	0.0483
808.4837	0.0051
808.6533	0.0429
808.8229	0.089
808.9926	0.0196
809.1622	0.0754
809.3317	-0.0424
809.5013	-0.0264
809.6708	0.0119
809.8403	-0.0142
810.0098	-0.0437
810.1793	-0.0183
810.3488	-0.1388
810.5182	0.1045
810.6876	0.0558
810.857	0.0299
811.0264	0.0235
811.1958	0.0865
811.3651	-0.0205
811.5344	0.0276
811.7037	0.0654
811.873	0.0554
812.0422	-0.017
812.2115	-0.0377
812.3807	-0.2137
812.5499	-0.0511
812.7191	0.0087
812.8882	-0.009
813.0574	-0.0101
813.2265	0.1149
813.3956	0.0533
813.5646	0.0662
813.7337	-0.0359
813.9027	-0.0646
814.0718	0.0232
814.2407	-0.0125
814.4097	0.0287
814.5787	0.0026
814.7476	-0.0184
814.9165	0.0482
815.0854	-0.0465
815.2543	-0.0443
815.4232	0.1151
815.592	-0.0146
815.7608	-0.1515
815.9296	-0.0295
816.0984	0.2027
816.2671	-0.1952
816.4359	0.1833
816.6046	-0.0235
816.7733	0.0107
816.942	-0.0756
817.1106	0.2933
817.2793	-0.0357
817.4479	0.0396
817.6165	0.0959
817.785	0.0658
817.9536	-0.1678
818.1221	-0.0355
818.2906	-0.032
818.4591	-0.0194
818.6276	0.1048
818.7961	0.0691
818.9645	-0.0317
819.1329	0.0988
819.3013	-0.0245
819.4697	-0.1346
819.638	0.0004
819.8064	-0.0608
819.9747	-0.0775
820.143	0.0333
820.3113	0.0906
820.4795	0.0283
820.6477	0.1038
820.816	0.0873
820.9842	0.1008
821.1523	0.1133
821.3205	-0.0292
821.4886	-0.0681
821.6567	-0.1153
821.8248	0.1164
821.9929	-0.1484
822.1609	0.0003
822.329	0.1554
822.497	0.0152
822.665	-0.0819
822.833	-0.0593
823.0009	-0.04
823.1688	-0.0477
823.3367	-0.2366
823.5046	0.0113
823.6725	0.0036
823.8404	0.0406
824.0082	-0.0709
824.176	0.021
824.3438	0.1994
824.5116	-0.0678
824.6793	0.0401
824.847	0.0307
825.0147	0.1119
825.1824	0.0284
825.3501	-0.1137
825.5177	-0.0733
825.6854	-0.0144
825.853	-0.0365
826.0206	-0.1132
826.1881	0.0422
826.3557	0.0611
826.5232	0.058
826.6907	0.0887
826.8582	-0.0164
827.0257	0.2743
827.1931	0.0346
827.3605	0.0362
827.528	-0.2724
827.6953	-0.145
827.8627	-0.1046
828.03	0.0422
828.1974	0.0244
828.3647	0.077
828.532	0.0301
828.6992	0.2109
828.8665	-0.3551
829.0337	0.0607
829.2009	-0.2104
829.3681	0.058
829.5352	-0.0971
829.7024	0.0713
829.8695	-0.0886
830.0366	0.1102
830.2037	0.0797
830.3707	0.0493
830.5378	-0.0613
830.7048	-0.0642
830.8718	0.2066
831.0388	-0.1075
831.2057	-0.0792
831.3727	-0.509
831.5396	0.0859
831.7065	-0.5093
831.8734	-0.0945
832.0402	0.1617
832.2071	-0.0975
832.3739	-0.1847
832.5407	-1.6889
832.7075	-0.1255
832.8742	0.2528
833.041	0.0581
833.2077	0.2702
833.3744	-0.0235
833.541	0.1753
833.7077	-0.0118
833.8743	0.0635
834.0409	0.1688
834.2075	0.1494
834.3741	-0.0398
834.5407	-0.097
834.7072	0.0379
834.8737	0.1502
835.0402	0.5205
835.2067	0.2093
835.3731	0.0581
835.5395	0.0115
835.706	0.2582
835.8723	0.064
836.0387	0.1061
836.2051	0.1912
836.3714	0.0832
836.5377	0.0696
836.704	0.4181
836.8703	-0.3097
837.0365	-1.0521
837.2027	0.9241
837.3689	0.1161
837.5351	-0.0984
837.7013	-0.1352
837.8674	-0
838.0335	-0.0579
838.1997	0.1685
838.3657	-0
838.5318	-0.2894
838.6978	-0
838.8639	-0.6257
839.0299	-0.3022
839.1958	0.4775
839.3618	-0.0248
839.5277	0.0545
839.6937	0.0223
839.8596	0.2966
840.0254	0.0841
840.1913	0.1476
840.3571	0.0891
840.523	-0
840.6888	0.2003
840.8545	-0.2072
841.0203	-0.0774
841.186	0.5503
841.3517	-0.1546
841.5174	0.1572
841.6831	0.087
841.8488	-0.0903
842.0144	-0.2171
842.18	0.2464
842.3456	-0.6445
842.5112	-0
842.6767	0.134
842.8422	-0.2027
843.0077	-0.0129
843.1732	-0.2939
843.3387	-0.012
843.5042	-0
843.6696	0.4784
843.835	-0.2639
844.0004	-0.2189
844.1657	-0.8611
844.3311	-0.2622
844.4964	-0.3988
844.6617	0.1077
844.827	-0
844.9923	0.1427
845.1575	0.5288
845.3227	-0.3777
845.4879	-0.1717
845.6531	-0.0509
845.8183	0.8024
845.9834	-0
846.1485	0.7046
846.3136	0.001
846.4787	-0
846.6438	0.1238
846.8088	-0
846.9738	-0
847.1388	0.2017
847.3038	0.204
847.4687	0.8063
847.6337	-0.5377
847.7986	-0.3438
847.9635	-0.1118
848.1284	1.3915
848.2932	-0.0509
848.458	-0
848.6228	-0
848.7876	0.4476
848.9524	0.2579
849.1172	-1.8081
849.2819	-0
849.4466	1.6787
849.6113	0.0257
849.7759	-0.1154
849.9406	-0.1352
850.1052	-0
850.2698	-0
850.4344	-0.7167
850.599	-0.0508
850.7635	0.8911
850.928	0.1747
851.0925	1.082
851.257	-0
851.4215	-0
851.5859	-0.0872
851.7503	-0
851.9147	1.4649
852.0791	0.0655
852.2434	0.2053
852.4078	-0
852.5721	-0
852.7364	-0.1012
852.9007	-0.1529
853.0649	-0
853.2291	0.0008
853.3934	-0.2325
853.5575	-0.2543
853.7217	-0
853.8859	1.3257
854.05	-0.3289
854.2141	0.5321
854.3782	0.1408
854.5423	-0
854.7063	0.2617
854.8703	0.262
855.0343	-0.1853
855.1983	-0.0069
855.3623	-0.0971
855.5262	-0
855.6901	0.1347
855.854	0.3166
856.0179	0.3437
856.1818	0.0208
856.3456	0.3732
856.5094	-0.3335
856.6732	-0.7705
856.837	-1.1619
857.0008	-0
857.1645	-0.0406
857.3282	-0.3345
857.4919	-0.0147
857.6556	0.701
857.8192	0.3303
857.9828	-0
858.1465	-0.1222
858.31	-0
858.4736	-0
858.6372	-0.2428
858.8007	-0.1813
858.9642	0.271
859.1277	0.7141
859.2911	-0.1398
859.4546	-0
859.618	0.1216
859.7814	-0.2237
859.9448	0.8217
860.1081	-0.1395
860.2715	-1.8521
860.4348	-0.2259
860.5981	0.2128
860.7614	0.4106
860.9246	-0.2182
861.0879	0.2153
861.2511	-0
861.4143	-0.606
861.5774	0.1006
861.7406	-0.5016
861.9037	-0
862.0668	-0
862.2299	0.3258
862.393	-0
862.556	-0.0665
862.7191	-0.4748
862.8821	0.8144
863.0451	0.8346
863.208	-0.438
863.371	0.3896
863.5339	0.5757
863.6968	-0
863.8597	0.0023
864.0225	-0
864.1854	-0
864.3482	0.0142
864.511	-0.0105
864.6737	-0.3974
864.8365	-0.1142
864.9992	0.3841
865.1619	-0.6493
865.3246	-0.9243
865.4873	-0
865.65	-0
865.8126	0.2955
865.9752	-0.1834
866.1378	-0.075
866.3004	-0
866.4629	-1.8921
866.6254	-0.2686
866.7879	-0
866.9504	-0
867.1129	-0.0265
867.2753	0.0009
867.4377	-0.0137
867.6001	-0
867.7625	1.4214
867.9249	-0
868.0872	0.0669
868.2495	-0
868.4118	-0
868.5741	-0.3988
868.7363	-0.2068
868.8986	0.1122
869.0608	-0
869.223	-0.3513
869.3851	-0
869.5473	0.414
869.7094	-0
869.8715	-0.1861
870.0336	-0.1056
870.1957	-0
870.3577	0.5836
870.5197	-0.1808
870.6817	-0.9258
870.8437	0.5156
871.0057	-0
871.1676	0.2031
871.3295	-0
871.4914	-1.5105
871.6533	-0.1624
871.8151	-0
871.977	-0.4557
872.1388	0.479
872.3006	-0
872.4623	-0.7318
872.6241	-0
872.7858	-0.1326
872.9475	0.5392
873.1092	-0
873.2709	-0
873.4325	-1.4244
873.5941	-0.6554
873.7557	-0.2491
873.9173	-0
874.0789	0.2055
874.2404	-0.1537
874.4019	-0.1195
874.5634	0.0467
874.7249	-0
874.8863	0.843
875.0478	-0.0836
875.2092	-0
875.3706	-0
875.5319	-0
875.6933	-0.0885
875.8546	-0
876.0159	0.2149
876.1772	-0
876.3385	-0
876.4997	-0
876.6609	0.3119
876.8221	-0
876.9833	0.0834
877.1445	0.3953
877.3056	-0
877.4667	-0
877.6278	-0
877.7889	0.3665
877.9499	0.0147
878.111	-0.5882
878.272	-0
878.433	-0
878.5939	-0.1596
878.7549	-0
878.9158	-0
879.0767	0.5566
879.2376	0.1704
879.3984	0.1823
879.5593	0.0545
879.7201	-1.3644
879.8809	-0
880.0417	0.0009
880.2024	-0.0344
880.3632	-0.6645
880.5239	0.0929
880.6846	-0.0875
880.8452	-0.2506
881.0059	-0
881.1665	-0.0996
881.3271	0.3847
881.4877	-0.0567
881.6483	-1.1605
881.8088	-0
881.9693	-0
882.1298	-0
882.2903	-0
