Data from D4ACN5uM460nmA_Absorbance_13-05-41-315.txt Node
Date: Fri Feb 21 13:05:41 GMT 2025
User: LASERRRRR
Spectrometer: FLMT03099
Trigger mode: 0
Integration Time (sec): 1.500000E-2
Scans to average: 1
Electric dark correction enabled: true
Nonlinearity correction enabled: false
Boxcar width: 0
XAxis mode: Wavelengths
Number of Pixels in Spectrum: 3648
>>>>>Begin Spectral Data<<<<<
179.3399	-0.2341
179.5586	-0.2341
179.7771	-0.2341
179.9957	-0.1273
180.2143	-0
180.4329	0.2619
180.6514	-0
180.8699	-0
181.0885	-0
181.307	0.1815
181.5255	0.3423
181.744	-0
181.9625	0.3457
182.181	-0.1307
182.3994	-0.8446
182.6179	0.1288
182.8363	-0.0972
183.0547	0.1292
183.2732	0.0943
183.4916	0.3159
183.71	0.1692
183.9284	0.1127
184.1467	0.7323
184.3651	-0.0306
184.5835	0.063
184.8018	0.0376
185.0201	0.1092
185.2385	0.2733
185.4568	-0.011
185.6751	0.0436
185.8934	0.1082
186.1117	-0.1386
186.3299	0.3243
186.5482	0.2406
186.7664	0.0962
186.9847	0.0791
187.2029	0.3035
187.4211	0.1746
187.6393	0.0635
187.8575	0.1916
188.0757	0.5725
188.2939	0.0221
188.512	0.1189
188.7302	0.1201
188.9483	0.2014
189.1665	0.6806
189.3846	0.3614
189.6027	0.2353
189.8208	0.1707
190.0389	0.0676
190.257	0.0019
190.475	0.0386
190.6931	0.1544
190.9111	0.1764
191.1292	0.0442
191.3472	0.2409
191.5652	0.2613
191.7832	0.3303
192.0012	0.1524
192.2192	0.1501
192.4371	0.0952
192.6551	0.2041
192.873	0.1496
193.091	0.0047
193.3089	0.0937
193.5268	0.3052
193.7447	0.1284
193.9626	0.2381
194.1805	0.2239
194.3984	0.1634
194.6162	0.223
194.8341	0.2515
195.0519	0.2418
195.2697	0.2812
195.4875	0.2915
195.7054	0.2291
195.9231	0.2307
196.1409	0.2841
196.3587	0.3203
196.5765	0.3707
196.7942	0.2644
197.012	0.3449
197.2297	0.2871
197.4474	0.3838
197.6651	0.3301
197.8828	0.3098
198.1005	0.428
198.3182	0.3694
198.5358	0.3455
198.7535	0.3314
198.9711	0.4119
199.1888	0.3508
199.4064	0.3574
199.624	0.422
199.8416	0.3743
200.0592	0.3618
200.2767	0.3907
200.4943	0.4149
200.7119	0.3541
200.9294	0.3816
201.1469	0.4647
201.3645	0.4174
201.582	0.4041
201.7995	0.4177
202.017	0.4122
202.2344	0.4184
202.4519	0.359
202.6694	0.4084
202.8868	0.379
203.1042	0.3777
203.3217	0.3458
203.5391	0.4014
203.7565	0.3392
203.9739	0.3561
204.1913	0.3395
204.4086	0.3759
204.626	0.3414
204.8433	0.3834
205.0607	0.3698
205.278	0.3367
205.4953	0.344
205.7126	0.3587
205.9299	0.3135
206.1472	0.3019
206.3644	0.3358
206.5817	0.3208
206.7989	0.3181
207.0162	0.3182
207.2334	0.3274
207.4506	0.3133
207.6678	0.2747
207.885	0.2909
208.1022	0.2831
208.3194	0.2494
208.5365	0.2809
208.7537	0.2726
208.9708	0.3107
209.1879	0.3015
209.405	0.2765
209.6222	0.2729
209.8392	0.2881
210.0563	0.2796
210.2734	0.2604
210.4905	0.2553
210.7075	0.2739
210.9245	0.268
211.1416	0.2636
211.3586	0.2688
211.5756	0.2558
211.7926	0.2557
212.0096	0.2803
212.2265	0.264
212.4435	0.2599
212.6604	0.2449
212.8774	0.2365
213.0943	0.266
213.3112	0.2578
213.5281	0.2603
213.745	0.2453
213.9619	0.2412
214.1788	0.2537
214.3956	0.2693
214.6125	0.2583
214.8293	0.2388
215.0461	0.2641
215.2629	0.2432
215.4798	0.2514
215.6965	0.2452
215.9133	0.2382
216.1301	0.226
216.3469	0.2327
216.5636	0.2491
216.7803	0.2541
216.9971	0.2758
217.2138	0.2617
217.4305	0.2464
217.6472	0.2546
217.8639	0.2465
218.0805	0.2544
218.2972	0.2524
218.5138	0.2556
218.7305	0.2659
218.9471	0.2449
219.1637	0.2675
219.3803	0.2719
219.5969	0.2525
219.8135	0.2631
220.0301	0.2526
220.2466	0.2637
220.4632	0.2579
220.6797	0.2757
220.8962	0.2588
221.1127	0.2772
221.3292	0.2594
221.5457	0.2811
221.7622	0.2715
221.9787	0.2862
222.1951	0.2619
222.4116	0.2739
222.628	0.2868
222.8444	0.2782
223.0608	0.2758
223.2772	0.2759
223.4936	0.2827
223.71	0.2794
223.9264	0.2867
224.1427	0.2884
224.3591	0.2792
224.5754	0.2958
224.7917	0.2836
225.008	0.2868
225.2243	0.2962
225.4406	0.2908
225.6569	0.3093
225.8732	0.3086
226.0894	0.308
226.3057	0.3123
226.5219	0.313
226.7381	0.3156
226.9543	0.3208
227.1705	0.315
227.3867	0.3323
227.6029	0.3303
227.8191	0.3426
228.0352	0.3291
228.2513	0.3426
228.4675	0.342
228.6836	0.3506
228.8997	0.3446
229.1158	0.3516
229.3319	0.3577
229.548	0.3506
229.764	0.3541
229.9801	0.3735
230.1961	0.3605
230.4121	0.3743
230.6282	0.374
230.8442	0.3764
231.0602	0.3879
231.2761	0.3785
231.4921	0.392
231.7081	0.3894
231.924	0.3945
232.14	0.4098
232.3559	0.4036
232.5718	0.4057
232.7877	0.4075
233.0036	0.4064
233.2195	0.4093
233.4353	0.4157
233.6512	0.4152
233.867	0.4229
234.0829	0.4305
234.2987	0.4182
234.5145	0.4426
234.7303	0.4363
234.9461	0.4323
235.1619	0.4392
235.3776	0.4338
235.5934	0.4249
235.8091	0.4353
236.0249	0.4424
236.2406	0.4472
236.4563	0.4474
236.672	0.4474
236.8877	0.4475
237.1034	0.4456
237.319	0.4494
237.5347	0.453
237.7503	0.4461
237.966	0.4624
238.1816	0.456
238.3972	0.4565
238.6128	0.4613
238.8284	0.4725
239.0439	0.4574
239.2595	0.4523
239.475	0.4609
239.6906	0.4578
239.9061	0.4596
240.1216	0.4622
240.3371	0.4592
240.5526	0.4629
240.7681	0.4534
240.9836	0.4567
241.199	0.4508
241.4145	0.4447
241.6299	0.4516
241.8453	0.4314
242.0607	0.43
242.2761	0.4313
242.4915	0.4245
242.7069	0.4125
242.9223	0.416
243.1376	0.4048
243.353	0.389
243.5683	0.3915
243.7836	0.3817
243.9989	0.3651
244.2142	0.3666
244.4295	0.3627
244.6448	0.3603
244.86	0.3452
245.0753	0.3359
245.2905	0.3323
245.5057	0.3255
245.721	0.3344
245.9362	0.3159
246.1514	0.3185
246.3665	0.3119
246.5817	0.3003
246.7969	0.3007
247.012	0.283
247.2271	0.2944
247.4423	0.2824
247.6574	0.2789
247.8725	0.2708
248.0876	0.2629
248.3026	0.2666
248.5177	0.2536
248.7328	0.2499
248.9478	0.2526
249.1628	0.2419
249.3779	0.2445
249.5929	0.2315
249.8079	0.2329
250.0228	0.2284
250.2378	0.2323
250.4528	0.2252
250.6677	0.2188
250.8827	0.2097
251.0976	0.2125
251.3125	0.2184
251.5274	0.2079
251.7423	0.2033
251.9572	0.2067
252.172	0.203
252.3869	0.2036
252.6017	0.2027
252.8166	0.1984
253.0314	0.1996
253.2462	0.1937
253.461	0.1952
253.6758	0.1942
253.8906	0.1928
254.1053	0.1933
254.3201	0.1905
254.5348	0.1836
254.7496	0.1807
254.9643	0.1887
255.179	0.186
255.3937	0.1869
255.6083	0.1925
255.823	0.1888
256.0377	0.1786
256.2523	0.1797
256.467	0.1848
256.6816	0.1786
256.8962	0.1803
257.1108	0.1811
257.3254	0.1779
257.54	0.174
257.7545	0.1804
257.9691	0.1754
258.1836	0.1752
258.3981	0.1785
258.6127	0.1736
258.8272	0.1819
259.0417	0.1693
259.2561	0.1708
259.4706	0.1676
259.6851	0.1769
259.8995	0.1693
260.114	0.1719
260.3284	0.1734
260.5428	0.1703
260.7572	0.1751
260.9716	0.1802
261.186	0.1689
261.4003	0.1718
261.6147	0.1761
261.829	0.1698
262.0433	0.1768
262.2577	0.1772
262.472	0.1722
262.6863	0.1748
262.9005	0.1741
263.1148	0.1736
263.3291	0.1771
263.5433	0.1765
263.7576	0.1715
263.9718	0.1754
264.186	0.1763
264.4002	0.1737
264.6144	0.1814
264.8286	0.1782
265.0427	0.1805
265.2569	0.1816
265.471	0.1704
265.6851	0.1768
265.8993	0.1737
266.1134	0.1744
266.3275	0.1764
266.5415	0.1771
266.7556	0.1773
266.9697	0.1792
267.1837	0.1775
267.3978	0.1785
267.6118	0.1691
267.8258	0.1761
268.0398	0.1802
268.2538	0.1807
268.4677	0.1699
268.6817	0.1739
268.8957	0.1697
269.1096	0.1668
269.3235	0.1696
269.5374	0.1706
269.7514	0.1721
269.9652	0.1698
270.1791	0.1715
270.393	0.1707
270.6068	0.1696
270.8207	0.1709
271.0345	0.1679
271.2483	0.1591
271.4622	0.1705
271.676	0.1637
271.8897	0.1675
272.1035	0.1685
272.3173	0.1638
272.531	0.1696
272.7448	0.1613
272.9585	0.1622
273.1722	0.1591
273.3859	0.1619
273.5996	0.1669
273.8133	0.1674
274.0269	0.1613
274.2406	0.1677
274.4542	0.1646
274.6679	0.1661
274.8815	0.1694
275.0951	0.17
275.3087	0.1706
275.5223	0.1639
275.7358	0.1664
275.9494	0.1735
276.1629	0.1721
276.3765	0.168
276.59	0.1622
276.8035	0.1639
277.017	0.1754
277.2305	0.1718
277.444	0.1683
277.6574	0.1721
277.8709	0.1748
278.0843	0.1675
278.2978	0.1758
278.5112	0.1691
278.7246	0.1713
278.938	0.176
279.1513	0.1746
279.3647	0.1737
279.5781	0.1657
279.7914	0.1713
280.0047	0.1721
280.2181	0.1718
280.4314	0.1741
280.6447	0.1736
280.8579	0.1709
281.0712	0.1718
281.2845	0.1724
281.4977	0.1742
281.711	0.1733
281.9242	0.1763
282.1374	0.1764
282.3506	0.1813
282.5638	0.175
282.7769	0.1661
282.9901	0.179
283.2033	0.179
283.4164	0.172
283.6295	0.177
283.8426	0.1688
284.0557	0.1763
284.2688	0.1817
284.4819	0.1773
284.695	0.1871
284.908	0.1782
285.1211	0.1816
285.3341	0.1819
285.5471	0.1824
285.7601	0.1796
285.9731	0.1831
286.1861	0.1858
286.3991	0.1904
286.612	0.1823
286.825	0.1902
287.0379	0.1847
287.2508	0.1888
287.4637	0.1928
287.6766	0.1876
287.8895	0.1855
288.1024	0.1875
288.3152	0.1945
288.5281	0.1803
288.7409	0.1881
288.9538	0.1878
289.1666	0.1855
289.3794	0.1911
289.5922	0.1844
289.8049	0.1897
290.0177	0.1918
290.2304	0.1912
290.4432	0.1941
290.6559	0.1909
290.8686	0.1934
291.0813	0.1922
291.294	0.1924
291.5067	0.1904
291.7194	0.1938
291.932	0.1866
292.1447	0.195
292.3573	0.1932
292.5699	0.1964
292.7825	0.191
292.9951	0.1893
293.2077	0.1908
293.4203	0.1911
293.6328	0.192
293.8454	0.1931
294.0579	0.1913
294.2704	0.1986
294.4829	0.1861
294.6954	0.1957
294.9079	0.1937
295.1204	0.1857
295.3328	0.1933
295.5453	0.1919
295.7577	0.1947
295.9701	0.1924
296.1825	0.1968
296.3949	0.1876
296.6073	0.1893
296.8197	0.1921
297.0321	0.1934
297.2444	0.1874
297.4567	0.1926
297.6691	0.1953
297.8814	0.1953
298.0937	0.1957
298.306	0.1932
298.5182	0.1966
298.7305	0.1962
298.9428	0.1918
299.155	0.1915
299.3672	0.1942
299.5794	0.1918
299.7916	0.1954
300.0038	0.1986
300.216	0.188
300.4282	0.1945
300.6403	0.1981
300.8525	0.1926
301.0646	0.1931
301.2767	0.1913
301.4888	0.1931
301.7009	0.1921
301.913	0.1935
302.125	0.1918
302.3371	0.1957
302.5491	0.1942
302.7612	0.198
302.9732	0.1942
303.1852	0.1897
303.3972	0.1976
303.6092	0.1946
303.8211	0.1924
304.0331	0.1887
304.245	0.1928
304.457	0.1921
304.6689	0.1954
304.8808	0.1889
305.0927	0.1848
305.3046	0.1876
305.5164	0.182
305.7283	0.178
305.9401	0.1736
306.152	0.1769
306.3638	0.1792
306.5756	0.1829
306.7874	0.1785
306.9992	0.1721
307.2109	0.1723
307.4227	0.1763
307.6344	0.1825
307.8462	0.1672
308.0579	0.1727
308.2696	0.17
308.4813	0.1632
308.693	0.1578
308.9046	0.161
309.1163	0.159
309.328	0.153
309.5396	0.1546
309.7512	0.1519
309.9628	0.1502
310.1744	0.1489
310.386	0.1454
310.5976	0.1406
310.8091	0.1453
311.0207	0.1444
311.2322	0.1383
311.4437	0.1415
311.6552	0.1461
311.8667	0.1433
312.0782	0.1392
312.2897	0.1403
312.5012	0.1357
312.7126	0.1299
312.924	0.1381
313.1355	0.1357
313.3469	0.1329
313.5583	0.1315
313.7696	0.125
313.981	0.1353
314.1924	0.1252
314.4037	0.1225
314.6151	0.1232
314.8264	0.1292
315.0377	0.1244
315.249	0.1269
315.4603	0.1188
315.6716	0.1241
315.8828	0.1174
316.0941	0.124
316.3053	0.1211
316.5165	0.1224
316.7277	0.1211
316.9389	0.1239
317.1501	0.1209
317.3613	0.122
317.5724	0.1218
317.7836	0.1184
317.9947	0.1154
318.2058	0.119
318.417	0.1171
318.6281	0.116
318.8391	0.1225
319.0502	0.1197
319.2613	0.116
319.4723	0.1195
319.6834	0.1226
319.8944	0.1149
320.1054	0.1236
320.3164	0.1154
320.5274	0.1172
320.7383	0.1223
320.9493	0.1172
321.1602	0.116
321.3712	0.1235
321.5821	0.1196
321.793	0.1261
322.0039	0.1173
322.2148	0.1203
322.4257	0.1193
322.6365	0.1174
322.8474	0.1198
323.0582	0.1185
323.269	0.1233
323.4798	0.121
323.6906	0.1117
323.9014	0.12
324.1122	0.1208
324.3229	0.1288
324.5337	0.1194
324.7444	0.1213
324.9551	0.1258
325.1658	0.1176
325.3765	0.1249
325.5872	0.1159
325.7979	0.1147
326.0085	0.1221
326.2192	0.1208
326.4298	0.1261
326.6404	0.1225
326.851	0.1163
327.0616	0.1242
327.2722	0.1222
327.4828	0.1227
327.6933	0.1335
327.9039	0.1195
328.1144	0.1222
328.3249	0.1273
328.5354	0.1315
328.7459	0.1241
328.9564	0.1311
329.1669	0.1287
329.3773	0.126
329.5878	0.1242
329.7982	0.1319
330.0086	0.123
330.219	0.1206
330.4294	0.1257
330.6398	0.1228
330.8502	0.1269
331.0605	0.121
331.2708	0.124
331.4812	0.1253
331.6915	0.1256
331.9018	0.1255
332.1121	0.1295
332.3224	0.1242
332.5326	0.125
332.7429	0.1261
332.9531	0.1301
333.1633	0.1273
333.3735	0.1285
333.5837	0.1303
333.7939	0.126
334.0041	0.1349
334.2143	0.1327
334.4244	0.1335
334.6346	0.1257
334.8447	0.1291
335.0548	0.1328
335.2649	0.1297
335.475	0.1319
335.685	0.1323
335.8951	0.1298
336.1051	0.1384
336.3152	0.1353
336.5252	0.1258
336.7352	0.1302
336.9452	0.1342
337.1552	0.1353
337.3652	0.1278
337.5751	0.1263
337.7851	0.1338
337.995	0.1351
338.2049	0.1284
338.4148	0.1375
338.6247	0.136
338.8346	0.134
339.0445	0.1359
339.2543	0.1385
339.4642	0.1356
339.674	0.129
339.8838	0.1391
340.0936	0.1369
340.3034	0.1334
340.5132	0.132
340.7229	0.1403
340.9327	0.1455
341.1424	0.1333
341.3522	0.1298
341.5619	0.1419
341.7716	0.1436
341.9813	0.1465
342.1909	0.1412
342.4006	0.1402
342.6102	0.1441
342.8199	0.1392
343.0295	0.1409
343.2391	0.1474
343.4487	0.1445
343.6583	0.1489
343.8679	0.1444
344.0774	0.1428
344.287	0.1448
344.4965	0.1485
344.706	0.1559
344.9155	0.1451
345.125	0.1432
345.3345	0.1592
345.544	0.1491
345.7534	0.1549
345.9629	0.1528
346.1723	0.1562
346.3817	0.1559
346.5911	0.1535
346.8005	0.1572
347.0099	0.1591
347.2193	0.161
347.4286	0.1625
347.638	0.1561
347.8473	0.162
348.0566	0.1536
348.2659	0.1567
348.4752	0.1578
348.6845	0.1616
348.8937	0.1644
349.103	0.1586
349.3122	0.1639
349.5214	0.1681
349.7306	0.1625
349.9398	0.1688
350.149	0.1616
350.3582	0.168
350.5674	0.1671
350.7765	0.1719
350.9856	0.1616
351.1948	0.1727
351.4039	0.1775
351.613	0.1718
351.822	0.173
352.0311	0.1759
352.2402	0.1795
352.4492	0.1745
352.6582	0.1783
352.8672	0.175
353.0762	0.1754
353.2852	0.1831
353.4942	0.1743
353.7032	0.1788
353.9121	0.177
354.1211	0.1796
354.33	0.1832
354.5389	0.1781
354.7478	0.1792
354.9567	0.1833
355.1655	0.1825
355.3744	0.1793
355.5833	0.1878
355.7921	0.1892
356.0009	0.1818
356.2097	0.1743
356.4185	0.185
356.6273	0.1852
356.8361	0.1849
357.0448	0.1831
357.2536	0.1835
357.4623	0.1933
357.671	0.192
357.8797	0.1922
358.0884	0.1898
358.2971	0.1848
358.5057	0.1948
358.7144	0.1933
358.923	0.1922
359.1316	0.2043
359.3402	0.1987
359.5488	0.1942
359.7574	0.2001
359.966	0.2051
360.1746	0.2035
360.3831	0.2042
360.5916	0.2056
360.8002	0.2125
361.0087	0.2049
361.2172	0.2063
361.4256	0.2085
361.6341	0.2159
361.8426	0.2122
362.051	0.2095
362.2594	0.21
362.4678	0.2096
362.6762	0.2188
362.8846	0.2146
363.093	0.2189
363.3014	0.2237
363.5097	0.2203
363.718	0.2199
363.9264	0.2238
364.1347	0.2232
364.343	0.2245
364.5513	0.2177
364.7595	0.2289
364.9678	0.2286
365.176	0.2276
365.3842	0.2349
365.5925	0.2235
365.8007	0.225
366.0089	0.2401
366.217	0.2307
366.4252	0.2259
366.6333	0.2422
366.8415	0.2426
367.0496	0.2355
367.2577	0.2423
367.4658	0.2416
367.6739	0.2433
367.882	0.2422
368.09	0.2339
368.2981	0.2457
368.5061	0.2387
368.7141	0.2457
368.9221	0.2527
369.1301	0.257
369.3381	0.2532
369.5461	0.2556
369.754	0.2539
369.962	0.2486
370.1699	0.2546
370.3778	0.2616
370.5857	0.2529
370.7936	0.2558
371.0015	0.2626
371.2093	0.2519
371.4172	0.2544
371.625	0.2514
371.8328	0.2532
372.0406	0.2603
372.2484	0.2618
372.4562	0.2663
372.664	0.2716
372.8717	0.2673
373.0795	0.2709
373.2872	0.2726
373.4949	0.2683
373.7026	0.2707
373.9103	0.2629
374.118	0.2704
374.3256	0.2763
374.5333	0.2686
374.7409	0.273
374.9485	0.2666
375.1561	0.2814
375.3637	0.2676
375.5713	0.2819
375.7789	0.2701
375.9864	0.2703
376.194	0.282
376.4015	0.2812
376.609	0.2776
376.8165	0.2815
377.024	0.2848
377.2315	0.2882
377.4389	0.2786
377.6464	0.2817
377.8538	0.287
378.0612	0.285
378.2686	0.2864
378.476	0.2981
378.6834	0.288
378.8908	0.2941
379.0981	0.2901
379.3055	0.286
379.5128	0.2852
379.7201	0.2939
379.9274	0.2936
380.1347	0.2958
380.342	0.3003
380.5492	0.2875
380.7565	0.292
380.9637	0.2946
381.1709	0.2939
381.3781	0.3001
381.5853	0.3002
381.7925	0.2942
381.9997	0.2957
382.2068	0.2986
382.4139	0.2997
382.6211	0.3121
382.8282	0.3086
383.0353	0.3098
383.2424	0.3001
383.4494	0.2998
383.6565	0.3124
383.8635	0.3008
384.0706	0.3116
384.2776	0.3125
384.4846	0.3152
384.6916	0.3151
384.8986	0.3129
385.1055	0.3184
385.3125	0.32
385.5194	0.3176
385.7263	0.3045
385.9333	0.3133
386.1402	0.3092
386.347	0.3136
386.5539	0.3102
386.7608	0.312
386.9676	0.3161
387.1744	0.3018
387.3813	0.3152
387.5881	0.3018
387.7948	0.3181
388.0016	0.3155
388.2084	0.3134
388.4151	0.3114
388.6219	0.3036
388.8286	0.3169
389.0353	0.3045
389.242	0.3141
389.4487	0.3148
389.6553	0.2995
389.862	0.2951
390.0686	0.3078
390.2753	0.3018
390.4819	0.3069
390.6885	0.3077
390.8951	0.3037
391.1016	0.2936
391.3082	0.2973
391.5147	0.3021
391.7213	0.304
391.9278	0.2862
392.1343	0.296
392.3408	0.2949
392.5473	0.2989
392.7537	0.3003
392.9602	0.2963
393.1666	0.294
393.373	0.2842
393.5794	0.2907
393.7858	0.2933
393.9922	0.2805
394.1986	0.2756
394.4049	0.2804
394.6113	0.2814
394.8176	0.2823
395.0239	0.2825
395.2302	0.2764
395.4365	0.2836
395.6428	0.2704
395.8491	0.27
396.0553	0.2748
396.2615	0.2766
396.4678	0.2767
396.674	0.2634
396.8802	0.262
397.0863	0.2699
397.2925	0.2613
397.4987	0.2627
397.7048	0.27
397.9109	0.2643
398.117	0.2675
398.3231	0.2678
398.5292	0.2614
398.7353	0.2585
398.9413	0.2703
399.1474	0.2682
399.3534	0.2666
399.5594	0.267
399.7654	0.2675
399.9714	0.2641
400.1774	0.252
400.3833	0.2654
400.5893	0.2669
400.7952	0.2659
401.0011	0.2612
401.207	0.261
401.4129	0.2632
401.6188	0.2602
401.8247	0.2662
402.0305	0.2575
402.2364	0.27
402.4422	0.2637
402.648	0.2637
402.8538	0.2612
403.0596	0.2577
403.2654	0.266
403.4711	0.2583
403.6768	0.2624
403.8826	0.2764
404.0883	0.2639
404.294	0.2579
404.4997	0.2645
404.7054	0.2635
404.911	0.2645
405.1167	0.263
405.3223	0.2591
405.5279	0.2534
405.7335	0.274
405.9391	0.258
406.1447	0.2737
406.3502	0.2626
406.5558	0.2545
406.7613	0.2631
406.9668	0.2616
407.1724	0.2625
407.3778	0.2696
407.5833	0.2521
407.7888	0.2653
407.9942	0.2602
408.1997	0.2654
408.4051	0.2713
408.6105	0.2616
408.8159	0.2546
409.0213	0.2686
409.2267	0.259
409.432	0.2499
409.6374	0.2574
409.8427	0.2665
410.048	0.266
410.2533	0.2516
410.4586	0.2611
410.6639	0.2668
410.8691	0.2588
411.0744	0.2601
411.2796	0.2651
411.4848	0.2668
411.69	0.2575
411.8952	0.2667
412.1004	0.2649
412.3056	0.2609
412.5107	0.2686
412.7158	0.2723
412.921	0.26
413.1261	0.263
413.3312	0.2667
413.5362	0.2626
413.7413	0.2495
413.9464	0.2522
414.1514	0.2584
414.3564	0.2585
414.5614	0.2586
414.7664	0.2582
414.9714	0.2615
415.1764	0.2559
415.3813	0.2497
415.5863	0.2656
415.7912	0.2512
415.9961	0.2558
416.201	0.2581
416.4059	0.2587
416.6108	0.2578
416.8156	0.2513
417.0205	0.2538
417.2253	0.2512
417.4301	0.2484
417.6349	0.2556
417.8397	0.2433
418.0445	0.2585
418.2492	0.2536
418.454	0.246
418.6587	0.258
418.8634	0.2432
419.0681	0.2475
419.2728	0.2476
419.4775	0.2477
419.6822	0.2438
419.8868	0.2404
420.0915	0.2461
420.2961	0.2374
420.5007	0.2462
420.7053	0.2501
420.9099	0.249
421.1144	0.248
421.319	0.2346
421.5235	0.2389
421.728	0.2349
421.9325	0.2442
422.137	0.2371
422.3415	0.2317
422.546	0.231
422.7504	0.2257
422.9549	0.2418
423.1593	0.2377
423.3637	0.2374
423.5681	0.2339
423.7725	0.2367
423.9769	0.2437
424.1812	0.2199
424.3856	0.2356
424.5899	0.2221
424.7942	0.2284
424.9985	0.2297
425.2028	0.2423
425.4071	0.2261
425.6113	0.2228
425.8156	0.2189
426.0198	0.2174
426.224	0.2252
426.4282	0.2185
426.6324	0.2168
426.8366	0.2176
427.0407	0.2087
427.2449	0.2173
427.449	0.2217
427.6531	0.2193
427.8572	0.2191
428.0613	0.2184
428.2654	0.214
428.4694	0.1973
428.6735	0.2
428.8775	0.202
429.0815	0.208
429.2855	0.1973
429.4895	0.2065
429.6935	0.1989
429.8975	0.1835
430.1014	0.1983
430.3053	0.1952
430.5093	0.1951
430.7132	0.1897
430.9171	0.1897
431.1209	0.1932
431.3248	0.1789
431.5286	0.1754
431.7325	0.1936
431.9363	0.1805
432.1401	0.1819
432.3439	0.1792
432.5477	0.1804
432.7514	0.1682
432.9552	0.1706
433.1589	0.1594
433.3627	0.1716
433.5664	0.1668
433.7701	0.1731
433.9737	0.172
434.1774	0.1719
434.3811	0.1527
434.5847	0.1602
434.7883	0.1579
434.9919	0.1521
435.1955	0.1639
435.3991	0.1529
435.6027	0.1483
435.8062	0.1618
436.0098	0.1502
436.2133	0.1417
436.4168	0.1405
436.6203	0.1367
436.8238	0.1453
437.0272	0.1432
437.2307	0.133
437.4341	0.1312
437.6375	0.1397
437.841	0.1228
438.0443	0.1318
438.2477	0.1228
438.4511	0.1283
438.6545	0.1298
438.8578	0.1265
439.0611	0.1247
439.2644	0.1221
439.4677	0.1255
439.671	0.1027
439.8743	0.1188
440.0775	0.1139
440.2808	0.1128
440.484	0.1112
440.6872	0.1015
440.8904	0.1013
441.0936	0.1076
441.2967	0.0946
441.4999	0.1086
441.703	0.0947
441.9062	0.1001
442.1093	0.1112
442.3124	0.1031
442.5155	0.0934
442.7185	0.0889
442.9216	0.0939
443.1246	0.0856
443.3276	0.0875
443.5307	0.0812
443.7337	0.0869
443.9366	0.0806
444.1396	0.0759
444.3426	0.0828
444.5455	0.0827
444.7484	0.0796
444.9513	0.0725
445.1542	0.0695
445.3571	0.0771
445.56	0.063
445.7628	0.0738
445.9657	0.0704
446.1685	0.069
446.3713	0.0724
446.5741	0.0724
446.7769	0.0736
446.9797	0.0707
447.1824	0.0682
447.3852	0.0452
447.5879	0.0576
447.7906	0.0621
447.9933	0.0585
448.196	0.0552
448.3986	0.0524
448.6013	0.0524
448.8039	0.0593
449.0066	0.0651
449.2092	0.0588
449.4118	0.0486
449.6143	0.0569
449.8169	0.0496
450.0195	0.0466
450.222	0.0538
450.4245	0.0548
450.627	0.0456
450.8295	0.0491
451.032	0.0473
451.2345	0.0383
451.4369	0.0378
451.6394	0.0364
451.8418	0.0474
452.0442	0.0426
452.2466	0.0348
452.449	0.0409
452.6513	0.0348
452.8537	0.0354
453.056	0.0383
453.2583	0.0375
453.4607	0.0279
453.663	0.033
453.8652	0.0257
454.0675	0.0444
454.2697	0.0331
454.472	0.029
454.6742	0.0313
454.8764	0.0314
455.0786	0.0269
455.2808	0.0325
455.4829	0.0296
455.6851	0.0272
455.8872	0.0148
456.0893	0.0282
456.2915	0.0225
456.4935	0.025
456.6956	0.0216
456.8977	0.0229
457.0997	0.0365
457.3018	0.0169
457.5038	0.0228
457.7058	0.0259
457.9078	0.0246
458.1098	0.0236
458.3117	0.025
458.5137	0.0138
458.7156	0.0211
458.9175	0.0241
459.1194	0.0245
459.3213	0.0134
459.5232	0.0174
459.725	0.024
459.9269	0.0154
460.1287	0.0113
460.3305	0.0157
460.5323	0.0179
460.7341	0.0226
460.9359	0.0063
461.1376	0.0165
461.3394	0.0197
461.5411	0.02
461.7428	0.0134
461.9445	0.0098
462.1462	0.0103
462.3479	0.0143
462.5495	0.0201
462.7512	0.021
462.9528	0.0156
463.1544	0.0156
463.356	0.0062
463.5576	0.0076
463.7592	0.0091
463.9607	0.0142
464.1623	0.016
464.3638	0.0036
464.5653	0.0186
464.7668	0.0145
464.9683	0.0078
465.1697	0.0066
465.3712	0.002
465.5726	0.0071
465.7741	0.0123
465.9755	0.0131
466.1769	0.0114
466.3782	0.0097
466.5796	0.0064
466.7809	0.0111
466.9823	0.0064
467.1836	0.0099
467.3849	0.0099
467.5862	0.0024
467.7875	0.01
467.9887	0.0153
468.19	0.0056
468.3912	0.0151
468.5924	0.011
468.7936	0.0077
468.9948	0
469.196	-0.0016
469.3972	0.0005
469.5983	0.0072
469.7994	0.0028
470.0006	0.0111
470.2017	0.0004
470.4027	0.0164
470.6038	0.0108
470.8049	0.01
471.0059	0.0079
471.2069	0.0068
471.408	0.0106
471.6089	0.0068
471.8099	0.0087
472.0109	0.003
472.2119	0.0204
472.4128	-0.0048
472.6137	0.0037
472.8146	0.006
473.0155	0.0149
473.2164	0.0047
473.4173	-0.0015
473.6181	0.0069
473.819	0.0142
474.0198	-0.0009
474.2206	-0.0064
474.4214	0.0112
474.6222	-0.0006
474.8229	0.0039
475.0237	0.0098
475.2244	0.0032
475.4251	-0.003
475.6258	0.0024
475.8265	0.0057
476.0272	-0.0098
476.2278	0.0142
476.4285	0.0051
476.6291	0.0092
476.8297	0.0046
477.0303	-0.0048
477.2309	0.0065
477.4315	0.0091
477.632	-0
477.8326	-0.0012
478.0331	0.0096
478.2336	0.0068
478.4341	0.006
478.6346	0.0019
478.8351	0.0024
479.0355	0.0094
479.236	0.0124
479.4364	0.0056
479.6368	-0.0005
479.8372	0.0057
480.0376	0.0021
480.2379	-0.0008
480.4383	0.009
480.6386	-0.0065
480.8389	-0.0001
481.0392	0.0032
481.2395	0.017
481.4398	-0.0008
481.6401	0.004
481.8403	0.0033
482.0405	0.0025
482.2408	0.0069
482.441	0.0087
482.6411	0
482.8413	-0.0025
483.0415	0.0107
483.2416	-0.0013
483.4417	0.0005
483.6419	0.0034
483.8419	0.0026
484.042	-0.0017
484.2421	0.0014
484.4422	0.0036
484.6422	0.0068
484.8422	0.0108
485.0422	0.001
485.2422	0.0034
485.4422	0.0018
485.6422	-0.0026
485.8421	0.0034
486.042	0.0103
486.242	0.0011
486.4419	0.003
486.6417	0.0013
486.8416	-0.0011
487.0415	0.0018
487.2413	-0.0048
487.4411	0.0034
487.641	0.0009
487.8408	0.0089
488.0405	0.0029
488.2403	-0.0003
488.4401	0.0031
488.6398	0.0051
488.8395	0.0029
489.0392	0.0081
489.2389	0.0064
489.4386	-0.0103
489.6383	0.0027
489.8379	0.0003
490.0376	0.0038
490.2372	0.0045
490.4368	0.0032
490.6364	0.0014
490.836	0.0038
491.0355	-0.0004
491.2351	0.0061
491.4346	0.0012
491.6341	-0.0009
491.8336	0.0042
492.0331	0.0005
492.2326	0.0049
492.432	0.0056
492.6315	0.0046
492.8309	0.0094
493.0303	0.0095
493.2297	-0.0014
493.4291	-0.0023
493.6284	0.0151
493.8278	0.0022
494.0271	0.0104
494.2264	-0.0032
494.4257	0.0043
494.625	0.0043
494.8243	-0.005
495.0236	0.0064
495.2228	0.0021
495.422	0.0114
495.6213	0.0036
495.8205	0.0075
496.0196	-0.0015
496.2188	0.0024
496.418	0.0063
496.6171	-0.0012
496.8162	0.0015
497.0153	0.0017
497.2144	0.0084
497.4135	0.0059
497.6126	0.0071
497.8116	-0.0018
498.0107	0.0042
498.2097	0.0047
498.4087	-0.0055
498.6077	-0.0065
498.8067	0.0015
499.0056	0.004
499.2046	0.0092
499.4035	0.0014
499.6024	0.0048
499.8013	0.0036
500.0002	0.0028
500.199	0.0129
500.3979	0.0024
500.5967	0.0037
500.7956	0.0101
500.9944	-0.0012
501.1932	0.0114
501.3919	0.0069
501.5907	0.0041
501.7895	0.0016
501.9882	-0.0001
502.1869	0.0097
502.3856	0.0028
502.5843	0.0029
502.783	0.0016
502.9816	0.0019
503.1803	0.0029
503.3789	0.01
503.5775	-0.0019
503.7761	0.0014
503.9747	0.0048
504.1732	-0.002
504.3718	0.0045
504.5703	0.0029
504.7689	-0.0022
504.9674	-0.0017
505.1658	-0.0003
505.3643	0.0028
505.5628	0.0065
505.7612	0.0067
505.9597	-0.0017
506.1581	0.0015
506.3565	0.0005
506.5549	0.0007
506.7532	-0.0065
506.9516	0.0086
507.1499	0.0054
507.3482	-0.001
507.5465	-0.0034
507.7448	0.0065
507.9431	-0.0004
508.1414	-0.0003
508.3396	0.0082
508.5379	0.006
508.7361	0.0046
508.9343	-0.0044
509.1325	0.0103
509.3306	0.0007
509.5288	-0.0057
509.7269	0.011
509.9251	0.0066
510.1232	0.0043
510.3213	0.0004
510.5193	-0.0037
510.7174	0.0033
510.9154	0.0117
511.1135	-0.0047
511.3115	0.0021
511.5095	0.0014
511.7075	-0.0063
511.9055	0.0036
512.1034	0.0054
512.3014	-0.0024
512.4993	0.0076
512.6972	0.0045
512.8951	0.0063
513.093	-0.0015
513.2908	0.0139
513.4887	0.0003
513.6865	0.0075
513.8844	0.0013
514.0822	0.0081
514.2799	-0.006
514.4777	-0.0049
514.6755	0.0011
514.8732	0.0033
515.0709	0.0036
515.2687	0.013
515.4664	0.0032
515.664	0.0084
515.8617	0.0051
516.0594	-0.011
516.257	0.0067
516.4546	0.006
516.6522	0.0059
516.8498	0.0068
517.0474	0.0042
517.2449	0.003
517.4425	0.0025
517.64	0.0076
517.8375	0.01
518.035	-0.0054
518.2325	-0.0082
518.43	0.0009
518.6274	-0.0037
518.8249	-0.0008
519.0223	0.0112
519.2197	-0.0034
519.4171	-0.0059
519.6145	0.0034
519.8118	-0.0111
520.0092	-0.0047
520.2065	0.0004
520.4038	-0.0021
520.6011	-0.0005
520.7984	0.0068
520.9956	0.0041
521.1929	0.0079
521.3901	0.0017
521.5874	0.0031
521.7846	-0.0029
521.9818	-0.0022
522.1789	-0.0051
522.3761	0.0249
522.5732	0.0048
522.7704	-0.0012
522.9675	-0.0015
523.1646	-0.0079
523.3617	0.0134
523.5587	0.0028
523.7558	0.0057
523.9528	0.0108
524.1498	0.0032
524.3468	0.0009
524.5438	0.005
524.7408	-0.004
524.9378	0.0092
525.1347	0.0122
525.3316	-0.0018
525.5285	-0.0067
525.7254	-0.0024
525.9223	0.0045
526.1192	0.006
526.316	0.0079
526.5129	0.0063
526.7097	0.0011
526.9065	0.0156
527.1033	0.0015
527.3	-0.0056
527.4968	0.0052
527.6935	-0.0075
527.8903	0.0084
528.087	0.0025
528.2837	0.0021
528.4804	-0.0035
528.677	0.0034
528.8737	0.0026
529.0703	-0.0003
529.2669	0.0091
529.4635	-0.0067
529.6601	-0.0168
529.8567	-0.0015
530.0532	-0.002
530.2498	0.0064
530.4463	-0.0089
530.6428	0.0012
530.8393	0.0174
531.0358	0.0006
531.2322	-0.0035
531.4287	0.0097
531.6251	-0.0078
531.8215	-0.0028
532.0179	0.0093
532.2143	0.0047
532.4107	0.0102
532.607	-0.0042
532.8034	0.0035
532.9997	-0.0003
533.196	-0.0033
533.3923	0.0144
533.5886	0.0011
533.7848	-0.0026
533.9811	0.0064
534.1773	-0.0013
534.3735	0.0053
534.5697	-0.0105
534.7659	0.0086
534.9621	0.0071
535.1582	0.0059
535.3544	0.0061
535.5505	0.0088
535.7466	0.0011
535.9427	0.0015
536.1387	-0.0081
536.3348	-0.0008
536.5308	-0.0095
536.7269	0.003
536.9229	0.0064
537.1189	0.004
537.3148	0.0005
537.5108	0.0074
537.7068	0.0014
537.9027	-0.0025
538.0986	0.0013
538.2945	-0.0061
538.4904	-0.0125
538.6863	0.0095
538.8821	0.004
539.078	0.0036
539.2738	0.0039
539.4696	-0.0112
539.6654	-0.0077
539.8611	0.0024
540.0569	-0.0042
540.2526	0.0097
540.4484	-0.006
540.6441	0.0033
540.8398	0.0034
541.0355	-0.0068
541.2311	0.0041
541.4268	0.0124
541.6224	0.0193
541.818	-0.0029
542.0136	0.0038
542.2092	0.0051
542.4048	0.0021
542.6003	-0.0053
542.7959	0.0062
542.9914	0.0029
543.1869	0.0009
543.3824	0.008
543.5779	0.0116
543.7734	0.0074
543.9688	0.0052
544.1642	-0.0131
544.3596	0.0078
544.555	-0.0011
544.7504	0.0152
544.9458	0.0037
545.1411	-0.0011
545.3365	0.0041
545.5318	0.0038
545.7271	0.0017
545.9224	0.0043
546.1177	0.0072
546.3129	-0.0007
546.5081	-0.0082
546.7034	-0.0055
546.8986	0.0045
547.0938	0.0075
547.289	0.0162
547.4841	0.0038
547.6793	-0.0049
547.8744	0.0083
548.0695	-0.0077
548.2646	0.0088
548.4597	-0.0021
548.6548	0.0147
548.8498	0.0062
549.0448	-0.0038
549.2399	0.0018
549.4349	0.0036
549.6298	0.0039
549.8248	0.0004
550.0198	0.0048
550.2147	0.0043
550.4096	-0.0067
550.6045	-0.0012
550.7994	0.0042
550.9943	-0.002
551.1892	-0.0095
551.384	0.009
551.5788	-0.0023
551.7737	0.0057
551.9685	0.0041
552.1632	0.0011
552.358	-0.0069
552.5528	-0.0004
552.7475	-0.0041
552.9422	0.0049
553.1369	0.0012
553.3316	0.004
553.5263	0.0071
553.7209	-0.0037
553.9156	0.0035
554.1102	-0.0022
554.3048	-0.0109
554.4994	0.0008
554.694	0.0105
554.8885	0.0036
555.0831	0.015
555.2776	-0.0001
555.4721	-0.0019
555.6666	0.005
555.8611	0.0024
556.0555	-0.0053
556.25	0.0038
556.4444	-0.0006
556.6388	-0.0021
556.8332	0.0015
557.0276	0.0011
557.222	-0.0029
557.4163	0.0046
557.6107	0.0034
557.805	-0.0043
557.9993	0.0077
558.1936	-0.0094
558.3879	-0.0015
558.5821	-0.009
558.7764	0.0008
558.9706	0.0016
559.1648	0.0026
559.359	-0.0007
559.5532	-0.0015
559.7473	-0.0082
559.9415	-0.0014
560.1356	0.0124
560.3297	0.0022
560.5238	0.0057
560.7179	0.0011
560.9119	-0.0054
561.106	-0.0022
561.3	0.0014
561.494	-0.0072
561.688	-0.0022
561.882	0.0035
562.076	0.007
562.2699	0.0158
562.4639	0.012
562.6578	0.0075
562.8517	-0.0043
563.0456	0.0066
563.2395	0.0103
563.4333	0.0056
563.6272	0.0014
563.821	0.0046
564.0148	-0.0036
564.2086	0.0017
564.4024	0.0043
564.5961	-0.0026
564.7899	0.0037
564.9836	0.001
565.1773	0.0095
565.371	-0.0025
565.5647	0.0076
565.7584	0.0098
565.952	-0.0004
566.1456	0.0067
566.3393	0.0033
566.5329	-0.0015
566.7264	0.0017
566.92	0.0049
567.1136	0.0027
567.3071	0.0006
567.5006	0.0051
567.6941	0.0044
567.8876	0.0013
568.0811	0.021
568.2745	0.0007
568.468	0.0021
568.6614	0.001
568.8548	0.0058
569.0482	0.0018
569.2416	0.0008
569.4349	0.0008
569.6283	0.003
569.8216	0.0072
570.0149	-0.0022
570.2082	0.0086
570.4015	0.0024
570.5947	-0.0031
570.788	0.0045
570.9812	-0.001
571.1744	0.0015
571.3676	0.0051
571.5608	0.0008
571.754	0.0127
571.9471	0.0041
572.1402	0.0048
572.3333	0.0057
572.5264	0.0017
572.7195	0.0013
572.9126	0.0009
573.1057	0.0041
573.2987	0.0043
573.4917	-0.0002
573.6847	-0.0003
573.8777	0.0064
574.0707	0.0039
574.2636	0.0033
574.4566	-0.0009
574.6495	-0.0025
574.8424	0.0034
575.0353	0.0079
575.2281	0.0067
575.421	0.0016
575.6138	0.0041
575.8067	0.0038
575.9995	-0.0021
576.1923	0.0023
576.385	0.006
576.5778	0.0082
576.7706	0.0032
576.9633	0.0028
577.156	-0.0001
577.3487	0
577.5414	0.0001
577.734	-0.001
577.9267	0.0039
578.1193	0.005
578.3119	-0.0002
578.5045	0
578.6971	-0.0015
578.8897	-0.0046
579.0822	0.0068
579.2747	0.002
579.4673	0.0013
579.6598	0.0008
579.8522	-0.0003
580.0447	0.0018
580.2372	0.0066
580.4296	0.0053
580.622	-0.0002
580.8144	0.0011
581.0068	0.0018
581.1992	0.0028
581.3915	0.0001
581.5839	0.0033
581.7762	0.0026
581.9685	0.0015
582.1608	0.0045
582.353	0.0024
582.5453	0.0023
582.7375	0.0007
582.9298	-0.0007
583.122	-0.0027
583.3142	0.0042
583.5063	0.0021
583.6985	0.0014
583.8906	0.0012
584.0827	0.0047
584.2749	-0.0001
584.4669	-0.0002
584.659	0.006
584.8511	0.0053
585.0431	0.0028
585.2352	0.0025
585.4272	0.0027
585.6192	0.0021
585.8111	0.0027
586.0031	-0.0006
586.195	0.0006
586.387	0.0006
586.5789	0.007
586.7708	0.0059
586.9627	0.0014
587.1545	-0.0006
587.3464	0.0048
587.5382	0.0002
587.73	0.006
587.9218	-0.0004
588.1136	-0.0023
588.3053	0.0088
588.4971	0.0014
588.6888	-0.002
588.8805	0.0031
589.0722	0.0066
589.2639	0.0007
589.4556	0.0035
589.6472	0.005
589.8389	0.0048
590.0305	0.002
590.2221	0.0043
590.4137	0.0015
590.6052	0.0059
590.7968	0.0036
590.9883	-0.0009
591.1798	-0.0008
591.3713	0.0031
591.5628	0.0018
591.7543	-0.0003
591.9458	0.0023
592.1372	0.0042
592.3286	-0.0002
592.52	0.0008
592.7114	-0.0034
592.9028	0.002
593.0941	0.0027
593.2855	-0.0001
593.4768	0.0072
593.6681	0.006
593.8594	0.0078
594.0506	0.0027
594.2419	0.0022
594.4331	0.0065
594.6244	-0.0032
594.8156	0.0055
595.0067	-0.003
595.1979	0.004
595.3891	0.0033
595.5802	0.0077
595.7713	0.0082
595.9624	0.0053
596.1535	-0
596.3446	-0.004
596.5357	0.0067
596.7267	0.0007
596.9177	-0.0018
597.1087	-0.0069
597.2997	0.0089
597.4907	-0.0081
597.6817	0.0078
597.8726	0.0009
598.0635	-0.0043
598.2544	0.0045
598.4453	0.0045
598.6362	0.001
598.827	-0.0008
599.0179	0.0005
599.2087	0.0013
599.3995	0.005
599.5903	0.0061
599.7811	0.0093
599.9718	-0.0026
600.1626	-0.0048
600.3533	0.001
600.544	0.002
600.7347	0.0038
600.9254	0.0067
601.116	-0.0021
601.3067	0.0031
601.4973	0.0022
601.6879	0.0053
601.8785	0.0032
602.0691	-0.0043
602.2596	-0.0011
602.4502	0.0048
602.6407	0.007
602.8312	0.0004
603.0217	0.0038
603.2122	-0.0006
603.4027	-0.0013
603.5931	-0.0046
603.7835	0.0036
603.9739	0.0022
604.1643	0.006
604.3547	0.0035
604.5451	0.0093
604.7354	-0.0014
604.9257	0.0023
605.116	-0.0002
605.3063	0.0017
605.4966	-0.0017
605.6869	0.0037
605.8771	0.0093
606.0673	0.0005
606.2575	-0.0053
606.4477	0.0077
606.6379	-0.0023
606.8281	0.0035
607.0182	0.0033
607.2083	-0.0034
607.3985	0.0042
607.5885	0.0029
607.7786	-0.0025
607.9687	-0.0002
608.1587	0.0073
608.3488	0.0046
608.5388	-0.0034
608.7288	-0.0056
608.9187	-0.0005
609.1087	0.0112
609.2986	0.0015
609.4886	-0.0025
609.6785	-0.0029
609.8684	-0.0061
610.0582	-0.0074
610.2481	-0.0022
610.4379	0.0008
610.6278	0.0013
610.8176	0.0082
611.0074	0.009
611.1971	0.0031
611.3869	0.0038
611.5766	-0.0064
611.7664	0.0118
611.9561	0.0011
612.1458	0.002
612.3354	0.0064
612.5251	0.0022
612.7147	0.0041
612.9044	0
613.094	0.0054
613.2836	0.0039
613.4731	-0.0009
613.6627	0.0056
613.8522	0.002
614.0417	0.003
614.2313	0.005
614.4207	0.0014
614.6102	0.0019
614.7997	0.006
614.9891	0.0022
615.1785	-0.0026
615.3679	0.0042
615.5573	-0.0009
615.7467	-0.0009
615.9361	0.0033
616.1254	0.0012
616.3147	0.0063
616.504	0.0023
616.6933	0.0066
616.8826	0.0001
617.0718	0.0032
617.2611	-0.0038
617.4503	-0.0011
617.6395	0.0011
617.8287	0.0037
618.0179	0.006
618.207	0.0093
618.3961	-0.0072
618.5853	-0.0024
618.7744	-0.0018
618.9634	0.0056
619.1525	0.0054
619.3416	-0.0014
619.5306	0.0047
619.7196	0.0104
619.9086	0.0045
620.0976	-0.0054
620.2866	0.0011
620.4755	-0.0017
620.6645	0.0091
620.8534	-0.0013
621.0423	-0.0039
621.2312	-0.0091
621.42	-0.0021
621.6089	-0.0013
621.7977	0.0033
621.9865	-0.0018
622.1753	-0.0132
622.3641	0.0019
622.5529	-0.0049
622.7416	0.0039
622.9303	0.0014
623.1191	0.0025
623.3078	0.004
623.4964	-0.0058
623.6851	0.0042
623.8737	-0.0085
624.0624	-0.0182
624.251	-0.002
624.4396	-0.0007
624.6282	0.0039
624.8167	0.0007
625.0053	0.008
625.1938	0.0054
625.3823	0.003
625.5708	-0.0004
625.7593	0.0036
625.9477	0.0002
626.1362	-0.0067
626.3246	-0.005
626.513	0.0069
626.7014	0.0173
626.8898	0.0143
627.0781	0.0065
627.2665	0.0105
627.4548	-0.0112
627.6431	0.0101
627.8314	0.0025
628.0197	0.0082
628.2079	-0.011
628.3962	-0.006
628.5844	0.0037
628.7726	-0.0072
628.9608	-0.0032
629.1489	-0.005
629.3371	-0.0064
629.5252	0.0038
629.7134	-0.0107
629.9015	0.0053
630.0895	-0.0074
630.2776	0.0038
630.4657	0.0014
630.6537	-0.0016
630.8417	-0.0128
631.0297	-0.0071
631.2177	-0.0003
631.4057	0.0024
631.5936	0.0016
631.7815	0.0104
631.9695	0.0188
632.1574	0.0059
632.3452	0.0096
632.5331	-0.0077
632.7209	0.0171
632.9088	-0.0041
633.0966	0.015
633.2844	0.0058
633.4722	-0.01
633.6599	0.01
633.8477	0.0058
634.0354	0.0066
634.2231	-0.0167
634.4108	-0.0006
634.5985	-0.0004
634.7861	-0.0027
634.9738	-0.0054
635.1614	-0.0164
635.349	0.0088
635.5366	0.013
635.7242	0.0062
635.9117	0.004
636.0993	0.0172
636.2868	-0.0147
636.4743	0.0122
636.6618	-0.0094
636.8492	0.0047
637.0367	-0.0076
637.2241	-0.0135
637.4115	0.016
637.5989	-0.007
637.7863	0.0337
637.9737	-0.0076
638.161	-0.0015
638.3484	-0.0171
638.5357	0.013
638.723	0.0123
638.9103	-0.0201
639.0975	0.0012
639.2848	0.0042
639.472	0.0202
639.6592	0.0032
639.8464	-0.0076
640.0336	0.0082
640.2208	-0.0109
640.4079	-0.0198
640.595	-0.0064
640.7821	0.0003
640.9692	-0.0073
641.1563	-0.0025
641.3434	-0.0139
641.5304	0.0125
641.7174	0.0005
641.9044	0.0169
642.0914	0.0114
642.2784	-0.0136
642.4653	-0.0084
642.6523	0.0193
642.8392	-0.0054
643.0261	0.0132
643.213	0.0015
643.3999	0.0116
643.5867	0.0071
643.7735	-0.0106
643.9604	0.0185
644.1472	-0.001
644.3339	-0.013
644.5207	0.011
644.7075	0.0204
644.8942	-0.0108
645.0809	0.0008
645.2676	-0.0023
645.4543	-0.0188
645.6409	-0.0011
645.8276	0.006
646.0142	0.0053
646.2008	-0.0096
646.3874	-0.0193
646.574	-0.0131
646.7605	-0.0104
646.9471	-0.0127
647.1336	-0.0144
647.3201	-0.0122
647.5066	-0.0029
647.6931	-0.0047
647.8795	0.0054
648.0659	-0.0003
648.2524	-0.0009
648.4388	0.0028
648.6252	0.0195
648.8115	0.0013
648.9979	0.0018
649.1842	-0.0044
649.3705	0.0016
649.5568	-0.0103
649.7431	-0.0052
649.9294	-0.0037
650.1156	-0.0156
650.3018	-0.0094
650.488	0.0044
650.6742	0.0163
650.8604	0.0049
651.0466	0.0051
651.2327	0.0025
651.4188	0.0024
651.6049	0.0038
651.791	-0.0025
651.9771	0.0026
652.1632	-0.0009
652.3492	-0.004
652.5352	0.0158
652.7212	-0.0032
652.9072	-0.0047
653.0932	0.0074
653.2791	-0.0017
653.465	-0.0135
653.651	0.0016
653.8369	0.0209
654.0227	-0.021
654.2086	-0.0021
654.3944	0.0165
654.5803	-0.0019
654.7661	0.0009
654.9519	-0.0029
655.1377	0.0001
655.3234	0.0001
655.5092	0.0001
655.6949	0.0001
655.8806	0.0001
656.0663	0.0001
656.2519	0.0001
656.4376	0.0001
656.6232	0.0001
656.8088	0.0001
656.9945	0.0001
657.18	0.0001
657.3656	0.0001
657.5511	0.0001
657.7367	0.0001
657.9222	0.0001
658.1077	0.0001
658.2932	0.0001
658.4786	0.0001
658.6641	0.0001
658.8495	0.0001
659.0349	0.0001
659.2203	0.0001
659.4057	0.0001
659.591	0.0619
659.7764	0.0026
659.9617	-0.0049
660.147	0.0019
660.3323	0.008
660.5176	0.0027
660.7028	-0.0012
660.888	0.0121
661.0733	0.001
661.2585	-0.0082
661.4436	-0.0049
661.6288	0.0088
661.8139	-0.0154
661.9991	-0.0179
662.1842	-0.0197
662.3693	-0.0021
662.5544	0.0144
662.7394	0.0272
662.9245	0.0147
663.1095	-0.0286
663.2945	-0.0322
663.4795	-0.0085
663.6644	0.0004
663.8494	0.0136
664.0343	-0.0011
664.2193	-0.0092
664.4042	-0.0052
664.589	0.0011
664.7739	0.0019
664.9587	-0.0123
665.1436	-0.0112
665.3284	-0.0056
665.5132	-0.0111
665.698	-0.0034
665.8827	0.0035
666.0675	-0.0104
666.2522	-0.0066
666.4369	-0.0047
666.6216	0.0192
666.8063	-0.0164
666.9909	-0.0105
667.1756	-0.0083
667.3602	-0.0159
667.5448	0.0212
667.7294	0.0269
667.9139	0.0005
668.0985	0.0239
668.283	-0.0119
668.4675	-0.008
668.652	0.0054
668.8365	-0.0154
669.0209	-0.0147
669.2054	-0.0136
669.3898	-0.0045
669.5742	0.0252
669.7586	0.0114
669.943	0.0088
670.1273	-0.0168
670.3117	0.0157
670.496	0.0112
670.6803	-0.0068
670.8646	-0.019
671.0488	0.0187
671.2331	-0.0211
671.4173	0.0003
671.6015	-0.006
671.7857	-0.0029
671.9699	0.008
672.1541	0.0028
672.3382	0.0085
672.5223	0.0026
672.7064	-0.0269
672.8905	-0.0125
673.0746	-0.0116
673.2587	0.0259
673.4427	0.0066
673.6267	0.011
673.8107	0.0137
673.9947	-0.0044
674.1787	-0.0064
674.3626	-0.0029
674.5465	0.0088
674.7304	0.0041
674.9143	0.0073
675.0982	0.0067
675.2821	-0.0126
675.4659	-0.0075
675.6497	-0.0007
675.8335	0.0089
676.0173	-0.0119
676.2011	0.0132
676.3849	-0.0052
676.5686	0.0067
676.7523	0.0095
676.936	-0.0138
677.1197	-0.0034
677.3034	0.0429
677.487	-0.0063
677.6706	0.0127
677.8542	-0.0017
678.0378	0.0018
678.2214	-0.001
678.405	-0.0042
678.5885	0.0015
678.772	-0.0035
678.9555	-0.0132
679.139	0.0089
679.3225	-0.0051
679.5059	-0.0003
679.6894	-0.0092
679.8728	0.0044
680.0562	-0.0108
680.2395	0.0109
680.4229	-0.0016
680.6062	-0.0029
680.7896	-0.0105
680.9729	0.0144
681.1562	-0.0144
681.3394	-0.0132
681.5227	0.0013
681.7059	-0.0028
681.8891	-0.003
682.0723	-0.0022
682.2555	-0.0066
682.4387	-0.0119
682.6218	-0.0042
682.805	-0.0125
682.9881	0.0236
683.1712	0.0158
683.3542	0.0125
683.5373	-0.0122
683.7203	-0.0023
683.9034	-0.0038
684.0864	-0.0079
684.2694	-0.0052
684.4523	0.003
684.6353	0.0038
684.8182	-0.0031
685.0011	0.0164
685.184	-0.0019
685.3669	0.0177
685.5498	-0.0053
685.7326	-0.0008
685.9154	-0.0161
686.0982	0.0106
686.281	-0.0129
686.4638	-0.0022
686.6465	-0.0086
686.8293	-0.0231
687.012	-0.0007
687.1947	0.0054
687.3774	0.0049
687.56	-0.0123
687.7427	0.0108
687.9253	-0.0178
688.1079	-0.0149
688.2905	-0.019
688.4731	0.0059
688.6556	-0.0037
688.8382	-0.027
689.0207	0.0052
689.2032	0.0221
689.3857	-0.0118
689.5681	0.0133
689.7506	0.0158
689.933	-0.0056
690.1154	0.019
690.2978	0.0286
690.4802	0.0264
690.6626	-0.0003
690.8449	0.0069
691.0272	0.0141
691.2095	-0.0255
691.3918	-0.0031
691.5741	0.0094
691.7563	0.0127
691.9386	-0.0012
692.1208	-0.0069
692.303	-0.0185
692.4852	-0.0018
692.6673	0.0127
692.8495	-0.0194
693.0316	0.0013
693.2137	0.0083
693.3958	0.0047
693.5778	0.0097
693.7599	-0.0102
693.9419	-0.0182
694.1239	-0.0156
694.3059	-0.0131
694.4879	-0.0143
694.6699	-0.0187
694.8518	0.0284
695.0337	-0.0168
695.2157	0.0019
695.3975	-0.0099
695.5794	-0.005
695.7613	0.0042
695.9431	-0.0175
696.1249	0.0068
696.3067	-0.018
696.4885	0.012
696.6703	-0.0162
696.852	-0.0194
697.0337	0.0142
697.2154	-0.0048
697.3971	0.0075
697.5788	-0.0025
697.7605	-0.011
697.9421	0.0006
698.1237	0.0086
698.3053	-0.0043
698.4869	0.0109
698.6685	-0.0134
698.85	-0.0012
699.0315	-0.0187
699.213	0.0017
699.3945	-0.0062
699.576	0.0143
699.7575	-0.0074
699.9389	-0.0124
700.1203	0.0026
700.3017	0.0018
700.4831	0.0346
700.6645	0.0167
700.8458	-0.0165
701.0271	0.0262
701.2084	-0.0098
701.3897	0.0154
701.571	-0.0165
701.7523	-0.0167
701.9335	0.0086
702.1147	-0.0013
702.2959	-0.002
702.4771	-0.0049
702.6583	-0.007
702.8394	-0.025
703.0205	-0.0182
703.2016	-0.0112
703.3827	0.0022
703.5638	0.0156
703.7449	0.0006
703.9259	0.0168
704.1069	-0.0434
704.2879	0.0049
704.4689	-0.0229
704.6499	0.0113
704.8308	0.031
705.0117	0.0217
705.1927	0.0102
705.3735	-0.013
705.5544	-0.0024
705.7353	-0.0035
705.9161	-0.0028
706.0969	-0.0137
706.2777	0.0039
706.4585	-0.0197
706.6393	0.015
706.82	-0.0038
707.0007	0.0025
707.1815	-0.0128
707.3621	0.0375
707.5428	0.0051
707.7235	0.0036
707.9041	-0.0083
708.0847	0.0078
708.2653	0.0083
708.4459	-0.0179
708.6265	-0.014
708.807	-0.0008
708.9875	-0.007
709.168	-0.0092
709.3485	0.0074
709.529	0.0059
709.7095	0.0057
709.8899	-0.006
710.0703	0.0115
710.2507	-0.0004
710.4311	-0.0248
710.6115	0.0156
710.7918	0.0231
710.9721	0.0125
711.1524	-0.0305
711.3327	-0.0156
711.513	-0.0223
711.6932	-0.0183
711.8735	0.0038
712.0537	-0.0243
712.2339	0.0031
712.4141	0.0201
712.5942	-0.0145
712.7744	-0.0031
712.9545	0.0115
713.1346	0.0224
713.3147	-0.0035
713.4947	-0.0137
713.6748	0.0174
713.8548	0.0194
714.0348	0.009
714.2148	-0.004
714.3948	0.0147
714.5748	0.0131
714.7547	-0.0033
714.9346	0.012
715.1145	-0.0312
715.2944	-0.0292
715.4743	0.011
715.6541	-0.0199
715.834	0.0024
716.0138	0.0303
716.1936	-0.0107
716.3733	-0.0007
716.5531	-0.0114
716.7328	0.0248
716.9126	0.0053
717.0923	-0.0233
717.2719	0.0141
717.4516	0.0102
717.6312	-0.0199
717.8109	0.0248
717.9905	0.0083
718.1701	0.0205
718.3496	-0.0037
718.5292	-0.0204
718.7087	0.0043
718.8882	0.0101
719.0677	-0.0209
719.2472	-0.007
719.4267	-0.0082
719.6061	-0.0243
719.7856	0.0238
719.965	-0.0114
720.1443	0.0057
720.3237	-0.0325
720.5031	0.0197
720.6824	-0.0132
720.8617	-0.0039
721.041	0.0123
721.2203	-0.0002
721.3995	-0.0074
721.5788	-0.0228
721.758	0.0044
721.9372	0.0154
722.1164	-0.0095
722.2956	-0.0178
722.4747	0.0127
722.6538	-0.0093
722.8329	-0.0066
723.012	0.0202
723.1911	-0.0098
723.3702	0.0046
723.5492	-0.007
723.7282	-0.0154
723.9072	0.0123
724.0862	-0.0121
724.2652	-0.0044
724.4441	-0.0058
724.623	-0.0076
724.8019	0.0024
724.9808	0.0074
725.1597	-0.0025
725.3385	0.0002
725.5174	0.0185
725.6962	-0.0005
725.875	-0.0018
726.0538	0.0051
726.2325	0.023
726.4112	-0.0294
726.59	-0.0238
726.7687	-0.0266
726.9474	-0.0058
727.126	-0.0114
727.3047	-0.0175
727.4833	0.001
727.6619	-0.0005
727.8405	0.012
728.0191	0.003
728.1976	-0.0269
728.3762	0.0009
728.5547	-0.0106
728.7332	0.0338
728.9116	-0.0028
729.0901	-0.0079
729.2686	0.0081
729.447	-0.0077
729.6254	0.0024
729.8038	0.0024
729.9821	-0.0098
730.1605	0.0092
730.3388	0.0004
730.5171	0.0206
730.6954	-0.0133
730.8737	0.0117
731.0519	-0.0134
731.2302	0.0096
731.4084	-0.0064
731.5866	-0.0067
731.7648	0.0089
731.9429	0.0206
732.1211	0.0025
732.2992	0.0063
732.4773	-0.0212
732.6554	-0.0088
732.8335	0.0296
733.0115	0.0068
733.1896	-0.0288
733.3676	0.0123
733.5456	0.001
733.7235	0.0039
733.9015	-0.0072
734.0794	-0.0008
734.2574	-0.0305
734.4353	0.0138
734.6131	0.0035
734.791	-0.0131
734.9689	-0.0077
735.1467	0.0007
735.3245	-0.0012
735.5023	0.0086
735.68	0.0002
735.8578	0.0116
736.0355	-0.0012
736.2132	0.0009
736.3909	0.0026
736.5686	-0.0156
736.7463	-0.0259
736.9239	0.0387
737.1015	-0.0152
737.2791	-0.0086
737.4567	0.0029
737.6343	0.0002
737.8118	-0.0019
737.9894	-0.0112
738.1669	-0.012
738.3444	0.0265
738.5218	-0.0189
738.6993	0.0135
738.8767	0.0126
739.0541	0.0059
739.2315	-0.0103
739.4089	0.0121
739.5863	0.0114
739.7636	0.0009
739.9409	0.0072
740.1182	-0.0266
740.2955	-0.0098
740.4728	-0.0263
740.65	-0.0355
740.8272	0.0097
741.0044	0.0008
741.1816	0.0008
741.3588	-0.036
741.5359	-0.0096
741.7131	-0.0046
741.8902	0.0171
742.0673	-0.0354
742.2444	0.0383
742.4214	0.0098
742.5985	-0.0064
742.7755	0.0016
742.9525	-0.0144
743.1295	-0.0415
743.3064	-0.0093
743.4834	-0.0119
743.6603	0.0375
743.8372	-0.0317
744.0141	0.0234
744.191	-0.003
744.3678	-0.0595
744.5446	0.0062
744.7215	0.0074
744.8982	0.0186
745.075	0.0467
745.2518	0.0113
745.4285	0.0322
745.6052	-0.0432
745.7819	0.0026
745.9586	-0.0091
746.1353	-0.0098
746.3119	-0.0016
746.4885	0.0223
746.6651	0.009
746.8417	-0.0069
747.0183	0.0182
747.1948	0.0063
747.3714	0.0045
747.5479	0.041
747.7244	-0.036
747.9008	-0.0161
748.0773	-0.0055
748.2537	0.0288
748.4301	-0.014
748.6065	-0.0174
748.7829	-0.0174
748.9593	-0.0133
749.1356	0.0033
749.3119	0.0079
749.4882	0.0055
749.6645	-0.0052
749.8408	0.0229
750.017	-0.0053
750.1933	-0.0229
750.3695	-0.0104
750.5457	-0.0049
750.7218	0.006
750.898	-0.0143
751.0741	-0.0077
751.2502	0.0079
751.4263	-0.0017
751.6024	-0.0043
751.7784	-0.0054
751.9545	-0.006
752.1305	0.0275
752.3065	-0.0162
752.4825	-0.0069
752.6584	0.0049
752.8344	-0.0089
753.0103	-0.0397
753.1862	-0.0104
753.3621	-0.031
753.5379	-0.0031
753.7138	-0.0042
753.8896	0.0119
754.0654	-0.0074
754.2412	-0.0114
754.417	0.0036
754.5927	0.0046
754.7685	-0.0036
754.9442	0.032
755.1199	-0.0073
755.2956	0.0064
755.4712	-0.0173
755.6469	0.0048
755.8225	0.0115
755.9981	0.0155
756.1736	0.0001
756.3492	-0.0133
756.5248	0.01
756.7003	-0.0066
756.8758	-0.0177
757.0513	-0.0084
757.2267	-0.0036
757.4022	-0.0076
757.5776	-0.0039
757.753	0.0025
757.9284	-0.0136
758.1038	0.0222
758.2791	0.0234
758.4545	-0.0121
758.6298	0.0096
758.8051	0.0001
758.9803	0.0093
759.1556	-0.0102
759.3308	-0.0154
759.506	-0.0018
759.6812	-0.0104
759.8564	0.0001
760.0316	-0.0114
760.2067	0.0116
760.3819	0.0031
760.557	-0.0003
760.732	-0.0179
760.9071	0.007
761.0821	-0.0218
761.2572	-0.0051
761.4322	0.0079
761.6072	-0.0142
761.7821	-0.0305
761.9571	-0.0051
762.132	-0.0058
762.3069	0.0169
762.4818	0.0134
762.6567	-0.0045
762.8316	0.0311
763.0064	0.0291
763.1812	0.002
763.356	-0.0204
763.5308	-0.009
763.7055	-0.0106
763.8803	-0.0001
764.055	-0.0192
764.2297	0.0121
764.4044	0.0059
764.579	-0.004
764.7537	0.0013
764.9283	0.0097
765.1029	0.0047
765.2775	-0.0086
765.4521	0.0061
765.6266	0.0027
765.8011	0.005
765.9756	0.0186
766.1501	-0.0183
766.3246	-0.0006
766.4991	0.0149
766.6735	0.0259
766.8479	-0.0034
767.0223	-0.0348
767.1967	-0.0523
767.371	0.0086
767.5454	0.0268
767.7197	0.0112
767.894	-0.0117
768.0683	-0.0041
768.2425	-0.0068
768.4168	0.0059
768.591	-0.0081
768.7652	-0.0091
768.9394	-0.04
769.1135	-0.0201
769.2877	0.0279
769.4618	0.013
769.6359	-0.0133
769.81	0.0144
769.984	-0.0065
770.1581	0.0044
770.3321	0.0131
770.5061	-0.0319
770.6801	0.0056
770.8541	0.0009
771.028	0.0204
771.202	0.0376
771.3759	0.0116
771.5498	0.0019
771.7236	-0.0046
771.8975	-0.0211
772.0713	-0.0002
772.2451	-0.0235
772.4189	0.0258
772.5927	-0.0089
772.7665	-0.0081
772.9402	0.0029
773.1139	0.0014
773.2876	0.0031
773.4613	0.0049
773.635	0.0137
773.8086	0.0187
773.9822	0.0046
774.1558	0.035
774.3294	-0.026
774.503	0.0145
774.6765	0.0213
774.8501	-0.0124
775.0236	0.0183
775.1971	-0.0071
775.3705	0.0115
775.544	-0.0254
775.7174	0.0104
775.8908	-0.0411
776.0642	-0.0403
776.2376	0.0175
776.4109	-0.0063
776.5843	0.013
776.7576	0.0047
776.9309	-0.002
777.1041	-0.0091
777.2774	-0.019
777.4506	0.0216
777.6238	-0.0283
777.797	-0.0134
777.9702	-0.0176
778.1434	-0.0289
778.3165	-0.0166
778.4896	-0.0272
778.6627	0.0088
778.8358	0.0015
779.0089	-0.0121
779.1819	0.0212
779.3549	-0.0145
779.5279	-0.0181
779.7009	0.0245
779.8739	0.0404
780.0468	0.0334
780.2197	0.0146
780.3926	-0.0438
780.5655	0.0096
780.7384	-0.0038
780.9112	0.0195
781.0841	0.0077
781.2569	0.0039
781.4297	0.0227
781.6024	0.0137
781.7752	0.0191
781.9479	0.0273
782.1206	-0.0106
782.2933	0.0382
782.466	0.0289
782.6386	-0.0214
782.8113	-0.0014
782.9839	0.0214
783.1565	0.0132
783.329	0.0091
783.5016	0.0038
783.6741	-0.0292
783.8466	0.0478
784.0191	-0.0137
784.1916	-0.0278
784.3641	-0.1013
784.5365	0.0081
784.7089	-0.0363
784.8813	0.0384
785.0537	0.0251
785.2261	0.0225
785.3984	-0.0491
785.5707	0.0279
785.743	0.0257
785.9153	-0.0191
786.0876	-0.043
786.2598	-0.0615
786.432	-0.0192
786.6042	0.0438
786.7764	-0.0318
786.9486	-0.0152
787.1207	0.0291
787.2928	-0.0019
787.4649	0.0069
787.637	0.0105
787.8091	-0.018
787.9811	0.03
788.1532	0.0108
788.3252	-0.0179
788.4972	0.0115
788.6691	-0.002
788.8411	-0.008
789.013	-0.0059
789.1849	-0.0217
789.3568	-0.0058
789.5287	0.0432
789.7005	-0.0032
789.8723	-0.0258
790.0442	-0.051
790.2159	-0.0436
790.3877	0.0309
790.5595	-0.0197
790.7312	-0.0386
790.9029	-0.0253
791.0746	-0.016
791.2463	-0.0681
791.4179	0.0393
791.5896	-0.012
791.7612	0.0159
791.9328	0.0032
792.1044	-0.0437
792.2759	-0.0338
792.4474	-0.0253
792.619	0.0041
792.7905	-0.0291
792.9619	0.0251
793.1334	0.0136
793.3048	0.039
793.4762	0.0047
793.6476	-0.0474
793.819	0.0011
793.9904	-0.0175
794.1617	-0.0349
794.333	-0.0111
794.5043	-0.0002
794.6756	0.0062
794.8469	-0.0057
795.0181	0.0236
795.1893	0.0395
795.3605	0.0262
795.5317	0.0053
795.7029	0.058
795.874	-0.0257
796.0452	0.0605
796.2163	0.005
796.3873	0.057
796.5584	0.0292
796.7294	-0.0036
796.9005	0.0794
797.0715	-0.0022
797.2425	0.0449
797.4134	-0.0056
797.5844	-0.0018
797.7553	-0.0714
797.9262	0.0368
798.0971	-0.0015
798.2679	0.0105
798.4388	0.0215
798.6096	-0.0113
798.7804	-0.0389
798.9512	0.0113
799.122	-0.0385
799.2927	0.0691
799.4635	-0.0181
799.6342	-0.0387
799.8049	0.0424
799.9755	-0.0409
800.1462	0.0767
800.3168	0.0293
800.4874	-0.1186
800.658	-0.0388
800.8286	0.0265
800.9991	-0.0309
801.1696	-0.0461
801.3402	0.0412
801.5106	-0.0863
801.6811	0.0683
801.8516	-0.0101
802.022	-0.0263
802.1924	-0.0804
802.3628	-0.0066
802.5332	0.0735
802.7035	0.1165
802.8739	0.013
803.0442	-0.0279
803.2145	-0.0291
803.3847	0.0298
803.555	0.0248
803.7252	-0.0445
803.8954	-0.0168
804.0656	-0.034
804.2358	-0.0373
804.4059	0.092
804.5761	0.1033
804.7462	-0.0449
804.9163	0.0137
805.0864	0.0299
805.2564	0.0577
805.4264	-0.0718
805.5965	0.05
805.7665	-0.0562
805.9364	-0.0667
806.1064	-0.0086
806.2763	0.0309
806.4462	-0.0158
806.6161	-0.0142
806.786	-0.0209
806.9559	0.035
807.1257	0.0311
807.2955	-0.0094
807.4653	-0.0191
807.6351	-0.0161
807.8048	0.0305
807.9746	-0.0258
808.1443	-0.0165
808.314	0.0285
808.4837	0.0495
808.6533	-0.0409
808.8229	0.0135
808.9926	0.0246
809.1622	0.0114
809.3317	-0.0257
809.5013	-0.0588
809.6708	0.0503
809.8403	-0.0422
810.0098	0.001
810.1793	-0.0112
810.3488	-0.0532
810.5182	0.1055
810.6876	-0.0306
810.857	-0.0139
811.0264	-0.0553
811.1958	0.0583
811.3651	-0.0723
811.5344	0.1602
811.7037	0.0614
811.873	0.0251
812.0422	0.029
812.2115	0.0404
812.3807	-0.0811
812.5499	-0.0163
812.7191	-0.0774
812.8882	-0.0458
813.0574	0.0015
813.2265	-0.0325
813.3956	-0.0231
813.5646	0.0418
813.7337	0.0231
813.9027	-0.0325
814.0718	-0.0144
814.2407	0.0503
814.4097	0.0828
814.5787	0.0482
814.7476	-0.0006
814.9165	0.0195
815.0854	0.0326
815.2543	0.0206
815.4232	0.0622
815.592	0.094
815.7608	-0.0888
815.9296	-0.0775
816.0984	0.0427
816.2671	-0.3005
816.4359	0.1376
816.6046	-0.0073
816.7733	-0.0851
816.942	-0.079
817.1106	0.063
817.2793	-0.0628
817.4479	-0.0601
817.6165	0.0125
817.785	0.1877
817.9536	-0.0511
818.1221	0.073
818.2906	-0.0548
818.4591	0.0712
818.6276	0.0039
818.7961	0.0115
818.9645	0.0171
819.1329	-0.0141
819.3013	-0.0577
819.4697	-0.0677
819.638	-0.0758
819.8064	-0.0897
819.9747	0.0543
820.143	-0.0641
820.3113	0.1043
820.4795	-0.0038
820.6477	0.0502
820.816	-0.0355
820.9842	0.0364
821.1523	0.0351
821.3205	-0.0629
821.4886	0.0053
821.6567	-0.0593
821.8248	0.1771
821.9929	-0.0754
822.1609	-0.1403
822.329	0.0077
822.497	0.0483
822.665	0.0798
822.833	0.0098
823.0009	0.3844
823.1688	0.092
823.3367	-0.1133
823.5046	-0.0351
823.6725	-0.108
823.8404	-0.1364
824.0082	-0.0286
824.176	-0.0796
824.3438	0.1291
824.5116	-0.0553
824.6793	0.0924
824.847	0.0466
825.0147	-0.1204
825.1824	-0.0556
825.3501	-0.0879
825.5177	0.002
825.6854	-0.0216
825.853	-0.0977
826.0206	-0.0121
826.1881	-0.0559
826.3557	0.0431
826.5232	0.123
826.6907	0.0085
826.8582	0.0478
827.0257	0.154
827.1931	0.0514
827.3605	-0.075
827.528	-0.0417
827.6953	-0.1979
827.8627	-0.0519
828.03	0.1289
828.1974	-0.008
828.3647	-0.052
828.532	0.0458
828.6992	0.0132
828.8665	-0.1026
829.0337	-0.0863
829.2009	-0.1295
829.3681	0.102
829.5352	-0.3519
829.7024	0.129
829.8695	0.14
830.0366	0.1083
830.2037	0.0845
830.3707	-0.1097
830.5378	-0.1217
830.7048	-0.078
830.8718	-0.0103
831.0388	-0.0329
831.2057	-0.0751
831.3727	-0.3923
831.5396	-0.1233
831.7065	-0.4424
831.8734	0.1182
832.0402	0.2552
832.2071	-0.2979
832.3739	-0.4027
832.5407	-1.8023
832.7075	-0.2365
832.8742	-0.0111
833.041	0.3039
833.2077	0.2333
833.3744	-0.0017
833.541	0.0218
833.7077	0.0037
833.8743	-0.0454
834.0409	0.1235
834.2075	0.1513
834.3741	-0.0856
834.5407	0.2501
834.7072	-0.0056
834.8737	0.2154
835.0402	0.0531
835.2067	-0.0345
835.3731	-0.0283
835.5395	-0.0695
835.706	-0.1489
835.8723	-0.0777
836.0387	0.1797
836.2051	0.0478
836.3714	-0.054
836.5377	0.3057
836.704	0.489
836.8703	-0.164
837.0365	-0
837.2027	0.0295
837.3689	0.4553
837.5351	-0.0097
837.7013	0.0953
837.8674	-0.5999
838.0335	-0.1423
838.1997	-0.2032
838.3657	-0
838.5318	-0.8033
838.6978	0.4855
838.8639	-0.6059
839.0299	-0.0479
839.1958	0.0027
839.3618	1.513
839.5277	-0.0446
839.6937	-0.2006
839.8596	-0.1551
840.0254	-0.0799
840.1913	-0.4223
840.3571	-0.101
840.523	-0
840.6888	0.3716
840.8545	-0.4159
841.0203	0.1956
841.186	0.1343
841.3517	0.0055
841.5174	0.1845
841.6831	0.1606
841.8488	-0.2066
842.0144	-0.2373
842.18	0.3433
842.3456	-0.5814
842.5112	-1.2637
842.6767	-0.0689
842.8422	-0.0596
843.0077	-0.0028
843.1732	-0.5498
843.3387	0.3669
843.5042	0.2046
843.6696	0.0759
843.835	1.0617
844.0004	-0.095
844.1657	-0
844.3311	-0.0378
844.4964	0.0886
844.6617	0.1731
844.827	-0
844.9923	-0
845.1575	-0.5882
845.3227	-0.3735
845.4879	-0.2815
845.6531	-0.1859
845.8183	-0
845.9834	-0
846.1485	0.0356
846.3136	-0.2511
846.4787	-0
846.6438	-0.0891
846.8088	0.0161
846.9738	-1.0378
847.1388	0.4805
847.3038	-0.14
847.4687	0.6218
847.6337	-0.1215
847.7986	-0.4176
847.9635	0.1312
848.1284	1.0113
848.2932	0.3647
848.458	-0
848.6228	0.0192
848.7876	-0
848.9524	-0.282
849.1172	-1.5128
849.2819	-0
849.4466	0.4234
849.6113	0.0478
849.7759	-0.4335
849.9406	-0.0682
850.1052	-1.3686
850.2698	-0
850.4344	-0.7329
850.599	-0.2487
850.7635	0.6626
850.928	0.0404
851.0925	0.2669
851.257	0.0816
851.4215	-0
851.5859	-0.2247
851.7503	-0
851.9147	0.0177
852.0791	-0
852.2434	0.2106
852.4078	-0
852.5721	0.2972
852.7364	-0.2006
852.9007	-0.1797
853.0649	-0
853.2291	0.4921
853.3934	-0
853.5575	-0.1884
853.7217	0.277
853.8859	-0
854.05	-0.4177
854.2141	0.1623
854.3782	0.0655
854.5423	-0.26
854.7063	0.0554
854.8703	0.0791
855.0343	0.0228
855.1983	-0.265
855.3623	0.1214
855.5262	-0
855.6901	1.8548
855.854	0.4044
856.0179	-0.3655
856.1818	-0
856.3456	0.4742
856.5094	0.4565
856.6732	0.9815
856.837	-0.7639
857.0008	-0.3216
857.1645	-0.2992
857.3282	-0.1786
857.4919	-0.0185
857.6556	-0.2864
857.8192	-0.2476
857.9828	0.095
858.1465	-0.1551
858.31	-0.0129
858.4736	-0
858.6372	-0
858.8007	-0
858.9642	0.0034
859.1277	-0
859.2911	-0.3755
859.4546	-0
859.618	0.5529
859.7814	-0
859.9448	-0
860.1081	-0.0484
860.2715	-1.6654
860.4348	0.9241
860.5981	0.4134
860.7614	-0
860.9246	0.1282
861.0879	-0.2331
861.2511	-0
861.4143	-0
861.5774	-0.2004
861.7406	-0.171
861.9037	-0
862.0668	-0
862.2299	-0
862.393	0.7382
862.556	-0
862.7191	-0.1691
862.8821	0.4443
863.0451	0.1126
863.208	0.0998
863.371	0.6326
863.5339	0.1709
863.6968	0.5292
863.8597	-0.4508
864.0225	-0.0667
864.1854	-0
864.3482	-1.156
864.511	0.0309
864.6737	0.1734
864.8365	0.8502
864.9992	-0
865.1619	-0.6824
865.3246	-0.3802
865.4873	-0
865.65	-0
865.8126	-0.1103
865.9752	-0.0718
866.1378	0.1894
866.3004	-0.1121
866.4629	-1.632
866.6254	-0.3511
866.7879	-0.2547
866.9504	-0.1284
867.1129	-0.5437
867.2753	-0.4195
867.4377	-0.1873
867.6001	-0.3301
867.7625	0.066
867.9249	-0.3705
868.0872	-0.0624
868.2495	-0
868.4118	-0
868.5741	-0
868.7363	-0
868.8986	-0.552
869.0608	-0
869.223	-0.5391
869.3851	-0.2437
869.5473	0.0319
869.7094	0.137
869.8715	-0.6762
870.0336	-0.0023
870.1957	-0
870.3577	0.1015
870.5197	-0.0857
870.6817	-0.5795
870.8437	0.2767
871.0057	-0
871.1676	0.4033
871.3295	-0.583
871.4914	-0
871.6533	-0
871.8151	-0
871.977	-0.4408
872.1388	-0.1705
872.3006	-0.513
872.4623	-0.6867
872.6241	1.5975
872.7858	-0.1056
872.9475	-0
873.1092	-0.1592
873.2709	0.7192
873.4325	-1.7392
873.5941	-0.5885
873.7557	-0
873.9173	0.1488
874.0789	0.406
874.2404	-0
874.4019	-0.1106
874.5634	-0
874.7249	0.2158
874.8863	-0.1208
875.0478	-0.2863
875.2092	-0
875.3706	0.4238
875.5319	0.2451
875.6933	-0.1166
875.8546	-0.1372
876.0159	0.2903
876.1772	-0
876.3385	0.4721
876.4997	0.8005
876.6609	-0
876.8221	-0
876.9833	-0.0808
877.1445	0.3535
877.3056	-0.5421
877.4667	-0.7886
877.6278	-0
877.7889	0.2116
877.9499	0.2577
878.111	-0.6285
878.272	-0.2697
878.433	0.2265
878.5939	-0.2528
878.7549	0.3888
878.9158	-0
879.0767	1.3695
879.2376	0.0998
879.3984	0.3698
879.5593	0.3177
879.7201	-1.4894
879.8809	-0
880.0417	-0.3917
880.2024	0.8324
880.3632	-0.3833
880.5239	0.4995
880.6846	-0
880.8452	-0.0201
881.0059	-0
881.1665	-0.217
881.3271	0.3589
881.4877	0.6539
881.6483	-1.2637
881.8088	-0
881.9693	-0
882.1298	-0
882.2903	-0
