Data from D4ACN5uM460nmA_Absorbance_13-05-41-270.txt Node
Date: Fri Feb 21 13:05:41 GMT 2025
User: LASERRRRR
Spectrometer: FLMT03099
Trigger mode: 0
Integration Time (sec): 1.500000E-2
Scans to average: 1
Electric dark correction enabled: true
Nonlinearity correction enabled: false
Boxcar width: 0
XAxis mode: Wavelengths
Number of Pixels in Spectrum: 3648
>>>>>Begin Spectral Data<<<<<
179.3399	-0
179.5586	-0
179.7771	-0
179.9957	0.5915
180.2143	-0
180.4329	-0.1971
180.6514	-0
180.8699	-0.0234
181.0885	-0
181.307	0.7339
181.5255	-0.0106
181.744	-0
181.9625	0.1398
182.181	-0.3124
182.3994	-0.4644
182.6179	-0
182.8363	-0
183.0547	-0.1923
183.2732	0.1255
183.4916	0.2442
183.71	0.2702
183.9284	0.0457
184.1467	0.6789
184.3651	-0.0754
184.5835	0.2102
184.8018	0.0383
185.0201	0.2386
185.2385	0.2307
185.4568	0.1921
185.6751	0.2402
185.8934	0.2072
186.1117	0.047
186.3299	0.3317
186.5482	0.1388
186.7664	0.3938
186.9847	-0.1422
187.2029	0.2199
187.4211	0.2094
187.6393	0.1494
187.8575	0.2548
188.0757	0.2659
188.2939	0.4623
188.512	0.2137
188.7302	0.2839
188.9483	0.4159
189.1665	0.7274
189.3846	0.3272
189.6027	0.1086
189.8208	0.3094
190.0389	0.2178
190.257	0.1507
190.475	0.0351
190.6931	0.0167
190.9111	0.1968
191.1292	0.1261
191.3472	0.0465
191.5652	0.1591
191.7832	0.2589
192.0012	0.2855
192.2192	0.1802
192.4371	0.2065
192.6551	0.3079
192.873	0.2354
193.091	0.1246
193.3089	0.1431
193.5268	0.4374
193.7447	0.2463
193.9626	0.1256
194.1805	0.2674
194.3984	0.2295
194.6162	0.3009
194.8341	0.3592
195.0519	0.2635
195.2697	0.2794
195.4875	0.371
195.7054	0.2566
195.9231	0.2616
196.1409	0.3149
196.3587	0.3074
196.5765	0.3346
196.7942	0.2864
197.012	0.3333
197.2297	0.322
197.4474	0.4223
197.6651	0.2735
197.8828	0.3243
198.1005	0.4579
198.3182	0.4208
198.5358	0.3446
198.7535	0.3889
198.9711	0.3711
199.1888	0.3097
199.4064	0.4587
199.624	0.3436
199.8416	0.406
200.0592	0.3833
200.2767	0.4222
200.4943	0.4999
200.7119	0.4204
200.9294	0.4074
201.1469	0.4399
201.3645	0.4982
201.582	0.3949
201.7995	0.4637
202.017	0.423
202.2344	0.4061
202.4519	0.4096
202.6694	0.3858
202.8868	0.3884
203.1042	0.4066
203.3217	0.3971
203.5391	0.3694
203.7565	0.3743
203.9739	0.3306
204.1913	0.3329
204.4086	0.352
204.626	0.3635
204.8433	0.3552
205.0607	0.3466
205.278	0.3449
205.4953	0.3473
205.7126	0.3497
205.9299	0.3024
206.1472	0.3068
206.3644	0.3483
206.5817	0.3581
206.7989	0.3443
207.0162	0.3107
207.2334	0.3197
207.4506	0.2987
207.6678	0.2964
207.885	0.2878
208.1022	0.3064
208.3194	0.3088
208.5365	0.3125
208.7537	0.294
208.9708	0.3194
209.1879	0.2997
209.405	0.2845
209.6222	0.2871
209.8392	0.2903
210.0563	0.2807
210.2734	0.2817
210.4905	0.2747
210.7075	0.2749
210.9245	0.2831
211.1416	0.2726
211.3586	0.2692
211.5756	0.2512
211.7926	0.2717
212.0096	0.2658
212.2265	0.2623
212.4435	0.2523
212.6604	0.2599
212.8774	0.2332
213.0943	0.2519
213.3112	0.2529
213.5281	0.2462
213.745	0.2519
213.9619	0.2477
214.1788	0.2725
214.3956	0.2606
214.6125	0.2445
214.8293	0.2476
215.0461	0.2465
215.2629	0.2546
215.4798	0.2533
215.6965	0.2656
215.9133	0.2322
216.1301	0.247
216.3469	0.2517
216.5636	0.2657
216.7803	0.2543
216.9971	0.2575
217.2138	0.2667
217.4305	0.2552
217.6472	0.2459
217.8639	0.2504
218.0805	0.2489
218.2972	0.2465
218.5138	0.2595
218.7305	0.2618
218.9471	0.2451
219.1637	0.2621
219.3803	0.2565
219.5969	0.256
219.8135	0.2693
220.0301	0.2532
220.2466	0.2576
220.4632	0.2506
220.6797	0.2718
220.8962	0.2617
221.1127	0.2682
221.3292	0.2661
221.5457	0.279
221.7622	0.275
221.9787	0.2869
222.1951	0.2657
222.4116	0.272
222.628	0.2885
222.8444	0.2782
223.0608	0.2754
223.2772	0.2716
223.4936	0.2931
223.71	0.2835
223.9264	0.302
224.1427	0.2863
224.3591	0.2778
224.5754	0.2947
224.7917	0.2936
225.008	0.2906
225.2243	0.292
225.4406	0.2881
225.6569	0.3087
225.8732	0.3194
226.0894	0.3105
226.3057	0.3178
226.5219	0.3089
226.7381	0.3189
226.9543	0.3147
227.1705	0.3189
227.3867	0.3276
227.6029	0.3332
227.8191	0.3394
228.0352	0.3477
228.2513	0.3586
228.4675	0.3426
228.6836	0.3374
228.8997	0.3391
229.1158	0.3625
229.3319	0.3657
229.548	0.3426
229.764	0.3617
229.9801	0.363
230.1961	0.3725
230.4121	0.3744
230.6282	0.3722
230.8442	0.3837
231.0602	0.3884
231.2761	0.3871
231.4921	0.3791
231.7081	0.3809
231.924	0.4044
232.14	0.3951
232.3559	0.4065
232.5718	0.4098
232.7877	0.4053
233.0036	0.4014
233.2195	0.4149
233.4353	0.4318
233.6512	0.408
233.867	0.4185
234.0829	0.4214
234.2987	0.4265
234.5145	0.4316
234.7303	0.4385
234.9461	0.4411
235.1619	0.4351
235.3776	0.4321
235.5934	0.4279
235.8091	0.4442
236.0249	0.4408
236.2406	0.4414
236.4563	0.459
236.672	0.4433
236.8877	0.4502
237.1034	0.4442
237.319	0.4343
237.5347	0.4422
237.7503	0.4405
237.966	0.4621
238.1816	0.4504
238.3972	0.46
238.6128	0.4625
238.8284	0.4633
239.0439	0.4501
239.2595	0.4612
239.475	0.4722
239.6906	0.4584
239.9061	0.4584
240.1216	0.4715
240.3371	0.4681
240.5526	0.4589
240.7681	0.473
240.9836	0.4618
241.199	0.4545
241.4145	0.4405
241.6299	0.4469
241.8453	0.4327
242.0607	0.4423
242.2761	0.4331
242.4915	0.4182
242.7069	0.4102
242.9223	0.4167
243.1376	0.4079
243.353	0.3995
243.5683	0.3881
243.7836	0.3853
243.9989	0.376
244.2142	0.381
244.4295	0.3631
244.6448	0.3581
244.86	0.3513
245.0753	0.3395
245.2905	0.3369
245.5057	0.32
245.721	0.33
245.9362	0.3198
246.1514	0.3134
246.3665	0.3087
246.5817	0.3026
246.7969	0.2954
247.012	0.2822
247.2271	0.2933
247.4423	0.2817
247.6574	0.2844
247.8725	0.2681
248.0876	0.264
248.3026	0.258
248.5177	0.2502
248.7328	0.2508
248.9478	0.25
249.1628	0.242
249.3779	0.2423
249.5929	0.236
249.8079	0.2335
250.0228	0.234
250.2378	0.23
250.4528	0.2229
250.6677	0.2216
250.8827	0.2149
251.0976	0.2096
251.3125	0.2164
251.5274	0.2093
251.7423	0.2031
251.9572	0.2082
252.172	0.2015
252.3869	0.2043
252.6017	0.1977
252.8166	0.1993
253.0314	0.1932
253.2462	0.1958
253.461	0.1947
253.6758	0.1908
253.8906	0.1886
254.1053	0.1976
254.3201	0.1874
254.5348	0.1832
254.7496	0.1814
254.9643	0.1868
255.179	0.1848
255.3937	0.1917
255.6083	0.186
255.823	0.183
256.0377	0.1842
256.2523	0.1819
256.467	0.1877
256.6816	0.1764
256.8962	0.188
257.1108	0.1819
257.3254	0.1809
257.54	0.1739
257.7545	0.1848
257.9691	0.1771
258.1836	0.1759
258.3981	0.1761
258.6127	0.175
258.8272	0.1795
259.0417	0.1735
259.2561	0.177
259.4706	0.1762
259.6851	0.177
259.8995	0.1746
260.114	0.1764
260.3284	0.1715
260.5428	0.1746
260.7572	0.1767
260.9716	0.1789
261.186	0.1679
261.4003	0.1704
261.6147	0.1759
261.829	0.177
262.0433	0.1794
262.2577	0.1761
262.472	0.1733
262.6863	0.177
262.9005	0.1713
263.1148	0.1709
263.3291	0.1764
263.5433	0.1772
263.7576	0.1765
263.9718	0.1742
264.186	0.1761
264.4002	0.1701
264.6144	0.1859
264.8286	0.1778
265.0427	0.1818
265.2569	0.1788
265.471	0.1732
265.6851	0.1786
265.8993	0.173
266.1134	0.1758
266.3275	0.1772
266.5415	0.1748
266.7556	0.1763
266.9697	0.1752
267.1837	0.1754
267.3978	0.1736
267.6118	0.1675
267.8258	0.1781
268.0398	0.1775
268.2538	0.1768
268.4677	0.17
268.6817	0.1705
268.8957	0.167
269.1096	0.166
269.3235	0.1724
269.5374	0.1709
269.7514	0.1703
269.9652	0.1692
270.1791	0.1697
270.393	0.1684
270.6068	0.1694
270.8207	0.1616
271.0345	0.1645
271.2483	0.162
271.4622	0.1716
271.676	0.1678
271.8897	0.1661
272.1035	0.1716
272.3173	0.1677
272.531	0.168
272.7448	0.1639
272.9585	0.1598
273.1722	0.1597
273.3859	0.1669
273.5996	0.1653
273.8133	0.1693
274.0269	0.1655
274.2406	0.1636
274.4542	0.1632
274.6679	0.1649
274.8815	0.1721
275.0951	0.171
275.3087	0.1709
275.5223	0.1635
275.7358	0.1648
275.9494	0.1718
276.1629	0.1729
276.3765	0.1655
276.59	0.1619
276.8035	0.1684
277.017	0.1712
277.2305	0.1689
277.444	0.1708
277.6574	0.17
277.8709	0.1763
278.0843	0.1725
278.2978	0.1736
278.5112	0.1742
278.7246	0.1685
278.938	0.1716
279.1513	0.1723
279.3647	0.1708
279.5781	0.1772
279.7914	0.1772
280.0047	0.1753
280.2181	0.177
280.4314	0.1715
280.6447	0.1791
280.8579	0.1717
281.0712	0.1764
281.2845	0.1736
281.4977	0.1771
281.711	0.1749
281.9242	0.1715
282.1374	0.1757
282.3506	0.1789
282.5638	0.1758
282.7769	0.1752
282.9901	0.1781
283.2033	0.1811
283.4164	0.1745
283.6295	0.1784
283.8426	0.1704
284.0557	0.1793
284.2688	0.1764
284.4819	0.182
284.695	0.1816
284.908	0.1818
285.1211	0.182
285.3341	0.1782
285.5471	0.1907
285.7601	0.186
285.9731	0.1794
286.1861	0.1848
286.3991	0.1898
286.612	0.18
286.825	0.1862
287.0379	0.1843
287.2508	0.1832
287.4637	0.1841
287.6766	0.1846
287.8895	0.1842
288.1024	0.19
288.3152	0.1883
288.5281	0.1885
288.7409	0.1913
288.9538	0.1894
289.1666	0.1864
289.3794	0.184
289.5922	0.1907
289.8049	0.192
290.0177	0.1931
290.2304	0.1897
290.4432	0.1932
290.6559	0.1945
290.8686	0.1957
291.0813	0.1921
291.294	0.1934
291.5067	0.1873
291.7194	0.1974
291.932	0.1905
292.1447	0.1886
292.3573	0.196
292.5699	0.1885
292.7825	0.189
292.9951	0.1907
293.2077	0.1926
293.4203	0.1898
293.6328	0.1928
293.8454	0.1911
294.0579	0.1912
294.2704	0.2012
294.4829	0.1942
294.6954	0.1919
294.9079	0.1952
295.1204	0.1888
295.3328	0.1998
295.5453	0.1923
295.7577	0.1975
295.9701	0.1951
296.1825	0.1931
296.3949	0.1844
296.6073	0.1932
296.8197	0.1918
297.0321	0.1964
297.2444	0.1883
297.4567	0.1933
297.6691	0.1971
297.8814	0.1933
298.0937	0.1934
298.306	0.1936
298.5182	0.1937
298.7305	0.1964
298.9428	0.1938
299.155	0.1884
299.3672	0.1928
299.5794	0.1916
299.7916	0.1927
300.0038	0.1979
300.216	0.1926
300.4282	0.1885
300.6403	0.1983
300.8525	0.1883
301.0646	0.1994
301.2767	0.1942
301.4888	0.1925
301.7009	0.1953
301.913	0.1946
302.125	0.1919
302.3371	0.196
302.5491	0.1978
302.7612	0.1952
302.9732	0.1959
303.1852	0.1944
303.3972	0.192
303.6092	0.1928
303.8211	0.1932
304.0331	0.1892
304.245	0.1872
304.457	0.1879
304.6689	0.1885
304.8808	0.1868
305.0927	0.1881
305.3046	0.1914
305.5164	0.1827
305.7283	0.1802
305.9401	0.1721
306.152	0.1831
306.3638	0.1776
306.5756	0.1825
306.7874	0.1726
306.9992	0.1775
307.2109	0.1695
307.4227	0.1664
307.6344	0.1735
307.8462	0.1662
308.0579	0.1734
308.2696	0.1668
308.4813	0.1702
308.693	0.1613
308.9046	0.162
309.1163	0.1603
309.328	0.1599
309.5396	0.1609
309.7512	0.1529
309.9628	0.1501
310.1744	0.1469
310.386	0.1447
310.5976	0.1468
310.8091	0.1525
311.0207	0.1499
311.2322	0.1381
311.4437	0.1427
311.6552	0.1457
311.8667	0.1447
312.0782	0.1413
312.2897	0.1395
312.5012	0.1365
312.7126	0.1344
312.924	0.1331
313.1355	0.1367
313.3469	0.1303
313.5583	0.1338
313.7696	0.1279
313.981	0.1348
314.1924	0.1278
314.4037	0.122
314.6151	0.127
314.8264	0.1287
315.0377	0.1213
315.249	0.1231
315.4603	0.1211
315.6716	0.1277
315.8828	0.1242
316.0941	0.1266
316.3053	0.1189
316.5165	0.1242
316.7277	0.1214
316.9389	0.1232
317.1501	0.1205
317.3613	0.1215
317.5724	0.1198
317.7836	0.1134
317.9947	0.1188
318.2058	0.1185
318.417	0.1184
318.6281	0.1181
318.8391	0.1214
319.0502	0.1189
319.2613	0.1181
319.4723	0.1123
319.6834	0.1145
319.8944	0.116
320.1054	0.1203
320.3164	0.1157
320.5274	0.1112
320.7383	0.1166
320.9493	0.121
321.1602	0.1167
321.3712	0.1174
321.5821	0.1131
321.793	0.1264
322.0039	0.1147
322.2148	0.1167
322.4257	0.1132
322.6365	0.1094
322.8474	0.1184
323.0582	0.12
323.269	0.1203
323.4798	0.1226
323.6906	0.116
323.9014	0.1172
324.1122	0.1079
324.3229	0.1203
324.5337	0.1257
324.7444	0.1245
324.9551	0.1243
325.1658	0.1168
325.3765	0.1212
325.5872	0.1204
325.7979	0.1192
326.0085	0.1191
326.2192	0.116
326.4298	0.1321
326.6404	0.1227
326.851	0.1199
327.0616	0.1226
327.2722	0.1227
327.4828	0.1212
327.6933	0.1298
327.9039	0.1263
328.1144	0.129
328.3249	0.1246
328.5354	0.1235
328.7459	0.1227
328.9564	0.1283
329.1669	0.1293
329.3773	0.131
329.5878	0.1222
329.7982	0.1247
330.0086	0.1282
330.219	0.1245
330.4294	0.1237
330.6398	0.1272
330.8502	0.1347
331.0605	0.1273
331.2708	0.1219
331.4812	0.1281
331.6915	0.129
331.9018	0.1248
332.1121	0.1321
332.3224	0.1253
332.5326	0.1226
332.7429	0.127
332.9531	0.1309
333.1633	0.1272
333.3735	0.1261
333.5837	0.1288
333.7939	0.1328
334.0041	0.1371
334.2143	0.127
334.4244	0.1407
334.6346	0.1304
334.8447	0.1271
335.0548	0.1331
335.2649	0.1347
335.475	0.1299
335.685	0.1311
335.8951	0.1273
336.1051	0.1298
336.3152	0.1342
336.5252	0.1307
336.7352	0.1323
336.9452	0.1323
337.1552	0.1331
337.3652	0.1302
337.5751	0.1326
337.7851	0.1363
337.995	0.1438
338.2049	0.136
338.4148	0.1345
338.6247	0.1389
338.8346	0.1312
339.0445	0.1365
339.2543	0.1359
339.4642	0.1377
339.674	0.1336
339.8838	0.1404
340.0936	0.1422
340.3034	0.1351
340.5132	0.1385
340.7229	0.1406
340.9327	0.1438
341.1424	0.1417
341.3522	0.1298
341.5619	0.1469
341.7716	0.1383
341.9813	0.1436
342.1909	0.144
342.4006	0.1484
342.6102	0.1442
342.8199	0.1414
343.0295	0.1403
343.2391	0.1443
343.4487	0.1458
343.6583	0.1499
343.8679	0.143
344.0774	0.1459
344.287	0.148
344.4965	0.1463
344.706	0.1555
344.9155	0.1488
345.125	0.1502
345.3345	0.1565
345.544	0.1521
345.7534	0.1501
345.9629	0.1587
346.1723	0.1549
346.3817	0.1538
346.5911	0.158
346.8005	0.1605
347.0099	0.1568
347.2193	0.1627
347.4286	0.1638
347.638	0.1546
347.8473	0.1653
348.0566	0.1635
348.2659	0.1646
348.4752	0.1652
348.6845	0.1599
348.8937	0.158
349.103	0.1653
349.3122	0.165
349.5214	0.1656
349.7306	0.1699
349.9398	0.1683
350.149	0.1611
350.3582	0.1687
350.5674	0.1671
350.7765	0.1815
350.9856	0.1642
351.1948	0.1728
351.4039	0.17
351.613	0.1704
351.822	0.1788
352.0311	0.1688
352.2402	0.1744
352.4492	0.1757
352.6582	0.1763
352.8672	0.1731
353.0762	0.1766
353.2852	0.1794
353.4942	0.1784
353.7032	0.1806
353.9121	0.1796
354.1211	0.1817
354.33	0.1851
354.5389	0.1796
354.7478	0.183
354.9567	0.1849
355.1655	0.1904
355.3744	0.1771
355.5833	0.1833
355.7921	0.1911
356.0009	0.1932
356.2097	0.187
356.4185	0.1831
356.6273	0.1794
356.8361	0.1909
357.0448	0.1852
357.2536	0.1882
357.4623	0.1899
357.671	0.1907
357.8797	0.1932
358.0884	0.1929
358.2971	0.1937
358.5057	0.1965
358.7144	0.1866
358.923	0.194
359.1316	0.2005
359.3402	0.2007
359.5488	0.1923
359.7574	0.2019
359.966	0.2045
360.1746	0.2024
360.3831	0.2126
360.5916	0.2049
360.8002	0.209
361.0087	0.21
361.2172	0.2118
361.4256	0.2106
361.6341	0.2123
361.8426	0.2123
362.051	0.2134
362.2594	0.2111
362.4678	0.2147
362.6762	0.217
362.8846	0.2221
363.093	0.2184
363.3014	0.2215
363.5097	0.2235
363.718	0.2252
363.9264	0.2239
364.1347	0.2235
364.343	0.2281
364.5513	0.2273
364.7595	0.23
364.9678	0.224
365.176	0.2319
365.3842	0.2335
365.5925	0.2307
365.8007	0.2308
366.0089	0.2385
366.217	0.2292
366.4252	0.2307
366.6333	0.2436
366.8415	0.2363
367.0496	0.2366
367.2577	0.2455
367.4658	0.2381
367.6739	0.2496
367.882	0.2479
368.09	0.2365
368.2981	0.247
368.5061	0.2505
368.7141	0.2468
368.9221	0.2612
369.1301	0.2512
369.3381	0.2627
369.5461	0.2452
369.754	0.2494
369.962	0.2549
370.1699	0.2566
370.3778	0.2594
370.5857	0.2551
370.7936	0.2591
371.0015	0.2536
371.2093	0.253
371.4172	0.2567
371.625	0.2561
371.8328	0.2574
372.0406	0.2693
372.2484	0.2638
372.4562	0.2656
372.664	0.2669
372.8717	0.2659
373.0795	0.2757
373.2872	0.2702
373.4949	0.2734
373.7026	0.2735
373.9103	0.2632
374.118	0.2714
374.3256	0.2693
374.5333	0.2662
374.7409	0.2699
374.9485	0.2786
375.1561	0.2913
375.3637	0.2732
375.5713	0.2776
375.7789	0.2809
375.9864	0.2776
376.194	0.2786
376.4015	0.2883
376.609	0.2791
376.8165	0.2828
377.024	0.2852
377.2315	0.2859
377.4389	0.2786
377.6464	0.2831
377.8538	0.2846
378.0612	0.2843
378.2686	0.2909
378.476	0.3049
378.6834	0.2857
378.8908	0.2917
379.0981	0.2864
379.3055	0.2967
379.5128	0.287
379.7201	0.2916
379.9274	0.2894
380.1347	0.2959
380.342	0.3034
380.5492	0.2995
380.7565	0.2897
380.9637	0.3033
381.1709	0.2979
381.3781	0.3076
381.5853	0.2991
381.7925	0.2988
381.9997	0.3052
382.2068	0.3077
382.4139	0.3115
382.6211	0.3047
382.8282	0.316
383.0353	0.3105
383.2424	0.3033
383.4494	0.3036
383.6565	0.314
383.8635	0.3081
384.0706	0.3101
384.2776	0.3058
384.4846	0.3119
384.6916	0.3091
384.8986	0.3087
385.1055	0.3153
385.3125	0.3149
385.5194	0.3163
385.7263	0.311
385.9333	0.3081
386.1402	0.3089
386.347	0.3083
386.5539	0.3111
386.7608	0.3125
386.9676	0.3068
387.1744	0.3097
387.3813	0.3195
387.5881	0.3038
387.7948	0.3141
388.0016	0.3226
388.2084	0.3109
388.4151	0.3105
388.6219	0.3101
388.8286	0.3033
389.0353	0.3088
389.242	0.3176
389.4487	0.2961
389.6553	0.3006
389.862	0.2933
390.0686	0.3167
390.2753	0.307
390.4819	0.3111
390.6885	0.3
390.8951	0.2944
391.1016	0.2966
391.3082	0.3005
391.5147	0.2916
391.7213	0.297
391.9278	0.2938
392.1343	0.3017
392.3408	0.2963
392.5473	0.2945
392.7537	0.2905
392.9602	0.2832
393.1666	0.2894
393.373	0.2872
393.5794	0.2859
393.7858	0.2941
393.9922	0.2788
394.1986	0.2815
394.4049	0.2761
394.6113	0.2839
394.8176	0.2828
395.0239	0.2749
395.2302	0.2825
395.4365	0.2835
395.6428	0.2807
395.8491	0.2747
396.0553	0.2697
396.2615	0.2726
396.4678	0.272
396.674	0.2682
396.8802	0.2684
397.0863	0.2658
397.2925	0.2753
397.4987	0.2644
397.7048	0.2707
397.9109	0.2695
398.117	0.2686
398.3231	0.2626
398.5292	0.2507
398.7353	0.2676
398.9413	0.253
399.1474	0.2694
399.3534	0.2722
399.5594	0.2708
399.7654	0.2558
399.9714	0.2574
400.1774	0.2596
400.3833	0.2688
400.5893	0.2661
400.7952	0.2685
401.0011	0.2665
401.207	0.2616
401.4129	0.2663
401.6188	0.2605
401.8247	0.2708
402.0305	0.2669
402.2364	0.2656
402.4422	0.2667
402.648	0.2635
402.8538	0.2597
403.0596	0.2631
403.2654	0.2636
403.4711	0.2626
403.6768	0.2673
403.8826	0.2627
404.0883	0.2574
404.294	0.2712
404.4997	0.2639
404.7054	0.2669
404.911	0.2548
405.1167	0.2683
405.3223	0.2639
405.5279	0.2686
405.7335	0.2584
405.9391	0.267
406.1447	0.2695
406.3502	0.2686
406.5558	0.2597
406.7613	0.2626
406.9668	0.2621
407.1724	0.2577
407.3778	0.2641
407.5833	0.2493
407.7888	0.26
407.9942	0.2585
408.1997	0.263
408.4051	0.2695
408.6105	0.2606
408.8159	0.2632
409.0213	0.2713
409.2267	0.2677
409.432	0.2612
409.6374	0.2641
409.8427	0.2637
410.048	0.2736
410.2533	0.2696
410.4586	0.2619
410.6639	0.2709
410.8691	0.249
411.0744	0.2634
411.2796	0.2646
411.4848	0.2703
411.69	0.2587
411.8952	0.2632
412.1004	0.2563
412.3056	0.2625
412.5107	0.2669
412.7158	0.2703
412.921	0.2707
413.1261	0.2561
413.3312	0.2583
413.5362	0.2722
413.7413	0.2574
413.9464	0.2541
414.1514	0.2659
414.3564	0.258
414.5614	0.2479
414.7664	0.2519
414.9714	0.2585
415.1764	0.2637
415.3813	0.2496
415.5863	0.2582
415.7912	0.2532
415.9961	0.2578
416.201	0.2678
416.4059	0.2551
416.6108	0.2536
416.8156	0.2583
417.0205	0.2526
417.2253	0.2502
417.4301	0.2598
417.6349	0.2604
417.8397	0.2486
418.0445	0.2506
418.2492	0.2567
418.454	0.2449
418.6587	0.2646
418.8634	0.245
419.0681	0.2501
419.2728	0.2543
419.4775	0.2537
419.6822	0.2442
419.8868	0.2418
420.0915	0.2523
420.2961	0.2508
420.5007	0.2506
420.7053	0.2483
420.9099	0.2464
421.1144	0.2431
421.319	0.2435
421.5235	0.2318
421.728	0.2423
421.9325	0.2382
422.137	0.2347
422.3415	0.2346
422.546	0.2327
422.7504	0.2332
422.9549	0.2333
423.1593	0.2272
423.3637	0.2364
423.5681	0.2437
423.7725	0.2385
423.9769	0.2332
424.1812	0.223
424.3856	0.2313
424.5899	0.2336
424.7942	0.2444
424.9985	0.228
425.2028	0.2256
425.4071	0.234
425.6113	0.2292
425.8156	0.226
426.0198	0.2274
426.224	0.2182
426.4282	0.2028
426.6324	0.2198
426.8366	0.2153
427.0407	0.2195
427.2449	0.2135
427.449	0.2103
427.6531	0.2243
427.8572	0.2232
428.0613	0.2189
428.2654	0.2145
428.4694	0.1977
428.6735	0.207
428.8775	0.2061
429.0815	0.2123
429.2855	0.1969
429.4895	0.1999
429.6935	0.1866
429.8975	0.1952
430.1014	0.2077
430.3053	0.2041
430.5093	0.1934
430.7132	0.1829
430.9171	0.1955
431.1209	0.1913
431.3248	0.1794
431.5286	0.1745
431.7325	0.1919
431.9363	0.1892
432.1401	0.1765
432.3439	0.1822
432.5477	0.1753
432.7514	0.1751
432.9552	0.1789
433.1589	0.1763
433.3627	0.1709
433.5664	0.1574
433.7701	0.1695
433.9737	0.1705
434.1774	0.1618
434.3811	0.151
434.5847	0.161
434.7883	0.1605
434.9919	0.146
435.1955	0.1606
435.3991	0.1564
435.6027	0.1523
435.8062	0.1636
436.0098	0.1534
436.2133	0.1404
436.4168	0.1419
436.6203	0.1319
436.8238	0.1409
437.0272	0.1362
437.2307	0.143
437.4341	0.1358
437.6375	0.1345
437.841	0.1325
438.0443	0.1391
438.2477	0.1265
438.4511	0.1172
438.6545	0.1238
438.8578	0.1331
439.0611	0.1275
439.2644	0.1238
439.4677	0.1169
439.671	0.1084
439.8743	0.1276
440.0775	0.1179
440.2808	0.1153
440.484	0.1112
440.6872	0.1119
440.8904	0.1038
441.0936	0.1141
441.2967	0.0912
441.4999	0.0961
441.703	0.1044
441.9062	0.0983
442.1093	0.1074
442.3124	0.0919
442.5155	0.0932
442.7185	0.0933
442.9216	0.0931
443.1246	0.0841
443.3276	0.0948
443.5307	0.0911
443.7337	0.0859
443.9366	0.0795
444.1396	0.0811
444.3426	0.078
444.5455	0.0778
444.7484	0.0789
444.9513	0.0746
445.1542	0.0742
445.3571	0.0695
445.56	0.0693
445.7628	0.0779
445.9657	0.0801
446.1685	0.0767
446.3713	0.0769
446.5741	0.0743
446.7769	0.0783
446.9797	0.0653
447.1824	0.066
447.3852	0.0507
447.5879	0.0611
447.7906	0.0563
447.9933	0.0651
448.196	0.0625
448.3986	0.0568
448.6013	0.04
448.8039	0.0619
449.0066	0.063
449.2092	0.0593
449.4118	0.0514
449.6143	0.0564
449.8169	0.0494
450.0195	0.0472
450.222	0.0493
450.4245	0.0477
450.627	0.0432
450.8295	0.042
451.032	0.0525
451.2345	0.0445
451.4369	0.0449
451.6394	0.0461
451.8418	0.0503
452.0442	0.0376
452.2466	0.0319
452.449	0.0409
452.6513	0.0331
452.8537	0.0304
453.056	0.038
453.2583	0.0322
453.4607	0.0217
453.663	0.0334
453.8652	0.0284
454.0675	0.0381
454.2697	0.0298
454.472	0.0243
454.6742	0.0313
454.8764	0.0298
455.0786	0.0314
455.2808	0.0291
455.4829	0.0295
455.6851	0.0254
455.8872	0.0161
456.0893	0.0286
456.2915	0.0253
456.4935	0.0283
456.6956	0.0296
456.8977	0.0248
457.0997	0.0399
457.3018	0.0175
457.5038	0.0275
457.7058	0.0315
457.9078	0.0299
458.1098	0.0229
458.3117	0.0298
458.5137	0.0145
458.7156	0.0209
458.9175	0.0264
459.1194	0.0203
459.3213	0.0189
459.5232	0.0263
459.725	0.0183
459.9269	0.0175
460.1287	0.015
460.3305	0.0172
460.5323	0.0192
460.7341	0.0167
460.9359	0.0118
461.1376	0.0151
461.3394	0.0224
461.5411	0.0182
461.7428	0.021
461.9445	0.0133
462.1462	0.0121
462.3479	0.0096
462.5495	0.0132
462.7512	0.0194
462.9528	0.0164
463.1544	0.0141
463.356	0.0001
463.5576	0.0179
463.7592	0.0096
463.9607	0.0083
464.1623	-0.0011
464.3638	0.0087
464.5653	0.0191
464.7668	0.0159
464.9683	0.0167
465.1697	0.0118
465.3712	0.0074
465.5726	0.014
465.7741	0.0143
465.9755	0.0075
466.1769	0.0039
466.3782	0.0018
466.5796	0.0177
466.7809	0.0133
466.9823	0.0083
467.1836	0.0043
467.3849	0.0076
467.5862	0.0085
467.7875	-0.002
467.9887	0.0083
468.19	0.0118
468.3912	0.0181
468.5924	0.0035
468.7936	0.015
468.9948	0.0054
469.196	0.0036
469.3972	-0.0058
469.5983	0.0099
469.7994	0.0087
470.0006	0.0081
470.2017	0.0071
470.4027	0.0276
470.6038	-0.0032
470.8049	0.0081
471.0059	0.011
471.2069	0.0076
471.408	0.0053
471.6089	0.0095
471.8099	0.0133
472.0109	0.0064
472.2119	0.0191
472.4128	-0.001
472.6137	0.0173
472.8146	0.0107
473.0155	0.0139
473.2164	0.0113
473.4173	-0.0052
473.6181	-0.0014
473.819	0.0073
474.0198	0.0057
474.2206	-0.0088
474.4214	0.0039
474.6222	-0.0084
474.8229	0.0022
475.0237	0.015
475.2244	0.0024
475.4251	-0.0022
475.6258	-0.0011
475.8265	0.0092
476.0272	0.006
476.2278	0.0079
476.4285	0.0014
476.6291	0.0027
476.8297	0.0099
477.0303	-0.0029
477.2309	0.0083
477.4315	0.0047
477.632	0.0074
477.8326	0.0059
478.0331	0.0102
478.2336	0
478.4341	0.0023
478.6346	0.0016
478.8351	0.0007
479.0355	0.0051
479.236	0.0069
479.4364	0.0068
479.6368	0.0008
479.8372	0.0032
480.0376	0.0034
480.2379	0.007
480.4383	0.0072
480.6386	-0.0012
480.8389	-0.0015
481.0392	0.0048
481.2395	0.0164
481.4398	0.0121
481.6401	0.0009
481.8403	0.0033
482.0405	0.0009
482.2408	0.004
482.441	0.0027
482.6411	0.0096
482.8413	0.002
483.0415	0.0106
483.2416	-0.0016
483.4417	0.0067
483.6419	-0.0042
483.8419	0.0073
484.042	0.0055
484.2421	-0.0024
484.4422	0.0058
484.6422	0.0059
484.8422	0.009
485.0422	0.0038
485.2422	0.002
485.4422	0.0004
485.6422	0.0027
485.8421	0.0013
486.042	0.0097
486.242	0.0015
486.4419	0.0077
486.6417	-0.0009
486.8416	0.003
487.0415	-0.0032
487.2413	-0.0025
487.4411	0.0024
487.641	0.0062
487.8408	0.008
488.0405	0.0023
488.2403	-0.0038
488.4401	0.0009
488.6398	0.0061
488.8395	0.0085
489.0392	0.0046
489.2389	0.0101
489.4386	-0.0057
489.6383	0.0027
489.8379	0.0014
490.0376	0.0053
490.2372	0.0014
490.4368	-0.0026
490.6364	-0.0025
490.836	0.0004
491.0355	-0.0008
491.2351	-0.0046
491.4346	-0.0004
491.6341	-0.0023
491.8336	0.0089
492.0331	0.0006
492.2326	0.0098
492.432	0.0115
492.6315	0.009
492.8309	0.007
493.0303	0.0035
493.2297	0.0023
493.4291	-0.0048
493.6284	0.0165
493.8278	-0.0021
494.0271	0.0009
494.2264	0.0068
494.4257	0.0078
494.625	0.0019
494.8243	-0.0038
495.0236	0.0045
495.2228	0.0055
495.422	0.0031
495.6213	0.003
495.8205	0.0051
496.0196	0.0058
496.2188	0.008
496.418	0.0008
496.6171	0.0027
496.8162	0.001
497.0153	0.011
497.2144	-0.0021
497.4135	-0.0002
497.6126	0.0097
497.8116	-0.0056
498.0107	0.0001
498.2097	0.0055
498.4087	0.0056
498.6077	-0.0005
498.8067	0.0075
499.0056	0.0008
499.2046	0.0082
499.4035	0.0091
499.6024	-0.0013
499.8013	0.0119
500.0002	0.0093
500.199	0.0099
500.3979	0.0014
500.5967	0
500.7956	0.0031
500.9944	0.0068
501.1932	0.015
501.3919	0.0069
501.5907	0.0118
501.7895	0.0037
501.9882	0.0041
502.1869	0.0097
502.3856	0.0004
502.5843	-0.0003
502.783	0.0036
502.9816	0.0036
503.1803	0.0017
503.3789	0.0101
503.5775	0.0107
503.7761	0.004
503.9747	0.0052
504.1732	-0.0049
504.3718	0.017
504.5703	-0.0017
504.7689	-0.0029
504.9674	0.0025
505.1658	-0.0053
505.3643	0.0025
505.5628	0.0106
505.7612	-0.0039
505.9597	0.0039
506.1581	0.0013
506.3565	0.0025
506.5549	0.0015
506.7532	-0.0035
506.9516	0.0023
507.1499	0.0083
507.3482	0.0108
507.5465	0.0065
507.7448	0.0047
507.9431	0.0073
508.1414	-0.0052
508.3396	0.0064
508.5379	0.0051
508.7361	0.0024
508.9343	0.0066
509.1325	0.007
509.3306	0.0028
509.5288	-0.0089
509.7269	0.0059
509.9251	0.0067
510.1232	0.008
510.3213	0.0103
510.5193	0.0066
510.7174	0.0081
510.9154	0.0153
511.1135	0.002
511.3115	0.0061
511.5095	0.0008
511.7075	0.0007
511.9055	0.0068
512.1034	0.0068
512.3014	0.0017
512.4993	-0.0015
512.6972	0.0054
512.8951	0.0018
513.093	0.0048
513.2908	0.0144
513.4887	0.0045
513.6865	0.017
513.8844	0.0037
514.0822	0.0008
514.2799	-0.0067
514.4777	0.0034
514.6755	0.0034
514.8732	-0.0008
515.0709	-0.001
515.2687	0.0055
515.4664	0.0178
515.664	0.0096
515.8617	0.0118
516.0594	0.0048
516.257	0.0041
516.4546	0.0172
516.6522	-0.0006
516.8498	0.0032
517.0474	0.0004
517.2449	-0.0032
517.4425	0.0038
517.64	0.0092
517.8375	0.0013
518.035	0.0037
518.2325	-0.0061
518.43	0.0021
518.6274	-0.0007
518.8249	-0.0012
519.0223	0.0067
519.2197	0.0022
519.4171	-0.0015
519.6145	-0.0006
519.8118	-0.013
520.0092	-0.0086
520.2065	0.0076
520.4038	0.0032
520.6011	0.0073
520.7984	0.0115
520.9956	0.0065
521.1929	0.0121
521.3901	0.0052
521.5874	0.0064
521.7846	0.002
521.9818	0.0045
522.1789	-0.0107
522.3761	0.0066
522.5732	0.0006
522.7704	0.0018
522.9675	-0.0046
523.1646	-0.0043
523.3617	0.0091
523.5587	0.0078
523.7558	0.005
523.9528	0.0171
524.1498	0.002
524.3468	0.0023
524.5438	0.0065
524.7408	-0.0025
524.9378	0.0155
525.1347	0.0089
525.3316	-0.0017
525.5285	0.0003
525.7254	0.0028
525.9223	0.0083
526.1192	0.0095
526.316	0.0105
526.5129	0.0055
526.7097	0.0054
526.9065	0.0115
527.1033	0.011
527.3	-0.0027
527.4968	0.0117
527.6935	-0.01
527.8903	-0.0002
528.087	-0.0096
528.2837	0.0087
528.4804	0.0003
528.677	-0.0013
528.8737	0.0021
529.0703	-0.0026
529.2669	0.0127
529.4635	-0.0096
529.6601	-0.0052
529.8567	-0.0013
530.0532	0.0031
530.2498	-0.006
530.4463	-0.0011
530.6428	0.0058
530.8393	0.0144
531.0358	0.0031
531.2322	-0.005
531.4287	0.0063
531.6251	-0.0045
531.8215	0.0043
532.0179	0.001
532.2143	0.0066
532.4107	0.0076
532.607	-0.0029
532.8034	-0.001
532.9997	-0.0044
533.196	-0.0045
533.3923	0.006
533.5886	0.0071
533.7848	0.0026
533.9811	-0.0007
534.1773	0.0006
534.3735	0.0127
534.5697	0.0028
534.7659	0.0093
534.9621	0.0057
535.1582	-0.0003
535.3544	0.0085
535.5505	0.001
535.7466	0.0041
535.9427	0.0096
536.1387	-0.0133
536.3348	0.0087
536.5308	-0.0047
536.7269	0.0021
536.9229	0.005
537.1189	0.0016
537.3148	-0.0006
537.5108	0.0019
537.7068	0.01
537.9027	-0.0072
538.0986	0.0005
538.2945	-0.0087
538.4904	-0.0026
538.6863	0.0055
538.8821	0.0082
539.078	0.0033
539.2738	0.011
539.4696	-0.0035
539.6654	-0.0004
539.8611	0.0025
540.0569	0.0092
540.2526	0.0092
540.4484	-0.0066
540.6441	0.0009
540.8398	0.0128
541.0355	-0.0023
541.2311	0.0023
541.4268	0.0142
541.6224	0.0127
541.818	0.0065
542.0136	0.005
542.2092	0.0073
542.4048	0.0001
542.6003	0.0017
542.7959	0.001
542.9914	0.0042
543.1869	0.0024
543.3824	-0.0006
543.5779	0.0117
543.7734	0.0118
543.9688	0.0114
544.1642	0.006
544.3596	0.0084
544.555	-0.0008
544.7504	0.0037
544.9458	0.0036
545.1411	-0.0025
545.3365	0.0034
545.5318	0.0032
545.7271	0.0099
545.9224	-0.0005
546.1177	0.0028
546.3129	0.0013
546.5081	0.0013
546.7034	0.0007
546.8986	0.0064
547.0938	0.0079
547.289	0.0123
547.4841	0.0054
547.6793	0.0044
547.8744	0.0003
548.0695	-0.0034
548.2646	0.0008
548.4597	-0.0016
548.6548	0.0199
548.8498	0.0033
549.0448	0.0075
549.2399	0.01
549.4349	0.0004
549.6298	0.0118
549.8248	-0.0003
550.0198	0.007
550.2147	0.0024
550.4096	-0.0047
550.6045	0.0048
550.7994	0.0082
550.9943	0.0044
551.1892	-0.0019
551.384	0.0074
551.5788	0.0028
551.7737	0.0032
551.9685	0.0062
552.1632	0.0036
552.358	-0.0008
552.5528	0.0033
552.7475	-0.0008
552.9422	0.0056
553.1369	0.0101
553.3316	0.0083
553.5263	0.0047
553.7209	-0.0012
553.9156	0.0075
554.1102	0.0054
554.3048	-0.0064
554.4994	0.0029
554.694	0.0064
554.8885	0.0054
555.0831	0.0068
555.2776	0.0054
555.4721	0.0049
555.6666	0.0041
555.8611	0.0018
556.0555	0.0042
556.25	0.0044
556.4444	0.0024
556.6388	-0.0009
556.8332	0.0013
557.0276	0.0113
557.222	0.0012
557.4163	0.0009
557.6107	0.003
557.805	-0.0051
557.9993	0.0111
558.1936	-0.0168
558.3879	0.0092
558.5821	0.0009
558.7764	-0.0035
558.9706	0.0029
559.1648	0.006
559.359	-0.018
559.5532	0.0008
559.7473	0.0067
559.9415	0.0118
560.1356	0.0164
560.3297	-0.0034
560.5238	0.0041
560.7179	-0.0045
560.9119	-0.0007
561.106	-0.0022
561.3	0.0075
561.494	-0.0018
561.688	-0.0005
561.882	0.0033
562.076	0.0083
562.2699	0.0091
562.4639	0.0125
562.6578	0.0091
562.8517	0.0108
563.0456	-0.0053
563.2395	0.0088
563.4333	0.0013
563.6272	0.0029
563.821	-0
564.0148	0.0023
564.2086	-0.0049
564.4024	0.0099
564.5961	-0.0012
564.7899	0.0126
564.9836	0.0055
565.1773	0.0053
565.371	0.0021
565.5647	0.0007
565.7584	0.0126
565.952	0.0063
566.1456	-0.0024
566.3393	0.003
566.5329	0.0056
566.7264	0.0031
566.92	-0.0011
567.1136	-0.0076
567.3071	-0.0027
567.5006	0.0096
567.6941	0.0036
567.8876	-0.0008
568.0811	0.0191
568.2745	-0.0011
568.468	0.0048
568.6614	0.0033
568.8548	0.0034
569.0482	0.0016
569.2416	0.0035
569.4349	-0.0007
569.6283	0.0055
569.8216	0.0008
570.0149	0.0024
570.2082	0.0079
570.4015	0.0015
570.5947	0.0017
570.788	0.0058
570.9812	0.0017
571.1744	-0.0002
571.3676	0.0014
571.5608	0.0012
571.754	0.004
571.9471	0.0064
572.1402	0.0042
572.3333	0.0043
572.5264	0.0019
572.7195	0.0007
572.9126	0.0024
573.1057	0.0049
573.2987	0.0021
573.4917	0.0048
573.6847	-0.0006
573.8777	0.0038
574.0707	0.0021
574.2636	0.0002
574.4566	-0.0018
574.6495	0.0007
574.8424	0.0032
575.0353	0.0048
575.2281	0.0071
575.421	-0.0008
575.6138	0.0007
575.8067	0.0049
575.9995	0.0031
576.1923	0.0059
576.385	0.006
576.5778	0.0103
576.7706	0.0034
576.9633	0.0045
577.156	-0.0041
577.3487	0.0038
577.5414	0.0012
577.734	-0.0013
577.9267	0.0032
578.1193	0.0089
578.3119	-0.0017
578.5045	0.0008
578.6971	0.0001
578.8897	-0.0036
579.0822	0.0056
579.2747	0.0001
579.4673	0.0069
579.6598	0.006
579.8522	0.0003
580.0447	0.0043
580.2372	0.0116
580.4296	0.0058
580.622	0.0009
580.8144	0.0059
581.0068	0.0045
581.1992	0.0031
581.3915	0.0002
581.5839	0.0049
581.7762	0.0035
581.9685	0.0009
582.1608	0.0053
582.353	0.0031
582.5453	0.0028
582.7375	0.0076
582.9298	-0.0041
583.122	0.0007
583.3142	0.0038
583.5063	0.0024
583.6985	-0.0018
583.8906	0.0046
584.0827	0.0075
584.2749	0.0016
584.4669	0.0015
584.659	0.0013
584.8511	0.0064
585.0431	0.0025
585.2352	0.0012
585.4272	-0.0003
585.6192	0.0034
585.8111	-0.0017
586.0031	0.0034
586.195	0.0027
586.387	-0.0013
586.5789	0.0051
586.7708	0.002
586.9627	0
587.1545	0.0037
587.3464	0.0081
587.5382	0.0044
587.73	0.0085
587.9218	0.001
588.1136	-0.0001
588.3053	0.0013
588.4971	0.0021
588.6888	0.0006
588.8805	0.0004
589.0722	0.007
589.2639	0.0028
589.4556	0.0027
589.6472	0.0109
589.8389	0.0106
590.0305	-0.0057
590.2221	0.0011
590.4137	0.0022
590.6052	0.0044
590.7968	0.0021
590.9883	-0.0006
591.1798	0.0059
591.3713	-0.0004
591.5628	0.0091
591.7543	0.004
591.9458	-0.0027
592.1372	0.0082
592.3286	0.0019
592.52	0.0012
592.7114	0.0042
592.9028	0.0058
593.0941	0.0025
593.2855	0.0012
593.4768	0.0091
593.6681	0.0071
593.8594	0.0068
594.0506	0.0018
594.2419	0.0004
594.4331	0.0078
594.6244	-0.0009
594.8156	0.0037
595.0067	-0.0017
595.1979	0.0026
595.3891	0.0078
595.5802	0.0057
595.7713	-0.0007
595.9624	0.0014
596.1535	0.0062
596.3446	-0.0026
596.5357	0.0054
596.7267	0.0021
596.9177	-0.0009
597.1087	0.0064
597.2997	-0.0009
597.4907	-0.0024
597.6817	-0.0013
597.8726	0.0004
598.0635	-0.001
598.2544	0.0052
598.4453	0.0047
598.6362	0.0037
598.827	-0.0009
599.0179	0.0054
599.2087	0.0072
599.3995	0.002
599.5903	0.0007
599.7811	0.0084
599.9718	0.0021
600.1626	0.0007
600.3533	0.0039
600.544	0.0019
600.7347	0.0047
600.9254	0.0079
601.116	0.0007
601.3067	-0.0012
601.4973	0.0069
601.6879	0.0039
601.8785	0.0071
602.0691	0
602.2596	0.0092
602.4502	0.0029
602.6407	0.0061
602.8312	0.0053
603.0217	0.0066
603.2122	0.0012
603.4027	0.004
603.5931	-0.0018
603.7835	-0.004
603.9739	0.0007
604.1643	0.007
604.3547	0.0117
604.5451	0.0069
604.7354	-0.0067
604.9257	0.0051
605.116	0.0004
605.3063	-0.0005
605.4966	0.0003
605.6869	0.0076
605.8771	0.0028
606.0673	0.0034
606.2575	-0.0023
606.4477	0.0067
606.6379	-0.0017
606.8281	0.0039
607.0182	-0.001
607.2083	-0.0003
607.3985	-0.0018
607.5885	0.0037
607.7786	0.0024
607.9687	0.0084
608.1587	0.006
608.3488	0.0012
608.5388	-0.0015
608.7288	-0.0015
608.9187	-0.0006
609.1087	0.0069
609.2986	0.0116
609.4886	0.004
609.6785	0.002
609.8684	-0.0036
610.0582	-0
610.2481	-0.0029
610.4379	0.0012
610.6278	0.0044
610.8176	0.0054
611.0074	0.0013
611.1971	0.0059
611.3869	0.0015
611.5766	-0.0038
611.7664	0.0079
611.9561	0.0039
612.1458	0.0046
612.3354	0.0026
612.5251	0.0033
612.7147	0.0065
612.9044	-0.0058
613.094	0.0067
613.2836	-0.0012
613.4731	0
613.6627	0.006
613.8522	0.0016
614.0417	0.0037
614.2313	0.0054
614.4207	0.0084
614.6102	0.0008
614.7997	0.013
614.9891	0.0016
615.1785	-0.0064
615.3679	0.0032
615.5573	0.0044
615.7467	-0.006
615.9361	-0.0021
616.1254	0.0061
616.3147	0.0008
616.504	0.0045
616.6933	0.0088
616.8826	0.0018
617.0718	0.0055
617.2611	0.0006
617.4503	0.0034
617.6395	-0.0018
617.8287	0.0013
618.0179	0.0025
618.207	0.0099
618.3961	-0.0048
618.5853	-0.0015
618.7744	0.012
618.9634	0.0027
619.1525	0.0065
619.3416	0.0013
619.5306	0.009
619.7196	0.0064
619.9086	0.0059
620.0976	-0.0075
620.2866	0.0117
620.4755	0.0034
620.6645	0.0008
620.8534	0.0109
621.0423	-0.0115
621.2312	0.001
621.42	0.0024
621.6089	0.0059
621.7977	0.0097
621.9865	0.0001
622.1753	-0.0007
622.3641	-0.0081
622.5529	-0.0061
622.7416	-0.003
622.9303	-0.0016
623.1191	0.0007
623.3078	0.0094
623.4964	0.005
623.6851	0.0063
623.8737	-0.0058
624.0624	-0.0077
624.251	0.007
624.4396	-0.0018
624.6282	0.019
624.8167	-0.0064
625.0053	0.0035
625.1938	-0.0011
625.3823	0.0102
625.5708	-0.0024
625.7593	-0.0014
625.9477	0.0026
626.1362	-0.0071
626.3246	0.0013
626.513	0.0056
626.7014	-0.0026
626.8898	0.022
627.0781	0.0035
627.2665	0.0052
627.4548	-0.0086
627.6431	0.0133
627.8314	0.0059
628.0197	0.0045
628.2079	-0.0091
628.3962	0.0002
628.5844	-0.0024
628.7726	-0.0052
628.9608	0.0059
629.1489	-0.0013
629.3371	-0.0027
629.5252	0.0041
629.7134	-0.008
629.9015	0.0132
630.0895	-0.0117
630.2776	0.003
630.4657	-0.0033
630.6537	0.0106
630.8417	-0.0015
631.0297	-0.0013
631.2177	-0.0016
631.4057	0.0005
631.5936	-0.0014
631.7815	0.0029
631.9695	0.0226
632.1574	0.0041
632.3452	-0.003
632.5331	-0.0045
632.7209	-0.0023
632.9088	0.0105
633.0966	0.0158
633.2844	0.0082
633.4722	0.0146
633.6599	0.0132
633.8477	-0.0005
634.0354	0.0104
634.2231	-0.006
634.4108	-0.0107
634.5985	0.0071
634.7861	-0.0052
634.9738	-0.0153
635.1614	0.0021
635.349	0.0045
635.5366	0.0102
635.7242	0.0134
635.9117	0.0126
636.0993	0.0125
636.2868	-0.0064
636.4743	0.0089
636.6618	-0.0105
636.8492	0.0059
637.0367	-0.0035
637.2241	0.0061
637.4115	0.0167
637.5989	0.0016
637.7863	0.0214
637.9737	-0.0027
638.161	0.0079
638.3484	0.011
638.5357	-0.0032
638.723	0.0151
638.9103	-0.0103
639.0975	0.003
639.2848	0.0137
639.472	0.0043
639.6592	-0.0122
639.8464	0.0001
640.0336	0.0136
640.2208	-0.0057
640.4079	-0.0064
640.595	-0.0214
640.7821	0.0074
640.9692	-0.0054
641.1563	-0.0074
641.3434	0.0109
641.5304	0.0052
641.7174	0.0149
641.9044	-0.0073
642.0914	0.0276
642.2784	-0.0136
642.4653	-0.0205
642.6523	0.0162
642.8392	0.008
643.0261	0.0079
643.213	-0.0027
643.3999	0.0094
643.5867	0.0138
643.7735	-0.0075
643.9604	0.0288
644.1472	0.0207
644.3339	-0.0076
644.5207	0.0075
644.7075	-0.0173
644.8942	-0.005
645.0809	-0.0045
645.2676	0.0108
645.4543	0.009
645.6409	0.0024
645.8276	0.011
646.0142	-0.0083
646.2008	0.0113
646.3874	0.0066
646.574	-0.0057
646.7605	0.009
646.9471	-0.0227
647.1336	-0.0345
647.3201	0.0091
647.5066	-0.0003
647.6931	-0.0035
647.8795	0.0138
648.0659	0.0018
648.2524	0.0189
648.4388	0.0135
648.6252	0.0215
648.8115	-0.0069
648.9979	-0.0034
649.1842	0.0046
649.3705	0.0103
649.5568	-0.0065
649.7431	-0.0109
649.9294	-0.0146
650.1156	0.0014
650.3018	-0.0018
650.488	0.0067
650.6742	0.0136
650.8604	0.0017
651.0466	0.0014
651.2327	-0.0047
651.4188	0.0024
651.6049	0.0121
651.791	0.0043
651.9771	0.0024
652.1632	0.0029
652.3492	0.0129
652.5352	0.0044
652.7212	0.0017
652.9072	-0.0166
653.0932	0.011
653.2791	-0.0085
653.465	0.022
653.651	0.0037
653.8369	0.0016
654.0227	-0.007
654.2086	0.0056
654.3944	0.0208
654.5803	0.0095
654.7661	0.002
654.9519	-0.0014
655.1377	0.0002
655.3234	0.0002
655.5092	0.0002
655.6949	0.0002
655.8806	0.0002
656.0663	0.0002
656.2519	0.0002
656.4376	0.0002
656.6232	0.0002
656.8088	0.0002
656.9945	0.0002
657.18	0.0002
657.3656	0.0002
657.5511	0.0002
657.7367	0.0002
657.9222	0.0002
658.1077	0.0002
658.2932	0.0002
658.4786	0.0002
658.6641	0.0002
658.8495	0.0002
659.0349	0.0002
659.2203	0.0002
659.4057	0.0002
659.591	0.0662
659.7764	0.0217
659.9617	-0.0049
660.147	-0.0082
660.3323	0.0041
660.5176	-0.0059
660.7028	-0.0112
660.888	0.0009
661.0733	-0.0028
661.2585	-0.0015
661.4436	0.0051
661.6288	0.014
661.8139	-0.0088
661.9991	-0.0024
662.1842	0.0047
662.3693	0.0065
662.5544	0.0073
662.7394	0.0135
662.9245	-0.0052
663.1095	-0.0238
663.2945	-0.0101
663.4795	-0.0009
663.6644	-0.0146
663.8494	0.0248
664.0343	0.0134
664.2193	0.0044
664.4042	0.0075
664.589	0.0076
664.7739	0.0238
664.9587	-0.0111
665.1436	-0.0114
665.3284	-0.0045
665.5132	-0.0047
665.698	0.0211
665.8827	0.0334
666.0675	-0.0174
666.2522	0.0157
666.4369	0.0055
666.6216	-0.0038
666.8063	0.0043
666.9909	0.0016
667.1756	-0.0169
667.3602	-0.0165
667.5448	0.0032
667.7294	0.0155
667.9139	-0.0004
668.0985	-0.0004
668.283	0.0071
668.4675	-0.0079
668.652	0.0173
668.8365	-0.0183
669.0209	0.009
669.2054	-0.0051
669.3898	0.0053
669.5742	0.015
669.7586	0.0155
669.943	0.0279
670.1273	-0.0023
670.3117	0.0085
670.496	-0.0058
670.6803	0.014
670.8646	-0.002
671.0488	0.0185
671.2331	-0.0173
671.4173	-0.006
671.6015	-0.006
671.7857	0.003
671.9699	0.0039
672.1541	-0.0063
672.3382	0.0008
672.5223	0.0098
672.7064	-0.0005
672.8905	-0.0023
673.0746	0.0015
673.2587	0.0218
673.4427	0.0018
673.6267	0.0175
673.8107	0.0289
673.9947	0.0092
674.1787	-0.007
674.3626	0.0104
674.5465	0.0086
674.7304	-0.0141
674.9143	0.01
675.0982	0.0156
675.2821	-0.0064
675.4659	-0.0107
675.6497	0.0014
675.8335	0.0014
676.0173	-0.0245
676.2011	0.0182
676.3849	-0.0092
676.5686	0.0161
676.7523	-0.0115
676.936	0.0041
677.1197	0.008
677.3034	0.0144
677.487	0.0137
677.6706	0.0227
677.8542	0.009
678.0378	-0.0022
678.2214	0.0062
678.405	-0.0123
678.5885	0.0197
678.772	0.0111
678.9555	0.0187
679.139	0.0056
679.3225	0.0137
679.5059	-0.0087
679.6894	-0.0063
679.8728	0.0051
680.0562	0.0101
680.2395	-0.0059
680.4229	-0.0104
680.6062	-0.0104
680.7896	-0.0052
680.9729	0.0168
681.1562	0.0102
681.3394	-0.0178
681.5227	0.0186
681.7059	-0.0067
681.8891	-0.0088
682.0723	0.002
682.2555	0.02
682.4387	0.0051
682.6218	-0.0095
682.805	0.0086
682.9881	0.0075
683.1712	0.004
683.3542	0.013
683.5373	-0.0227
683.7203	0.013
683.9034	0.0006
684.0864	0.0085
684.2694	-0.004
684.4523	0.002
684.6353	-0.003
684.8182	-0.0107
685.0011	0.0057
685.184	-0.0042
685.3669	0.0155
685.5498	-0.0088
685.7326	0.0009
685.9154	-0.0065
686.0982	0.0139
686.281	-0.015
686.4638	0.0061
686.6465	-0.0084
686.8293	-0.0206
687.012	0.0094
687.1947	0.005
687.3774	0.0027
687.56	-0.0082
687.7427	-0.0074
687.9253	-0.0332
688.1079	-0.0056
688.2905	-0.0061
688.4731	0.0103
688.6556	-0.0043
688.8382	-0.024
689.0207	0.0263
689.2032	0.0137
689.3857	-0.0189
689.5681	-0.0126
689.7506	0.0323
689.933	-0.011
690.1154	0.0033
690.2978	0.0064
690.4802	0.0249
690.6626	-0.0086
690.8449	0.0155
691.0272	0.0035
691.2095	-0.0128
691.3918	0.0048
691.5741	0.0076
691.7563	0.0069
691.9386	0.0061
692.1208	-0.0119
692.303	-0.0154
692.4852	-0.0048
692.6673	0.0127
692.8495	-0.0059
693.0316	0.0019
693.2137	0.0111
693.3958	-0.0109
693.5778	0.0029
693.7599	-0.0241
693.9419	-0.0059
694.1239	0.004
694.3059	0.0213
694.4879	0.01
694.6699	-0.0178
694.8518	0.0064
695.0337	0.0062
695.2157	0.0194
695.3975	0.0009
695.5794	-0.0165
695.7613	0.0156
695.9431	-0.0316
696.1249	0.0368
696.3067	-0.0016
696.4885	0.0163
696.6703	0.0006
696.852	0.0038
697.0337	0.019
697.2154	-0.0134
697.3971	-0.0092
697.5788	-0.0018
697.7605	-0.0126
697.9421	0.0049
698.1237	0.0201
698.3053	0.001
698.4869	0.0077
698.6685	-0.0261
698.85	0.0143
699.0315	-0.0084
699.213	0.0083
699.3945	0.0003
699.576	0.02
699.7575	0.0308
699.9389	0.0007
700.1203	0.0047
700.3017	0.0058
700.4831	0.0458
700.6645	0.027
700.8458	-0.0307
701.0271	0.0312
701.2084	0.0019
701.3897	0.0033
701.571	-0.0061
701.7523	-0.0066
701.9335	-0.0047
702.1147	0.0029
702.2959	-0.004
702.4771	0.0099
702.6583	0.0101
702.8394	-0.0004
703.0205	0.0215
703.2016	-0.0125
703.3827	-0.0047
703.5638	0.0126
703.7449	0.0087
703.9259	0.0039
704.1069	-0.0255
704.2879	0.0286
704.4689	0.0197
704.6499	0.0072
704.8308	0.0184
705.0117	0.0055
705.1927	-0.0142
705.3735	0.0081
705.5544	0.0187
705.7353	0.0179
705.9161	-0.0227
706.0969	0.0128
706.2777	-0.0105
706.4585	0.0047
706.6393	0.0129
706.82	0.0029
707.0007	0.0054
707.1815	-0.0119
707.3621	0.0281
707.5428	0.0139
707.7235	-0.0035
707.9041	0.0064
708.0847	0.0018
708.2653	0.012
708.4459	-0.0173
708.6265	-0.0048
708.807	0.0013
708.9875	0.0032
709.168	-0.0061
709.3485	0.0231
709.529	-0.0078
709.7095	-0.0004
709.8899	0.0042
710.0703	0.004
710.2507	-0.0171
710.4311	-0.0207
710.6115	-0.0007
710.7918	0.0039
710.9721	-0.0107
711.1524	-0.0193
711.3327	-0.0182
711.513	-0.0119
711.6932	-0.0219
711.8735	0.0356
712.0537	0.0023
712.2339	0.0097
712.4141	0.0333
712.5942	-0.0225
712.7744	0.0059
712.9545	-0.0014
713.1346	0.0126
713.3147	0.0242
713.4947	-0.008
713.6748	0.0063
713.8548	0.0126
714.0348	-0.0025
714.2148	0.0115
714.3948	0.013
714.5748	0.0067
714.7547	0.0006
714.9346	0.0188
715.1145	-0.0076
715.2944	-0.0164
715.4743	0.0204
715.6541	-0.0299
715.834	0.0309
716.0138	0.0008
716.1936	0.0047
716.3733	0.0049
716.5531	-0.0113
716.7328	0.0479
716.9126	0.01
717.0923	-0.0181
717.2719	-0.0055
717.4516	0.014
717.6312	0.0148
717.8109	0.0252
717.9905	-0.0022
718.1701	0.0077
718.3496	0.0078
718.5292	-0.0038
718.7087	-0.0158
718.8882	0.0185
719.0677	0.0133
719.2472	-0.0257
719.4267	-0.0103
719.6061	-0.0327
719.7856	0.0047
719.965	0.0327
720.1443	-0.0241
720.3237	0.0051
720.5031	-0.0012
720.6824	0.0118
720.8617	-0.0134
721.041	0.0377
721.2203	-0.0198
721.3995	-0.0005
721.5788	0.0115
721.758	0.0096
721.9372	0.0076
722.1164	-0.0178
722.2956	-0.0023
722.4747	0.0061
722.6538	-0.0174
722.8329	0.0228
723.012	-0.0102
723.1911	0.0024
723.3702	0.0161
723.5492	-0.0005
723.7282	-0.0048
723.9072	-0.0039
724.0862	0.0116
724.2652	0.0029
724.4441	-0.0001
724.623	-0.0112
724.8019	0.0133
724.9808	0.0047
725.1597	0.0064
725.3385	0.005
725.5174	0.0095
725.6962	0.0106
725.875	0.0175
726.0538	-0.0025
726.2325	0.0266
726.4112	-0.0349
726.59	-0.0212
726.7687	0.007
726.9474	0.0097
727.126	0.0106
727.3047	0.0023
727.4833	0.0048
727.6619	-0.0308
727.8405	0.0065
728.0191	0.0296
728.1976	0.0056
728.3762	0.009
728.5547	0.011
728.7332	0.0118
728.9116	0.0123
729.0901	-0.001
729.2686	-0.0013
729.447	-0.0187
729.6254	0.005
729.8038	-0.0103
729.9821	-0.0272
730.1605	0.0071
730.3388	-0.0086
730.5171	0.0163
730.6954	-0.0249
730.8737	0.0059
731.0519	-0.0096
731.2302	0.0285
731.4084	-0.0003
731.5866	-0.0032
731.7648	0.0026
731.9429	0.0117
732.1211	0.0014
732.2992	-0.0109
732.4773	-0.0065
732.6554	-0.0068
732.8335	0.0229
733.0115	0.0028
733.1896	-0.0043
733.3676	0.0157
733.5456	-0.0071
733.7235	-0.0034
733.9015	0.0006
734.0794	-0.0085
734.2574	-0.0304
734.4353	0.0105
734.6131	-0.0143
734.791	-0.0106
734.9689	-0.0149
735.1467	-0.0169
735.3245	0.0119
735.5023	-0.0046
735.68	-0.0033
735.8578	0.0111
736.0355	0.0015
736.2132	-0.0056
736.3909	0.0203
736.5686	0.0202
736.7463	-0.0179
736.9239	0.0055
737.1015	0.0125
737.2791	0.0105
737.4567	0.0107
737.6343	-0.0152
737.8118	0.0124
737.9894	-0.0166
738.1669	-0.018
738.3444	0.0262
738.5218	0.0014
738.6993	0.0184
738.8767	0.0175
739.0541	-0.0157
739.2315	0.0107
739.4089	0.0258
739.5863	0.0037
739.7636	-0.0113
739.9409	-0.0217
740.1182	-0.0028
740.2955	0.0069
740.4728	-0.015
740.65	0.0112
740.8272	0.0184
741.0044	-0.04
741.1816	0.0223
741.3588	-0.0012
741.5359	0.0126
741.7131	0.0161
741.8902	-0.0203
742.0673	-0.0195
742.2444	0.0316
742.4214	0.026
742.5985	-0.0169
742.7755	-0.0137
742.9525	-0.033
743.1295	-0.0217
743.3064	0.0062
743.4834	-0.0148
743.6603	0.0451
743.8372	-0.0365
744.0141	0.036
744.191	0.0079
744.3678	-0.0393
744.5446	-0.0086
744.7215	0.003
744.8982	0.0082
745.075	0.0333
745.2518	-0.0033
745.4285	0.0374
745.6052	-0.0021
745.7819	0.0065
745.9586	0.0225
746.1353	-0.0001
746.3119	0.0013
746.4885	0.0063
746.6651	0.0175
746.8417	-0.006
747.0183	0.0298
747.1948	0.0252
747.3714	0.0022
747.5479	0.0275
747.7244	0.0033
747.9008	-0.004
748.0773	0.015
748.2537	0.0231
748.4301	0.0248
748.6065	-0.0289
748.7829	-0.0213
748.9593	0.0011
749.1356	0.016
749.3119	-0.0026
749.4882	0.0247
749.6645	-0.0022
749.8408	0.0261
750.017	0.0256
750.1933	-0.0058
750.3695	0.0052
750.5457	-0.0257
750.7218	-0.0061
750.898	-0.014
751.0741	-0.008
751.2502	0.0083
751.4263	0.018
751.6024	0.0009
751.7784	-0.0001
751.9545	-0.0135
752.1305	0.0026
752.3065	0.0226
752.4825	-0.008
752.6584	0.0236
752.8344	-0.0092
753.0103	-0.0218
753.1862	0.0056
753.3621	-0.0252
753.5379	-0.0123
753.7138	0.0154
753.8896	0.0222
754.0654	0.0028
754.2412	0.0165
754.417	0.0046
754.5927	-0.0008
754.7685	0.0089
754.9442	0.0126
755.1199	0.0171
755.2956	0.0035
755.4712	-0.0187
755.6469	-0.0072
755.8225	0.0155
755.9981	0.0129
756.1736	0.0142
756.3492	-0.0118
756.5248	0.0119
756.7003	-0.0139
756.8758	0.0209
757.0513	0.0074
757.2267	0.0137
757.4022	-0.0143
757.5776	0.0086
757.753	-0.0011
757.9284	0.0002
758.1038	0.015
758.2791	0.0326
758.4545	-0.0058
758.6298	0.0029
758.8051	-0.0053
758.9803	0.0033
759.1556	-0.0077
759.3308	-0.0079
759.506	0.0002
759.6812	0.0019
759.8564	0.0127
760.0316	-0.0201
760.2067	0.0249
760.3819	-0.0064
760.557	-0.0176
760.732	0.0051
760.9071	0.0058
761.0821	-0.0207
761.2572	-0.0036
761.4322	-0.0001
761.6072	-0.0105
761.7821	-0.0348
761.9571	0.0089
762.132	-0.0169
762.3069	0.0147
762.4818	0.0351
762.6567	-0.0063
762.8316	0.0154
763.0064	0.0166
763.1812	0.0156
763.356	-0.0203
763.5308	0.0218
763.7055	-0.0157
763.8803	-0.0136
764.055	-0.0028
764.2297	-0.0162
764.4044	-0.0069
764.579	-0.0208
764.7537	0.0002
764.9283	-0.0022
765.1029	-0.0036
765.2775	0.0081
765.4521	0.007
765.6266	-0.0121
765.8011	0.019
765.9756	0.0138
766.1501	-0.0203
766.3246	-0.0055
766.4991	0.0145
766.6735	0.0102
766.8479	-0.0033
767.0223	-0.0039
767.1967	0.0027
767.371	0.005
767.5454	0.0089
767.7197	0.0116
767.894	-0.0167
768.0683	0.009
768.2425	-0.0008
768.4168	0.0006
768.591	0.0045
768.7652	-0.0228
768.9394	-0.0134
769.1135	0.006
769.2877	0.0152
769.4618	0.0324
769.6359	0.0058
769.81	0.0145
769.984	0.0075
770.1581	0.0132
770.3321	0.002
770.5061	-0.0093
770.6801	0.008
770.8541	0.0114
771.028	0.0218
771.202	0.0149
771.3759	0.0164
771.5498	0.0028
771.7236	-0.0098
771.8975	0.0091
772.0713	0.0036
772.2451	-0.0164
772.4189	0.0147
772.5927	-0.0113
772.7665	-0.0249
772.9402	0.0164
773.1139	-0.0067
773.2876	-0.0174
773.4613	0.0124
773.635	0.0154
773.8086	0.0084
773.9822	0.0213
774.1558	0.0517
774.3294	-0.0083
774.503	-0.0091
774.6765	0.0214
774.8501	0.0012
775.0236	0.0229
775.1971	0.0177
775.3705	0.0181
775.544	0.0173
775.7174	0.0233
775.8908	-0.008
776.0642	0.0357
776.2376	0.0344
776.4109	0.0245
776.5843	-0.0132
776.7576	0.049
776.9309	0.0567
777.1041	-0.0448
777.2774	-0.0313
777.4506	0.0076
777.6238	-0.0363
777.797	0.0419
777.9702	0.0268
778.1434	-0.0153
778.3165	-0.0051
778.4896	-0.0248
778.6627	-0.0166
778.8358	-0.0042
779.0089	-0.0637
779.1819	0.0157
779.3549	0.014
779.5279	-0.0284
779.7009	0.0233
779.8739	0.0464
780.0468	0.0069
780.2197	0.0439
780.3926	-0.0099
780.5655	0.0144
780.7384	0.0071
780.9112	0.037
781.0841	0.0237
781.2569	0.0003
781.4297	0.0026
781.6024	0.0281
781.7752	0.0337
781.9479	0.0459
782.1206	-0.0223
782.2933	0.0021
782.466	0.0156
782.6386	-0.0041
782.8113	0.0057
782.9839	-0.0077
783.1565	0.042
783.329	0.0016
783.5016	-0.024
783.6741	-0.0146
783.8466	0.0171
784.0191	0.0019
784.1916	-0.0164
784.3641	-0.0868
784.5365	0.0273
784.7089	-0.0076
784.8813	0.0677
785.0537	-0.0049
785.2261	0.0088
785.3984	0.0138
785.5707	-0.0218
785.743	0.0286
785.9153	0.0095
786.0876	-0.0303
786.2598	-0.0213
786.432	0.0073
786.6042	0.0403
786.7764	-0.0295
786.9486	-0.0178
787.1207	0.0233
787.2928	0.0236
787.4649	-0.0185
787.637	0.0034
787.8091	0.0153
787.9811	0.0207
788.1532	0.0234
788.3252	0.0238
788.4972	-0.0001
788.6691	-0.006
788.8411	-0.0073
789.013	0.0145
789.1849	-0.0296
789.3568	0.0038
789.5287	0.0599
789.7005	-0.0123
789.8723	-0.0086
790.0442	0.0149
790.2159	-0.0155
790.3877	0.0806
790.5595	0.0134
790.7312	0.0483
790.9029	-0.0154
791.0746	0.0112
791.2463	-0.0816
791.4179	0.0429
791.5896	0.0219
791.7612	-0.0101
791.9328	0.0098
792.1044	0.0328
792.2759	-0.0137
792.4474	0.0187
792.619	0.0303
792.7905	0.0124
792.9619	0.0728
793.1334	0.0762
793.3048	0.0636
793.4762	0.044
793.6476	-0.0365
793.819	-0.0139
793.9904	0.0072
794.1617	-0.0026
794.333	-0.0104
794.5043	0.0192
794.6756	-0.0182
794.8469	0.0054
795.0181	-0.0156
795.1893	0.0176
795.3605	0.0211
795.5317	0.0103
795.7029	0.0231
795.874	0.0227
796.0452	0.0324
796.2163	0.0576
796.3873	0.0676
796.5584	0.0193
796.7294	-0.0361
796.9005	0.013
797.0715	-0.0097
797.2425	0.0618
797.4134	0.0679
797.5844	0.0665
797.7553	-0.0249
797.9262	0.0422
798.0971	-0.0034
798.2679	-0.0111
798.4388	0.0398
798.6096	-0.0071
798.7804	0.0171
798.9512	0.0843
799.122	-0.0041
799.2927	0.0725
799.4635	-0.0441
799.6342	-0.0242
799.8049	0.0467
799.9755	-0.0537
800.1462	0.0024
800.3168	0.0818
800.4874	-0.0194
800.658	0.0723
800.8286	-0.0004
800.9991	0.0601
801.1696	0.0055
801.3402	-0.0841
801.5106	-0.019
801.6811	-0.0616
801.8516	0.1354
802.022	-0.0778
802.1924	-0.0937
802.3628	-0.0159
802.5332	0.0812
802.7035	0.0157
802.8739	0.0276
803.0442	0.0345
803.2145	0.0425
803.3847	-0.0141
803.555	0.0669
803.7252	-0.0004
803.8954	-0.0133
804.0656	0.0358
804.2358	-0.0041
804.4059	0.0574
804.5761	0.0989
804.7462	0.0226
804.9163	0.0547
805.0864	0.0137
805.2564	-0.0024
805.4264	0.0392
805.5965	0.0242
805.7665	0.0088
805.9364	0.0369
806.1064	0.0324
806.2763	-0.0151
806.4462	0.0129
806.6161	0.0479
806.786	0.0008
806.9559	0.0146
807.1257	0.0216
807.2955	-0.039
807.4653	0.0254
807.6351	0.0133
807.8048	-0.048
807.9746	0.0359
808.1443	-0.0328
808.314	0.0115
808.4837	0.0892
808.6533	-0.0696
808.8229	0.0357
808.9926	0.0079
809.1622	-0.0118
809.3317	-0.0716
809.5013	-0.0569
809.6708	0.027
809.8403	0.0127
810.0098	-0.0075
810.1793	-0.0067
810.3488	-0.032
810.5182	0.0744
810.6876	-0.0138
810.857	0.0899
811.0264	-0.0274
811.1958	0.1645
811.3651	-0.019
811.5344	0.1758
811.7037	0.107
811.873	0.0491
812.0422	-0.0581
812.2115	0.0209
812.3807	-0.0469
812.5499	-0.0083
812.7191	0.029
812.8882	-0.0008
813.0574	-0.0007
813.2265	-0.0088
813.3956	0.0164
813.5646	0.0498
813.7337	-0.0462
813.9027	-0.0739
814.0718	0.068
814.2407	0.0278
814.4097	-0.0192
814.5787	0.1534
814.7476	0.0521
814.9165	0.0294
815.0854	0.0989
815.2543	0.1047
815.4232	0.0866
815.592	0.1072
815.7608	-0.1719
815.9296	0.0991
816.0984	0.0971
816.2671	-0.2085
816.4359	0.0766
816.6046	0.0828
816.7733	-0.0903
816.942	-0.0462
817.1106	-0.0315
817.2793	-0.0366
817.4479	0.0186
817.6165	0.0531
817.785	0.0676
817.9536	-0.0106
818.1221	0.0451
818.2906	-0.1681
818.4591	-0.0028
818.6276	-0.0127
818.7961	-0.0102
818.9645	0.2198
819.1329	0.1241
819.3013	-0.0895
819.4697	0.0326
819.638	0.1665
819.8064	-0.0293
819.9747	0.3996
820.143	-0.0803
820.3113	0.0893
820.4795	0.0362
820.6477	0.048
820.816	0.0649
820.9842	0.0832
821.1523	0.0183
821.3205	-0.0519
821.4886	-0.0026
821.6567	-0.0673
821.8248	0.1156
821.9929	-0.0699
822.1609	-0.0423
822.329	0.0299
822.497	-0.0103
822.665	0.0962
822.833	-0.098
823.0009	0.0592
823.1688	-0.0336
823.3367	0.039
823.5046	0.0764
823.6725	-0.0262
823.8404	-0.0153
824.0082	0.0884
824.176	-0.0441
824.3438	0.2909
824.5116	0.0646
824.6793	0.128
824.847	0.0103
825.0147	-0.0807
825.1824	0.0095
825.3501	-0.1072
825.5177	0.0392
825.6854	-0.1072
825.853	-0.0043
826.0206	0.0777
826.1881	-0.0116
826.3557	0.0209
826.5232	0.134
826.6907	-0.0409
826.8582	0.0582
827.0257	0.0857
827.1931	0.0457
827.3605	-0.0375
827.528	-0.0115
827.6953	-0.1498
827.8627	-0.0872
828.03	0.1948
828.1974	-0.0075
828.3647	0.033
828.532	0.0256
828.6992	0.0763
828.8665	-0.1442
829.0337	0.1607
829.2009	0.0532
829.3681	-0.0285
829.5352	0.1233
829.7024	0.0122
829.8695	0.0029
830.0366	0.183
830.2037	0.0851
830.3707	0.0622
830.5378	-0.077
830.7048	-0.0324
830.8718	0.2796
831.0388	0.0614
831.2057	-0.1886
831.3727	-0.018
831.5396	0.4359
831.7065	-0.7907
831.8734	0.2763
832.0402	0.2505
832.2071	-0.3961
832.3739	-0.036
832.5407	-1.8659
832.7075	-0.4088
832.8742	1.0528
833.041	0.091
833.2077	0.029
833.3744	0.06
833.541	0.0082
833.7077	0.0241
833.8743	0.0619
834.0409	0.0895
834.2075	0.1446
834.3741	-0.1127
834.5407	0.018
834.7072	0.0971
834.8737	0.2226
835.0402	-0
835.2067	-0.0631
835.3731	-0.0274
835.5395	0.0625
835.706	-0.169
835.8723	0.0227
836.0387	0.8498
836.2051	-0.0256
836.3714	0.0804
836.5377	-0.0542
836.704	0.5517
836.8703	-0.102
837.0365	-0.8823
837.2027	-0
837.3689	0.5738
837.5351	1.1122
837.7013	-0.1376
837.8674	0.1849
838.0335	-0.0858
838.1997	-0.2091
838.3657	2.3395
838.5318	-0.4781
838.6978	-0
838.8639	-0.4538
839.0299	0.1615
839.1958	0.2136
839.3618	-0
839.5277	-0.066
839.6937	0.5458
839.8596	-0.2231
840.0254	0.0807
840.1913	0.0135
840.3571	-0.1791
840.523	-0
840.6888	0.6491
840.8545	-0.1549
841.0203	0.1494
841.186	0.3079
841.3517	-0.1368
841.5174	0.2751
841.6831	-0.039
841.8488	0.2235
842.0144	0.1893
842.18	1.0726
842.3456	-0.5005
842.5112	-0.5619
842.6767	-0.1088
842.8422	0.0973
843.0077	0.6038
843.1732	-0.131
843.3387	-0.0163
843.5042	0.4457
843.6696	0.1812
843.835	-0.2662
844.0004	0.2171
844.1657	-0
844.3311	-0
844.4964	-0
844.6617	0.7824
844.827	-0
844.9923	0.0899
845.1575	0.1282
845.3227	-0.2661
845.4879	0.0321
845.6531	0.4513
845.8183	-0
845.9834	-0
846.1485	0.6709
846.3136	-0.0029
846.4787	-0.3765
846.6438	0.024
846.8088	-0
846.9738	-0.2849
847.1388	0.1394
847.3038	0.2232
847.4687	0.9457
847.6337	-0
847.7986	-0.1563
847.9635	0.1055
848.1284	0.6182
848.2932	0.285
848.458	-0
848.6228	0.0886
848.7876	-0.1952
848.9524	0.0247
849.1172	-1.7634
849.2819	-0
849.4466	1.934
849.6113	-0
849.7759	0.1469
849.9406	-0.0668
850.1052	-1.2751
850.2698	0.3856
850.4344	-0.623
850.599	0.1603
850.7635	-0
850.928	0.7664
851.0925	0.7309
851.257	-0
851.4215	-0
851.5859	0.2671
851.7503	-0.5795
851.9147	-0
852.0791	-0.2142
852.2434	0.5046
852.4078	-0.0946
852.5721	-0
852.7364	-0.0229
852.9007	-0.0743
853.0649	-0
853.2291	0.417
853.3934	-0.3922
853.5575	0.1628
853.7217	0.3119
853.8859	-0
854.05	-0.3211
854.2141	-0
854.3782	0.4618
854.5423	-0.0298
854.7063	-0.2173
854.8703	0.0628
855.0343	-0.0582
855.1983	0.2713
855.3623	0.2378
855.5262	-0.1304
855.6901	-0
855.854	0.2558
856.0179	0.1433
856.1818	-0
856.3456	0.4014
856.5094	-0.6206
856.6732	-0
856.837	-0.8391
857.0008	0.099
857.1645	0.526
857.3282	-0
857.4919	0.0139
857.6556	0.2103
857.8192	-0.024
857.9828	-0.2386
858.1465	0.0232
858.31	-0.3047
858.4736	-0.0302
858.6372	-0
858.8007	0.036
858.9642	0.2782
859.1277	1.0195
859.2911	-0.4871
859.4546	-0
859.618	-0
859.7814	0.0289
859.9448	-0
860.1081	0.2156
860.2715	-1.7761
860.4348	-0
860.5981	0.829
860.7614	-0
860.9246	-0.0032
861.0879	0.6403
861.2511	-0
861.4143	-0
861.5774	0.4445
861.7406	-0
861.9037	-0
862.0668	-0
862.2299	-0
862.393	-0
862.556	-0
862.7191	0.0214
862.8821	0.1708
863.0451	0.18
863.208	-0
863.371	-0.7275
863.5339	0.3853
863.6968	0.1336
863.8597	-0
864.0225	-0
864.1854	-0.3292
864.3482	0.4914
864.511	0.2164
864.6737	-0
864.8365	-0
864.9992	-0
865.1619	0.2987
865.3246	-2.0052
865.4873	-0.1549
865.65	-0
865.8126	0.4399
865.9752	0.1394
866.1378	0.0147
866.3004	-0.1441
866.4629	-1.8233
866.6254	-0
866.7879	0.0386
866.9504	-0
867.1129	-0
867.2753	0.3001
867.4377	-0.0602
867.6001	-0.72
867.7625	0.1376
867.9249	0.7702
868.0872	-0.2749
868.2495	-0
868.4118	-0
868.5741	0.2494
868.7363	0.1978
868.8986	-0
869.0608	-0
869.223	-0.356
869.3851	-0
869.5473	-0.2142
869.7094	1.1022
869.8715	-0
870.0336	0.1026
870.1957	-1.1581
870.3577	0.7988
870.5197	-0.0028
870.6817	-0.5207
870.8437	0.2823
871.0057	1.6656
871.1676	0.2676
871.3295	0.6807
871.4914	-0
871.6533	-0
871.8151	-0
871.977	-0.2195
872.1388	-0.3787
872.3006	-0.0714
872.4623	-0.6414
872.6241	-0
872.7858	0.3142
872.9475	0.0678
873.1092	0.478
873.2709	1.0607
873.4325	-1.7088
873.5941	-0
873.7557	-0
873.9173	0.1961
874.0789	0.4704
874.2404	-0
874.4019	0.8587
874.5634	-0
874.7249	0.7051
874.8863	-0.5526
875.0478	0.1008
875.2092	0.5496
875.3706	-0.0064
875.5319	-0
875.6933	1.5647
875.8546	-0.3525
876.0159	0.2637
876.1772	-0.0532
876.3385	-0.003
876.4997	-0
876.6609	-0
876.8221	-0
876.9833	-0.3584
877.1445	0.7046
877.3056	-0.4818
877.4667	-0.6473
877.6278	-0
877.7889	2.1658
877.9499	-0
878.111	-0.3108
878.272	-0
878.433	0.1214
878.5939	-0.1122
878.7549	-0
878.9158	-0
879.0767	0.25
879.2376	-0
879.3984	0.2384
879.5593	-0
879.7201	-0
879.8809	0.5354
880.0417	-0.2772
880.2024	-0
880.3632	-0
880.5239	1.0472
880.6846	-0.8132
880.8452	0.0166
881.0059	0.1489
881.1665	0.0642
881.3271	0.17
881.4877	-0
881.6483	-1
881.8088	-0
881.9693	-0.704
882.1298	-0.704
882.2903	-0.704
