Data from D4ACN5uM460nmA_Absorbance_13-05-42-155.txt Node
Date: Fri Feb 21 13:05:42 GMT 2025
User: LASERRRRR
Spectrometer: FLMT03099
Trigger mode: 0
Integration Time (sec): 1.500000E-2
Scans to average: 1
Electric dark correction enabled: true
Nonlinearity correction enabled: false
Boxcar width: 0
XAxis mode: Wavelengths
Number of Pixels in Spectrum: 3648
>>>>>Begin Spectral Data<<<<<
179.3399	-0.3243
179.5586	-0.3243
179.7771	-0.3243
179.9957	-0.2704
180.2143	-0
180.4329	1.137
180.6514	-0.1899
180.8699	0.8767
181.0885	0.0787
181.307	0.0616
181.5255	1.2269
181.744	-0
181.9625	0.5975
182.181	1.0998
182.3994	-0.5552
182.6179	-0.3271
182.8363	-0
183.0547	0.2038
183.2732	-0.1055
183.4916	0.403
183.71	0.1484
183.9284	0.0405
184.1467	-0.1216
184.3651	0.0877
184.5835	0.096
184.8018	0.1386
185.0201	0.0481
185.2385	0.2246
185.4568	0.1715
185.6751	0.1903
185.8934	0.4
186.1117	-0.1935
186.3299	0.2137
186.5482	0.3216
186.7664	0.0708
186.9847	0.0122
187.2029	0.3776
187.4211	0.0021
187.6393	0.0747
187.8575	0.2033
188.0757	0.1045
188.2939	0.0692
188.512	0.0928
188.7302	0.2216
188.9483	0.0747
189.1665	0.2426
189.3846	0.2346
189.6027	0.1956
189.8208	0.1153
190.0389	0.2602
190.257	0.111
190.475	0.0515
190.6931	0.1258
190.9111	0.1177
191.1292	0.055
191.3472	0.0594
191.5652	0.2996
191.7832	0.1595
192.0012	0.1073
192.2192	0.1108
192.4371	0.1705
192.6551	0.1745
192.873	0.0892
193.091	0.2092
193.3089	0.1022
193.5268	0.2591
193.7447	0.1649
193.9626	0.1903
194.1805	0.1654
194.3984	0.2108
194.6162	0.2678
194.8341	0.3556
195.0519	0.1817
195.2697	0.2687
195.4875	0.2332
195.7054	0.2247
195.9231	0.1949
196.1409	0.351
196.3587	0.3023
196.5765	0.2802
196.7942	0.3457
197.012	0.3419
197.2297	0.2922
197.4474	0.4325
197.6651	0.2475
197.8828	0.3716
198.1005	0.4371
198.3182	0.3797
198.5358	0.3903
198.7535	0.3985
198.9711	0.3814
199.1888	0.3211
199.4064	0.3827
199.624	0.3804
199.8416	0.3743
200.0592	0.4163
200.2767	0.3662
200.4943	0.4253
200.7119	0.4254
200.9294	0.3947
201.1469	0.421
201.3645	0.4527
201.582	0.399
201.7995	0.3798
202.017	0.4089
202.2344	0.4028
202.4519	0.4621
202.6694	0.3609
202.8868	0.4205
203.1042	0.4118
203.3217	0.3926
203.5391	0.3945
203.7565	0.3906
203.9739	0.3672
204.1913	0.3251
204.4086	0.3371
204.626	0.3603
204.8433	0.3708
205.0607	0.3208
205.278	0.349
205.4953	0.321
205.7126	0.3273
205.9299	0.3265
206.1472	0.3329
206.3644	0.3508
206.5817	0.338
206.7989	0.3374
207.0162	0.3328
207.2334	0.3405
207.4506	0.2962
207.6678	0.2942
207.885	0.2962
208.1022	0.2964
208.3194	0.2887
208.5365	0.289
208.7537	0.2919
208.9708	0.2879
209.1879	0.2836
209.405	0.2844
209.6222	0.2751
209.8392	0.2815
210.0563	0.2692
210.2734	0.2676
210.4905	0.2636
210.7075	0.262
210.9245	0.2696
211.1416	0.2861
211.3586	0.2655
211.5756	0.249
211.7926	0.2716
212.0096	0.2666
212.2265	0.2698
212.4435	0.2573
212.6604	0.2483
212.8774	0.2381
213.0943	0.2722
213.3112	0.2497
213.5281	0.2565
213.745	0.2413
213.9619	0.2375
214.1788	0.2482
214.3956	0.2391
214.6125	0.2652
214.8293	0.2533
215.0461	0.2469
215.2629	0.2419
215.4798	0.2397
215.6965	0.2562
215.9133	0.2309
216.1301	0.2452
216.3469	0.2546
216.5636	0.2489
216.7803	0.2468
216.9971	0.2481
217.2138	0.2548
217.4305	0.2582
217.6472	0.2486
217.8639	0.2365
218.0805	0.2639
218.2972	0.2569
218.5138	0.2567
218.7305	0.251
218.9471	0.2513
219.1637	0.2736
219.3803	0.2594
219.5969	0.2656
219.8135	0.2659
220.0301	0.2562
220.2466	0.2541
220.4632	0.2477
220.6797	0.273
220.8962	0.2751
221.1127	0.2715
221.3292	0.273
221.5457	0.2705
221.7622	0.2638
221.9787	0.2776
222.1951	0.2722
222.4116	0.2805
222.628	0.29
222.8444	0.2755
223.0608	0.2839
223.2772	0.2822
223.4936	0.2839
223.71	0.2898
223.9264	0.2872
224.1427	0.2835
224.3591	0.2839
224.5754	0.2838
224.7917	0.2931
225.008	0.2959
225.2243	0.306
225.4406	0.2926
225.6569	0.304
225.8732	0.3086
226.0894	0.3138
226.3057	0.3169
226.5219	0.3156
226.7381	0.3234
226.9543	0.3236
227.1705	0.3272
227.3867	0.3209
227.6029	0.3239
227.8191	0.3428
228.0352	0.338
228.2513	0.3514
228.4675	0.3456
228.6836	0.346
228.8997	0.3339
229.1158	0.3556
229.3319	0.3564
229.548	0.3529
229.764	0.3491
229.9801	0.3724
230.1961	0.3748
230.4121	0.3626
230.6282	0.3731
230.8442	0.3833
231.0602	0.3708
231.2761	0.3801
231.4921	0.397
231.7081	0.3844
231.924	0.4024
232.14	0.4004
232.3559	0.4055
232.5718	0.4048
232.7877	0.4106
233.0036	0.4069
233.2195	0.4151
233.4353	0.4191
233.6512	0.4261
233.867	0.4233
234.0829	0.4315
234.2987	0.4274
234.5145	0.4344
234.7303	0.4306
234.9461	0.4294
235.1619	0.4428
235.3776	0.4295
235.5934	0.4269
235.8091	0.4423
236.0249	0.4362
236.2406	0.4454
236.4563	0.45
236.672	0.4376
236.8877	0.4558
237.1034	0.4345
237.319	0.4409
237.5347	0.4554
237.7503	0.4405
237.966	0.4637
238.1816	0.4534
238.3972	0.4638
238.6128	0.4676
238.8284	0.462
239.0439	0.4653
239.2595	0.4584
239.475	0.4592
239.6906	0.4572
239.9061	0.4621
240.1216	0.4586
240.3371	0.4643
240.5526	0.4641
240.7681	0.4613
240.9836	0.4595
241.199	0.4607
241.4145	0.4543
241.6299	0.4528
241.8453	0.4375
242.0607	0.4333
242.2761	0.4276
242.4915	0.4198
242.7069	0.4138
242.9223	0.4188
243.1376	0.4047
243.353	0.3953
243.5683	0.3931
243.7836	0.3813
243.9989	0.3691
244.2142	0.3667
244.4295	0.3633
244.6448	0.3616
244.86	0.354
245.0753	0.339
245.2905	0.3299
245.5057	0.3405
245.721	0.3339
245.9362	0.3216
246.1514	0.312
246.3665	0.3138
246.5817	0.2881
246.7969	0.2922
247.012	0.2868
247.2271	0.2956
247.4423	0.2819
247.6574	0.2833
247.8725	0.2692
248.0876	0.2661
248.3026	0.2578
248.5177	0.2532
248.7328	0.2482
248.9478	0.2496
249.1628	0.2481
249.3779	0.2359
249.5929	0.2393
249.8079	0.2368
250.0228	0.2337
250.2378	0.2278
250.4528	0.2232
250.6677	0.2158
250.8827	0.217
251.0976	0.2095
251.3125	0.2186
251.5274	0.2051
251.7423	0.204
251.9572	0.2018
252.172	0.209
252.3869	0.2056
252.6017	0.1996
252.8166	0.2035
253.0314	0.1976
253.2462	0.1988
253.461	0.1918
253.6758	0.1907
253.8906	0.1946
254.1053	0.1921
254.3201	0.1912
254.5348	0.1783
254.7496	0.1875
254.9643	0.1868
255.179	0.1922
255.3937	0.1878
255.6083	0.187
255.823	0.1882
256.0377	0.179
256.2523	0.1812
256.467	0.1847
256.6816	0.178
256.8962	0.1836
257.1108	0.1808
257.3254	0.1754
257.54	0.1776
257.7545	0.1789
257.9691	0.1795
258.1836	0.1737
258.3981	0.1781
258.6127	0.1736
258.8272	0.1811
259.0417	0.174
259.2561	0.1714
259.4706	0.1736
259.6851	0.1735
259.8995	0.17
260.114	0.1765
260.3284	0.1724
260.5428	0.1713
260.7572	0.1722
260.9716	0.1769
261.186	0.1763
261.4003	0.1662
261.6147	0.1723
261.829	0.176
262.0433	0.1751
262.2577	0.1809
262.472	0.1764
262.6863	0.177
262.9005	0.1743
263.1148	0.1722
263.3291	0.1785
263.5433	0.174
263.7576	0.1799
263.9718	0.18
264.186	0.1745
264.4002	0.1764
264.6144	0.177
264.8286	0.1765
265.0427	0.1776
265.2569	0.1776
265.471	0.1766
265.6851	0.1829
265.8993	0.1747
266.1134	0.1717
266.3275	0.1753
266.5415	0.1794
266.7556	0.1791
266.9697	0.1756
267.1837	0.177
267.3978	0.1809
267.6118	0.1703
267.8258	0.1769
268.0398	0.1779
268.2538	0.1763
268.4677	0.1728
268.6817	0.1701
268.8957	0.1695
269.1096	0.1647
269.3235	0.1706
269.5374	0.1737
269.7514	0.174
269.9652	0.1684
270.1791	0.1739
270.393	0.166
270.6068	0.1652
270.8207	0.1697
271.0345	0.1659
271.2483	0.1625
271.4622	0.1696
271.676	0.1677
271.8897	0.1667
272.1035	0.1733
272.3173	0.1634
272.531	0.1711
272.7448	0.1653
272.9585	0.1665
273.1722	0.1645
273.3859	0.171
273.5996	0.1665
273.8133	0.1681
274.0269	0.1662
274.2406	0.1638
274.4542	0.1666
274.6679	0.1745
274.8815	0.1749
275.0951	0.1758
275.3087	0.1704
275.5223	0.1686
275.7358	0.1655
275.9494	0.17
276.1629	0.1707
276.3765	0.1723
276.59	0.1693
276.8035	0.1683
277.017	0.1741
277.2305	0.1711
277.444	0.1749
277.6574	0.1746
277.8709	0.1773
278.0843	0.1713
278.2978	0.1766
278.5112	0.1713
278.7246	0.1725
278.938	0.172
279.1513	0.176
279.3647	0.1761
279.5781	0.1772
279.7914	0.1748
280.0047	0.1773
280.2181	0.1789
280.4314	0.1765
280.6447	0.1778
280.8579	0.168
281.0712	0.1706
281.2845	0.1747
281.4977	0.1774
281.711	0.1732
281.9242	0.177
282.1374	0.1779
282.3506	0.1817
282.5638	0.171
282.7769	0.1724
282.9901	0.1772
283.2033	0.1771
283.4164	0.1746
283.6295	0.1811
283.8426	0.1789
284.0557	0.1788
284.2688	0.1833
284.4819	0.1787
284.695	0.1856
284.908	0.1773
285.1211	0.1814
285.3341	0.1866
285.5471	0.1858
285.7601	0.1819
285.9731	0.1906
286.1861	0.1882
286.3991	0.1896
286.612	0.1896
286.825	0.1843
287.0379	0.1878
287.2508	0.1893
287.4637	0.1909
287.6766	0.1882
287.8895	0.1867
288.1024	0.1965
288.3152	0.1859
288.5281	0.1877
288.7409	0.1928
288.9538	0.1868
289.1666	0.1856
289.3794	0.1886
289.5922	0.1802
289.8049	0.187
290.0177	0.191
290.2304	0.1921
290.4432	0.192
290.6559	0.1932
290.8686	0.1909
291.0813	0.189
291.294	0.193
291.5067	0.1862
291.7194	0.1915
291.932	0.1891
292.1447	0.193
292.3573	0.1969
292.5699	0.1981
292.7825	0.1922
292.9951	0.1932
293.2077	0.1909
293.4203	0.1963
293.6328	0.1911
293.8454	0.193
294.0579	0.1915
294.2704	0.1982
294.4829	0.1929
294.6954	0.1959
294.9079	0.1901
295.1204	0.1858
295.3328	0.1953
295.5453	0.1914
295.7577	0.1952
295.9701	0.1923
296.1825	0.1925
296.3949	0.1849
296.6073	0.1895
296.8197	0.1906
297.0321	0.1927
297.2444	0.1891
297.4567	0.1919
297.6691	0.1887
297.8814	0.1913
298.0937	0.1931
298.306	0.1904
298.5182	0.1963
298.7305	0.1916
298.9428	0.1885
299.155	0.1876
299.3672	0.1901
299.5794	0.1903
299.7916	0.1912
300.0038	0.1951
300.216	0.1896
300.4282	0.1875
300.6403	0.1952
300.8525	0.1956
301.0646	0.1945
301.2767	0.1958
301.4888	0.1892
301.7009	0.1955
301.913	0.1982
302.125	0.1856
302.3371	0.1909
302.5491	0.1896
302.7612	0.1965
302.9732	0.1949
303.1852	0.1869
303.3972	0.1927
303.6092	0.1894
303.8211	0.1899
304.0331	0.1917
304.245	0.1933
304.457	0.1884
304.6689	0.1881
304.8808	0.1866
305.0927	0.1897
305.3046	0.1858
305.5164	0.181
305.7283	0.1854
305.9401	0.1725
306.152	0.1818
306.3638	0.1785
306.5756	0.179
306.7874	0.1712
306.9992	0.1712
307.2109	0.1715
307.4227	0.1719
307.6344	0.1722
307.8462	0.1629
308.0579	0.1744
308.2696	0.165
308.4813	0.1671
308.693	0.1585
308.9046	0.1673
309.1163	0.1591
309.328	0.1543
309.5396	0.1542
309.7512	0.1542
309.9628	0.1508
310.1744	0.1484
310.386	0.1468
310.5976	0.1423
310.8091	0.1493
311.0207	0.1455
311.2322	0.1367
311.4437	0.1437
311.6552	0.1424
311.8667	0.1393
312.0782	0.1371
312.2897	0.1376
312.5012	0.1374
312.7126	0.1286
312.924	0.1309
313.1355	0.1305
313.3469	0.1351
313.5583	0.1291
313.7696	0.1314
313.981	0.1382
314.1924	0.1284
314.4037	0.1298
314.6151	0.1253
314.8264	0.1309
315.0377	0.1245
315.249	0.1268
315.4603	0.1205
315.6716	0.1256
315.8828	0.1234
316.0941	0.1232
316.3053	0.1245
316.5165	0.1244
316.7277	0.125
316.9389	0.1217
317.1501	0.1216
317.3613	0.1143
317.5724	0.1181
317.7836	0.1142
317.9947	0.1205
318.2058	0.1228
318.417	0.121
318.6281	0.1173
318.8391	0.1207
319.0502	0.1147
319.2613	0.1166
319.4723	0.1184
319.6834	0.1192
319.8944	0.1165
320.1054	0.123
320.3164	0.1218
320.5274	0.116
320.7383	0.1157
320.9493	0.1219
321.1602	0.1164
321.3712	0.119
321.5821	0.1104
321.793	0.1213
322.0039	0.1171
322.2148	0.1221
322.4257	0.1143
322.6365	0.1172
322.8474	0.1226
323.0582	0.1267
323.269	0.1207
323.4798	0.1198
323.6906	0.1169
323.9014	0.1184
324.1122	0.1191
324.3229	0.1238
324.5337	0.121
324.7444	0.1186
324.9551	0.1251
325.1658	0.1191
325.3765	0.1261
325.5872	0.1177
325.7979	0.1257
326.0085	0.1204
326.2192	0.1162
326.4298	0.1278
326.6404	0.1193
326.851	0.125
327.0616	0.1289
327.2722	0.1276
327.4828	0.1164
327.6933	0.1362
327.9039	0.1209
328.1144	0.1246
328.3249	0.1297
328.5354	0.1215
328.7459	0.1247
328.9564	0.1258
329.1669	0.1307
329.3773	0.1241
329.5878	0.1286
329.7982	0.1299
330.0086	0.1253
330.219	0.124
330.4294	0.1281
330.6398	0.1317
330.8502	0.1287
331.0605	0.1255
331.2708	0.1211
331.4812	0.1321
331.6915	0.1262
331.9018	0.1291
332.1121	0.1354
332.3224	0.1247
332.5326	0.1239
332.7429	0.1245
332.9531	0.1332
333.1633	0.1291
333.3735	0.1242
333.5837	0.1304
333.7939	0.1304
334.0041	0.1293
334.2143	0.1313
334.4244	0.1395
334.6346	0.1344
334.8447	0.1221
335.0548	0.1331
335.2649	0.1324
335.475	0.1381
335.685	0.1337
335.8951	0.1274
336.1051	0.1365
336.3152	0.1365
336.5252	0.1376
336.7352	0.1344
336.9452	0.1301
337.1552	0.1327
337.3652	0.138
337.5751	0.1411
337.7851	0.1333
337.995	0.1363
338.2049	0.1297
338.4148	0.136
338.6247	0.1396
338.8346	0.1375
339.0445	0.1343
339.2543	0.1381
339.4642	0.1325
339.674	0.1323
339.8838	0.1369
340.0936	0.1388
340.3034	0.1398
340.5132	0.1287
340.7229	0.1407
340.9327	0.1495
341.1424	0.1401
341.3522	0.14
341.5619	0.1373
341.7716	0.1409
341.9813	0.148
342.1909	0.1408
342.4006	0.1483
342.6102	0.1461
342.8199	0.1438
343.0295	0.1425
343.2391	0.1408
343.4487	0.1482
343.6583	0.154
343.8679	0.1403
344.0774	0.1432
344.287	0.1492
344.4965	0.148
344.706	0.1496
344.9155	0.1451
345.125	0.1498
345.3345	0.1584
345.544	0.1448
345.7534	0.1513
345.9629	0.1515
346.1723	0.1573
346.3817	0.1589
346.5911	0.1593
346.8005	0.1611
347.0099	0.1588
347.2193	0.1585
347.4286	0.1664
347.638	0.1582
347.8473	0.1608
348.0566	0.1595
348.2659	0.1571
348.4752	0.1639
348.6845	0.1648
348.8937	0.1652
349.103	0.1707
349.3122	0.164
349.5214	0.1603
349.7306	0.1709
349.9398	0.1656
350.149	0.1601
350.3582	0.1637
350.5674	0.1722
350.7765	0.1698
350.9856	0.1729
351.1948	0.1719
351.4039	0.1698
351.613	0.1743
351.822	0.175
352.0311	0.1742
352.2402	0.1771
352.4492	0.1736
352.6582	0.176
352.8672	0.1797
353.0762	0.1799
353.2852	0.1747
353.4942	0.1799
353.7032	0.1776
353.9121	0.18
354.1211	0.1804
354.33	0.1829
354.5389	0.1793
354.7478	0.1777
354.9567	0.181
355.1655	0.1854
355.3744	0.1855
355.5833	0.1781
355.7921	0.1872
356.0009	0.1881
356.2097	0.1806
356.4185	0.1811
356.6273	0.1873
356.8361	0.1883
357.0448	0.189
357.2536	0.1904
357.4623	0.1884
357.671	0.197
357.8797	0.1934
358.0884	0.186
358.2971	0.1921
358.5057	0.1955
358.7144	0.1984
358.923	0.1952
359.1316	0.1994
359.3402	0.1939
359.5488	0.1985
359.7574	0.1971
359.966	0.2015
360.1746	0.2024
360.3831	0.2102
360.5916	0.2004
360.8002	0.2076
361.0087	0.1995
361.2172	0.2034
361.4256	0.2055
361.6341	0.2088
361.8426	0.2163
362.051	0.2112
362.2594	0.2059
362.4678	0.2151
362.6762	0.2229
362.8846	0.2182
363.093	0.2158
363.3014	0.221
363.5097	0.2151
363.718	0.2241
363.9264	0.222
364.1347	0.2198
364.343	0.2191
364.5513	0.2259
364.7595	0.2297
364.9678	0.2188
365.176	0.2318
365.3842	0.2308
365.5925	0.224
365.8007	0.2378
366.0089	0.2304
366.217	0.2367
366.4252	0.2316
366.6333	0.234
366.8415	0.2402
367.0496	0.2368
367.2577	0.2381
367.4658	0.2329
367.6739	0.2357
367.882	0.2399
368.09	0.2365
368.2981	0.2442
368.5061	0.2503
368.7141	0.2403
368.9221	0.2531
369.1301	0.2415
369.3381	0.2553
369.5461	0.2582
369.754	0.2523
369.962	0.2446
370.1699	0.2531
370.3778	0.2624
370.5857	0.2576
370.7936	0.2577
371.0015	0.2621
371.2093	0.2486
371.4172	0.2546
371.625	0.2568
371.8328	0.2563
372.0406	0.2663
372.2484	0.2521
372.4562	0.2624
372.664	0.2525
372.8717	0.2651
373.0795	0.267
373.2872	0.2699
373.4949	0.2637
373.7026	0.2736
373.9103	0.2601
374.118	0.267
374.3256	0.272
374.5333	0.2748
374.7409	0.272
374.9485	0.2704
375.1561	0.2784
375.3637	0.2686
375.5713	0.2683
375.7789	0.2755
375.9864	0.2787
376.194	0.2784
376.4015	0.2864
376.609	0.2748
376.8165	0.275
377.024	0.2805
377.2315	0.285
377.4389	0.2778
377.6464	0.2899
377.8538	0.2751
378.0612	0.2849
378.2686	0.2826
378.476	0.2905
378.6834	0.2846
378.8908	0.2891
379.0981	0.2889
379.3055	0.2902
379.5128	0.2775
379.7201	0.2939
379.9274	0.2811
380.1347	0.2847
380.342	0.2906
380.5492	0.2874
380.7565	0.2943
380.9637	0.2916
381.1709	0.2916
381.3781	0.298
381.5853	0.2985
381.7925	0.2921
381.9997	0.3123
382.2068	0.3065
382.4139	0.2982
382.6211	0.2971
382.8282	0.3119
383.0353	0.3037
383.2424	0.2994
383.4494	0.3105
383.6565	0.3148
383.8635	0.3029
384.0706	0.3086
384.2776	0.309
384.4846	0.3069
384.6916	0.2995
384.8986	0.3011
385.1055	0.3202
385.3125	0.3109
385.5194	0.3169
385.7263	0.305
385.9333	0.3069
386.1402	0.312
386.347	0.3081
386.5539	0.3098
386.7608	0.3119
386.9676	0.3147
387.1744	0.3053
387.3813	0.3096
387.5881	0.2923
387.7948	0.3157
388.0016	0.3171
388.2084	0.3228
388.4151	0.3137
388.6219	0.2958
388.8286	0.2975
389.0353	0.3129
389.242	0.3121
389.4487	0.2955
389.6553	0.2906
389.862	0.2995
390.0686	0.3034
390.2753	0.3033
390.4819	0.3025
390.6885	0.3006
390.8951	0.2936
391.1016	0.2881
391.3082	0.3045
391.5147	0.2946
391.7213	0.2889
391.9278	0.2999
392.1343	0.2983
392.3408	0.2902
392.5473	0.2834
392.7537	0.2966
392.9602	0.2864
393.1666	0.288
393.373	0.2835
393.5794	0.2853
393.7858	0.283
393.9922	0.2781
394.1986	0.2812
394.4049	0.2806
394.6113	0.2872
394.8176	0.2809
395.0239	0.2682
395.2302	0.2745
395.4365	0.2664
395.6428	0.2687
395.8491	0.2731
396.0553	0.2671
396.2615	0.2599
396.4678	0.2756
396.674	0.2692
396.8802	0.2627
397.0863	0.2672
397.2925	0.2674
397.4987	0.2659
397.7048	0.2685
397.9109	0.2574
398.117	0.2557
398.3231	0.2615
398.5292	0.2572
398.7353	0.2574
398.9413	0.2682
399.1474	0.2684
399.3534	0.2608
399.5594	0.2644
399.7654	0.2546
399.9714	0.261
400.1774	0.2571
400.3833	0.2638
400.5893	0.2635
400.7952	0.266
401.0011	0.2562
401.207	0.2606
401.4129	0.2499
401.6188	0.2606
401.8247	0.2646
402.0305	0.2476
402.2364	0.2616
402.4422	0.2659
402.648	0.2491
402.8538	0.2725
403.0596	0.2559
403.2654	0.2645
403.4711	0.2673
403.6768	0.2621
403.8826	0.2645
404.0883	0.2658
404.294	0.2654
404.4997	0.2583
404.7054	0.264
404.911	0.2595
405.1167	0.2612
405.3223	0.2591
405.5279	0.2531
405.7335	0.2607
405.9391	0.2567
406.1447	0.2676
406.3502	0.2681
406.5558	0.2646
406.7613	0.2635
406.9668	0.2646
407.1724	0.2625
407.3778	0.2632
407.5833	0.2562
407.7888	0.2557
407.9942	0.2668
408.1997	0.2639
408.4051	0.2611
408.6105	0.2669
408.8159	0.2523
409.0213	0.2641
409.2267	0.2675
409.432	0.2552
409.6374	0.2602
409.8427	0.269
410.048	0.2655
410.2533	0.2635
410.4586	0.2546
410.6639	0.2686
410.8691	0.2563
411.0744	0.2501
411.2796	0.2637
411.4848	0.2625
411.69	0.2525
411.8952	0.2758
412.1004	0.2636
412.3056	0.255
412.5107	0.2596
412.7158	0.2656
412.921	0.2573
413.1261	0.2626
413.3312	0.2577
413.5362	0.2628
413.7413	0.2626
413.9464	0.2433
414.1514	0.2514
414.3564	0.2565
414.5614	0.2602
414.7664	0.2509
414.9714	0.2453
415.1764	0.2545
415.3813	0.258
415.5863	0.2558
415.7912	0.2454
415.9961	0.2511
416.201	0.258
416.4059	0.2499
416.6108	0.246
416.8156	0.2518
417.0205	0.2515
417.2253	0.2573
417.4301	0.2558
417.6349	0.2538
417.8397	0.259
418.0445	0.2554
418.2492	0.2514
418.454	0.2525
418.6587	0.2516
418.8634	0.25
419.0681	0.25
419.2728	0.2517
419.4775	0.2623
419.6822	0.2418
419.8868	0.2398
420.0915	0.2417
420.2961	0.2325
420.5007	0.2468
420.7053	0.2382
420.9099	0.25
421.1144	0.2365
421.319	0.2394
421.5235	0.2351
421.728	0.2426
421.9325	0.2419
422.137	0.2471
422.3415	0.237
422.546	0.226
422.7504	0.2314
422.9549	0.2335
423.1593	0.2279
423.3637	0.2263
423.5681	0.2401
423.7725	0.2339
423.9769	0.2373
424.1812	0.2194
424.3856	0.2256
424.5899	0.2227
424.7942	0.2257
424.9985	0.218
425.2028	0.2298
425.4071	0.2323
425.6113	0.2229
425.8156	0.2108
426.0198	0.2277
426.224	0.2267
426.4282	0.2096
426.6324	0.2133
426.8366	0.2155
427.0407	0.2153
427.2449	0.212
427.449	0.2153
427.6531	0.2136
427.8572	0.2162
428.0613	0.2136
428.2654	0.2062
428.4694	0.1988
428.6735	0.2039
428.8775	0.2028
429.0815	0.1968
429.2855	0.1965
429.4895	0.2011
429.6935	0.1977
429.8975	0.1851
430.1014	0.1963
430.3053	0.1964
430.5093	0.1825
430.7132	0.1879
430.9171	0.1983
431.1209	0.1892
431.3248	0.1688
431.5286	0.1817
431.7325	0.1876
431.9363	0.1678
432.1401	0.1834
432.3439	0.1822
432.5477	0.1667
432.7514	0.1721
432.9552	0.1647
433.1589	0.1623
433.3627	0.1689
433.5664	0.1568
433.7701	0.1642
433.9737	0.1639
434.1774	0.1629
434.3811	0.1641
434.5847	0.1641
434.7883	0.1554
434.9919	0.1528
435.1955	0.1605
435.3991	0.1514
435.6027	0.1502
435.8062	0.1576
436.0098	0.1315
436.2133	0.1441
436.4168	0.1463
436.6203	0.13
436.8238	0.1442
437.0272	0.1388
437.2307	0.132
437.4341	0.1361
437.6375	0.1428
437.841	0.1259
438.0443	0.1343
438.2477	0.1201
438.4511	0.1212
438.6545	0.1298
438.8578	0.124
439.0611	0.1312
439.2644	0.1265
439.4677	0.1149
439.671	0.1123
439.8743	0.1199
440.0775	0.1166
440.2808	0.1138
440.484	0.1024
440.6872	0.1117
440.8904	0.1044
441.0936	0.1043
441.2967	0.0964
441.4999	0.096
441.703	0.1031
441.9062	0.0993
442.1093	0.1049
442.3124	0.102
442.5155	0.0925
442.7185	0.0898
442.9216	0.09
443.1246	0.0818
443.3276	0.0842
443.5307	0.0841
443.7337	0.0865
443.9366	0.0754
444.1396	0.0812
444.3426	0.083
444.5455	0.0782
444.7484	0.0757
444.9513	0.0786
445.1542	0.081
445.3571	0.0696
445.56	0.0734
445.7628	0.0629
445.9657	0.0692
446.1685	0.0692
446.3713	0.0678
446.5741	0.0702
446.7769	0.0708
446.9797	0.066
447.1824	0.0641
447.3852	0.054
447.5879	0.057
447.7906	0.0483
447.9933	0.0569
448.196	0.0534
448.3986	0.0574
448.6013	0.048
448.8039	0.0535
449.0066	0.0567
449.2092	0.0558
449.4118	0.0437
449.6143	0.0531
449.8169	0.0504
450.0195	0.0487
450.222	0.0493
450.4245	0.0551
450.627	0.0472
450.8295	0.0399
451.032	0.0455
451.2345	0.0372
451.4369	0.0427
451.6394	0.0472
451.8418	0.0402
452.0442	0.0394
452.2466	0.0338
452.449	0.0363
452.6513	0.0333
452.8537	0.0292
453.056	0.0459
453.2583	0.0307
453.4607	0.0298
453.663	0.0427
453.8652	0.0257
454.0675	0.0334
454.2697	0.0253
454.472	0.0377
454.6742	0.0278
454.8764	0.0372
455.0786	0.0291
455.2808	0.0203
455.4829	0.0362
455.6851	0.0294
455.8872	0.0139
456.0893	0.034
456.2915	0.023
456.4935	0.0394
456.6956	0.031
456.8977	0.027
457.0997	0.0212
457.3018	0.0136
457.5038	0.0236
457.7058	0.0207
457.9078	0.0205
458.1098	0.0287
458.3117	0.0273
458.5137	0.0149
458.7156	0.0176
458.9175	0.0257
459.1194	0.0208
459.3213	0.019
459.5232	0.026
459.725	0.0139
459.9269	0.0148
460.1287	0.005
460.3305	0.0244
460.5323	0.0291
460.7341	0.0132
460.9359	0.0066
461.1376	0.0138
461.3394	0.0149
461.5411	0.0141
461.7428	0.0149
461.9445	0.0211
462.1462	0.0085
462.3479	0.0074
462.5495	0.0202
462.7512	0.019
462.9528	0.0147
463.1544	0.0076
463.356	0.0089
463.5576	0.0205
463.7592	0.0083
463.9607	0.009
464.1623	0.0107
464.3638	0.0058
464.5653	0.0085
464.7668	0.0187
464.9683	0.0188
465.1697	0.0042
465.3712	0.0027
465.5726	0.0086
465.7741	0.0141
465.9755	0.0084
466.1769	0.0088
466.3782	0.0047
466.5796	0.022
466.7809	0.0126
466.9823	0.0087
467.1836	0.0023
467.3849	0.0133
467.5862	-0.0079
467.7875	0.0061
467.9887	0.01
468.19	0.0028
468.3912	0.008
468.5924	0.0013
468.7936	0.0038
468.9948	0.0124
469.196	0.0073
469.3972	0.003
469.5983	-0.0035
469.7994	0.0131
470.0006	0.0053
470.2017	0.0065
470.4027	0.0231
470.6038	0.0068
470.8049	0.0071
471.0059	0.0093
471.2069	0.0131
471.408	0.0053
471.6089	0.0141
471.8099	0.0042
472.0109	0.0101
472.2119	0.0219
472.4128	0.0011
472.6137	0.0083
472.8146	-0.0026
473.0155	0.0107
473.2164	0.0046
473.4173	0.0028
473.6181	-0.0018
473.819	0.0039
474.0198	-0.0031
474.2206	0.0042
474.4214	0.0088
474.6222	-0.0097
474.8229	0.0029
475.0237	0.012
475.2244	0.0064
475.4251	0.0046
475.6258	-0.0025
475.8265	0.0061
476.0272	-0.0038
476.2278	0.0169
476.4285	0.0041
476.6291	-0.0015
476.8297	0.0012
477.0303	0.0032
477.2309	0.0031
477.4315	0.0135
477.632	0.0011
477.8326	0.0041
478.0331	0.0088
478.2336	0.0032
478.4341	-0.0008
478.6346	0.004
478.8351	-0.0012
479.0355	0.012
479.236	0.0034
479.4364	0.0066
479.6368	0.0024
479.8372	0.0099
480.0376	0.0003
480.2379	0.0056
480.4383	0.0096
480.6386	0.0013
480.8389	-0.0021
481.0392	0.0025
481.2395	0.0106
481.4398	0.0034
481.6401	0.0054
481.8403	-0.0045
482.0405	0.0061
482.2408	0.002
482.441	0.0049
482.6411	0.0066
482.8413	0.0024
483.0415	0.0031
483.2416	0.007
483.4417	0.0076
483.6419	-0.0019
483.8419	0.0023
484.042	0.0014
484.2421	-0.0045
484.4422	-0.0001
484.6422	0.0024
484.8422	0.0055
485.0422	0.0018
485.2422	0.003
485.4422	0.0028
485.6422	0.0016
485.8421	0.0006
486.042	0.0081
486.242	-0.0044
486.4419	0.0029
486.6417	-0.0028
486.8416	0.0006
487.0415	-0.0056
487.2413	-0.0037
487.4411	0.0035
487.641	-0.0018
487.8408	0.0071
488.0405	0.0071
488.2403	-0.0053
488.4401	0.0033
488.6398	0.005
488.8395	0.0047
489.0392	0.0046
489.2389	0.0046
489.4386	-0.0065
489.6383	0.0075
489.8379	0.0024
490.0376	-0.0003
490.2372	-0.0012
490.4368	0.0003
490.6364	-0.005
490.836	-0.002
491.0355	-0.0007
491.2351	0.001
491.4346	0.0043
491.6341	0.0003
491.8336	0.007
492.0331	0.0018
492.2326	0.0058
492.432	0.0025
492.6315	0.0075
492.8309	0.0097
493.0303	0.0027
493.2297	0.0108
493.4291	-0.0004
493.6284	0.0093
493.8278	-0.0033
494.0271	0.0135
494.2264	0.0048
494.4257	0.0158
494.625	0.0017
494.8243	0.0039
495.0236	0.0022
495.2228	0.0072
495.422	0.0099
495.6213	0.01
495.8205	0.0033
496.0196	0.0024
496.2188	0.0017
496.418	-0.0003
496.6171	-0.0042
496.8162	0.0068
497.0153	0.0027
497.2144	0.0076
497.4135	0.0017
497.6126	-0.0049
497.8116	-0.0025
498.0107	0.0022
498.2097	-0.0007
498.4087	0.0034
498.6077	-0.0078
498.8067	-0
499.0056	-0.0054
499.2046	0.0083
499.4035	-0.0001
499.6024	-0.0054
499.8013	0.0098
500.0002	0.0029
500.199	0.0089
500.3979	-0.0065
500.5967	0.0081
500.7956	0.0092
500.9944	0.0061
501.1932	0.0102
501.3919	0.0068
501.5907	0.0093
501.7895	0.0038
501.9882	0.0044
502.1869	0.0144
502.3856	-0.0002
502.5843	-0.0055
502.783	-0.0011
502.9816	0.0114
503.1803	-0.0012
503.3789	0.0027
503.5775	-0.0042
503.7761	0.0005
503.9747	0.0078
504.1732	-0.0018
504.3718	0.0134
504.5703	-0.001
504.7689	-0.0069
504.9674	0.0003
505.1658	0.0014
505.3643	0.0013
505.5628	0.0116
505.7612	0.0053
505.9597	-0.0059
506.1581	0.0024
506.3565	0.0023
506.5549	0.0029
506.7532	-0.0053
506.9516	0.008
507.1499	-0.0025
507.3482	0.0088
507.5465	0.0038
507.7448	0.0055
507.9431	0.0103
508.1414	-0.0076
508.3396	-0.0005
508.5379	-0.003
508.7361	-0.0012
508.9343	0.0054
509.1325	0.0103
509.3306	0.0102
509.5288	-0.0085
509.7269	0.0116
509.9251	0.0046
510.1232	0.0008
510.3213	0.0073
510.5193	0.0015
510.7174	-0.0002
510.9154	0.0044
511.1135	-0.0027
511.3115	-0.0076
511.5095	-0.0045
511.7075	0.0019
511.9055	0.0043
512.1034	0.0034
512.3014	0.0008
512.4993	0.005
512.6972	-0.0037
512.8951	-0.0031
513.093	-0.0002
513.2908	0.0152
513.4887	0.0068
513.6865	-0.0023
513.8844	0.0067
514.0822	0.0003
514.2799	-0.0086
514.4777	-0.0001
514.6755	-0.0054
514.8732	-0.0043
515.0709	-0.0013
515.2687	-0.0034
515.4664	-0.0052
515.664	0.0053
515.8617	0.005
516.0594	-0.0028
516.257	0.002
516.4546	0.0165
516.6522	0.0047
516.8498	0.004
517.0474	0.0024
517.2449	0.0004
517.4425	-0.0055
517.64	0.0086
517.8375	0.0094
518.035	0.002
518.2325	0.0019
518.43	0.0002
518.6274	-0.0098
518.8249	-0.0075
519.0223	-0.0003
519.2197	-0.0013
519.4171	-0.0079
519.6145	0.0099
519.8118	-0.013
520.0092	-0.0038
520.2065	0.0119
520.4038	-0.0015
520.6011	0.0065
520.7984	0.0056
520.9956	0.0057
521.1929	0.0047
521.3901	0.0003
521.5874	0.0091
521.7846	-0.0103
521.9818	-0
522.1789	0.0009
522.3761	0.0101
522.5732	-0.0012
522.7704	0.0062
522.9675	-0.0132
523.1646	0.0046
523.3617	0.0111
523.5587	-0.0011
523.7558	-0.0001
523.9528	0.0026
524.1498	-0.0054
524.3468	-0.0014
524.5438	0.0038
524.7408	-0.0024
524.9378	0.0077
525.1347	0.0108
525.3316	-0.0009
525.5285	0.0001
525.7254	-0.0003
525.9223	0.0033
526.1192	0.0032
526.316	0.0051
526.5129	0.009
526.7097	-0.0055
526.9065	0.0032
527.1033	-0.0024
527.3	-0.0086
527.4968	0.0014
527.6935	0.0046
527.8903	-0.0001
528.087	0.0007
528.2837	0.0072
528.4804	-0.0013
528.677	-0
528.8737	0.0039
529.0703	0.0088
529.2669	0.0121
529.4635	0.0004
529.6601	-0.0128
529.8567	-0.0025
530.0532	-0.0004
530.2498	0.0049
530.4463	-0.0087
530.6428	0.004
530.8393	0.0144
531.0358	0.0062
531.2322	0.0003
531.4287	-0.0076
531.6251	-0.0117
531.8215	0.0001
532.0179	0.0048
532.2143	0.0015
532.4107	0.0025
532.607	-0.0008
532.8034	-0.0044
532.9997	-0.0035
533.196	-0.0079
533.3923	0.0034
533.5886	0.0097
533.7848	0.0008
533.9811	0.0027
534.1773	0.002
534.3735	-0.0002
534.5697	-0.0053
534.7659	0.0006
534.9621	-0.0022
535.1582	0.0047
535.3544	0.0069
535.5505	0.0048
535.7466	0.0077
535.9427	-0.003
536.1387	0.0007
536.3348	0.0027
536.5308	0.0044
536.7269	-0.0021
536.9229	-0.0026
537.1189	0.0101
537.3148	0.0028
537.5108	0.0044
537.7068	0.0043
537.9027	0.0021
538.0986	0.0071
538.2945	-0.0039
538.4904	-0.0049
538.6863	0.0061
538.8821	0.0051
539.078	0.006
539.2738	0.0036
539.4696	-0.0127
539.6654	-0.0041
539.8611	-0.0016
540.0569	0.0084
540.2526	0.0069
540.4484	-0.0046
540.6441	-0.0005
540.8398	0.017
541.0355	-0.007
541.2311	0.006
541.4268	0.0062
541.6224	0.0055
541.818	0.0015
542.0136	0.0095
542.2092	0.0115
542.4048	0.0055
542.6003	-0.0032
542.7959	0.0096
542.9914	0.0048
543.1869	-0.0057
543.3824	0.0064
543.5779	0.0115
543.7734	0.0235
543.9688	0.008
544.1642	-0.0024
544.3596	-0.0007
544.555	0.0014
544.7504	0.0152
544.9458	-0.001
545.1411	-0.0027
545.3365	0.0056
545.5318	0.0054
545.7271	0.0043
545.9224	-0.0011
546.1177	0.0194
546.3129	-0.0034
546.5081	0.0063
546.7034	0.0013
546.8986	-0.0011
547.0938	0.0018
547.289	0.0059
547.4841	0.0021
547.6793	-0.004
547.8744	0.0004
548.0695	-0.0016
548.2646	0.0032
548.4597	-0.002
548.6548	0.0127
548.8498	0.0021
549.0448	-0.002
549.2399	0.0067
549.4349	-0.0071
549.6298	0.0071
549.8248	-0.0028
550.0198	0.0069
550.2147	0.0048
550.4096	-0.0082
550.6045	-0.0005
550.7994	0.004
550.9943	0.0122
551.1892	-0.002
551.384	0.0108
551.5788	0.0092
551.7737	0.0034
551.9685	0.0077
552.1632	-0.0021
552.358	0.0031
552.5528	0.0062
552.7475	0.0001
552.9422	0.007
553.1369	0.0098
553.3316	0.0082
553.5263	0.0095
553.7209	0.0026
553.9156	-0.0006
554.1102	-0.0018
554.3048	0.0005
554.4994	0.0066
554.694	0.0053
554.8885	0.0064
555.0831	0.0135
555.2776	0.0029
555.4721	0.0114
555.6666	-0.0013
555.8611	0.0031
556.0555	0.0131
556.25	0.015
556.4444	-0.0001
556.6388	-0.0039
556.8332	0.0053
557.0276	0.0019
557.222	-0.0011
557.4163	0.0023
557.6107	-0.0038
557.805	-0.005
557.9993	0.0014
558.1936	-0.0084
558.3879	0.0063
558.5821	0.0009
558.7764	-0.0053
558.9706	0.0012
559.1648	0.0068
559.359	-0.0071
559.5532	-0.0055
559.7473	-0.005
559.9415	0.0011
560.1356	0.0096
560.3297	-0.0015
560.5238	0.0026
560.7179	-0.0046
560.9119	0.0038
561.106	-0.0048
561.3	-0.0026
561.494	-0.0131
561.688	0.0065
561.882	0.0075
562.076	0.0087
562.2699	0.0143
562.4639	0.012
562.6578	0.0079
562.8517	-0.005
563.0456	0.0063
563.2395	0.0106
563.4333	0.0068
563.6272	-0.0019
563.821	-0.0022
564.0148	-0.0054
564.2086	-0.0049
564.4024	0.0006
564.5961	0.0035
564.7899	0.008
564.9836	-0.0023
565.1773	0.0004
565.371	0.0006
565.5647	0.0046
565.7584	0.0119
565.952	-0.0006
566.1456	0.0112
566.3393	0.0016
566.5329	-0.0011
566.7264	0.0063
566.92	0.0082
567.1136	-0.0041
567.3071	-0.0018
567.5006	0.0122
567.6941	0.0022
567.8876	-0.0016
568.0811	0.018
568.2745	-0.0049
568.468	0.0013
568.6614	0.0121
568.8548	0.0048
569.0482	0.0094
569.2416	0.0038
569.4349	0.0017
569.6283	0.0014
569.8216	0.0041
570.0149	-0.0027
570.2082	0.0051
570.4015	0.0059
570.5947	-0.0019
570.788	0.0052
570.9812	0.0008
571.1744	0.0025
571.3676	0.0021
571.5608	0.0004
571.754	0.0088
571.9471	0.0046
572.1402	0.0025
572.3333	0.0077
572.5264	0.0047
572.7195	0.0042
572.9126	0.0036
573.1057	0
573.2987	0.0041
573.4917	0.0048
573.6847	0.002
573.8777	0.004
574.0707	0.0007
574.2636	0.004
574.4566	-0.0037
574.6495	0.0003
574.8424	0.0047
575.0353	0.004
575.2281	0.0061
575.421	-0.0017
575.6138	0.0029
575.8067	0.0048
575.9995	0.002
576.1923	0.006
576.385	0.0034
576.5778	0.0046
576.7706	0.0049
576.9633	0.0053
577.156	-0.0057
577.3487	0.0012
577.5414	-0.0004
577.734	0.0004
577.9267	0.0044
578.1193	0.0058
578.3119	-0.0008
578.5045	0.0026
578.6971	0.0002
578.8897	0.0009
579.0822	0.0096
579.2747	-0
579.4673	0.0022
579.6598	0.0042
579.8522	-0.0031
580.0447	0.0069
580.2372	0.0058
580.4296	0.0119
580.622	-0.0003
580.8144	0.0031
581.0068	0.0008
581.1992	0.0012
581.3915	0.0001
581.5839	0.0025
581.7762	0.0037
581.9685	0.003
582.1608	0.0041
582.353	0.0016
582.5453	0.0021
582.7375	0.0048
582.9298	-0.0045
583.122	-0.0055
583.3142	0.0028
583.5063	0.0004
583.6985	-0.0001
583.8906	0.0046
584.0827	0.0038
584.2749	0.0008
584.4669	0.0016
584.659	0.0041
584.8511	0.0066
585.0431	0.0057
585.2352	0.0056
585.4272	0.0026
585.6192	0.0031
585.8111	-0.0031
586.0031	-0.0015
586.195	0.0018
586.387	0.0019
586.5789	0.0038
586.7708	0.0005
586.9627	0.0053
587.1545	0.0033
587.3464	0.0023
587.5382	-0.0012
587.73	0.0054
587.9218	0.0002
588.1136	-0.0016
588.3053	0.0042
588.4971	0.0093
588.6888	0.0016
588.8805	-0.0015
589.0722	0.006
589.2639	0.0026
589.4556	0.0055
589.6472	0.0077
589.8389	0.0081
590.0305	-0.0015
590.2221	0.0052
590.4137	-0.0001
590.6052	0.0034
590.7968	0.0022
590.9883	0.0048
591.1798	-0.0011
591.3713	0.0012
591.5628	0.0065
591.7543	0.0051
591.9458	-0.0037
592.1372	0.002
592.3286	0.0015
592.52	0.0072
592.7114	0.0024
592.9028	0.0043
593.0941	0.003
593.2855	0.0013
593.4768	0.0063
593.6681	0.0011
593.8594	0.0128
594.0506	-0.0008
594.2419	0.0042
594.4331	0.0058
594.6244	0.0027
594.8156	0.0013
595.0067	-0.0022
595.1979	-0.001
595.3891	0.0029
595.5802	0.0075
595.7713	-0.0031
595.9624	0.01
596.1535	0.0023
596.3446	-0.0036
596.5357	0.0065
596.7267	0.0001
596.9177	0.0013
597.1087	-0.0029
597.2997	0.0076
597.4907	-0.0007
597.6817	0.003
597.8726	0.0029
598.0635	0.0016
598.2544	0.0063
598.4453	-0.0007
598.6362	0.0067
598.827	-0.0005
599.0179	-0.0006
599.2087	0.0035
599.3995	0.0058
599.5903	0.0107
599.7811	0.0079
599.9718	-0.0043
600.1626	0.0003
600.3533	0.0042
600.544	0.0037
600.7347	0.0007
600.9254	0.005
601.116	0.0035
601.3067	-0.0016
601.4973	0.0036
601.6879	0.0041
601.8785	0.0084
602.0691	0.0037
602.2596	0.0021
602.4502	0.0068
602.6407	0.0032
602.8312	0.0062
603.0217	0.0068
603.2122	0.0012
603.4027	-0.0004
603.5931	0.0027
603.7835	0.0027
603.9739	-0.0005
604.1643	0.0044
604.3547	0.0079
604.5451	0.0078
604.7354	0.0003
604.9257	0.0042
605.116	0.0052
605.3063	0.0016
605.4966	-0.0008
605.6869	0.0065
605.8771	-0.001
606.0673	-0.0031
606.2575	0.0007
606.4477	0.0115
606.6379	-0.0012
606.8281	0.0021
607.0182	0.0023
607.2083	-0.0014
607.3985	-0.0021
607.5885	0.0036
607.7786	0.0003
607.9687	0.0097
608.1587	0.005
608.3488	-0.0013
608.5388	-0.0009
608.7288	-0.001
608.9187	-0.0013
609.1087	0.0034
609.2986	0.0057
609.4886	0.0014
609.6785	-0.0017
609.8684	-0.0085
610.0582	-0.0019
610.2481	0.0011
610.4379	0.0059
610.6278	0.005
610.8176	-0.0012
611.0074	0.0025
611.1971	0.003
611.3869	0.0027
611.5766	-0.0016
611.7664	0.0046
611.9561	0.0018
612.1458	0.0043
612.3354	0.0048
612.5251	0.0038
612.7147	0.0092
612.9044	-0.0001
613.094	0.0026
613.2836	0.0038
613.4731	0.002
613.6627	0.0071
613.8522	0.0015
614.0417	0.0028
614.2313	-0.0019
614.4207	0.0025
614.6102	0.0065
614.7997	0.0085
614.9891	-0.0007
615.1785	-0.0069
615.3679	0.0061
615.5573	-0.0035
615.7467	0.0044
615.9361	-0.003
616.1254	0.0062
616.3147	-0.0015
616.504	-0.0069
616.6933	-0.0024
616.8826	-0.0019
617.0718	0.0026
617.2611	-0.0005
617.4503	-0.0086
617.6395	0.0007
617.8287	0.008
618.0179	0.0002
618.207	0.011
618.3961	-0.0043
618.5853	0.007
618.7744	-0.0009
618.9634	0.0105
619.1525	0.0037
619.3416	0.0009
619.5306	0.0076
619.7196	0.0106
619.9086	-0.0004
620.0976	-0.0054
620.2866	0.0089
620.4755	0.0031
620.6645	0.0162
620.8534	-0.0014
621.0423	-0.0059
621.2312	-0.0061
621.42	0.0008
621.6089	0.0031
621.7977	0.0076
621.9865	-0.0034
622.1753	-0.0066
622.3641	0.001
622.5529	0.0018
622.7416	0.0022
622.9303	-0.004
623.1191	0.0018
623.3078	0.0061
623.4964	0.0012
623.6851	0.0066
623.8737	0.0027
624.0624	-0.0085
624.251	0.0022
624.4396	0.0006
624.6282	0.0053
624.8167	0.0078
625.0053	0.009
625.1938	0.001
625.3823	-0.0023
625.5708	-0.0013
625.7593	-0.0024
625.9477	0.0137
626.1362	-0.0015
626.3246	-0.0026
626.513	0.0069
626.7014	0.0074
626.8898	0.0081
627.0781	-0.0035
627.2665	0.0042
627.4548	-0.0127
627.6431	0.0003
627.8314	0.0151
628.0197	-0.0076
628.2079	-0.0083
628.3962	0.0094
628.5844	0.0055
628.7726	-0.0019
628.9608	0.0081
629.1489	-0.0072
629.3371	-0.006
629.5252	-0.0003
629.7134	-0.0187
629.9015	0.0019
630.0895	-0.0077
630.2776	0.0081
630.4657	0.0014
630.6537	0.0146
630.8417	-0.0133
631.0297	-0.0154
631.2177	0.0033
631.4057	0.0028
631.5936	0.0106
631.7815	0.0053
631.9695	0.0045
632.1574	-0.003
632.3452	-0.0037
632.5331	0.0066
632.7209	0.0176
632.9088	0.0009
633.0966	0.0145
633.2844	-0.0005
633.4722	-0.0069
633.6599	0.0082
633.8477	0.0102
634.0354	0.0087
634.2231	-0.0171
634.4108	-0.0083
634.5985	0.0059
634.7861	-0.0088
634.9738	-0.0094
635.1614	0.0039
635.349	-0.0017
635.5366	0.0067
635.7242	-0.0017
635.9117	0.0061
636.0993	-0.0074
636.2868	-0.0094
636.4743	-0.0079
636.6618	-0.0106
636.8492	-0.0016
637.0367	0.0029
637.2241	0.0018
637.4115	0.0217
637.5989	-0.0022
637.7863	0.021
637.9737	-0.0106
638.161	0.0012
638.3484	-0.0046
638.5357	0.0042
638.723	0.0103
638.9103	-0.0024
639.0975	-0.0026
639.2848	0.0088
639.472	0.0046
639.6592	-0.015
639.8464	-0.0031
640.0336	-0.001
640.2208	-0.003
640.4079	-0.0046
640.595	-0.008
640.7821	-0.0007
640.9692	0.0083
641.1563	0.0038
641.3434	0.021
641.5304	0.02
641.7174	0.013
641.9044	-0.0114
642.0914	0.0127
642.2784	0.0011
642.4653	-0.0089
642.6523	-0.0001
642.8392	-0.0154
643.0261	0.0121
643.213	-0.0012
643.3999	0.0243
643.5867	-0.001
643.7735	-0.0049
643.9604	0.0072
644.1472	0.0138
644.3339	0.0048
644.5207	0.0022
644.7075	-0.0003
644.8942	-0.0027
645.0809	0.0167
645.2676	-0.0147
645.4543	0.007
645.6409	0.0082
645.8276	-0.0037
646.0142	0.0061
646.2008	-0.0001
646.3874	-0.0081
646.574	-0.0083
646.7605	0.003
646.9471	0.0139
647.1336	-0.029
647.3201	-0.0021
647.5066	-0.0062
647.6931	-0.0049
647.8795	0.0221
648.0659	-0.0147
648.2524	0.007
648.4388	0.0061
648.6252	-0.0012
648.8115	-0.0093
648.9979	0.0001
649.1842	0.0022
649.3705	0.0158
649.5568	-0.0134
649.7431	-0.0159
649.9294	-0.0084
650.1156	-0.0212
650.3018	-0.0113
650.488	0.022
650.6742	0.01
650.8604	-0.0123
651.0466	-0.0021
651.2327	0.0058
651.4188	-0.0014
651.6049	0.015
651.791	-0.0106
651.9771	0.0156
652.1632	0.0045
652.3492	-0.0055
652.5352	0.0059
652.7212	-0.017
652.9072	-0.0153
653.0932	0.0106
653.2791	0.0116
653.465	-0.0055
653.651	0.0001
653.8369	-0.0048
654.0227	-0.0054
654.2086	-0.0059
654.3944	-0.0069
654.5803	0.0072
654.7661	-0.0001
654.9519	-0.0008
655.1377	0.0001
655.3234	0.0001
655.5092	0.0001
655.6949	0.0001
655.8806	0.0001
656.0663	0.0001
656.2519	0.0001
656.4376	0.0001
656.6232	0.0001
656.8088	0.0001
656.9945	0.0001
657.18	0.0001
657.3656	0.0001
657.5511	0.0001
657.7367	0.0001
657.9222	0.0001
658.1077	0.0001
658.2932	0.0001
658.4786	0.0001
658.6641	0.0001
658.8495	0.0001
659.0349	0.0001
659.2203	0.0001
659.4057	0.0001
659.591	0.0726
659.7764	0.023
659.9617	-0.0049
660.147	-0.0098
660.3323	0.0011
660.5176	-0.0091
660.7028	-0.0112
660.888	-0.0051
661.0733	0.0126
661.2585	0.0114
661.4436	-0.0023
661.6288	0.0137
661.8139	-0.0171
661.9991	-0.0346
662.1842	0.0015
662.3693	-0.0061
662.5544	0.0033
662.7394	0.011
662.9245	-0.008
663.1095	-0.0254
663.2945	0.0084
663.4795	-0.0154
663.6644	-0.0082
663.8494	0.0056
664.0343	0.0118
664.2193	-0.0138
664.4042	0.0082
664.589	0.0026
664.7739	0.009
664.9587	-0.0111
665.1436	0.0063
665.3284	-0.0004
665.5132	-0.03
665.698	0.0106
665.8827	0.0078
666.0675	-0.0246
666.2522	0.0074
666.4369	0.0005
666.6216	0.0136
666.8063	0.0147
666.9909	0.0005
667.1756	0.0065
667.3602	-0.0127
667.5448	0.0081
667.7294	0.0174
667.9139	-0.0067
668.0985	0.0235
668.283	0.005
668.4675	0.0177
668.652	-0.0021
668.8365	-0.0287
669.0209	-0.0053
669.2054	0.0031
669.3898	0.0296
669.5742	0.0312
669.7586	0.0208
669.943	0.0048
670.1273	0.0014
670.3117	0.0091
670.496	0.0067
670.6803	-0.0051
670.8646	-0.0226
671.0488	0.0201
671.2331	-0.0223
671.4173	0.0043
671.6015	0.001
671.7857	-0.0039
671.9699	0.0181
672.1541	-0.0135
672.3382	0.0066
672.5223	-0.0067
672.7064	-0.0213
672.8905	-0.0068
673.0746	0.0014
673.2587	0.0305
673.4427	-0.0166
673.6267	0.0127
673.8107	0.0069
673.9947	0.0127
674.1787	-0.0001
674.3626	0.0002
674.5465	0.0121
674.7304	0.0087
674.9143	0.0067
675.0982	-0.0096
675.2821	-0.0021
675.4659	-0.0038
675.6497	-0.0054
675.8335	0.0056
676.0173	-0.0113
676.2011	0.0278
676.3849	-0.0114
676.5686	0.0002
676.7523	-0.0021
676.936	-0.0013
677.1197	-0.0226
677.3034	0.0275
677.487	-0.0017
677.6706	0.0089
677.8542	0.006
678.0378	0.0013
678.2214	0.005
678.405	0.0048
678.5885	0.0123
678.772	0.0056
678.9555	-0.0122
679.139	-0.0078
679.3225	0.0182
679.5059	-0.0073
679.6894	-0.0008
679.8728	0.0055
680.0562	0.0008
680.2395	0.0018
680.4229	-0.02
680.6062	0.0034
680.7896	-0.0339
680.9729	0.0205
681.1562	0.0022
681.3394	-0.0019
681.5227	-0.0139
681.7059	-0.0072
681.8891	0.012
682.0723	-0.0203
682.2555	-0.0066
682.4387	0.0206
682.6218	-0.0175
682.805	0.0106
682.9881	0.0056
683.1712	0.0014
683.3542	0.0208
683.5373	-0.0079
683.7203	-0.0038
683.9034	-0.0104
684.0864	-0.0189
684.2694	-0.0066
684.4523	0.0123
684.6353	-0.0085
684.8182	-0.001
685.0011	-0.0017
685.184	-0.0001
685.3669	0.0125
685.5498	-0.0072
685.7326	-0.0152
685.9154	-0.021
686.0982	-0.0007
686.281	-0.0203
686.4638	0.0048
686.6465	-0.0133
686.8293	-0.0061
687.012	0.0063
687.1947	-0.0078
687.3774	0.0095
687.56	-0.0177
687.7427	-0.0059
687.9253	-0.0284
688.1079	-0.0036
688.2905	-0.0129
688.4731	0.0307
688.6556	-0.0079
688.8382	-0.0276
689.0207	0.017
689.2032	0.0106
689.3857	-0.0159
689.5681	-0.0145
689.7506	0.0238
689.933	0.0011
690.1154	0.0004
690.2978	-0.0001
690.4802	0.0013
690.6626	0.007
690.8449	0.0246
691.0272	0.0018
691.2095	-0.0162
691.3918	0.0091
691.5741	-0.009
691.7563	0.0017
691.9386	0.0176
692.1208	-0.0003
692.303	-0.0095
692.4852	-0.0102
692.6673	0.0029
692.8495	-0.0038
693.0316	0.0101
693.2137	0.022
693.3958	0.0061
693.5778	0.0025
693.7599	-0.007
693.9419	-0.0192
694.1239	-0.0163
694.3059	0.0057
694.4879	-0.0079
694.6699	-0.0052
694.8518	-0.0033
695.0337	0.0103
695.2157	0.0111
695.3975	-0.0243
695.5794	-0.0061
695.7613	0.0014
695.9431	-0.0194
696.1249	0.0158
696.3067	-0.0326
696.4885	0.0209
696.6703	-0.0074
696.852	0.0026
697.0337	0.0077
697.2154	0.0103
697.3971	-0.0063
697.5788	0.0252
697.7605	-0.0035
697.9421	0.0108
698.1237	0.0222
698.3053	-0.0111
698.4869	0.0047
698.6685	0.0026
698.85	0.0131
699.0315	-0.01
699.213	0.0079
699.3945	0.005
699.576	0.0304
699.7575	0.0207
699.9389	-0.0067
700.1203	0.0173
700.3017	0.0166
700.4831	0.0175
700.6645	0.0059
700.8458	-0.0096
701.0271	0.0115
701.2084	0.0239
701.3897	0.0142
701.571	-0.0176
701.7523	0.0093
701.9335	-0.0195
702.1147	0.0145
702.2959	-0.016
702.4771	0.0159
702.6583	-0.0008
702.8394	-0.0301
703.0205	0.0042
703.2016	-0.0115
703.3827	-0.0237
703.5638	0.0082
703.7449	0.0149
703.9259	0.0031
704.1069	-0.0158
704.2879	-0.0136
704.4689	-0.0115
704.6499	0.0613
704.8308	0.0202
705.0117	0.0044
705.1927	0.0102
705.3735	0.0159
705.5544	-0.0047
705.7353	-0.0085
705.9161	-0.0079
706.0969	0.0095
706.2777	-0.0009
706.4585	-0.0109
706.6393	0.0199
706.82	-0.0018
707.0007	0.0072
707.1815	-0.0064
707.3621	0.0128
707.5428	0.0118
707.7235	-0.0026
707.9041	0.0116
708.0847	0.0046
708.2653	0.0029
708.4459	-0.0049
708.6265	-0.0243
708.807	-0.0154
708.9875	-0.0124
709.168	0.0194
709.3485	0.0023
709.529	-0.0079
709.7095	-0.0229
709.8899	0.0022
710.0703	-0.0099
710.2507	0.0049
710.4311	-0.0054
710.6115	0.0221
710.7918	0.0159
710.9721	-0.0238
711.1524	-0.0253
711.3327	-0.0175
711.513	-0.0127
711.6932	0.0313
711.8735	0.0119
712.0537	-0.0046
712.2339	0.0205
712.4141	0.0127
712.5942	-0.0027
712.7744	0.0042
712.9545	0.0131
713.1346	0.0051
713.3147	0.0047
713.4947	-0.0219
713.6748	0.0033
713.8548	0.0012
714.0348	0.0121
714.2148	0.008
714.3948	0.0126
714.5748	0.006
714.7547	0.0104
714.9346	0.0127
715.1145	0.0062
715.2944	-0.0075
715.4743	-0.0028
715.6541	-0.0231
715.834	0.013
716.0138	0.0182
716.1936	-0.0204
716.3733	0.0166
716.5531	0.0046
716.7328	0.005
716.9126	0.0182
717.0923	-0.0248
717.2719	-0.0051
717.4516	0.0026
717.6312	-0.0333
717.8109	0.0267
717.9905	0.0298
718.1701	0.0032
718.3496	-0.0216
718.5292	-0.0072
718.7087	-0.0057
718.8882	0.0213
719.0677	-0.0219
719.2472	-0.0073
719.4267	-0.0122
719.6061	-0.0207
719.7856	0.0374
719.965	-0.0052
720.1443	-0.0029
720.3237	-0.001
720.5031	0.0044
720.6824	-0.0136
720.8617	-0.0134
721.041	0.0308
721.2203	-0.0058
721.3995	0.0146
721.5788	-0.0122
721.758	-0.0096
721.9372	-0.0156
722.1164	0.0178
722.2956	-0.0307
722.4747	0.0029
722.6538	-0.005
722.8329	0.0223
723.012	-0.0023
723.1911	0.0136
723.3702	0.0354
723.5492	-0.0099
723.7282	-0.0162
723.9072	-0.0069
724.0862	0.0047
724.2652	0.0033
724.4441	-0.022
724.623	-0.012
724.8019	-0.0005
724.9808	0.013
725.1597	0.0098
725.3385	0.0146
725.5174	0.0043
725.6962	-0.0035
725.875	0.0072
726.0538	0.02
726.2325	0.0079
726.4112	-0.0209
726.59	-0.0028
726.7687	-0.0075
726.9474	-0.0062
727.126	0.0083
727.3047	-0.0261
727.4833	0.0055
727.6619	-0.0118
727.8405	0.0191
728.0191	0.0207
728.1976	0.0066
728.3762	0.0159
728.5547	-0.0137
728.7332	0.0174
728.9116	-0.0022
729.0901	0.003
729.2686	-0.0098
729.447	0.003
729.6254	0.0024
729.8038	-0.0186
729.9821	-0.0098
730.1605	-0.0118
730.3388	-0.0053
730.5171	0.0152
730.6954	-0.015
730.8737	0.0103
731.0519	-0.0082
731.2302	0.0213
731.4084	-0.0015
731.5866	0.0034
731.7648	-0.0137
731.9429	-0.0067
732.1211	0.0014
732.2992	-0.0041
732.4773	0.0033
732.6554	-0.02
732.8335	0.0324
733.0115	0.0007
733.1896	-0.0143
733.3676	0.0011
733.5456	-0.0107
733.7235	-0.0285
733.9015	0.0069
734.0794	-0.0185
734.2574	-0.0204
734.4353	0.031
734.6131	-0.013
734.791	0.0165
734.9689	-0.0168
735.1467	-0.0209
735.3245	0.0055
735.5023	0.0073
735.68	-0.0045
735.8578	0.0007
736.0355	0.0096
736.2132	-0.002
736.3909	0.0117
736.5686	-0.0055
736.7463	-0.0209
736.9239	0.0261
737.1015	-0.0028
737.2791	0.0059
737.4567	-0.0031
737.6343	0.0038
737.8118	0.023
737.9894	-0.0167
738.1669	-0.0041
738.3444	0.0109
738.5218	-0.0266
738.6993	0.0023
738.8767	-0.0134
739.0541	0.0148
739.2315	-0.0131
739.4089	0.0228
739.5863	0.0075
739.7636	-0.0046
739.9409	-0.003
740.1182	0.0045
740.2955	0.0329
740.4728	-0.0209
740.65	-0.0094
740.8272	0.0298
741.0044	-0.0096
741.1816	0.0244
741.3588	-0.0203
741.5359	-0.0212
741.7131	-0.0149
741.8902	-0.0076
742.0673	-0.0297
742.2444	0.0327
742.4214	0.0125
742.5985	0.0011
742.7755	-0.0023
742.9525	-0.0432
743.1295	-0.0492
743.3064	-0.0065
743.4834	0.0201
743.6603	0.0556
743.8372	-0.0365
744.0141	-0.0006
744.191	0.0189
744.3678	-0.0286
744.5446	0.0177
744.7215	0.0207
744.8982	0.01
745.075	0.0383
745.2518	-0.0308
745.4285	-0.0044
745.6052	-0.0489
745.7819	-0.0338
745.9586	0.0135
746.1353	-0.0103
746.3119	0.0151
746.4885	0.0241
746.6651	-0.0057
746.8417	-0.0102
747.0183	0.0165
747.1948	-0.01
747.3714	-0.0063
747.5479	-0.0062
747.7244	0.0026
747.9008	-0.0345
748.0773	0.0334
748.2537	0.0155
748.4301	0.0181
748.6065	-0.0033
748.7829	-0.0006
748.9593	-0.0043
749.1356	0.0036
749.3119	-0.0055
749.4882	0.0013
749.6645	-0.0031
749.8408	0.0099
750.017	0.0262
750.1933	-0.0055
750.3695	0.0048
750.5457	0.006
750.7218	-0.0197
750.898	-0.0268
751.0741	-0.0005
751.2502	0.0054
751.4263	-0.007
751.6024	0.0067
751.7784	0.0034
751.9545	0.0028
752.1305	-0.0039
752.3065	0.0061
752.4825	-0.003
752.6584	-0.0102
752.8344	-0.0171
753.0103	-0.0048
753.1862	0.0249
753.3621	-0.0165
753.5379	0.0005
753.7138	0.0161
753.8896	0.0178
754.0654	-0.0092
754.2412	-0.0019
754.417	0.007
754.5927	0.0137
754.7685	0.0062
754.9442	0.0054
755.1199	0.0134
755.2956	0.0037
755.4712	0.0044
755.6469	0.0118
755.8225	0.0097
755.9981	0.0268
756.1736	0.0056
756.3492	-0.0016
756.5248	-0.0057
756.7003	-0.0058
756.8758	0.0023
757.0513	-0.0057
757.2267	0.0032
757.4022	-0.0025
757.5776	-0.0027
757.753	0.0107
757.9284	-0.0049
758.1038	-0.0079
758.2791	0.0066
758.4545	-0.0176
758.6298	-0.0028
758.8051	0.0131
758.9803	-0.006
759.1556	-0.0109
759.3308	-0.013
759.506	-0.0127
759.6812	0.0066
759.8564	-0.0162
760.0316	0.0038
760.2067	0.0116
760.3819	0.0117
760.557	-0.0034
760.732	-0.0112
760.9071	0.0152
761.0821	-0.0167
761.2572	-0.0023
761.4322	-0.0007
761.6072	-0.0028
761.7821	-0.0385
761.9571	-0.0019
762.132	-0.0264
762.3069	0.0389
762.4818	0.0201
762.6567	-0.0092
762.8316	-0.0056
763.0064	-0.011
763.1812	0.0066
763.356	-0.0207
763.5308	0.0139
763.7055	-0.0121
763.8803	-0.0046
764.055	-0.0067
764.2297	-0.0008
764.4044	-0.017
764.579	-0.0008
764.7537	0.0072
764.9283	0.0025
765.1029	-0.0044
765.2775	0.0064
765.4521	-0.0049
765.6266	0.0164
765.8011	0.0046
765.9756	0.0152
766.1501	-0.0114
766.3246	-0.0127
766.4991	-0.0083
766.6735	0.0187
766.8479	0.016
767.0223	-0.0189
767.1967	0.0026
767.371	-0.0043
767.5454	0.0243
767.7197	0.0312
767.894	-0.0133
768.0683	0.0284
768.2425	0.0073
768.4168	0.0025
768.591	0.0254
768.7652	-0.02
768.9394	-0.0321
769.1135	0.0029
769.2877	0.0053
769.4618	0.0434
769.6359	-0.0068
769.81	0.0366
769.984	0.0036
770.1581	-0.0123
770.3321	-0.0042
770.5061	-0.0058
770.6801	0.0056
770.8541	-0.0019
771.028	0.0412
771.202	0.0189
771.3759	0.0057
771.5498	0.0279
771.7236	0.0313
771.8975	0.0354
772.0713	0.0133
772.2451	-0.0193
772.4189	0.0071
772.5927	-0.0164
772.7665	0.033
772.9402	0.0088
773.1139	-0.0122
773.2876	0.0009
773.4613	-0.0201
773.635	0.0314
773.8086	0.0223
773.9822	-0.0038
774.1558	0.0363
774.3294	-0.0234
774.503	0.0276
774.6765	0.0135
774.8501	-0.0077
775.0236	0.051
775.1971	-0.0205
775.3705	0.0107
775.544	-0.0456
775.7174	0.0275
775.8908	0.0183
776.0642	0.0419
776.2376	0.021
776.4109	-0.0021
776.5843	-0.0267
776.7576	0.009
776.9309	0.0389
777.1041	-0.0668
777.2774	0.0046
777.4506	-0.0046
777.6238	-0.0324
777.797	0.0265
777.9702	0.013
778.1434	0.0066
778.3165	-0.0323
778.4896	-0.0406
778.6627	-0.006
778.8358	-0.0211
779.0089	-0.0259
779.1819	0.0106
779.3549	0.0103
779.5279	-0.0199
779.7009	0.0126
779.8739	0.0092
780.0468	-0.0052
780.2197	0.0132
780.3926	-0.0324
780.5655	0.0061
780.7384	-0.0203
780.9112	-0.0025
781.0841	-0.0066
781.2569	0.0084
781.4297	-0.0002
781.6024	-0.002
781.7752	0.0331
781.9479	0.0197
782.1206	-0.0208
782.2933	0.0083
782.466	0.0416
782.6386	-0.0343
782.8113	0.0291
782.9839	-0.0002
783.1565	0.0143
783.329	0.0032
783.5016	0.019
783.6741	0.0127
783.8466	0.042
784.0191	-0.0064
784.1916	-0.0551
784.3641	-0.0244
784.5365	-0.0026
784.7089	-0.0631
784.8813	0.0256
785.0537	0.0122
785.2261	-0.0276
785.3984	0.0216
785.5707	0.0041
785.743	0.0194
785.9153	-0.0184
786.0876	-0.0226
786.2598	0.0042
786.432	-0.0185
786.6042	0.0148
786.7764	-0.0144
786.9486	-0.0316
787.1207	0.0663
787.2928	0.056
787.4649	-0.0117
787.637	0.0153
787.8091	0.0256
787.9811	0.0143
788.1532	0.0424
788.3252	0.0133
788.4972	0.0087
788.6691	-0.0095
788.8411	-0.0109
789.013	-0.0174
789.1849	-0.046
789.3568	-0.0329
789.5287	0.0684
789.7005	-0.0494
789.8723	-0.0032
790.0442	-0.0439
790.2159	-0.0427
790.3877	0.0086
790.5595	0.0536
790.7312	-0.0093
790.9029	-0.0125
791.0746	0.0075
791.2463	-0.0509
791.4179	0.0092
791.5896	0.096
791.7612	0.0404
791.9328	-0.034
792.1044	-0.0039
792.2759	-0.0529
792.4474	-0.0119
792.619	-0.0538
792.7905	-0.0216
792.9619	0.0132
793.1334	0.0475
793.3048	0.0792
793.4762	-0.0248
793.6476	-0.0614
793.819	0.0112
793.9904	-0.021
794.1617	-0.0113
794.333	-0.0014
794.5043	0.0061
794.6756	-0.0122
794.8469	0.014
795.0181	-0.0127
795.1893	0.0136
795.3605	0.0184
795.5317	0.0013
795.7029	-0.0312
795.874	-0.0004
796.0452	0.0388
796.2163	0.0562
796.3873	-0.0027
796.5584	-0.0448
796.7294	0.0399
796.9005	-0.0021
797.0715	-0.0206
797.2425	0.0655
797.4134	0.0318
797.5844	0.0342
797.7553	-0.0506
797.9262	0.0295
798.0971	-0.0187
798.2679	-0.0387
798.4388	0.0624
798.6096	-0.006
798.7804	0.0194
798.9512	0.0234
799.122	-0.0005
799.2927	0.0461
799.4635	-0.0223
799.6342	0.004
799.8049	-0.0054
799.9755	-0.0497
800.1462	0.0232
800.3168	0.048
800.4874	-0.0952
800.658	0.041
800.8286	-0.0516
800.9991	-0.0022
801.1696	0.0202
801.3402	-0.0068
801.5106	-0.0466
801.6811	0.0267
801.8516	0.0537
802.022	0.0773
802.1924	-0.0717
802.3628	-0.0472
802.5332	0.0688
802.7035	0.0171
802.8739	0.055
803.0442	-0.0118
803.2145	0.0126
803.3847	0.0844
803.555	0.0073
803.7252	-0.0477
803.8954	-0.1012
804.0656	-0.0409
804.2358	-0.0272
804.4059	0.0882
804.5761	-0.0318
804.7462	-0.0526
804.9163	0.0439
805.0864	-0.0515
805.2564	-0.0524
805.4264	0.0093
805.5965	0.0727
805.7665	-0.044
805.9364	-0.0114
806.1064	0.0211
806.2763	0.0258
806.4462	-0.0104
806.6161	0.0221
806.786	-0.0093
806.9559	0.0361
807.1257	-0.0144
807.2955	-0.0277
807.4653	0.0128
807.6351	0.054
807.8048	-0.0127
807.9746	0.0146
808.1443	-0.0466
808.314	0.009
808.4837	0.0814
808.6533	-0.0308
808.8229	0.0265
808.9926	0.083
809.1622	0.0678
809.3317	-0.0585
809.5013	0.0256
809.6708	-0.0388
809.8403	0.0108
810.0098	0.0064
810.1793	-0.0071
810.3488	-0.0305
810.5182	0.1439
810.6876	-0.0342
810.857	-0.0009
811.0264	-0.0372
811.1958	0.083
811.3651	0.0207
811.5344	0.0353
811.7037	0.1953
811.873	0.001
812.0422	-0.007
812.2115	-0.0124
812.3807	-0.1507
812.5499	0.0201
812.7191	-0.1449
812.8882	0.0278
813.0574	0.0913
813.2265	0.0298
813.3956	-0.0271
813.5646	0.0728
813.7337	-0.0131
813.9027	-0.0474
814.0718	-0.0089
814.2407	0.0612
814.4097	0.0022
814.5787	0.1207
814.7476	0.0568
814.9165	0.049
815.0854	-0.0083
815.2543	0.0206
815.4232	0.0476
815.592	-0.0278
815.7608	-0.2038
815.9296	0.0101
816.0984	0.0164
816.2671	-0.213
816.4359	0.1041
816.6046	-0.0764
816.7733	-0.0679
816.942	-0.009
817.1106	-0.0122
817.2793	-0.0317
817.4479	0.0567
817.6165	0.0341
817.785	0.0342
817.9536	-0.0622
818.1221	0.0268
818.2906	-0.0693
818.4591	0.0409
818.6276	-0.0384
818.7961	0.0526
818.9645	-0.0376
819.1329	0.291
819.3013	-0.0436
819.4697	-0.0437
819.638	0.0764
819.8064	0.0019
819.9747	0.1097
820.143	0.0485
820.3113	0.0413
820.4795	-0.0145
820.6477	0.0824
820.816	-0.012
820.9842	0.0855
821.1523	-0.0124
821.3205	0.0032
821.4886	-0.0344
821.6567	0.0136
821.8248	0.0651
821.9929	-0.0927
822.1609	-0.0367
822.329	0.0692
822.497	0.0374
822.665	-0.0937
822.833	-0.051
823.0009	0.0021
823.1688	0.0243
823.3367	-0.2016
823.5046	0.0759
823.6725	0.0019
823.8404	-0.0843
824.0082	-0.0634
824.176	-0.1664
824.3438	0.2074
824.5116	-0.017
824.6793	0.1131
824.847	0.1245
825.0147	-0.0992
825.1824	0.0302
825.3501	-0.0754
825.5177	0.0541
825.6854	-0.1381
825.853	-0.0476
826.0206	0.099
826.1881	-0.0015
826.3557	-0.174
826.5232	0.0869
826.6907	0.0787
826.8582	0.0877
827.0257	0.0656
827.1931	0.1722
827.3605	-0.031
827.528	-0.1348
827.6953	-0.226
827.8627	-0.1149
828.03	0.0142
828.1974	-0.0664
828.3647	0.069
828.532	-0.0982
828.6992	0.1693
828.8665	-0.2636
829.0337	-0.0443
829.2009	-0.093
829.3681	0.098
829.5352	-0.2169
829.7024	0.1853
829.8695	-0.068
830.0366	0.2396
830.2037	0.2307
830.3707	0.0373
830.5378	-0.0914
830.7048	0.0027
830.8718	0.0531
831.0388	-0.1054
831.2057	-0.2259
831.3727	-0.0475
831.5396	0.0772
831.7065	-0.8103
831.8734	0.2193
832.0402	0.2279
832.2071	-0.3986
832.3739	-0.0483
832.5407	-1.6965
832.7075	-0.073
832.8742	0.5909
833.041	0.2231
833.2077	0.5657
833.3744	-0.0405
833.541	-0.0857
833.7077	-0.066
833.8743	0.0197
834.0409	0.1058
834.2075	-0.0404
834.3741	-0.3143
834.5407	0.1766
834.7072	0.0105
834.8737	0.0889
835.0402	0.2194
835.2067	0.1178
835.3731	0.1659
835.5395	-0.0999
835.706	-0.1769
835.8723	-0.0197
836.0387	0.3511
836.2051	-0.0491
836.3714	0.4416
836.5377	-0.1142
836.704	0.1415
836.8703	-0.2128
837.0365	-0.4626
837.2027	0.1573
837.3689	0.2889
837.5351	0.2524
837.7013	0.4089
837.8674	-0.4705
838.0335	0.0588
838.1997	0.2326
838.3657	-0
838.5318	0.1456
838.6978	-0
838.8639	0.792
839.0299	-0.06
839.1958	-0.0328
839.3618	-0
839.5277	-0.1228
839.6937	-0.0971
839.8596	-0.2893
840.0254	-0.1387
840.1913	-0.4482
840.3571	0.6393
840.523	-0
840.6888	-0.0434
840.8545	-0.6423
841.0203	0.2395
841.186	0.0688
841.3517	-0.0478
841.5174	0.1535
841.6831	0.0525
841.8488	0.5084
842.0144	-0.0832
842.18	0.3133
842.3456	-0.563
842.5112	-0
842.6767	0.32
842.8422	-0.1531
843.0077	0.1699
843.1732	0.2721
843.3387	0.6679
843.5042	-0
843.6696	-0.2682
843.835	-0.1771
844.0004	-0.2846
844.1657	-0
844.3311	-0
844.4964	-0
844.6617	0.27
844.827	0.6917
844.9923	0.0437
845.1575	-0.1111
845.3227	-0.3819
845.4879	-0.0073
845.6531	-0.1355
845.8183	-0.0629
845.9834	0.8536
846.1485	0.2145
846.3136	0.2528
846.4787	-0.2212
846.6438	0.1706
846.8088	-0
846.9738	-0
847.1388	0.2656
847.3038	0.1984
847.4687	1.4347
847.6337	-0.4805
847.7986	0.8834
847.9635	-0.2305
848.1284	-0
848.2932	-0.0404
848.458	-0
848.6228	0.1319
848.7876	-0
848.9524	-0
849.1172	-1.8023
849.2819	-0
849.4466	0.3233
849.6113	0.3311
849.7759	-0
849.9406	-0.3002
850.1052	-0.4994
850.2698	-0
850.4344	-0.5515
850.599	-0.0568
850.7635	-0
850.928	0.194
851.0925	0.285
851.257	0.6099
851.4215	0.4855
851.5859	0.0805
851.7503	-0
851.9147	-0
852.0791	-0.1533
852.2434	0.1606
852.4078	0.3429
852.5721	1.2003
852.7364	-0
852.9007	0.139
853.0649	-0
853.2291	0.346
853.3934	-0
853.5575	-0.2312
853.7217	1.8898
853.8859	-0
854.05	0.1312
854.2141	0.2436
854.3782	-0.3914
854.5423	0.069
854.7063	0.3258
854.8703	0.3624
855.0343	0.0606
855.1983	-0.0321
855.3623	-0.0656
855.5262	-0
855.6901	0.5761
855.854	0.0217
856.0179	0.0604
856.1818	-0
856.3456	0.153
856.5094	-0.4088
856.6732	-0.4809
856.837	-0.7639
857.0008	-0.2424
857.1645	-0.2879
857.3282	-0.592
857.4919	0.4227
857.6556	-0.0102
857.8192	-0.1349
857.9828	-0.2461
858.1465	1.049
858.31	-0
858.4736	0.0635
858.6372	-0.208
858.8007	-0.1687
858.9642	1.1003
859.1277	0.3295
859.2911	-0.3871
859.4546	-0
859.618	0.8259
859.7814	-0.0542
859.9448	-0
860.1081	0.0863
860.2715	-0
860.4348	-0.1551
860.5981	0.4741
860.7614	0.2857
860.9246	0.2474
861.0879	-0.0471
861.2511	-0
861.4143	-0.2419
861.5774	-0.1145
861.7406	-0
861.9037	-0.0444
862.0668	-0.9409
862.2299	-0
862.393	-0
862.556	0.2857
862.7191	-0.2697
862.8821	0.3131
863.0451	-0.0685
863.208	-0.2619
863.371	-0.3451
863.5339	0.1655
863.6968	-0
863.8597	0.3476
864.0225	-0.1015
864.1854	-0
864.3482	-0.4329
864.511	-0.0483
864.6737	-0
864.8365	0.3529
864.9992	-0
865.1619	-0
865.3246	-1.7952
865.4873	-0.7112
865.65	-0
865.8126	0.2825
865.9752	-0
866.1378	0.3591
866.3004	-0.322
866.4629	-1.7656
866.6254	-0.3986
866.7879	-0.2306
866.9504	-0.1284
867.1129	0.0847
867.2753	-0.1659
867.4377	-0.3827
867.6001	-0.4898
867.7625	0.1996
867.9249	-0
868.0872	0.0582
868.2495	-0
868.4118	0.51
868.5741	-0
868.7363	-0
868.8986	-0.5062
869.0608	13.3771
869.223	-0.5994
869.3851	-0
869.5473	0.1989
869.7094	0.2619
869.8715	-0.9509
870.0336	-0.0582
870.1957	0.5336
870.3577	0.33
870.5197	0.155
870.6817	-0
870.8437	-0.1657
871.0057	0.4403
871.1676	0.0961
871.3295	-0
871.4914	-1.4216
871.6533	0.8266
871.8151	1.2832
871.977	-0.3388
872.1388	0.1158
872.3006	-0.7867
872.4623	-0.945
872.6241	0.1504
872.7858	-0
872.9475	1.1676
873.1092	-0.0343
873.2709	-0
873.4325	-1.9744
873.5941	-0
873.7557	0.0397
873.9173	-0
874.0789	0.2493
874.2404	-0
874.4019	-0.0182
874.5634	-0
874.7249	-0
874.8863	-0.3718
875.0478	-0.3791
875.2092	0.4567
875.3706	-0.1667
875.5319	-0
875.6933	0.7073
875.8546	-0.1979
876.0159	0.0625
876.1772	-0
876.3385	0.2088
876.4997	-0
876.6609	-0
876.8221	0.7841
876.9833	-0.0966
877.1445	0.5385
877.3056	-0.366
877.4667	-0.8281
877.6278	0.623
877.7889	-0
877.9499	0.1908
878.111	-0.6557
878.272	0.4937
878.433	0.0504
878.5939	0.2145
878.7549	-0
878.9158	0.7287
879.0767	0.1391
879.2376	-0.1307
879.3984	0.9896
879.5593	1.5352
879.7201	-0
879.8809	-0
880.0417	-0.132
880.2024	0.3157
880.3632	-0
880.5239	-0.1026
880.6846	-0.1803
880.8452	0.0188
881.0059	-0.8888
881.1665	0.0765
881.3271	-0
881.4877	0.9964
881.6483	-0
881.8088	-0.8721
881.9693	-0
882.1298	-0
882.2903	-0
