Data from D4ACN5uM460nmA_Absorbance_13-05-42-695.txt Node
Date: Fri Feb 21 13:05:42 GMT 2025
User: LASERRRRR
Spectrometer: FLMT03099
Trigger mode: 0
Integration Time (sec): 1.500000E-2
Scans to average: 1
Electric dark correction enabled: true
Nonlinearity correction enabled: false
Boxcar width: 0
XAxis mode: Wavelengths
Number of Pixels in Spectrum: 3648
>>>>>Begin Spectral Data<<<<<
179.3399	-0
179.5586	-0
179.7771	-0
179.9957	-0.0924
180.2143	-1.5927
180.4329	0.3185
180.6514	-0
180.8699	-0.0234
181.0885	0.9294
181.307	-0.1309
181.5255	-0.121
181.744	1.7959
181.9625	0.2362
182.181	0.2058
182.3994	-0
182.6179	-0
182.8363	-0
183.0547	-0.0667
183.2732	-0.0164
183.4916	0.2332
183.71	0.0139
183.9284	-0.054
184.1467	-0.075
184.3651	0.1445
184.5835	0.3244
184.8018	0.15
185.0201	0.2968
185.2385	0.168
185.4568	0.085
185.6751	0.1261
185.8934	0.0998
186.1117	-0.174
186.3299	0.1304
186.5482	0.0589
186.7664	0.1131
186.9847	0.0275
187.2029	0.1199
187.4211	0.0872
187.6393	0.0254
187.8575	0.2103
188.0757	0.389
188.2939	0.0932
188.512	0.3738
188.7302	0.086
188.9483	0.2709
189.1665	0.4409
189.3846	0.029
189.6027	0.156
189.8208	0.202
190.0389	0.109
190.257	-0.0287
190.475	0.031
190.6931	0.2939
190.9111	-0.0845
191.1292	0.1166
191.3472	0.2099
191.5652	0.1133
191.7832	0.054
192.0012	0.1077
192.2192	0.0108
192.4371	0.1004
192.6551	0.1166
192.873	0.1501
193.091	0.0854
193.3089	0.2149
193.5268	0.2396
193.7447	0.1246
193.9626	0.1952
194.1805	0.2011
194.3984	0.2152
194.6162	0.1789
194.8341	0.2449
195.0519	0.1886
195.2697	0.2115
195.4875	0.2406
195.7054	0.2757
195.9231	0.2735
196.1409	0.3353
196.3587	0.2236
196.5765	0.2954
196.7942	0.2382
197.012	0.3218
197.2297	0.3642
197.4474	0.3638
197.6651	0.3127
197.8828	0.3287
198.1005	0.3587
198.3182	0.3658
198.5358	0.3779
198.7535	0.3771
198.9711	0.3575
199.1888	0.3465
199.4064	0.3829
199.624	0.3313
199.8416	0.3461
200.0592	0.4079
200.2767	0.4233
200.4943	0.4244
200.7119	0.4235
200.9294	0.4551
201.1469	0.4144
201.3645	0.4339
201.582	0.442
201.7995	0.403
202.017	0.3886
202.2344	0.4086
202.4519	0.3477
202.6694	0.3523
202.8868	0.3978
203.1042	0.4164
203.3217	0.4133
203.5391	0.3707
203.7565	0.3676
203.9739	0.3733
204.1913	0.3276
204.4086	0.3341
204.626	0.3479
204.8433	0.3535
205.0607	0.3488
205.278	0.3322
205.4953	0.3111
205.7126	0.3486
205.9299	0.3266
206.1472	0.2976
206.3644	0.3472
206.5817	0.349
206.7989	0.3322
207.0162	0.3236
207.2334	0.3067
207.4506	0.2967
207.6678	0.2931
207.885	0.3151
208.1022	0.2984
208.3194	0.3132
208.5365	0.2948
208.7537	0.2876
208.9708	0.3046
209.1879	0.3066
209.405	0.2859
209.6222	0.2737
209.8392	0.2889
210.0563	0.3042
210.2734	0.2547
210.4905	0.2607
210.7075	0.2624
210.9245	0.2585
211.1416	0.2804
211.3586	0.264
211.5756	0.2658
211.7926	0.2795
212.0096	0.2679
212.2265	0.2638
212.4435	0.2649
212.6604	0.2512
212.8774	0.2338
213.0943	0.2396
213.3112	0.2473
213.5281	0.2518
213.745	0.2409
213.9619	0.2423
214.1788	0.263
214.3956	0.243
214.6125	0.2764
214.8293	0.2514
215.0461	0.2504
215.2629	0.2503
215.4798	0.2382
215.6965	0.2528
215.9133	0.2478
216.1301	0.2412
216.3469	0.2486
216.5636	0.2468
216.7803	0.2458
216.9971	0.2523
217.2138	0.2485
217.4305	0.2481
217.6472	0.2474
217.8639	0.2522
218.0805	0.2654
218.2972	0.26
218.5138	0.2523
218.7305	0.2613
218.9471	0.2574
219.1637	0.2759
219.3803	0.2563
219.5969	0.2643
219.8135	0.2738
220.0301	0.2615
220.2466	0.2651
220.4632	0.2475
220.6797	0.2495
220.8962	0.2603
221.1127	0.2702
221.3292	0.2708
221.5457	0.274
221.7622	0.2709
221.9787	0.2993
222.1951	0.2764
222.4116	0.2744
222.628	0.2846
222.8444	0.2839
223.0608	0.2779
223.2772	0.2726
223.4936	0.2754
223.71	0.2873
223.9264	0.279
224.1427	0.2828
224.3591	0.3033
224.5754	0.3006
224.7917	0.3022
225.008	0.3033
225.2243	0.3097
225.4406	0.2952
225.6569	0.3061
225.8732	0.3137
226.0894	0.308
226.3057	0.3186
226.5219	0.3234
226.7381	0.3223
226.9543	0.322
227.1705	0.3118
227.3867	0.323
227.6029	0.3209
227.8191	0.3407
228.0352	0.3468
228.2513	0.3559
228.4675	0.3445
228.6836	0.353
228.8997	0.3487
229.1158	0.3681
229.3319	0.3642
229.548	0.3606
229.764	0.3627
229.9801	0.3764
230.1961	0.3662
230.4121	0.3715
230.6282	0.3852
230.8442	0.393
231.0602	0.3805
231.2761	0.3808
231.4921	0.3857
231.7081	0.39
231.924	0.3921
232.14	0.4041
232.3559	0.4049
232.5718	0.4126
232.7877	0.4153
233.0036	0.4102
233.2195	0.4093
233.4353	0.4201
233.6512	0.4231
233.867	0.4136
234.0829	0.4287
234.2987	0.4249
234.5145	0.4289
234.7303	0.4279
234.9461	0.4309
235.1619	0.4396
235.3776	0.4322
235.5934	0.438
235.8091	0.4385
236.0249	0.4595
236.2406	0.4409
236.4563	0.4468
236.672	0.4362
236.8877	0.4403
237.1034	0.4461
237.319	0.4455
237.5347	0.4534
237.7503	0.4477
237.966	0.4603
238.1816	0.4526
238.3972	0.4611
238.6128	0.4661
238.8284	0.4617
239.0439	0.458
239.2595	0.4644
239.475	0.4602
239.6906	0.4512
239.9061	0.4559
240.1216	0.4641
240.3371	0.45
240.5526	0.4629
240.7681	0.455
240.9836	0.4632
241.199	0.4552
241.4145	0.4541
241.6299	0.4484
241.8453	0.4421
242.0607	0.436
242.2761	0.4251
242.4915	0.4196
242.7069	0.4122
242.9223	0.4145
243.1376	0.4018
243.353	0.3977
243.5683	0.3921
243.7836	0.3851
243.9989	0.3742
244.2142	0.3726
244.4295	0.3648
244.6448	0.3623
244.86	0.3421
245.0753	0.3391
245.2905	0.3403
245.5057	0.3234
245.721	0.3265
245.9362	0.321
246.1514	0.3142
246.3665	0.3024
246.5817	0.2953
246.7969	0.2897
247.012	0.294
247.2271	0.2913
247.4423	0.2772
247.6574	0.2765
247.8725	0.2661
248.0876	0.2688
248.3026	0.259
248.5177	0.2547
248.7328	0.2504
248.9478	0.2494
249.1628	0.2492
249.3779	0.2333
249.5929	0.2367
249.8079	0.2334
250.0228	0.2321
250.2378	0.2232
250.4528	0.2297
250.6677	0.218
250.8827	0.2183
251.0976	0.2152
251.3125	0.2155
251.5274	0.207
251.7423	0.2073
251.9572	0.2082
252.172	0.205
252.3869	0.2085
252.6017	0.1997
252.8166	0.2015
253.0314	0.1989
253.2462	0.1961
253.461	0.1874
253.6758	0.1942
253.8906	0.1896
254.1053	0.1916
254.3201	0.1963
254.5348	0.185
254.7496	0.1833
254.9643	0.1954
255.179	0.1842
255.3937	0.1862
255.6083	0.1874
255.823	0.1824
256.0377	0.1861
256.2523	0.1869
256.467	0.1815
256.6816	0.1825
256.8962	0.1814
257.1108	0.1808
257.3254	0.1787
257.54	0.179
257.7545	0.1835
257.9691	0.1769
258.1836	0.1743
258.3981	0.1769
258.6127	0.1724
258.8272	0.1744
259.0417	0.1747
259.2561	0.1724
259.4706	0.1728
259.6851	0.1712
259.8995	0.1753
260.114	0.1795
260.3284	0.1669
260.5428	0.1789
260.7572	0.1728
260.9716	0.183
261.186	0.173
261.4003	0.1772
261.6147	0.1725
261.829	0.1761
262.0433	0.1761
262.2577	0.1767
262.472	0.1721
262.6863	0.1824
262.9005	0.1733
263.1148	0.1762
263.3291	0.1768
263.5433	0.1755
263.7576	0.1779
263.9718	0.1757
264.186	0.1744
264.4002	0.1702
264.6144	0.1822
264.8286	0.1754
265.0427	0.1829
265.2569	0.1823
265.471	0.1797
265.6851	0.1757
265.8993	0.177
266.1134	0.1732
266.3275	0.1745
266.5415	0.1794
266.7556	0.1813
266.9697	0.1808
267.1837	0.1764
267.3978	0.1822
267.6118	0.1706
267.8258	0.1796
268.0398	0.1815
268.2538	0.1791
268.4677	0.1677
268.6817	0.1748
268.8957	0.1699
269.1096	0.1672
269.3235	0.1699
269.5374	0.1754
269.7514	0.1739
269.9652	0.1673
270.1791	0.1636
270.393	0.1708
270.6068	0.1702
270.8207	0.1689
271.0345	0.1692
271.2483	0.1688
271.4622	0.166
271.676	0.1719
271.8897	0.1645
272.1035	0.1733
272.3173	0.1675
272.531	0.1693
272.7448	0.17
272.9585	0.1577
273.1722	0.1667
273.3859	0.1646
273.5996	0.1678
273.8133	0.1671
274.0269	0.1623
274.2406	0.1651
274.4542	0.1674
274.6679	0.1719
274.8815	0.174
275.0951	0.1722
275.3087	0.174
275.5223	0.1658
275.7358	0.174
275.9494	0.1765
276.1629	0.1752
276.3765	0.1713
276.59	0.1657
276.8035	0.1732
277.017	0.1741
277.2305	0.1739
277.444	0.1723
277.6574	0.1719
277.8709	0.1806
278.0843	0.173
278.2978	0.1719
278.5112	0.1786
278.7246	0.174
278.938	0.1753
279.1513	0.18
279.3647	0.1786
279.5781	0.1788
279.7914	0.1746
280.0047	0.1744
280.2181	0.1733
280.4314	0.1772
280.6447	0.1782
280.8579	0.1715
281.0712	0.1766
281.2845	0.1736
281.4977	0.1788
281.711	0.1744
281.9242	0.1753
282.1374	0.1813
282.3506	0.1757
282.5638	0.18
282.7769	0.1756
282.9901	0.1784
283.2033	0.1786
283.4164	0.1771
283.6295	0.1759
283.8426	0.1743
284.0557	0.1818
284.2688	0.1858
284.4819	0.17
284.695	0.1837
284.908	0.1798
285.1211	0.1824
285.3341	0.1775
285.5471	0.1819
285.7601	0.1818
285.9731	0.1857
286.1861	0.1917
286.3991	0.1913
286.612	0.1819
286.825	0.1916
287.0379	0.1867
287.2508	0.1892
287.4637	0.1852
287.6766	0.1834
287.8895	0.1822
288.1024	0.1914
288.3152	0.1902
288.5281	0.1862
288.7409	0.1956
288.9538	0.1892
289.1666	0.1875
289.3794	0.1887
289.5922	0.1847
289.8049	0.1887
290.0177	0.1878
290.2304	0.1912
290.4432	0.1951
290.6559	0.1923
290.8686	0.1948
291.0813	0.1919
291.294	0.1906
291.5067	0.1863
291.7194	0.195
291.932	0.1899
292.1447	0.1933
292.3573	0.1881
292.5699	0.1938
292.7825	0.192
292.9951	0.1916
293.2077	0.1878
293.4203	0.1897
293.6328	0.1918
293.8454	0.1911
294.0579	0.1877
294.2704	0.1964
294.4829	0.1838
294.6954	0.1946
294.9079	0.1909
295.1204	0.1893
295.3328	0.1911
295.5453	0.2002
295.7577	0.1911
295.9701	0.1933
296.1825	0.1936
296.3949	0.1905
296.6073	0.182
296.8197	0.1963
297.0321	0.1919
297.2444	0.1877
297.4567	0.1931
297.6691	0.1922
297.8814	0.1946
298.0937	0.1919
298.306	0.1891
298.5182	0.1908
298.7305	0.1943
298.9428	0.1881
299.155	0.1891
299.3672	0.1934
299.5794	0.1907
299.7916	0.1944
300.0038	0.193
300.216	0.1889
300.4282	0.1899
300.6403	0.196
300.8525	0.1864
301.0646	0.1983
301.2767	0.1908
301.4888	0.1873
301.7009	0.1916
301.913	0.195
302.125	0.1951
302.3371	0.1926
302.5491	0.1926
302.7612	0.1928
302.9732	0.1923
303.1852	0.1935
303.3972	0.1893
303.6092	0.1903
303.8211	0.1883
304.0331	0.1924
304.245	0.1879
304.457	0.1889
304.6689	0.1865
304.8808	0.1856
305.0927	0.1915
305.3046	0.1841
305.5164	0.184
305.7283	0.1763
305.9401	0.1752
306.152	0.1798
306.3638	0.1783
306.5756	0.1776
306.7874	0.1696
306.9992	0.1739
307.2109	0.1676
307.4227	0.1683
307.6344	0.1731
307.8462	0.1682
308.0579	0.1737
308.2696	0.1665
308.4813	0.1651
308.693	0.1667
308.9046	0.1595
309.1163	0.1585
309.328	0.1514
309.5396	0.1541
309.7512	0.1565
309.9628	0.1569
310.1744	0.1507
310.386	0.1451
310.5976	0.1466
310.8091	0.1452
311.0207	0.144
311.2322	0.1409
311.4437	0.1441
311.6552	0.1421
311.8667	0.14
312.0782	0.1403
312.2897	0.1388
312.5012	0.139
312.7126	0.1362
312.924	0.1369
313.1355	0.1312
313.3469	0.1352
313.5583	0.1355
313.7696	0.1267
313.981	0.1332
314.1924	0.1257
314.4037	0.1278
314.6151	0.1241
314.8264	0.128
315.0377	0.1281
315.249	0.1297
315.4603	0.1233
315.6716	0.1252
315.8828	0.1221
316.0941	0.127
316.3053	0.1211
316.5165	0.1241
316.7277	0.12
316.9389	0.1281
317.1501	0.1224
317.3613	0.1226
317.5724	0.1212
317.7836	0.1132
317.9947	0.1204
318.2058	0.1181
318.417	0.1184
318.6281	0.1147
318.8391	0.1227
319.0502	0.1236
319.2613	0.1196
319.4723	0.1122
319.6834	0.1216
319.8944	0.1221
320.1054	0.1239
320.3164	0.1167
320.5274	0.1214
320.7383	0.1206
320.9493	0.1173
321.1602	0.1206
321.3712	0.118
321.5821	0.117
321.793	0.1252
322.0039	0.1216
322.2148	0.1137
322.4257	0.1171
322.6365	0.1167
322.8474	0.1202
323.0582	0.12
323.269	0.1231
323.4798	0.1242
323.6906	0.1187
323.9014	0.1199
324.1122	0.1158
324.3229	0.1263
324.5337	0.1219
324.7444	0.1255
324.9551	0.1227
325.1658	0.1245
325.3765	0.123
325.5872	0.1197
325.7979	0.1235
326.0085	0.1236
326.2192	0.1241
326.4298	0.1295
326.6404	0.1276
326.851	0.1231
327.0616	0.1236
327.2722	0.1221
327.4828	0.1275
327.6933	0.1291
327.9039	0.1196
328.1144	0.1284
328.3249	0.1291
328.5354	0.1221
328.7459	0.1233
328.9564	0.1208
329.1669	0.13
329.3773	0.1233
329.5878	0.122
329.7982	0.1273
330.0086	0.1307
330.219	0.1248
330.4294	0.1316
330.6398	0.1273
330.8502	0.1295
331.0605	0.1276
331.2708	0.1243
331.4812	0.1322
331.6915	0.1258
331.9018	0.1288
332.1121	0.1313
332.3224	0.1318
332.5326	0.1239
332.7429	0.1301
332.9531	0.1348
333.1633	0.1267
333.3735	0.1293
333.5837	0.1312
333.7939	0.1279
334.0041	0.1324
334.2143	0.1301
334.4244	0.1426
334.6346	0.1345
334.8447	0.1283
335.0548	0.1359
335.2649	0.143
335.475	0.1301
335.685	0.1341
335.8951	0.1303
336.1051	0.1432
336.3152	0.1407
336.5252	0.1365
336.7352	0.1298
336.9452	0.131
337.1552	0.1407
337.3652	0.1333
337.5751	0.1345
337.7851	0.1332
337.995	0.1349
338.2049	0.1409
338.4148	0.1346
338.6247	0.1373
338.8346	0.1356
339.0445	0.1419
339.2543	0.1375
339.4642	0.1354
339.674	0.1358
339.8838	0.1384
340.0936	0.1378
340.3034	0.1353
340.5132	0.128
340.7229	0.1442
340.9327	0.1457
341.1424	0.1414
341.3522	0.1379
341.5619	0.1483
341.7716	0.1409
341.9813	0.1504
342.1909	0.1465
342.4006	0.1491
342.6102	0.1437
342.8199	0.142
343.0295	0.1444
343.2391	0.1449
343.4487	0.1447
343.6583	0.1536
343.8679	0.1393
344.0774	0.1443
344.287	0.1508
344.4965	0.1553
344.706	0.1506
344.9155	0.1493
345.125	0.145
345.3345	0.1656
345.544	0.1593
345.7534	0.158
345.9629	0.159
346.1723	0.1554
346.3817	0.1529
346.5911	0.1531
346.8005	0.1591
347.0099	0.157
347.2193	0.162
347.4286	0.1626
347.638	0.1639
347.8473	0.1644
348.0566	0.1557
348.2659	0.1578
348.4752	0.1637
348.6845	0.1734
348.8937	0.1666
349.103	0.1638
349.3122	0.1661
349.5214	0.164
349.7306	0.1741
349.9398	0.1674
350.149	0.1615
350.3582	0.1734
350.5674	0.1721
350.7765	0.1779
350.9856	0.1646
351.1948	0.1751
351.4039	0.174
351.613	0.1723
351.822	0.1811
352.0311	0.1772
352.2402	0.1754
352.4492	0.1743
352.6582	0.1709
352.8672	0.1757
353.0762	0.1784
353.2852	0.1758
353.4942	0.1775
353.7032	0.1752
353.9121	0.1765
354.1211	0.1859
354.33	0.1807
354.5389	0.1783
354.7478	0.1766
354.9567	0.1835
355.1655	0.1838
355.3744	0.1847
355.5833	0.1831
355.7921	0.1934
356.0009	0.1786
356.2097	0.1856
356.4185	0.1893
356.6273	0.1804
356.8361	0.1912
357.0448	0.1881
357.2536	0.1855
357.4623	0.1869
357.671	0.1977
357.8797	0.1945
358.0884	0.1912
358.2971	0.1967
358.5057	0.1931
358.7144	0.19
358.923	0.1935
359.1316	0.2046
359.3402	0.1991
359.5488	0.1958
359.7574	0.1978
359.966	0.1982
360.1746	0.1896
360.3831	0.2058
360.5916	0.2009
360.8002	0.2053
361.0087	0.2038
361.2172	0.2034
361.4256	0.1993
361.6341	0.204
361.8426	0.2108
362.051	0.2111
362.2594	0.203
362.4678	0.2179
362.6762	0.2125
362.8846	0.2128
363.093	0.2228
363.3014	0.2099
363.5097	0.2138
363.718	0.2227
363.9264	0.215
364.1347	0.2166
364.343	0.2166
364.5513	0.2182
364.7595	0.2335
364.9678	0.2287
365.176	0.231
365.3842	0.2312
365.5925	0.2218
365.8007	0.2372
366.0089	0.2387
366.217	0.2358
366.4252	0.2325
366.6333	0.2314
366.8415	0.2356
367.0496	0.2308
367.2577	0.2358
367.4658	0.2395
367.6739	0.2405
367.882	0.2448
368.09	0.2316
368.2981	0.2451
368.5061	0.2409
368.7141	0.2433
368.9221	0.2468
369.1301	0.2475
369.3381	0.2569
369.5461	0.2557
369.754	0.246
369.962	0.2415
370.1699	0.251
370.3778	0.2588
370.5857	0.2514
370.7936	0.2582
371.0015	0.2421
371.2093	0.2554
371.4172	0.2502
371.625	0.2562
371.8328	0.2565
372.0406	0.2614
372.2484	0.2687
372.4562	0.2664
372.664	0.2651
372.8717	0.2564
373.0795	0.2605
373.2872	0.2683
373.4949	0.2677
373.7026	0.2578
373.9103	0.2715
374.118	0.2686
374.3256	0.2759
374.5333	0.269
374.7409	0.2668
374.9485	0.2674
375.1561	0.2698
375.3637	0.2657
375.5713	0.267
375.7789	0.2699
375.9864	0.273
376.194	0.2781
376.4015	0.2741
376.609	0.2741
376.8165	0.2779
377.024	0.2769
377.2315	0.286
377.4389	0.2789
377.6464	0.2829
377.8538	0.282
378.0612	0.2897
378.2686	0.2804
378.476	0.2932
378.6834	0.288
378.8908	0.2866
379.0981	0.2868
379.3055	0.2847
379.5128	0.2875
379.7201	0.291
379.9274	0.2879
380.1347	0.2866
380.342	0.298
380.5492	0.2894
380.7565	0.2951
380.9637	0.2944
381.1709	0.2809
381.3781	0.3062
381.5853	0.2911
381.7925	0.2897
381.9997	0.2912
382.2068	0.303
382.4139	0.2982
382.6211	0.3054
382.8282	0.3005
383.0353	0.3056
383.2424	0.2927
383.4494	0.3024
383.6565	0.3019
383.8635	0.2988
384.0706	0.305
384.2776	0.3091
384.4846	0.3098
384.6916	0.3095
384.8986	0.309
385.1055	0.3125
385.3125	0.2969
385.5194	0.307
385.7263	0.2994
385.9333	0.3072
386.1402	0.3106
386.347	0.2955
386.5539	0.3008
386.7608	0.3005
386.9676	0.3085
387.1744	0.3052
387.3813	0.3066
387.5881	0.2912
387.7948	0.3084
388.0016	0.3227
388.2084	0.2974
388.4151	0.3025
388.6219	0.3063
388.8286	0.3065
389.0353	0.3075
389.242	0.3
389.4487	0.3008
389.6553	0.2983
389.862	0.2905
390.0686	0.3065
390.2753	0.3004
390.4819	0.3065
390.6885	0.2983
390.8951	0.2973
391.1016	0.2903
391.3082	0.2963
391.5147	0.2938
391.7213	0.3064
391.9278	0.2978
392.1343	0.2896
392.3408	0.2944
392.5473	0.2811
392.7537	0.2919
392.9602	0.2854
393.1666	0.2873
393.373	0.28
393.5794	0.2842
393.7858	0.2942
393.9922	0.2766
394.1986	0.2743
394.4049	0.2764
394.6113	0.2791
394.8176	0.2763
395.0239	0.2747
395.2302	0.2815
395.4365	0.2782
395.6428	0.2718
395.8491	0.2724
396.0553	0.2674
396.2615	0.2684
396.4678	0.2822
396.674	0.2605
396.8802	0.2684
397.0863	0.2597
397.2925	0.2679
397.4987	0.2709
397.7048	0.2756
397.9109	0.2598
398.117	0.2616
398.3231	0.2648
398.5292	0.2556
398.7353	0.2575
398.9413	0.2517
399.1474	0.2566
399.3534	0.2583
399.5594	0.2591
399.7654	0.2598
399.9714	0.2653
400.1774	0.2624
400.3833	0.26
400.5893	0.2596
400.7952	0.2655
401.0011	0.26
401.207	0.2629
401.4129	0.2516
401.6188	0.2607
401.8247	0.2769
402.0305	0.2561
402.2364	0.2635
402.4422	0.2624
402.648	0.2635
402.8538	0.2565
403.0596	0.2554
403.2654	0.2577
403.4711	0.2613
403.6768	0.2631
403.8826	0.2601
404.0883	0.2629
404.294	0.251
404.4997	0.2664
404.7054	0.2613
404.911	0.2546
405.1167	0.2664
405.3223	0.2489
405.5279	0.271
405.7335	0.2539
405.9391	0.2587
406.1447	0.2539
406.3502	0.2573
406.5558	0.2624
406.7613	0.25
406.9668	0.2605
407.1724	0.256
407.3778	0.2586
407.5833	0.2506
407.7888	0.2595
407.9942	0.2567
408.1997	0.2626
408.4051	0.2571
408.6105	0.2665
408.8159	0.2582
409.0213	0.2593
409.2267	0.2659
409.432	0.2592
409.6374	0.2561
409.8427	0.2607
410.048	0.2634
410.2533	0.2549
410.4586	0.2577
410.6639	0.2611
410.8691	0.2524
411.0744	0.2485
411.2796	0.2508
411.4848	0.2634
411.69	0.2485
411.8952	0.2543
412.1004	0.2653
412.3056	0.2497
412.5107	0.2577
412.7158	0.2737
412.921	0.2565
413.1261	0.2586
413.3312	0.2521
413.5362	0.2643
413.7413	0.256
413.9464	0.25
414.1514	0.2606
414.3564	0.2554
414.5614	0.2506
414.7664	0.2454
414.9714	0.2481
415.1764	0.2666
415.3813	0.25
415.5863	0.2632
415.7912	0.2473
415.9961	0.248
416.201	0.2562
416.4059	0.2478
416.6108	0.2491
416.8156	0.249
417.0205	0.2516
417.2253	0.2521
417.4301	0.2421
417.6349	0.2534
417.8397	0.2463
418.0445	0.2351
418.2492	0.2469
418.454	0.2601
418.6587	0.2457
418.8634	0.2502
419.0681	0.2604
419.2728	0.2479
419.4775	0.2618
419.6822	0.2399
419.8868	0.239
420.0915	0.2405
420.2961	0.2355
420.5007	0.2514
420.7053	0.2444
420.9099	0.2402
421.1144	0.2339
421.319	0.2383
421.5235	0.2283
421.728	0.2451
421.9325	0.2435
422.137	0.2266
422.3415	0.2323
422.546	0.2281
422.7504	0.2354
422.9549	0.2307
423.1593	0.231
423.3637	0.2318
423.5681	0.2302
423.7725	0.2254
423.9769	0.2261
424.1812	0.2098
424.3856	0.2193
424.5899	0.2262
424.7942	0.216
424.9985	0.2258
425.2028	0.2319
425.4071	0.2179
425.6113	0.2195
425.8156	0.2241
426.0198	0.2201
426.224	0.2194
426.4282	0.2157
426.6324	0.2067
426.8366	0.2021
427.0407	0.2104
427.2449	0.205
427.449	0.2095
427.6531	0.2137
427.8572	0.2104
428.0613	0.2132
428.2654	0.2049
428.4694	0.1937
428.6735	0.1966
428.8775	0.1958
429.0815	0.2024
429.2855	0.1999
429.4895	0.1975
429.6935	0.1991
429.8975	0.1897
430.1014	0.1992
430.3053	0.1967
430.5093	0.1894
430.7132	0.1888
430.9171	0.1825
431.1209	0.1804
431.3248	0.187
431.5286	0.1748
431.7325	0.1921
431.9363	0.1865
432.1401	0.1739
432.3439	0.1759
432.5477	0.1664
432.7514	0.1674
432.9552	0.175
433.1589	0.157
433.3627	0.1717
433.5664	0.1577
433.7701	0.165
433.9737	0.1717
434.1774	0.1638
434.3811	0.1499
434.5847	0.1568
434.7883	0.1519
434.9919	0.1511
435.1955	0.1552
435.3991	0.1544
435.6027	0.1462
435.8062	0.1536
436.0098	0.1378
436.2133	0.1452
436.4168	0.1432
436.6203	0.1294
436.8238	0.1331
437.0272	0.1327
437.2307	0.1386
437.4341	0.1288
437.6375	0.1304
437.841	0.1287
438.0443	0.1353
438.2477	0.1214
438.4511	0.1301
438.6545	0.1249
438.8578	0.1256
439.0611	0.1312
439.2644	0.1165
439.4677	0.1186
439.671	0.1133
439.8743	0.1152
440.0775	0.1154
440.2808	0.1162
440.484	0.1024
440.6872	0.1128
440.8904	0.0907
441.0936	0.1011
441.2967	0.0829
441.4999	0.0905
441.703	0.0966
441.9062	0.099
442.1093	0.1076
442.3124	0.0985
442.5155	0.0949
442.7185	0.0832
442.9216	0.0811
443.1246	0.0888
443.3276	0.0868
443.5307	0.0803
443.7337	0.0884
443.9366	0.0789
444.1396	0.0796
444.3426	0.0791
444.5455	0.076
444.7484	0.0823
444.9513	0.0732
445.1542	0.0824
445.3571	0.0714
445.56	0.0658
445.7628	0.0643
445.9657	0.079
446.1685	0.0756
446.3713	0.0725
446.5741	0.0761
446.7769	0.0735
446.9797	0.0661
447.1824	0.0653
447.3852	0.0542
447.5879	0.063
447.7906	0.0544
447.9933	0.0642
448.196	0.0499
448.3986	0.044
448.6013	0.0468
448.8039	0.0553
449.0066	0.0598
449.2092	0.0575
449.4118	0.0529
449.6143	0.0494
449.8169	0.0562
450.0195	0.0498
450.222	0.0545
450.4245	0.0512
450.627	0.0378
450.8295	0.0445
451.032	0.0354
451.2345	0.0404
451.4369	0.0469
451.6394	0.0387
451.8418	0.0382
452.0442	0.0458
452.2466	0.0329
452.449	0.0363
452.6513	0.0371
452.8537	0.0284
453.056	0.0323
453.2583	0.0337
453.4607	0.0276
453.663	0.0318
453.8652	0.0245
454.0675	0.0353
454.2697	0.0259
454.472	0.0262
454.6742	0.0394
454.8764	0.0325
455.0786	0.0343
455.2808	0.0281
455.4829	0.0259
455.6851	0.0279
455.8872	0.0249
456.0893	0.0308
456.2915	0.0216
456.4935	0.0326
456.6956	0.0219
456.8977	0.0235
457.0997	0.0266
457.3018	0.024
457.5038	0.0238
457.7058	0.0269
457.9078	0.0251
458.1098	0.0195
458.3117	0.0322
458.5137	0.0012
458.7156	0.0246
458.9175	0.0233
459.1194	0.0192
459.3213	0.0172
459.5232	0.0182
459.725	0.0151
459.9269	0.0234
460.1287	0.0139
460.3305	0.0179
460.5323	0.0178
460.7341	0.022
460.9359	0.0091
461.1376	0.0172
461.3394	0.0173
461.5411	0.0192
461.7428	0.0132
461.9445	0.0135
462.1462	0.0153
462.3479	0.0147
462.5495	0.0181
462.7512	0.0207
462.9528	0.0109
463.1544	0.0065
463.356	0.0072
463.5576	0.0177
463.7592	0.0216
463.9607	0.0113
464.1623	0.0132
464.3638	0.0136
464.5653	0.0141
464.7668	0.0137
464.9683	0.0106
465.1697	0.001
465.3712	0.0043
465.5726	0.0053
465.7741	0.0111
465.9755	0.0099
466.1769	0.0096
466.3782	0.0016
466.5796	0.0058
466.7809	0.0148
466.9823	0.0058
467.1836	0.009
467.3849	0.0065
467.5862	0.0003
467.7875	0.0093
467.9887	0.0131
468.19	0.0131
468.3912	0.0153
468.5924	0.0071
468.7936	0.0126
468.9948	0.0006
469.196	0.0094
469.3972	-0.0013
469.5983	0.0081
469.7994	0.0162
470.0006	-0.0006
470.2017	0.0025
470.4027	0.0233
470.6038	0.0092
470.8049	0.0136
471.0059	0.0114
471.2069	0.0032
471.408	0.0109
471.6089	0.0097
471.8099	0.0092
472.0109	0.011
472.2119	0.0068
472.4128	0.0098
472.6137	0.0017
472.8146	0.0075
473.0155	0.0127
473.2164	0.0123
473.4173	-0.0021
473.6181	-0.0051
473.819	0.0024
474.0198	-0.0034
474.2206	0.0012
474.4214	0.01
474.6222	-0.004
474.8229	-0.0011
475.0237	0.008
475.2244	0.0127
475.4251	0.0074
475.6258	0.0021
475.8265	0.0126
476.0272	0.0015
476.2278	0.0144
476.4285	0.004
476.6291	0.0078
476.8297	0.0095
477.0303	0.0003
477.2309	0.01
477.4315	0.0122
477.632	0.0002
477.8326	0.0063
478.0331	0.0153
478.2336	0.0032
478.4341	0.0037
478.6346	0.0016
478.8351	0.0019
479.0355	0.0093
479.236	0.0101
479.4364	0.0002
479.6368	0.0041
479.8372	0.0008
480.0376	0.0039
480.2379	0.0072
480.4383	0.0136
480.6386	-0.0038
480.8389	-0.0039
481.0392	0.0018
481.2395	0.0041
481.4398	0.0055
481.6401	0.0008
481.8403	-0.0047
482.0405	0.0044
482.2408	0.0026
482.441	0.0074
482.6411	0.002
482.8413	-0.0024
483.0415	0.0127
483.2416	-0.0019
483.4417	0.0067
483.6419	-0.0052
483.8419	0.0034
484.042	0.0021
484.2421	-0.0051
484.4422	0.0025
484.6422	0.0043
484.8422	0.0039
485.0422	0.0075
485.2422	0.0047
485.4422	0.0045
485.6422	-0.0001
485.8421	0.0045
486.042	0.0083
486.242	-0.0027
486.4419	-0.0021
486.6417	-0.0027
486.8416	0.001
487.0415	-0.0017
487.2413	-0.0059
487.4411	0.0107
487.641	0.0049
487.8408	0.0061
488.0405	0.0051
488.2403	-0.0034
488.4401	-0.0048
488.6398	0.0003
488.8395	0.0036
489.0392	0.0082
489.2389	0.0078
489.4386	-0.0038
489.6383	-0.0001
489.8379	0.0032
490.0376	0.0028
490.2372	-0.0016
490.4368	-0.0034
490.6364	-0.001
490.836	0.0034
491.0355	-0.0065
491.2351	-0.0013
491.4346	0.0035
491.6341	-0.0041
491.8336	0.007
492.0331	0.0069
492.2326	0.0044
492.432	0.0111
492.6315	-0.0001
492.8309	0.0046
493.0303	-0.0022
493.2297	0.0084
493.4291	0.0029
493.6284	0.0118
493.8278	-0.0004
494.0271	0.002
494.2264	0.003
494.4257	0.0043
494.625	0.006
494.8243	-0.0075
495.0236	0.0102
495.2228	0.0086
495.422	0.0069
495.6213	0.0075
495.8205	0.0059
496.0196	0.0051
496.2188	0.0017
496.418	0.0043
496.6171	0.0002
496.8162	0.0003
497.0153	0.0031
497.2144	-0.006
497.4135	0.0009
497.6126	0.0037
497.8116	-0.007
498.0107	0.0039
498.2097	0.0033
498.4087	0.0007
498.6077	-0.0093
498.8067	0.0044
499.0056	0.0046
499.2046	0.01
499.4035	0.0079
499.6024	-0.0004
499.8013	0.0106
500.0002	0.0044
500.199	0.0034
500.3979	-0.0036
500.5967	0.0015
500.7956	0.0066
500.9944	0.0006
501.1932	0.0138
501.3919	0.0088
501.5907	0.0106
501.7895	-0.0056
501.9882	0.0082
502.1869	0.0001
502.3856	0.0038
502.5843	0.0016
502.783	0.0065
502.9816	0.0045
503.1803	0.0023
503.3789	0.0078
503.5775	0.0012
503.7761	0.0012
503.9747	0.0055
504.1732	-0.006
504.3718	0.0095
504.5703	0.006
504.7689	0.0017
504.9674	0.0002
505.1658	0.0031
505.3643	0.0094
505.5628	0.0074
505.7612	0.0066
505.9597	-0.002
506.1581	0.008
506.3565	0.0044
506.5549	0.0038
506.7532	-0.0011
506.9516	-0.0002
507.1499	0.0058
507.3482	-0.0087
507.5465	0.0059
507.7448	0.0019
507.9431	-0.0012
508.1414	-0.0047
508.3396	0.0033
508.5379	0.0016
508.7361	0.0097
508.9343	0.0077
509.1325	0.0079
509.3306	0.0008
509.5288	-0.0079
509.7269	0.0055
509.9251	0.0139
510.1232	0.0053
510.3213	0.007
510.5193	0.0005
510.7174	-0.0014
510.9154	0.0062
511.1135	-0.0049
511.3115	0.0048
511.5095	0.0024
511.7075	0.0041
511.9055	0.0056
512.1034	-0.001
512.3014	-0.0019
512.4993	0.0022
512.6972	0.002
512.8951	0.0027
513.093	0.0009
513.2908	0.0121
513.4887	0.0053
513.6865	0.0029
513.8844	-0.0005
514.0822	0.0033
514.2799	-0.0107
514.4777	-0.0064
514.6755	-0.003
514.8732	0.0017
515.0709	-0.0018
515.2687	-0.0019
515.4664	0.0126
515.664	0.0096
515.8617	0.0091
516.0594	0.0068
516.257	0.0087
516.4546	0.0105
516.6522	0.0054
516.8498	0.0063
517.0474	0.009
517.2449	0.0005
517.4425	-0.0003
517.64	0.0009
517.8375	0.0049
518.035	-0.005
518.2325	0.0026
518.43	0.0019
518.6274	-0.0055
518.8249	-0.0045
519.0223	0.0128
519.2197	0.0033
519.4171	-0.0061
519.6145	0.007
519.8118	-0.0094
520.0092	-0.0035
520.2065	-0.0016
520.4038	-0.0021
520.6011	0.0049
520.7984	0.0131
520.9956	0.0109
521.1929	0.0096
521.3901	0.0047
521.5874	0.0107
521.7846	-0.0079
521.9818	0.0031
522.1789	-0.0094
522.3761	0.0142
522.5732	0.0078
522.7704	-0.0026
522.9675	-0.0038
523.1646	-0.0025
523.3617	0.001
523.5587	0.0042
523.7558	0.0069
523.9528	0.0102
524.1498	-0.0015
524.3468	0.0059
524.5438	0.008
524.7408	0.0042
524.9378	0.0034
525.1347	0.0013
525.3316	-0.001
525.5285	0.0017
525.7254	0.003
525.9223	0.0098
526.1192	0.0034
526.316	0.0094
526.5129	0.0152
526.7097	0.0102
526.9065	0.008
527.1033	0.0003
527.3	0.0027
527.4968	0.0076
527.6935	-0.0004
527.8903	-0.0058
528.087	-0.0039
528.2837	0.0079
528.4804	0.0067
528.677	0.0073
528.8737	-0.0041
529.0703	0.001
529.2669	0.0104
529.4635	-0.0068
529.6601	-0.0094
529.8567	-0.005
530.0532	-0.0045
530.2498	0.0049
530.4463	-0.0092
530.6428	0.0015
530.8393	0.0078
531.0358	0.007
531.2322	-0.0046
531.4287	-0.0056
531.6251	-0.003
531.8215	-0.004
532.0179	-0.0039
532.2143	0.0161
532.4107	0.0047
532.607	-0.001
532.8034	-0.0049
532.9997	-0.0038
533.196	0.0002
533.3923	0.0057
533.5886	0.0005
533.7848	0.0051
533.9811	0.0067
534.1773	0.0045
534.3735	0.0016
534.5697	0.0011
534.7659	0.0037
534.9621	0.0095
535.1582	-0.0017
535.3544	0.0055
535.5505	0.0077
535.7466	0.001
535.9427	-0.0018
536.1387	0.0002
536.3348	0.0089
536.5308	-0.0055
536.7269	-0.0023
536.9229	-0.0012
537.1189	0.0051
537.3148	0.0116
537.5108	0.0044
537.7068	0.0115
537.9027	-0.0072
538.0986	0.0088
538.2945	-0.0036
538.4904	-0.0013
538.6863	0.0002
538.8821	0.0043
539.078	-0.0008
539.2738	0.0029
539.4696	-0.0048
539.6654	0.0006
539.8611	0.0006
540.0569	0.0016
540.2526	0.0107
540.4484	-0.009
540.6441	0.001
540.8398	0.0123
541.0355	-0.0071
541.2311	-0.0003
541.4268	0.0063
541.6224	0.006
541.818	-0.0038
542.0136	0.004
542.2092	0.0087
542.4048	0.0061
542.6003	0.001
542.7959	0.0047
542.9914	0.001
543.1869	-0.0027
543.3824	0.0049
543.5779	0.0092
543.7734	0.0092
543.9688	0.0122
544.1642	0.0054
544.3596	0.0161
544.555	-0.0014
544.7504	0.0133
544.9458	-0.0027
545.1411	0.0044
545.3365	0.0035
545.5318	0.0036
545.7271	0.0047
545.9224	0.0105
546.1177	-0.005
546.3129	-0.0066
546.5081	0.0035
546.7034	0.0014
546.8986	0.0033
547.0938	0.0061
547.289	0.0036
547.4841	0.0074
547.6793	0.002
547.8744	0.002
548.0695	-0.0049
548.2646	0.0026
548.4597	0.0014
548.6548	0.0111
548.8498	-0.0011
549.0448	0.0007
549.2399	0.013
549.4349	0.0006
549.6298	0.0127
549.8248	0.0026
550.0198	-0.0015
550.2147	0.0002
550.4096	0.0022
550.6045	0.0026
550.7994	0.0068
550.9943	0.0098
551.1892	-0.0042
551.384	0.0139
551.5788	0.0042
551.7737	0.0031
551.9685	0.0048
552.1632	0.0019
552.358	0.0056
552.5528	0.0027
552.7475	0.0025
552.9422	0.0063
553.1369	0.0098
553.3316	0.004
553.5263	0.0092
553.7209	0.0002
553.9156	0.0026
554.1102	0.0022
554.3048	0.003
554.4994	-0.0072
554.694	0.0018
554.8885	0.0029
555.0831	0.0149
555.2776	0.0055
555.4721	0.004
555.6666	0.004
555.8611	0.0043
556.0555	-0.0019
556.25	0.0085
556.4444	-0.0002
556.6388	-0.0006
556.8332	0.0089
557.0276	0.0067
557.222	-0.0018
557.4163	0.0034
557.6107	0.0042
557.805	-0.0017
557.9993	0.0014
558.1936	-0.0085
558.3879	0.004
558.5821	-0.0097
558.7764	0.0019
558.9706	-0.0022
559.1648	-0.0009
559.359	-0.01
559.5532	-0.0049
559.7473	-0.004
559.9415	0.0069
560.1356	0.0086
560.3297	-0.0007
560.5238	0.0095
560.7179	-0.0026
560.9119	0.0007
561.106	0.0018
561.3	0.0053
561.494	-0.0044
561.688	0.0045
561.882	-0.0036
562.076	0.006
562.2699	0.012
562.4639	0.0212
562.6578	0.0003
562.8517	0.0012
563.0456	0.0057
563.2395	0.0047
563.4333	0.0006
563.6272	0.0011
563.821	0.0047
564.0148	-0.0053
564.2086	-0.0077
564.4024	0.0073
564.5961	0.002
564.7899	0.0107
564.9836	-0.0043
565.1773	0.004
565.371	-0.0022
565.5647	0.0135
565.7584	0.0063
565.952	-0.0046
566.1456	0.0058
566.3393	0.0066
566.5329	0.0049
566.7264	0.0107
566.92	0.0034
567.1136	0.0018
567.3071	-0.0102
567.5006	0.008
567.6941	0.0037
567.8876	0.0067
568.0811	0.0151
568.2745	0.0023
568.468	0.0044
568.6614	0.0088
568.8548	0.0098
569.0482	0.0031
569.2416	0.005
569.4349	0.0013
569.6283	0.0003
569.8216	-0.0024
570.0149	0.0001
570.2082	0.0086
570.4015	0.0079
570.5947	0.0021
570.788	0.0056
570.9812	0.0038
571.1744	0.003
571.3676	0.0016
571.5608	0.0015
571.754	0.0089
571.9471	0.0032
572.1402	0.0092
572.3333	0.0056
572.5264	0.0015
572.7195	-0.0017
572.9126	0.0058
573.1057	0.0028
573.2987	0.0007
573.4917	0.0028
573.6847	-0.0003
573.8777	0.0087
574.0707	0.0016
574.2636	-0.0007
574.4566	0.0028
574.6495	0.0006
574.8424	0.0038
575.0353	0.0035
575.2281	0.0038
575.421	-0.003
575.6138	0.0016
575.8067	0.0037
575.9995	-0.001
576.1923	0.0013
576.385	0.0037
576.5778	0.0047
576.7706	0.0025
576.9633	0.0081
577.156	-0.0045
577.3487	0.0026
577.5414	-0.0016
577.734	0.0013
577.9267	0.0018
578.1193	0.0072
578.3119	-0.0002
578.5045	0.0024
578.6971	-0.0012
578.8897	0.0032
579.0822	0.0051
579.2747	0.0027
579.4673	0.0038
579.6598	0.003
579.8522	-0.0018
580.0447	0.0044
580.2372	0.006
580.4296	0.0039
580.622	0.0026
580.8144	0.0019
581.0068	0.0015
581.1992	0.0032
581.3915	-0.0001
581.5839	0.0061
581.7762	-0.0003
581.9685	0.0041
582.1608	0.0016
582.353	0.0008
582.5453	0.0054
582.7375	0.0055
582.9298	-0.0051
583.122	-0.0013
583.3142	0.008
583.5063	0.0003
583.6985	-0.0024
583.8906	-0.0003
584.0827	0.0018
584.2749	-0.0008
584.4669	0.0008
584.659	0.0042
584.8511	0.0036
585.0431	0.0029
585.2352	0.0032
585.4272	0.0045
585.6192	0.0027
585.8111	0.0009
586.0031	-0.0017
586.195	-0.0001
586.387	-0.0014
586.5789	0.0033
586.7708	0.0047
586.9627	-0.0008
587.1545	0.0008
587.3464	0.0073
587.5382	0.0006
587.73	0.0037
587.9218	-0.0006
588.1136	-0.0027
588.3053	0.0055
588.4971	-0.0013
588.6888	-0.0013
588.8805	-0
589.0722	0.0085
589.2639	0.0044
589.4556	0.0025
589.6472	0.0103
589.8389	0.0056
590.0305	-0.0031
590.2221	0.001
590.4137	0.0034
590.6052	0.0042
590.7968	0.0087
590.9883	0.011
591.1798	0.0015
591.3713	0.0013
591.5628	0.0076
591.7543	0.0062
591.9458	0.003
592.1372	0.01
592.3286	0.0008
592.52	0.0039
592.7114	0.0019
592.9028	0.0082
593.0941	0.0014
593.2855	0.0035
593.4768	0.0057
593.6681	0.0057
593.8594	0.0036
594.0506	0.0054
594.2419	0.0045
594.4331	0.0026
594.6244	-0.0019
594.8156	-0.0008
595.0067	0.0008
595.1979	0.0014
595.3891	-0.0007
595.5802	0.0061
595.7713	0.004
595.9624	0.008
596.1535	-0.0025
596.3446	-0.002
596.5357	0.0034
596.7267	0.0003
596.9177	0.0009
597.1087	0.0014
597.2997	0.0051
597.4907	-0.0092
597.6817	0.0075
597.8726	0.0096
598.0635	0.0023
598.2544	0.0061
598.4453	0.0023
598.6362	-0.0031
598.827	-0.0024
599.0179	-0.0002
599.2087	0.0037
599.3995	0.0013
599.5903	0.0082
599.7811	0.0102
599.9718	0.0007
600.1626	-0.0014
600.3533	0.0033
600.544	0.0002
600.7347	0.0048
600.9254	0.0021
601.116	0.0033
601.3067	-0.0006
601.4973	0.0065
601.6879	0.0001
601.8785	0.0046
602.0691	-0.0017
602.2596	0.0029
602.4502	0.0045
602.6407	0.0049
602.8312	0.0058
603.0217	0.0056
603.2122	0.0001
603.4027	0.0051
603.5931	-0.0017
603.7835	0.0025
603.9739	-0.0037
604.1643	0.0092
604.3547	0.0062
604.5451	0.0049
604.7354	-0.0057
604.9257	-0.0002
605.116	-0.0063
605.3063	0.0022
605.4966	-0.0015
605.6869	0.005
605.8771	0.0063
606.0673	0.0046
606.2575	-0.0013
606.4477	0.0053
606.6379	-0.0016
606.8281	-0.002
607.0182	0.0045
607.2083	-0.0001
607.3985	-0.0015
607.5885	-0.0008
607.7786	-0.0003
607.9687	0.0055
608.1587	0.0014
608.3488	-0.0004
608.5388	-0.0041
608.7288	-0.0015
608.9187	0.0027
609.1087	0.0095
609.2986	0.0051
609.4886	0.0077
609.6785	0.0062
609.8684	-0.0031
610.0582	-0.0014
610.2481	-0.0071
610.4379	-0
610.6278	0.0036
610.8176	0.0096
611.0074	0.0062
611.1971	0.0025
611.3869	0.006
611.5766	-0.0075
611.7664	0.0017
611.9561	0.0074
612.1458	0.0004
612.3354	-0.0001
612.5251	-0.0032
612.7147	0.0039
612.9044	-0.0002
613.094	0.0052
613.2836	-0.0023
613.4731	0.0032
613.6627	0.0021
613.8522	0.0035
614.0417	0.0016
614.2313	-0.0004
614.4207	0.0053
614.6102	0.0112
614.7997	0.0062
614.9891	-0.0006
615.1785	-0.0089
615.3679	0.0071
615.5573	-0.0014
615.7467	-0.0036
615.9361	-0.0001
616.1254	0.0025
616.3147	-0.002
616.504	-0.001
616.6933	0.0118
616.8826	-0.0007
617.0718	0.0061
617.2611	0.001
617.4503	-0.0048
617.6395	0.0041
617.8287	0.0041
618.0179	0.0012
618.207	0.0075
618.3961	0.0024
618.5853	0.002
618.7744	-0
618.9634	0.0047
619.1525	0.0059
619.3416	0.0026
619.5306	0.0096
619.7196	0.004
619.9086	-0.0016
620.0976	-0.0021
620.2866	0.0036
620.4755	-0.0037
620.6645	0.0129
620.8534	-0.0026
621.0423	0.0041
621.2312	-0.0056
621.42	-0.0028
621.6089	-0.0133
621.7977	0.0013
621.9865	0.0065
622.1753	-0.0047
622.3641	-0.0084
622.5529	-0.0031
622.7416	-0.0043
622.9303	-0.006
623.1191	0.0007
623.3078	-0.0069
623.4964	0.0016
623.6851	-0.0025
623.8737	-0.006
624.0624	-0.0106
624.251	0.0098
624.4396	-0.0002
624.6282	0.0115
624.8167	-0.003
625.0053	0.0065
625.1938	-0.0015
625.3823	0.0063
625.5708	-0.0038
625.7593	-0.0002
625.9477	0.0058
626.1362	0.0015
626.3246	-0.0076
626.513	0.0013
626.7014	0.0094
626.8898	0.0052
627.0781	0.0088
627.2665	0.0064
627.4548	-0.0094
627.6431	0.0081
627.8314	0.0084
628.0197	0.0101
628.2079	0.0016
628.3962	0.0118
628.5844	0.0065
628.7726	-0.0044
628.9608	0.0035
629.1489	-0.0056
629.3371	-0.0143
629.5252	-0.006
629.7134	0.0054
629.9015	0.003
630.0895	-0.0084
630.2776	0.0017
630.4657	0.0041
630.6537	0.0042
630.8417	-0.016
631.0297	0.0009
631.2177	-0.0015
631.4057	0.0039
631.5936	0.0052
631.7815	-0.0106
631.9695	0.0182
632.1574	0.008
632.3452	0.0095
632.5331	0.0143
632.7209	0.0019
632.9088	-0.0007
633.0966	0.0229
633.2844	0.0032
633.4722	0.0058
633.6599	0.0185
633.8477	0.0039
634.0354	0.0167
634.2231	-0.0132
634.4108	-0.0211
634.5985	0.0191
634.7861	-0.0004
634.9738	0.0003
635.1614	0.0196
635.349	0.0017
635.5366	0.0065
635.7242	-0.0039
635.9117	0.0033
636.0993	0.0009
636.2868	0.0044
636.4743	-0.0011
636.6618	-0.0099
636.8492	0.0088
637.0367	0.0025
637.2241	0.0047
637.4115	0.0145
637.5989	-0.0013
637.7863	0.0266
637.9737	0.0128
638.161	-0.0008
638.3484	-0.0065
638.5357	0.0053
638.723	0.0084
638.9103	-0.0134
639.0975	0.0081
639.2848	0.0053
639.472	0.0149
639.6592	-0.0165
639.8464	-0.0118
640.0336	-0.0008
640.2208	0.0011
640.4079	-0.0101
640.595	-0.0106
640.7821	-0.0039
640.9692	-0.0093
641.1563	0.0058
641.3434	0.017
641.5304	0.0288
641.7174	-0.0015
641.9044	-0.0033
642.0914	0.026
642.2784	0.0002
642.4653	-0.0102
642.6523	0.0074
642.8392	0.0085
643.0261	0.0108
643.213	0.0193
643.3999	0.0028
643.5867	0.006
643.7735	-0.007
643.9604	0.0124
644.1472	0.0103
644.3339	0.0088
644.5207	0.0009
644.7075	0.0059
644.8942	0.0073
645.0809	0.0014
645.2676	-0.0135
645.4543	-0.0089
645.6409	0.0116
645.8276	0.0195
646.0142	0.0175
646.2008	-0.0047
646.3874	-0.0047
646.574	-0.0199
646.7605	0.0234
646.9471	-0.0238
647.1336	-0.0054
647.3201	0.0061
647.5066	0.0013
647.6931	0.0078
647.8795	-0.0133
648.0659	0.0069
648.2524	0.0076
648.4388	-0.0021
648.6252	0.0044
648.8115	-0.016
648.9979	-0.0054
649.1842	0.0156
649.3705	0.0051
649.5568	-0.0083
649.7431	-0.0041
649.9294	0.005
650.1156	-0.013
650.3018	0.0073
650.488	0.0107
650.6742	0.0308
650.8604	-0.0144
651.0466	0.0088
651.2327	-0.0105
651.4188	0.0042
651.6049	0.0155
651.791	0.0012
651.9771	0.0041
652.1632	0.0319
652.3492	-0.0111
652.5352	0.0024
652.7212	0.0055
652.9072	-0.0061
653.0932	0.0124
653.2791	-0.0055
653.465	-0.0104
653.651	-0.0058
653.8369	0.0098
654.0227	-0.0032
654.2086	-0.0076
654.3944	0.0085
654.5803	-0.0054
654.7661	0.0011
654.9519	0.0002
655.1377	-0.0001
655.3234	-0.0001
655.5092	-0.0001
655.6949	-0.0001
655.8806	-0.0001
656.0663	-0.0001
656.2519	-0.0001
656.4376	-0.0001
656.6232	-0.0001
656.8088	-0.0001
656.9945	-0.0001
657.18	-0.0001
657.3656	-0.0001
657.5511	-0.0001
657.7367	-0.0001
657.9222	-0.0001
658.1077	-0.0001
658.2932	-0.0001
658.4786	-0.0001
658.6641	-0.0001
658.8495	-0.0001
659.0349	-0.0001
659.2203	-0.0001
659.4057	-0.0001
659.591	0.0772
659.7764	0.0078
659.9617	-0.0088
660.147	-0
660.3323	0.0087
660.5176	0.0032
660.7028	-0.0166
660.888	0.0068
661.0733	0.0066
661.2585	-0.0221
661.4436	0.012
661.6288	0.0145
661.8139	-0.0001
661.9991	-0.025
662.1842	-0.0136
662.3693	-0.0016
662.5544	-0.0021
662.7394	0.013
662.9245	0.0099
663.1095	-0.0162
663.2945	-0.0263
663.4795	-0.0127
663.6644	-0.0048
663.8494	0.0012
664.0343	0.004
664.2193	-0.0003
664.4042	-0.0072
664.589	0.0162
664.7739	-0.0083
664.9587	-0.0215
665.1436	-0.0095
665.3284	0.0116
665.5132	-0.0279
665.698	0.0098
665.8827	-0.0065
666.0675	-0.0063
666.2522	0.0033
666.4369	0.0148
666.6216	0.0016
666.8063	-0.0035
666.9909	-0.0011
667.1756	0.0016
667.3602	-0.0249
667.5448	-0.002
667.7294	-0.0061
667.9139	-0.0076
668.0985	0.0074
668.283	0.0033
668.4675	0.025
668.652	-0.0077
668.8365	-0.0086
669.0209	-0.0096
669.2054	0.0151
669.3898	0.0028
669.5742	0.0059
669.7586	-0.006
669.943	-0.0138
670.1273	0.006
670.3117	0.0148
670.496	0.0087
670.6803	0.0155
670.8646	-0.0273
671.0488	0.0271
671.2331	-0.0207
671.4173	0.0047
671.6015	-0.0142
671.7857	0.0031
671.9699	0.0137
672.1541	-0.013
672.3382	0.0088
672.5223	0.0094
672.7064	0.0033
672.8905	-0.0028
673.0746	0.0032
673.2587	0.0375
673.4427	0.0059
673.6267	0.02
673.8107	0.001
673.9947	0.0121
674.1787	0.032
674.3626	-0.0158
674.5465	0.005
674.7304	0.0111
674.9143	0.0048
675.0982	0.0033
675.2821	-0.0006
675.4659	-0.0068
675.6497	0.0142
675.8335	-0.0225
676.0173	-0.0119
676.2011	0.0157
676.3849	-0.0064
676.5686	0.0094
676.7523	-0.0197
676.936	0.0029
677.1197	-0.009
677.3034	0.0323
677.487	0.0117
677.6706	0.0042
677.8542	-0.0144
678.0378	0.0083
678.2214	0.0037
678.405	0.013
678.5885	0.0083
678.772	-0.005
678.9555	0.0198
679.139	0.0145
679.3225	-0.0092
679.5059	-0.0069
679.6894	0.0089
679.8728	0.0094
680.0562	-0.0005
680.2395	-0.0169
680.4229	-0.0079
680.6062	0.0091
680.7896	-0.0111
680.9729	0.002
681.1562	0.0143
681.3394	0.0036
681.5227	0.0106
681.7059	0.0148
681.8891	0.0102
682.0723	0.0017
682.2555	-0.0141
682.4387	0.0064
682.6218	-0.0122
682.805	0.0022
682.9881	0.0059
683.1712	0.0113
683.3542	0.015
683.5373	-0.0097
683.7203	-0.0069
683.9034	0.0031
684.0864	-0.0007
684.2694	-0.0098
684.4523	0.0059
684.6353	-0.0063
684.8182	-0.0139
685.0011	0.0102
685.184	0.0048
685.3669	0.0086
685.5498	-0.0045
685.7326	-0.0125
685.9154	-0.005
686.0982	0.0011
686.281	-0.0052
686.4638	0.0078
686.6465	-0.0033
686.8293	-0.017
687.012	0.0018
687.1947	0.0089
687.3774	-0.0009
687.56	-0.0142
687.7427	-0.0166
687.9253	-0.0267
688.1079	0.0119
688.2905	0.0017
688.4731	0.0162
688.6556	-0.0034
688.8382	-0.0116
689.0207	-0.0178
689.2032	0.0216
689.3857	-0.0064
689.5681	-0.0012
689.7506	0.0107
689.933	0.0015
690.1154	0.0244
690.2978	0.0027
690.4802	0.0197
690.6626	0.0239
690.8449	0.0148
691.0272	-0.006
691.2095	-0.0102
691.3918	-0.0022
691.5741	0.0015
691.7563	-0.003
691.9386	0.0158
692.1208	-0.003
692.303	-0.0013
692.4852	0.0146
692.6673	-0.0086
692.8495	-0.0073
693.0316	0.0069
693.2137	0.0026
693.3958	0.0053
693.5778	0.0055
693.7599	-0.0105
693.9419	-0.007
694.1239	0.0051
694.3059	0.0196
694.4879	0.0009
694.6699	-0.0118
694.8518	0.0138
695.0337	-0.0126
695.2157	0.0394
695.3975	-0.0154
695.5794	-0.0179
695.7613	0.0333
695.9431	-0.0363
696.1249	0.0277
696.3067	-0.0177
696.4885	0.0251
696.6703	-0.004
696.852	-0.0106
697.0337	0.0162
697.2154	-0.0076
697.3971	0.0006
697.5788	0.011
697.7605	-0.0091
697.9421	0.0091
698.1237	0.0097
698.3053	-0.0092
698.4869	-0.0075
698.6685	-0.0159
698.85	0.0344
699.0315	-0.0096
699.213	0.0218
699.3945	0.0023
699.576	0.0183
699.7575	0.0189
699.9389	0.0141
700.1203	-0.0173
700.3017	0.013
700.4831	-0.0016
700.6645	0.0148
700.8458	-0.0064
701.0271	0.0312
701.2084	-0.0055
701.3897	0.0174
701.571	-0.0146
701.7523	0.0013
701.9335	0.0192
702.1147	0.0026
702.2959	-0.0245
702.4771	0.0157
702.6583	0.0121
702.8394	-0.0313
703.0205	0.0243
703.2016	-0.0026
703.3827	-0.0211
703.5638	0.0026
703.7449	0.0209
703.9259	0.0116
704.1069	-0.0009
704.2879	0.0211
704.4689	-0.0058
704.6499	0.0214
704.8308	-0.0129
705.0117	-0.0191
705.1927	-0.004
705.3735	0.021
705.5544	0.0168
705.7353	-0.0161
705.9161	-0.0162
706.0969	0.0113
706.2777	-0.0019
706.4585	-0.0053
706.6393	0.0055
706.82	0.0129
707.0007	-0.0081
707.1815	-0.0125
707.3621	0.0354
707.5428	0.0004
707.7235	-0.0142
707.9041	0.017
708.0847	-0.0103
708.2653	0.0092
708.4459	0.0144
708.6265	-0.0492
708.807	0.0111
708.9875	-0.0066
709.168	-0.0088
709.3485	0.0089
709.529	0.0063
709.7095	-0.0209
709.8899	0.0112
710.0703	0.0052
710.2507	0.0225
710.4311	-0.0223
710.6115	0.0049
710.7918	0.0156
710.9721	0.0162
711.1524	0.0055
711.3327	-0.0189
711.513	0.0153
711.6932	-0.0291
711.8735	0.0308
712.0537	-0.0021
712.2339	0.0093
712.4141	0.0105
712.5942	-0.0297
712.7744	0.0029
712.9545	0.006
713.1346	0.0306
713.3147	-0.0065
713.4947	-0.0192
713.6748	0.0085
713.8548	0.0071
714.0348	0.001
714.2148	0.0106
714.3948	0.0127
714.5748	0.0017
714.7547	0.0124
714.9346	0.0211
715.1145	-0.0054
715.2944	-0.0291
715.4743	-0.0012
715.6541	-0.0295
715.834	0.0082
716.0138	0.0056
716.1936	-0.0101
716.3733	-0.0081
716.5531	-0.0012
716.7328	-0.0037
716.9126	0.0152
717.0923	-0.016
717.2719	-0.0269
717.4516	-0.0013
717.6312	-0.024
717.8109	0.0207
717.9905	0.0228
718.1701	0.0129
718.3496	-0.0063
718.5292	-0.0012
718.7087	-0.0053
718.8882	0.0317
719.0677	0.0228
719.2472	-0.0257
719.4267	0.0259
719.6061	-0.0169
719.7856	0.0059
719.965	-0.0182
720.1443	-0.0233
720.3237	-0.0025
720.5031	0.0049
720.6824	-0.0065
720.8617	0.0071
721.041	0.0003
721.2203	-0.0171
721.3995	0.0107
721.5788	-0.0028
721.758	-0.0128
721.9372	-0.0041
722.1164	-0.0018
722.2956	-0.0045
722.4747	0.0223
722.6538	0.0017
722.8329	0.032
723.012	0.0029
723.1911	-0.0101
723.3702	0.0278
723.5492	0.0094
723.7282	0.0081
723.9072	0.002
724.0862	-0.0037
724.2652	0.0059
724.4441	0.0007
724.623	-0.0209
724.8019	0.0042
724.9808	-0.0085
725.1597	-0.0223
725.3385	0.0088
725.5174	-0.0031
725.6962	0.0051
725.875	-0.0017
726.0538	-0.0056
726.2325	0.0315
726.4112	-0.0151
726.59	-0.0043
726.7687	-0.003
726.9474	0.0056
727.126	0.0326
727.3047	-0.0044
727.4833	-0.0098
727.6619	-0.0135
727.8405	-0.0149
728.0191	0.0143
728.1976	-0.0015
728.3762	0.0108
728.5547	-0.0165
728.7332	0.0121
728.9116	-0.0055
729.0901	0.0066
729.2686	0.013
729.447	0.0047
729.6254	-0.001
729.8038	-0.0088
729.9821	-0.0269
730.1605	0.0138
730.3388	-0.0035
730.5171	0.0211
730.6954	-0.0084
730.8737	-0.009
731.0519	-0.0039
731.2302	-0.0034
731.4084	-0.0069
731.5866	-0.0087
731.7648	-0.0084
731.9429	0.0011
732.1211	-0.016
732.2992	-0.0049
732.4773	-0.0079
732.6554	-0.0151
732.8335	0.0152
733.0115	0.0193
733.1896	-0.0176
733.3676	0.0099
733.5456	-0.0172
733.7235	-0.0032
733.9015	0.0047
734.0794	-0.0046
734.2574	-0.0182
734.4353	0.0205
734.6131	0.0092
734.791	-0.0034
734.9689	-0.0057
735.1467	0.001
735.3245	-0.0184
735.5023	-0.0092
735.68	0.0071
735.8578	0.0086
736.0355	-0.0022
736.2132	0.0144
736.3909	0.0088
736.5686	-0.0044
736.7463	-0.0042
736.9239	0.0052
737.1015	0.0101
737.2791	0.0247
737.4567	0.0059
737.6343	-0.0176
737.8118	0.0066
737.9894	-0.0146
738.1669	0.0056
738.3444	0.0133
738.5218	-0.0363
738.6993	-0.0013
738.8767	-0.0011
739.0541	0.0055
739.2315	-0.0066
739.4089	0.0303
739.5863	0.006
739.7636	-0.0079
739.9409	-0.0005
740.1182	-0.0081
740.2955	0.0141
740.4728	-0.0184
740.65	-0.0263
740.8272	0.0083
741.0044	-0.0486
741.1816	0.03
741.3588	-0.0284
741.5359	-0.0296
741.7131	-0.0089
741.8902	-0.0151
742.0673	-0.0372
742.2444	0.0413
742.4214	0.0252
742.5985	-0.0047
742.7755	0.0189
742.9525	-0.0392
743.1295	-0.0125
743.3064	-0.0163
743.4834	0.0099
743.6603	0.0303
743.8372	-0.0219
744.0141	0.003
744.191	-0.0139
744.3678	-0.015
744.5446	0.0136
744.7215	-0.0175
744.8982	0.0134
745.075	0.0301
745.2518	0.0174
745.4285	0.0259
745.6052	-0.0282
745.7819	-0.0139
745.9586	0.0008
746.1353	-0.0006
746.3119	-0.0162
746.4885	0.0278
746.6651	0.0103
746.8417	-0.0195
747.0183	0.0316
747.1948	0.0157
747.3714	-0.0001
747.5479	0.0211
747.7244	0.001
747.9008	-0.0292
748.0773	-0.0054
748.2537	0.0015
748.4301	0.0279
748.6065	-0.0148
748.7829	-0.0373
748.9593	-0.018
749.1356	0.0107
749.3119	-0.001
749.4882	0.0055
749.6645	-0.014
749.8408	0.0047
750.017	0.0088
750.1933	-0.0371
750.3695	0.0148
750.5457	-0.0167
750.7218	-0.0142
750.898	-0.0113
751.0741	-0.0148
751.2502	0.0188
751.4263	0.0009
751.6024	0.0015
751.7784	-0.0169
751.9545	0.0126
752.1305	-0.0076
752.3065	0.0073
752.4825	0.0031
752.6584	0.0011
752.8344	-0.0056
753.0103	-0.027
753.1862	0.0223
753.3621	0.0085
753.5379	0.0097
753.7138	-0.0068
753.8896	0.0131
754.0654	0.0051
754.2412	-0.0008
754.417	-0.0054
754.5927	-0.0128
754.7685	0.0128
754.9442	0.0179
755.1199	0.0093
755.2956	0.0059
755.4712	0.0154
755.6469	-0.0186
755.8225	0.0067
755.9981	0.0066
756.1736	0.0147
756.3492	-0.0037
756.5248	0.0237
756.7003	-0.0102
756.8758	-0.006
757.0513	0.0074
757.2267	0.0027
757.4022	0.0009
757.5776	-0.0095
757.753	0.0187
757.9284	-0.0134
758.1038	0.009
758.2791	0.0077
758.4545	0.0014
758.6298	0.0137
758.8051	0.0037
758.9803	-0.0055
759.1556	0.002
759.3308	-0.0072
759.506	0.0015
759.6812	0.0023
759.8564	-0.0059
760.0316	-0.0149
760.2067	0.0184
760.3819	-0.0031
760.557	0.0095
760.732	0.0022
760.9071	0.0133
761.0821	-0.0187
761.2572	0.0094
761.4322	0.0101
761.6072	-0.0045
761.7821	-0.0355
761.9571	0.0078
762.132	0.0198
762.3069	0.0173
762.4818	0.0182
762.6567	-0.0277
762.8316	0.0023
763.0064	0.0249
763.1812	0.0135
763.356	-0.019
763.5308	0.0137
763.7055	0.0059
763.8803	-0.0111
764.055	0.0139
764.2297	-0.0084
764.4044	-0.0053
764.579	-0.0026
764.7537	0.0191
764.9283	0.0148
765.1029	-0.0113
765.2775	0.021
765.4521	-0.0057
765.6266	-0.0217
765.8011	0.0071
765.9756	-0.0104
766.1501	-0.0105
766.3246	0.0008
766.4991	-0.002
766.6735	0.0312
766.8479	0.0004
767.0223	0.007
767.1967	-0.0063
767.371	-0.0047
767.5454	0.02
767.7197	0.0255
767.894	-0.0136
768.0683	0.0296
768.2425	0.0017
768.4168	0.01
768.591	0.0138
768.7652	-0.0182
768.9394	-0.0298
769.1135	0.0025
769.2877	0.0105
769.4618	0.0377
769.6359	0.0003
769.81	0.0243
769.984	0.0109
770.1581	0.0022
770.3321	0.0132
770.5061	-0.0029
770.6801	0.0066
770.8541	-0.0056
771.028	0.0521
771.202	0.0145
771.3759	0.0022
771.5498	0.0144
771.7236	0.0035
771.8975	0.019
772.0713	0.0167
772.2451	-0.0064
772.4189	-0.0116
772.5927	-0.0275
772.7665	-0.0282
772.9402	0.0051
773.1139	-0.0253
773.2876	0.015
773.4613	-0.0285
773.635	0.017
773.8086	0.0016
773.9822	-0.0166
774.1558	0.0339
774.3294	-0.0329
774.503	0.0189
774.6765	0.0286
774.8501	-0.0156
775.0236	0.017
775.1971	-0.0347
775.3705	0.0006
775.544	-0.0672
775.7174	0.0131
775.8908	0.0277
776.0642	0.0165
776.2376	-0.0019
776.4109	0.0191
776.5843	-0.0157
776.7576	0.0304
776.9309	0.0336
777.1041	-0.0159
777.2774	0.0073
777.4506	-0.0487
777.6238	-0.0537
777.797	0.0034
777.9702	0.0104
778.1434	0.0201
778.3165	-0.039
778.4896	-0.0242
778.6627	0.0116
778.8358	0.001
779.0089	0.0017
779.1819	0.0281
779.3549	-0.0042
779.5279	-0.029
779.7009	0.0574
779.8739	0.0398
780.0468	-0.0009
780.2197	-0.0285
780.3926	0.0192
780.5655	-0.0047
780.7384	0.0231
780.9112	0.0365
781.0841	0.0078
781.2569	0.0173
781.4297	-0.0162
781.6024	-0.0006
781.7752	0.0388
781.9479	0.0187
782.1206	-0.0012
782.2933	-0.0146
782.466	0.0025
782.6386	-0.0075
782.8113	0.0063
782.9839	-0.0252
783.1565	0.0213
783.329	-0.0059
783.5016	0.0143
783.6741	0.0017
783.8466	0.0414
784.0191	0.0165
784.1916	-0.0284
784.3641	-0.054
784.5365	0.0209
784.7089	-0.0347
784.8813	0.0623
785.0537	0.0347
785.2261	0.0058
785.3984	-0.0077
785.5707	-0.0133
785.743	0.0113
785.9153	-0.0451
786.0876	-0.0664
786.2598	-0.0032
786.432	0.0043
786.6042	0.0292
786.7764	-0.0143
786.9486	-0.036
787.1207	-0.0075
787.2928	0.0306
787.4649	-0.0066
787.637	-0.0054
787.8091	0.0153
787.9811	0.0384
788.1532	0.0097
788.3252	0.0045
788.4972	-0.0126
788.6691	0.0028
788.8411	-0.0253
789.013	-0.028
789.1849	-0.0016
789.3568	0.0158
789.5287	0.0755
789.7005	-0.0205
789.8723	-0.0438
790.0442	-0.0291
790.2159	-0.0175
790.3877	-0.0011
790.5595	0.0221
790.7312	-0.0091
790.9029	0.0349
791.0746	-0.0277
791.2463	-0.0699
791.4179	-0.0065
791.5896	-0.0051
791.7612	0.016
791.9328	-0.0552
792.1044	0.0101
792.2759	-0.0762
792.4474	-0.0413
792.619	-0.0115
792.7905	0.0402
792.9619	0.0253
793.1334	0.0347
793.3048	0.0409
793.4762	-0.0191
793.6476	-0.0936
793.819	-0.0035
793.9904	0.0172
794.1617	-0.0106
794.333	-0.0161
794.5043	0.0109
794.6756	0.0169
794.8469	0.0054
795.0181	-0.0252
795.1893	0.0138
795.3605	0.0482
795.5317	0.003
795.7029	-0.0341
795.874	-0.014
796.0452	-0.0063
796.2163	0.0514
796.3873	0.0421
796.5584	0.0126
796.7294	-0.0063
796.9005	0.0443
797.0715	-0.0159
797.2425	0.0631
797.4134	0.0536
797.5844	0.0509
797.7553	-0.0103
797.9262	0.1062
798.0971	0.0039
798.2679	0.0021
798.4388	0.0008
798.6096	0.0249
798.7804	0.05
798.9512	0.0188
799.122	-0.0476
799.2927	0.0569
799.4635	-0.0304
799.6342	-0.0227
799.8049	0.065
799.9755	-0.0465
800.1462	0.0192
800.3168	0.009
800.4874	-0.1061
800.658	0.0535
800.8286	0.0267
800.9991	0.0619
801.1696	-0.0018
801.3402	-0.0568
801.5106	-0.1062
801.6811	-0.0144
801.8516	0.0259
802.022	-0.0348
802.1924	-0.0731
802.3628	-0.0063
802.5332	-0.0163
802.7035	-0.0129
802.8739	-0.0377
803.0442	-0.0464
803.2145	-0.0613
803.3847	-0.0081
803.555	0.0023
803.7252	-0.0443
803.8954	-0.0069
804.0656	-0.0393
804.2358	-0.0598
804.4059	0.0106
804.5761	-0.035
804.7462	-0.0762
804.9163	0.0028
805.0864	-0.0466
805.2564	0.0849
805.4264	-0.0037
805.5965	0.0519
805.7665	-0.034
805.9364	-0.0432
806.1064	-0.0163
806.2763	0.0669
806.4462	-0.0297
806.6161	-0.0123
806.786	0.0255
806.9559	0.0007
807.1257	-0.02
807.2955	-0.0338
807.4653	-0.0422
807.6351	0.057
807.8048	0.0249
807.9746	0.0148
808.1443	-0.0584
808.314	0.0375
808.4837	0.0498
808.6533	-0.0696
808.8229	0.0166
808.9926	0.0051
809.1622	-0.0038
809.3317	-0.0106
809.5013	0.0051
809.6708	-0.0324
809.8403	0.0332
810.0098	-0.0004
810.1793	-0.0423
810.3488	-0.0175
810.5182	0.1888
810.6876	0.0173
810.857	0.0291
811.0264	-0.0227
811.1958	0.0675
811.3651	-0.0639
811.5344	0.095
811.7037	0.0041
811.873	0.0782
812.0422	-0.029
812.2115	-0.0468
812.3807	-0.2487
812.5499	0.0206
812.7191	-0.0213
812.8882	-0.0806
813.0574	-0.1002
813.2265	-0.047
813.3956	-0.0696
813.5646	-0.029
813.7337	-0.0315
813.9027	-0.1088
814.0718	0.011
814.2407	-0.0083
814.4097	0.0296
814.5787	0.1481
814.7476	0.0266
814.9165	-0.0367
815.0854	-0.035
815.2543	-0.0929
815.4232	-0.0149
815.592	0.1104
815.7608	-0.2008
815.9296	-0.1258
816.0984	-0.0629
816.2671	-0.3508
816.4359	-0.0032
816.6046	0.0308
816.7733	-0.0818
816.942	-0.1522
817.1106	0.0402
817.2793	-0.0419
817.4479	0.0018
817.6165	-0.0276
817.785	0.0837
817.9536	-0.1193
818.1221	-0.051
818.2906	-0.1226
818.4591	0.0222
818.6276	-0.0947
818.7961	0.0088
818.9645	-0.0325
819.1329	0.2684
819.3013	0.0426
819.4697	-0.163
819.638	-0.0314
819.8064	-0.0105
819.9747	-0.0105
820.143	-0.0601
820.3113	0.0055
820.4795	-0.0321
820.6477	0.0379
820.816	0.052
820.9842	0.1055
821.1523	-0.0689
821.3205	-0.0483
821.4886	-0.0205
821.6567	-0.024
821.8248	0.0694
821.9929	-0.182
822.1609	0.0679
822.329	-0.0124
822.497	-0.0427
822.665	-0.0933
822.833	-0.0889
823.0009	0.017
823.1688	0.1733
823.3367	-0.1493
823.5046	-0.0141
823.6725	-0.0785
823.8404	-0.0199
824.0082	-0.1431
824.176	0.0996
824.3438	0.0831
824.5116	-0.0405
824.6793	-0.0193
824.847	-0.0808
825.0147	0.0568
825.1824	0.0853
825.3501	-0.0872
825.5177	-0.0078
825.6854	-0.258
825.853	0.1568
826.0206	-0.0185
826.1881	0.0872
826.3557	-0.0414
826.5232	0.127
826.6907	0.0439
826.8582	-0.1032
827.0257	0.132
827.1931	0.1012
827.3605	-0.0809
827.528	-0.1066
827.6953	-0.2006
827.8627	-0.2115
828.03	0.0304
828.1974	-0.0965
828.3647	-0.0419
828.532	0.0155
828.6992	0.2048
828.8665	-0.2781
829.0337	0.1343
829.2009	-0.0893
829.3681	0.0461
829.5352	-0.2868
829.7024	0.0748
829.8695	-0.0865
830.0366	0.109
830.2037	0.0917
830.3707	0.0622
830.5378	-0.1722
830.7048	-0.2714
830.8718	-0.0797
831.0388	0.0149
831.2057	0.2046
831.3727	-0.26
831.5396	0.034
831.7065	-0.6744
831.8734	-0.0077
832.0402	0.203
832.2071	-0.7131
832.3739	-0.1796
832.5407	-1.4053
832.7075	-0.4365
832.8742	0.6287
833.041	0.1096
833.2077	0.3639
833.3744	-0.0616
833.541	-0.0616
833.7077	-0.2905
833.8743	0.0919
834.0409	0.0236
834.2075	0.0659
834.3741	-0.1287
834.5407	0.0529
834.7072	0.0872
834.8737	0.0503
835.0402	-0.0904
835.2067	-0.0334
835.3731	-0.1225
835.5395	-0.0225
835.706	-0.2449
835.8723	-0.0719
836.0387	-0.043
836.2051	0.0585
836.3714	0.1058
836.5377	-0.0611
836.704	0.0728
836.8703	-0.0838
837.0365	-0.843
837.2027	0.0395
837.3689	0.1778
837.5351	0.1547
837.7013	-0.2047
837.8674	0.1466
838.0335	-0.2357
838.1997	-0.1872
838.3657	-0
838.5318	-0.5005
838.6978	-0.0035
838.8639	-0.515
839.0299	-0.0281
839.1958	0.2529
839.3618	-0.1932
839.5277	-0.1587
839.6937	-0.0229
839.8596	-0.1307
840.0254	-0.0497
840.1913	-0.2204
840.3571	-0.3812
840.523	-0
840.6888	0.1258
840.8545	-0.5337
841.0203	0.0204
841.186	0.4704
841.3517	-0.3764
841.5174	0.0606
841.6831	-0.0269
841.8488	0.1233
842.0144	0.1198
842.18	0.2275
842.3456	-0.6914
842.5112	-0
842.6767	-0.0679
842.8422	-0.0494
843.0077	0.0487
843.1732	-0.0637
843.3387	-0.1288
843.5042	-0
843.6696	-0.3623
843.835	0.0642
844.0004	0.063
844.1657	-0
844.3311	-0.0823
844.4964	-0
844.6617	-0
844.827	-0
844.9923	0.084
845.1575	-0.0496
845.3227	-0.0431
845.4879	-0.3484
845.6531	-0.1603
845.8183	0.0457
845.9834	-0
846.1485	0.0199
846.3136	0.2164
846.4787	-0
846.6438	-0.1576
846.8088	-0
846.9738	-0.9806
847.1388	0.0943
847.3038	0.0053
847.4687	-0
847.6337	-0.5864
847.7986	-0.0565
847.9635	0.2692
848.1284	0.4123
848.2932	0.0562
848.458	-0
848.6228	0.1034
848.7876	1.9661
848.9524	-0.6511
849.1172	-2.0525
849.2819	-0
849.4466	0.1079
849.6113	0.4778
849.7759	-0.4932
849.9406	-0.0312
850.1052	-1.0266
850.2698	-0.2088
850.4344	-0.867
850.599	0.0708
850.7635	0.1378
850.928	-0.0497
851.0925	0.2595
851.257	-0.226
851.4215	0.1667
851.5859	-0.1057
851.7503	-0
851.9147	-0.4472
852.0791	0.1378
852.2434	-0.0449
852.4078	-0
852.5721	0.3003
852.7364	-0.0229
852.9007	-0.161
853.0649	-0
853.2291	0.102
853.3934	-0.2017
853.5575	0.0721
853.7217	0.0985
853.8859	-0
854.05	-0.3967
854.2141	0.3152
854.3782	-0.2532
854.5423	0.299
854.7063	-0.234
854.8703	-0.1253
855.0343	0.1038
855.1983	-0.0775
855.3623	-0.1316
855.5262	-0
855.6901	0.3005
855.854	0.0165
856.0179	-0.1136
856.1818	-0
856.3456	0.6252
856.5094	-0.9041
856.6732	0.0354
856.837	-1.3929
857.0008	-0.4614
857.1645	-0.4627
857.3282	-0.3655
857.4919	-0.0601
857.6556	-0.2712
857.8192	-0.2075
857.9828	-0.0933
858.1465	0.3852
858.31	-0
858.4736	0.2277
858.6372	0.5032
858.8007	0.0095
858.9642	0.2569
859.1277	-0
859.2911	-0.3367
859.4546	-0
859.618	-0.1839
859.7814	-0.282
859.9448	0.385
860.1081	-0
860.2715	-1.4853
860.4348	-0.4818
860.5981	0.4166
860.7614	-0.2947
860.9246	0.0662
861.0879	0.1117
861.2511	-0
861.4143	-0
861.5774	-0.0984
861.7406	-0.4571
861.9037	-0
862.0668	-1.0779
862.2299	0.0975
862.393	-0
862.556	-0.4525
862.7191	-0.4184
862.8821	-0.0363
863.0451	-0.1479
863.208	-0
863.371	-0.3176
863.5339	0.2426
863.6968	0.9241
863.8597	0.4267
864.0225	-0.0987
864.1854	0.2338
864.3482	-1.1657
864.511	-0.2813
864.6737	-0
864.8365	0.2667
864.9992	-0
865.1619	-0.2195
865.3246	-1.7634
865.4873	-0.3951
865.65	0.4263
865.8126	1.2498
865.9752	-0.3484
866.1378	0.2045
866.3004	-0.2985
866.4629	-1.8659
866.6254	0.2292
866.7879	-0.2757
866.9504	-0
867.1129	-0.414
867.2753	-0.2766
867.4377	-0.0859
867.6001	-0
867.7625	0.3001
867.9249	-0.4444
868.0872	0.1374
868.2495	0.1688
868.4118	-0
868.5741	-0
868.7363	-0
868.8986	-0.6565
869.0608	-0.0837
869.223	-0.5816
869.3851	-0
869.5473	0.215
869.7094	-0
869.8715	-0.2116
870.0336	-0.0761
870.1957	-0
870.3577	0.285
870.5197	0.1117
870.6817	-0.7818
870.8437	-0.2411
871.0057	-0.2577
871.1676	0.1704
871.3295	0.1403
871.4914	-0
871.6533	-0
871.8151	-0
871.977	-0.6388
872.1388	0.0407
872.3006	-0.4422
872.4623	-0.5766
872.6241	0.3979
872.7858	-0.333
872.9475	-0
873.1092	-0.1652
873.2709	-0
873.4325	-1.8343
873.5941	-0
873.7557	0.6364
873.9173	-0.0037
874.0789	-0.1344
874.2404	-0
874.4019	0.064
874.5634	-0
874.7249	0.1523
874.8863	-0
875.0478	-0.2492
875.2092	1.0679
875.3706	0.9894
875.5319	-0.0523
875.6933	-0.0439
875.8546	-0
876.0159	0.6118
876.1772	-0.2934
876.3385	0.3
876.4997	-0
876.6609	1.1094
876.8221	-0
876.9833	0.068
877.1445	0.4774
877.3056	-1.0907
877.4667	-0.6473
877.6278	-0
877.7889	-0
877.9499	0.619
878.111	-0.583
878.272	-0
878.433	-0.2886
878.5939	-0.4006
878.7549	-0.0055
878.9158	-0
879.0767	0.0439
879.2376	0.065
879.3984	0.1899
879.5593	1.9154
879.7201	-0
879.8809	0.2735
880.0417	-0.254
880.2024	-0.0372
880.3632	-0.6831
880.5239	-0.3688
880.6846	-0.4435
880.8452	0.0444
881.0059	-0
881.1665	-0.2233
881.3271	0.5392
881.4877	0.1175
881.6483	-0
881.8088	-0
881.9693	-0
882.1298	-0
882.2903	-0
