Data from D4ACN5uM460nmA_Absorbance_13-05-41-105.txt Node
Date: Fri Feb 21 13:05:41 GMT 2025
User: LASERRRRR
Spectrometer: FLMT03099
Trigger mode: 0
Integration Time (sec): 1.500000E-2
Scans to average: 1
Electric dark correction enabled: true
Nonlinearity correction enabled: false
Boxcar width: 0
XAxis mode: Wavelengths
Number of Pixels in Spectrum: 3648
>>>>>Begin Spectral Data<<<<<
179.3399	-0.6601
179.5586	-0.6601
179.7771	-0.6601
179.9957	-0.3319
180.2143	-0
180.4329	-0
180.6514	-0
180.8699	-0
181.0885	0.4393
181.307	0.0873
181.5255	0.0079
181.744	-0.1953
181.9625	-0
182.181	-0.2743
182.3994	-0.3112
182.6179	0.451
182.8363	0.3488
183.0547	-0.2322
183.2732	0.116
183.4916	0.2987
183.71	0.2062
183.9284	0.104
184.1467	0.1407
184.3651	0.1396
184.5835	0.2881
184.8018	0.302
185.0201	0.2981
185.2385	0.1512
185.4568	0.1018
185.6751	0.241
185.8934	0.1287
186.1117	-0.1959
186.3299	0.0925
186.5482	0.2563
186.7664	0.7442
186.9847	0.0754
187.2029	0.1265
187.4211	0.0496
187.6393	0.0192
187.8575	0.2174
188.0757	0.4903
188.2939	0.0707
188.512	0.3352
188.7302	0.1645
188.9483	0.2109
189.1665	0.8166
189.3846	0.242
189.6027	0.0333
189.8208	0.1019
190.0389	0.0955
190.257	0.1469
190.475	-0.008
190.6931	0.0433
190.9111	-0.0003
191.1292	0.1847
191.3472	0.1467
191.5652	0.2394
191.7832	0.0572
192.0012	0.0832
192.2192	0.1981
192.4371	0.0936
192.6551	0.1702
192.873	0.1382
193.091	0.0184
193.3089	0.1318
193.5268	0.3296
193.7447	0.2334
193.9626	0.2265
194.1805	0.2491
194.3984	0.2135
194.6162	0.2339
194.8341	0.3477
195.0519	0.2113
195.2697	0.2283
195.4875	0.3989
195.7054	0.2123
195.9231	0.2569
196.1409	0.2831
196.3587	0.2917
196.5765	0.3664
196.7942	0.2399
197.012	0.3439
197.2297	0.3236
197.4474	0.3875
197.6651	0.3305
197.8828	0.3439
198.1005	0.3279
198.3182	0.3947
198.5358	0.3958
198.7535	0.3413
198.9711	0.3865
199.1888	0.3183
199.4064	0.4449
199.624	0.3685
199.8416	0.4141
200.0592	0.4134
200.2767	0.4053
200.4943	0.3971
200.7119	0.3891
200.9294	0.4037
201.1469	0.395
201.3645	0.4741
201.582	0.3457
201.7995	0.4218
202.017	0.4068
202.2344	0.4534
202.4519	0.4163
202.6694	0.3734
202.8868	0.4011
203.1042	0.4038
203.3217	0.3624
203.5391	0.3954
203.7565	0.3314
203.9739	0.3681
204.1913	0.3828
204.4086	0.3367
204.626	0.3468
204.8433	0.3379
205.0607	0.3694
205.278	0.36
205.4953	0.3431
205.7126	0.3215
205.9299	0.3137
206.1472	0.3441
206.3644	0.3437
206.5817	0.332
206.7989	0.3469
207.0162	0.3389
207.2334	0.316
207.4506	0.3243
207.6678	0.31
207.885	0.3038
208.1022	0.3323
208.3194	0.2946
208.5365	0.3195
208.7537	0.2925
208.9708	0.2865
209.1879	0.2729
209.405	0.2926
209.6222	0.2635
209.8392	0.2932
210.0563	0.2987
210.2734	0.2791
210.4905	0.305
210.7075	0.291
210.9245	0.2681
211.1416	0.2674
211.3586	0.2607
211.5756	0.2678
211.7926	0.2622
212.0096	0.2767
212.2265	0.2488
212.4435	0.2503
212.6604	0.2674
212.8774	0.2298
213.0943	0.2501
213.3112	0.2444
213.5281	0.2566
213.745	0.2304
213.9619	0.2529
214.1788	0.2738
214.3956	0.2707
214.6125	0.2641
214.8293	0.258
215.0461	0.2541
215.2629	0.2403
215.4798	0.2613
215.6965	0.2546
215.9133	0.2499
216.1301	0.2417
216.3469	0.2416
216.5636	0.2485
216.7803	0.2555
216.9971	0.2597
217.2138	0.2594
217.4305	0.2457
217.6472	0.2636
217.8639	0.2475
218.0805	0.2597
218.2972	0.2445
218.5138	0.2574
218.7305	0.2621
218.9471	0.2496
219.1637	0.2582
219.3803	0.267
219.5969	0.2641
219.8135	0.2596
220.0301	0.2685
220.2466	0.2586
220.4632	0.2786
220.6797	0.2635
220.8962	0.2619
221.1127	0.2594
221.3292	0.2656
221.5457	0.2763
221.7622	0.2689
221.9787	0.2991
222.1951	0.2764
222.4116	0.2761
222.628	0.2879
222.8444	0.2913
223.0608	0.2814
223.2772	0.2911
223.4936	0.2796
223.71	0.291
223.9264	0.2784
224.1427	0.2809
224.3591	0.2931
224.5754	0.2952
224.7917	0.2975
225.008	0.3058
225.2243	0.309
225.4406	0.2966
225.6569	0.3218
225.8732	0.2986
226.0894	0.3156
226.3057	0.3138
226.5219	0.3144
226.7381	0.3244
226.9543	0.3192
227.1705	0.3113
227.3867	0.3261
227.6029	0.3239
227.8191	0.3349
228.0352	0.3457
228.2513	0.3461
228.4675	0.3393
228.6836	0.3391
228.8997	0.3471
229.1158	0.3581
229.3319	0.3591
229.548	0.3499
229.764	0.361
229.9801	0.3696
230.1961	0.3732
230.4121	0.3772
230.6282	0.3838
230.8442	0.3874
231.0602	0.3869
231.2761	0.379
231.4921	0.3989
231.7081	0.398
231.924	0.3977
232.14	0.4077
232.3559	0.4051
232.5718	0.4045
232.7877	0.4141
233.0036	0.4151
233.2195	0.408
233.4353	0.411
233.6512	0.4234
233.867	0.4248
234.0829	0.4192
234.2987	0.4302
234.5145	0.4274
234.7303	0.4387
234.9461	0.4415
235.1619	0.4319
235.3776	0.4329
235.5934	0.4257
235.8091	0.4375
236.0249	0.4432
236.2406	0.4411
236.4563	0.4424
236.672	0.4435
236.8877	0.4535
237.1034	0.4499
237.319	0.4509
237.5347	0.4482
237.7503	0.445
237.966	0.4655
238.1816	0.4525
238.3972	0.4589
238.6128	0.4597
238.8284	0.4669
239.0439	0.4549
239.2595	0.4517
239.475	0.4625
239.6906	0.4563
239.9061	0.4547
240.1216	0.4558
240.3371	0.4636
240.5526	0.4522
240.7681	0.4591
240.9836	0.4569
241.199	0.4519
241.4145	0.4467
241.6299	0.4447
241.8453	0.4352
242.0607	0.436
242.2761	0.4287
242.4915	0.4265
242.7069	0.4179
242.9223	0.4183
243.1376	0.4045
243.353	0.3977
243.5683	0.3878
243.7836	0.3812
243.9989	0.375
244.2142	0.3794
244.4295	0.3638
244.6448	0.3601
244.86	0.3482
245.0753	0.3465
245.2905	0.3316
245.5057	0.3371
245.721	0.3293
245.9362	0.3258
246.1514	0.3134
246.3665	0.3028
246.5817	0.2974
246.7969	0.2925
247.012	0.2869
247.2271	0.2841
247.4423	0.2865
247.6574	0.2791
247.8725	0.2674
248.0876	0.2635
248.3026	0.26
248.5177	0.2516
248.7328	0.2505
248.9478	0.2472
249.1628	0.2443
249.3779	0.2299
249.5929	0.2367
249.8079	0.2353
250.0228	0.2285
250.2378	0.2306
250.4528	0.2285
250.6677	0.2184
250.8827	0.2158
251.0976	0.2092
251.3125	0.2154
251.5274	0.2084
251.7423	0.212
251.9572	0.2167
252.172	0.2015
252.3869	0.2007
252.6017	0.2007
252.8166	0.2021
253.0314	0.1963
253.2462	0.1999
253.461	0.1933
253.6758	0.1928
253.8906	0.1975
254.1053	0.193
254.3201	0.1877
254.5348	0.1797
254.7496	0.1816
254.9643	0.19
255.179	0.1859
255.3937	0.1856
255.6083	0.1917
255.823	0.188
256.0377	0.1801
256.2523	0.1804
256.467	0.1858
256.6816	0.1806
256.8962	0.1811
257.1108	0.1831
257.3254	0.1818
257.54	0.1781
257.7545	0.1887
257.9691	0.1765
258.1836	0.1735
258.3981	0.1762
258.6127	0.1729
258.8272	0.179
259.0417	0.1717
259.2561	0.1731
259.4706	0.1739
259.6851	0.1788
259.8995	0.1716
260.114	0.1738
260.3284	0.1686
260.5428	0.1723
260.7572	0.1737
260.9716	0.1828
261.186	0.175
261.4003	0.1707
261.6147	0.1749
261.829	0.1761
262.0433	0.1737
262.2577	0.1739
262.472	0.1731
262.6863	0.1805
262.9005	0.1747
263.1148	0.1717
263.3291	0.1751
263.5433	0.1735
263.7576	0.1751
263.9718	0.172
264.186	0.1772
264.4002	0.174
264.6144	0.1839
264.8286	0.1792
265.0427	0.1826
265.2569	0.1843
265.471	0.172
265.6851	0.1782
265.8993	0.1733
266.1134	0.1758
266.3275	0.1744
266.5415	0.1765
266.7556	0.1807
266.9697	0.1774
267.1837	0.1738
267.3978	0.174
267.6118	0.1707
267.8258	0.1762
268.0398	0.1754
268.2538	0.1757
268.4677	0.1735
268.6817	0.1756
268.8957	0.1679
269.1096	0.1709
269.3235	0.171
269.5374	0.1714
269.7514	0.1691
269.9652	0.1729
270.1791	0.1674
270.393	0.1713
270.6068	0.1739
270.8207	0.1637
271.0345	0.1674
271.2483	0.1623
271.4622	0.1616
271.676	0.171
271.8897	0.1703
272.1035	0.1658
272.3173	0.1627
272.531	0.1664
272.7448	0.17
272.9585	0.1607
273.1722	0.164
273.3859	0.164
273.5996	0.1635
273.8133	0.1657
274.0269	0.1668
274.2406	0.1652
274.4542	0.163
274.6679	0.1678
274.8815	0.1743
275.0951	0.1757
275.3087	0.1713
275.5223	0.1666
275.7358	0.174
275.9494	0.1738
276.1629	0.1739
276.3765	0.1679
276.59	0.164
276.8035	0.1665
277.017	0.1729
277.2305	0.1715
277.444	0.1692
277.6574	0.167
277.8709	0.1734
278.0843	0.1765
278.2978	0.1728
278.5112	0.1707
278.7246	0.1712
278.938	0.1709
279.1513	0.1754
279.3647	0.1691
279.5781	0.172
279.7914	0.1723
280.0047	0.1714
280.2181	0.1675
280.4314	0.1729
280.6447	0.1808
280.8579	0.1718
281.0712	0.1773
281.2845	0.1748
281.4977	0.1749
281.711	0.1714
281.9242	0.1751
282.1374	0.1761
282.3506	0.1776
282.5638	0.1786
282.7769	0.1804
282.9901	0.1779
283.2033	0.1814
283.4164	0.1727
283.6295	0.1797
283.8426	0.1708
284.0557	0.1813
284.2688	0.1837
284.4819	0.1803
284.695	0.1869
284.908	0.1833
285.1211	0.1803
285.3341	0.1785
285.5471	0.1813
285.7601	0.1833
285.9731	0.1889
286.1861	0.1871
286.3991	0.1897
286.612	0.1854
286.825	0.191
287.0379	0.1849
287.2508	0.1882
287.4637	0.1896
287.6766	0.1887
287.8895	0.1888
288.1024	0.187
288.3152	0.1866
288.5281	0.1821
288.7409	0.1966
288.9538	0.1921
289.1666	0.1877
289.3794	0.1893
289.5922	0.1788
289.8049	0.1903
290.0177	0.1924
290.2304	0.1905
290.4432	0.1943
290.6559	0.1935
290.8686	0.1916
291.0813	0.1992
291.294	0.1926
291.5067	0.1904
291.7194	0.194
291.932	0.1872
292.1447	0.1898
292.3573	0.1943
292.5699	0.1966
292.7825	0.1936
292.9951	0.1908
293.2077	0.1907
293.4203	0.19
293.6328	0.1914
293.8454	0.1939
294.0579	0.1945
294.2704	0.2001
294.4829	0.1907
294.6954	0.1965
294.9079	0.1914
295.1204	0.1896
295.3328	0.1975
295.5453	0.1965
295.7577	0.1949
295.9701	0.1896
296.1825	0.1939
296.3949	0.1934
296.6073	0.1898
296.8197	0.1943
297.0321	0.196
297.2444	0.1897
297.4567	0.1935
297.6691	0.1917
297.8814	0.1912
298.0937	0.1976
298.306	0.1934
298.5182	0.1971
298.7305	0.1906
298.9428	0.1899
299.155	0.1907
299.3672	0.1882
299.5794	0.1972
299.7916	0.1954
300.0038	0.1924
300.216	0.1906
300.4282	0.1915
300.6403	0.1932
300.8525	0.1884
301.0646	0.1946
301.2767	0.1978
301.4888	0.1944
301.7009	0.1941
301.913	0.1954
302.125	0.1883
302.3371	0.1959
302.5491	0.1908
302.7612	0.1965
302.9732	0.1979
303.1852	0.1947
303.3972	0.192
303.6092	0.1951
303.8211	0.1897
304.0331	0.1921
304.245	0.1917
304.457	0.1868
304.6689	0.1873
304.8808	0.1898
305.0927	0.1879
305.3046	0.1838
305.5164	0.1793
305.7283	0.1861
305.9401	0.1779
306.152	0.1803
306.3638	0.1822
306.5756	0.1813
306.7874	0.1711
306.9992	0.1752
307.2109	0.1696
307.4227	0.1678
307.6344	0.175
307.8462	0.1643
308.0579	0.1706
308.2696	0.172
308.4813	0.1649
308.693	0.1608
308.9046	0.1698
309.1163	0.1558
309.328	0.1593
309.5396	0.1581
309.7512	0.1527
309.9628	0.1497
310.1744	0.1524
310.386	0.1457
310.5976	0.1405
310.8091	0.148
311.0207	0.1458
311.2322	0.1457
311.4437	0.1405
311.6552	0.1478
311.8667	0.1489
312.0782	0.1355
312.2897	0.1405
312.5012	0.1346
312.7126	0.1297
312.924	0.1372
313.1355	0.1351
313.3469	0.1304
313.5583	0.1293
313.7696	0.1284
313.981	0.1388
314.1924	0.1267
314.4037	0.1275
314.6151	0.1277
314.8264	0.1257
315.0377	0.1263
315.249	0.127
315.4603	0.1175
315.6716	0.125
315.8828	0.126
316.0941	0.1291
316.3053	0.1149
316.5165	0.1245
316.7277	0.1205
316.9389	0.1245
317.1501	0.1259
317.3613	0.1198
317.5724	0.1197
317.7836	0.1169
317.9947	0.1162
318.2058	0.1172
318.417	0.1225
318.6281	0.116
318.8391	0.123
319.0502	0.1187
319.2613	0.1194
319.4723	0.1215
319.6834	0.1167
319.8944	0.1198
320.1054	0.1208
320.3164	0.1154
320.5274	0.1182
320.7383	0.1246
320.9493	0.1194
321.1602	0.1173
321.3712	0.1197
321.5821	0.1161
321.793	0.1266
322.0039	0.1197
322.2148	0.1196
322.4257	0.1183
322.6365	0.1112
322.8474	0.1223
323.0582	0.1173
323.269	0.1207
323.4798	0.1202
323.6906	0.1193
323.9014	0.1164
324.1122	0.1178
324.3229	0.12
324.5337	0.1254
324.7444	0.1235
324.9551	0.1176
325.1658	0.1174
325.3765	0.1234
325.5872	0.1245
325.7979	0.1227
326.0085	0.1211
326.2192	0.1176
326.4298	0.1234
326.6404	0.122
326.851	0.1188
327.0616	0.122
327.2722	0.1181
327.4828	0.1252
327.6933	0.1282
327.9039	0.1235
328.1144	0.1262
328.3249	0.1274
328.5354	0.1243
328.7459	0.122
328.9564	0.1236
329.1669	0.1293
329.3773	0.1272
329.5878	0.1268
329.7982	0.1289
330.0086	0.1264
330.219	0.1153
330.4294	0.1299
330.6398	0.1282
330.8502	0.1279
331.0605	0.1285
331.2708	0.1265
331.4812	0.1315
331.6915	0.1305
331.9018	0.1299
332.1121	0.1358
332.3224	0.1271
332.5326	0.1198
332.7429	0.1217
332.9531	0.1285
333.1633	0.123
333.3735	0.1252
333.5837	0.1317
333.7939	0.1307
334.0041	0.1404
334.2143	0.1309
334.4244	0.1387
334.6346	0.1305
334.8447	0.1277
335.0548	0.1302
335.2649	0.1353
335.475	0.1323
335.685	0.1288
335.8951	0.126
336.1051	0.1319
336.3152	0.1433
336.5252	0.1309
336.7352	0.1304
336.9452	0.1307
337.1552	0.1302
337.3652	0.1293
337.5751	0.1373
337.7851	0.1379
337.995	0.1428
338.2049	0.1338
338.4148	0.1347
338.6247	0.1433
338.8346	0.134
339.0445	0.1341
339.2543	0.1397
339.4642	0.1335
339.674	0.1307
339.8838	0.1395
340.0936	0.1421
340.3034	0.1393
340.5132	0.1331
340.7229	0.1393
340.9327	0.1456
341.1424	0.1452
341.3522	0.1323
341.5619	0.1365
341.7716	0.1445
341.9813	0.1431
342.1909	0.1431
342.4006	0.144
342.6102	0.1435
342.8199	0.1446
343.0295	0.1348
343.2391	0.1472
343.4487	0.1486
343.6583	0.1571
343.8679	0.1467
344.0774	0.1474
344.287	0.1489
344.4965	0.1517
344.706	0.1545
344.9155	0.1431
345.125	0.1539
345.3345	0.1615
345.544	0.1516
345.7534	0.149
345.9629	0.1486
346.1723	0.1512
346.3817	0.1557
346.5911	0.1581
346.8005	0.1575
347.0099	0.1539
347.2193	0.1607
347.4286	0.165
347.638	0.1606
347.8473	0.1636
348.0566	0.1639
348.2659	0.1605
348.4752	0.1591
348.6845	0.1578
348.8937	0.1628
349.103	0.1621
349.3122	0.1598
349.5214	0.1638
349.7306	0.1711
349.9398	0.1693
350.149	0.1678
350.3582	0.1645
350.5674	0.1646
350.7765	0.1707
350.9856	0.1667
351.1948	0.1718
351.4039	0.1802
351.613	0.1694
351.822	0.1793
352.0311	0.173
352.2402	0.1735
352.4492	0.1734
352.6582	0.1755
352.8672	0.1782
353.0762	0.1844
353.2852	0.1759
353.4942	0.183
353.7032	0.1781
353.9121	0.1827
354.1211	0.1856
354.33	0.1849
354.5389	0.1886
354.7478	0.1702
354.9567	0.1832
355.1655	0.1833
355.3744	0.1809
355.5833	0.1849
355.7921	0.1872
356.0009	0.184
356.2097	0.1791
356.4185	0.1805
356.6273	0.1903
356.8361	0.1862
357.0448	0.1913
357.2536	0.1897
357.4623	0.1898
357.671	0.1902
357.8797	0.1908
358.0884	0.1904
358.2971	0.1913
358.5057	0.2001
358.7144	0.1901
358.923	0.1912
359.1316	0.2038
359.3402	0.2056
359.5488	0.1965
359.7574	0.2008
359.966	0.204
360.1746	0.1956
360.3831	0.2084
360.5916	0.2055
360.8002	0.2138
361.0087	0.2027
361.2172	0.2048
361.4256	0.2113
361.6341	0.2118
361.8426	0.2076
362.051	0.2164
362.2594	0.2155
362.4678	0.2142
362.6762	0.2201
362.8846	0.2175
363.093	0.2191
363.3014	0.2249
363.5097	0.2186
363.718	0.2198
363.9264	0.2226
364.1347	0.2263
364.343	0.2271
364.5513	0.2272
364.7595	0.2291
364.9678	0.2258
365.176	0.2246
365.3842	0.2339
365.5925	0.2308
365.8007	0.2327
366.0089	0.2376
366.217	0.2374
366.4252	0.2321
366.6333	0.2334
366.8415	0.2377
367.0496	0.2374
367.2577	0.2435
367.4658	0.2393
367.6739	0.2358
367.882	0.2435
368.09	0.2439
368.2981	0.2528
368.5061	0.2484
368.7141	0.247
368.9221	0.258
369.1301	0.2546
369.3381	0.2605
369.5461	0.2503
369.754	0.2562
369.962	0.2459
370.1699	0.2556
370.3778	0.2654
370.5857	0.252
370.7936	0.2564
371.0015	0.2605
371.2093	0.2557
371.4172	0.2615
371.625	0.2587
371.8328	0.2571
372.0406	0.2701
372.2484	0.2671
372.4562	0.2653
372.664	0.2603
372.8717	0.2698
373.0795	0.2778
373.2872	0.2751
373.4949	0.2713
373.7026	0.2738
373.9103	0.2596
374.118	0.2663
374.3256	0.274
374.5333	0.2741
374.7409	0.2795
374.9485	0.2728
375.1561	0.2778
375.3637	0.2695
375.5713	0.2762
375.7789	0.2793
375.9864	0.2822
376.194	0.2882
376.4015	0.2776
376.609	0.2844
376.8165	0.2809
377.024	0.2809
377.2315	0.282
377.4389	0.2738
377.6464	0.2935
377.8538	0.2837
378.0612	0.2859
378.2686	0.2891
378.476	0.2945
378.6834	0.2858
378.8908	0.2958
379.0981	0.2976
379.3055	0.2916
379.5128	0.2813
379.7201	0.2933
379.9274	0.292
380.1347	0.2955
380.342	0.2981
380.5492	0.2956
380.7565	0.3073
380.9637	0.2961
381.1709	0.298
381.3781	0.3072
381.5853	0.2974
381.7925	0.3052
381.9997	0.3005
382.2068	0.2998
382.4139	0.3089
382.6211	0.3022
382.8282	0.3088
383.0353	0.3105
383.2424	0.3099
383.4494	0.2999
383.6565	0.3124
383.8635	0.303
384.0706	0.3128
384.2776	0.3169
384.4846	0.3171
384.6916	0.324
384.8986	0.3046
385.1055	0.3239
385.3125	0.3168
385.5194	0.3153
385.7263	0.3104
385.9333	0.3151
386.1402	0.3052
386.347	0.3079
386.5539	0.3124
386.7608	0.3088
386.9676	0.3211
387.1744	0.3153
387.3813	0.3201
387.5881	0.3062
387.7948	0.3087
388.0016	0.3234
388.2084	0.3166
388.4151	0.3136
388.6219	0.3021
388.8286	0.3103
389.0353	0.3084
389.242	0.3129
389.4487	0.3062
389.6553	0.2966
389.862	0.2993
390.0686	0.31
390.2753	0.3073
390.4819	0.3066
390.6885	0.299
390.8951	0.3014
391.1016	0.309
391.3082	0.3009
391.5147	0.2964
391.7213	0.2964
391.9278	0.294
392.1343	0.2912
392.3408	0.2898
392.5473	0.2984
392.7537	0.2894
392.9602	0.2991
393.1666	0.2923
393.373	0.2918
393.5794	0.2829
393.7858	0.2968
393.9922	0.2802
394.1986	0.2936
394.4049	0.2839
394.6113	0.2952
394.8176	0.2825
395.0239	0.2798
395.2302	0.2812
395.4365	0.2886
395.6428	0.2858
395.8491	0.2726
396.0553	0.2715
396.2615	0.2748
396.4678	0.2767
396.674	0.2733
396.8802	0.2713
397.0863	0.2629
397.2925	0.2722
397.4987	0.2709
397.7048	0.2742
397.9109	0.2565
398.117	0.2602
398.3231	0.2676
398.5292	0.2589
398.7353	0.2691
398.9413	0.2689
399.1474	0.2731
399.3534	0.2744
399.5594	0.2715
399.7654	0.2639
399.9714	0.266
400.1774	0.2597
400.3833	0.2692
400.5893	0.265
400.7952	0.2749
401.0011	0.2643
401.207	0.2622
401.4129	0.2731
401.6188	0.2608
401.8247	0.2789
402.0305	0.2626
402.2364	0.2702
402.4422	0.2613
402.648	0.2642
402.8538	0.2672
403.0596	0.2712
403.2654	0.2689
403.4711	0.2655
403.6768	0.258
403.8826	0.2643
404.0883	0.2643
404.294	0.2737
404.4997	0.2646
404.7054	0.2673
404.911	0.2618
405.1167	0.2681
405.3223	0.2575
405.5279	0.2682
405.7335	0.2691
405.9391	0.2675
406.1447	0.2665
406.3502	0.2628
406.5558	0.2569
406.7613	0.258
406.9668	0.2583
407.1724	0.2557
407.3778	0.2639
407.5833	0.2552
407.7888	0.2756
407.9942	0.2571
408.1997	0.2634
408.4051	0.2709
408.6105	0.2582
408.8159	0.2592
409.0213	0.2703
409.2267	0.2747
409.432	0.2602
409.6374	0.2664
409.8427	0.2811
410.048	0.2717
410.2533	0.2566
410.4586	0.2643
410.6639	0.2684
410.8691	0.2579
411.0744	0.258
411.2796	0.2613
411.4848	0.2772
411.69	0.2613
411.8952	0.2678
412.1004	0.264
412.3056	0.2534
412.5107	0.2553
412.7158	0.2651
412.921	0.2601
413.1261	0.2619
413.3312	0.2729
413.5362	0.2739
413.7413	0.2705
413.9464	0.2549
414.1514	0.2624
414.3564	0.2568
414.5614	0.2583
414.7664	0.2593
414.9714	0.2518
415.1764	0.2664
415.3813	0.2484
415.5863	0.268
415.7912	0.2553
415.9961	0.2557
416.201	0.2647
416.4059	0.2521
416.6108	0.2582
416.8156	0.2508
417.0205	0.2566
417.2253	0.246
417.4301	0.261
417.6349	0.2541
417.8397	0.2528
418.0445	0.2522
418.2492	0.245
418.454	0.2561
418.6587	0.2531
418.8634	0.2603
419.0681	0.2561
419.2728	0.2462
419.4775	0.2523
419.6822	0.2481
419.8868	0.2508
420.0915	0.2449
420.2961	0.238
420.5007	0.2514
420.7053	0.2534
420.9099	0.25
421.1144	0.2448
421.319	0.2469
421.5235	0.2451
421.728	0.2388
421.9325	0.2396
422.137	0.2502
422.3415	0.2393
422.546	0.2321
422.7504	0.2307
422.9549	0.2434
423.1593	0.2261
423.3637	0.2406
423.5681	0.2416
423.7725	0.227
423.9769	0.237
424.1812	0.2259
424.3856	0.2397
424.5899	0.2294
424.7942	0.2223
424.9985	0.232
425.2028	0.2374
425.4071	0.2366
425.6113	0.2242
425.8156	0.2219
426.0198	0.2165
426.224	0.2274
426.4282	0.2171
426.6324	0.2125
426.8366	0.2169
427.0407	0.2102
427.2449	0.2091
427.449	0.2202
427.6531	0.2182
427.8572	0.211
428.0613	0.2213
428.2654	0.2108
428.4694	0.2022
428.6735	0.1993
428.8775	0.2016
429.0815	0.2015
429.2855	0.1996
429.4895	0.1981
429.6935	0.1993
429.8975	0.1892
430.1014	0.1977
430.3053	0.2064
430.5093	0.1953
430.7132	0.1843
430.9171	0.1889
431.1209	0.194
431.3248	0.1867
431.5286	0.1912
431.7325	0.1848
431.9363	0.1789
432.1401	0.1759
432.3439	0.1817
432.5477	0.1728
432.7514	0.1768
432.9552	0.1715
433.1589	0.1682
433.3627	0.1714
433.5664	0.1594
433.7701	0.1763
433.9737	0.1752
434.1774	0.1621
434.3811	0.1636
434.5847	0.1606
434.7883	0.1601
434.9919	0.1646
435.1955	0.162
435.3991	0.1506
435.6027	0.1553
435.8062	0.1593
436.0098	0.1501
436.2133	0.1545
436.4168	0.1457
436.6203	0.1331
436.8238	0.1399
437.0272	0.1483
437.2307	0.1397
437.4341	0.1441
437.6375	0.1394
437.841	0.1227
438.0443	0.1372
438.2477	0.1279
438.4511	0.1279
438.6545	0.1318
438.8578	0.1312
439.0611	0.1233
439.2644	0.1276
439.4677	0.1192
439.671	0.1056
439.8743	0.1225
440.0775	0.1143
440.2808	0.1134
440.484	0.1061
440.6872	0.1097
440.8904	0.1028
441.0936	0.1053
441.2967	0.1021
441.4999	0.1024
441.703	0.1042
441.9062	0.1022
442.1093	0.1134
442.3124	0.091
442.5155	0.0929
442.7185	0.0915
442.9216	0.0857
443.1246	0.09
443.3276	0.0912
443.5307	0.0875
443.7337	0.0938
443.9366	0.0866
444.1396	0.0873
444.3426	0.0757
444.5455	0.0825
444.7484	0.0787
444.9513	0.0763
445.1542	0.0778
445.3571	0.0815
445.56	0.065
445.7628	0.0742
445.9657	0.08
446.1685	0.0704
446.3713	0.0708
446.5741	0.0734
446.7769	0.0791
446.9797	0.0639
447.1824	0.07
447.3852	0.0606
447.5879	0.0564
447.7906	0.0629
447.9933	0.0587
448.196	0.0502
448.3986	0.0569
448.6013	0.0505
448.8039	0.0595
449.0066	0.0641
449.2092	0.0628
449.4118	0.0492
449.6143	0.0573
449.8169	0.0519
450.0195	0.051
450.222	0.0478
450.4245	0.0545
450.627	0.0417
450.8295	0.0448
451.032	0.0507
451.2345	0.042
451.4369	0.0426
451.6394	0.0449
451.8418	0.0425
452.0442	0.043
452.2466	0.0339
452.449	0.0475
452.6513	0.0266
452.8537	0.0332
453.056	0.0359
453.2583	0.0349
453.4607	0.0348
453.663	0.0355
453.8652	0.0256
454.0675	0.04
454.2697	0.0298
454.472	0.0263
454.6742	0.0293
454.8764	0.0377
455.0786	0.0348
455.2808	0.0279
455.4829	0.0293
455.6851	0.0337
455.8872	0.0159
456.0893	0.0206
456.2915	0.0206
456.4935	0.0263
456.6956	0.0249
456.8977	0.023
457.0997	0.0233
457.3018	0.0165
457.5038	0.0311
457.7058	0.025
457.9078	0.0273
458.1098	0.0261
458.3117	0.0231
458.5137	0.0088
458.7156	0.02
458.9175	0.0267
459.1194	0.0222
459.3213	0.0217
459.5232	0.0217
459.725	0.0241
459.9269	0.0149
460.1287	0.018
460.3305	0.0267
460.5323	0.0194
460.7341	0.0211
460.9359	0.0181
461.1376	0.028
461.3394	0.0221
461.5411	0.0227
461.7428	0.0215
461.9445	0.0197
462.1462	0.0141
462.3479	0.0087
462.5495	0.0112
462.7512	0.0132
462.9528	0.0103
463.1544	0.0119
463.356	0.0051
463.5576	0.0238
463.7592	0.0104
463.9607	0.0153
464.1623	0.0162
464.3638	0.0181
464.5653	0.0136
464.7668	0.0153
464.9683	0.0042
465.1697	0.0137
465.3712	0.0025
465.5726	0.0066
465.7741	0.0075
465.9755	0.0117
466.1769	0.0139
466.3782	0.0092
466.5796	0.0108
466.7809	0.0148
466.9823	0.0098
467.1836	0.0021
467.3849	0.0131
467.5862	0.0084
467.7875	0.0066
467.9887	0.0066
468.19	0.0091
468.3912	0.0125
468.5924	0.009
468.7936	0.004
468.9948	0.0087
469.196	0.0063
469.3972	-0.0013
469.5983	0.0012
469.7994	0.0174
470.0006	0.0095
470.2017	0.0074
470.4027	0.0154
470.6038	0.0124
470.8049	0.009
471.0059	0.0124
471.2069	0.0104
471.408	0.0209
471.6089	0.0117
471.8099	0.0148
472.0109	0.0134
472.2119	0.0124
472.4128	0.008
472.6137	0.0135
472.8146	0.0035
473.0155	0.0082
473.2164	0.0119
473.4173	-0.0031
473.6181	0.0028
473.819	0.0076
474.0198	0.0023
474.2206	-0.0052
474.4214	0.0068
474.6222	-0.0029
474.8229	0.0079
475.0237	0.0118
475.2244	0.0077
475.4251	0.0022
475.6258	0.0016
475.8265	0.0054
476.0272	-0.0062
476.2278	0.0063
476.4285	0.0023
476.6291	-0.0031
476.8297	0.016
477.0303	0.0015
477.2309	0.0048
477.4315	0.0079
477.632	0.0031
477.8326	0.0065
478.0331	0.0131
478.2336	-0.0019
478.4341	0.0056
478.6346	0.0056
478.8351	0.0037
479.0355	0.0018
479.236	0.0205
479.4364	0.0042
479.6368	-0.0045
479.8372	0.0025
480.0376	0.0071
480.2379	0.0077
480.4383	0.0114
480.6386	0.0007
480.8389	0.013
481.0392	0.0022
481.2395	0.0109
481.4398	0.0054
481.6401	0.0083
481.8403	0.0078
482.0405	0.0039
482.2408	0.0049
482.441	0.0021
482.6411	0.0011
482.8413	0.0027
483.0415	0.0125
483.2416	0.0003
483.4417	0.0037
483.6419	-0
483.8419	0.0018
484.042	0.0096
484.2421	-0.0031
484.4422	-0.0002
484.6422	0.0003
484.8422	0.0082
485.0422	0.0024
485.2422	0.0027
485.4422	0.0054
485.6422	0.0032
485.8421	0.0018
486.042	0.008
486.242	-0.001
486.4419	0.0047
486.6417	0.0003
486.8416	0.009
487.0415	-0.0033
487.2413	-0.0055
487.4411	0.007
487.641	-0.0009
487.8408	0.0099
488.0405	0.0059
488.2403	0.0018
488.4401	-0
488.6398	0.0098
488.8395	0.0082
489.0392	0.0004
489.2389	0.0053
489.4386	-0.0074
489.6383	0.0102
489.8379	0.0029
490.0376	0.006
490.2372	0.0047
490.4368	-0.0023
490.6364	-0.0076
490.836	0.0047
491.0355	-0.0011
491.2351	0.0018
491.4346	0.0067
491.6341	-0.009
491.8336	0.0118
492.0331	0.004
492.2326	0.0118
492.432	0.0083
492.6315	0.0009
492.8309	0.0063
493.0303	-0.0012
493.2297	0.0034
493.4291	-0.0002
493.6284	0.0065
493.8278	0.0057
494.0271	0.0012
494.2264	0.0015
494.4257	0.0125
494.625	0.0044
494.8243	-0.0073
495.0236	0.0083
495.2228	0.0039
495.422	0.0006
495.6213	0.0037
495.8205	0.0059
496.0196	0.0062
496.2188	0.0046
496.418	0.001
496.6171	-0.0013
496.8162	0.0028
497.0153	0.003
497.2144	0.0033
497.4135	0.0084
497.6126	0.0045
497.8116	0.0017
498.0107	0.0021
498.2097	0.0034
498.4087	0.0002
498.6077	-0.0045
498.8067	0.0079
499.0056	-0.0055
499.2046	0.0052
499.4035	0.0059
499.6024	-0.012
499.8013	0.0057
500.0002	0.0049
500.199	0.0106
500.3979	-0.0022
500.5967	-0.0053
500.7956	0.0057
500.9944	0.0018
501.1932	0.0086
501.3919	0.012
501.5907	0.0089
501.7895	0.0069
501.9882	0.0019
502.1869	0.0137
502.3856	0.0015
502.5843	0.0018
502.783	0.0048
502.9816	0.0063
503.1803	0.0058
503.3789	0.0085
503.5775	0.0018
503.7761	-0.002
503.9747	0.0078
504.1732	-0.0024
504.3718	0.0111
504.5703	0.0049
504.7689	-0.0053
504.9674	0.0035
505.1658	0.0034
505.3643	0.0023
505.5628	0.0015
505.7612	0.0089
505.9597	-0.0022
506.1581	0.0017
506.3565	-0.0029
506.5549	0.004
506.7532	0.0034
506.9516	0.0041
507.1499	0.0137
507.3482	-0.0036
507.5465	0.0056
507.7448	-0.0011
507.9431	0.008
508.1414	0.0047
508.3396	0.0007
508.5379	0.0007
508.7361	0.0076
508.9343	0.0054
509.1325	0.0033
509.3306	-0.0006
509.5288	-0.003
509.7269	0.0089
509.9251	0.0075
510.1232	0.0064
510.3213	0.0066
510.5193	0.0033
510.7174	-0.0011
510.9154	0.0061
511.1135	-0.0031
511.3115	0.0032
511.5095	0.0038
511.7075	0.0053
511.9055	0.0006
512.1034	0.0078
512.3014	0.0063
512.4993	0.0079
512.6972	-0.0056
512.8951	-0.0016
513.093	-0.0032
513.2908	0.0185
513.4887	-0.0001
513.6865	0.0072
513.8844	0.0034
514.0822	0.0024
514.2799	-0.0094
514.4777	-0.0072
514.6755	0.0027
514.8732	0.0018
515.0709	0.0066
515.2687	0.0068
515.4664	0.0148
515.664	0.0031
515.8617	0.0085
516.0594	0.0077
516.257	0.0051
516.4546	0.0201
516.6522	-0.0005
516.8498	0.012
517.0474	0.0073
517.2449	0.0025
517.4425	0.0055
517.64	0.0071
517.8375	0.0082
518.035	-0.0046
518.2325	0.0046
518.43	0.0027
518.6274	0.0073
518.8249	0.0034
519.0223	0.0072
519.2197	-0.0055
519.4171	0.0053
519.6145	0.0185
519.8118	-0.0094
520.0092	-0.0025
520.2065	0.01
520.4038	-0.0017
520.6011	0.004
520.7984	0.0155
520.9956	0.0022
521.1929	0.0031
521.3901	0.0127
521.5874	0.0056
521.7846	0.0016
521.9818	0.0013
522.1789	-0.0026
522.3761	0.0105
522.5732	0.0099
522.7704	-0.0064
522.9675	-0.0038
523.1646	0.0019
523.3617	0.0107
523.5587	-0.0018
523.7558	-0.0026
523.9528	0.0091
524.1498	-0.0002
524.3468	0.0093
524.5438	0.0064
524.7408	0.0005
524.9378	0.0075
525.1347	0.0033
525.3316	0.0051
525.5285	0.0036
525.7254	0.014
525.9223	0.0141
526.1192	0.0051
526.316	0.0097
526.5129	-0.005
526.7097	-0.0047
526.9065	0.0114
527.1033	0.0026
527.3	-0.0034
527.4968	0.0105
527.6935	0.0046
527.8903	-0.0038
528.087	0.003
528.2837	0.0056
528.4804	0.0015
528.677	0.0098
528.8737	-0.0021
529.0703	0.0025
529.2669	0.0031
529.4635	-0.0093
529.6601	-0.0034
529.8567	-0.0068
530.0532	-0.0064
530.2498	0.0021
530.4463	-0.0059
530.6428	0.0012
530.8393	0.0129
531.0358	0.0012
531.2322	-0.0036
531.4287	0.005
531.6251	-0.002
531.8215	-0.0027
532.0179	0.0069
532.2143	0.0058
532.4107	0.0093
532.607	-0.003
532.8034	0.0009
532.9997	0.0038
533.196	-0.0001
533.3923	0.0068
533.5886	0.0106
533.7848	-0.0015
533.9811	0.011
534.1773	-0.0024
534.3735	-0.0011
534.5697	0.0036
534.7659	0.0101
534.9621	0.0032
535.1582	0.0147
535.3544	0.0033
535.5505	0.0067
535.7466	0.0019
535.9427	0.0109
536.1387	0.005
536.3348	-0.0027
536.5308	-0.0035
536.7269	-0.0064
536.9229	0.0099
537.1189	0.0059
537.3148	0.0106
537.5108	0.0023
537.7068	0.0047
537.9027	-0.0078
538.0986	0.0164
538.2945	-0.0029
538.4904	-0.0061
538.6863	0.0027
538.8821	0.0073
539.078	-0.0002
539.2738	-0.0002
539.4696	0.0027
539.6654	0.0071
539.8611	0.0027
540.0569	-0.0008
540.2526	0.0077
540.4484	-0.0035
540.6441	-0.0084
540.8398	0.0079
541.0355	0.0018
541.2311	-0.004
541.4268	0.0149
541.6224	0.0013
541.818	0.0095
542.0136	0.0042
542.2092	0.0153
542.4048	-0.0007
542.6003	0.0019
542.7959	-0.001
542.9914	0.0037
543.1869	0.0053
543.3824	0.0012
543.5779	0.0112
543.7734	0.0141
543.9688	0.0165
544.1642	-0.0044
544.3596	0.0073
544.555	-0.0004
544.7504	0.0095
544.9458	0.0055
545.1411	-0.0003
545.3365	0.009
545.5318	0.0094
545.7271	0.0138
545.9224	-0.0066
546.1177	0.0075
546.3129	0.0132
546.5081	0.0027
546.7034	0.0114
546.8986	0.004
547.0938	0.0088
547.289	0.0053
547.4841	0.0056
547.6793	0.0039
547.8744	0.0033
548.0695	-0.0038
548.2646	0.0031
548.4597	-0.0019
548.6548	0.0121
548.8498	0.008
549.0448	0.0018
549.2399	0.0107
549.4349	0.0093
549.6298	0.0064
549.8248	-0.0017
550.0198	0.0159
550.2147	0.0012
550.4096	-0.005
550.6045	0.001
550.7994	0.0081
550.9943	0.0078
551.1892	-0.0105
551.384	0.0139
551.5788	-0.0043
551.7737	0.015
551.9685	-0.0012
552.1632	-0.0006
552.358	0.0044
552.5528	0.0027
552.7475	0.0072
552.9422	0.0069
553.1369	0.0003
553.3316	0.0003
553.5263	0.006
553.7209	0.0076
553.9156	0.0134
554.1102	0.0102
554.3048	0.0021
554.4994	0.0068
554.694	0.0087
554.8885	0.0009
555.0831	0.0082
555.2776	0.001
555.4721	0.0082
555.6666	0.0053
555.8611	0.0071
556.0555	0.0029
556.25	0.0017
556.4444	-0.0099
556.6388	-0.0022
556.8332	-0.0006
557.0276	-0.0016
557.222	-0.0023
557.4163	0.0035
557.6107	0.002
557.805	0.0053
557.9993	0.0049
558.1936	-0.0124
558.3879	0.0023
558.5821	-0.0009
558.7764	-0.0095
558.9706	0.0012
559.1648	0.0079
559.359	-0.0003
559.5532	-0.0008
559.7473	-0.002
559.9415	0.0036
560.1356	0.0144
560.3297	-0.0044
560.5238	0.0053
560.7179	-0.0044
560.9119	0.0033
561.106	0.0002
561.3	0.0021
561.494	-0.0073
561.688	0.004
561.882	-0.004
562.076	0.0087
562.2699	0.0137
562.4639	0.022
562.6578	0.0106
562.8517	0.0018
563.0456	0.0031
563.2395	0.0049
563.4333	0.0058
563.6272	0.0004
563.821	0.0048
564.0148	0.0028
564.2086	-0.0017
564.4024	0.0086
564.5961	0.0034
564.7899	0.0109
564.9836	0.0023
565.1773	0.0139
565.371	0.0112
565.5647	0.0031
565.7584	0.0078
565.952	0.0029
566.1456	0.0027
566.3393	0.0025
566.5329	-0.0005
566.7264	0.0035
566.92	0.0055
567.1136	-0.0026
567.3071	-0.0029
567.5006	0.0124
567.6941	0.0065
567.8876	-0.0033
568.0811	0.0149
568.2745	0.0011
568.468	0.0034
568.6614	0.0005
568.8548	0.0052
569.0482	0.0017
569.2416	0.0029
569.4349	0.0046
569.6283	0.0016
569.8216	0.01
570.0149	0.0026
570.2082	0.0089
570.4015	-0.0009
570.5947	0.0057
570.788	0.0044
570.9812	-0.0011
571.1744	0.001
571.3676	0.0038
571.5608	-0.0006
571.754	0.0064
571.9471	0.0046
572.1402	0.002
572.3333	0.0002
572.5264	0.0058
572.7195	0.0001
572.9126	0.0048
573.1057	0.0025
573.2987	0.0004
573.4917	-0.002
573.6847	-0.0012
573.8777	0.0053
574.0707	0.0041
574.2636	0.0018
574.4566	-0.0001
574.6495	0.0003
574.8424	0.0025
575.0353	0.0052
575.2281	0.0082
575.421	-0.0002
575.6138	-0.0007
575.8067	0.0033
575.9995	0.0013
576.1923	0.0049
576.385	0.0016
576.5778	0.0088
576.7706	0.0047
576.9633	0.0028
577.156	-0.003
577.3487	0.0017
577.5414	-0.0007
577.734	-0.0008
577.9267	0.006
578.1193	0.0035
578.3119	-0.0036
578.5045	0.0006
578.6971	-0.0021
578.8897	0.0013
579.0822	0.0076
579.2747	0.001
579.4673	0.002
579.6598	0.0031
579.8522	0.004
580.0447	0.0042
580.2372	0.008
580.4296	0.0043
580.622	0.0041
580.8144	0.0048
581.0068	0.0045
581.1992	0.0019
581.3915	0
581.5839	0.0034
581.7762	0.0004
581.9685	0.0025
582.1608	0.0015
582.353	0.0025
582.5453	0.0037
582.7375	0.0038
582.9298	0.0003
583.122	-0.0004
583.3142	0.001
583.5063	0.0008
583.6985	0.0004
583.8906	0.0013
584.0827	0.0047
584.2749	-0.0021
584.4669	-0.0007
584.659	0.007
584.8511	0.0059
585.0431	0.0034
585.2352	-0.0015
585.4272	0.0043
585.6192	0.0037
585.8111	0.0039
586.0031	0.0009
586.195	0.0022
586.387	-0
586.5789	0.0044
586.7708	0.0042
586.9627	0.0048
587.1545	0.0049
587.3464	0.0022
587.5382	-0.0023
587.73	0.0049
587.9218	0.0009
588.1136	0
588.3053	0.0022
588.4971	-0.0019
588.6888	-0.0028
588.8805	0.0027
589.0722	0.0102
589.2639	0.0058
589.4556	0.0079
589.6472	0.0033
589.8389	0.0046
590.0305	0.0005
590.2221	0.0056
590.4137	-0.003
590.6052	-0.0014
590.7968	0.0025
590.9883	-0.0005
591.1798	0.0074
591.3713	-0.0023
591.5628	0.0031
591.7543	0.0016
591.9458	-0.0022
592.1372	0.0033
592.3286	0.0033
592.52	-0.0007
592.7114	0.0006
592.9028	0.0031
593.0941	0.0058
593.2855	0.0026
593.4768	0.005
593.6681	0.0051
593.8594	0.0078
594.0506	0.0008
594.2419	0.0007
594.4331	0.0021
594.6244	-0.0013
594.8156	0.0002
595.0067	-0.0035
595.1979	-0.002
595.3891	0.0008
595.5802	0.0039
595.7713	0.0008
595.9624	0.0091
596.1535	0.0055
596.3446	-0.0024
596.5357	0.0021
596.7267	-0.0009
596.9177	-0.0007
597.1087	-0.002
597.2997	0.0015
597.4907	0.0034
597.6817	0.004
597.8726	0.0075
598.0635	0.0028
598.2544	0.0072
598.4453	0.0035
598.6362	0.0012
598.827	-0.0023
599.0179	0.0051
599.2087	0.0024
599.3995	0.0038
599.5903	0.0064
599.7811	0.0114
599.9718	-0.0062
600.1626	-0.0032
600.3533	0.0024
600.544	-0
600.7347	0.0019
600.9254	0.0077
601.116	0.0037
601.3067	0.0019
601.4973	0.0059
601.6879	0.0073
601.8785	0.0004
602.0691	-0.0012
602.2596	0.0001
602.4502	0.0036
602.6407	0.0009
602.8312	0.0073
603.0217	0.0003
603.2122	0.0006
603.4027	-0.0006
603.5931	0.0074
603.7835	-0.0018
603.9739	-0
604.1643	0.0076
604.3547	0.0016
604.5451	0.0063
604.7354	-0.0017
604.9257	-0.0024
605.116	0.0013
605.3063	0.0085
605.4966	-0.001
605.6869	0.0072
605.8771	0.0031
606.0673	0.0028
606.2575	0.0005
606.4477	0.0075
606.6379	-0.0005
606.8281	0.0031
607.0182	0.001
607.2083	-0.0011
607.3985	0.0039
607.5885	-0.0005
607.7786	0.002
607.9687	0.008
608.1587	0.001
608.3488	0.0053
608.5388	-0.0023
608.7288	-0.0029
608.9187	-0.0015
609.1087	0.0081
609.2986	0.0048
609.4886	0.0028
609.6785	0.0053
609.8684	0.0012
610.0582	-0.0042
610.2481	-0.0005
610.4379	0.0063
610.6278	-0.0042
610.8176	0.0062
611.0074	0.0032
611.1971	0.0078
611.3869	0.0029
611.5766	-0.0058
611.7664	0.0029
611.9561	0.0059
612.1458	0.0068
612.3354	0.002
612.5251	0.0007
612.7147	0.0067
612.9044	-0.0011
613.094	0.0022
613.2836	-0.0008
613.4731	0.0066
613.6627	0.0067
613.8522	0.0043
614.0417	0.0085
614.2313	0.003
614.4207	0.005
614.6102	0.0004
614.7997	0.0122
614.9891	0.0036
615.1785	0.0011
615.3679	0.0073
615.5573	0.0092
615.7467	-0.0067
615.9361	0.0055
616.1254	0.0047
616.3147	0.0002
616.504	0.007
616.6933	0.0043
616.8826	-0.0017
617.0718	0.0117
617.2611	-0.0042
617.4503	-0.0015
617.6395	0.0045
617.8287	0.0013
618.0179	-0.0003
618.207	0.006
618.3961	-0.0022
618.5853	-0.0048
618.7744	-0.0016
618.9634	0.0073
619.1525	0.0036
619.3416	-0.002
619.5306	0.0099
619.7196	0.0119
619.9086	0.0037
620.0976	0.0053
620.2866	0.015
620.4755	0.001
620.6645	0.0083
620.8534	0.0071
621.0423	-0.0075
621.2312	0.0007
621.42	-0.0032
621.6089	0.0011
621.7977	0.0037
621.9865	-0.0025
622.1753	-0.0093
622.3641	0.0021
622.5529	-0.0049
622.7416	0.0001
622.9303	-0.0047
623.1191	-0.0026
623.3078	-0.0028
623.4964	-0.0011
623.6851	0.0059
623.8737	-0.0066
624.0624	-0.0132
624.251	0.0081
624.4396	0.0043
624.6282	0.0068
624.8167	-0.0014
625.0053	0.012
625.1938	-0.0012
625.3823	0.0077
625.5708	-0.0113
625.7593	-0.0095
625.9477	0.0034
626.1362	0.0069
626.3246	0.0046
626.513	0.0125
626.7014	0.0107
626.8898	0.0151
627.0781	0.0001
627.2665	0.0196
627.4548	-0.0015
627.6431	0.0025
627.8314	0.0081
628.0197	0.0067
628.2079	0.0055
628.3962	-0.005
628.5844	-0.0062
628.7726	-0.0074
628.9608	0.0124
629.1489	0.0017
629.3371	-0.0091
629.5252	0.0113
629.7134	-0.011
629.9015	0.0009
630.0895	-0.0035
630.2776	-0.0001
630.4657	0.0107
630.6537	0.0015
630.8417	-0.0036
631.0297	0.0025
631.2177	-0.0075
631.4057	0.0023
631.5936	0.0014
631.7815	0.0054
631.9695	0.0203
632.1574	0.002
632.3452	-0.0028
632.5331	-0.0029
632.7209	0.0129
632.9088	-0.0028
633.0966	0.0209
633.2844	0.0078
633.4722	0.0004
633.6599	0.0227
633.8477	0.0084
634.0354	0.0232
634.2231	-0.0075
634.4108	-0.004
634.5985	0.0214
634.7861	0.0066
634.9738	-0.0041
635.1614	-0.0002
635.349	-0.0023
635.5366	0.0067
635.7242	0.0068
635.9117	0.0148
636.0993	0.008
636.2868	0.0031
636.4743	-0.0075
636.6618	-0.0013
636.8492	0.013
637.0367	-0.0134
637.2241	0.003
637.4115	0.0324
637.5989	-0.0002
637.7863	0.031
637.9737	-0.0124
638.161	0.0131
638.3484	-0.0007
638.5357	-0.0002
638.723	-0.0002
638.9103	-0.0171
639.0975	-0.0009
639.2848	0.0086
639.472	0.0195
639.6592	-0.0224
639.8464	-0.0045
640.0336	-0.0074
640.2208	0.0025
640.4079	-0.0053
640.595	-0.0041
640.7821	0.0163
640.9692	0.0033
641.1563	-0.0028
641.3434	0.0158
641.5304	0.0186
641.7174	0.0137
641.9044	-0.0073
642.0914	0.0272
642.2784	0.0009
642.4653	-0.0141
642.6523	0.016
642.8392	-0.011
643.0261	0.0229
643.213	0.0123
643.3999	0.0228
643.5867	0.0163
643.7735	-0.0046
643.9604	0.0207
644.1472	0.0029
644.3339	0.0025
644.5207	-0.0056
644.7075	0.0121
644.8942	0.0042
645.0809	-0.001
645.2676	-0.0151
645.4543	-0.0003
645.6409	0.0219
645.8276	0.0061
646.0142	0.004
646.2008	0.011
646.3874	-0.0009
646.574	-0.0046
646.7605	-0.0006
646.9471	-0.0091
647.1336	-0.0297
647.3201	0.0064
647.5066	0.0069
647.6931	-0.0033
647.8795	-0.0087
648.0659	0.0166
648.2524	-0.0057
648.4388	0.0126
648.6252	0.0187
648.8115	0.0074
648.9979	0.0085
649.1842	-0.0091
649.3705	0.0156
649.5568	-0.0144
649.7431	-0.0013
649.9294	-0.0146
650.1156	-0.0022
650.3018	0.0073
650.488	0.0128
650.6742	0.0267
650.8604	0.0057
651.0466	-0.0085
651.2327	0.0002
651.4188	0.0002
651.6049	0.0088
651.791	-0.0027
651.9771	-0.0033
652.1632	0.0052
652.3492	0.0047
652.5352	0.0137
652.7212	0.0069
652.9072	-0.0049
653.0932	0.0171
653.2791	0.0057
653.465	0.0074
653.651	0.0031
653.8369	-0.0054
654.0227	-0.0063
654.2086	0.0008
654.3944	0.0137
654.5803	0.002
654.7661	-0.0029
654.9519	-0.0014
655.1377	0
655.3234	0
655.5092	0
655.6949	0
655.8806	0
656.0663	0
656.2519	0
656.4376	0
656.6232	0
656.8088	0
656.9945	0
657.18	0
657.3656	0
657.5511	0
657.7367	0
657.9222	0
658.1077	0
658.2932	0
658.4786	0
658.6641	0
658.8495	0
659.0349	0
659.2203	0
659.4057	0
659.591	0.0729
659.7764	0.016
659.9617	-0.001
660.147	0.0048
660.3323	0.0204
660.5176	-0.0009
660.7028	-0.0043
660.888	0.0155
661.0733	0.0312
661.2585	-0.0148
661.4436	0.0017
661.6288	0.0038
661.8139	0.0028
661.9991	-0.0201
662.1842	-0.0066
662.3693	-0.0107
662.5544	0.0052
662.7394	0.0029
662.9245	0.0122
663.1095	-0.0142
663.2945	-0.0188
663.4795	0.0024
663.6644	-0.0128
663.8494	-0.008
664.0343	0.0171
664.2193	-0.0003
664.4042	0.0099
664.589	-0.009
664.7739	-0.0029
664.9587	-0.0227
665.1436	-0.0123
665.3284	-0.0057
665.5132	-0.0347
665.698	0.013
665.8827	0.0019
666.0675	-0.0155
666.2522	0.0314
666.4369	-0.0125
666.6216	-0.0024
666.8063	0.0023
666.9909	0.0006
667.1756	-0.0046
667.3602	-0
667.5448	0.0359
667.7294	0.0041
667.9139	-0.0089
668.0985	0.0294
668.283	0.0163
668.4675	0.0188
668.652	0.0026
668.8365	-0.022
669.0209	0.0194
669.2054	0.0106
669.3898	0.0025
669.5742	0.0071
669.7586	0.0003
669.943	0.0015
670.1273	-0.0063
670.3117	0.0105
670.496	0.0042
670.6803	0.0006
670.8646	-0.0267
671.0488	0.0144
671.2331	-0.0074
671.4173	0.0034
671.6015	0.0046
671.7857	0.0084
671.9699	0.0094
672.1541	-0.0066
672.3382	0.0009
672.5223	-0.0025
672.7064	0.0028
672.8905	0.0035
673.0746	-0.003
673.2587	-0.0097
673.4427	-0.003
673.6267	0.0098
673.8107	0.0236
673.9947	0.0229
674.1787	0.0076
674.3626	-0.0056
674.5465	-0.0003
674.7304	-0.0163
674.9143	-0.0117
675.0982	-0.0086
675.2821	0.0008
675.4659	-0.0095
675.6497	0.0179
675.8335	-0.0039
676.0173	-0.0181
676.2011	0.0185
676.3849	0.0025
676.5686	0.0175
676.7523	0.0103
676.936	0.0095
677.1197	-0.0071
677.3034	0.0313
677.487	0.0014
677.6706	0.0119
677.8542	-0.0018
678.0378	0.0139
678.2214	0.0141
678.405	0.0112
678.5885	0.0108
678.772	0.0147
678.9555	-0.0066
679.139	0.0243
679.3225	-0.0051
679.5059	-0.0067
679.6894	0.0166
679.8728	-0.0067
680.0562	0.0064
680.2395	0.0061
680.4229	0.001
680.6062	0.0103
680.7896	0.0032
680.9729	0.0061
681.1562	0.007
681.3394	-0.0054
681.5227	0.0102
681.7059	0.0105
681.8891	0.0143
682.0723	0.002
682.2555	-0.0135
682.4387	0.0167
682.6218	0.0041
682.805	0.0052
682.9881	0.0095
683.1712	0.0095
683.3542	0.016
683.5373	-0.0128
683.7203	0.0085
683.9034	-0.0042
684.0864	0.0121
684.2694	0.0028
684.4523	0.0171
684.6353	0.0072
684.8182	-0.0103
685.0011	0.0092
685.184	0.0025
685.3669	0.0117
685.5498	-0.0009
685.7326	0.0058
685.9154	-0.0083
686.0982	0.0151
686.281	-0.0097
686.4638	0.0112
686.6465	0.0068
686.8293	-0.0202
687.012	0.0147
687.1947	-0.0019
687.3774	0.0144
687.56	-0.0125
687.7427	0.016
687.9253	-0.0163
688.1079	0.0104
688.2905	0.0021
688.4731	0.0086
688.6556	0.0011
688.8382	-0.0269
689.0207	-0.0043
689.2032	0.0251
689.3857	0.0137
689.5681	0.0016
689.7506	0.0327
689.933	-0.022
690.1154	0.0054
690.2978	0.0075
690.4802	0.0135
690.6626	0.002
690.8449	0.0216
691.0272	0.0044
691.2095	-0.0285
691.3918	0.0097
691.5741	0.0081
691.7563	0.0009
691.9386	0.0222
692.1208	0.0005
692.303	-0.002
692.4852	-0.0038
692.6673	-0.0033
692.8495	-0.0099
693.0316	0.0121
693.2137	-0
693.3958	0.0051
693.5778	-0.0053
693.7599	-0.0171
693.9419	0.001
694.1239	0.0048
694.3059	0.0061
694.4879	0.0006
694.6699	0.0071
694.8518	-0.0124
695.0337	0.0093
695.2157	0.0159
695.3975	-0.0089
695.5794	-0.0196
695.7613	0.0088
695.9431	-0.0212
696.1249	0.0009
696.3067	0.0029
696.4885	0.0141
696.6703	-0.0042
696.852	-0.0008
697.0337	0.02
697.2154	-0.0043
697.3971	0.0183
697.5788	0.0083
697.7605	-0.0147
697.9421	0.0127
698.1237	0.0138
698.3053	-0.0003
698.4869	-0.0016
698.6685	-0.0124
698.85	0.023
699.0315	-0.012
699.213	0.0102
699.3945	-0.0218
699.576	0.019
699.7575	0.0285
699.9389	-0.0198
700.1203	0.0179
700.3017	0.0266
700.4831	0.0496
700.6645	0.0164
700.8458	-0.011
701.0271	0.0199
701.2084	0.0187
701.3897	0.0067
701.571	-0.0101
701.7523	-0.0069
701.9335	0.0021
702.1147	0.0062
702.2959	-0.0012
702.4771	0.0084
702.6583	0.007
702.8394	-0.0182
703.0205	0.0265
703.2016	-0.0156
703.3827	0.0031
703.5638	-0.0072
703.7449	0.0257
703.9259	0.0279
704.1069	-0.0065
704.2879	0.0155
704.4689	-0.0206
704.6499	0.0009
704.8308	0.0292
705.0117	0.0214
705.1927	-0.0103
705.3735	0.0014
705.5544	0.0169
705.7353	-0.0141
705.9161	-0.0407
706.0969	0.0149
706.2777	0.0061
706.4585	-0.015
706.6393	0.024
706.82	0.0076
707.0007	-0.0041
707.1815	-0.0102
707.3621	0.0288
707.5428	0.0086
707.7235	-0.0196
707.9041	0.0088
708.0847	0.0158
708.2653	0.0176
708.4459	0.0114
708.6265	-0.011
708.807	0.0158
708.9875	0.0096
709.168	-0.0105
709.3485	0.017
709.529	-0.0004
709.7095	-0.0234
709.8899	-0.0065
710.0703	0.0065
710.2507	-0.0006
710.4311	-0.003
710.6115	0.0164
710.7918	0.0201
710.9721	0.0049
711.1524	0.0029
711.3327	-0.0136
711.513	0.0064
711.6932	0.0089
711.8735	0.0166
712.0537	-0.0085
712.2339	-0.012
712.4141	0.0133
712.5942	-0.0037
712.7744	0.0107
712.9545	0.0172
713.1346	0.0396
713.3147	0.0042
713.4947	0.0033
713.6748	0.0077
713.8548	0.0173
714.0348	0.0089
714.2148	0.011
714.3948	0.0028
714.5748	0.0064
714.7547	0.0041
714.9346	0.0198
715.1145	0.0111
715.2944	-0.0015
715.4743	0.0375
715.6541	0.0051
715.834	0.0338
716.0138	0.0264
716.1936	0.0096
716.3733	-0.0015
716.5531	-0.0064
716.7328	0.0305
716.9126	-0.0015
717.0923	-0.0407
717.2719	0.0091
717.4516	0.0063
717.6312	0.0031
717.8109	0.0249
717.9905	0.017
718.1701	0.0371
718.3496	0.0019
718.5292	0.0053
718.7087	0.0109
718.8882	0.0154
719.0677	0.0081
719.2472	0.0065
719.4267	0.0052
719.6061	-0.0017
719.7856	0.0088
719.965	-0.0067
720.1443	-0.0165
720.3237	-0.0012
720.5031	0.0019
720.6824	-0.0031
720.8617	0.0274
721.041	0.0313
721.2203	-0.0304
721.3995	0.0077
721.5788	-0.0071
721.758	-0.0151
721.9372	0.0227
722.1164	-0.0135
722.2956	0.0026
722.4747	0.0164
722.6538	-0.0092
722.8329	0.0188
723.012	-0.0171
723.1911	-0.0183
723.3702	0.008
723.5492	0.0091
723.7282	0.0108
723.9072	0.0258
724.0862	0.0063
724.2652	0.0008
724.4441	-0.0105
724.623	-0.0008
724.8019	0.0299
724.9808	0.0096
725.1597	0.0024
725.3385	-0.0034
725.5174	0.0023
725.6962	0.0007
725.875	0.0217
726.0538	0.0252
726.2325	0.0252
726.4112	-0.0244
726.59	0.0007
726.7687	-0.0106
726.9474	-0.0061
727.126	0.0322
727.3047	0.0127
727.4833	0.0204
727.6619	-0.0015
727.8405	-0.0021
728.0191	0.0169
728.1976	0.0049
728.3762	0.0043
728.5547	-0.0154
728.7332	0.0069
728.9116	0.0037
729.0901	-0.0137
729.2686	-0.0025
729.447	-0.0076
729.6254	0.005
729.8038	0.0009
729.9821	-0.0115
730.1605	0.0147
730.3388	0.0047
730.5171	0.0191
730.6954	-0.0042
730.8737	-0.0012
731.0519	-0.0138
731.2302	-0.0013
731.4084	0.0008
731.5866	-0.0134
731.7648	0.013
731.9429	0.0123
732.1211	-0.0021
732.2992	0.0043
732.4773	-0.0178
732.6554	-0.0148
732.8335	0.0221
733.0115	0.0216
733.1896	-0.0061
733.3676	0.0216
733.5456	0.0076
733.7235	0.0103
733.9015	0.011
734.0794	-0.0046
734.2574	-0.0215
734.4353	0.0261
734.6131	0.0098
734.791	-0.005
734.9689	-0.0079
735.1467	0.0086
735.3245	0.0161
735.5023	0.0129
735.68	-0.0014
735.8578	0.0005
736.0355	0.0051
736.2132	0.0126
736.3909	0.0105
736.5686	0.0002
736.7463	-0.0303
736.9239	0.033
737.1015	-0.0033
737.2791	0.0258
737.4567	0.004
737.6343	-0.005
737.8118	0.0154
737.9894	-0
738.1669	-0.0096
738.3444	0.0238
738.5218	-0.0194
738.6993	0.0046
738.8767	0.0114
739.0541	0.0007
739.2315	-0.0006
739.4089	0.0188
739.5863	0.0035
739.7636	0.0133
739.9409	-0.0076
740.1182	0.0089
740.2955	0.0475
740.4728	-0.0282
740.65	-0.0147
740.8272	0.0114
741.0044	-0.0151
741.1816	0.0105
741.3588	0.0221
741.5359	-0.004
741.7131	0.0157
741.8902	-0.0167
742.0673	-0.0162
742.2444	0.0249
742.4214	0.0205
742.5985	-0.0232
742.7755	-0.0022
742.9525	-0.0271
743.1295	-0.0197
743.3064	-0.0058
743.4834	0.0218
743.6603	0.0421
743.8372	-0.0528
744.0141	0.0216
744.191	0.0014
744.3678	-0.0441
744.5446	0.0165
744.7215	-0.0027
744.8982	0.0097
745.075	0.0311
745.2518	0.0082
745.4285	0.0043
745.6052	-0.034
745.7819	0.0094
745.9586	0.0059
746.1353	0.0005
746.3119	0.0004
746.4885	0.0425
746.6651	0.0126
746.8417	-0.0059
747.0183	0.0421
747.1948	0.0258
747.3714	0.0009
747.5479	-0.0198
747.7244	0.0005
747.9008	0.0293
748.0773	0.0267
748.2537	-0.0011
748.4301	0.0249
748.6065	-0.0177
748.7829	-0.0071
748.9593	-0.0267
749.1356	0.0243
749.3119	0.0155
749.4882	0.0291
749.6645	0.0009
749.8408	0.014
750.017	-0.0097
750.1933	-0.0288
750.3695	0.0241
750.5457	-0.0017
750.7218	0.0188
750.898	-0.0283
751.0741	-0.0026
751.2502	0.0103
751.4263	-0.0231
751.6024	0.0071
751.7784	-0.0014
751.9545	-0.0265
752.1305	-0.0185
752.3065	-0.0047
752.4825	0.0008
752.6584	0.0102
752.8344	-0.0019
753.0103	-0.0225
753.1862	0.0234
753.3621	-0.0331
753.5379	0.0003
753.7138	0.0204
753.8896	0.0146
754.0654	-0.0022
754.2412	0.0115
754.417	0.0227
754.5927	0.0106
754.7685	0.0207
754.9442	0.0042
755.1199	0.0076
755.2956	0.0021
755.4712	0.0093
755.6469	0.014
755.8225	0.0107
755.9981	0.0405
756.1736	0.0107
756.3492	0.0007
756.5248	0.0048
756.7003	-0.0005
756.8758	-0.0002
757.0513	-0.007
757.2267	0.0037
757.4022	-0.009
757.5776	-0.0083
757.753	0.0115
757.9284	0.0019
758.1038	0.0116
758.2791	0.014
758.4545	-0.0148
758.6298	0.0027
758.8051	0.0053
758.9803	0.0175
759.1556	-0.0161
759.3308	-0.0134
759.506	-0.0072
759.6812	0.0188
759.8564	0.0023
760.0316	-0.0105
760.2067	0.02
760.3819	0.0018
760.557	-0.0013
760.732	0.0088
760.9071	0.0189
761.0821	-0.0166
761.2572	-0.0077
761.4322	0.0193
761.6072	0.0044
761.7821	-0.0424
761.9571	0.0138
762.132	0.0053
762.3069	0.0268
762.4818	0.01
762.6567	-0.0123
762.8316	0.0202
763.0064	0.0152
763.1812	-0.0219
763.356	-0.0172
763.5308	0.0282
763.7055	0.0158
763.8803	0.0017
764.055	0.01
764.2297	0.0059
764.4044	-0.0042
764.579	-0.0073
764.7537	-0.0045
764.9283	0.0151
765.1029	0.0171
765.2775	0.0079
765.4521	-0.0006
765.6266	0.0006
765.8011	0.0078
765.9756	0.0043
766.1501	-0.0038
766.3246	0.0324
766.4991	0.0014
766.6735	0.0339
766.8479	0.0263
767.0223	0.0038
767.1967	0.0196
767.371	-0.0036
767.5454	0.0215
767.7197	0.043
767.894	0.011
768.0683	0.0328
768.2425	0.0014
768.4168	0.0375
768.591	0.0067
768.7652	-0.0188
768.9394	-0.032
769.1135	0.007
769.2877	0.024
769.4618	0.036
769.6359	-0.0116
769.81	0.0103
769.984	-0.003
770.1581	0.0187
770.3321	0.0298
770.5061	0.0025
770.6801	0.004
770.8541	0.0094
771.028	0.0371
771.202	0.0142
771.3759	0.0097
771.5498	0.0214
771.7236	0.004
771.8975	0.0272
772.0713	0.0283
772.2451	-0.0238
772.4189	0.0386
772.5927	-0.0201
772.7665	-0.0128
772.9402	0.0127
773.1139	-0.0173
773.2876	-0.0082
773.4613	0.0261
773.635	0.0454
773.8086	0.0278
773.9822	0.0109
774.1558	0.0498
774.3294	0.0208
774.503	0.0126
774.6765	0.0096
774.8501	0.0223
775.0236	0.0435
775.1971	0.0357
775.3705	0.0381
775.544	-0.0313
775.7174	0.0252
775.8908	0.0469
776.0642	0.0133
776.2376	0.0248
776.4109	0.0042
776.5843	-0.0215
776.7576	0.0111
776.9309	0.0392
777.1041	-0.0407
777.2774	-0.0258
777.4506	0.0165
777.6238	-0.0122
777.797	-0.007
777.9702	0.0085
778.1434	0.0106
778.3165	-0.035
778.4896	-0.0137
778.6627	0.0176
778.8358	-0.0259
779.0089	-0.0412
779.1819	0.0311
779.3549	-0.0012
779.5279	-0.056
779.7009	0.0532
779.8739	0.075
780.0468	-0.0167
780.2197	0.0169
780.3926	-0.0027
780.5655	0.0302
780.7384	0.0227
780.9112	0.027
781.0841	0.0306
781.2569	0.0077
781.4297	-0.0183
781.6024	0.0087
781.7752	0.0504
781.9479	0.0449
782.1206	-0.0011
782.2933	0.0017
782.466	0.0371
782.6386	-0.0102
782.8113	-0.0092
782.9839	-0.0105
783.1565	0.0173
783.329	-0.0242
783.5016	0.0057
783.6741	-0.0073
783.8466	0.0283
784.0191	0.0145
784.1916	-0.0171
784.3641	-0.0137
784.5365	0.0007
784.7089	-0.0391
784.8813	0.0549
785.0537	0.0117
785.2261	-0.0189
785.3984	-0.015
785.5707	-0.0209
785.743	0.0231
785.9153	0.0089
786.0876	-0.0201
786.2598	-0.0205
786.432	0.0143
786.6042	0.0293
786.7764	-0.0111
786.9486	-0.0485
787.1207	0.0306
787.2928	0.0348
787.4649	0.0294
787.637	0.0198
787.8091	0.0082
787.9811	0.0507
788.1532	-0.0012
788.3252	-0.0098
788.4972	-0.0246
788.6691	0.0064
788.8411	0.0503
789.013	-0.016
789.1849	0.0021
789.3568	-0.0148
789.5287	0.0282
789.7005	-0.0085
789.8723	-0.0175
790.0442	-0.0167
790.2159	0.0125
790.3877	0.039
790.5595	0.0587
790.7312	-0.01
790.9029	-0.0531
791.0746	-0.037
791.2463	-0.0172
791.4179	-0.0326
791.5896	0.0305
791.7612	0.0183
791.9328	-0.0267
792.1044	0.033
792.2759	0.015
792.4474	0.0069
792.619	0.0033
792.7905	0.0126
792.9619	0.0515
793.1334	0.0512
793.3048	0.0706
793.4762	0.0232
793.6476	-0.0224
793.819	0.0087
793.9904	-0.0202
794.1617	-0.0289
794.333	0.0195
794.5043	-0.0186
794.6756	-0.0058
794.8469	-0.0025
795.0181	0.0127
795.1893	0.0126
795.3605	0.0322
795.5317	0.0096
795.7029	-0.0285
795.874	0.0161
796.0452	0.0071
796.2163	0.0279
796.3873	0.1092
796.5584	-0.0311
796.7294	0.0339
796.9005	0.0577
797.0715	-0.0335
797.2425	0.0568
797.4134	0.0492
797.5844	0.0469
797.7553	-0.0388
797.9262	0.071
798.0971	0.0424
798.2679	-0.0144
798.4388	0.0412
798.6096	0.1111
798.7804	0.0599
798.9512	-0.0082
799.122	-0.0052
799.2927	0.147
799.4635	-0.0737
799.6342	-0.0283
799.8049	0.0176
799.9755	-0.0389
800.1462	-0.0055
800.3168	0.0589
800.4874	-0.1031
800.658	0.0184
800.8286	0.0077
800.9991	-0.0363
801.1696	-0.013
801.3402	-0.0061
801.5106	0.004
801.6811	-0.031
801.8516	0.0228
802.022	-0.031
802.1924	-0.0361
802.3628	0.054
802.5332	0.0355
802.7035	0.0413
802.8739	0.0342
803.0442	-0.0722
803.2145	-0.013
803.3847	0.003
803.555	-0.0027
803.7252	-0.0659
803.8954	-0.0225
804.0656	0.02
804.2358	-0.0074
804.4059	0.037
804.5761	0.065
804.7462	-0.0053
804.9163	0.0257
805.0864	-0.0602
805.2564	0.0212
805.4264	-0.0195
805.5965	0.035
805.7665	-0.0904
805.9364	-0.0228
806.1064	-0.0349
806.2763	0.0488
806.4462	0.0055
806.6161	0.016
806.786	-0.0597
806.9559	-0.0001
807.1257	-0.014
807.2955	-0.0253
807.4653	0.0571
807.6351	0.0316
807.8048	-0.0135
807.9746	0.0215
808.1443	-0.016
808.314	0.0546
808.4837	0.091
808.6533	-0.072
808.8229	0.0285
808.9926	0.0533
809.1622	0.0302
809.3317	-0.0203
809.5013	-0.0215
809.6708	0.0133
809.8403	-0.0066
810.0098	-0.0141
810.1793	0.0775
810.3488	-0.0263
810.5182	0.0096
810.6876	0.0688
810.857	-0.0024
811.0264	-0.0294
811.1958	-0.0225
811.3651	-0.0815
811.5344	0.0473
811.7037	-0.0025
811.873	0.0494
812.0422	-0.1195
812.2115	0.0543
812.3807	-0.1406
812.5499	0.0348
812.7191	-0.2024
812.8882	-0.0305
813.0574	-0.0131
813.2265	-0.011
813.3956	0.0255
813.5646	-0.0329
813.7337	0.0163
813.9027	-0.0771
814.0718	0.0186
814.2407	0.0015
814.4097	0.085
814.5787	0.0671
814.7476	0.0223
814.9165	0.0216
815.0854	0.0436
815.2543	0.1082
815.4232	0.0715
815.592	0.0074
815.7608	-0.0462
815.9296	0.1068
816.0984	0.068
816.2671	-0.2039
816.4359	0.1984
816.6046	-0.0678
816.7733	-0.061
816.942	-0.0336
817.1106	0.0161
817.2793	-0.1002
817.4479	0.0392
817.6165	0.1244
817.785	0.0869
817.9536	-0.1323
818.1221	0.0386
818.2906	-0.1371
818.4591	0.0111
818.6276	0.089
818.7961	0.0226
818.9645	0.0342
819.1329	0.0391
819.3013	-0.0596
819.4697	-0.0518
819.638	0.2552
819.8064	0.0555
819.9747	0.0945
820.143	-0.1295
820.3113	0.0425
820.4795	0.0737
820.6477	0.0459
820.816	-0.0135
820.9842	0.1449
821.1523	-0.0314
821.3205	0.0423
821.4886	-0.0299
821.6567	-0.0326
821.8248	0.1411
821.9929	-0.1109
822.1609	-0.0356
822.329	-0.0344
822.497	0.0097
822.665	0.0811
822.833	0.0431
823.0009	-0.0531
823.1688	0.0834
823.3367	-0.1118
823.5046	0.0487
823.6725	-0.1222
823.8404	-0.0004
824.0082	-0.0073
824.176	-0.1513
824.3438	0.4112
824.5116	-0.071
824.6793	0.025
824.847	-0.1714
825.0147	0.0516
825.1824	0.1116
825.3501	0.0821
825.5177	-0.0402
825.6854	-0.0567
825.853	0.0594
826.0206	-0.0282
826.1881	-0.1389
826.3557	0.0178
826.5232	0.0102
826.6907	0.0215
826.8582	-0.1741
827.0257	0.003
827.1931	0.0715
827.3605	-0.0227
827.528	-0.184
827.6953	-0.1599
827.8627	-0.0707
828.03	0.039
828.1974	-0.0102
828.3647	-0.0924
828.532	-0.0572
828.6992	0.0669
828.8665	-0.0344
829.0337	-0.0151
829.2009	-0.0521
829.3681	0.0467
829.5352	-0.3354
829.7024	0.0407
829.8695	-0.0225
830.0366	0.326
830.2037	0.1197
830.3707	-0.0213
830.5378	-0.1934
830.7048	0.0186
830.8718	0.0548
831.0388	-0.0553
831.2057	-0.1042
831.3727	-0.326
831.5396	0.1415
831.7065	-0.5621
831.8734	0.0252
832.0402	0.1432
832.2071	-0.6052
832.3739	-0.1859
832.5407	-1.5051
832.7075	-0.441
832.8742	-0
833.041	0.4074
833.2077	0.1452
833.3744	0.1909
833.541	0.1099
833.7077	-0.1244
833.8743	0.1661
834.0409	0.0135
834.2075	0.1207
834.3741	-0.2506
834.5407	-0.0822
834.7072	0.016
834.8737	0.1338
835.0402	0.1511
835.2067	-0.1594
835.3731	0.1305
835.5395	-0.0989
835.706	0.157
835.8723	-0.246
836.0387	0.2782
836.2051	0.5934
836.3714	-0.1774
836.5377	0.1971
836.704	0.1073
836.8703	-0.2294
837.0365	-0.8811
837.2027	-0.0736
837.3689	0.0832
837.5351	0.2322
837.7013	-0.0008
837.8674	-0.0275
838.0335	0.0917
838.1997	-0.2489
838.3657	-0
838.5318	-0.5502
838.6978	1.2636
838.8639	-0.3401
839.0299	0.0063
839.1958	0.2976
839.3618	-0
839.5277	-0.0705
839.6937	0.0667
839.8596	-0.1746
840.0254	0.0435
840.1913	-0.3309
840.3571	-0.3928
840.523	-1.975
840.6888	-0.2145
840.8545	-0.5234
841.0203	0.1984
841.186	0.1082
841.3517	-0.233
841.5174	0.1412
841.6831	-0.0992
841.8488	0.9592
842.0144	-0.1747
842.18	0.1626
842.3456	-0.843
842.5112	-0
842.6767	0.1324
842.8422	-0.0984
843.0077	0.3614
843.1732	-0.3365
843.3387	-0
843.5042	0.238
843.6696	-0.2311
843.835	0.5536
844.0004	-0.1747
844.1657	-1.2578
844.3311	-0.5683
844.4964	-0.5386
844.6617	0.528
844.827	-0
844.9923	0.1092
845.1575	0.4452
845.3227	-0.058
845.4879	-0.0015
845.6531	0.1769
845.8183	-0
845.9834	-0
846.1485	0.2625
846.3136	-0.1547
846.4787	-0
846.6438	-0.0962
846.8088	-0
846.9738	-0
847.1388	0.1737
847.3038	0.2496
847.4687	-0
847.6337	-0.3675
847.7986	0.0595
847.9635	-0.0789
848.1284	0.6231
848.2932	-0
848.458	-0
848.6228	0.2922
848.7876	-0.0753
848.9524	-0.5717
849.1172	-1.7863
849.2819	-0
849.4466	0.2048
849.6113	0.1198
849.7759	-0.1211
849.9406	0.23
850.1052	-1.1746
850.2698	-0
850.4344	-0.4943
850.599	-0.3794
850.7635	-0.1806
850.928	0.5462
851.0925	0.4564
851.257	0.0556
851.4215	0.1301
851.5859	-0.0209
851.7503	0.3473
851.9147	-0.769
852.0791	-0.0416
852.2434	0.2835
852.4078	0.6651
852.5721	0.3837
852.7364	0.2448
852.9007	-0.2114
853.0649	-0
853.2291	0.0698
853.3934	0.6896
853.5575	0.6904
853.7217	0.0594
853.8859	-0.2225
854.05	-0.2948
854.2141	0.2885
854.3782	-0.2516
854.5423	-0.2821
854.7063	0.1541
854.8703	-0.0081
855.0343	-0.1691
855.1983	0.007
855.3623	0.1726
855.5262	0.8473
855.6901	0.3681
855.854	0.0054
856.0179	0.1935
856.1818	-0
856.3456	0.3242
856.5094	-0
856.6732	-0.4908
856.837	-1.0452
857.0008	-0
857.1645	0.1562
857.3282	-0.5234
857.4919	-0.1724
857.6556	-0.3747
857.8192	-0.2064
857.9828	-0.0826
858.1465	0.3311
858.31	0.2338
858.4736	-0.7628
858.6372	-0.3293
858.8007	0.2678
858.9642	0.3385
859.1277	-0
859.2911	-0.6919
859.4546	-0
859.618	0.4138
859.7814	0.0019
859.9448	-0.2526
860.1081	-0
860.2715	-0
860.4348	-0
860.5981	-0
860.7614	-0
860.9246	-0
861.0879	0.1444
861.2511	-0
861.4143	-0.2234
861.5774	-0.2784
861.7406	0.1123
861.9037	-0.1871
862.0668	-0.4058
862.2299	-0.174
862.393	-0
862.556	-0.3103
862.7191	-0.3716
862.8821	0.1145
863.0451	0.6371
863.208	-0.0952
863.371	-0.4217
863.5339	0.5218
863.6968	-0.0699
863.8597	-0.3079
864.0225	-0
864.1854	-0.4342
864.3482	-0.9972
864.511	-0.2923
864.6737	-0
864.8365	0.3032
864.9992	-0
865.1619	-0.3596
865.3246	-1.3502
865.4873	0.4539
865.65	0.7129
865.8126	-0
865.9752	-0.562
866.1378	-0.0475
866.3004	-0.2972
866.4629	-1.5895
866.6254	-0.272
866.7879	0.2466
866.9504	-0
867.1129	-0.3084
867.2753	-0.0897
867.4377	-0.1637
867.6001	-0.9798
867.7625	0.1881
867.9249	0.1319
868.0872	-0.0162
868.2495	0.1401
868.4118	-0
868.5741	-0.3374
868.7363	-0
868.8986	-0.2605
869.0608	-0
869.223	-0.6499
869.3851	-0
869.5473	0.1281
869.7094	0.8012
869.8715	-1.1147
870.0336	0.1711
870.1957	-0.6227
870.3577	1.1807
870.5197	0.6485
870.6817	-0.9031
870.8437	-0.3226
871.0057	0.4507
871.1676	0.3381
871.3295	0.3797
871.4914	0.0969
871.6533	-0.1587
871.8151	0.1007
871.977	0.3081
872.1388	0.4073
872.3006	-0.5598
872.4623	-0.0662
872.6241	-0
872.7858	-0.1741
872.9475	-0
873.1092	-0.1918
873.2709	-0
873.4325	-1.7984
873.5941	-0
873.7557	0.0789
873.9173	-0.2587
874.0789	0.0717
874.2404	-0
874.4019	0.015
874.5634	-0
874.7249	-0
874.8863	0.1866
875.0478	-0.4043
875.2092	0.4219
875.3706	-0
875.5319	-0
875.6933	1.2636
875.8546	-0.058
876.0159	0.015
876.1772	-0.0465
876.3385	0.3849
876.4997	0.0272
876.6609	-0
876.8221	-0
876.9833	-0
877.1445	0.4794
877.3056	0.1903
877.4667	-0.1032
877.6278	-0
877.7889	-0
877.9499	1.2911
878.111	-0.1915
878.272	0.1257
878.433	-0.1415
878.5939	0.1957
878.7549	-0
878.9158	-0
879.0767	-0.0342
879.2376	0.8779
879.3984	0.3757
879.5593	0.0985
879.7201	-1.5278
879.8809	-0
880.0417	-0.2589
880.2024	-0.1898
880.3632	-0.3283
880.5239	0.2523
880.6846	-0
880.8452	0.8871
881.0059	-0
881.1665	0.1647
881.3271	0.0987
881.4877	0.0454
881.6483	-1.2692
881.8088	-0
881.9693	-0
882.1298	-0
882.2903	-0
