Data from D4ACN5uM460nmA_Absorbance_13-05-41-661.txt Node
Date: Fri Feb 21 13:05:41 GMT 2025
User: LASERRRRR
Spectrometer: FLMT03099
Trigger mode: 0
Integration Time (sec): 1.500000E-2
Scans to average: 1
Electric dark correction enabled: true
Nonlinearity correction enabled: false
Boxcar width: 0
XAxis mode: Wavelengths
Number of Pixels in Spectrum: 3648
>>>>>Begin Spectral Data<<<<<
179.3399	-1.0038
179.5586	-1.0038
179.7771	-1.0038
179.9957	-0.2742
180.2143	-0
180.4329	-0
180.6514	-0
180.8699	-0
181.0885	0.7947
181.307	0.3936
181.5255	0.414
181.744	1.3188
181.9625	0.3204
182.181	-0
182.3994	0.2843
182.6179	-0
182.8363	-0.2943
183.0547	0.0755
183.2732	0.2409
183.4916	0.3757
183.71	0.2885
183.9284	0.3371
184.1467	0.25
184.3651	-0.0246
184.5835	0.1723
184.8018	0.2147
185.0201	0.2341
185.2385	0.3513
185.4568	0.2365
185.6751	-0.0048
185.8934	0.0187
186.1117	-0.1237
186.3299	0.0931
186.5482	0.1988
186.7664	0.161
186.9847	-0.0562
187.2029	0.4733
187.4211	0.0977
187.6393	0.3465
187.8575	0.1945
188.0757	0.3493
188.2939	0.0365
188.512	0.225
188.7302	0.2796
188.9483	0.4436
189.1665	0.6877
189.3846	0.2158
189.6027	0.173
189.8208	0.1135
190.0389	0.2478
190.257	0.1614
190.475	0.0807
190.6931	0.0716
190.9111	0.3035
191.1292	0.1502
191.3472	-0.0045
191.5652	0.2963
191.7832	-0.0095
192.0012	0.0809
192.2192	0.178
192.4371	0.0869
192.6551	0.2027
192.873	0.0968
193.091	0.0604
193.3089	0.1657
193.5268	0.2188
193.7447	0.1682
193.9626	0.1504
194.1805	0.146
194.3984	0.1433
194.6162	0.2281
194.8341	0.2076
195.0519	0.3105
195.2697	0.1997
195.4875	0.2632
195.7054	0.2196
195.9231	0.2058
196.1409	0.2959
196.3587	0.2161
196.5765	0.2808
196.7942	0.2853
197.012	0.3578
197.2297	0.2677
197.4474	0.4194
197.6651	0.3226
197.8828	0.3924
198.1005	0.4124
198.3182	0.4072
198.5358	0.3381
198.7535	0.3705
198.9711	0.3915
199.1888	0.3457
199.4064	0.3988
199.624	0.3461
199.8416	0.3254
200.0592	0.3492
200.2767	0.3932
200.4943	0.4042
200.7119	0.4301
200.9294	0.4
201.1469	0.3951
201.3645	0.4626
201.582	0.3835
201.7995	0.407
202.017	0.4393
202.2344	0.423
202.4519	0.3347
202.6694	0.3844
202.8868	0.3832
203.1042	0.3915
203.3217	0.3572
203.5391	0.3928
203.7565	0.3638
203.9739	0.3769
204.1913	0.346
204.4086	0.3301
204.626	0.3705
204.8433	0.3629
205.0607	0.3397
205.278	0.3607
205.4953	0.3379
205.7126	0.3493
205.9299	0.3162
206.1472	0.3194
206.3644	0.3305
206.5817	0.3519
206.7989	0.3286
207.0162	0.3296
207.2334	0.3407
207.4506	0.3305
207.6678	0.285
207.885	0.2827
208.1022	0.3193
208.3194	0.2919
208.5365	0.2875
208.7537	0.2865
208.9708	0.3068
209.1879	0.2838
209.405	0.2766
209.6222	0.2781
209.8392	0.2939
210.0563	0.3159
210.2734	0.2764
210.4905	0.2825
210.7075	0.2939
210.9245	0.2555
211.1416	0.273
211.3586	0.2538
211.5756	0.2396
211.7926	0.259
212.0096	0.2686
212.2265	0.2553
212.4435	0.2774
212.6604	0.2594
212.8774	0.2296
213.0943	0.2558
213.3112	0.2493
213.5281	0.2403
213.745	0.2592
213.9619	0.2247
214.1788	0.2533
214.3956	0.2518
214.6125	0.248
214.8293	0.2522
215.0461	0.2505
215.2629	0.2693
215.4798	0.2465
215.6965	0.2505
215.9133	0.2506
216.1301	0.242
216.3469	0.2545
216.5636	0.2419
216.7803	0.2507
216.9971	0.27
217.2138	0.2646
217.4305	0.2482
217.6472	0.2465
217.8639	0.2651
218.0805	0.2567
218.2972	0.2527
218.5138	0.2564
218.7305	0.2552
218.9471	0.2471
219.1637	0.2768
219.3803	0.2692
219.5969	0.2557
219.8135	0.2588
220.0301	0.2589
220.2466	0.2625
220.4632	0.2572
220.6797	0.2679
220.8962	0.2507
221.1127	0.2638
221.3292	0.2758
221.5457	0.2785
221.7622	0.2784
221.9787	0.2825
222.1951	0.2727
222.4116	0.2781
222.628	0.2845
222.8444	0.2744
223.0608	0.2727
223.2772	0.2886
223.4936	0.2873
223.71	0.2875
223.9264	0.2893
224.1427	0.2902
224.3591	0.2908
224.5754	0.2849
224.7917	0.2874
225.008	0.2923
225.2243	0.2969
225.4406	0.2992
225.6569	0.303
225.8732	0.319
226.0894	0.3097
226.3057	0.3018
226.5219	0.3179
226.7381	0.3122
226.9543	0.3077
227.1705	0.3082
227.3867	0.3202
227.6029	0.3357
227.8191	0.3398
228.0352	0.3456
228.2513	0.3483
228.4675	0.3484
228.6836	0.3457
228.8997	0.346
229.1158	0.3541
229.3319	0.37
229.548	0.3586
229.764	0.3625
229.9801	0.3815
230.1961	0.3732
230.4121	0.3658
230.6282	0.3902
230.8442	0.3905
231.0602	0.3849
231.2761	0.3848
231.4921	0.3928
231.7081	0.3875
231.924	0.3967
232.14	0.3992
232.3559	0.3992
232.5718	0.4163
232.7877	0.4148
233.0036	0.4141
233.2195	0.4209
233.4353	0.4105
233.6512	0.4163
233.867	0.4292
234.0829	0.4326
234.2987	0.4326
234.5145	0.4283
234.7303	0.4438
234.9461	0.4401
235.1619	0.4372
235.3776	0.437
235.5934	0.4398
235.8091	0.4391
236.0249	0.4336
236.2406	0.4432
236.4563	0.4476
236.672	0.444
236.8877	0.4596
237.1034	0.4494
237.319	0.4445
237.5347	0.4459
237.7503	0.4385
237.966	0.459
238.1816	0.4486
238.3972	0.463
238.6128	0.4575
238.8284	0.4664
239.0439	0.4639
239.2595	0.4572
239.475	0.4632
239.6906	0.4555
239.9061	0.4736
240.1216	0.4644
240.3371	0.4611
240.5526	0.4593
240.7681	0.4632
240.9836	0.4461
241.199	0.4489
241.4145	0.4512
241.6299	0.4477
241.8453	0.4325
242.0607	0.4405
242.2761	0.4304
242.4915	0.4122
242.7069	0.4081
242.9223	0.4184
243.1376	0.4006
243.353	0.4028
243.5683	0.3959
243.7836	0.3805
243.9989	0.3597
244.2142	0.3656
244.4295	0.362
244.6448	0.3572
244.86	0.3438
245.0753	0.3367
245.2905	0.3364
245.5057	0.3257
245.721	0.3338
245.9362	0.3222
246.1514	0.3153
246.3665	0.3097
246.5817	0.2935
246.7969	0.2911
247.012	0.2814
247.2271	0.2885
247.4423	0.2857
247.6574	0.2825
247.8725	0.2651
248.0876	0.2564
248.3026	0.2631
248.5177	0.2521
248.7328	0.2495
248.9478	0.2423
249.1628	0.2487
249.3779	0.2353
249.5929	0.2389
249.8079	0.2342
250.0228	0.2279
250.2378	0.2326
250.4528	0.2239
250.6677	0.2231
250.8827	0.2099
251.0976	0.2151
251.3125	0.2148
251.5274	0.2151
251.7423	0.2101
251.9572	0.2091
252.172	0.2037
252.3869	0.202
252.6017	0.2021
252.8166	0.2015
253.0314	0.1913
253.2462	0.1996
253.461	0.1946
253.6758	0.1929
253.8906	0.1932
254.1053	0.1867
254.3201	0.1897
254.5348	0.1862
254.7496	0.1802
254.9643	0.1929
255.179	0.1864
255.3937	0.1891
255.6083	0.1956
255.823	0.189
256.0377	0.1817
256.2523	0.1795
256.467	0.1853
256.6816	0.1824
256.8962	0.1873
257.1108	0.1838
257.3254	0.184
257.54	0.1786
257.7545	0.1781
257.9691	0.1766
258.1836	0.1718
258.3981	0.1814
258.6127	0.1769
258.8272	0.1805
259.0417	0.1719
259.2561	0.1761
259.4706	0.175
259.6851	0.1788
259.8995	0.1733
260.114	0.1766
260.3284	0.1747
260.5428	0.1719
260.7572	0.1753
260.9716	0.1791
261.186	0.1727
261.4003	0.1742
261.6147	0.1713
261.829	0.1769
262.0433	0.1737
262.2577	0.1716
262.472	0.1723
262.6863	0.1786
262.9005	0.1755
263.1148	0.1745
263.3291	0.1763
263.5433	0.1803
263.7576	0.1769
263.9718	0.1756
264.186	0.1792
264.4002	0.1792
264.6144	0.1845
264.8286	0.1754
265.0427	0.1793
265.2569	0.1772
265.471	0.1779
265.6851	0.1736
265.8993	0.1743
266.1134	0.172
266.3275	0.1743
266.5415	0.1781
266.7556	0.1757
266.9697	0.1768
267.1837	0.1766
267.3978	0.1804
267.6118	0.1692
267.8258	0.1814
268.0398	0.1758
268.2538	0.1749
268.4677	0.169
268.6817	0.1757
268.8957	0.1658
269.1096	0.1694
269.3235	0.166
269.5374	0.1753
269.7514	0.17
269.9652	0.1674
270.1791	0.1692
270.393	0.1696
270.6068	0.1725
270.8207	0.1667
271.0345	0.1696
271.2483	0.1625
271.4622	0.1687
271.676	0.1672
271.8897	0.1713
272.1035	0.1706
272.3173	0.1686
272.531	0.1629
272.7448	0.1634
272.9585	0.1654
273.1722	0.1632
273.3859	0.1652
273.5996	0.1699
273.8133	0.1698
274.0269	0.1611
274.2406	0.164
274.4542	0.1648
274.6679	0.1672
274.8815	0.1677
275.0951	0.1715
275.3087	0.1689
275.5223	0.1661
275.7358	0.1644
275.9494	0.1672
276.1629	0.1733
276.3765	0.1655
276.59	0.1664
276.8035	0.1649
277.017	0.1756
277.2305	0.172
277.444	0.172
277.6574	0.1677
277.8709	0.1802
278.0843	0.1719
278.2978	0.1736
278.5112	0.1725
278.7246	0.1763
278.938	0.1786
279.1513	0.1715
279.3647	0.1761
279.5781	0.1714
279.7914	0.1765
280.0047	0.1755
280.2181	0.1726
280.4314	0.1743
280.6447	0.184
280.8579	0.1741
281.0712	0.1732
281.2845	0.1702
281.4977	0.1778
281.711	0.1738
281.9242	0.1737
282.1374	0.1757
282.3506	0.1737
282.5638	0.1755
282.7769	0.1757
282.9901	0.1779
283.2033	0.1784
283.4164	0.1804
283.6295	0.1835
283.8426	0.1731
284.0557	0.1802
284.2688	0.1816
284.4819	0.1786
284.695	0.1829
284.908	0.1767
285.1211	0.1825
285.3341	0.1768
285.5471	0.1891
285.7601	0.1817
285.9731	0.1793
286.1861	0.1846
286.3991	0.1903
286.612	0.1869
286.825	0.1921
287.0379	0.1846
287.2508	0.1902
287.4637	0.1853
287.6766	0.1872
287.8895	0.1869
288.1024	0.1933
288.3152	0.1928
288.5281	0.1876
288.7409	0.1891
288.9538	0.1908
289.1666	0.1868
289.3794	0.189
289.5922	0.1863
289.8049	0.1908
290.0177	0.1894
290.2304	0.1922
290.4432	0.1934
290.6559	0.1954
290.8686	0.1932
291.0813	0.1922
291.294	0.1903
291.5067	0.1904
291.7194	0.1938
291.932	0.1883
292.1447	0.1895
292.3573	0.1935
292.5699	0.1955
292.7825	0.1901
292.9951	0.1935
293.2077	0.1913
293.4203	0.1944
293.6328	0.1926
293.8454	0.1957
294.0579	0.1895
294.2704	0.2018
294.4829	0.1895
294.6954	0.1934
294.9079	0.1978
295.1204	0.1937
295.3328	0.1896
295.5453	0.1934
295.7577	0.196
295.9701	0.1955
296.1825	0.1978
296.3949	0.1876
296.6073	0.1909
296.8197	0.1947
297.0321	0.1981
297.2444	0.1922
297.4567	0.1978
297.6691	0.1969
297.8814	0.1926
298.0937	0.1904
298.306	0.1898
298.5182	0.1981
298.7305	0.1974
298.9428	0.1887
299.155	0.194
299.3672	0.19
299.5794	0.1933
299.7916	0.1956
300.0038	0.1857
300.216	0.1901
300.4282	0.1887
300.6403	0.1933
300.8525	0.1877
301.0646	0.1896
301.2767	0.1945
301.4888	0.1934
301.7009	0.1959
301.913	0.1934
302.125	0.1902
302.3371	0.1891
302.5491	0.192
302.7612	0.196
302.9732	0.201
303.1852	0.1924
303.3972	0.1892
303.6092	0.1914
303.8211	0.1848
304.0331	0.1897
304.245	0.1898
304.457	0.1884
304.6689	0.1843
304.8808	0.1868
305.0927	0.1831
305.3046	0.1888
305.5164	0.1848
305.7283	0.1876
305.9401	0.1823
306.152	0.1784
306.3638	0.1789
306.5756	0.1858
306.7874	0.1747
306.9992	0.1687
307.2109	0.1691
307.4227	0.1775
307.6344	0.1699
307.8462	0.1701
308.0579	0.1694
308.2696	0.1674
308.4813	0.1633
308.693	0.1597
308.9046	0.1637
309.1163	0.1587
309.328	0.1589
309.5396	0.155
309.7512	0.1518
309.9628	0.1534
310.1744	0.151
310.386	0.1413
310.5976	0.1457
310.8091	0.1473
311.0207	0.1443
311.2322	0.1425
311.4437	0.1441
311.6552	0.1426
311.8667	0.146
312.0782	0.1355
312.2897	0.1422
312.5012	0.1439
312.7126	0.1354
312.924	0.1356
313.1355	0.1329
313.3469	0.1391
313.5583	0.1322
313.7696	0.1292
313.981	0.1334
314.1924	0.1293
314.4037	0.1261
314.6151	0.1263
314.8264	0.1273
315.0377	0.1301
315.249	0.1293
315.4603	0.1215
315.6716	0.1225
315.8828	0.1262
316.0941	0.1252
316.3053	0.1177
316.5165	0.1225
316.7277	0.1217
316.9389	0.1259
317.1501	0.1207
317.3613	0.1197
317.5724	0.1202
317.7836	0.1126
317.9947	0.1197
318.2058	0.1216
318.417	0.1173
318.6281	0.1172
318.8391	0.1226
319.0502	0.1235
319.2613	0.1112
319.4723	0.1179
319.6834	0.1242
319.8944	0.1204
320.1054	0.1196
320.3164	0.1125
320.5274	0.1155
320.7383	0.1202
320.9493	0.1182
321.1602	0.1211
321.3712	0.12
321.5821	0.116
321.793	0.1247
322.0039	0.1181
322.2148	0.1168
322.4257	0.1189
322.6365	0.1192
322.8474	0.1275
323.0582	0.1162
323.269	0.1249
323.4798	0.1206
323.6906	0.1194
323.9014	0.1156
324.1122	0.1144
324.3229	0.1248
324.5337	0.1202
324.7444	0.1201
324.9551	0.1247
325.1658	0.1217
325.3765	0.1258
325.5872	0.1226
325.7979	0.123
326.0085	0.1225
326.2192	0.1158
326.4298	0.1267
326.6404	0.1201
326.851	0.1183
327.0616	0.1201
327.2722	0.1203
327.4828	0.1229
327.6933	0.1247
327.9039	0.1261
328.1144	0.1272
328.3249	0.132
328.5354	0.1239
328.7459	0.1298
328.9564	0.131
329.1669	0.1289
329.3773	0.1281
329.5878	0.1251
329.7982	0.1281
330.0086	0.1294
330.219	0.1274
330.4294	0.1305
330.6398	0.1308
330.8502	0.1329
331.0605	0.1231
331.2708	0.1247
331.4812	0.1277
331.6915	0.1272
331.9018	0.1305
332.1121	0.1353
332.3224	0.1275
332.5326	0.1305
332.7429	0.1251
332.9531	0.1351
333.1633	0.1213
333.3735	0.1253
333.5837	0.1326
333.7939	0.1258
334.0041	0.1349
334.2143	0.1286
334.4244	0.1427
334.6346	0.1299
334.8447	0.1324
335.0548	0.138
335.2649	0.1348
335.475	0.1347
335.685	0.1318
335.8951	0.129
336.1051	0.1346
336.3152	0.1324
336.5252	0.1253
336.7352	0.1313
336.9452	0.1346
337.1552	0.1359
337.3652	0.1251
337.5751	0.1256
337.7851	0.1365
337.995	0.1396
338.2049	0.137
338.4148	0.1379
338.6247	0.1387
338.8346	0.1367
339.0445	0.1385
339.2543	0.1394
339.4642	0.1335
339.674	0.14
339.8838	0.141
340.0936	0.1339
340.3034	0.1279
340.5132	0.1322
340.7229	0.1439
340.9327	0.148
341.1424	0.1422
341.3522	0.1325
341.5619	0.1452
341.7716	0.1381
341.9813	0.1492
342.1909	0.1479
342.4006	0.1483
342.6102	0.1421
342.8199	0.1409
343.0295	0.147
343.2391	0.1456
343.4487	0.1474
343.6583	0.1503
343.8679	0.1424
344.0774	0.1447
344.287	0.1463
344.4965	0.15
344.706	0.1515
344.9155	0.1453
345.125	0.1491
345.3345	0.1585
345.544	0.1493
345.7534	0.1532
345.9629	0.1554
346.1723	0.1617
346.3817	0.1569
346.5911	0.1589
346.8005	0.1618
347.0099	0.1505
347.2193	0.1629
347.4286	0.1648
347.638	0.1615
347.8473	0.1657
348.0566	0.1644
348.2659	0.1671
348.4752	0.1634
348.6845	0.1618
348.8937	0.16
349.103	0.165
349.3122	0.17
349.5214	0.1653
349.7306	0.1691
349.9398	0.1668
350.149	0.1587
350.3582	0.1668
350.5674	0.1677
350.7765	0.1684
350.9856	0.1652
351.1948	0.1776
351.4039	0.173
351.613	0.1697
351.822	0.1762
352.0311	0.1684
352.2402	0.177
352.4492	0.1724
352.6582	0.1744
352.8672	0.1754
353.0762	0.1767
353.2852	0.1772
353.4942	0.1773
353.7032	0.1749
353.9121	0.1758
354.1211	0.1829
354.33	0.1798
354.5389	0.1804
354.7478	0.1828
354.9567	0.1832
355.1655	0.1867
355.3744	0.1812
355.5833	0.1884
355.7921	0.1904
356.0009	0.1911
356.2097	0.1785
356.4185	0.1809
356.6273	0.1875
356.8361	0.187
357.0448	0.1913
357.2536	0.1867
357.4623	0.1916
357.671	0.1942
357.8797	0.1989
358.0884	0.1827
358.2971	0.2003
358.5057	0.2043
358.7144	0.1918
358.923	0.2034
359.1316	0.2008
359.3402	0.1986
359.5488	0.1991
359.7574	0.2014
359.966	0.2026
360.1746	0.1993
360.3831	0.2056
360.5916	0.2034
360.8002	0.208
361.0087	0.2017
361.2172	0.2087
361.4256	0.2031
361.6341	0.21
361.8426	0.2047
362.051	0.2104
362.2594	0.2085
362.4678	0.2129
362.6762	0.2191
362.8846	0.2147
363.093	0.2167
363.3014	0.2178
363.5097	0.2217
363.718	0.2195
363.9264	0.2265
364.1347	0.2263
364.343	0.2284
364.5513	0.229
364.7595	0.2273
364.9678	0.2207
365.176	0.2317
365.3842	0.2337
365.5925	0.223
365.8007	0.2295
366.0089	0.2367
366.217	0.2301
366.4252	0.2376
366.6333	0.2366
366.8415	0.2384
367.0496	0.2332
367.2577	0.2365
367.4658	0.2418
367.6739	0.2313
367.882	0.2423
368.09	0.2423
368.2981	0.2338
368.5061	0.2392
368.7141	0.2497
368.9221	0.2536
369.1301	0.248
369.3381	0.2483
369.5461	0.2493
369.754	0.2476
369.962	0.2494
370.1699	0.2504
370.3778	0.2696
370.5857	0.2463
370.7936	0.2542
371.0015	0.2548
371.2093	0.2543
371.4172	0.2581
371.625	0.2603
371.8328	0.25
372.0406	0.2644
372.2484	0.2592
372.4562	0.2671
372.664	0.2647
372.8717	0.2684
373.0795	0.2733
373.2872	0.2759
373.4949	0.2761
373.7026	0.2677
373.9103	0.2641
374.118	0.2714
374.3256	0.2719
374.5333	0.2723
374.7409	0.2667
374.9485	0.273
375.1561	0.2732
375.3637	0.2733
375.5713	0.275
375.7789	0.2709
375.9864	0.2665
376.194	0.2808
376.4015	0.2751
376.609	0.2784
376.8165	0.2878
377.024	0.2857
377.2315	0.2887
377.4389	0.2796
377.6464	0.2885
377.8538	0.2898
378.0612	0.2888
378.2686	0.2841
378.476	0.2926
378.6834	0.2827
378.8908	0.2996
379.0981	0.2855
379.3055	0.2918
379.5128	0.2893
379.7201	0.2955
379.9274	0.2895
380.1347	0.2898
380.342	0.3043
380.5492	0.2976
380.7565	0.2966
380.9637	0.296
381.1709	0.2897
381.3781	0.3039
381.5853	0.295
381.7925	0.2988
381.9997	0.2984
382.2068	0.2986
382.4139	0.2959
382.6211	0.3061
382.8282	0.3114
383.0353	0.3149
383.2424	0.3025
383.4494	0.2936
383.6565	0.3001
383.8635	0.3081
384.0706	0.3145
384.2776	0.3088
384.4846	0.308
384.6916	0.3114
384.8986	0.3015
385.1055	0.3196
385.3125	0.3069
385.5194	0.3184
385.7263	0.3068
385.9333	0.3109
386.1402	0.3074
386.347	0.3127
386.5539	0.3136
386.7608	0.3057
386.9676	0.3096
387.1744	0.3051
387.3813	0.3134
387.5881	0.3086
387.7948	0.3231
388.0016	0.3176
388.2084	0.3127
388.4151	0.308
388.6219	0.2999
388.8286	0.3099
389.0353	0.3142
389.242	0.3044
389.4487	0.3013
389.6553	0.2945
389.862	0.2981
390.0686	0.311
390.2753	0.3066
390.4819	0.3074
390.6885	0.3016
390.8951	0.3045
391.1016	0.2932
391.3082	0.306
391.5147	0.2987
391.7213	0.2965
391.9278	0.2883
392.1343	0.2898
392.3408	0.2947
392.5473	0.2949
392.7537	0.2877
392.9602	0.2891
393.1666	0.298
393.373	0.2894
393.5794	0.2908
393.7858	0.2891
393.9922	0.2816
394.1986	0.2844
394.4049	0.2743
394.6113	0.2797
394.8176	0.2806
395.0239	0.2788
395.2302	0.2802
395.4365	0.2832
395.6428	0.2797
395.8491	0.2716
396.0553	0.2709
396.2615	0.2774
396.4678	0.2717
396.674	0.2684
396.8802	0.2659
397.0863	0.262
397.2925	0.2651
397.4987	0.2658
397.7048	0.2743
397.9109	0.2683
398.117	0.2618
398.3231	0.2637
398.5292	0.2569
398.7353	0.2669
398.9413	0.2566
399.1474	0.2638
399.3534	0.2598
399.5594	0.2635
399.7654	0.2622
399.9714	0.2688
400.1774	0.2583
400.3833	0.2649
400.5893	0.265
400.7952	0.2739
401.0011	0.2607
401.207	0.2651
401.4129	0.2554
401.6188	0.2719
401.8247	0.2686
402.0305	0.2591
402.2364	0.2649
402.4422	0.2705
402.648	0.257
402.8538	0.2482
403.0596	0.2571
403.2654	0.2616
403.4711	0.2509
403.6768	0.2618
403.8826	0.2583
404.0883	0.2664
404.294	0.2626
404.4997	0.2611
404.7054	0.2719
404.911	0.2512
405.1167	0.262
405.3223	0.2606
405.5279	0.2635
405.7335	0.2625
405.9391	0.26
406.1447	0.2672
406.3502	0.27
406.5558	0.264
406.7613	0.2628
406.9668	0.2578
407.1724	0.2654
407.3778	0.2711
407.5833	0.2616
407.7888	0.2665
407.9942	0.2529
408.1997	0.2567
408.4051	0.265
408.6105	0.2674
408.8159	0.2603
409.0213	0.2642
409.2267	0.2603
409.432	0.2483
409.6374	0.2676
409.8427	0.2624
410.048	0.2651
410.2533	0.2658
410.4586	0.2529
410.6639	0.2703
410.8691	0.2568
411.0744	0.2608
411.2796	0.2649
411.4848	0.2606
411.69	0.2578
411.8952	0.2582
412.1004	0.2625
412.3056	0.2465
412.5107	0.2644
412.7158	0.2675
412.921	0.2595
413.1261	0.2598
413.3312	0.2586
413.5362	0.2752
413.7413	0.2542
413.9464	0.2551
414.1514	0.2589
414.3564	0.2575
414.5614	0.2532
414.7664	0.2553
414.9714	0.256
415.1764	0.2585
415.3813	0.2483
415.5863	0.2668
415.7912	0.2544
415.9961	0.2536
416.201	0.2611
416.4059	0.2485
416.6108	0.2632
416.8156	0.2471
417.0205	0.2526
417.2253	0.255
417.4301	0.2553
417.6349	0.2493
417.8397	0.2568
418.0445	0.2531
418.2492	0.24
418.454	0.2501
418.6587	0.249
418.8634	0.2538
419.0681	0.2587
419.2728	0.2432
419.4775	0.2645
419.6822	0.2449
419.8868	0.2439
420.0915	0.2493
420.2961	0.2411
420.5007	0.243
420.7053	0.2424
420.9099	0.2454
421.1144	0.2433
421.319	0.2442
421.5235	0.2393
421.728	0.251
421.9325	0.2404
422.137	0.2422
422.3415	0.2306
422.546	0.2313
422.7504	0.2327
422.9549	0.239
423.1593	0.2305
423.3637	0.2294
423.5681	0.2374
423.7725	0.2355
423.9769	0.232
424.1812	0.2356
424.3856	0.2289
424.5899	0.2245
424.7942	0.2235
424.9985	0.2234
425.2028	0.2334
425.4071	0.2306
425.6113	0.2396
425.8156	0.2249
426.0198	0.229
426.224	0.2178
426.4282	0.2128
426.6324	0.2139
426.8366	0.2105
427.0407	0.2236
427.2449	0.2069
427.449	0.2148
427.6531	0.2232
427.8572	0.2128
428.0613	0.2108
428.2654	0.2205
428.4694	0.1982
428.6735	0.2093
428.8775	0.1996
429.0815	0.2033
429.2855	0.2006
429.4895	0.204
429.6935	0.2024
429.8975	0.1865
430.1014	0.2005
430.3053	0.1992
430.5093	0.1906
430.7132	0.192
430.9171	0.1952
431.1209	0.1866
431.3248	0.1789
431.5286	0.1818
431.7325	0.1915
431.9363	0.1833
432.1401	0.1784
432.3439	0.1847
432.5477	0.1722
432.7514	0.1791
432.9552	0.1686
433.1589	0.1679
433.3627	0.1684
433.5664	0.1687
433.7701	0.1676
433.9737	0.1649
434.1774	0.1643
434.3811	0.1597
434.5847	0.1581
434.7883	0.1592
434.9919	0.1511
435.1955	0.1548
435.3991	0.1633
435.6027	0.1473
435.8062	0.1715
436.0098	0.1434
436.2133	0.1441
436.4168	0.1441
436.6203	0.139
436.8238	0.1411
437.0272	0.1332
437.2307	0.1371
437.4341	0.1417
437.6375	0.141
437.841	0.1331
438.0443	0.1362
438.2477	0.1254
438.4511	0.1162
438.6545	0.1334
438.8578	0.1236
439.0611	0.1298
439.2644	0.1247
439.4677	0.1184
439.671	0.1094
439.8743	0.1164
440.0775	0.1093
440.2808	0.1089
440.484	0.1138
440.6872	0.1071
440.8904	0.0958
441.0936	0.1102
441.2967	0.0964
441.4999	0.0999
441.703	0.1059
441.9062	0.0996
442.1093	0.1069
442.3124	0.1005
442.5155	0.101
442.7185	0.0906
442.9216	0.0933
443.1246	0.0927
443.3276	0.0917
443.5307	0.0834
443.7337	0.0895
443.9366	0.0912
444.1396	0.0764
444.3426	0.0733
444.5455	0.0731
444.7484	0.0788
444.9513	0.0691
445.1542	0.0794
445.3571	0.0689
445.56	0.0719
445.7628	0.0719
445.9657	0.0751
446.1685	0.0755
446.3713	0.07
446.5741	0.0736
446.7769	0.0741
446.9797	0.0669
447.1824	0.0658
447.3852	0.0545
447.5879	0.0635
447.7906	0.0535
447.9933	0.0592
448.196	0.0507
448.3986	0.0581
448.6013	0.05
448.8039	0.0596
449.0066	0.0585
449.2092	0.062
449.4118	0.0572
449.6143	0.0568
449.8169	0.0535
450.0195	0.0424
450.222	0.0564
450.4245	0.0544
450.627	0.0487
450.8295	0.0439
451.032	0.0404
451.2345	0.0426
451.4369	0.0396
451.6394	0.0461
451.8418	0.0472
452.0442	0.0492
452.2466	0.0341
452.449	0.0421
452.6513	0.0348
452.8537	0.0416
453.056	0.0346
453.2583	0.0356
453.4607	0.0358
453.663	0.0316
453.8652	0.0285
454.0675	0.0426
454.2697	0.0331
454.472	0.0234
454.6742	0.0279
454.8764	0.034
455.0786	0.0274
455.2808	0.0245
455.4829	0.0292
455.6851	0.0305
455.8872	0.0193
456.0893	0.0253
456.2915	0.0275
456.4935	0.0278
456.6956	0.0281
456.8977	0.023
457.0997	0.0366
457.3018	0.0182
457.5038	0.0306
457.7058	0.0342
457.9078	0.0234
458.1098	0.0239
458.3117	0.03
458.5137	0.009
458.7156	0.0216
458.9175	0.0268
459.1194	0.0161
459.3213	0.0182
459.5232	0.0312
459.725	0.0167
459.9269	0.0197
460.1287	0.0136
460.3305	0.0214
460.5323	0.0203
460.7341	0.0223
460.9359	0.0147
461.1376	0.0146
461.3394	0.0182
461.5411	0.0211
461.7428	0.0088
461.9445	0.0163
462.1462	0.0165
462.3479	0.0142
462.5495	0.0211
462.7512	0.0186
462.9528	0.0144
463.1544	0.0175
463.356	0.0178
463.5576	0.0237
463.7592	0.0167
463.9607	0.0141
464.1623	0.0122
464.3638	0.0107
464.5653	0.0063
464.7668	0.0158
464.9683	0.0188
465.1697	0.0112
465.3712	0.0042
465.5726	0.0127
465.7741	0.0161
465.9755	0.0083
466.1769	0.0069
466.3782	0.0067
466.5796	0.0091
466.7809	0.0111
466.9823	0.003
467.1836	0.0063
467.3849	0.011
467.5862	0.0017
467.7875	0.0025
467.9887	0.0099
468.19	0.0012
468.3912	0.0129
468.5924	0.0014
468.7936	0.006
468.9948	0.0063
469.196	0.0094
469.3972	-0.0014
469.5983	0.0068
469.7994	0.0085
470.0006	0.0225
470.2017	0.0064
470.4027	0.0261
470.6038	0.01
470.8049	0.0045
471.0059	0.0097
471.2069	0.0039
471.408	0.0103
471.6089	0.0073
471.8099	0.0114
472.0109	0.01
472.2119	0.0227
472.4128	-0.0079
472.6137	0.0073
472.8146	0.0159
473.0155	0.0126
473.2164	0.0093
473.4173	-0.0038
473.6181	-0.0039
473.819	0.0073
474.0198	-0.004
474.2206	-0.0017
474.4214	0.0035
474.6222	-0.0028
474.8229	-0.0018
475.0237	0.0123
475.2244	0.008
475.4251	0.0024
475.6258	0.0034
475.8265	0.014
476.0272	0.0027
476.2278	0.0061
476.4285	0.0057
476.6291	0.0087
476.8297	0.0125
477.0303	0.0054
477.2309	0.0051
477.4315	0.0125
477.632	0.0019
477.8326	0.0113
478.0331	0.0086
478.2336	0.0085
478.4341	0.0106
478.6346	0.0025
478.8351	0.0023
479.0355	0.0082
479.236	0.0101
479.4364	-0.0008
479.6368	0.0063
479.8372	0.0056
480.0376	0.0079
480.2379	0.0016
480.4383	0.0107
480.6386	-0.01
480.8389	0.0047
481.0392	0.0012
481.2395	0.0108
481.4398	0.0101
481.6401	0.001
481.8403	0.0022
482.0405	0.0067
482.2408	0.005
482.441	0.0097
482.6411	0.0044
482.8413	0.0069
483.0415	0.0084
483.2416	0.0061
483.4417	0.0051
483.6419	-0.0032
483.8419	0.005
484.042	0.0019
484.2421	0.0008
484.4422	0.0035
484.6422	0.0048
484.8422	0.0102
485.0422	0.0042
485.2422	0.0028
485.4422	0.0026
485.6422	0.0002
485.8421	0.0022
486.042	0.006
486.242	-0.0031
486.4419	0.0006
486.6417	-0.0011
486.8416	0.0088
487.0415	-0.0025
487.2413	-0.002
487.4411	0.0012
487.641	-0.005
487.8408	0.0038
488.0405	0.0103
488.2403	0.0013
488.4401	0.0103
488.6398	0.005
488.8395	0.0056
489.0392	0.002
489.2389	0.0157
489.4386	-0.003
489.6383	0.0037
489.8379	-0.0039
490.0376	0.003
490.2372	0.0025
490.4368	-0.0027
490.6364	-0.0063
490.836	0.0035
491.0355	-0.0012
491.2351	0.0014
491.4346	0.0058
491.6341	-0.0034
491.8336	0.007
492.0331	0.0034
492.2326	0.0077
492.432	0.002
492.6315	0.0113
492.8309	0.0088
493.0303	0.0079
493.2297	0.0091
493.4291	0.0059
493.6284	0.0145
493.8278	0.0035
494.0271	-0.0013
494.2264	-0.0035
494.4257	0.0066
494.625	-0.0005
494.8243	-0.003
495.0236	0.0132
495.2228	0.0009
495.422	0.0039
495.6213	0.0036
495.8205	0.0124
496.0196	0.001
496.2188	0.0016
496.418	0.0014
496.6171	0.0058
496.8162	0.0009
497.0153	0.0055
497.2144	-0.0048
497.4135	-0.0008
497.6126	0.0076
497.8116	-0.0024
498.0107	0.0022
498.2097	0.0045
498.4087	-0.0007
498.6077	-0.0008
498.8067	0.0023
499.0056	0.0044
499.2046	0.0044
499.4035	0.0062
499.6024	-0.0073
499.8013	0.009
500.0002	0.0061
500.199	0.0034
500.3979	0.0009
500.5967	0.0128
500.7956	0.0078
500.9944	0.0019
501.1932	0.0117
501.3919	0.0091
501.5907	0.0075
501.7895	0.0029
501.9882	0.0002
502.1869	0.0154
502.3856	-0.0006
502.5843	0.0011
502.783	-0.0001
502.9816	0.0074
503.1803	-0.0009
503.3789	0.0057
503.5775	-0.0029
503.7761	0.0051
503.9747	0.0066
504.1732	0.0021
504.3718	0.0101
504.5703	-0.0017
504.7689	-0.0127
504.9674	-0.0014
505.1658	0.004
505.3643	0.0077
505.5628	0.0102
505.7612	0.0078
505.9597	-0.0019
506.1581	-0.0002
506.3565	-0.0043
506.5549	-0.0023
506.7532	0.0023
506.9516	0.0036
507.1499	0.0058
507.3482	0.002
507.5465	0.005
507.7448	0.0063
507.9431	0.0044
508.1414	-0.0034
508.3396	0.0025
508.5379	0.0084
508.7361	0.0088
508.9343	0.0151
509.1325	0.0114
509.3306	0.0024
509.5288	-0.0054
509.7269	0.0053
509.9251	0.0003
510.1232	0.0014
510.3213	0.0103
510.5193	0.0067
510.7174	-0.0016
510.9154	0.0026
511.1135	0.0087
511.3115	-0.0057
511.5095	0.0025
511.7075	-0.0011
511.9055	0.0106
512.1034	-0.0003
512.3014	0.0007
512.4993	0.0031
512.6972	-0.0016
512.8951	0.0133
513.093	0.0012
513.2908	0.0152
513.4887	-0.0069
513.6865	0.004
513.8844	0.0082
514.0822	0.0023
514.2799	-0.0008
514.4777	-0.0028
514.6755	0.0096
514.8732	0.0057
515.0709	0.0124
515.2687	0.0034
515.4664	0.0049
515.664	0.0093
515.8617	0.0072
516.0594	0.0053
516.257	0.0076
516.4546	0.0143
516.6522	0.0058
516.8498	0.0044
517.0474	0.0082
517.2449	0.0096
517.4425	0.0107
517.64	0.0047
517.8375	0.0111
518.035	0.001
518.2325	-0.0004
518.43	-0.0006
518.6274	0.0012
518.8249	0.0018
519.0223	0.0059
519.2197	0.0005
519.4171	0.0048
519.6145	0.0125
519.8118	-0.0039
520.0092	0.0015
520.2065	0.0167
520.4038	-0.0029
520.6011	0.0049
520.7984	0.009
520.9956	0.0016
521.1929	0.0069
521.3901	0.0135
521.5874	0.0103
521.7846	-0.0045
521.9818	0.0018
522.1789	-0.0078
522.3761	0.0099
522.5732	-0.0004
522.7704	-0.005
522.9675	-0.0096
523.1646	0.0014
523.3617	0.0077
523.5587	-0.0019
523.7558	0.0021
523.9528	0.0052
524.1498	-0.0045
524.3468	0.0057
524.5438	0.0095
524.7408	-0.0032
524.9378	0.018
525.1347	0.0095
525.3316	-0.0042
525.5285	-0.0066
525.7254	0.0012
525.9223	0.0184
526.1192	0.0045
526.316	0.0156
526.5129	0.0026
526.7097	0.009
526.9065	0.0081
527.1033	0.0093
527.3	-0.0041
527.4968	0.0182
527.6935	-0.0027
527.8903	0.0012
528.087	-0.0025
528.2837	0.0048
528.4804	-0.0035
528.677	0.0053
528.8737	-0.0019
529.0703	0.0014
529.2669	0.01
529.4635	-0.0109
529.6601	-0.0124
529.8567	0.0028
530.0532	-0.0058
530.2498	0.0028
530.4463	-0.0072
530.6428	0.0017
530.8393	0.0115
531.0358	-0.0051
531.2322	-0.008
531.4287	-0.0027
531.6251	-0.0059
531.8215	-0.0025
532.0179	0.0079
532.2143	0.0074
532.4107	0.0035
532.607	-0.0007
532.8034	-0.0042
532.9997	-0.0063
533.196	0.0042
533.3923	0.0104
533.5886	0.0123
533.7848	0.0001
533.9811	0.0098
534.1773	0.008
534.3735	0.0065
534.5697	0.0015
534.7659	-0.0005
534.9621	0.0021
535.1582	0.0079
535.3544	0.0071
535.5505	0.0148
535.7466	0.0033
535.9427	0.0007
536.1387	-0.0016
536.3348	0.0088
536.5308	-0.0015
536.7269	0.0004
536.9229	0.0066
537.1189	0.0111
537.3148	-0.0002
537.5108	0.005
537.7068	0.0137
537.9027	0.0019
538.0986	0.0125
538.2945	-0.0006
538.4904	-0.0065
538.6863	-0.0002
538.8821	0.006
539.078	0.0009
539.2738	0.0077
539.4696	-0.0069
539.6654	0.0057
539.8611	0.0037
540.0569	0.011
540.2526	0.006
540.4484	0.0013
540.6441	0.0054
540.8398	0.0132
541.0355	0.0007
541.2311	0.0046
541.4268	0.0161
541.6224	0.0124
541.818	0.0024
542.0136	0.0091
542.2092	0.009
542.4048	0.0002
542.6003	-0.0042
542.7959	0.0135
542.9914	0.002
543.1869	-0.0014
543.3824	0.0016
543.5779	0.0068
543.7734	0.0097
543.9688	0.003
544.1642	0.0035
544.3596	0.0125
544.555	0.0067
544.7504	0.0166
544.9458	0.0069
545.1411	-0.0052
545.3365	0.0139
545.5318	0.0071
545.7271	0.0101
545.9224	-0.0043
546.1177	0.001
546.3129	0.0007
546.5081	0.0002
546.7034	0.0024
546.8986	-0.0052
547.0938	0.0102
547.289	0.0053
547.4841	0.0102
547.6793	-0.0031
547.8744	0.0059
548.0695	0.0064
548.2646	0.0033
548.4597	0.0056
548.6548	0.0103
548.8498	0.0073
549.0448	-0.0037
549.2399	0.0114
549.4349	0.0064
549.6298	0.0135
549.8248	0.0007
550.0198	0.0014
550.2147	0.002
550.4096	0.0073
550.6045	0.0014
550.7994	0.0074
550.9943	0.0171
551.1892	-0.0117
551.384	0.0078
551.5788	-0.0053
551.7737	0.0094
551.9685	0.0155
552.1632	0.0067
552.358	0.0056
552.5528	0.004
552.7475	-0.0026
552.9422	0.0003
553.1369	0.0041
553.3316	0.001
553.5263	0.0111
553.7209	-0.0027
553.9156	0.0094
554.1102	0.0025
554.3048	-0.0004
554.4994	-0.003
554.694	0.0055
554.8885	0.0022
555.0831	0.0137
555.2776	-0.003
555.4721	0.0034
555.6666	0.0007
555.8611	0.0064
556.0555	0.0019
556.25	0.0117
556.4444	0.0058
556.6388	-0.0036
556.8332	-0.001
557.0276	0.0016
557.222	0.0023
557.4163	0.0083
557.6107	0.0033
557.805	0.0092
557.9993	0.0105
558.1936	-0.0039
558.3879	0.0101
558.5821	-0.0056
558.7764	-0.0012
558.9706	-0.0122
559.1648	0.0102
559.359	0.0006
559.5532	-0.0015
559.7473	-0.0031
559.9415	0.0008
560.1356	0.0103
560.3297	-0.0006
560.5238	0.0017
560.7179	-0.0004
560.9119	0.0059
561.106	0.0006
561.3	-0.0029
561.494	0.0001
561.688	-0.0003
561.882	-0.0038
562.076	0.0047
562.2699	0.0124
562.4639	0.0087
562.6578	0.0108
562.8517	0.0028
563.0456	0.0081
563.2395	0.0003
563.4333	0.0037
563.6272	0.0007
563.821	-0.0039
564.0148	-0.0081
564.2086	-0.0094
564.4024	0.0039
564.5961	0.0055
564.7899	0.0132
564.9836	-0.0033
565.1773	0.0061
565.371	0.0052
565.5647	0.0106
565.7584	0.0073
565.952	0.0115
566.1456	-0.0008
566.3393	0.0058
566.5329	0.0023
566.7264	0.0014
566.92	0.0039
567.1136	0.0044
567.3071	-0.0081
567.5006	0.0104
567.6941	0.008
567.8876	-0.0003
568.0811	0.0174
568.2745	-0.0011
568.468	0.0076
568.6614	0.0104
568.8548	0.0052
569.0482	0.0056
569.2416	0.0049
569.4349	0.0049
569.6283	-0.0023
569.8216	0.0054
570.0149	0.0002
570.2082	0.005
570.4015	0.0012
570.5947	0.0029
570.788	0.0005
570.9812	-0.0016
571.1744	0.001
571.3676	0.0074
571.5608	0.0007
571.754	0.0076
571.9471	0.0068
572.1402	0.0021
572.3333	0.0024
572.5264	0.0005
572.7195	0
572.9126	0.0046
573.1057	0.0063
573.2987	0.005
573.4917	0.0034
573.6847	0.0032
573.8777	0.0078
574.0707	0.0066
574.2636	0.0032
574.4566	0
574.6495	0.004
574.8424	0.0054
575.0353	0.0043
575.2281	0.0063
575.421	-0.0026
575.6138	-0.0016
575.8067	0.0046
575.9995	0.0012
576.1923	0.0069
576.385	0.0039
576.5778	0.0082
576.7706	0.0048
576.9633	0.0035
577.156	-0.0042
577.3487	0.0018
577.5414	0.002
577.734	0.0021
577.9267	0.0019
578.1193	0.0024
578.3119	-0.0016
578.5045	0.0023
578.6971	-0.0002
578.8897	0.0007
579.0822	0.0073
579.2747	0.0052
579.4673	0.0017
579.6598	0.0064
579.8522	0.0019
580.0447	0.0064
580.2372	0.0078
580.4296	0.0093
580.622	0.0015
580.8144	0.004
581.0068	0.0025
581.1992	0.002
581.3915	0
581.5839	0.0044
581.7762	0.0023
581.9685	0.0026
582.1608	0.0021
582.353	0.0028
582.5453	0.0017
582.7375	0.0013
582.9298	-0.0005
583.122	-0.0027
583.3142	0.0038
583.5063	-0.0007
583.6985	0.0013
583.8906	0.0013
584.0827	0.0045
584.2749	-0.0015
584.4669	0.0015
584.659	0.0041
584.8511	0.0038
585.0431	0.0038
585.2352	0.0013
585.4272	0.0055
585.6192	0.0019
585.8111	0.0006
586.0031	0.0029
586.195	0.002
586.387	-0.0007
586.5789	0.0057
586.7708	0.0069
586.9627	0
587.1545	0.0011
587.3464	0.0038
587.5382	0.0022
587.73	0.0084
587.9218	0.0021
588.1136	-0.0033
588.3053	0.0018
588.4971	0.0007
588.6888	-0.0033
588.8805	0.0076
589.0722	0.011
589.2639	0.0014
589.4556	0.0069
589.6472	0.0073
589.8389	0.0048
590.0305	-0.0018
590.2221	0.0049
590.4137	0.0005
590.6052	0.0003
590.7968	-0.0007
590.9883	0.0068
591.1798	0.0038
591.3713	0.0005
591.5628	0.0037
591.7543	0.0001
591.9458	0.0047
592.1372	0.0058
592.3286	0.0004
592.52	0.0021
592.7114	-0
592.9028	0.0074
593.0941	-0.0002
593.2855	-0.0002
593.4768	0.0082
593.6681	0.0024
593.8594	0.0011
594.0506	-0.0003
594.2419	-0.0012
594.4331	0.0055
594.6244	-0.0026
594.8156	0.0022
595.0067	-0.0022
595.1979	-0.001
595.3891	0.007
595.5802	0.0111
595.7713	-0.0005
595.9624	0.0037
596.1535	0.0003
596.3446	0.0016
596.5357	0.0067
596.7267	0.0056
596.9177	0.0067
597.1087	-0.0017
597.2997	0.002
597.4907	-0.0031
597.6817	0.0031
597.8726	0.0098
598.0635	-0.0017
598.2544	0.0078
598.4453	0.0038
598.6362	0.0012
598.827	-0.0011
599.0179	0.0049
599.2087	0.0004
599.3995	0.0031
599.5903	0.0114
599.7811	0.0067
599.9718	-0.0001
600.1626	-0.0033
600.3533	-0.0005
600.544	0.0025
600.7347	0.0059
600.9254	0.0081
601.116	0.0001
601.3067	0.0012
601.4973	0.0045
601.6879	0.0064
601.8785	0.0042
602.0691	-0.0035
602.2596	0.0085
602.4502	0.0052
602.6407	-0.0005
602.8312	0.002
603.0217	0.003
603.2122	0.0003
603.4027	-0.0023
603.5931	-0.0053
603.7835	0.0079
603.9739	0.0017
604.1643	0.0092
604.3547	0.0075
604.5451	0.0021
604.7354	-0.0027
604.9257	-0.002
605.116	-0.0025
605.3063	0.0035
605.4966	0.0008
605.6869	0.0066
605.8771	0.0018
606.0673	0.0039
606.2575	0.0025
606.4477	0.0044
606.6379	0.0032
606.8281	0.0047
607.0182	0.0059
607.2083	0.0061
607.3985	-0.0025
607.5885	0.0035
607.7786	0.0053
607.9687	0.0051
608.1587	0.0063
608.3488	0.0037
608.5388	-0.012
608.7288	-0.0018
608.9187	0.0012
609.1087	0.0076
609.2986	0.004
609.4886	-0.0016
609.6785	0.004
609.8684	-0.0071
610.0582	-0.0049
610.2481	-0.0027
610.4379	0.0113
610.6278	0.0037
610.8176	0.0083
611.0074	-0.0057
611.1971	0.0022
611.3869	0.0098
611.5766	-0.0068
611.7664	0.007
611.9561	0.0139
612.1458	0.0073
612.3354	-0.0005
612.5251	-0.0026
612.7147	0.0034
612.9044	-0.0056
613.094	0.0048
613.2836	-0.0053
613.4731	0.0062
613.6627	0.0027
613.8522	0.0019
614.0417	0.0048
614.2313	0.0007
614.4207	0.0028
614.6102	0.0085
614.7997	0.0041
614.9891	0.0075
615.1785	-0.0008
615.3679	0.0055
615.5573	0.0028
615.7467	0.0004
615.9361	0.0021
616.1254	0.0034
616.3147	0.0028
616.504	-0.0001
616.6933	0.0003
616.8826	-0.0028
617.0718	0.007
617.2611	0.0023
617.4503	0.001
617.6395	0.0055
617.8287	0.0031
618.0179	-0.0049
618.207	0.0063
618.3961	0.0023
618.5853	0.0013
618.7744	0.0042
618.9634	0.0058
619.1525	0.0052
619.3416	0.0083
619.5306	0.0051
619.7196	0.0089
619.9086	-0.0009
620.0976	-0.0034
620.2866	0.0076
620.4755	0.0014
620.6645	0.0051
620.8534	0.0044
621.0423	-0.0038
621.2312	0.0019
621.42	-0.0064
621.6089	0.0062
621.7977	0.0037
621.9865	-0.0044
622.1753	-0.0035
622.3641	-0.0073
622.5529	0.0048
622.7416	0.0023
622.9303	0.004
623.1191	0.0018
623.3078	-0.0006
623.4964	0.0021
623.6851	0.0019
623.8737	-0.0015
624.0624	-0.013
624.251	-0.0021
624.4396	-0.0011
624.6282	0.0087
624.8167	0.0076
625.0053	0.009
625.1938	0.0016
625.3823	0.0027
625.5708	-0.0058
625.7593	0
625.9477	0.0043
626.1362	-0.0042
626.3246	0.0137
626.513	-0.0041
626.7014	-0.0037
626.8898	0.01
627.0781	0.0093
627.2665	0.0147
627.4548	-0.0008
627.6431	-0.0087
627.8314	0.0172
628.0197	0.0066
628.2079	-0.0017
628.3962	0.0108
628.5844	0.0058
628.7726	0.0016
628.9608	0.0034
629.1489	0.0089
629.3371	-0.0009
629.5252	0.0044
629.7134	-0.0155
629.9015	0.0112
630.0895	-0.0146
630.2776	-0.0012
630.4657	0.0188
630.6537	0.0075
630.8417	-0.0061
631.0297	-0.0059
631.2177	0.0007
631.4057	-0.0008
631.5936	0
631.7815	0.0027
631.9695	0.0221
632.1574	0.0008
632.3452	0.017
632.5331	0.0007
632.7209	0.0104
632.9088	0.0053
633.0966	0.0325
633.2844	0.0127
633.4722	0.0116
633.6599	0.0068
633.8477	0.0157
634.0354	0.0114
634.2231	-0.0153
634.4108	0
634.5985	0.0136
634.7861	-0.0082
634.9738	0.0031
635.1614	0.0168
635.349	0
635.5366	0.0049
635.7242	0.0074
635.9117	0.0016
636.0993	0.0013
636.2868	0.0003
636.4743	0.0074
636.6618	-0.0154
636.8492	0.008
637.0367	0.0005
637.2241	0.0053
637.4115	0.0149
637.5989	-0.0032
637.7863	0.0284
637.9737	0.0079
638.161	0.0039
638.3484	-0.0123
638.5357	0.0088
638.723	0.0136
638.9103	-0.0247
639.0975	-0.0078
639.2848	-0.0041
639.472	0.0038
639.6592	0.0014
639.8464	-0.0075
640.0336	0.0081
640.2208	-0.0056
640.4079	-0.0064
640.595	-0.0145
640.7821	0.0117
640.9692	0.0056
641.1563	0.009
641.3434	0.0017
641.5304	0.0227
641.7174	0.0125
641.9044	0.0154
642.0914	0.0389
642.2784	-0.0002
642.4653	-0.0128
642.6523	0.0151
642.8392	0.0016
643.0261	0.0057
643.213	-0.0013
643.3999	0.0178
643.5867	0.0028
643.7735	0.0098
643.9604	0.0018
644.1472	0.0153
644.3339	0.0077
644.5207	0.0038
644.7075	-0.0007
644.8942	-0.0118
645.0809	0.004
645.2676	-0.0141
645.4543	0.0083
645.6409	0.0175
645.8276	-0.0079
646.0142	-0.0051
646.2008	-0.0013
646.3874	-0.0104
646.574	-0.0113
646.7605	-0.005
646.9471	0.0138
647.1336	-0.0156
647.3201	0.0032
647.5066	0.0098
647.6931	-0.0103
647.8795	-0.0054
648.0659	0.0097
648.2524	0.0089
648.4388	0.0041
648.6252	0.0111
648.8115	0.0027
648.9979	0.0111
649.1842	-0.0048
649.3705	0.0227
649.5568	-0.0088
649.7431	0.005
649.9294	-0.0029
650.1156	-0.0237
650.3018	0.0221
650.488	0.0065
650.6742	0.0226
650.8604	0.0105
651.0466	-0.0058
651.2327	0.0045
651.4188	-0.0054
651.6049	0.017
651.791	0.0104
651.9771	0.0073
652.1632	-0.0071
652.3492	0.0045
652.5352	0.0073
652.7212	0.0085
652.9072	-0.0068
653.0932	0.0067
653.2791	0.0157
653.465	-0.0012
653.651	-0.0102
653.8369	0.0013
654.0227	-0.0111
654.2086	0.0133
654.3944	0.0091
654.5803	0.009
654.7661	0.0116
654.9519	-0.003
655.1377	0
655.3234	0
655.5092	0
655.6949	0
655.8806	0
656.0663	0
656.2519	0
656.4376	0
656.6232	0
656.8088	0
656.9945	0
657.18	0
657.3656	0
657.5511	0
657.7367	0
657.9222	0
658.1077	0
658.2932	0
658.4786	0
658.6641	0
658.8495	0
659.0349	0
659.2203	0
659.4057	0
659.591	0.0915
659.7764	0.0222
659.9617	-0.0078
660.147	0.0063
660.3323	-0.0049
660.5176	-0.0109
660.7028	-0.0281
660.888	-0.0067
661.0733	0.0109
661.2585	0.0075
661.4436	0.0116
661.6288	0.0221
661.8139	-0.0057
661.9991	-0.0176
662.1842	-0.0031
662.3693	-0.0005
662.5544	0.0159
662.7394	0.0098
662.9245	0.0078
663.1095	-0.0148
663.2945	-0.0053
663.4795	-0.0249
663.6644	-0.0194
663.8494	0.0031
664.0343	0.0083
664.2193	-0.0172
664.4042	0.007
664.589	-0.0012
664.7739	0
664.9587	-0.0141
665.1436	0.0117
665.3284	0.001
665.5132	-0.0102
665.698	0.0241
665.8827	0.012
666.0675	-0.013
666.2522	0.011
666.4369	0.0166
666.6216	0.0212
666.8063	0.0096
666.9909	0.0232
667.1756	-0.0019
667.3602	0.0017
667.5448	0.0102
667.7294	0.014
667.9139	-0.0041
668.0985	0.0205
668.283	-0.0091
668.4675	0.0273
668.652	0.0013
668.8365	0.0135
669.0209	0.0138
669.2054	0.0212
669.3898	-0.0224
669.5742	0.0348
669.7586	0.0091
669.943	0.0146
670.1273	0.001
670.3117	0.0303
670.496	-0.0067
670.6803	-0.0011
670.8646	-0.0343
671.0488	0.0099
671.2331	-0.0302
671.4173	-0.0022
671.6015	-0.0073
671.7857	0.0003
671.9699	0.0126
672.1541	-0.0066
672.3382	-0.0036
672.5223	-0.0017
672.7064	0.0067
672.8905	-0.0104
673.0746	0.0003
673.2587	0.0331
673.4427	-0.0032
673.6267	-0.0027
673.8107	0.0305
673.9947	0.0143
674.1787	0.017
674.3626	0.0105
674.5465	0.008
674.7304	-0.0102
674.9143	-0.0022
675.0982	0.0189
675.2821	-0.0099
675.4659	-0.0137
675.6497	0.0266
675.8335	0.0021
676.0173	-0.0159
676.2011	0.0051
676.3849	-0.0137
676.5686	0.0226
676.7523	-0.0085
676.936	-0.0162
677.1197	0.0008
677.3034	0.0267
677.487	-0.0103
677.6706	0.0072
677.8542	-0.0091
678.0378	-0.0023
678.2214	0.0108
678.405	0.0065
678.5885	0.0147
678.772	0.0105
678.9555	0.0011
679.139	0.0162
679.3225	-0.0075
679.5059	0.006
679.6894	0.0115
679.8728	0.0064
680.0562	0.0167
680.2395	-0.0065
680.4229	0.0005
680.6062	0.0038
680.7896	-0.0082
680.9729	0.0048
681.1562	-0.0096
681.3394	0.0027
681.5227	0.0024
681.7059	0.0035
681.8891	0.0177
682.0723	-0.0012
682.2555	0.006
682.4387	-0.0095
682.6218	0.0161
682.805	0.0043
682.9881	0.0288
683.1712	0.0162
683.3542	0.0196
683.5373	-0.0094
683.7203	0.0094
683.9034	0.0031
684.0864	0.0132
684.2694	0.004
684.4523	0.0046
684.6353	0.0011
684.8182	0.0053
685.0011	0.0089
685.184	-0.0044
685.3669	0.0209
685.5498	-0.0039
685.7326	0.0086
685.9154	-0.0047
686.0982	0.0181
686.281	-0.0077
686.4638	0.0004
686.6465	0.0081
686.8293	-0.0154
687.012	0.0097
687.1947	0.0019
687.3774	0.0046
687.56	-0.0227
687.7427	0.0082
687.9253	-0.0244
688.1079	-0.0102
688.2905	0.0021
688.4731	0.0131
688.6556	0.008
688.8382	-0.004
689.0207	0.0028
689.2032	0.0296
689.3857	-0.0127
689.5681	-0.0255
689.7506	0.0251
689.933	-0.0091
690.1154	0.0069
690.2978	0.0056
690.4802	0.0228
690.6626	-0.0029
690.8449	0.0102
691.0272	0.0059
691.2095	-0.0131
691.3918	0.0144
691.5741	-0.0163
691.7563	0.0035
691.9386	0.0082
692.1208	0.0054
692.303	-0.0116
692.4852	-0.0149
692.6673	-0.0051
692.8495	-0.0135
693.0316	0.0114
693.2137	0.0094
693.3958	0.0006
693.5778	-0.0038
693.7599	-0.0072
693.9419	0.0007
694.1239	0
694.3059	0.0163
694.4879	0.014
694.6699	-0.0089
694.8518	0.0223
695.0337	0.0049
695.2157	0.0142
695.3975	0.0084
695.5794	-0.007
695.7613	-0.0287
695.9431	-0.0008
696.1249	0.0176
696.3067	-0.0126
696.4885	0.0164
696.6703	0.0002
696.852	-0.0072
697.0337	0.0179
697.2154	0.0171
697.3971	0.0054
697.5788	0.0056
697.7605	-0.0238
697.9421	0.0147
698.1237	0.0075
698.3053	0.0008
698.4869	0.0149
698.6685	-0.0027
698.85	0.0187
699.0315	-0.0108
699.213	0.0105
699.3945	-0.0113
699.576	0.0252
699.7575	0.0107
699.9389	0.0139
700.1203	0.0012
700.3017	0.0108
700.4831	0.0053
700.6645	0.0165
700.8458	-0.0047
701.0271	0.022
701.2084	-0.0085
701.3897	0.0137
701.571	-0.0141
701.7523	-0.0044
701.9335	0.001
702.1147	0.0168
702.2959	0.0043
702.4771	-0.0079
702.6583	-0.0006
702.8394	-0.0204
703.0205	0.0063
703.2016	-0.012
703.3827	-0.0322
703.5638	0.0274
703.7449	0.0194
703.9259	0.02
704.1069	-0.0262
704.2879	0.0028
704.4689	0.0062
704.6499	0.023
704.8308	-0.0128
705.0117	-0.0005
705.1927	0.003
705.3735	0.0212
705.5544	0.0245
705.7353	-0.0204
705.9161	-0.0183
706.0969	0.0204
706.2777	-0.0037
706.4585	0.0065
706.6393	0.0252
706.82	0.0181
707.0007	-0.0054
707.1815	0.0109
707.3621	0.0312
707.5428	0.0105
707.7235	-0.0042
707.9041	0.0174
708.0847	0.006
708.2653	0.0148
708.4459	-0.0038
708.6265	-0.0053
708.807	0.0315
708.9875	0.0015
709.168	-0.0111
709.3485	0.0125
709.529	0.0126
709.7095	-0.0024
709.8899	0.0046
710.0703	0.0246
710.2507	-0.0046
710.4311	-0.0299
710.6115	0.0265
710.7918	0.0046
710.9721	0.0145
711.1524	0.0101
711.3327	-0.0177
711.513	0.0016
711.6932	0.0133
711.8735	0.02
712.0537	-0.0168
712.2339	-0.0008
712.4141	0.0114
712.5942	-0.0072
712.7744	0.005
712.9545	0.0143
713.1346	0.0294
713.3147	0.006
713.4947	-0.0055
713.6748	0.0107
713.8548	0.017
714.0348	0.0008
714.2148	-0.003
714.3948	0.0131
714.5748	0.0199
714.7547	0.0213
714.9346	0.0132
715.1145	-0.0088
715.2944	-0.0317
715.4743	0.0438
715.6541	-0.018
715.834	0.0259
716.0138	0.0101
716.1936	-0.001
716.3733	-0.0049
716.5531	0.0159
716.7328	0.0256
716.9126	-0.0035
717.0923	-0.0312
717.2719	0.0143
717.4516	0.0166
717.6312	-0.0015
717.8109	0.0246
717.9905	-0.0055
718.1701	0
718.3496	0.0012
718.5292	-0.0071
718.7087	0.0008
718.8882	0.0137
719.0677	0.0026
719.2472	-0.0021
719.4267	0.0233
719.6061	-0.018
719.7856	0.0389
719.965	-0.0116
720.1443	-0.0031
720.3237	-0.0097
720.5031	0.0019
720.6824	0.0112
720.8617	0.0153
721.041	0.0209
721.2203	0.0008
721.3995	-0.0011
721.5788	0.0092
721.758	-0.0094
721.9372	-0.0032
722.1164	-0.0278
722.2956	0.0094
722.4747	0.0179
722.6538	0.0058
722.8329	0.0131
723.012	0.0187
723.1911	0.003
723.3702	0.0121
723.5492	-0.0089
723.7282	0.0083
723.9072	0.0147
724.0862	0.0091
724.2652	0.0009
724.4441	0
724.623	-0.0111
724.8019	-0.0209
724.9808	0.0217
725.1597	0.0028
725.3385	0.0062
725.5174	-0.0047
725.6962	-0.0154
725.875	0.0294
726.0538	0.0081
726.2325	0.0194
726.4112	-0.0313
726.59	0.0193
726.7687	-0.009
726.9474	0.014
727.126	0.023
727.3047	-0.0051
727.4833	0.0004
727.6619	-0.0025
727.8405	-0.0024
728.0191	0.0338
728.1976	0.0079
728.3762	0.0195
728.5547	-0.0167
728.7332	0.0158
728.9116	0.0017
729.0901	0.001
729.2686	-0.0163
729.447	-0.0053
729.6254	0.0118
729.8038	0.0125
729.9821	-0.0093
730.1605	0.0058
730.3388	-0.0026
730.5171	0.0077
730.6954	-0.0199
730.8737	0.0102
731.0519	0.0038
731.2302	0.0174
731.4084	0.0062
731.5866	0.0044
731.7648	-0.0015
731.9429	0.0184
732.1211	0.0151
732.2992	-0.0043
732.4773	-0.0078
732.6554	-0.021
732.8335	0.0308
733.0115	0.0137
733.1896	0.004
733.3676	0.0141
733.5456	-0.002
733.7235	0.0065
733.9015	0.0083
734.0794	0.0056
734.2574	-0.0285
734.4353	0.004
734.6131	-0.0096
734.791	0.01
734.9689	-0.0186
735.1467	0.0109
735.3245	-0.0008
735.5023	0.0168
735.68	-0.0124
735.8578	0.0079
736.0355	0.0032
736.2132	0.0019
736.3909	0.0035
736.5686	-0.003
736.7463	-0.0172
736.9239	0.009
737.1015	0.0156
737.2791	0.01
737.4567	-0.0102
737.6343	-0.0171
737.8118	0.0202
737.9894	-0.0097
738.1669	-0.032
738.3444	0.0227
738.5218	-0.0314
738.6993	-0.0063
738.8767	0.0096
739.0541	0.0098
739.2315	0.0019
739.4089	0.0388
739.5863	0.0109
739.7636	0.0031
739.9409	0.0126
740.1182	-0.0121
740.2955	0.0211
740.4728	-0.0261
740.65	-0.0205
740.8272	0.001
741.0044	0.0054
741.1816	0.0187
741.3588	-0.0043
741.5359	-0.0147
741.7131	-0.0078
741.8902	0.0017
742.0673	-0.0138
742.2444	0.0098
742.4214	0.0359
742.5985	0.0236
742.7755	0.0035
742.9525	-0.0113
743.1295	-0.0449
743.3064	-0.0124
743.4834	-0.0088
743.6603	0.0314
743.8372	-0.031
744.0141	0.0342
744.191	0.0216
744.3678	-0.0423
744.5446	-0.0159
744.7215	0.0126
744.8982	0.0193
745.075	0.0741
745.2518	0.0384
745.4285	0.0065
745.6052	-0.0561
745.7819	0.0119
745.9586	0.0087
746.1353	0.0182
746.3119	0.0456
746.4885	0.037
746.6651	0.0118
746.8417	0.0051
747.0183	0.0224
747.1948	0.0163
747.3714	0.0071
747.5479	0.0134
747.7244	-0.0204
747.9008	-0.0088
748.0773	0.0302
748.2537	0.0192
748.4301	0.0333
748.6065	0.0046
748.7829	-0.0348
748.9593	0.0284
749.1356	0.0147
749.3119	0.0074
749.4882	0.0248
749.6645	-0.0057
749.8408	0.0125
750.017	0.0168
750.1933	-0.008
750.3695	0.004
750.5457	-0.0182
750.7218	-0.0009
750.898	-0.0314
751.0741	-0.0066
751.2502	0.0144
751.4263	0.0029
751.6024	-0.013
751.7784	-0.0171
751.9545	0.0075
752.1305	-0.0199
752.3065	-0.0164
752.4825	0.0065
752.6584	0.0266
752.8344	-0.0141
753.0103	-0.0053
753.1862	0.0138
753.3621	-0.0042
753.5379	-0.0106
753.7138	0.0024
753.8896	0.0053
754.0654	-0.0065
754.2412	0.0014
754.417	0.0178
754.5927	-0.0013
754.7685	0.0221
754.9442	0.0325
755.1199	0.0041
755.2956	0.0057
755.4712	0.0161
755.6469	-0.0043
755.8225	0.0107
755.9981	0.0031
756.1736	0.013
756.3492	0.0022
756.5248	-0.0002
756.7003	-0.0085
756.8758	-0.0101
757.0513	-0.006
757.2267	-0.0002
757.4022	-0.0094
757.5776	0.0107
757.753	0.0378
757.9284	0.0215
758.1038	0.0052
758.2791	0.009
758.4545	-0.0298
758.6298	-0.0002
758.8051	0.0005
758.9803	-0.0012
759.1556	-0.0013
759.3308	0.0062
759.506	0.0013
759.6812	-0.0059
759.8564	-0.0161
760.0316	-0.0161
760.2067	0.0298
760.3819	-0.004
760.557	-0.0083
760.732	0.0036
760.9071	0.0226
761.0821	-0.0107
761.2572	0.0132
761.4322	-0.0006
761.6072	-0.0137
761.7821	-0.0354
761.9571	0.0072
762.132	-0.0157
762.3069	0.0261
762.4818	-0.0222
762.6567	-0.021
762.8316	0.0053
763.0064	0.0047
763.1812	-0.0062
763.356	-0.0219
763.5308	0.0225
763.7055	0.0006
763.8803	-0.0042
764.055	0.0038
764.2297	-0.004
764.4044	-0.0033
764.579	-0.0061
764.7537	-0.0039
764.9283	0.0173
765.1029	-0.005
765.2775	0.0189
765.4521	0.0026
765.6266	-0.008
765.8011	0.0198
765.9756	0.0162
766.1501	-0.0008
766.3246	-0.0022
766.4991	0.0319
766.6735	0.0144
766.8479	0.0059
767.0223	0
767.1967	-0.0198
767.371	-0.0061
767.5454	-0.0051
767.7197	0.0247
767.894	-0.002
768.0683	0.0176
768.2425	0.0132
768.4168	0.001
768.591	-0.0024
768.7652	-0.0089
768.9394	-0.0184
769.1135	-0.0182
769.2877	0.0128
769.4618	0.0103
769.6359	0.0097
769.81	0.028
769.984	-0.0158
770.1581	-0.0033
770.3321	0.0193
770.5061	-0.005
770.6801	0.0071
770.8541	-0.0044
771.028	0.0393
771.202	0.0298
771.3759	0.0239
771.5498	0.0184
771.7236	-0.0106
771.8975	0.0283
772.0713	0.0056
772.2451	-0.0072
772.4189	-0.0336
772.5927	-0.0307
772.7665	-0.0108
772.9402	0.0243
773.1139	-0.0293
773.2876	0.0045
773.4613	0.0274
773.635	0.0222
773.8086	0.0074
773.9822	0.0006
774.1558	0.0423
774.3294	-0.0225
774.503	0.0369
774.6765	0.0437
774.8501	0.0007
775.0236	0.0321
775.1971	0.0001
775.3705	-0.04
775.544	-0.0391
775.7174	0.0092
775.8908	0.0161
776.0642	0.0451
776.2376	0.011
776.4109	0.0009
776.5843	0.0125
776.7576	0.0156
776.9309	0.0136
777.1041	-0.0182
777.2774	-0.0073
777.4506	0.0044
777.6238	-0.0255
777.797	-0.0006
777.9702	0.0313
778.1434	0.0177
778.3165	-0.0268
778.4896	-0.02
778.6627	0.0107
778.8358	-0.0355
779.0089	-0.0071
779.1819	0.0243
779.3549	0.0082
779.5279	-0.0102
779.7009	0.0739
779.8739	0.0497
780.0468	0.005
780.2197	-0.0052
780.3926	-0.0084
780.5655	-0.0124
780.7384	-0.0071
780.9112	0.0076
781.0841	0.0347
781.2569	0.0119
781.4297	-0.0107
781.6024	0.0172
781.7752	0.0115
781.9479	0.0722
782.1206	-0.0078
782.2933	0.0075
782.466	0.0292
782.6386	-0.0201
782.8113	-0.0063
782.9839	0.0042
783.1565	0.0244
783.329	-0.0051
783.5016	0.0046
783.6741	-0.0161
783.8466	0.0468
784.0191	0.0196
784.1916	-0.0154
784.3641	-0.0675
784.5365	0.0308
784.7089	0.0017
784.8813	0.0649
785.0537	0.0379
785.2261	-0.0152
785.3984	-0.0068
785.5707	-0.0319
785.743	0.0433
785.9153	0.0098
786.0876	-0.0569
786.2598	-0.0682
786.432	-0.0287
786.6042	0.0356
786.7764	-0.0344
786.9486	-0.0013
787.1207	0.0546
787.2928	0.0296
787.4649	0.0046
787.637	-0.0184
787.8091	0.0235
787.9811	0.0135
788.1532	0.0018
788.3252	0.0012
788.4972	0.0279
788.6691	-0.0183
788.8411	0.0067
789.013	0.0407
789.1849	-0.0405
789.3568	0.0056
789.5287	0.0485
789.7005	-0.0854
789.8723	-0.0376
790.0442	-0.038
790.2159	-0.0141
790.3877	0.0314
790.5595	0.0159
790.7312	-0.0354
790.9029	-0.005
791.0746	0.0186
791.2463	-0.0136
791.4179	0.0195
791.5896	0.0774
791.7612	0.0226
791.9328	-0.0448
792.1044	-0.0156
792.2759	-0.0578
792.4474	-0.0291
792.619	0.0047
792.7905	0.0585
792.9619	0.0268
793.1334	0.0559
793.3048	0.0215
793.4762	0.0234
793.6476	-0.0534
793.819	-0.0163
793.9904	0.0068
794.1617	0.0044
794.333	0.0012
794.5043	0
794.6756	0.0106
794.8469	0.0162
795.0181	0.0089
795.1893	0.0244
795.3605	0.0131
795.5317	0.0041
795.7029	0.0043
795.874	-0.0191
796.0452	0.0156
796.2163	0.0122
796.3873	0.0747
796.5584	-0.0203
796.7294	0.0031
796.9005	0.006
797.0715	-0.0854
797.2425	0.1006
797.4134	0.0671
797.5844	0.0569
797.7553	-0.06
797.9262	0.0158
798.0971	0.0043
798.2679	-0.0212
798.4388	-0.011
798.6096	0.0098
798.7804	0.0265
798.9512	0.0668
799.122	-0.0125
799.2927	0.0221
799.4635	-0.0087
799.6342	-0.0075
799.8049	0.0742
799.9755	-0.0327
800.1462	0.0211
800.3168	0.023
800.4874	-0.0973
800.658	0.0928
800.8286	0.0356
800.9991	0.043
801.1696	0.0225
801.3402	-0.0194
801.5106	-0.0642
801.6811	-0.0421
801.8516	0.051
802.022	-0.0429
802.1924	-0.0019
802.3628	0.05
802.5332	0.0606
802.7035	0.0296
802.8739	-0.0037
803.0442	-0.0526
803.2145	0.0306
803.3847	0.0892
803.555	0.0297
803.7252	-0.0501
803.8954	-0.0048
804.0656	-0.0074
804.2358	0.0038
804.4059	0.0424
804.5761	-0.022
804.7462	0.0774
804.9163	-0.0153
805.0864	0.0161
805.2564	0.0002
805.4264	-0.0655
805.5965	0.0524
805.7665	0.0552
805.9364	-0.0881
806.1064	0.006
806.2763	0.0365
806.4462	0.0075
806.6161	0.0734
806.786	-0.0127
806.9559	0.019
807.1257	-0.007
807.2955	-0.0143
807.4653	0.0233
807.6351	0.0278
807.8048	0.014
807.9746	-0.0109
808.1443	-0.0261
808.314	0.0602
808.4837	0.0284
808.6533	-0.0731
808.8229	0.0407
808.9926	0.0001
809.1622	0.0471
809.3317	-0.0592
809.5013	-0.0195
809.6708	0.0438
809.8403	-0.0385
810.0098	0.0652
810.1793	-0.0511
810.3488	-0.0821
810.5182	0.0905
810.6876	0.0159
810.857	0.1131
811.0264	-0.1423
811.1958	0.1055
811.3651	0.0194
811.5344	0.0386
811.7037	0.108
811.873	0.0368
812.0422	-0.1236
812.2115	0.0144
812.3807	-0.0824
812.5499	-0.0126
812.7191	-0.1251
812.8882	-0.03
813.0574	-0.0101
813.2265	-0.0462
813.3956	-0.0081
813.5646	0.0506
813.7337	0.0001
813.9027	-0.0681
814.0718	-0.0013
814.2407	0.0548
814.4097	0.0972
814.5787	0.0777
814.7476	0.0815
814.9165	0.0516
815.0854	-0.022
815.2543	0.0002
815.4232	0.1397
815.592	0.0955
815.7608	-0.0308
815.9296	-0.0053
816.0984	0.0074
816.2671	-0.3442
816.4359	0.0317
816.6046	0.1147
816.7733	-0.0514
816.942	-0.0867
817.1106	0.2266
817.2793	-0.059
817.4479	0.0745
817.6165	0.1077
817.785	0.1591
817.9536	-0.05
818.1221	0.0301
818.2906	-0.065
818.4591	-0.034
818.6276	-0.0505
818.7961	-0.0912
818.9645	-0.0658
819.1329	-0.0473
819.3013	-0.1187
819.4697	-0.1013
819.638	-0.0424
819.8064	0.1247
819.9747	-0.0313
820.143	-0.1764
820.3113	0.0536
820.4795	0.1184
820.6477	-0.0457
820.816	0.0306
820.9842	0.0352
821.1523	0.0544
821.3205	0.0317
821.4886	-0.0428
821.6567	-0.1803
821.8248	0.0622
821.9929	-0.1484
822.1609	0.028
822.329	0.0341
822.497	-0.1004
822.665	0.0167
822.833	-0.0181
823.0009	-0.0067
823.1688	0.2439
823.3367	-0.0158
823.5046	0.1756
823.6725	0.0344
823.8404	0.0004
824.0082	-0.0885
824.176	0.0481
824.3438	0.1942
824.5116	0.0133
824.6793	0.1557
824.847	0.037
825.0147	0.446
825.1824	-0.0511
825.3501	-0.038
825.5177	-0.11
825.6854	-0.1913
825.853	0.12
826.0206	0.0225
826.1881	-0.014
826.3557	0.113
826.5232	-0.0175
826.6907	-0.0381
826.8582	0.055
827.0257	0.0992
827.1931	0.0114
827.3605	-0.0669
827.528	-0.0297
827.6953	-0.1593
827.8627	-0.1135
828.03	0.0827
828.1974	0.0771
828.3647	-0.0311
828.532	-0.0918
828.6992	0.0544
828.8665	-0.2127
829.0337	-0.0108
829.2009	-0.0515
829.3681	-0.0154
829.5352	-0.3066
829.7024	0.0415
829.8695	0.1073
830.0366	0.2854
830.2037	0.0701
830.3707	0.0669
830.5378	0.006
830.7048	-0.1826
830.8718	0.2505
831.0388	-0.0684
831.2057	-0.0183
831.3727	-0.2147
831.5396	-0.0368
831.7065	-0.7685
831.8734	0.0397
832.0402	0.1899
832.2071	-0.5216
832.3739	-0.1368
832.5407	-2.0944
832.7075	-0.2408
832.8742	0.212
833.041	0.1311
833.2077	0.2384
833.3744	-0.0879
833.541	0.0763
833.7077	0.0068
833.8743	0.0088
834.0409	-0.0388
834.2075	0.2036
834.3741	-0.172
834.5407	0.0481
834.7072	0.0603
834.8737	0.5043
835.0402	0.2652
835.2067	-0.089
835.3731	-0.0308
835.5395	-0.0142
835.706	-0.2065
835.8723	0.2384
836.0387	0.2141
836.2051	0.1324
836.3714	-0.1183
836.5377	0.0887
836.704	0.2059
836.8703	-0.0142
837.0365	-1.0205
837.2027	0.119
837.3689	0.0602
837.5351	0.0219
837.7013	-0.3407
837.8674	0.0893
838.0335	0.1404
838.1997	0.332
838.3657	-0
838.5318	-0.2326
838.6978	0.5561
838.8639	-0.3983
839.0299	0.0669
839.1958	0.3792
839.3618	0.4161
839.5277	-0.0241
839.6937	0.3759
839.8596	-0.0683
840.0254	-0.1295
840.1913	-0.4322
840.3571	-0.1702
840.523	-1.2553
840.6888	-0.0833
840.8545	-0.4216
841.0203	0.0573
841.186	-0.138
841.3517	-0.2884
841.5174	-0.0151
841.6831	0.1288
841.8488	-0.2039
842.0144	0.382
842.18	0.5955
842.3456	-0.5183
842.5112	-0
842.6767	0.0877
842.8422	0.2
843.0077	0.5362
843.1732	-0.2719
843.3387	0.4918
843.5042	-0
843.6696	0.3258
843.835	0.4782
844.0004	-0.1735
844.1657	-0.9308
844.3311	0.132
844.4964	-0.9145
844.6617	0.2249
844.827	0.5156
844.9923	0.1165
845.1575	-0.2687
845.3227	0.0017
845.4879	-0.2168
845.6531	0.3874
845.8183	0.1932
845.9834	-0
846.1485	0.2275
846.3136	0.0372
846.4787	-0
846.6438	-0.2467
846.8088	0.509
846.9738	-0.7454
847.1388	0.2017
847.3038	-0.0525
847.4687	0.3835
847.6337	-0.6237
847.7986	-0.2963
847.9635	-0.0591
848.1284	0.0949
848.2932	0.5275
848.458	-0
848.6228	-0.0222
848.7876	0.3751
848.9524	0.2036
849.1172	-1.331
849.2819	-0
849.4466	0.4155
849.6113	-0.0737
849.7759	-0
849.9406	-0.009
850.1052	-0.5408
850.2698	-0.1301
850.4344	-0.5595
850.599	0.0011
850.7635	0.2808
850.928	-0
851.0925	0.8601
851.257	0.1065
851.4215	-0
851.5859	-0.0698
851.7503	-0.5846
851.9147	-0.4436
852.0791	-0.048
852.2434	0.3251
852.4078	-0
852.5721	1.2795
852.7364	0.0335
852.9007	0.2405
853.0649	-0
853.2291	0.7932
853.3934	-0
853.5575	-0.1017
853.7217	0.1865
853.8859	0.2117
854.05	-0.3515
854.2141	1.3772
854.3782	0.2466
854.5423	-0
854.7063	0.4779
854.8703	-0.1401
855.0343	-0.1122
855.1983	0.0319
855.3623	0.1051
855.5262	-0
855.6901	0.4155
855.854	0.1635
856.0179	-0.3756
856.1818	0.2259
856.3456	0.5534
856.5094	-0.4374
856.6732	-0.425
856.837	-0.5655
857.0008	-0.5057
857.1645	0.0744
857.3282	-0.4942
857.4919	-0.2259
857.6556	-0.6271
857.8192	-0.0099
857.9828	-0.0993
858.1465	0.259
858.31	-0
858.4736	-0.8987
858.6372	-0.5126
858.8007	-0.2968
858.9642	-0.0924
859.1277	1.7555
859.2911	-0.6677
859.4546	-0
859.618	0.2171
859.7814	-0
859.9448	-0
860.1081	0.2526
860.2715	-0
860.4348	-0.3342
860.5981	0.508
860.7614	-0.2686
860.9246	-0.0362
861.0879	-0.2364
861.2511	-0
861.4143	-0
861.5774	-0.4987
861.7406	0.0224
861.9037	-0
862.0668	-0.9569
862.2299	-0
862.393	-0
862.556	-0
862.7191	-0.4748
862.8821	0.07
863.0451	-0.1017
863.208	-0
863.371	-0.826
863.5339	0.2447
863.6968	0.1535
863.8597	-0
864.0225	-0.2115
864.1854	1.0649
864.3482	-0.609
864.511	0.0631
864.6737	-0.0627
864.8365	0.0373
864.9992	-0
865.1619	-0.4458
865.3246	-1.9983
865.4873	-0.0496
865.65	1.1996
865.8126	0.0897
865.9752	-0.1212
866.1378	-0.1903
866.3004	-0.2959
866.4629	-1.4244
866.6254	-0
866.7879	0.2166
866.9504	-0
867.1129	-0
867.2753	0.3303
867.4377	-0.3467
867.6001	-0.5999
867.7625	-0.1389
867.9249	-0
868.0872	-0.0689
868.2495	0.2453
868.4118	-0
868.5741	-0.0441
868.7363	-0
868.8986	-0
869.0608	-0.1057
869.223	-0.0573
869.3851	-0
869.5473	-0.0162
869.7094	0.0858
869.8715	-1.1132
870.0336	0.0588
870.1957	-0.9647
870.3577	2.046
870.5197	-0.2739
870.6817	-0.82
870.8437	0.1235
871.0057	-0.1656
871.1676	0.4095
871.3295	-0.4744
871.4914	-0
871.6533	0.1982
871.8151	0.4485
871.977	-0.0974
872.1388	0.0247
872.3006	-0.6286
872.4623	-0.8299
872.6241	-0
872.7858	1.0875
872.9475	-0
873.1092	-0.0196
873.2709	-0
873.4325	-1.7719
873.5941	-0
873.7557	0.2807
873.9173	0.2039
874.0789	0.2695
874.2404	-0
874.4019	0.2149
874.5634	-0
874.7249	-0
874.8863	-0
875.0478	-0.365
875.2092	-0
875.3706	-0
875.5319	-0.2927
875.6933	-0
875.8546	0.1032
876.0159	-0.0218
876.1772	-0.7549
876.3385	-0
876.4997	-0
876.6609	0.1823
876.8221	-0
876.9833	-0
877.1445	1.1143
877.3056	-0.9203
877.4667	-0.5271
877.6278	-0
877.7889	-0
877.9499	-0
878.111	-0.6654
878.272	-0.2306
878.433	0.2757
878.5939	0.8466
878.7549	0.0247
878.9158	-0.3639
879.0767	-0.0537
879.2376	-0.2894
879.3984	0.8927
879.5593	0.02
879.7201	-1.5241
879.8809	0.4068
880.0417	-0.2865
880.2024	0.6168
880.3632	-0.1265
880.5239	0.2323
880.6846	-0.3564
880.8452	0.2568
881.0059	-0.9944
881.1665	-0.2132
881.3271	0.1665
881.4877	0.7659
881.6483	-0
881.8088	-0
881.9693	-0
882.1298	-0
882.2903	-0
