Data from D4ACN5uM460nmA_Absorbance_13-05-42-680.txt Node
Date: Fri Feb 21 13:05:42 GMT 2025
User: LASERRRRR
Spectrometer: FLMT03099
Trigger mode: 0
Integration Time (sec): 1.500000E-2
Scans to average: 1
Electric dark correction enabled: true
Nonlinearity correction enabled: false
Boxcar width: 0
XAxis mode: Wavelengths
Number of Pixels in Spectrum: 3648
>>>>>Begin Spectral Data<<<<<
179.3399	-0.9402
179.5586	-0.9402
179.7771	-0.9402
179.9957	-0.1685
180.2143	-0
180.4329	-0
180.6514	-1.2221
180.8699	-0
181.0885	0.1891
181.307	-0.0433
181.5255	0.4976
181.744	-0
181.9625	0.3835
182.181	0.0962
182.3994	-0
182.6179	-0.7243
182.8363	0.1854
183.0547	0.4044
183.2732	0.1981
183.4916	0.082
183.71	0.1997
183.9284	-0.0513
184.1467	0.43
184.3651	0.0426
184.5835	0.1771
184.8018	0.0414
185.0201	0.1859
185.2385	0.1806
185.4568	0.0427
185.6751	0.132
185.8934	0.0396
186.1117	-0.1672
186.3299	0.1294
186.5482	0.0674
186.7664	0.1759
186.9847	0.0313
187.2029	0.0812
187.4211	0.0281
187.6393	0.0245
187.8575	0.1317
188.0757	0.0905
188.2939	0.0688
188.512	0.1224
188.7302	0.0452
188.9483	0.0795
189.1665	0.2577
189.3846	0.1973
189.6027	0.208
189.8208	0.2054
190.0389	0.1045
190.257	0.2567
190.475	0.0555
190.6931	0.0612
190.9111	-0.0062
191.1292	0.0109
191.3472	0.0538
191.5652	0.0592
191.7832	0.0086
192.0012	0.2169
192.2192	0.2002
192.4371	0.1482
192.6551	0.0626
192.873	0.1647
193.091	0.124
193.3089	0.0669
193.5268	0.172
193.7447	0.176
193.9626	0.2775
194.1805	0.2026
194.3984	0.1911
194.6162	0.1991
194.8341	0.2732
195.0519	0.2322
195.2697	0.2706
195.4875	0.2437
195.7054	0.2705
195.9231	0.2275
196.1409	0.2702
196.3587	0.3152
196.5765	0.3403
196.7942	0.3566
197.012	0.3888
197.2297	0.2706
197.4474	0.3711
197.6651	0.2781
197.8828	0.3313
198.1005	0.3848
198.3182	0.3914
198.5358	0.3409
198.7535	0.3698
198.9711	0.3696
199.1888	0.3646
199.4064	0.3914
199.624	0.3724
199.8416	0.369
200.0592	0.3772
200.2767	0.4295
200.4943	0.4262
200.7119	0.3488
200.9294	0.4151
201.1469	0.4094
201.3645	0.4506
201.582	0.4032
201.7995	0.4311
202.017	0.3756
202.2344	0.3939
202.4519	0.4086
202.6694	0.3698
202.8868	0.3752
203.1042	0.3991
203.3217	0.3806
203.5391	0.4126
203.7565	0.3668
203.9739	0.3888
204.1913	0.3407
204.4086	0.3627
204.626	0.3436
204.8433	0.3432
205.0607	0.3605
205.278	0.3454
205.4953	0.3381
205.7126	0.3815
205.9299	0.3341
206.1472	0.3282
206.3644	0.3476
206.5817	0.3349
206.7989	0.334
207.0162	0.3106
207.2334	0.3247
207.4506	0.2761
207.6678	0.3043
207.885	0.2917
208.1022	0.3051
208.3194	0.3023
208.5365	0.3064
208.7537	0.2899
208.9708	0.2887
209.1879	0.2924
209.405	0.2925
209.6222	0.2651
209.8392	0.2849
210.0563	0.3063
210.2734	0.2659
210.4905	0.28
210.7075	0.2782
210.9245	0.2613
211.1416	0.275
211.3586	0.2566
211.5756	0.2335
211.7926	0.2568
212.0096	0.2642
212.2265	0.261
212.4435	0.2539
212.6604	0.259
212.8774	0.2375
213.0943	0.2524
213.3112	0.2591
213.5281	0.2595
213.745	0.2288
213.9619	0.2538
214.1788	0.2599
214.3956	0.2559
214.6125	0.2553
214.8293	0.2641
215.0461	0.2481
215.2629	0.2584
215.4798	0.2523
215.6965	0.24
215.9133	0.2537
216.1301	0.2439
216.3469	0.2682
216.5636	0.2587
216.7803	0.2626
216.9971	0.2524
217.2138	0.2381
217.4305	0.2458
217.6472	0.2568
217.8639	0.2606
218.0805	0.259
218.2972	0.257
218.5138	0.2583
218.7305	0.2474
218.9471	0.2439
219.1637	0.2776
219.3803	0.2518
219.5969	0.2486
219.8135	0.2608
220.0301	0.266
220.2466	0.2605
220.4632	0.2635
220.6797	0.2698
220.8962	0.2619
221.1127	0.2649
221.3292	0.2733
221.5457	0.2759
221.7622	0.2541
221.9787	0.2793
222.1951	0.2716
222.4116	0.2811
222.628	0.2889
222.8444	0.2802
223.0608	0.2827
223.2772	0.2782
223.4936	0.276
223.71	0.2852
223.9264	0.2911
224.1427	0.285
224.3591	0.2874
224.5754	0.2948
224.7917	0.2893
225.008	0.2954
225.2243	0.308
225.4406	0.2944
225.6569	0.3253
225.8732	0.3108
226.0894	0.3161
226.3057	0.3119
226.5219	0.3131
226.7381	0.3259
226.9543	0.3173
227.1705	0.3212
227.3867	0.3229
227.6029	0.3225
227.8191	0.331
228.0352	0.3474
228.2513	0.3471
228.4675	0.3466
228.6836	0.3307
228.8997	0.3463
229.1158	0.3537
229.3319	0.369
229.548	0.3544
229.764	0.3464
229.9801	0.3711
230.1961	0.3658
230.4121	0.3666
230.6282	0.3849
230.8442	0.3887
231.0602	0.3826
231.2761	0.3863
231.4921	0.3942
231.7081	0.3825
231.924	0.3938
232.14	0.3997
232.3559	0.3963
232.5718	0.4094
232.7877	0.3991
233.0036	0.4018
233.2195	0.4095
233.4353	0.4182
233.6512	0.4159
233.867	0.4208
234.0829	0.4206
234.2987	0.4305
234.5145	0.4293
234.7303	0.4325
234.9461	0.4261
235.1619	0.4364
235.3776	0.4375
235.5934	0.4285
235.8091	0.4436
236.0249	0.442
236.2406	0.4435
236.4563	0.4473
236.672	0.4405
236.8877	0.4485
237.1034	0.4444
237.319	0.4458
237.5347	0.4553
237.7503	0.4368
237.966	0.4561
238.1816	0.4508
238.3972	0.449
238.6128	0.4652
238.8284	0.4689
239.0439	0.465
239.2595	0.4696
239.475	0.4591
239.6906	0.4545
239.9061	0.4563
240.1216	0.4498
240.3371	0.4587
240.5526	0.4626
240.7681	0.4578
240.9836	0.4543
241.199	0.4499
241.4145	0.4578
241.6299	0.4372
241.8453	0.4385
242.0607	0.4301
242.2761	0.4252
242.4915	0.4198
242.7069	0.4093
242.9223	0.413
243.1376	0.4005
243.353	0.3988
243.5683	0.3941
243.7836	0.3814
243.9989	0.3695
244.2142	0.3698
244.4295	0.3652
244.6448	0.3615
244.86	0.3528
245.0753	0.3447
245.2905	0.334
245.5057	0.3353
245.721	0.331
245.9362	0.3187
246.1514	0.3138
246.3665	0.3088
246.5817	0.2962
246.7969	0.2972
247.012	0.2888
247.2271	0.2832
247.4423	0.2826
247.6574	0.2748
247.8725	0.2678
248.0876	0.268
248.3026	0.2737
248.5177	0.2486
248.7328	0.2493
248.9478	0.2442
249.1628	0.2471
249.3779	0.2443
249.5929	0.2307
249.8079	0.2306
250.0228	0.229
250.2378	0.2276
250.4528	0.2275
250.6677	0.2205
250.8827	0.2191
251.0976	0.2218
251.3125	0.2122
251.5274	0.2085
251.7423	0.2045
251.9572	0.2109
252.172	0.2
252.3869	0.2027
252.6017	0.2019
252.8166	0.1967
253.0314	0.1946
253.2462	0.1954
253.461	0.193
253.6758	0.1917
253.8906	0.1897
254.1053	0.1937
254.3201	0.192
254.5348	0.182
254.7496	0.1852
254.9643	0.1856
255.179	0.1944
255.3937	0.1825
255.6083	0.1889
255.823	0.1845
256.0377	0.1759
256.2523	0.18
256.467	0.1778
256.6816	0.1787
256.8962	0.1844
257.1108	0.1833
257.3254	0.1824
257.54	0.1751
257.7545	0.1844
257.9691	0.1776
258.1836	0.1773
258.3981	0.1778
258.6127	0.1723
258.8272	0.178
259.0417	0.1734
259.2561	0.1772
259.4706	0.1697
259.6851	0.174
259.8995	0.1775
260.114	0.1768
260.3284	0.1738
260.5428	0.173
260.7572	0.1721
260.9716	0.1802
261.186	0.1676
261.4003	0.1767
261.6147	0.1726
261.829	0.1757
262.0433	0.1757
262.2577	0.1773
262.472	0.1756
262.6863	0.1842
262.9005	0.1758
263.1148	0.1752
263.3291	0.1749
263.5433	0.1808
263.7576	0.1752
263.9718	0.1716
264.186	0.1748
264.4002	0.1758
264.6144	0.1745
264.8286	0.1788
265.0427	0.1805
265.2569	0.1848
265.471	0.1768
265.6851	0.1828
265.8993	0.1769
266.1134	0.174
266.3275	0.1784
266.5415	0.1781
266.7556	0.1821
266.9697	0.1733
267.1837	0.1776
267.3978	0.1803
267.6118	0.1733
267.8258	0.1781
268.0398	0.1772
268.2538	0.1798
268.4677	0.1732
268.6817	0.1768
268.8957	0.1696
269.1096	0.1651
269.3235	0.1744
269.5374	0.167
269.7514	0.1737
269.9652	0.1689
270.1791	0.1701
270.393	0.167
270.6068	0.1689
270.8207	0.1641
271.0345	0.1651
271.2483	0.1659
271.4622	0.1767
271.676	0.1647
271.8897	0.1697
272.1035	0.1722
272.3173	0.1675
272.531	0.1643
272.7448	0.1641
272.9585	0.1628
273.1722	0.1616
273.3859	0.1714
273.5996	0.1687
273.8133	0.1725
274.0269	0.1636
274.2406	0.166
274.4542	0.1606
274.6679	0.1699
274.8815	0.1735
275.0951	0.1746
275.3087	0.1707
275.5223	0.1688
275.7358	0.1726
275.9494	0.1662
276.1629	0.1717
276.3765	0.1717
276.59	0.1643
276.8035	0.1659
277.017	0.1778
277.2305	0.1738
277.444	0.1752
277.6574	0.1766
277.8709	0.1795
278.0843	0.1749
278.2978	0.1771
278.5112	0.178
278.7246	0.1726
278.938	0.1712
279.1513	0.1804
279.3647	0.1756
279.5781	0.1754
279.7914	0.1726
280.0047	0.1732
280.2181	0.1758
280.4314	0.1781
280.6447	0.1777
280.8579	0.1732
281.0712	0.1731
281.2845	0.1809
281.4977	0.1781
281.711	0.1732
281.9242	0.1756
282.1374	0.1815
282.3506	0.176
282.5638	0.1787
282.7769	0.174
282.9901	0.1841
283.2033	0.182
283.4164	0.1841
283.6295	0.1855
283.8426	0.1707
284.0557	0.1859
284.2688	0.1793
284.4819	0.1792
284.695	0.1886
284.908	0.1844
285.1211	0.1831
285.3341	0.1787
285.5471	0.1813
285.7601	0.1827
285.9731	0.1822
286.1861	0.1864
286.3991	0.1863
286.612	0.1861
286.825	0.1863
287.0379	0.1836
287.2508	0.1874
287.4637	0.1883
287.6766	0.1891
287.8895	0.1856
288.1024	0.1883
288.3152	0.1917
288.5281	0.1865
288.7409	0.1943
288.9538	0.1872
289.1666	0.1923
289.3794	0.1884
289.5922	0.1884
289.8049	0.1855
290.0177	0.1938
290.2304	0.1916
290.4432	0.1899
290.6559	0.1913
290.8686	0.1922
291.0813	0.1947
291.294	0.1869
291.5067	0.1899
291.7194	0.1936
291.932	0.1888
292.1447	0.193
292.3573	0.1942
292.5699	0.1974
292.7825	0.191
292.9951	0.187
293.2077	0.1928
293.4203	0.1917
293.6328	0.1909
293.8454	0.1933
294.0579	0.1928
294.2704	0.1934
294.4829	0.1883
294.6954	0.1877
294.9079	0.1884
295.1204	0.1908
295.3328	0.1972
295.5453	0.1938
295.7577	0.1895
295.9701	0.1955
296.1825	0.1974
296.3949	0.1892
296.6073	0.1904
296.8197	0.1891
297.0321	0.1949
297.2444	0.1891
297.4567	0.1956
297.6691	0.1915
297.8814	0.1926
298.0937	0.1927
298.306	0.1851
298.5182	0.1944
298.7305	0.1967
298.9428	0.1974
299.155	0.1906
299.3672	0.188
299.5794	0.1892
299.7916	0.1971
300.0038	0.1927
300.216	0.1902
300.4282	0.187
300.6403	0.1956
300.8525	0.192
301.0646	0.1979
301.2767	0.1902
301.4888	0.195
301.7009	0.1988
301.913	0.1984
302.125	0.1927
302.3371	0.194
302.5491	0.1936
302.7612	0.1959
302.9732	0.1947
303.1852	0.188
303.3972	0.1913
303.6092	0.1936
303.8211	0.188
304.0331	0.1887
304.245	0.1888
304.457	0.1851
304.6689	0.189
304.8808	0.1799
305.0927	0.1945
305.3046	0.1878
305.5164	0.1811
305.7283	0.1849
305.9401	0.1796
306.152	0.1755
306.3638	0.1812
306.5756	0.1815
306.7874	0.1747
306.9992	0.1748
307.2109	0.1725
307.4227	0.1717
307.6344	0.1724
307.8462	0.1662
308.0579	0.1702
308.2696	0.1666
308.4813	0.1653
308.693	0.1607
308.9046	0.1692
309.1163	0.1609
309.328	0.1597
309.5396	0.1534
309.7512	0.1561
309.9628	0.1515
310.1744	0.148
310.386	0.1496
310.5976	0.1386
310.8091	0.1487
311.0207	0.1459
311.2322	0.1381
311.4437	0.1397
311.6552	0.1384
311.8667	0.1453
312.0782	0.1424
312.2897	0.1433
312.5012	0.1363
312.7126	0.1353
312.924	0.1389
313.1355	0.1334
313.3469	0.1338
313.5583	0.1317
313.7696	0.1269
313.981	0.1342
314.1924	0.126
314.4037	0.1296
314.6151	0.1227
314.8264	0.1327
315.0377	0.1277
315.249	0.1324
315.4603	0.1224
315.6716	0.1283
315.8828	0.1232
316.0941	0.1262
316.3053	0.1194
316.5165	0.1196
316.7277	0.1201
316.9389	0.1259
317.1501	0.1282
317.3613	0.1246
317.5724	0.1171
317.7836	0.1146
317.9947	0.1196
318.2058	0.1173
318.417	0.1231
318.6281	0.1171
318.8391	0.1215
319.0502	0.1211
319.2613	0.1227
319.4723	0.1215
319.6834	0.1264
319.8944	0.1203
320.1054	0.1207
320.3164	0.1142
320.5274	0.1164
320.7383	0.1253
320.9493	0.1179
321.1602	0.1215
321.3712	0.1176
321.5821	0.1195
321.793	0.1236
322.0039	0.1166
322.2148	0.1166
322.4257	0.1149
322.6365	0.116
322.8474	0.1227
323.0582	0.1225
323.269	0.1175
323.4798	0.121
323.6906	0.1204
323.9014	0.1184
324.1122	0.1187
324.3229	0.1262
324.5337	0.1239
324.7444	0.1209
324.9551	0.1236
325.1658	0.1229
325.3765	0.1284
325.5872	0.121
325.7979	0.1227
326.0085	0.1216
326.2192	0.1201
326.4298	0.1251
326.6404	0.1232
326.851	0.1224
327.0616	0.1185
327.2722	0.1263
327.4828	0.1264
327.6933	0.1338
327.9039	0.1227
328.1144	0.1326
328.3249	0.1286
328.5354	0.1205
328.7459	0.1282
328.9564	0.1287
329.1669	0.1355
329.3773	0.1285
329.5878	0.1251
329.7982	0.1239
330.0086	0.1267
330.219	0.1281
330.4294	0.1308
330.6398	0.1269
330.8502	0.1326
331.0605	0.1262
331.2708	0.1219
331.4812	0.1317
331.6915	0.1302
331.9018	0.1277
332.1121	0.1349
332.3224	0.1231
332.5326	0.1241
332.7429	0.1292
332.9531	0.1324
333.1633	0.1257
333.3735	0.1287
333.5837	0.1337
333.7939	0.1346
334.0041	0.1316
334.2143	0.131
334.4244	0.1419
334.6346	0.1352
334.8447	0.1311
335.0548	0.1348
335.2649	0.1403
335.475	0.1373
335.685	0.1346
335.8951	0.1293
336.1051	0.1373
336.3152	0.1368
336.5252	0.1357
336.7352	0.1326
336.9452	0.1312
337.1552	0.1343
337.3652	0.1284
337.5751	0.1345
337.7851	0.1388
337.995	0.1398
338.2049	0.1346
338.4148	0.1373
338.6247	0.1391
338.8346	0.1316
339.0445	0.139
339.2543	0.1367
339.4642	0.136
339.674	0.1311
339.8838	0.1464
340.0936	0.1424
340.3034	0.1313
340.5132	0.1321
340.7229	0.1419
340.9327	0.1471
341.1424	0.1393
341.3522	0.1321
341.5619	0.1448
341.7716	0.1484
341.9813	0.1453
342.1909	0.1485
342.4006	0.1498
342.6102	0.154
342.8199	0.1445
343.0295	0.1446
343.2391	0.1518
343.4487	0.1469
343.6583	0.1589
343.8679	0.147
344.0774	0.1457
344.287	0.1528
344.4965	0.1556
344.706	0.1518
344.9155	0.1487
345.125	0.1497
345.3345	0.161
345.544	0.1601
345.7534	0.1566
345.9629	0.1552
346.1723	0.1569
346.3817	0.1557
346.5911	0.1587
346.8005	0.1616
347.0099	0.1624
347.2193	0.1666
347.4286	0.1659
347.638	0.1662
347.8473	0.1657
348.0566	0.163
348.2659	0.1644
348.4752	0.1691
348.6845	0.1578
348.8937	0.1638
349.103	0.1662
349.3122	0.1703
349.5214	0.1679
349.7306	0.1746
349.9398	0.1749
350.149	0.1641
350.3582	0.1711
350.5674	0.17
350.7765	0.1767
350.9856	0.1673
351.1948	0.174
351.4039	0.1708
351.613	0.1713
351.822	0.1763
352.0311	0.1729
352.2402	0.1762
352.4492	0.1798
352.6582	0.1771
352.8672	0.1813
353.0762	0.1733
353.2852	0.1757
353.4942	0.1834
353.7032	0.1838
353.9121	0.1775
354.1211	0.1869
354.33	0.1782
354.5389	0.1778
354.7478	0.184
354.9567	0.1782
355.1655	0.1848
355.3744	0.1799
355.5833	0.1821
355.7921	0.1909
356.0009	0.1834
356.2097	0.1844
356.4185	0.1809
356.6273	0.1917
356.8361	0.1895
357.0448	0.1919
357.2536	0.1939
357.4623	0.1914
357.671	0.1932
357.8797	0.1937
358.0884	0.1972
358.2971	0.1859
358.5057	0.1927
358.7144	0.201
358.923	0.2012
359.1316	0.2037
359.3402	0.1937
359.5488	0.1969
359.7574	0.2015
359.966	0.1949
360.1746	0.1997
360.3831	0.212
360.5916	0.2039
360.8002	0.2055
361.0087	0.2028
361.2172	0.2141
361.4256	0.2059
361.6341	0.2062
361.8426	0.2126
362.051	0.2182
362.2594	0.206
362.4678	0.2059
362.6762	0.2191
362.8846	0.2168
363.093	0.2171
363.3014	0.2232
363.5097	0.218
363.718	0.2163
363.9264	0.2193
364.1347	0.2201
364.343	0.2246
364.5513	0.2212
364.7595	0.2238
364.9678	0.2238
365.176	0.2267
365.3842	0.2279
365.5925	0.2299
365.8007	0.2259
366.0089	0.2342
366.217	0.233
366.4252	0.2281
366.6333	0.2403
366.8415	0.235
367.0496	0.2373
367.2577	0.2344
367.4658	0.2308
367.6739	0.2369
367.882	0.2413
368.09	0.2346
368.2981	0.236
368.5061	0.2402
368.7141	0.237
368.9221	0.2493
369.1301	0.2419
369.3381	0.2569
369.5461	0.2488
369.754	0.2483
369.962	0.2416
370.1699	0.2552
370.3778	0.255
370.5857	0.2527
370.7936	0.261
371.0015	0.2498
371.2093	0.2502
371.4172	0.2538
371.625	0.2495
371.8328	0.248
372.0406	0.2633
372.2484	0.2531
372.4562	0.265
372.664	0.2601
372.8717	0.2605
373.0795	0.2701
373.2872	0.267
373.4949	0.262
373.7026	0.2684
373.9103	0.2663
374.118	0.253
374.3256	0.2666
374.5333	0.2691
374.7409	0.2664
374.9485	0.269
375.1561	0.2702
375.3637	0.26
375.5713	0.2732
375.7789	0.275
375.9864	0.2693
376.194	0.2804
376.4015	0.2732
376.609	0.272
376.8165	0.2857
377.024	0.2776
377.2315	0.2752
377.4389	0.2782
377.6464	0.2818
377.8538	0.2791
378.0612	0.2852
378.2686	0.2866
378.476	0.2932
378.6834	0.2863
378.8908	0.2854
379.0981	0.2801
379.3055	0.28
379.5128	0.2837
379.7201	0.2955
379.9274	0.2941
380.1347	0.288
380.342	0.3003
380.5492	0.2935
380.7565	0.2927
380.9637	0.2961
381.1709	0.2995
381.3781	0.3088
381.5853	0.2972
381.7925	0.2967
381.9997	0.3054
382.2068	0.3075
382.4139	0.2937
382.6211	0.306
382.8282	0.3168
383.0353	0.3051
383.2424	0.2951
383.4494	0.2995
383.6565	0.3094
383.8635	0.3029
384.0706	0.317
384.2776	0.3043
384.4846	0.313
384.6916	0.3103
384.8986	0.3057
385.1055	0.3173
385.3125	0.3055
385.5194	0.3136
385.7263	0.304
385.9333	0.3085
386.1402	0.3076
386.347	0.2961
386.5539	0.3049
386.7608	0.3027
386.9676	0.3073
387.1744	0.299
387.3813	0.2989
387.5881	0.3058
387.7948	0.3121
388.0016	0.3154
388.2084	0.3112
388.4151	0.3026
388.6219	0.3009
388.8286	0.3062
389.0353	0.304
389.242	0.3052
389.4487	0.308
389.6553	0.2805
389.862	0.2952
390.0686	0.3091
390.2753	0.2974
390.4819	0.2985
390.6885	0.2922
390.8951	0.2986
391.1016	0.2984
391.3082	0.2981
391.5147	0.3001
391.7213	0.2865
391.9278	0.2809
392.1343	0.2947
392.3408	0.2908
392.5473	0.2872
392.7537	0.2879
392.9602	0.2883
393.1666	0.2872
393.373	0.2772
393.5794	0.2905
393.7858	0.277
393.9922	0.2704
394.1986	0.2744
394.4049	0.2721
394.6113	0.2709
394.8176	0.2813
395.0239	0.2812
395.2302	0.2792
395.4365	0.2758
395.6428	0.2793
395.8491	0.2633
396.0553	0.269
396.2615	0.2716
396.4678	0.2742
396.674	0.2625
396.8802	0.2686
397.0863	0.268
397.2925	0.2703
397.4987	0.2603
397.7048	0.2681
397.9109	0.2634
398.117	0.251
398.3231	0.2569
398.5292	0.2553
398.7353	0.2622
398.9413	0.2672
399.1474	0.2592
399.3534	0.2666
399.5594	0.2559
399.7654	0.2601
399.9714	0.2573
400.1774	0.2539
400.3833	0.265
400.5893	0.2629
400.7952	0.265
401.0011	0.2622
401.207	0.2576
401.4129	0.256
401.6188	0.2558
401.8247	0.2535
402.0305	0.2631
402.2364	0.2645
402.4422	0.2634
402.648	0.2539
402.8538	0.2594
403.0596	0.2497
403.2654	0.2684
403.4711	0.2502
403.6768	0.2637
403.8826	0.2666
404.0883	0.2584
404.294	0.256
404.4997	0.2614
404.7054	0.2612
404.911	0.2504
405.1167	0.2622
405.3223	0.2479
405.5279	0.2576
405.7335	0.2605
405.9391	0.2498
406.1447	0.2645
406.3502	0.2603
406.5558	0.2567
406.7613	0.261
406.9668	0.2501
407.1724	0.2526
407.3778	0.2618
407.5833	0.2516
407.7888	0.2579
407.9942	0.2646
408.1997	0.2537
408.4051	0.2714
408.6105	0.2709
408.8159	0.2604
409.0213	0.2599
409.2267	0.2661
409.432	0.2595
409.6374	0.2637
409.8427	0.2725
410.048	0.2516
410.2533	0.2627
410.4586	0.2458
410.6639	0.2522
410.8691	0.2465
411.0744	0.2523
411.2796	0.2579
411.4848	0.253
411.69	0.2523
411.8952	0.2543
412.1004	0.2496
412.3056	0.2571
412.5107	0.2626
412.7158	0.2688
412.921	0.25
413.1261	0.254
413.3312	0.2561
413.5362	0.2644
413.7413	0.2537
413.9464	0.2501
414.1514	0.2574
414.3564	0.24
414.5614	0.2538
414.7664	0.2463
414.9714	0.2559
415.1764	0.2488
415.3813	0.2495
415.5863	0.2617
415.7912	0.2456
415.9961	0.2551
416.201	0.2535
416.4059	0.2567
416.6108	0.2547
416.8156	0.2526
417.0205	0.2464
417.2253	0.2567
417.4301	0.2541
417.6349	0.2514
417.8397	0.2457
418.0445	0.2484
418.2492	0.2474
418.454	0.2541
418.6587	0.2551
418.8634	0.257
419.0681	0.2446
419.2728	0.2568
419.4775	0.254
419.6822	0.2372
419.8868	0.2417
420.0915	0.2512
420.2961	0.2427
420.5007	0.2401
420.7053	0.2493
420.9099	0.243
421.1144	0.2461
421.319	0.2332
421.5235	0.2385
421.728	0.2412
421.9325	0.2417
422.137	0.2332
422.3415	0.2365
422.546	0.2339
422.7504	0.2276
422.9549	0.2387
423.1593	0.2266
423.3637	0.2299
423.5681	0.2292
423.7725	0.2343
423.9769	0.2325
424.1812	0.2272
424.3856	0.2229
424.5899	0.2188
424.7942	0.2282
424.9985	0.2092
425.2028	0.2282
425.4071	0.2285
425.6113	0.228
425.8156	0.2204
426.0198	0.2163
426.224	0.2246
426.4282	0.2089
426.6324	0.2177
426.8366	0.2108
427.0407	0.2115
427.2449	0.2086
427.449	0.2029
427.6531	0.2101
427.8572	0.2108
428.0613	0.2151
428.2654	0.2047
428.4694	0.1987
428.6735	0.1992
428.8775	0.2046
429.0815	0.1962
429.2855	0.1952
429.4895	0.1989
429.6935	0.1878
429.8975	0.1872
430.1014	0.1958
430.3053	0.1959
430.5093	0.1853
430.7132	0.1889
430.9171	0.1852
431.1209	0.1912
431.3248	0.186
431.5286	0.1806
431.7325	0.1931
431.9363	0.1767
432.1401	0.1778
432.3439	0.1728
432.5477	0.1655
432.7514	0.1642
432.9552	0.166
433.1589	0.1646
433.3627	0.1669
433.5664	0.1634
433.7701	0.1654
433.9737	0.164
434.1774	0.1662
434.3811	0.1547
434.5847	0.158
434.7883	0.1581
434.9919	0.1514
435.1955	0.1564
435.3991	0.1604
435.6027	0.1423
435.8062	0.1512
436.0098	0.144
436.2133	0.1465
436.4168	0.1371
436.6203	0.1363
436.8238	0.1374
437.0272	0.129
437.2307	0.13
437.4341	0.1374
437.6375	0.1386
437.841	0.1226
438.0443	0.1263
438.2477	0.1177
438.4511	0.1235
438.6545	0.1247
438.8578	0.1234
439.0611	0.1236
439.2644	0.1252
439.4677	0.1197
439.671	0.105
439.8743	0.1169
440.0775	0.1063
440.2808	0.1085
440.484	0.1027
440.6872	0.1153
440.8904	0.109
441.0936	0.1092
441.2967	0.0911
441.4999	0.1007
441.703	0.1052
441.9062	0.0957
442.1093	0.1094
442.3124	0.0996
442.5155	0.09
442.7185	0.0934
442.9216	0.0911
443.1246	0.0886
443.3276	0.0845
443.5307	0.0868
443.7337	0.0918
443.9366	0.0834
444.1396	0.071
444.3426	0.081
444.5455	0.0811
444.7484	0.0806
444.9513	0.0692
445.1542	0.0833
445.3571	0.0803
445.56	0.0693
445.7628	0.0675
445.9657	0.0723
446.1685	0.0713
446.3713	0.0739
446.5741	0.0758
446.7769	0.0742
446.9797	0.0651
447.1824	0.0637
447.3852	0.0557
447.5879	0.0614
447.7906	0.0511
447.9933	0.0594
448.196	0.0564
448.3986	0.0503
448.6013	0.0488
448.8039	0.0599
449.0066	0.0597
449.2092	0.0632
449.4118	0.0572
449.6143	0.0482
449.8169	0.0521
450.0195	0.0439
450.222	0.0564
450.4245	0.047
450.627	0.0454
450.8295	0.0399
451.032	0.0494
451.2345	0.039
451.4369	0.04
451.6394	0.0433
451.8418	0.0407
452.0442	0.0402
452.2466	0.0383
452.449	0.0421
452.6513	0.0415
452.8537	0.0292
453.056	0.0283
453.2583	0.0283
453.4607	0.0238
453.663	0.0285
453.8652	0.0241
454.0675	0.039
454.2697	0.0306
454.472	0.0278
454.6742	0.0324
454.8764	0.037
455.0786	0.0273
455.2808	0.0346
455.4829	0.0365
455.6851	0.0252
455.8872	0.0192
456.0893	0.0326
456.2915	0.0182
456.4935	0.039
456.6956	0.0257
456.8977	0.0226
457.0997	0.0289
457.3018	0.0128
457.5038	0.0277
457.7058	0.0244
457.9078	0.0266
458.1098	0.0194
458.3117	0.0296
458.5137	0.0126
458.7156	0.025
458.9175	0.0125
459.1194	0.0135
459.3213	0.0114
459.5232	0.0214
459.725	0.0301
459.9269	0.0202
460.1287	0.0135
460.3305	0.0188
460.5323	0.013
460.7341	0.0151
460.9359	0.0033
461.1376	0.0139
461.3394	0.0128
461.5411	0.015
461.7428	0.0149
461.9445	0.0093
462.1462	0.0131
462.3479	0.0103
462.5495	0.0199
462.7512	0.0246
462.9528	0.0154
463.1544	0.0142
463.356	0.0052
463.5576	0.0176
463.7592	0.0108
463.9607	0.0171
464.1623	0.0103
464.3638	0.0065
464.5653	0.0157
464.7668	0.0131
464.9683	0.0118
465.1697	0.0081
465.3712	0.0102
465.5726	0.0086
465.7741	0.0247
465.9755	0.0039
466.1769	0.0066
466.3782	0.0111
466.5796	0.0104
466.7809	0.0167
466.9823	0.0107
467.1836	0.0056
467.3849	0.0064
467.5862	-0.0013
467.7875	0.0059
467.9887	0.013
468.19	0.0027
468.3912	0.0108
468.5924	0.0043
468.7936	0.007
468.9948	0.0083
469.196	0.0023
469.3972	0.0051
469.5983	0.0131
469.7994	0.0151
470.0006	0.0062
470.2017	0.0045
470.4027	0.0202
470.6038	0.0029
470.8049	0.0072
471.0059	0.0142
471.2069	0.0155
471.408	0.0125
471.6089	0.0079
471.8099	0.0133
472.0109	0.0103
472.2119	0.0091
472.4128	0.0029
472.6137	0.006
472.8146	0.0056
473.0155	0.0166
473.2164	0.0091
473.4173	-0.0069
473.6181	-0.005
473.819	0.0081
474.0198	0
474.2206	0.001
474.4214	0.0126
474.6222	-0.0077
474.8229	0.005
475.0237	0.0086
475.2244	0.0071
475.4251	0.001
475.6258	0.0077
475.8265	-0.0007
476.0272	0.0006
476.2278	0.0038
476.4285	0.0111
476.6291	0.0086
476.8297	0.0071
477.0303	0.0005
477.2309	0.004
477.4315	0.0071
477.632	-0.0043
477.8326	0.0054
478.0331	0.0074
478.2336	0.0003
478.4341	0.0065
478.6346	0.0018
478.8351	0.0031
479.0355	0.0102
479.236	0.0181
479.4364	0.0142
479.6368	0.0004
479.8372	0.0035
480.0376	-0.0011
480.2379	0.0033
480.4383	0.0071
480.6386	-0.0015
480.8389	0.0031
481.0392	0.0061
481.2395	0.0093
481.4398	0.0011
481.6401	0.0112
481.8403	0.0097
482.0405	0.0017
482.2408	0.0059
482.441	0.0078
482.6411	0.005
482.8413	0.0012
483.0415	0.0096
483.2416	0.002
483.4417	0.0056
483.6419	0.0032
483.8419	0.0027
484.042	0.0007
484.2421	0.0023
484.4422	0.0035
484.6422	0.0041
484.8422	0.009
485.0422	0.0024
485.2422	0.0046
485.4422	0.0013
485.6422	0.0028
485.8421	-0.0022
486.042	0.0099
486.242	-0.0018
486.4419	0.0009
486.6417	-0
486.8416	0.0066
487.0415	0.003
487.2413	-0.0029
487.4411	0.005
487.641	-0.0001
487.8408	0.0026
488.0405	0.0064
488.2403	0.0051
488.4401	0.008
488.6398	0.0008
488.8395	0.0025
489.0392	0.0068
489.2389	0.0138
489.4386	0.0029
489.6383	0.0119
489.8379	0.0007
490.0376	0.0059
490.2372	-0.0035
490.4368	0.0032
490.6364	-0.0038
490.836	0.0067
491.0355	0.0017
491.2351	-0.0001
491.4346	0.0005
491.6341	-0.0027
491.8336	0.0104
492.0331	-0.0018
492.2326	0.0084
492.432	0.0065
492.6315	0.0148
492.8309	0.0114
493.0303	-0.0023
493.2297	0.01
493.4291	-0.0065
493.6284	0.0061
493.8278	-0.0001
494.0271	0.0077
494.2264	0.0005
494.4257	0.0072
494.625	0.0007
494.8243	0.0051
495.0236	0.0106
495.2228	0.0121
495.422	0.0044
495.6213	0.0044
495.8205	0.0101
496.0196	0.0056
496.2188	-0.0002
496.418	0.0025
496.6171	-0
496.8162	0.0029
497.0153	0.0068
497.2144	0.0022
497.4135	0.0018
497.6126	-0.001
497.8116	-0.0024
498.0107	0.0067
498.2097	0.0037
498.4087	0.0025
498.6077	-0.0058
498.8067	0.0051
499.0056	-0.0017
499.2046	0.0081
499.4035	0.0066
499.6024	-0.0084
499.8013	0.0076
500.0002	0.0109
500.199	0.0104
500.3979	-0.003
500.5967	-0.0011
500.7956	0.0066
500.9944	0.0074
501.1932	0.016
501.3919	0.0141
501.5907	0.0065
501.7895	0.0006
501.9882	0.0052
502.1869	0.0056
502.3856	-0.001
502.5843	0.0076
502.783	-0.0001
502.9816	0.0141
503.1803	0.0059
503.3789	0.0105
503.5775	-0.0008
503.7761	-0.0009
503.9747	0.0034
504.1732	-0.0095
504.3718	0.0177
504.5703	0.002
504.7689	-0.007
504.9674	-0.0008
505.1658	-0.0013
505.3643	0.0086
505.5628	0.0115
505.7612	0.009
505.9597	0.0013
506.1581	-0.0028
506.3565	0.0012
506.5549	0.0001
506.7532	0.0011
506.9516	0.0051
507.1499	-0.0002
507.3482	0.0077
507.5465	0.0046
507.7448	0.0015
507.9431	0.0034
508.1414	0.0001
508.3396	0.0039
508.5379	0.0051
508.7361	-0.0021
508.9343	0.0056
509.1325	0.0046
509.3306	0.0033
509.5288	-0.0125
509.7269	0.013
509.9251	0.0087
510.1232	-0.0014
510.3213	0.0093
510.5193	-0.0033
510.7174	-0.0049
510.9154	0.0054
511.1135	-0.0024
511.3115	0.0028
511.5095	-0.0061
511.7075	-0.004
511.9055	0.0037
512.1034	0.0014
512.3014	-0.0038
512.4993	0.0011
512.6972	-0.0009
512.8951	-0.0029
513.093	-0.0018
513.2908	0.0103
513.4887	0.0003
513.6865	0.013
513.8844	0.0096
514.0822	0.0033
514.2799	-0.0017
514.4777	-0.0054
514.6755	0.0047
514.8732	0.0023
515.0709	0.0052
515.2687	0.0031
515.4664	0.0114
515.664	0.0035
515.8617	0.0091
516.0594	0.0131
516.257	-0.0012
516.4546	0.0201
516.6522	0.0061
516.8498	0.0065
517.0474	0.0004
517.2449	-0.0045
517.4425	0.0091
517.64	0.0107
517.8375	0.0045
518.035	0.0035
518.2325	-0.0016
518.43	-0.0012
518.6274	-0.0008
518.8249	-0.0053
519.0223	0.0094
519.2197	0.0024
519.4171	0.0024
519.6145	0.0054
519.8118	-0.0022
520.0092	0.0018
520.2065	0.0071
520.4038	-0.0041
520.6011	0.0111
520.7984	0.008
520.9956	0.0105
521.1929	0.0061
521.3901	-0.0011
521.5874	0.0129
521.7846	0.001
521.9818	0.0093
522.1789	0.0004
522.3761	0.0114
522.5732	0.0057
522.7704	-0.0119
522.9675	-0.009
523.1646	0.0024
523.3617	0.0099
523.5587	0.001
523.7558	0.0067
523.9528	0.0032
524.1498	-0.0005
524.3468	0.0009
524.5438	0.0035
524.7408	-0.0014
524.9378	0.0112
525.1347	0.0065
525.3316	-0.0091
525.5285	0.0017
525.7254	-0
525.9223	0.0084
526.1192	0.0043
526.316	0.0033
526.5129	-0.0052
526.7097	0.0017
526.9065	0.0079
527.1033	0.0079
527.3	0.0029
527.4968	0.0113
527.6935	-0.0083
527.8903	0
528.087	-0.0022
528.2837	0.0082
528.4804	-0.0022
528.677	-0.0002
528.8737	0.0041
529.0703	0.0028
529.2669	0.0162
529.4635	0.0078
529.6601	0.0068
529.8567	-0.0002
530.0532	-0.0014
530.2498	-0.0024
530.4463	-0.0031
530.6428	0.0023
530.8393	0.0073
531.0358	0.0041
531.2322	0.0033
531.4287	-0.0005
531.6251	-0.0108
531.8215	0.0071
532.0179	0.0004
532.2143	0.0032
532.4107	0.0162
532.607	0.004
532.8034	0.0038
532.9997	0.0083
533.196	0.0034
533.3923	0.0042
533.5886	0.0099
533.7848	-0.0083
533.9811	0.0011
534.1773	0.0058
534.3735	0.0049
534.5697	0.0031
534.7659	0.0031
534.9621	0.0087
535.1582	0.0122
535.3544	-0.0004
535.5505	0.0021
535.7466	0.009
535.9427	-0.0017
536.1387	-0.0126
536.3348	0.0091
536.5308	-0.0103
536.7269	0.0024
536.9229	0.0003
537.1189	0.0011
537.3148	0.0032
537.5108	0.0043
537.7068	0.0038
537.9027	-0.0002
538.0986	0.0072
538.2945	-0.0085
538.4904	-0.0035
538.6863	0.0018
538.8821	0.0039
539.078	0.0013
539.2738	-0.0018
539.4696	0.0046
539.6654	0.005
539.8611	0.0101
540.0569	-0.003
540.2526	0.0053
540.4484	-0.009
540.6441	0.0075
540.8398	0.0043
541.0355	0.0005
541.2311	0.0014
541.4268	0.0091
541.6224	0.0162
541.818	0.0122
542.0136	0.0068
542.2092	0.0093
542.4048	0.0087
542.6003	-0.0039
542.7959	0.004
542.9914	-0.0016
543.1869	-0.0001
543.3824	0.003
543.5779	0.0049
543.7734	0.0134
543.9688	0.0111
544.1642	0.0065
544.3596	0.0166
544.555	0.0052
544.7504	0.011
544.9458	-0.0006
545.1411	-0.0019
545.3365	-0.0002
545.5318	0.0038
545.7271	0.0085
545.9224	0.0052
546.1177	0.0079
546.3129	0.0045
546.5081	0.0011
546.7034	0.0078
546.8986	0.0011
547.0938	0.0146
547.289	0.0064
547.4841	0.0071
547.6793	-0.0015
547.8744	0.0128
548.0695	-0.0065
548.2646	-0.001
548.4597	0.0046
548.6548	0.0108
548.8498	0.0046
549.0448	-0.0005
549.2399	0.0101
549.4349	0.0065
549.6298	0.0055
549.8248	-0.0019
550.0198	0.0084
550.2147	0.0071
550.4096	-0.0138
550.6045	0.0071
550.7994	0.0057
550.9943	0.0053
551.1892	-0.0083
551.384	0.0146
551.5788	0.0129
551.7737	0.0096
551.9685	0.0033
552.1632	0.003
552.358	0.0034
552.5528	0.0056
552.7475	0.0028
552.9422	0.0064
553.1369	0.0046
553.3316	-0.0017
553.5263	0.0087
553.7209	-0.0054
553.9156	0.0086
554.1102	0.0114
554.3048	0.0006
554.4994	0.0092
554.694	0.0017
554.8885	-0.0008
555.0831	0.0142
555.2776	0.0071
555.4721	0.0048
555.6666	0.0023
555.8611	0.008
556.0555	-0.0014
556.25	0.0056
556.4444	-0.001
556.6388	-0.0104
556.8332	-0.0006
557.0276	-0.0012
557.222	0.001
557.4163	0.0038
557.6107	0.0047
557.805	-0.0062
557.9993	0.0076
558.1936	-0.0128
558.3879	0.0058
558.5821	-0.0041
558.7764	0.0017
558.9706	-0.0028
559.1648	0.0083
559.359	-0.0027
559.5532	-0.0031
559.7473	-0.0032
559.9415	0.0039
560.1356	0.0164
560.3297	0.0002
560.5238	0.0054
560.7179	-0.0004
560.9119	0.0008
561.106	-0.0023
561.3	-0.0047
561.494	-0.0031
561.688	0.0002
561.882	0.0046
562.076	0.0032
562.2699	0.0084
562.4639	0.0138
562.6578	0.0094
562.8517	0.0048
563.0456	0.0016
563.2395	0.0082
563.4333	0.0019
563.6272	0.0015
563.821	0.0033
564.0148	-0.0017
564.2086	-0.0035
564.4024	0.0166
564.5961	0.0048
564.7899	0.0138
564.9836	-0.0009
565.1773	0.0065
565.371	-0.0024
565.5647	0.0066
565.7584	0.0049
565.952	0.0044
566.1456	-0.0011
566.3393	0.0073
566.5329	-0.0006
566.7264	0.011
566.92	0.0027
567.1136	-0.0066
567.3071	-0.0009
567.5006	0.0008
567.6941	0.0028
567.8876	0.0011
568.0811	0.0173
568.2745	0.0003
568.468	0.0017
568.6614	0.0024
568.8548	0.0068
569.0482	0.0062
569.2416	0.0046
569.4349	0.0079
569.6283	0.0054
569.8216	0.0023
570.0149	0.0012
570.2082	0.0069
570.4015	-0.0004
570.5947	0.0013
570.788	0.0029
570.9812	-0.0019
571.1744	0.0047
571.3676	0.0005
571.5608	0.0016
571.754	0.0106
571.9471	0.0024
572.1402	0.004
572.3333	0.0073
572.5264	0.0011
572.7195	0.0015
572.9126	0.0054
573.1057	0.0033
573.2987	0.003
573.4917	0.0018
573.6847	0.0015
573.8777	0.0058
574.0707	0.0008
574.2636	0.0025
574.4566	0.0024
574.6495	-0.0004
574.8424	0.0005
575.0353	0.0035
575.2281	0.0076
575.421	0.0033
575.6138	0.0014
575.8067	0.0067
575.9995	0.0024
576.1923	0.007
576.385	0.0034
576.5778	0.0084
576.7706	0.0026
576.9633	0.0032
577.156	-0.0066
577.3487	0.0023
577.5414	-0
577.734	0.0001
577.9267	0.004
578.1193	0.0049
578.3119	0.0016
578.5045	-0.0004
578.6971	-0.0003
578.8897	0.0054
579.0822	0.0076
579.2747	0.0025
579.4673	0.0026
579.6598	0.0088
579.8522	-0.0019
580.0447	0.0015
580.2372	0.007
580.4296	0.0069
580.622	-0.0009
580.8144	0.0061
581.0068	0.0027
581.1992	0.0029
581.3915	-0
581.5839	0.0028
581.7762	0.0006
581.9685	0.0024
582.1608	-0.0013
582.353	0.0003
582.5453	0.0045
582.7375	0.0042
582.9298	0.0011
583.122	0.0024
583.3142	0.006
583.5063	0.0012
583.6985	0.0021
583.8906	0.0004
584.0827	0.0051
584.2749	0.0012
584.4669	0.0023
584.659	0.0065
584.8511	0.0067
585.0431	0.0024
585.2352	0.0009
585.4272	0.0025
585.6192	0.0011
585.8111	0.0012
586.0031	-0.0002
586.195	0.0017
586.387	0.0014
586.5789	0.0061
586.7708	0.0032
586.9627	0.0016
587.1545	0.0029
587.3464	0.0048
587.5382	0.0006
587.73	0.0088
587.9218	0.0034
588.1136	0.0008
588.3053	0.0051
588.4971	0.0015
588.6888	0.0047
588.8805	-0.0016
589.0722	0.011
589.2639	0.007
589.4556	0.001
589.6472	0.0081
589.8389	0.0034
590.0305	0.0025
590.2221	0.0097
590.4137	-0.0028
590.6052	-0.001
590.7968	0.0036
590.9883	0.0012
591.1798	0.0044
591.3713	0.0016
591.5628	-0.0006
591.7543	0.0044
591.9458	-0.0001
592.1372	0.0052
592.3286	-0.0014
592.52	-0.0008
592.7114	0.0007
592.9028	0.0032
593.0941	0.0023
593.2855	0.0014
593.4768	0.0086
593.6681	0.0075
593.8594	0.0041
594.0506	-0.0014
594.2419	0.0018
594.4331	0.0015
594.6244	-0.0018
594.8156	0.0016
595.0067	-0.0002
595.1979	0.0011
595.3891	0.002
595.5802	0.0086
595.7713	0.0052
595.9624	0.0054
596.1535	-0.0024
596.3446	-0.0013
596.5357	0.0037
596.7267	-0.0035
596.9177	0.003
597.1087	0.001
597.2997	0.0051
597.4907	-0.001
597.6817	0.0038
597.8726	0.0075
598.0635	0.0018
598.2544	0.0096
598.4453	0.0062
598.6362	0.0024
598.827	-0.0026
599.0179	0.0041
599.2087	0.0104
599.3995	0.0074
599.5903	0.0082
599.7811	0.0054
599.9718	0.0016
600.1626	-0.0051
600.3533	-0.0003
600.544	0.0049
600.7347	0.0052
600.9254	0.0078
601.116	0.0026
601.3067	0.0006
601.4973	0.0082
601.6879	0.0032
601.8785	0.0066
602.0691	0.0034
602.2596	0.002
602.4502	-0.0026
602.6407	0.0059
602.8312	-0.0004
603.0217	0.0071
603.2122	0.0042
603.4027	0.0002
603.5931	0.0037
603.7835	0.0036
603.9739	0.0031
604.1643	0.0088
604.3547	0.0056
604.5451	0.0052
604.7354	0.0007
604.9257	0.0027
605.116	0.0007
605.3063	0.0005
605.4966	-0.0015
605.6869	0.0099
605.8771	0.0041
606.0673	0.0025
606.2575	0.0025
606.4477	0.0014
606.6379	-0.0031
606.8281	0.0012
607.0182	0.0041
607.2083	0.0042
607.3985	-0.0007
607.5885	-0.0009
607.7786	0.004
607.9687	0.0077
608.1587	0.0059
608.3488	0.0041
608.5388	-0.0088
608.7288	-0.0028
608.9187	-0.0004
609.1087	0.0031
609.2986	0.0049
609.4886	-0.0047
609.6785	0.0024
609.8684	-0.0019
610.0582	-0.0051
610.2481	-0.0012
610.4379	0.0052
610.6278	-0.0007
610.8176	0.0104
611.0074	0.0068
611.1971	-0.0003
611.3869	0.0034
611.5766	-0.0053
611.7664	0.011
611.9561	0.0097
612.1458	0.0037
612.3354	0.002
612.5251	-0.0027
612.7147	0.0097
612.9044	-0.0071
613.094	0.0093
613.2836	0.0032
613.4731	0.0045
613.6627	0.0078
613.8522	0.0074
614.0417	0.0029
614.2313	0.007
614.4207	0.0019
614.6102	0.006
614.7997	0.0058
614.9891	-0.0004
615.1785	-0.0006
615.3679	0.0032
615.5573	-0.0006
615.7467	-0.0039
615.9361	0.0008
616.1254	0.0068
616.3147	0.0027
616.504	0.0001
616.6933	-0.0002
616.8826	-0.0028
617.0718	0.0103
617.2611	-0.0034
617.4503	0.0015
617.6395	-0.0022
617.8287	0.0056
618.0179	0.0071
618.207	0.0078
618.3961	0.0025
618.5853	-0.0003
618.7744	0.0015
618.9634	0.0073
619.1525	-0.0021
619.3416	0.0043
619.5306	0.0082
619.7196	0.0073
619.9086	0.0024
620.0976	-0.004
620.2866	0.0117
620.4755	-0.0056
620.6645	-0.0001
620.8534	0.0078
621.0423	0.0048
621.2312	-0.0053
621.42	0.0042
621.6089	-0.0042
621.7977	0
621.9865	0.0061
622.1753	-0.0103
622.3641	-0.0006
622.5529	-0.0062
622.7416	0.0035
622.9303	-0.0035
623.1191	0.0047
623.3078	0.0057
623.4964	0.0089
623.6851	0.0087
623.8737	-0.0012
624.0624	-0.0055
624.251	-0.0029
624.4396	0.0051
624.6282	0.0115
624.8167	-0.0009
625.0053	0.017
625.1938	-0.0045
625.3823	0.0133
625.5708	-0.002
625.7593	-0.005
625.9477	0.0084
626.1362	-0.0031
626.3246	-0.001
626.513	0.0066
626.7014	0.0039
626.8898	0.0054
627.0781	0.0103
627.2665	0.013
627.4548	-0.0138
627.6431	0.0018
627.8314	0.0044
628.0197	0.0137
628.2079	0.0069
628.3962	0.0019
628.5844	0.0063
628.7726	0.0032
628.9608	0.0058
629.1489	0.0006
629.3371	-0.0139
629.5252	0.0083
629.7134	-0.005
629.9015	0.011
630.0895	-0.0067
630.2776	0.0022
630.4657	0.003
630.6537	-0.001
630.8417	-0.0181
631.0297	-0.005
631.2177	-0.008
631.4057	0.0029
631.5936	0.0038
631.7815	0.0059
631.9695	0.0183
632.1574	0.0078
632.3452	0.0051
632.5331	0.0033
632.7209	0.0036
632.9088	-0.0045
633.0966	0.022
633.2844	0.0027
633.4722	0.0091
633.6599	0.0177
633.8477	-0.0035
634.0354	0.0035
634.2231	-0.0238
634.4108	-0.0003
634.5985	0.011
634.7861	0.0074
634.9738	-0.0068
635.1614	0.0075
635.349	-0.0083
635.5366	0.0082
635.7242	0.0084
635.9117	0.0011
636.0993	0.0158
636.2868	-0.0065
636.4743	0.018
636.6618	-0.0047
636.8492	0.0049
637.0367	-0.0002
637.2241	0.0018
637.4115	0.0323
637.5989	-0.0082
637.7863	0.02
637.9737	-0.0026
638.161	0.0059
638.3484	-0.0142
638.5357	-0.0095
638.723	0.0055
638.9103	-0.0123
639.0975	0.0024
639.2848	0.0179
639.472	0.0001
639.6592	-0.0295
639.8464	-0.0031
640.0336	0.0041
640.2208	-0.0053
640.4079	-0.0296
640.595	-0.0136
640.7821	0.0269
640.9692	-0.0103
641.1563	0.0031
641.3434	-0.0009
641.5304	0.004
641.7174	0.017
641.9044	0.0093
642.0914	0.0105
642.2784	-0.003
642.4653	-0.0109
642.6523	0.0118
642.8392	-0.0047
643.0261	0.001
643.213	-0.0016
643.3999	0.017
643.5867	-0.0066
643.7735	-0.0132
643.9604	-0.0019
644.1472	0.0017
644.3339	-0.0133
644.5207	0.01
644.7075	0.0023
644.8942	-0.0025
645.0809	0.0039
645.2676	-0.0126
645.4543	0.0025
645.6409	0.03
645.8276	-0.0013
646.0142	-0.0023
646.2008	-0.0031
646.3874	-0.0329
646.574	-0.0058
646.7605	0.0104
646.9471	0.0071
647.1336	-0.0288
647.3201	0.0093
647.5066	-0.0069
647.6931	-0.0009
647.8795	-0.0003
648.0659	0.0132
648.2524	0.013
648.4388	0.0003
648.6252	0.0098
648.8115	-0.0042
648.9979	-0.0059
649.1842	0.0064
649.3705	0.0086
649.5568	-0.0057
649.7431	-0.0172
649.9294	-0.0114
650.1156	-0.0083
650.3018	0.0134
650.488	0.0071
650.6742	0.014
650.8604	0.0178
651.0466	-0.004
651.2327	0.0115
651.4188	0.0026
651.6049	0.0208
651.791	-0.0036
651.9771	-0.0159
652.1632	-0.0029
652.3492	-0.0009
652.5352	0.0087
652.7212	-0.0053
652.9072	-0.0068
653.0932	0.0236
653.2791	0.0151
653.465	0.0064
653.651	0.0141
653.8369	0.0085
654.0227	-0.0184
654.2086	0.0058
654.3944	0.0257
654.5803	-0.0036
654.7661	-0.0034
654.9519	-0.0011
655.1377	-0
655.3234	-0
655.5092	-0
655.6949	-0
655.8806	-0
656.0663	-0
656.2519	-0
656.4376	-0
656.6232	-0
656.8088	-0
656.9945	-0
657.18	-0
657.3656	-0
657.5511	-0
657.7367	-0
657.9222	-0
658.1077	-0
658.2932	-0
658.4786	-0
658.6641	-0
658.8495	-0
659.0349	-0
659.2203	-0
659.4057	-0
659.591	0.0627
659.7764	0.0131
659.9617	-0.0012
660.147	0.0028
660.3323	0.0148
660.5176	-0.0036
660.7028	-0.0079
660.888	0.0165
661.0733	-0.0031
661.2585	-0.0106
661.4436	-0.0047
661.6288	0.0234
661.8139	-0.0098
661.9991	-0.0194
662.1842	-0.0182
662.3693	0.0039
662.5544	0.0179
662.7394	0.0241
662.9245	0.009
663.1095	-0.0144
663.2945	-0.0202
663.4795	-0.0053
663.6644	0.0073
663.8494	0.0067
664.0343	0.0035
664.2193	-0.0153
664.4042	0.0025
664.589	0.0048
664.7739	0.0073
664.9587	0.0054
665.1436	-0.0035
665.3284	-0.0132
665.5132	-0.0275
665.698	0.0081
665.8827	0.0109
666.0675	0.0014
666.2522	-0.0011
666.4369	-0.0085
666.6216	0.0171
666.8063	0.0015
666.9909	-0.0218
667.1756	0.0236
667.3602	-0.0073
667.5448	-0.0005
667.7294	-0.0021
667.9139	-0.0009
668.0985	0.0094
668.283	-0.0089
668.4675	0.0109
668.652	0.0301
668.8365	-0.0028
669.0209	-0.0005
669.2054	0.0027
669.3898	-0.015
669.5742	0.022
669.7586	0.0148
669.943	-0.0005
670.1273	0.003
670.3117	0.0147
670.496	0.0089
670.6803	-0.0106
670.8646	-0.0113
671.0488	0.0214
671.2331	-0.0059
671.4173	0.0102
671.6015	0.0009
671.7857	0.0014
671.9699	0.0252
672.1541	-0.0001
672.3382	-0.0085
672.5223	0.0018
672.7064	0.003
672.8905	0.0077
673.0746	0.0103
673.2587	0.0095
673.4427	0.0165
673.6267	0.0077
673.8107	0.0063
673.9947	0.021
674.1787	0.0023
674.3626	-0.0101
674.5465	0.0024
674.7304	-0.0152
674.9143	-0.0084
675.0982	0.0061
675.2821	0.0057
675.4659	-0.0218
675.6497	0.0075
675.8335	0.0056
676.0173	-0.0117
676.2011	0.0122
676.3849	-0.0024
676.5686	0.019
676.7523	0.0281
676.936	0.0007
677.1197	-0.0094
677.3034	0.0312
677.487	0.0076
677.6706	0.0006
677.8542	0.0065
678.0378	-0.0057
678.2214	0.0163
678.405	0.0031
678.5885	0.0077
678.772	-0.0074
678.9555	0.0018
679.139	0.0075
679.3225	0.001
679.5059	-0.0094
679.6894	0.0036
679.8728	0.0115
680.0562	-0.0029
680.2395	0.0056
680.4229	0.0112
680.6062	0.01
680.7896	-0.0028
680.9729	0.0139
681.1562	0.001
681.3394	0.0118
681.5227	0.0039
681.7059	0.014
681.8891	0.002
682.0723	-0.0066
682.2555	0.0023
682.4387	-0.0053
682.6218	0.0205
682.805	-0.0016
682.9881	0.0196
683.1712	0.0089
683.3542	-0.0114
683.5373	-0.0082
683.7203	0.0068
683.9034	-0.0008
684.0864	-0.0085
684.2694	-0.0029
684.4523	-0.0009
684.6353	-0.0025
684.8182	-0.0008
685.0011	0.0044
685.184	-0.0019
685.3669	0.0064
685.5498	-0.0151
685.7326	-0.0098
685.9154	-0.0116
686.0982	0.0148
686.281	-0.0085
686.4638	0.009
686.6465	0.0067
686.8293	-0.0092
687.012	0.0071
687.1947	-0.0009
687.3774	0.0001
687.56	0.0018
687.7427	0.0102
687.9253	-0.0165
688.1079	0.0231
688.2905	-0.0167
688.4731	0.024
688.6556	-0.0015
688.8382	-0.0254
689.0207	0.0178
689.2032	0.0061
689.3857	-0.0215
689.5681	0.0018
689.7506	0.0065
689.933	0.0073
690.1154	0.0365
690.2978	0.0168
690.4802	0.0059
690.6626	0.0081
690.8449	0.0109
691.0272	-0.0158
691.2095	-0.0143
691.3918	0.0025
691.5741	0.008
691.7563	0.0267
691.9386	0.0167
692.1208	0.0078
692.303	-0.0231
692.4852	0.0163
692.6673	0.0115
692.8495	-0.0074
693.0316	-0.0056
693.2137	0.0137
693.3958	0.005
693.5778	-0.0112
693.7599	0.0018
693.9419	0.0054
694.1239	0.0137
694.3059	0.0245
694.4879	-0.0014
694.6699	-0.0143
694.8518	0.0115
695.0337	0.0067
695.2157	0.0277
695.3975	-0.0192
695.5794	-0.0061
695.7613	-0.0138
695.9431	-0.0239
696.1249	0.0273
696.3067	-0.0168
696.4885	0.0057
696.6703	-0.0147
696.852	-0.0156
697.0337	0.0133
697.2154	0.0147
697.3971	0.0051
697.5788	0.0021
697.7605	-0.0016
697.9421	0.0143
698.1237	0.0091
698.3053	-0.0173
698.4869	-0.0015
698.6685	-0.0108
698.85	0.013
699.0315	-0.0185
699.213	0.0163
699.3945	0.0118
699.576	0.008
699.7575	0.0105
699.9389	0.0021
700.1203	0.0046
700.3017	0.0146
700.4831	0.0329
700.6645	0.0301
700.8458	0.0018
701.0271	0.0295
701.2084	-0.017
701.3897	0.0104
701.571	-0.0333
701.7523	-0.0151
701.9335	0.0257
702.1147	0.0154
702.2959	-0.0248
702.4771	0.0016
702.6583	-0.0046
702.8394	-0.0193
703.0205	0.0119
703.2016	-0.0108
703.3827	-0.0067
703.5638	0.0078
703.7449	0.0148
703.9259	0.0049
704.1069	-0.026
704.2879	0.0202
704.4689	0.0042
704.6499	0.0141
704.8308	0.0125
705.0117	0.0023
705.1927	-0.0171
705.3735	0.0114
705.5544	0.0204
705.7353	-0.0006
705.9161	-0.0381
706.0969	-0.0121
706.2777	0.0052
706.4585	-0.0086
706.6393	0.0035
706.82	0.02
707.0007	-0.0051
707.1815	-0.0003
707.3621	0.0319
707.5428	0.009
707.7235	-0.0026
707.9041	0.0056
708.0847	-0.005
708.2653	0.0274
708.4459	0.0098
708.6265	-0.0045
708.807	0.0092
708.9875	-0.0074
709.168	-0.011
709.3485	0.0026
709.529	-0.0144
709.7095	-0.0107
709.8899	-0.0044
710.0703	0.0169
710.2507	0.0023
710.4311	-0.016
710.6115	0.0111
710.7918	0.0272
710.9721	0.0005
711.1524	-0.0201
711.3327	0.0018
711.513	-0.001
711.6932	-0.0011
711.8735	-0.0022
712.0537	-0.0255
712.2339	-0.005
712.4141	0.0236
712.5942	-0.0253
712.7744	0.017
712.9545	0.0207
713.1346	0.0189
713.3147	0.0027
713.4947	-0.0072
713.6748	-0.0004
713.8548	0.0289
714.0348	0.0118
714.2148	0.0094
714.3948	0.017
714.5748	0.0259
714.7547	0.0185
714.9346	0.0037
715.1145	0.0099
715.2944	-0.0415
715.4743	0.0032
715.6541	-0.03
715.834	0.0308
716.0138	0.0128
716.1936	-0.0275
716.3733	-0.0032
716.5531	-0.0223
716.7328	0.0188
716.9126	-0.026
717.0923	-0.0534
717.2719	0.0007
717.4516	-0.0229
717.6312	-0.0229
717.8109	0.0184
717.9905	-0.0012
718.1701	-0.0031
718.3496	-0.0224
718.5292	-0.0039
718.7087	-0.0065
718.8882	-0.0002
719.0677	-0.016
719.2472	-0.0144
719.4267	-0.0031
719.6061	-0.0083
719.7856	0.018
719.965	0.0245
720.1443	-0.0025
720.3237	0.0086
720.5031	-0.0077
720.6824	0.0129
720.8617	0.0028
721.041	0.0076
721.2203	-0.0046
721.3995	-0.0222
721.5788	-0.0014
721.758	-0.0109
721.9372	-0.0101
722.1164	-0.0137
722.2956	0.0024
722.4747	0.0104
722.6538	-0.0175
722.8329	0.0213
723.012	-0.0115
723.1911	-0.0036
723.3702	0.005
723.5492	0.0024
723.7282	-0.0179
723.9072	0.0252
724.0862	-0.0245
724.2652	-0.0187
724.4441	-0.0091
724.623	-0.0013
724.8019	0.0088
724.9808	0.0009
725.1597	0.0012
725.3385	-0.0029
725.5174	-0.0154
725.6962	0.0207
725.875	-0.0025
726.0538	0.0153
726.2325	0.013
726.4112	-0.0149
726.59	-0.0044
726.7687	-0.0243
726.9474	0.0188
727.126	0.018
727.3047	-0.0068
727.4833	0.0151
727.6619	-0.0055
727.8405	0.0019
728.0191	0.0362
728.1976	-0.0012
728.3762	-0.0098
728.5547	-0.0045
728.7332	0.0217
728.9116	-0.0042
729.0901	-0.0027
729.2686	0.0017
729.447	-0.0163
729.6254	-0.0073
729.8038	-0.0113
729.9821	-0.0042
730.1605	-0.0033
730.3388	-0.0043
730.5171	0.0149
730.6954	-0.0138
730.8737	-0.0046
731.0519	0.0001
731.2302	0.0119
731.4084	-0.0162
731.5866	-0.0113
731.7648	0.0207
731.9429	0.0028
732.1211	0.0019
732.2992	-0.0143
732.4773	-0.0052
732.6554	-0.0058
732.8335	0.0084
733.0115	0.0001
733.1896	-0.0187
733.3676	0.0267
733.5456	-0.0109
733.7235	0.005
733.9015	0.0012
734.0794	0.0017
734.2574	-0.0151
734.4353	0.0135
734.6131	0.0029
734.791	-0.0107
734.9689	-0.0234
735.1467	-0.0156
735.3245	0.0238
735.5023	0.005
735.68	0.0012
735.8578	0.0107
736.0355	0.0044
736.2132	0.0207
736.3909	0.0131
736.5686	-0.013
736.7463	-0.0337
736.9239	0.0105
737.1015	-0.0106
737.2791	-0.0039
737.4567	0.0079
737.6343	0.0002
737.8118	0.0062
737.9894	0.0009
738.1669	-0.0071
738.3444	0.0189
738.5218	-0.0128
738.6993	0.0153
738.8767	-0.0039
739.0541	-0.0053
739.2315	-0.0059
739.4089	0.0234
739.5863	-0.0197
739.7636	-0.0029
739.9409	0.0075
740.1182	0.0072
740.2955	0.0205
740.4728	-0.0164
740.65	-0.0035
740.8272	0.0168
741.0044	-0.0143
741.1816	-0.0075
741.3588	-0.041
741.5359	0.045
741.7131	-0.0015
741.8902	-0.0019
742.0673	-0.0192
742.2444	0.0395
742.4214	0.0121
742.5985	-0.0245
742.7755	0.0224
742.9525	-0.0484
743.1295	-0.028
743.3064	-0.0339
743.4834	-0.0096
743.6603	0.039
743.8372	-0.0274
744.0141	0.032
744.191	0.0214
744.3678	-0.0439
744.5446	-0.0034
744.7215	-0.0223
744.8982	0.0234
745.075	0.0304
745.2518	0.0164
745.4285	0.0382
745.6052	-0.0306
745.7819	-0.0122
745.9586	-0.0153
746.1353	-0.0279
746.3119	0.0078
746.4885	0.01
746.6651	0.005
746.8417	-0.0057
747.0183	0.0134
747.1948	0.0059
747.3714	-0.0186
747.5479	0.0263
747.7244	0.0152
747.9008	-0.0246
748.0773	0.031
748.2537	0.0047
748.4301	0.0211
748.6065	-0.032
748.7829	-0.0281
748.9593	-0.001
749.1356	-0.0036
749.3119	0.0002
749.4882	0.0363
749.6645	-0.0064
749.8408	0.0166
750.017	0.0144
750.1933	-0.0181
750.3695	0.0134
750.5457	0.0029
750.7218	0.0278
750.898	0.0138
751.0741	0.0021
751.2502	0.0155
751.4263	-0.0008
751.6024	0.0116
751.7784	-0.0227
751.9545	-0.02
752.1305	0.0048
752.3065	-0.0098
752.4825	0.0132
752.6584	-0.0029
752.8344	-0.0053
753.0103	-0.0212
753.1862	0.0014
753.3621	-0.0193
753.5379	-0.0261
753.7138	-0.0079
753.8896	0.0023
754.0654	-0.006
754.2412	-0.004
754.417	0.0083
754.5927	0.0053
754.7685	0.0124
754.9442	-0.0023
755.1199	0.0045
755.2956	0.0149
755.4712	-0.0113
755.6469	-0.0027
755.8225	0.0186
755.9981	0.0004
756.1736	0.0038
756.3492	-0.0042
756.5248	0.0172
756.7003	-0.0001
756.8758	-0.0035
757.0513	-0.0027
757.2267	-0.0057
757.4022	-0.0003
757.5776	-0.0121
757.753	0.0196
757.9284	0.0006
758.1038	-0.0065
758.2791	-0.0108
758.4545	-0.0112
758.6298	0.0142
758.8051	0.0077
758.9803	-0.0032
759.1556	0.0017
759.3308	-0.0055
759.506	-0.0105
759.6812	0.0101
759.8564	-0.0074
760.0316	-0.0193
760.2067	0.0167
760.3819	-0.0017
760.557	0.0108
760.732	-0.0055
760.9071	0.013
761.0821	-0.0059
761.2572	0.0111
761.4322	0.0189
761.6072	-0.0109
761.7821	-0.0285
761.9571	0.0067
762.132	-0.0032
762.3069	0.0132
762.4818	0.0125
762.6567	0.009
762.8316	0.0114
763.0064	0.0052
763.1812	0.0163
763.356	-0.014
763.5308	0.0023
763.7055	-0.0063
763.8803	0.0024
764.055	-0.0117
764.2297	-0.0113
764.4044	-0.0045
764.579	-0.0226
764.7537	-0.0034
764.9283	0.0004
765.1029	0.0089
765.2775	-0.0014
765.4521	0.0087
765.6266	-0.0076
765.8011	0.0063
765.9756	0.0148
766.1501	-0.0048
766.3246	-0.0087
766.4991	-0.0135
766.6735	0.0597
766.8479	-0.02
767.0223	0.0052
767.1967	0.0277
767.371	0.0149
767.5454	0.0233
767.7197	0.015
767.894	-0.0133
768.0683	0.0401
768.2425	0.0112
768.4168	0.0203
768.591	-0.0217
768.7652	-0.0124
768.9394	-0.0306
769.1135	-0.0139
769.2877	0.0274
769.4618	0.0283
769.6359	-0.0039
769.81	-0.0014
769.984	0.0074
770.1581	0.0217
770.3321	0.0195
770.5061	0.0147
770.6801	0.0168
770.8541	0.0135
771.028	0.0293
771.202	0.0236
771.3759	-0.0094
771.5498	0.0044
771.7236	-0.0207
771.8975	0.0208
772.0713	0.0228
772.2451	-0.0051
772.4189	-0.0056
772.5927	-0.0405
772.7665	0.0319
772.9402	0.0201
773.1139	-0.0014
773.2876	-0.0351
773.4613	0.0325
773.635	0.0291
773.8086	0.0071
773.9822	0.0379
774.1558	0.0197
774.3294	0.0163
774.503	-0.0246
774.6765	0.0065
774.8501	-0.0293
775.0236	0.0622
775.1971	-0.037
775.3705	-0.0096
775.544	-0.0508
775.7174	0.0145
775.8908	0.011
776.0642	0.0129
776.2376	0.0021
776.4109	-0.0189
776.5843	-0.0185
776.7576	0.0311
776.9309	-0.0029
777.1041	-0.0254
777.2774	0.0071
777.4506	-0.0325
777.6238	-0.0292
777.797	0.0067
777.9702	0.0191
778.1434	-0.0052
778.3165	-0.0369
778.4896	-0.0301
778.6627	0.012
778.8358	-0.0162
779.0089	-0.0242
779.1819	0.0337
779.3549	0.0044
779.5279	-0.0441
779.7009	0.0205
779.8739	0.0637
780.0468	-0.0046
780.2197	0.0201
780.3926	-0.0403
780.5655	0.0161
780.7384	-0.0272
780.9112	-0.0081
781.0841	-0.003
781.2569	-0.0217
781.4297	-0.0047
781.6024	-0.002
781.7752	0.0346
781.9479	0.0091
782.1206	0.0077
782.2933	-0.0164
782.466	0.0105
782.6386	0.0166
782.8113	0.0266
782.9839	0.0146
783.1565	-0.0052
783.329	-0.002
783.5016	-0.0003
783.6741	-0.0286
783.8466	0.0718
784.0191	0.0419
784.1916	-0.0396
784.3641	-0.0301
784.5365	0.0112
784.7089	-0.0168
784.8813	0.0362
785.0537	0.0066
785.2261	-0.0135
785.3984	0.0003
785.5707	-0.0615
785.743	0.0414
785.9153	-0.0206
786.0876	-0.0417
786.2598	-0.025
786.432	0.0004
786.6042	0.0269
786.7764	-0.0486
786.9486	-0.0213
787.1207	0.0323
787.2928	0.0686
787.4649	0.0023
787.637	-0.0153
787.8091	-0.0084
787.9811	0.0468
788.1532	0.0066
788.3252	-0.0146
788.4972	0.016
788.6691	-0.0055
788.8411	-0.0203
789.013	0.0143
789.1849	-0.0285
789.3568	0.0012
789.5287	0.0358
789.7005	-0.0208
789.8723	-0.0125
790.0442	-0.0358
790.2159	0.0016
790.3877	0.0186
790.5595	0.063
790.7312	0.0065
790.9029	-0.0195
791.0746	0.051
791.2463	-0.079
791.4179	-0.0109
791.5896	0.0595
791.7612	0.0327
791.9328	0.0082
792.1044	-0.0006
792.2759	-0.0164
792.4474	-0.0232
792.619	-0.014
792.7905	-0.004
792.9619	-0.0138
793.1334	0.0903
793.3048	0.0481
793.4762	0.0291
793.6476	-0.0411
793.819	-0.0166
793.9904	-0.0245
794.1617	-0.012
794.333	0.0291
794.5043	0.0149
794.6756	-0.0032
794.8469	0.0203
795.0181	0.006
795.1893	-0.0114
795.3605	0.0521
795.5317	-0.0198
795.7029	-0.0233
795.874	0.0205
796.0452	0.0557
796.2163	0.0104
796.3873	0.0333
796.5584	-0.0119
796.7294	0.0175
796.9005	0.0295
797.0715	-0.0637
797.2425	0.0602
797.4134	0.0452
797.5844	0.0288
797.7553	-0.0416
797.9262	0.0377
798.0971	0.0262
798.2679	0.0876
798.4388	0.0905
798.6096	-0.0232
798.7804	0.0006
798.9512	0.0308
799.122	-0.0502
799.2927	0.0102
799.4635	-0.0902
799.6342	-0.0008
799.8049	0.0382
799.9755	-0.0737
800.1462	-0.0034
800.3168	0.002
800.4874	-0.1023
800.658	-0.0289
800.8286	0.057
800.9991	0.0368
801.1696	0.034
801.3402	-0.0795
801.5106	-0.0653
801.6811	-0.0333
801.8516	0.0627
802.022	-0.0719
802.1924	0.0291
802.3628	-0.0712
802.5332	-0.0129
802.7035	-0.0163
802.8739	0.0637
803.0442	-0.0083
803.2145	0.0124
803.3847	-0.0306
803.555	0.0085
803.7252	-0.0267
803.8954	-0.0518
804.0656	-0.0397
804.2358	0.0195
804.4059	0.0296
804.5761	0.0427
804.7462	-0.0356
804.9163	0.049
805.0864	-0.0578
805.2564	0.0533
805.4264	0.0571
805.5965	0.0913
805.7665	-0.0258
805.9364	0.0215
806.1064	0.0173
806.2763	0.0579
806.4462	0.0155
806.6161	-0.0065
806.786	0.021
806.9559	0.0064
807.1257	-0.0105
807.2955	-0.0289
807.4653	0.0289
807.6351	-0.0174
807.8048	-0.0309
807.9746	0.021
808.1443	-0.0179
808.314	0.073
808.4837	0.0398
808.6533	-0.0131
808.8229	-0.0378
808.9926	0.0436
809.1622	-0.0189
809.3317	0.0293
809.5013	-0.1335
809.6708	-0.0074
809.8403	0.0451
810.0098	-0.0114
810.1793	0.0666
810.3488	-0.0142
810.5182	0.1157
810.6876	0.0416
810.857	-0.0471
811.0264	-0.0487
811.1958	0.1164
811.3651	0.0156
811.5344	0.0602
811.7037	0.0276
811.873	0.0303
812.0422	-0.0457
812.2115	0.0012
812.3807	-0.1049
812.5499	0.0172
812.7191	-0.0223
812.8882	-0.0346
813.0574	-0.0216
813.2265	0.0181
813.3956	-0.0193
813.5646	-0.0167
813.7337	-0.008
813.9027	-0.0979
814.0718	0.0483
814.2407	0.1099
814.4097	0.0219
814.5787	0.0579
814.7476	0.0436
814.9165	0.0506
815.0854	-0.0474
815.2543	-0.0391
815.4232	0.1919
815.592	-0.0442
815.7608	-0.0989
815.9296	-0.0915
816.0984	-0.0052
816.2671	-0.3194
816.4359	0.0439
816.6046	0.0365
816.7733	-0.0711
816.942	-0.0724
817.1106	0.0104
817.2793	0.0472
817.4479	-0.0457
817.6165	-0.0174
817.785	0.0643
817.9536	-0.1349
818.1221	0.02
818.2906	-0.0461
818.4591	0.0736
818.6276	-0.0037
818.7961	0.0706
818.9645	-0.047
819.1329	0.0418
819.3013	-0.1296
819.4697	0.0491
819.638	0.0868
819.8064	-0.0846
819.9747	0.0768
820.143	0.2909
820.3113	0.104
820.4795	0.0069
820.6477	-0.0901
820.816	-0.0439
820.9842	0.0907
821.1523	0.0226
821.3205	-0.0665
821.4886	0.02
821.6567	-0.0531
821.8248	0.1063
821.9929	-0.0781
822.1609	-0.0972
822.329	0.0552
822.497	-0.0564
822.665	-0.0356
822.833	-0.0093
823.0009	-0.1659
823.1688	0.1298
823.3367	-0.1769
823.5046	0.1856
823.6725	-0.1107
823.8404	-0.0433
824.0082	-0.1801
824.176	0.0736
824.3438	0.0328
824.5116	-0.1304
824.6793	0.0354
824.847	0.0867
825.0147	0.2767
825.1824	0.1054
825.3501	-0.1528
825.5177	-0.1377
825.6854	0.0127
825.853	-0.0601
826.0206	-0.095
826.1881	-0.0264
826.3557	0.0507
826.5232	0.0804
826.6907	0.0131
826.8582	-0.0466
827.0257	0.1444
827.1931	-0.0176
827.3605	0.0379
827.528	-0.2212
827.6953	-0.272
827.8627	-0.0419
828.03	0.19
828.1974	0.0828
828.3647	0.0096
828.532	-0.0354
828.6992	-0.0544
828.8665	-0.1352
829.0337	0.1759
829.2009	-0.1149
829.3681	0.0452
829.5352	-0.2469
829.7024	0.1651
829.8695	-0.0131
830.0366	0.1644
830.2037	0.0975
830.3707	0.0173
830.5378	0.0687
830.7048	-0.0292
830.8718	0.1212
831.0388	0.066
831.2057	0.1041
831.3727	-0.2199
831.5396	-0.0815
831.7065	-0.8532
831.8734	-0.1401
832.0402	0.0807
832.2071	-0.7291
832.3739	-0.0885
832.5407	-2.0408
832.7075	-0.3149
832.8742	0.3044
833.041	0.0025
833.2077	0.7501
833.3744	0.1296
833.541	0.1511
833.7077	-0.1264
833.8743	0.1456
834.0409	0.0263
834.2075	0.0419
834.3741	-0.2827
834.5407	0.2057
834.7072	0.5295
834.8737	0.2465
835.0402	0.0939
835.2067	0.1825
835.3731	-0.1111
835.5395	-0.076
835.706	-0.2743
835.8723	-0.1113
836.0387	-0.0093
836.2051	0.0123
836.3714	0.1213
836.5377	-0.0697
836.704	0.7478
836.8703	-0.1991
837.0365	-0.2986
837.2027	-0.0629
837.3689	0.0343
837.5351	0.3181
837.7013	0.005
837.8674	0.0412
838.0335	0.0827
838.1997	-0.1965
838.3657	-0
838.5318	-0.2996
838.6978	-0
838.8639	-0.2092
839.0299	0.3108
839.1958	0.1623
839.3618	-0.1505
839.5277	0.0575
839.6937	-0.1141
839.8596	-0.0457
840.0254	0.2641
840.1913	-0.635
840.3571	-0.2642
840.523	-0
840.6888	0.2246
840.8545	-0.6221
841.0203	0.1706
841.186	0.0511
841.3517	0.0339
841.5174	-0.0026
841.6831	0.1993
841.8488	-0.059
842.0144	-0.0505
842.18	0.1951
842.3456	-0.0169
842.5112	-0
842.6767	-0.0815
842.8422	-0.2124
843.0077	-0.1366
843.1732	-0.3862
843.3387	-0.0677
843.5042	-0
843.6696	-0.1576
843.835	-0.2471
844.0004	-0.2955
844.1657	-0.8451
844.3311	-0.088
844.4964	-0.4827
844.6617	-0
844.827	0.0466
844.9923	0.0433
845.1575	-0.0115
845.3227	-0.3908
845.4879	-0.2014
845.6531	-0.2772
845.8183	0.8933
845.9834	-0
846.1485	0.1154
846.3136	-0.4121
846.4787	-0
846.6438	-0.2435
846.8088	0.2576
846.9738	-0.5452
847.1388	0.3459
847.3038	0.2087
847.4687	-0
847.6337	-0.4081
847.7986	0.3688
847.9635	-0.1482
848.1284	0.0812
848.2932	0.1876
848.458	-0
848.6228	-0.081
848.7876	-0
848.9524	-0
849.1172	-1.9906
849.2819	-0.6829
849.4466	0.1728
849.6113	0.0041
849.7759	-0
849.9406	-0.0774
850.1052	-0.6507
850.2698	-0
850.4344	-0.4642
850.599	-0.3703
850.7635	0.0597
850.928	0.1674
851.0925	0.3879
851.257	-0.1313
851.4215	-0
851.5859	0.3801
851.7503	-0
851.9147	-0.3687
852.0791	-0.1715
852.2434	0.1237
852.4078	-0
852.5721	0.0638
852.7364	0.3616
852.9007	-0.0457
853.0649	-0
853.2291	-0.0046
853.3934	-0
853.5575	-0.1333
853.7217	0.1333
853.8859	-0.5783
854.05	-0.3469
854.2141	0.4723
854.3782	-0.2461
854.5423	-0
854.7063	-0.1648
854.8703	0.1466
855.0343	-0.1886
855.1983	-0.0464
855.3623	0.0682
855.5262	-0
855.6901	0.0481
855.854	0.0738
856.0179	0.0589
856.1818	0.4166
856.3456	0.1424
856.5094	0.4446
856.6732	-0
856.837	-1.0941
857.0008	-0.5148
857.1645	0.2097
857.3282	-0.6221
857.4919	0.0039
857.6556	-0.3469
857.8192	0.0168
857.9828	-0.2833
858.1465	0.1098
858.31	-0
858.4736	-0.6717
858.6372	0.4189
858.8007	0.4221
858.9642	0.43
859.1277	-0
859.2911	-0.5933
859.4546	-0
859.618	0.7254
859.7814	-0.2158
859.9448	-0.0376
860.1081	-0
860.2715	-1.9671
860.4348	0.1444
860.5981	-0.0179
860.7614	0.1056
860.9246	2.6053
861.0879	-0
861.2511	-0
861.4143	0.3424
861.5774	0.6065
861.7406	-0.2688
861.9037	-0
862.0668	-0.8961
862.2299	0.5485
862.393	-0
862.556	-0.5169
862.7191	-0.3881
862.8821	0.2043
863.0451	0.2309
863.208	0.2496
863.371	-0.8994
863.5339	0.2162
863.6968	0.1158
863.8597	-0.4802
864.0225	-0
864.1854	-0.1555
864.3482	-1.0941
864.511	-0.1965
864.6737	-0
864.8365	0.0133
864.9992	-0.3594
865.1619	-0.271
865.3246	-1.4914
865.4873	-0
865.65	0.7473
865.8126	0.4683
865.9752	-0.3734
866.1378	-0.0041
866.3004	0.1755
866.4629	-2.034
866.6254	0.3577
866.7879	0.4059
866.9504	-0
867.1129	-0.4498
867.2753	-0.2024
867.4377	-0.168
867.6001	-0.6537
867.7625	-0.174
867.9249	0.2051
868.0872	-0.1979
868.2495	-0
868.4118	-0
868.5741	0.4446
868.7363	-0
868.8986	-0.3281
869.0608	-0
869.223	-0.592
869.3851	-0
869.5473	-0.3049
869.7094	0.5981
869.8715	-0
870.0336	0.1078
870.1957	-0
870.3577	0.2666
870.5197	0.2836
870.6817	-0.953
870.8437	-0.5236
871.0057	0.7362
871.1676	0.2307
871.3295	0.0883
871.4914	-0
871.6533	-0
871.8151	0.3276
871.977	-0.1514
872.1388	-0.2277
872.3006	0.3936
872.4623	-0.5979
872.6241	1.1085
872.7858	-0.007
872.9475	-0
873.1092	0.5367
873.2709	1.0451
873.4325	-1.5147
873.5941	-0
873.7557	0.1471
873.9173	0.0893
874.0789	0.0768
874.2404	-0
874.4019	0.0798
874.5634	-0
874.7249	1.1523
874.8863	-0
875.0478	-0.079
875.2092	0.3698
875.3706	0.7524
875.5319	0.461
875.6933	0.8745
875.8546	1.1291
876.0159	0.1184
876.1772	-0.5877
876.3385	1.5165
876.4997	0.2188
876.6609	0.1662
876.8221	-0
876.9833	-0
877.1445	0.2949
877.3056	-1.157
877.4667	-0.0593
877.6278	-0
877.7889	-0.2836
877.9499	-0.2037
878.111	-0.5528
878.272	-0.3881
878.433	-0.3094
878.5939	-0.1667
878.7549	-0.2888
878.9158	-0
879.0767	-0
879.2376	-0.4575
879.3984	-0
879.5593	-0
879.7201	-1.6825
879.8809	0.3694
880.0417	-0.0645
880.2024	0.7699
880.3632	-0.0529
880.5239	-0.2935
880.6846	-0.347
880.8452	0.2471
881.0059	-0.5461
881.1665	0.1225
881.3271	-0
881.4877	0.1502
881.6483	-0
881.8088	-0
881.9693	-0
882.1298	-0
882.2903	-0
