Data from D4ACN5uM460nmA_Absorbance_13-05-41-811.txt Node
Date: Fri Feb 21 13:05:41 GMT 2025
User: LASERRRRR
Spectrometer: FLMT03099
Trigger mode: 0
Integration Time (sec): 1.500000E-2
Scans to average: 1
Electric dark correction enabled: true
Nonlinearity correction enabled: false
Boxcar width: 0
XAxis mode: Wavelengths
Number of Pixels in Spectrum: 3648
>>>>>Begin Spectral Data<<<<<
179.3399	-0.3989
179.5586	-0.3989
179.7771	-0.3989
179.9957	0.0383
180.2143	-0
180.4329	0.1593
180.6514	-0
180.8699	0.5756
181.0885	-0
181.307	-0
181.5255	0.0412
181.744	-0
181.9625	0.1309
182.181	0.7988
182.3994	-0.1215
182.6179	-0
182.8363	-0
183.0547	0.5049
183.2732	0.2728
183.4916	0.4278
183.71	0.214
183.9284	0.2536
184.1467	-0.0247
184.3651	0.0112
184.5835	0.1914
184.8018	0.1491
185.0201	0.2112
185.2385	0.137
185.4568	0.1667
185.6751	0.3762
185.8934	0.3104
186.1117	0.0722
186.3299	0.385
186.5482	0.2051
186.7664	0.1345
186.9847	0.0681
187.2029	0.2951
187.4211	0.0777
187.6393	0.0747
187.8575	0.1124
188.0757	0.3453
188.2939	0.1272
188.512	0.2477
188.7302	0.2159
188.9483	0.0161
189.1665	0.4818
189.3846	0.263
189.6027	0.2542
189.8208	0.0597
190.0389	0.2809
190.257	0.0567
190.475	-0.0658
190.6931	0.2356
190.9111	0.0285
191.1292	0.0977
191.3472	0.1359
191.5652	0.1303
191.7832	0.0139
192.0012	0.1887
192.2192	0.072
192.4371	0.1073
192.6551	0.1567
192.873	0.0935
193.091	0.1891
193.3089	0.1288
193.5268	0.3084
193.7447	0.1626
193.9626	0.1704
194.1805	0.1711
194.3984	0.1912
194.6162	0.2031
194.8341	0.2587
195.0519	0.238
195.2697	0.2897
195.4875	0.2855
195.7054	0.269
195.9231	0.2292
196.1409	0.362
196.3587	0.3356
196.5765	0.3036
196.7942	0.3296
197.012	0.2367
197.2297	0.2871
197.4474	0.3854
197.6651	0.3427
197.8828	0.3404
198.1005	0.3822
198.3182	0.4307
198.5358	0.3548
198.7535	0.3699
198.9711	0.4421
199.1888	0.373
199.4064	0.3993
199.624	0.3989
199.8416	0.3838
200.0592	0.3469
200.2767	0.3484
200.4943	0.4047
200.7119	0.384
200.9294	0.4014
201.1469	0.4367
201.3645	0.4357
201.582	0.4181
201.7995	0.4321
202.017	0.417
202.2344	0.3932
202.4519	0.382
202.6694	0.441
202.8868	0.4264
203.1042	0.411
203.3217	0.3955
203.5391	0.4191
203.7565	0.3468
203.9739	0.3529
204.1913	0.3494
204.4086	0.35
204.626	0.3802
204.8433	0.358
205.0607	0.3399
205.278	0.3525
205.4953	0.3434
205.7126	0.3391
205.9299	0.3311
206.1472	0.3127
206.3644	0.3303
206.5817	0.3359
206.7989	0.3472
207.0162	0.313
207.2334	0.3265
207.4506	0.2954
207.6678	0.3121
207.885	0.3053
208.1022	0.3343
208.3194	0.2984
208.5365	0.3372
208.7537	0.303
208.9708	0.3143
209.1879	0.2932
209.405	0.284
209.6222	0.2662
209.8392	0.3191
210.0563	0.2971
210.2734	0.2736
210.4905	0.2734
210.7075	0.2923
210.9245	0.2722
211.1416	0.2741
211.3586	0.2667
211.5756	0.2542
211.7926	0.2627
212.0096	0.2797
212.2265	0.2557
212.4435	0.2772
212.6604	0.2584
212.8774	0.2598
213.0943	0.2785
213.3112	0.2581
213.5281	0.2603
213.745	0.2398
213.9619	0.2463
214.1788	0.2574
214.3956	0.257
214.6125	0.2615
214.8293	0.2575
215.0461	0.2578
215.2629	0.2539
215.4798	0.2489
215.6965	0.2441
215.9133	0.2364
216.1301	0.2508
216.3469	0.2537
216.5636	0.2355
216.7803	0.2539
216.9971	0.2677
217.2138	0.2658
217.4305	0.2409
217.6472	0.2568
217.8639	0.2526
218.0805	0.2496
218.2972	0.2561
218.5138	0.2617
218.7305	0.2603
218.9471	0.2588
219.1637	0.2643
219.3803	0.2534
219.5969	0.2642
219.8135	0.2693
220.0301	0.254
220.2466	0.2534
220.4632	0.2597
220.6797	0.2668
220.8962	0.2522
221.1127	0.2624
221.3292	0.2545
221.5457	0.2841
221.7622	0.2787
221.9787	0.2681
222.1951	0.2774
222.4116	0.2715
222.628	0.2852
222.8444	0.2817
223.0608	0.2797
223.2772	0.2885
223.4936	0.287
223.71	0.2893
223.9264	0.2958
224.1427	0.2924
224.3591	0.2966
224.5754	0.2964
224.7917	0.3011
225.008	0.2889
225.2243	0.2993
225.4406	0.3153
225.6569	0.3111
225.8732	0.3061
226.0894	0.3137
226.3057	0.3128
226.5219	0.3262
226.7381	0.3289
226.9543	0.315
227.1705	0.3181
227.3867	0.3187
227.6029	0.3319
227.8191	0.345
228.0352	0.3374
228.2513	0.353
228.4675	0.3373
228.6836	0.3513
228.8997	0.3462
229.1158	0.3523
229.3319	0.3525
229.548	0.345
229.764	0.3614
229.9801	0.3589
230.1961	0.3688
230.4121	0.3689
230.6282	0.3881
230.8442	0.3882
231.0602	0.3822
231.2761	0.3856
231.4921	0.3907
231.7081	0.389
231.924	0.401
232.14	0.3979
232.3559	0.4101
232.5718	0.4112
232.7877	0.4049
233.0036	0.408
233.2195	0.417
233.4353	0.4181
233.6512	0.4191
233.867	0.4216
234.0829	0.4223
234.2987	0.4116
234.5145	0.4295
234.7303	0.4285
234.9461	0.4352
235.1619	0.4407
235.3776	0.4322
235.5934	0.4428
235.8091	0.4389
236.0249	0.4402
236.2406	0.4371
236.4563	0.4463
236.672	0.4455
236.8877	0.4555
237.1034	0.4447
237.319	0.4431
237.5347	0.4519
237.7503	0.4575
237.966	0.4727
238.1816	0.4561
238.3972	0.463
238.6128	0.4677
238.8284	0.457
239.0439	0.4567
239.2595	0.4668
239.475	0.4608
239.6906	0.4489
239.9061	0.4576
240.1216	0.4561
240.3371	0.4572
240.5526	0.4607
240.7681	0.4642
240.9836	0.4569
241.199	0.4579
241.4145	0.4513
241.6299	0.4494
241.8453	0.4184
242.0607	0.4391
242.2761	0.4319
242.4915	0.4154
242.7069	0.4101
242.9223	0.4139
243.1376	0.4045
243.353	0.4012
243.5683	0.3871
243.7836	0.3876
243.9989	0.3752
244.2142	0.3756
244.4295	0.3701
244.6448	0.3609
244.86	0.3444
245.0753	0.3371
245.2905	0.334
245.5057	0.3281
245.721	0.3242
245.9362	0.3203
246.1514	0.3209
246.3665	0.3089
246.5817	0.2913
246.7969	0.292
247.012	0.2954
247.2271	0.2878
247.4423	0.2858
247.6574	0.2839
247.8725	0.2718
248.0876	0.2701
248.3026	0.2608
248.5177	0.2534
248.7328	0.2552
248.9478	0.2478
249.1628	0.2481
249.3779	0.2401
249.5929	0.2387
249.8079	0.2338
250.0228	0.228
250.2378	0.2285
250.4528	0.2328
250.6677	0.2162
250.8827	0.2129
251.0976	0.2189
251.3125	0.2137
251.5274	0.2051
251.7423	0.2082
251.9572	0.2038
252.172	0.2089
252.3869	0.2088
252.6017	0.1965
252.8166	0.1986
253.0314	0.1966
253.2462	0.199
253.461	0.1924
253.6758	0.1994
253.8906	0.1895
254.1053	0.194
254.3201	0.1889
254.5348	0.1834
254.7496	0.1857
254.9643	0.192
255.179	0.1863
255.3937	0.1851
255.6083	0.1903
255.823	0.1884
256.0377	0.181
256.2523	0.184
256.467	0.1861
256.6816	0.1781
256.8962	0.1818
257.1108	0.1807
257.3254	0.1813
257.54	0.1785
257.7545	0.1835
257.9691	0.175
258.1836	0.1755
258.3981	0.1782
258.6127	0.1719
258.8272	0.1811
259.0417	0.172
259.2561	0.1783
259.4706	0.172
259.6851	0.175
259.8995	0.178
260.114	0.1742
260.3284	0.1742
260.5428	0.1734
260.7572	0.1758
260.9716	0.1799
261.186	0.171
261.4003	0.1781
261.6147	0.1756
261.829	0.1729
262.0433	0.174
262.2577	0.1806
262.472	0.1729
262.6863	0.1799
262.9005	0.1752
263.1148	0.1721
263.3291	0.1787
263.5433	0.181
263.7576	0.1761
263.9718	0.177
264.186	0.1741
264.4002	0.1737
264.6144	0.1821
264.8286	0.1775
265.0427	0.1768
265.2569	0.1798
265.471	0.1807
265.6851	0.175
265.8993	0.1761
266.1134	0.1808
266.3275	0.1797
266.5415	0.1778
266.7556	0.182
266.9697	0.1801
267.1837	0.178
267.3978	0.1805
267.6118	0.165
267.8258	0.1746
268.0398	0.1771
268.2538	0.1697
268.4677	0.176
268.6817	0.17
268.8957	0.1659
269.1096	0.1666
269.3235	0.1715
269.5374	0.1677
269.7514	0.169
269.9652	0.17
270.1791	0.1703
270.393	0.1688
270.6068	0.1716
270.8207	0.1661
271.0345	0.1652
271.2483	0.1586
271.4622	0.1715
271.676	0.1618
271.8897	0.1669
272.1035	0.1733
272.3173	0.169
272.531	0.1698
272.7448	0.1639
272.9585	0.1601
273.1722	0.16
273.3859	0.1644
273.5996	0.1698
273.8133	0.1689
274.0269	0.1682
274.2406	0.1683
274.4542	0.1673
274.6679	0.1634
274.8815	0.1729
275.0951	0.173
275.3087	0.1669
275.5223	0.1701
275.7358	0.1683
275.9494	0.1727
276.1629	0.1747
276.3765	0.1725
276.59	0.1642
276.8035	0.1673
277.017	0.1753
277.2305	0.1741
277.444	0.1723
277.6574	0.172
277.8709	0.1803
278.0843	0.171
278.2978	0.1749
278.5112	0.1726
278.7246	0.1736
278.938	0.1727
279.1513	0.1758
279.3647	0.1714
279.5781	0.1722
279.7914	0.173
280.0047	0.1728
280.2181	0.1699
280.4314	0.1719
280.6447	0.181
280.8579	0.1733
281.0712	0.1726
281.2845	0.1723
281.4977	0.1745
281.711	0.1771
281.9242	0.1753
282.1374	0.1757
282.3506	0.1871
282.5638	0.1784
282.7769	0.1761
282.9901	0.1793
283.2033	0.1795
283.4164	0.1796
283.6295	0.1728
283.8426	0.1737
284.0557	0.1792
284.2688	0.1796
284.4819	0.1761
284.695	0.1826
284.908	0.178
285.1211	0.184
285.3341	0.1789
285.5471	0.1827
285.7601	0.1803
285.9731	0.1856
286.1861	0.1838
286.3991	0.185
286.612	0.1835
286.825	0.1854
287.0379	0.1829
287.2508	0.1882
287.4637	0.1901
287.6766	0.1897
287.8895	0.1866
288.1024	0.1901
288.3152	0.1904
288.5281	0.1863
288.7409	0.1928
288.9538	0.1889
289.1666	0.1896
289.3794	0.1849
289.5922	0.1923
289.8049	0.1901
290.0177	0.1874
290.2304	0.1916
290.4432	0.196
290.6559	0.1933
290.8686	0.1923
291.0813	0.1936
291.294	0.1979
291.5067	0.1916
291.7194	0.1956
291.932	0.1887
292.1447	0.1954
292.3573	0.1888
292.5699	0.1887
292.7825	0.1919
292.9951	0.191
293.2077	0.1932
293.4203	0.1928
293.6328	0.1884
293.8454	0.1955
294.0579	0.1846
294.2704	0.1932
294.4829	0.1951
294.6954	0.1919
294.9079	0.187
295.1204	0.1871
295.3328	0.2035
295.5453	0.1966
295.7577	0.1971
295.9701	0.1899
296.1825	0.198
296.3949	0.1937
296.6073	0.19
296.8197	0.1902
297.0321	0.1935
297.2444	0.1846
297.4567	0.1937
297.6691	0.1878
297.8814	0.1943
298.0937	0.1966
298.306	0.1915
298.5182	0.1995
298.7305	0.1913
298.9428	0.1917
299.155	0.1906
299.3672	0.1931
299.5794	0.1959
299.7916	0.1995
300.0038	0.1911
300.216	0.1917
300.4282	0.1919
300.6403	0.201
300.8525	0.1904
301.0646	0.1911
301.2767	0.1907
301.4888	0.1893
301.7009	0.1916
301.913	0.1921
302.125	0.1868
302.3371	0.1947
302.5491	0.1943
302.7612	0.1956
302.9732	0.2007
303.1852	0.1925
303.3972	0.1911
303.6092	0.1943
303.8211	0.1959
304.0331	0.1898
304.245	0.1923
304.457	0.1915
304.6689	0.1905
304.8808	0.184
305.0927	0.1908
305.3046	0.1866
305.5164	0.1807
305.7283	0.1806
305.9401	0.1773
306.152	0.1781
306.3638	0.1802
306.5756	0.1835
306.7874	0.1766
306.9992	0.1724
307.2109	0.1779
307.4227	0.1657
307.6344	0.1734
307.8462	0.1648
308.0579	0.167
308.2696	0.1719
308.4813	0.1624
308.693	0.1636
308.9046	0.1709
309.1163	0.16
309.328	0.1614
309.5396	0.1494
309.7512	0.1542
309.9628	0.1562
310.1744	0.1494
310.386	0.1447
310.5976	0.1456
310.8091	0.1462
311.0207	0.148
311.2322	0.1402
311.4437	0.1381
311.6552	0.1422
311.8667	0.147
312.0782	0.1372
312.2897	0.1414
312.5012	0.1367
312.7126	0.1346
312.924	0.1314
313.1355	0.137
313.3469	0.1324
313.5583	0.1257
313.7696	0.1334
313.981	0.1342
314.1924	0.1289
314.4037	0.1286
314.6151	0.1344
314.8264	0.1279
315.0377	0.1267
315.249	0.1268
315.4603	0.1208
315.6716	0.1263
315.8828	0.1278
316.0941	0.1285
316.3053	0.1162
316.5165	0.1247
316.7277	0.1124
316.9389	0.1217
317.1501	0.1266
317.3613	0.1201
317.5724	0.1191
317.7836	0.1147
317.9947	0.1157
318.2058	0.1233
318.417	0.1191
318.6281	0.1155
318.8391	0.1217
319.0502	0.1208
319.2613	0.1166
319.4723	0.1195
319.6834	0.1121
319.8944	0.1195
320.1054	0.1181
320.3164	0.1139
320.5274	0.1096
320.7383	0.1226
320.9493	0.1225
321.1602	0.1155
321.3712	0.1172
321.5821	0.1175
321.793	0.1222
322.0039	0.1212
322.2148	0.1184
322.4257	0.1216
322.6365	0.1155
322.8474	0.1203
323.0582	0.1194
323.269	0.1223
323.4798	0.1211
323.6906	0.1182
323.9014	0.1139
324.1122	0.1174
324.3229	0.1233
324.5337	0.1259
324.7444	0.1211
324.9551	0.1204
325.1658	0.1185
325.3765	0.1272
325.5872	0.1221
325.7979	0.1231
326.0085	0.1216
326.2192	0.1208
326.4298	0.1198
326.6404	0.1272
326.851	0.126
327.0616	0.121
327.2722	0.1231
327.4828	0.1275
327.6933	0.1301
327.9039	0.122
328.1144	0.1251
328.3249	0.1239
328.5354	0.1286
328.7459	0.1243
328.9564	0.126
329.1669	0.1276
329.3773	0.1287
329.5878	0.1271
329.7982	0.1237
330.0086	0.1289
330.219	0.1261
330.4294	0.1271
330.6398	0.126
330.8502	0.1328
331.0605	0.1254
331.2708	0.1245
331.4812	0.1314
331.6915	0.127
331.9018	0.1328
332.1121	0.1308
332.3224	0.1268
332.5326	0.1249
332.7429	0.1259
332.9531	0.1272
333.1633	0.1302
333.3735	0.1272
333.5837	0.1245
333.7939	0.1359
334.0041	0.1347
334.2143	0.1325
334.4244	0.1381
334.6346	0.1317
334.8447	0.1311
335.0548	0.1397
335.2649	0.1328
335.475	0.1318
335.685	0.1338
335.8951	0.1316
336.1051	0.1398
336.3152	0.1349
336.5252	0.1301
336.7352	0.1321
336.9452	0.1373
337.1552	0.1365
337.3652	0.1309
337.5751	0.1352
337.7851	0.1356
337.995	0.1394
338.2049	0.1379
338.4148	0.134
338.6247	0.14
338.8346	0.1316
339.0445	0.137
339.2543	0.1388
339.4642	0.13
339.674	0.1336
339.8838	0.1393
340.0936	0.14
340.3034	0.136
340.5132	0.1354
340.7229	0.1382
340.9327	0.148
341.1424	0.144
341.3522	0.1351
341.5619	0.143
341.7716	0.1449
341.9813	0.1403
342.1909	0.1427
342.4006	0.1429
342.6102	0.1506
342.8199	0.1392
343.0295	0.1386
343.2391	0.1409
343.4487	0.15
343.6583	0.1502
343.8679	0.1452
344.0774	0.1467
344.287	0.1534
344.4965	0.1506
344.706	0.1525
344.9155	0.1457
345.125	0.1539
345.3345	0.161
345.544	0.1529
345.7534	0.1541
345.9629	0.1599
346.1723	0.1579
346.3817	0.1534
346.5911	0.1606
346.8005	0.1598
347.0099	0.161
347.2193	0.1667
347.4286	0.1664
347.638	0.1599
347.8473	0.1618
348.0566	0.1602
348.2659	0.162
348.4752	0.1655
348.6845	0.1641
348.8937	0.1544
349.103	0.1664
349.3122	0.168
349.5214	0.167
349.7306	0.1669
349.9398	0.1678
350.149	0.1661
350.3582	0.1692
350.5674	0.1696
350.7765	0.1727
350.9856	0.1703
351.1948	0.1679
351.4039	0.1766
351.613	0.1771
351.822	0.1794
352.0311	0.1738
352.2402	0.1753
352.4492	0.1768
352.6582	0.172
352.8672	0.1763
353.0762	0.1774
353.2852	0.1745
353.4942	0.1777
353.7032	0.1804
353.9121	0.1821
354.1211	0.1876
354.33	0.183
354.5389	0.1845
354.7478	0.1865
354.9567	0.1823
355.1655	0.1856
355.3744	0.1826
355.5833	0.1809
355.7921	0.1957
356.0009	0.1844
356.2097	0.1881
356.4185	0.1899
356.6273	0.1901
356.8361	0.1891
357.0448	0.1873
357.2536	0.1858
357.4623	0.1882
357.671	0.1884
357.8797	0.1971
358.0884	0.1945
358.2971	0.1907
358.5057	0.2014
358.7144	0.1994
358.923	0.1945
359.1316	0.1986
359.3402	0.1984
359.5488	0.1979
359.7574	0.2019
359.966	0.1968
360.1746	0.2027
360.3831	0.2097
360.5916	0.2021
360.8002	0.2147
361.0087	0.2039
361.2172	0.2153
361.4256	0.2076
361.6341	0.2158
361.8426	0.2081
362.051	0.215
362.2594	0.2119
362.4678	0.2171
362.6762	0.2197
362.8846	0.2186
363.093	0.2202
363.3014	0.2222
363.5097	0.2213
363.718	0.2248
363.9264	0.227
364.1347	0.2287
364.343	0.2299
364.5513	0.2259
364.7595	0.2334
364.9678	0.2183
365.176	0.2282
365.3842	0.2314
365.5925	0.2266
365.8007	0.2315
366.0089	0.2387
366.217	0.2362
366.4252	0.2316
366.6333	0.2387
366.8415	0.243
367.0496	0.2356
367.2577	0.2438
367.4658	0.2398
367.6739	0.2336
367.882	0.252
368.09	0.237
368.2981	0.2472
368.5061	0.2453
368.7141	0.2428
368.9221	0.2524
369.1301	0.2537
369.3381	0.2448
369.5461	0.2507
369.754	0.2529
369.962	0.2504
370.1699	0.2632
370.3778	0.262
370.5857	0.2531
370.7936	0.2627
371.0015	0.2557
371.2093	0.2527
371.4172	0.2571
371.625	0.2586
371.8328	0.2533
372.0406	0.2691
372.2484	0.2633
372.4562	0.2687
372.664	0.2603
372.8717	0.2647
373.0795	0.2782
373.2872	0.2639
373.4949	0.276
373.7026	0.2637
373.9103	0.2604
374.118	0.2734
374.3256	0.2713
374.5333	0.2746
374.7409	0.2752
374.9485	0.2744
375.1561	0.274
375.3637	0.2726
375.5713	0.2758
375.7789	0.2731
375.9864	0.2835
376.194	0.2809
376.4015	0.2675
376.609	0.2852
376.8165	0.2787
377.024	0.2762
377.2315	0.2858
377.4389	0.2785
377.6464	0.2932
377.8538	0.2846
378.0612	0.2858
378.2686	0.2899
378.476	0.2902
378.6834	0.2856
378.8908	0.2962
379.0981	0.2929
379.3055	0.2914
379.5128	0.2913
379.7201	0.298
379.9274	0.2918
380.1347	0.2933
380.342	0.3011
380.5492	0.3001
380.7565	0.2995
380.9637	0.2972
381.1709	0.2998
381.3781	0.3046
381.5853	0.3017
381.7925	0.2968
381.9997	0.3008
382.2068	0.2993
382.4139	0.3014
382.6211	0.3018
382.8282	0.3099
383.0353	0.307
383.2424	0.3057
383.4494	0.3031
383.6565	0.3039
383.8635	0.297
384.0706	0.316
384.2776	0.293
384.4846	0.3104
384.6916	0.3103
384.8986	0.3129
385.1055	0.3187
385.3125	0.309
385.5194	0.3157
385.7263	0.3023
385.9333	0.3119
386.1402	0.3066
386.347	0.3136
386.5539	0.3103
386.7608	0.308
386.9676	0.3064
387.1744	0.3042
387.3813	0.3073
387.5881	0.295
387.7948	0.3148
388.0016	0.324
388.2084	0.2979
388.4151	0.3119
388.6219	0.3018
388.8286	0.3075
389.0353	0.3079
389.242	0.3105
389.4487	0.3073
389.6553	0.2904
389.862	0.3027
390.0686	0.3073
390.2753	0.3009
390.4819	0.2957
390.6885	0.3042
390.8951	0.3114
391.1016	0.3032
391.3082	0.3017
391.5147	0.2971
391.7213	0.291
391.9278	0.2826
392.1343	0.2964
392.3408	0.2943
392.5473	0.2861
392.7537	0.2906
392.9602	0.2838
393.1666	0.2931
393.373	0.2801
393.5794	0.2802
393.7858	0.2807
393.9922	0.2877
394.1986	0.2831
394.4049	0.2881
394.6113	0.2859
394.8176	0.2903
395.0239	0.284
395.2302	0.2744
395.4365	0.2784
395.6428	0.2803
395.8491	0.2806
396.0553	0.2748
396.2615	0.2705
396.4678	0.2813
396.674	0.2659
396.8802	0.2693
397.0863	0.2642
397.2925	0.2748
397.4987	0.2722
397.7048	0.2702
397.9109	0.2616
398.117	0.2605
398.3231	0.2684
398.5292	0.2541
398.7353	0.2639
398.9413	0.2614
399.1474	0.2637
399.3534	0.264
399.5594	0.2688
399.7654	0.2633
399.9714	0.2672
400.1774	0.2584
400.3833	0.2598
400.5893	0.2608
400.7952	0.2621
401.0011	0.2677
401.207	0.265
401.4129	0.2599
401.6188	0.2624
401.8247	0.2764
402.0305	0.2625
402.2364	0.2612
402.4422	0.2676
402.648	0.2663
402.8538	0.2661
403.0596	0.2589
403.2654	0.2638
403.4711	0.2531
403.6768	0.2564
403.8826	0.2598
404.0883	0.2572
404.294	0.2719
404.4997	0.2653
404.7054	0.2719
404.911	0.2673
405.1167	0.2684
405.3223	0.2624
405.5279	0.2653
405.7335	0.2665
405.9391	0.2588
406.1447	0.2544
406.3502	0.2633
406.5558	0.2612
406.7613	0.2699
406.9668	0.2595
407.1724	0.2642
407.3778	0.2609
407.5833	0.2483
407.7888	0.2655
407.9942	0.2685
408.1997	0.2632
408.4051	0.2697
408.6105	0.2673
408.8159	0.2548
409.0213	0.2632
409.2267	0.2658
409.432	0.2561
409.6374	0.2591
409.8427	0.2709
410.048	0.2616
410.2533	0.2712
410.4586	0.2634
410.6639	0.2616
410.8691	0.255
411.0744	0.2492
411.2796	0.2611
411.4848	0.2704
411.69	0.2533
411.8952	0.2539
412.1004	0.2638
412.3056	0.251
412.5107	0.2549
412.7158	0.2745
412.921	0.266
413.1261	0.2539
413.3312	0.2585
413.5362	0.2703
413.7413	0.2606
413.9464	0.2548
414.1514	0.2561
414.3564	0.261
414.5614	0.2523
414.7664	0.256
414.9714	0.2529
415.1764	0.256
415.3813	0.2513
415.5863	0.2535
415.7912	0.2607
415.9961	0.2527
416.201	0.2651
416.4059	0.2524
416.6108	0.2496
416.8156	0.2583
417.0205	0.2617
417.2253	0.2529
417.4301	0.2665
417.6349	0.2513
417.8397	0.2475
418.0445	0.2522
418.2492	0.2479
418.454	0.2573
418.6587	0.2496
418.8634	0.2527
419.0681	0.2631
419.2728	0.2548
419.4775	0.2596
419.6822	0.2489
419.8868	0.2386
420.0915	0.2411
420.2961	0.241
420.5007	0.2546
420.7053	0.2438
420.9099	0.2459
421.1144	0.2387
421.319	0.2315
421.5235	0.2336
421.728	0.2473
421.9325	0.2396
422.137	0.2316
422.3415	0.2334
422.546	0.2316
422.7504	0.2435
422.9549	0.2426
423.1593	0.2287
423.3637	0.2357
423.5681	0.2392
423.7725	0.2297
423.9769	0.2364
424.1812	0.2235
424.3856	0.2305
424.5899	0.2187
424.7942	0.2278
424.9985	0.2272
425.2028	0.2351
425.4071	0.2314
425.6113	0.2359
425.8156	0.2205
426.0198	0.2296
426.224	0.231
426.4282	0.2198
426.6324	0.2209
426.8366	0.2074
427.0407	0.2115
427.2449	0.2141
427.449	0.2124
427.6531	0.2238
427.8572	0.2181
428.0613	0.2174
428.2654	0.2101
428.4694	0.1947
428.6735	0.1995
428.8775	0.1989
429.0815	0.198
429.2855	0.1994
429.4895	0.2018
429.6935	0.1989
429.8975	0.1889
430.1014	0.1982
430.3053	0.1941
430.5093	0.1902
430.7132	0.1895
430.9171	0.1942
431.1209	0.1916
431.3248	0.1798
431.5286	0.1832
431.7325	0.1852
431.9363	0.1832
432.1401	0.1767
432.3439	0.1821
432.5477	0.1699
432.7514	0.1699
432.9552	0.1784
433.1589	0.1675
433.3627	0.172
433.5664	0.1661
433.7701	0.1738
433.9737	0.1726
434.1774	0.1593
434.3811	0.1606
434.5847	0.1631
434.7883	0.1643
434.9919	0.1545
435.1955	0.1585
435.3991	0.1605
435.6027	0.1561
435.8062	0.1682
436.0098	0.1437
436.2133	0.1445
436.4168	0.1435
436.6203	0.1432
436.8238	0.1428
437.0272	0.1398
437.2307	0.1409
437.4341	0.1398
437.6375	0.1398
437.841	0.1346
438.0443	0.1347
438.2477	0.1288
438.4511	0.1148
438.6545	0.1217
438.8578	0.1325
439.0611	0.1336
439.2644	0.1312
439.4677	0.1211
439.671	0.1083
439.8743	0.1193
440.0775	0.1106
440.2808	0.11
440.484	0.1099
440.6872	0.1071
440.8904	0.1011
441.0936	0.1093
441.2967	0.0948
441.4999	0.0994
441.703	0.1012
441.9062	0.1018
442.1093	0.1038
442.3124	0.0969
442.5155	0.1008
442.7185	0.0901
442.9216	0.093
443.1246	0.0903
443.3276	0.091
443.5307	0.0797
443.7337	0.0953
443.9366	0.0808
444.1396	0.0814
444.3426	0.0794
444.5455	0.0817
444.7484	0.0838
444.9513	0.0752
445.1542	0.073
445.3571	0.0832
445.56	0.0774
445.7628	0.0716
445.9657	0.0798
446.1685	0.0757
446.3713	0.0741
446.5741	0.0729
446.7769	0.0712
446.9797	0.0665
447.1824	0.0642
447.3852	0.0571
447.5879	0.0547
447.7906	0.0559
447.9933	0.067
448.196	0.0594
448.3986	0.0636
448.6013	0.042
448.8039	0.0602
449.0066	0.0539
449.2092	0.0547
449.4118	0.056
449.6143	0.0508
449.8169	0.0462
450.0195	0.0532
450.222	0.0585
450.4245	0.054
450.627	0.0548
450.8295	0.0457
451.032	0.0469
451.2345	0.0411
451.4369	0.049
451.6394	0.0401
451.8418	0.0452
452.0442	0.0461
452.2466	0.0312
452.449	0.0493
452.6513	0.0443
452.8537	0.0209
453.056	0.0406
453.2583	0.0293
453.4607	0.0308
453.663	0.0334
453.8652	0.0289
454.0675	0.0439
454.2697	0.0267
454.472	0.0324
454.6742	0.0286
454.8764	0.0354
455.0786	0.0237
455.2808	0.0249
455.4829	0.0307
455.6851	0.0357
455.8872	0.0224
456.0893	0.0283
456.2915	0.022
456.4935	0.0349
456.6956	0.026
456.8977	0.0211
457.0997	0.0339
457.3018	0.017
457.5038	0.0295
457.7058	0.0274
457.9078	0.0199
458.1098	0.0342
458.3117	0.0301
458.5137	0.0123
458.7156	0.0233
458.9175	0.0185
459.1194	0.0234
459.3213	0.0199
459.5232	0.0269
459.725	0.0214
459.9269	0.0151
460.1287	0.0159
460.3305	0.0201
460.5323	0.0187
460.7341	0.0206
460.9359	0.0096
461.1376	0.0133
461.3394	0.0208
461.5411	0.0255
461.7428	0.0071
461.9445	0.0198
462.1462	0.0177
462.3479	0.0116
462.5495	0.0203
462.7512	0.0215
462.9528	0.019
463.1544	0.0027
463.356	0.0133
463.5576	0.0214
463.7592	0.012
463.9607	0.014
464.1623	0.0087
464.3638	0.0066
464.5653	0.0157
464.7668	0.0098
464.9683	0.01
465.1697	0.0149
465.3712	0.0058
465.5726	0.0184
465.7741	0.0241
465.9755	0.0162
466.1769	0.0079
466.3782	0.0103
466.5796	0.0185
466.7809	0.014
466.9823	0.0148
467.1836	0.0037
467.3849	0.0126
467.5862	0.0052
467.7875	0.0046
467.9887	0.0132
468.19	0.0109
468.3912	0.0194
468.5924	0.0128
468.7936	0.0097
468.9948	0.0049
469.196	0.0061
469.3972	-0.0014
469.5983	0.0086
469.7994	0.0101
470.0006	0.0122
470.2017	0.0084
470.4027	0.0237
470.6038	0.0112
470.8049	0.0113
471.0059	0.007
471.2069	0.0156
471.408	0.016
471.6089	0.0142
471.8099	0.0114
472.0109	0.0126
472.2119	0.0133
472.4128	0.0042
472.6137	0.0092
472.8146	0.0071
473.0155	0.0201
473.2164	0.0076
473.4173	0.0021
473.6181	0.0022
473.819	0.0096
474.0198	0.0026
474.2206	-0.0125
474.4214	0.0015
474.6222	0.0048
474.8229	0.0005
475.0237	0.011
475.2244	0.0136
475.4251	0.004
475.6258	0.0015
475.8265	0.0081
476.0272	-0.0081
476.2278	-0.0034
476.4285	0.0054
476.6291	0.0011
476.8297	0.002
477.0303	0.0024
477.2309	0.0048
477.4315	0.0071
477.632	-0.0007
477.8326	0.0037
478.0331	0.0078
478.2336	0.0066
478.4341	0.0071
478.6346	-0.0003
478.8351	0.0024
479.0355	0.0113
479.236	0.0161
479.4364	0.005
479.6368	0.0034
479.8372	0.0042
480.0376	0.0009
480.2379	0.0055
480.4383	0.0089
480.6386	0.0003
480.8389	0.0121
481.0392	0.0077
481.2395	0.0086
481.4398	0.0036
481.6401	0.0045
481.8403	0.0001
482.0405	0.0068
482.2408	0.0094
482.441	0.0066
482.6411	0.0055
482.8413	0.0016
483.0415	0.0062
483.2416	0.0065
483.4417	0.0044
483.6419	-0.0005
483.8419	0.0005
484.042	0.0002
484.2421	-0.0036
484.4422	0.0052
484.6422	0.0087
484.8422	0.0062
485.0422	0.0052
485.2422	0.0036
485.4422	0.0002
485.6422	0.0038
485.8421	0.0005
486.042	0.0109
486.242	-0.002
486.4419	0.0053
486.6417	0.0027
486.8416	0.0047
487.0415	0.0004
487.2413	-0.0034
487.4411	0.004
487.641	-0.0025
487.8408	0.0096
488.0405	0.0083
488.2403	-0.004
488.4401	0.001
488.6398	0.0087
488.8395	0.0008
489.0392	0.0108
489.2389	0.0065
489.4386	0.0084
489.6383	0.0093
489.8379	0.0006
490.0376	0.0055
490.2372	-0.0054
490.4368	0.0062
490.6364	-0.001
490.836	-0.0001
491.0355	0.0041
491.2351	0.0058
491.4346	0.0054
491.6341	-0.0021
491.8336	0.0043
492.0331	0.004
492.2326	0.0068
492.432	0.0102
492.6315	0.0103
492.8309	-0.0006
493.0303	0.0003
493.2297	0.0034
493.4291	0.0036
493.6284	0.0152
493.8278	0.0001
494.0271	0.0047
494.2264	0.003
494.4257	0.005
494.625	0.0012
494.8243	0.0031
495.0236	0.0085
495.2228	0.0079
495.422	0.003
495.6213	-0.0002
495.8205	0.0013
496.0196	0.0015
496.2188	0.004
496.418	0.0051
496.6171	-0.0034
496.8162	0.0037
497.0153	0.0133
497.2144	0.0028
497.4135	0.0034
497.6126	0.0058
497.8116	0.0025
498.0107	-0.0083
498.2097	0.0058
498.4087	-0.0009
498.6077	-0.0089
498.8067	0.0089
499.0056	-0.0012
499.2046	0.0067
499.4035	0.0086
499.6024	-0.0021
499.8013	0.0091
500.0002	0.009
500.199	0.0093
500.3979	0.0005
500.5967	0.002
500.7956	0.0098
500.9944	0.003
501.1932	0.0125
501.3919	0.0089
501.5907	0.0099
501.7895	0.0066
501.9882	0.0063
502.1869	0.0109
502.3856	-0.0001
502.5843	0.0029
502.783	0.0007
502.9816	0.0017
503.1803	0.0031
503.3789	0.009
503.5775	0.0025
503.7761	0.0064
503.9747	0.0053
504.1732	-0.0072
504.3718	0.0088
504.5703	0.0057
504.7689	-0.0032
504.9674	0.0054
505.1658	-0.0016
505.3643	0.0085
505.5628	0.0107
505.7612	-0.0023
505.9597	-0.0036
506.1581	-0.0036
506.3565	0.0033
506.5549	-0.0033
506.7532	0.0029
506.9516	0.0101
507.1499	0.0005
507.3482	0.0035
507.5465	0.0122
507.7448	0.0029
507.9431	0.0086
508.1414	0.0014
508.3396	0.0012
508.5379	0.0051
508.7361	0.0062
508.9343	-0.0003
509.1325	0.0104
509.3306	0.0079
509.5288	-0.0078
509.7269	0.0025
509.9251	0.0052
510.1232	0.0047
510.3213	0.0099
510.5193	0.0025
510.7174	0.0014
510.9154	0.0026
511.1135	0.0102
511.3115	-0.0037
511.5095	-0.001
511.7075	0.0041
511.9055	-0.0036
512.1034	0.0063
512.3014	-0.0035
512.4993	0.0065
512.6972	0.0027
512.8951	0.0007
513.093	0.0065
513.2908	0.0142
513.4887	0.0035
513.6865	0.0013
513.8844	0.0091
514.0822	0.0047
514.2799	-0.0016
514.4777	-0.003
514.6755	0.008
514.8732	-0.0039
515.0709	0.0094
515.2687	0.0023
515.4664	0.0154
515.664	0.0139
515.8617	0.0068
516.0594	0.0052
516.257	0.0032
516.4546	0.0144
516.6522	0.0036
516.8498	0.0034
517.0474	0.0116
517.2449	-0.0023
517.4425	0.012
517.64	-0.0013
517.8375	0.0051
518.035	-0.0012
518.2325	0.0051
518.43	0
518.6274	0.0048
518.8249	-0.0055
519.0223	0.0143
519.2197	-0.0006
519.4171	0.0078
519.6145	0.0026
519.8118	-0.0093
520.0092	-0.0008
520.2065	0.0095
520.4038	0.0088
520.6011	0.007
520.7984	0.0111
520.9956	-0.0042
521.1929	0.0072
521.3901	0.0105
521.5874	0.0114
521.7846	-0.0013
521.9818	-0.002
522.1789	0.0026
522.3761	0.018
522.5732	-0.0032
522.7704	-0.0015
522.9675	-0.0086
523.1646	0.0064
523.3617	0.0087
523.5587	-0.003
523.7558	0.0002
523.9528	0.009
524.1498	0.0063
524.3468	-0.0008
524.5438	0.009
524.7408	0.0028
524.9378	0.0103
525.1347	0.0119
525.3316	0.0005
525.5285	0.0038
525.7254	0.0078
525.9223	0.0066
526.1192	0.0041
526.316	0.0059
526.5129	-0.0006
526.7097	-0.0033
526.9065	0.0058
527.1033	-0.0009
527.3	0.0031
527.4968	0.0046
527.6935	0.0006
527.8903	0.0063
528.087	-0.001
528.2837	0.0081
528.4804	-0.0017
528.677	0.0049
528.8737	0.0044
529.0703	0.0015
529.2669	0.018
529.4635	0.0027
529.6601	-0.0012
529.8567	-0.0062
530.0532	-0.0035
530.2498	-0.0062
530.4463	-0.0129
530.6428	0.0063
530.8393	0.0109
531.0358	-0.0021
531.2322	-0.0054
531.4287	0.0054
531.6251	-0.0121
531.8215	0.0123
532.0179	0.0211
532.2143	0.0031
532.4107	0.012
532.607	0.0072
532.8034	-0.0052
532.9997	-0.0069
533.196	0.005
533.3923	0.0111
533.5886	0.0151
533.7848	0.0002
533.9811	0.0032
534.1773	-0.0018
534.3735	0.0113
534.5697	-0.0015
534.7659	0.0014
534.9621	0.005
535.1582	0.0026
535.3544	0.0082
535.5505	0.0151
535.7466	0
535.9427	0.0071
536.1387	-0.0072
536.3348	0.0068
536.5308	0.0055
536.7269	-0.0039
536.9229	0.004
537.1189	0.0045
537.3148	0.0034
537.5108	0.0073
537.7068	0.0124
537.9027	-0.0072
538.0986	0.0134
538.2945	-0.0079
538.4904	-0.0016
538.6863	-0.0033
538.8821	0.0065
539.078	-0.0067
539.2738	0.0018
539.4696	0
539.6654	-0.0023
539.8611	-0.0045
540.0569	0.0051
540.2526	0.002
540.4484	-0.006
540.6441	0.0054
540.8398	0.0122
541.0355	-0.0027
541.2311	-0.0031
541.4268	0.0088
541.6224	0.0096
541.818	0.0123
542.0136	0.0074
542.2092	0.0035
542.4048	-0.0008
542.6003	-0.0017
542.7959	-0
542.9914	0.0046
543.1869	-0.0017
543.3824	0.0052
543.5779	0.0105
543.7734	0.0145
543.9688	0.0102
544.1642	0.0002
544.3596	-0.0006
544.555	0.0023
544.7504	-0.0006
544.9458	-0.0007
545.1411	0.0045
545.3365	0.002
545.5318	0.0099
545.7271	0.0038
545.9224	0.0045
546.1177	0.0035
546.3129	0.0037
546.5081	-0.008
546.7034	-0.0002
546.8986	0.001
547.0938	0.0026
547.289	0.0074
547.4841	0.0116
547.6793	0.0046
547.8744	0.0103
548.0695	0.0023
548.2646	0.0061
548.4597	0.0006
548.6548	0.0211
548.8498	0.0067
549.0448	0.0014
549.2399	0.009
549.4349	0.011
549.6298	0.0128
549.8248	0.0056
550.0198	0.0023
550.2147	0.0063
550.4096	0.005
550.6045	0.013
550.7994	0.0107
550.9943	0.0153
551.1892	-0.0117
551.384	0.0151
551.5788	0.0028
551.7737	0.0094
551.9685	0.0068
552.1632	-0.0085
552.358	0.0053
552.5528	0.0042
552.7475	0.0095
552.9422	0.0032
553.1369	0.0089
553.3316	0.0014
553.5263	0.0095
553.7209	0.0003
553.9156	0.005
554.1102	0.0132
554.3048	0.0008
554.4994	-0.0024
554.694	0.0045
554.8885	0.0038
555.0831	0.0095
555.2776	0.0072
555.4721	0.0043
555.6666	0.0045
555.8611	0.0055
556.0555	0.0062
556.25	0.0013
556.4444	-0.0054
556.6388	-0.0092
556.8332	0.0058
557.0276	0.0042
557.222	-0.0086
557.4163	0.0111
557.6107	0.0139
557.805	-0.0094
557.9993	0.0083
558.1936	-0.0065
558.3879	0.0109
558.5821	0.0005
558.7764	0.0024
558.9706	-0.0061
559.1648	0.0076
559.359	-0.0126
559.5532	-0.0034
559.7473	-0.0097
559.9415	0.0062
560.1356	0.0128
560.3297	-0.0015
560.5238	0.01
560.7179	-0.0052
560.9119	0.001
561.106	-0.0051
561.3	0.0048
561.494	0
561.688	0.0068
561.882	0.0023
562.076	-0.0084
562.2699	0.007
562.4639	0.0135
562.6578	0.0133
562.8517	0.0041
563.0456	0.0109
563.2395	0.0058
563.4333	0.0091
563.6272	-0.0061
563.821	0.0046
564.0148	0.001
564.2086	-0.0055
564.4024	0.015
564.5961	0.0116
564.7899	0.0101
564.9836	-0.0005
565.1773	0.0233
565.371	0.0012
565.5647	0.0039
565.7584	0.0163
565.952	0.0016
566.1456	0.0039
566.3393	0.0058
566.5329	-0.0011
566.7264	-0.0002
566.92	-0.0005
567.1136	-0.0032
567.3071	-0.0075
567.5006	0.0048
567.6941	-0.0047
567.8876	0.0012
568.0811	0.0101
568.2745	0.0067
568.468	-0.0002
568.6614	0.005
568.8548	0.0043
569.0482	0.0044
569.2416	0.0022
569.4349	0.003
569.6283	-0.0004
569.8216	0.0029
570.0149	-0.0012
570.2082	0.0068
570.4015	0.0014
570.5947	-0.0013
570.788	0.0057
570.9812	0.001
571.1744	0.0071
571.3676	0.0028
571.5608	-0.002
571.754	0.01
571.9471	0.0057
572.1402	0.0042
572.3333	0.0057
572.5264	0.0079
572.7195	0.0041
572.9126	0.0038
573.1057	0.0023
573.2987	-0.0004
573.4917	0.0032
573.6847	0.0004
573.8777	0.0031
574.0707	0.0028
574.2636	0.0048
574.4566	0.0064
574.6495	0.0013
574.8424	0.0023
575.0353	0.0061
575.2281	0.0065
575.421	-0.0009
575.6138	0.0012
575.8067	0.0067
575.9995	-0
576.1923	0.0026
576.385	0.0063
576.5778	0.0057
576.7706	0.0055
576.9633	0.0052
577.156	-0.0018
577.3487	0.0004
577.5414	-0.0016
577.734	0.0017
577.9267	0.0057
578.1193	0.0061
578.3119	-0.0039
578.5045	0.0008
578.6971	0.0005
578.8897	0.0002
579.0822	0.0037
579.2747	0.0026
579.4673	0.0032
579.6598	0.0051
579.8522	0.0042
580.0447	0.0072
580.2372	0.0056
580.4296	0.0042
580.622	-0.0007
580.8144	0.0033
581.0068	0.005
581.1992	0.0006
581.3915	0.0001
581.5839	0.0006
581.7762	-0.001
581.9685	0.0029
582.1608	0.0022
582.353	0.0044
582.5453	0.0027
582.7375	0.0001
582.9298	-0.003
583.122	-0.0021
583.3142	0.0056
583.5063	0.0043
583.6985	-0.0016
583.8906	-0.0021
584.0827	0.0057
584.2749	0.0001
584.4669	0.0032
584.659	0.0054
584.8511	0.0067
585.0431	0.005
585.2352	0.0034
585.4272	0.0066
585.6192	0.0023
585.8111	0.0023
586.0031	-0.004
586.195	0.0002
586.387	-0.0014
586.5789	0.0054
586.7708	0.0057
586.9627	0.0033
587.1545	-0.0009
587.3464	0
587.5382	0.0007
587.73	0.0073
587.9218	0.0016
588.1136	-0.0003
588.3053	0.0048
588.4971	-0.0017
588.6888	0.0003
588.8805	0.0021
589.0722	0.004
589.2639	-0.0018
589.4556	0.0065
589.6472	0.0091
589.8389	0.0056
590.0305	-0.0031
590.2221	0.003
590.4137	0.0053
590.6052	0.0021
590.7968	0.0046
590.9883	0.0029
591.1798	0.0053
591.3713	0.0059
591.5628	0.0005
591.7543	-0.0007
591.9458	-0.0002
592.1372	0.003
592.3286	-0.0006
592.52	0.0033
592.7114	0.0036
592.9028	0.0078
593.0941	0.0003
593.2855	0.0024
593.4768	0.0065
593.6681	0.0026
593.8594	0.0047
594.0506	-0.0033
594.2419	-0.0021
594.4331	0.0044
594.6244	-0.0025
594.8156	0.0051
595.0067	-0.0012
595.1979	-0.0034
595.3891	0.0045
595.5802	0.0112
595.7713	0.0076
595.9624	0.0072
596.1535	0.0004
596.3446	-0.0001
596.5357	0.0034
596.7267	0.0032
596.9177	0.0044
597.1087	-0.0003
597.2997	0.0025
597.4907	-0.0013
597.6817	0.0043
597.8726	0.0042
598.0635	-0.0006
598.2544	0.0059
598.4453	0.0036
598.6362	0.0014
598.827	-0.0003
599.0179	0.0048
599.2087	0.009
599.3995	0.0029
599.5903	0.0065
599.7811	0.0081
599.9718	-0.0008
600.1626	0.0004
600.3533	0.0029
600.544	0.0049
600.7347	0.0001
600.9254	0.0103
601.116	0.0055
601.3067	0.0025
601.4973	0.0069
601.6879	-0.0032
601.8785	0.0049
602.0691	0.002
602.2596	0.0031
602.4502	0.003
602.6407	0.0038
602.8312	0.0065
603.0217	0.006
603.2122	0.0052
603.4027	0.0034
603.5931	0.0021
603.7835	0.0033
603.9739	0.0006
604.1643	0.0085
604.3547	0.0078
604.5451	0.0058
604.7354	0.0006
604.9257	0.0009
605.116	-0.001
605.3063	0.0006
605.4966	0.0027
605.6869	0.0041
605.8771	0.0045
606.0673	0
606.2575	0.0018
606.4477	0.0149
606.6379	-0.0029
606.8281	0.0023
607.0182	0.0034
607.2083	0.0044
607.3985	0.0028
607.5885	-0.0016
607.7786	0.0047
607.9687	0.0038
608.1587	0.0038
608.3488	0.0041
608.5388	-0.0045
608.7288	0.0013
608.9187	0.0023
609.1087	0.0065
609.2986	0.0051
609.4886	-0.0038
609.6785	0.0091
609.8684	-0.0046
610.0582	-0.0014
610.2481	0.003
610.4379	-0.0003
610.6278	0.006
610.8176	0.0042
611.0074	0.0098
611.1971	0.0038
611.3869	0.0001
611.5766	-0.0092
611.7664	0.0092
611.9561	0.007
612.1458	0.0048
612.3354	0.0043
612.5251	-0.0001
612.7147	0.0047
612.9044	-0.0034
613.094	0.0084
613.2836	-0
613.4731	0.005
613.6627	0.0107
613.8522	0.0025
614.0417	0.0054
614.2313	0.0095
614.4207	0.0039
614.6102	0.0043
614.7997	0.0006
614.9891	0.0056
615.1785	-0.0001
615.3679	0.0028
615.5573	0.0023
615.7467	-0.0006
615.9361	0.0018
616.1254	0.0083
616.3147	0.0033
616.504	0.0012
616.6933	-0.0004
616.8826	-0.0018
617.0718	0.0092
617.2611	-0.0033
617.4503	-0.0007
617.6395	0.0037
617.8287	0.0016
618.0179	0.0025
618.207	0.0098
618.3961	-0.0036
618.5853	0.0058
618.7744	0.0041
618.9634	-0.0008
619.1525	-0.0015
619.3416	0.0031
619.5306	0.0134
619.7196	0.0083
619.9086	0.0071
620.0976	-0.0091
620.2866	0.0063
620.4755	-0.006
620.6645	0.0132
620.8534	0.0025
621.0423	0.0087
621.2312	0.0024
621.42	0.0031
621.6089	-0.0024
621.7977	0.0057
621.9865	0.0054
622.1753	-0.007
622.3641	-0.0039
622.5529	-0.004
622.7416	-0.002
622.9303	0.0051
623.1191	0.0019
623.3078	0.0067
623.4964	-0.0009
623.6851	0.0007
623.8737	-0.0033
624.0624	-0.0091
624.251	-0.0021
624.4396	0.0097
624.6282	0.0037
624.8167	-0.0044
625.0053	-0.0012
625.1938	-0.0041
625.3823	0.002
625.5708	-0.0004
625.7593	-0.0021
625.9477	0.0049
626.1362	-0.0043
626.3246	-0.0009
626.513	0.0118
626.7014	0.0062
626.8898	0.014
627.0781	0.0086
627.2665	0.0081
627.4548	-0.0124
627.6431	0.0103
627.8314	0.0126
628.0197	0.0044
628.2079	-0.002
628.3962	0.0134
628.5844	0.0098
628.7726	0.0025
628.9608	0.0082
629.1489	0.0083
629.3371	-0.0113
629.5252	0.0057
629.7134	-0.0001
629.9015	0.0151
630.0895	-0.0038
630.2776	0.0022
630.4657	0.0107
630.6537	0.0105
630.8417	-0.0154
631.0297	0.009
631.2177	-0.0113
631.4057	0.021
631.5936	-0.0025
631.7815	0.0045
631.9695	0.0209
632.1574	0.0012
632.3452	0.004
632.5331	0.0012
632.7209	0.0095
632.9088	0.0034
633.0966	0.0181
633.2844	0.0024
633.4722	0.0068
633.6599	0.0149
633.8477	0.0077
634.0354	0.0115
634.2231	-0.0026
634.4108	-0.0041
634.5985	-0.0019
634.7861	-0.0018
634.9738	-0.0186
635.1614	-0.0019
635.349	-0.0073
635.5366	0.0027
635.7242	0.0047
635.9117	0.0016
636.0993	0.0171
636.2868	-0.0101
636.4743	0.0017
636.6618	0.0004
636.8492	0.0068
637.0367	-0.0149
637.2241	0.0043
637.4115	0.0136
637.5989	0.0104
637.7863	0.0212
637.9737	0.0018
638.161	-0.0046
638.3484	-0.007
638.5357	-0.0007
638.723	0.0097
638.9103	-0.0179
639.0975	0.0132
639.2848	0.0053
639.472	0.0187
639.6592	-0.0156
639.8464	0.0081
640.0336	0.0055
640.2208	-0.0032
640.4079	-0.0173
640.595	-0.0038
640.7821	0.0201
640.9692	-0.0052
641.1563	0.0107
641.3434	0.0086
641.5304	0.0028
641.7174	0.0168
641.9044	0.004
642.0914	0.04
642.2784	0.0028
642.4653	-0.0193
642.6523	0.0076
642.8392	0.018
643.0261	0.0193
643.213	0.0001
643.3999	0.0118
643.5867	0.0102
643.7735	0.0006
643.9604	0.0126
644.1472	0.0036
644.3339	-0.0065
644.5207	0.0048
644.7075	-0.0098
644.8942	-0.0073
645.0809	0.0106
645.2676	-0.0052
645.4543	0.0084
645.6409	0.0188
645.8276	0.0127
646.0142	0.0089
646.2008	0.0143
646.3874	0.0154
646.574	0.0088
646.7605	0.0036
646.9471	0.0004
647.1336	-0.0105
647.3201	-0.0006
647.5066	0.0097
647.6931	0.0083
647.8795	0.0037
648.0659	0.0001
648.2524	0.0065
648.4388	0.0063
648.6252	0.0142
648.8115	-0.0012
648.9979	0.0155
649.1842	0.0037
649.3705	0.0103
649.5568	-0.0144
649.7431	-0.0039
649.9294	0.0126
650.1156	-0.0163
650.3018	0.0109
650.488	-0.014
650.6742	0.0266
650.8604	0.0132
651.0466	-0.0076
651.2327	-0.0066
651.4188	-0.0021
651.6049	0.004
651.791	0.0218
651.9771	-0.0017
652.1632	0.011
652.3492	0.0088
652.5352	0.0168
652.7212	0.0005
652.9072	0.005
653.0932	0.0054
653.2791	0.011
653.465	-0.0049
653.651	0.0034
653.8369	-0.0038
654.0227	-0.0087
654.2086	0.0134
654.3944	0.0043
654.5803	0.004
654.7661	0.0002
654.9519	-0.0034
655.1377	0.0001
655.3234	0.0001
655.5092	0.0001
655.6949	0.0001
655.8806	0.0001
656.0663	0.0001
656.2519	0.0001
656.4376	0.0001
656.6232	0.0001
656.8088	0.0001
656.9945	0.0001
657.18	0.0001
657.3656	0.0001
657.5511	0.0001
657.7367	0.0001
657.9222	0.0001
658.1077	0.0001
658.2932	0.0001
658.4786	0.0001
658.6641	0.0001
658.8495	0.0001
659.0349	0.0001
659.2203	0.0001
659.4057	0.0001
659.591	0.0642
659.7764	0.0285
659.9617	0.0019
660.147	-0.0028
660.3323	0.0098
660.5176	0.0125
660.7028	-0.0077
660.888	0.0015
661.0733	0.008
661.2585	0.0104
661.4436	0.0001
661.6288	0.0135
661.8139	-0.0031
661.9991	-0.0095
662.1842	-0.0069
662.3693	0.007
662.5544	0.0155
662.7394	0.0173
662.9245	-0.0031
663.1095	-0.0152
663.2945	-0.0032
663.4795	0.0021
663.6644	-0.0098
663.8494	0.0064
664.0343	0.0229
664.2193	-0.0077
664.4042	0.0137
664.589	0.0182
664.7739	-0.0095
664.9587	-0.0125
665.1436	0.0004
665.3284	-0.0036
665.5132	-0.006
665.698	0.0007
665.8827	0.0136
666.0675	-0.0076
666.2522	0.0189
666.4369	-0.0034
666.6216	0.0122
666.8063	0.0091
666.9909	0.0049
667.1756	-0.0198
667.3602	0.0085
667.5448	0.0061
667.7294	0.0218
667.9139	0.0118
668.0985	0.0242
668.283	-0.0135
668.4675	0.0052
668.652	0.0166
668.8365	0.0065
669.0209	0.0203
669.2054	0.0034
669.3898	0.0098
669.5742	0.0202
669.7586	0.0123
669.943	0.0011
670.1273	-0.0014
670.3117	0.0002
670.496	-0.0001
670.6803	0.0005
670.8646	-0.0053
671.0488	0.0132
671.2331	-0.0012
671.4173	0.0028
671.6015	-0.0004
671.7857	0.0093
671.9699	0.0244
672.1541	-0.003
672.3382	0.0025
672.5223	-0.0114
672.7064	-0.0003
672.8905	0.0034
673.0746	-0.0021
673.2587	0.0156
673.4427	0.0066
673.6267	0.0083
673.8107	0.0186
673.9947	0.031
674.1787	0.0044
674.3626	0.0126
674.5465	0.0253
674.7304	-0.0053
674.9143	-0.0115
675.0982	0.0133
675.2821	0.0048
675.4659	-0.0026
675.6497	0.0126
675.8335	0.0092
676.0173	-0.0125
676.2011	0.0116
676.3849	0.0034
676.5686	0.013
676.7523	-0.0015
676.936	0.0134
677.1197	0.0093
677.3034	0.0226
677.487	0.0129
677.6706	0.0105
677.8542	-0.0151
678.0378	-0.009
678.2214	0.0018
678.405	0.0083
678.5885	0.0087
678.772	-0.0025
678.9555	-0.0046
679.139	0.0191
679.3225	-0.0048
679.5059	0.0049
679.6894	0.0022
679.8728	-0.0066
680.0562	0.0096
680.2395	-0.0099
680.4229	0.012
680.6062	0.0034
680.7896	-0.0071
680.9729	0.0044
681.1562	-0.0065
681.3394	0.0134
681.5227	0.0089
681.7059	0.0168
681.8891	-0.0062
682.0723	0.0055
682.2555	-0.0004
682.4387	0.0057
682.6218	-0.0017
682.805	0.0106
682.9881	0.0219
683.1712	0.0092
683.3542	0.0244
683.5373	0.0013
683.7203	-0.0008
683.9034	-0.0121
684.0864	0.0039
684.2694	0.0144
684.4523	0.0111
684.6353	-0.0121
684.8182	-0.006
685.0011	0.0009
685.184	0.0004
685.3669	0.0167
685.5498	0.0014
685.7326	-0.0136
685.9154	-0.0013
686.0982	0.0106
686.281	-0.0096
686.4638	0.006
686.6465	-0.007
686.8293	-0.0051
687.012	0.0048
687.1947	0.0164
687.3774	0.0075
687.56	0.0077
687.7427	-0.0108
687.9253	-0.0051
688.1079	0.0158
688.2905	-0.0058
688.4731	0.0219
688.6556	0.0104
688.8382	-0.0161
689.0207	0.0168
689.2032	0.0041
689.3857	-0.02
689.5681	0.0088
689.7506	0.0258
689.933	-0.0117
690.1154	0.0117
690.2978	-0.0048
690.4802	0.0364
690.6626	-0.0044
690.8449	-0.0088
691.0272	0.0107
691.2095	-0.022
691.3918	0.0152
691.5741	0.015
691.7563	0.005
691.9386	0.0076
692.1208	0.0001
692.303	-0.0016
692.4852	0.0218
692.6673	0.006
692.8495	0.0128
693.0316	0.0035
693.2137	0.0105
693.3958	0.0151
693.5778	-0.006
693.7599	-0.0102
693.9419	0.003
694.1239	-0.0126
694.3059	0.0139
694.4879	-0.0073
694.6699	0.0022
694.8518	0.011
695.0337	0.0325
695.2157	0.0232
695.3975	-0.0204
695.5794	0.0017
695.7613	-0.0006
695.9431	0.0002
696.1249	0.0187
696.3067	0.0067
696.4885	0.0084
696.6703	-0.0015
696.852	-0.0128
697.0337	0.0101
697.2154	0.0049
697.3971	0.0082
697.5788	0.0193
697.7605	-0.0075
697.9421	0.0041
698.1237	0.0173
698.3053	-0.0049
698.4869	0.0004
698.6685	0.0044
698.85	0.001
699.0315	-0.0048
699.213	0.0079
699.3945	-0.0082
699.576	0.007
699.7575	0.0218
699.9389	-0.0177
700.1203	0.0095
700.3017	0.0203
700.4831	0.0395
700.6645	0.0366
700.8458	-0.0172
701.0271	0.023
701.2084	0.021
701.3897	0.0181
701.571	-0.0208
701.7523	0.0171
701.9335	0.0033
702.1147	0.0265
702.2959	-0.0017
702.4771	0.005
702.6583	0.0265
702.8394	-0.0001
703.0205	0.0002
703.2016	-0.0105
703.3827	-0.0009
703.5638	0.0029
703.7449	0.0117
703.9259	0.013
704.1069	-0.0151
704.2879	0.0046
704.4689	0.021
704.6499	0.0398
704.8308	0.0049
705.0117	-0.0083
705.1927	0.0514
705.3735	0.0368
705.5544	0.013
705.7353	0.0195
705.9161	-0.0202
706.0969	0.011
706.2777	0.016
706.4585	-0.0109
706.6393	0.0008
706.82	0.0185
707.0007	0.0012
707.1815	-0.0085
707.3621	0.0189
707.5428	0.0129
707.7235	-0.0118
707.9041	0.0103
708.0847	-0.0014
708.2653	0.015
708.4459	0.0116
708.6265	-0.0018
708.807	-0.0019
708.9875	-0.0142
709.168	0.0168
709.3485	0.0155
709.529	-0.0103
709.7095	-0.0046
709.8899	0.0074
710.0703	0.0134
710.2507	-0.0014
710.4311	-0.0223
710.6115	0.0414
710.7918	0.0122
710.9721	-0.0036
711.1524	-0.0122
711.3327	0.0171
711.513	0.0198
711.6932	-0.0048
711.8735	0.0087
712.0537	-0.0042
712.2339	0.026
712.4141	0.0055
712.5942	-0.0052
712.7744	0.0208
712.9545	0.0135
713.1346	0.0167
713.3147	0.0194
713.4947	-0.0083
713.6748	-0.0001
713.8548	0.0194
714.0348	0.0085
714.2148	0.0126
714.3948	0.0121
714.5748	0.0113
714.7547	0.0175
714.9346	0.0214
715.1145	0.0089
715.2944	-0.0197
715.4743	0.0244
715.6541	-0.0178
715.834	0.0262
716.0138	0.0109
716.1936	-0.0117
716.3733	-0.0047
716.5531	0.0096
716.7328	0.0314
716.9126	0.0023
717.0923	-0.0098
717.2719	0.0202
717.4516	0.0102
717.6312	-0.0293
717.8109	0.0363
717.9905	0.0272
718.1701	0.0121
718.3496	0.0014
718.5292	0.0323
718.7087	0.0059
718.8882	0.0125
719.0677	0.002
719.2472	0.0209
719.4267	0.0036
719.6061	-0.0166
719.7856	0.0382
719.965	0.0075
720.1443	-0.0163
720.3237	-0.0049
720.5031	0.0221
720.6824	0.011
720.8617	0.0051
721.041	0.0062
721.2203	-0.0062
721.3995	-0.0089
721.5788	-0.0095
721.758	0.0048
721.9372	0.0264
722.1164	-0.0049
722.2956	-0.0224
722.4747	0.0255
722.6538	-0.0128
722.8329	0.0063
723.012	-0.0023
723.1911	0.0028
723.3702	0.029
723.5492	-0.0082
723.7282	-0.0053
723.9072	0.0075
724.0862	0.0075
724.2652	0.0213
724.4441	0.0019
724.623	-0.0028
724.8019	0.0324
724.9808	0.0176
725.1597	0.0095
725.3385	-0.0018
725.5174	0.0178
725.6962	-0.0018
725.875	0.0102
726.0538	0.0244
726.2325	0.0237
726.4112	-0.0195
726.59	0.0022
726.7687	0.0154
726.9474	0.0197
727.126	0.0192
727.3047	-0.0202
727.4833	0.0167
727.6619	-0.0076
727.8405	0.0043
728.0191	0.0381
728.1976	0.0146
728.3762	0.0111
728.5547	-0.013
728.7332	0.0135
728.9116	0.03
729.0901	0.0014
729.2686	0.0169
729.447	0.0015
729.6254	0.0241
729.8038	0.0113
729.9821	-0.0284
730.1605	-0.0077
730.3388	-0.0043
730.5171	0.0026
730.6954	-0.0018
730.8737	0.0021
731.0519	-0.0047
731.2302	0.0181
731.4084	-0.0007
731.5866	-0.0027
731.7648	-0.0093
731.9429	0.0213
732.1211	0.0094
732.2992	-0.0064
732.4773	0.0137
732.6554	-0.0118
732.8335	0.024
733.0115	0.0184
733.1896	-0.0038
733.3676	0.0082
733.5456	-0.0033
733.7235	-0.0025
733.9015	0.0113
734.0794	0.0073
734.2574	-0.0046
734.4353	0.0223
734.6131	0.0078
734.791	-0.0043
734.9689	-0.0066
735.1467	-0.0185
735.3245	0.0177
735.5023	0.0156
735.68	0.0126
735.8578	0.0086
736.0355	0.0055
736.2132	0.0049
736.3909	0.0101
736.5686	-0.0055
736.7463	-0.0243
736.9239	0.0125
737.1015	-0.0066
737.2791	0.0088
737.4567	0.013
737.6343	-0.0145
737.8118	0.0044
737.9894	-0.0153
738.1669	0.0029
738.3444	0.0277
738.5218	-0.0222
738.6993	0.015
738.8767	-0.0009
739.0541	-0.0065
739.2315	-0.0075
739.4089	0.0118
739.5863	0.0063
739.7636	-0.006
739.9409	-0.0297
740.1182	-0.0051
740.2955	-0.0017
740.4728	0.009
740.65	-0.0167
740.8272	0.0469
741.0044	0.004
741.1816	0.0151
741.3588	-0.0234
741.5359	-0.0221
741.7131	0.0304
741.8902	0.0456
742.0673	0.0107
742.2444	0.0367
742.4214	0.0231
742.5985	-0.001
742.7755	0.0046
742.9525	-0.0308
743.1295	-0.0213
743.3064	-0.0074
743.4834	0.0201
743.6603	0.0655
743.8372	-0.0638
744.0141	0.0448
744.191	0.0031
744.3678	-0.0372
744.5446	0.0215
744.7215	0.0212
744.8982	0.0387
745.075	0.0581
745.2518	-0.0015
745.4285	0.0168
745.6052	0.0027
745.7819	0.0088
745.9586	-0.0122
746.1353	0.0164
746.3119	-0.0235
746.4885	0.0144
746.6651	-0.0129
746.8417	-0.0231
747.0183	0.0369
747.1948	0.0094
747.3714	0.0289
747.5479	0.0344
747.7244	0.0072
747.9008	-0.0019
748.0773	0.0249
748.2537	0.0348
748.4301	-0.0031
748.6065	0.0126
748.7829	-0.0269
748.9593	-0.0085
749.1356	-0.0157
749.3119	0.0082
749.4882	0.0163
749.6645	0.0029
749.8408	0.0207
750.017	0.0237
750.1933	-0.0245
750.3695	0.0278
750.5457	-0.02
750.7218	0.0002
750.898	-0.024
751.0741	-0.0033
751.2502	0.0054
751.4263	0.011
751.6024	0.0087
751.7784	0.0037
751.9545	0.0035
752.1305	0.0288
752.3065	0.0081
752.4825	0.0279
752.6584	0.0194
752.8344	-0.0096
753.0103	-0.0267
753.1862	-0.0008
753.3621	-0.0203
753.5379	-0.0048
753.7138	0.0067
753.8896	0.0059
754.0654	-0.0096
754.2412	0.0086
754.417	0.0169
754.5927	0.0176
754.7685	0.0088
754.9442	0.0134
755.1199	0.0113
755.2956	0.0005
755.4712	-0.0173
755.6469	0.0083
755.8225	0.0035
755.9981	0.011
756.1736	-0.0001
756.3492	0.0097
756.5248	0.0149
756.7003	0.0176
756.8758	-0.0073
757.0513	-0.0035
757.2267	-0.0003
757.4022	-0.004
757.5776	-0.0088
757.753	0.0121
757.9284	-0.0101
758.1038	0.0012
758.2791	-0.0113
758.4545	0.0007
758.6298	0.0099
758.8051	-0.008
758.9803	0.0023
759.1556	0.0017
759.3308	-0.0048
759.506	-0.0058
759.6812	0.0062
759.8564	-0.0013
760.0316	-0.0084
760.2067	0.0299
760.3819	-0.0061
760.557	-0.0066
760.732	-0.0099
760.9071	0.0022
761.0821	-0.0064
761.2572	0.0134
761.4322	0.0061
761.6072	0.0022
761.7821	-0.0227
761.9571	0.026
762.132	-0.0081
762.3069	0.0154
762.4818	0.0257
762.6567	-0.0092
762.8316	0.0136
763.0064	-0.0129
763.1812	-0.0116
763.356	-0.0119
763.5308	0.0161
763.7055	0.0128
763.8803	-0.0174
764.055	-0.0011
764.2297	0.0023
764.4044	-0.008
764.579	0.0034
764.7537	-0.0189
764.9283	-0.0008
765.1029	0.0149
765.2775	0.0155
765.4521	0.0019
765.6266	-0.0082
765.8011	0.0046
765.9756	0.0071
766.1501	-0.0243
766.3246	0.016
766.4991	0.0027
766.6735	0.0332
766.8479	-0.006
767.0223	0.0409
767.1967	0.0049
767.371	0.0274
767.5454	0.0328
767.7197	0.0044
767.894	0.001
768.0683	0.0045
768.2425	0.0123
768.4168	-0.0038
768.591	0.0105
768.7652	0.001
768.9394	-0.0182
769.1135	0.0029
769.2877	0.0186
769.4618	0.0327
769.6359	-0.0031
769.81	-0.0038
769.984	0.007
770.1581	0.0093
770.3321	0.0446
770.5061	-0.0248
770.6801	0.0154
770.8541	0.011
771.028	0.0174
771.202	0.0292
771.3759	0.0022
771.5498	0.0066
771.7236	0.0012
771.8975	0.0256
772.0713	0.0166
772.2451	-0.0211
772.4189	0.0243
772.5927	-0.0173
772.7665	0.0266
772.9402	0.0035
773.1139	-0.0019
773.2876	0.0003
773.4613	0.01
773.635	0.054
773.8086	0.0235
773.9822	-0.0086
774.1558	0.0132
774.3294	-0.007
774.503	0.0018
774.6765	0.0381
774.8501	-0.003
775.0236	0.0432
775.1971	-0.0064
775.3705	0.0412
775.544	-0.0209
775.7174	0.038
775.8908	-0.0021
776.0642	0.0005
776.2376	0.0719
776.4109	-0.0004
776.5843	0.0014
776.7576	0.0672
776.9309	0.0072
777.1041	-0.0186
777.2774	-0.0315
777.4506	-0.0138
777.6238	-0.0142
777.797	0.0125
777.9702	0.0117
778.1434	0.0378
778.3165	0.0116
778.4896	-0.0444
778.6627	-0.0065
778.8358	-0.0293
779.0089	-0.0121
779.1819	0.028
779.3549	-0.0222
779.5279	-0.0522
779.7009	0.0402
779.8739	0.0382
780.0468	-0.023
780.2197	0.0105
780.3926	-0.0022
780.5655	0.0209
780.7384	0.0044
780.9112	0.0264
781.0841	0.0087
781.2569	0.0075
781.4297	0.0067
781.6024	0.016
781.7752	0.0497
781.9479	0.0421
782.1206	-0.0039
782.2933	0.0118
782.466	0.0024
782.6386	-0.0076
782.8113	0.0074
782.9839	-0.0203
783.1565	0.0252
783.329	0.0145
783.5016	0.009
783.6741	0.0197
783.8466	0.0478
784.0191	0.0101
784.1916	-0.0263
784.3641	-0.0169
784.5365	0.0337
784.7089	-0.0167
784.8813	0.0584
785.0537	0.0294
785.2261	0.0087
785.3984	0.0326
785.5707	-0.0589
785.743	0.0342
785.9153	0.0132
786.0876	0.0144
786.2598	-0.0221
786.432	-0.0206
786.6042	0.0374
786.7764	-0.0251
786.9486	0.0053
787.1207	0.0085
787.2928	0.0103
787.4649	-0.0451
787.637	0.0027
787.8091	0.0244
787.9811	0.0663
788.1532	0.0374
788.3252	0.0237
788.4972	-0.0175
788.6691	0.0226
788.8411	-0.0104
789.013	-0.004
789.1849	-0.0231
789.3568	0.0149
789.5287	0.0367
789.7005	0.0092
789.8723	0.0327
790.0442	-0.0217
790.2159	-0.0045
790.3877	0.0514
790.5595	-0.0285
790.7312	0.0306
790.9029	-0.0004
791.0746	0.0264
791.2463	-0.0519
791.4179	0.0135
791.5896	0.0322
791.7612	0.0492
791.9328	-0.0224
792.1044	0.0007
792.2759	-0.0496
792.4474	0.0173
792.619	-0.0193
792.7905	0.0087
792.9619	0.075
793.1334	0.0796
793.3048	-0.0037
793.4762	-0.0095
793.6476	-0.0166
793.819	-0.0134
793.9904	-0.0192
794.1617	-0.0058
794.333	0.0187
794.5043	0.0233
794.6756	0.0352
794.8469	0.0307
795.0181	0.0004
795.1893	0.013
795.3605	0.055
795.5317	0.0142
795.7029	-0.0366
795.874	0.0376
796.0452	0.0687
796.2163	0.0229
796.3873	0.0862
796.5584	0.0539
796.7294	-0.0266
796.9005	0.0408
797.0715	-0.01
797.2425	0.134
797.4134	0.1004
797.5844	0.0437
797.7553	-0.0757
797.9262	0.0797
798.0971	0.0101
798.2679	-0.0309
798.4388	-0.0094
798.6096	-0.0458
798.7804	-0.0276
798.9512	0.0757
799.122	0.0072
799.2927	0.0802
799.4635	-0.096
799.6342	-0.0006
799.8049	0.0479
799.9755	-0.0166
800.1462	0.0063
800.3168	0.0336
800.4874	-0.0458
800.658	-0.0132
800.8286	-0.0188
800.9991	0.0491
801.1696	-0.0006
801.3402	-0.0048
801.5106	0.0097
801.6811	-0.0232
801.8516	0.1117
802.022	0.0087
802.1924	0.0474
802.3628	0.0555
802.5332	0.0956
802.7035	0.0713
802.8739	0.1064
803.0442	-0.0696
803.2145	0.016
803.3847	0.0056
803.555	-0.0133
803.7252	0.06
803.8954	0.0608
804.0656	-0.0241
804.2358	0.0432
804.4059	0.0314
804.5761	0.0285
804.7462	-0.0291
804.9163	0.0474
805.0864	-0.077
805.2564	0.0126
805.4264	-0.0278
805.5965	-0.0034
805.7665	-0.0384
805.9364	0.0168
806.1064	-0.0177
806.2763	0.0268
806.4462	0.0362
806.6161	0.0157
806.786	0.0253
806.9559	0.0876
807.1257	-0.0364
807.2955	-0.0005
807.4653	-0.0145
807.6351	0.0259
807.8048	-0.0218
807.9746	-0.0211
808.1443	0.0202
808.314	0.0272
808.4837	0.0844
808.6533	0.0009
808.8229	0.0121
808.9926	0.0392
809.1622	0.0413
809.3317	-0.0704
809.5013	0.0275
809.6708	0.0484
809.8403	0.0381
810.0098	0.044
810.1793	0.0362
810.3488	0.0633
810.5182	0.1483
810.6876	0.0031
810.857	0.0682
811.0264	-0.0278
811.1958	0.0649
811.3651	0.0281
811.5344	0.1602
811.7037	0.0156
811.873	0.1089
812.0422	-0.0099
812.2115	0.0456
812.3807	-0.1438
812.5499	-0.0453
812.7191	-0.198
812.8882	-0.0286
813.0574	0.0015
813.2265	0.0071
813.3956	0.0161
813.5646	0.0755
813.7337	0.0385
813.9027	-0.1201
814.0718	0.0694
814.2407	0.1184
814.4097	0.012
814.5787	0.0754
814.7476	0.0023
814.9165	0.0789
815.0854	-0.0387
815.2543	0.0157
815.4232	0.073
815.592	-0.0207
815.7608	0.0106
815.9296	-0.0535
816.0984	-0.1012
816.2671	-0.3513
816.4359	0.1814
816.6046	0.0537
816.7733	-0.1718
816.942	-0.0986
817.1106	0.0499
817.2793	-0.0069
817.4479	0.0435
817.6165	0.0125
817.785	0.1707
817.9536	-0.0919
818.1221	0.0159
818.2906	-0.1179
818.4591	0.0738
818.6276	0.0591
818.7961	-0.0794
818.9645	0.0676
819.1329	0.23
819.3013	-0.0045
819.4697	-0.1484
819.638	0.0606
819.8064	-0.0565
819.9747	0.0326
820.143	-0.0641
820.3113	0.0698
820.4795	0.0043
820.6477	0.1649
820.816	0.0128
820.9842	0.0694
821.1523	0.0107
821.3205	-0.0611
821.4886	-0.0305
821.6567	-0.0635
821.8248	0.1796
821.9929	-0.0952
822.1609	0.0226
822.329	-0.0042
822.497	0.0826
822.665	0.2099
822.833	0.006
823.0009	0.0201
823.1688	0.0025
823.3367	-0.0732
823.5046	0.0663
823.6725	-0.0507
823.8404	0.082
824.0082	0.0021
824.176	0.1245
824.3438	0.2834
824.5116	-0.1108
824.6793	0.3517
824.847	0.3412
825.0147	0.1848
825.1824	0.1146
825.3501	0.0801
825.5177	-0.0118
825.6854	-0.0582
825.853	0.3473
826.0206	0.0282
826.1881	0.0691
826.3557	0.0021
826.5232	0.0745
826.6907	0.0959
826.8582	0.0112
827.0257	0.2964
827.1931	0.2107
827.3605	-0.0416
827.528	-0.1571
827.6953	-0.2495
827.8627	-0.097
828.03	0.0781
828.1974	-0.0336
828.3647	0.0016
828.532	0.2871
828.6992	0.2086
828.8665	-0.119
829.0337	0.0543
829.2009	-0.0355
829.3681	0.0385
829.5352	-0.2698
829.7024	-0.0774
829.8695	0.0463
830.0366	0.0167
830.2037	0.0654
830.3707	0.1226
830.5378	0.5336
830.7048	-0.0156
830.8718	0.0158
831.0388	0.1634
831.2057	-0.004
831.3727	-0.2693
831.5396	0.1393
831.7065	-0.8277
831.8734	0.2404
832.0402	0.2966
832.2071	-0.3986
832.3739	-0.1326
832.5407	-0
832.7075	-0.4098
832.8742	0.0128
833.041	0.2661
833.2077	0.5244
833.3744	0.2718
833.541	0.0267
833.7077	-0.1117
833.8743	0.1702
834.0409	-0.0615
834.2075	-0.0011
834.3741	-0.1026
834.5407	0.0169
834.7072	0.0314
834.8737	0.0935
835.0402	0.2706
835.2067	-0.1609
835.3731	-0.1507
835.5395	0.121
835.706	-0.1111
835.8723	0.0217
836.0387	0.2297
836.2051	0.2105
836.3714	0.1501
836.5377	-0.1203
836.704	0.0828
836.8703	-0.1318
837.0365	-0.2663
837.2027	1.135
837.3689	0.0293
837.5351	0.6825
837.7013	-0.146
837.8674	-0.4879
838.0335	0.0413
838.1997	-0.2032
838.3657	-0
838.5318	-0.4054
838.6978	-0
838.8639	-0
839.0299	0.3562
839.1958	-0.128
839.3618	0.098
839.5277	0.155
839.6937	-0
839.8596	-0.3159
840.0254	0.1214
840.1913	-0.2004
840.3571	0.0161
840.523	-0
840.6888	0.1497
840.8545	-0.5263
841.0203	0.2126
841.186	0.1146
841.3517	-0.2713
841.5174	0.161
841.6831	-0.1162
841.8488	-0.1136
842.0144	0.1578
842.18	0.6655
842.3456	-0.1307
842.5112	-0
842.6767	-0.0238
842.8422	0.1622
843.0077	0.0709
843.1732	-0.4646
843.3387	1.0359
843.5042	-0
843.6696	0.28
843.835	-0.2015
844.0004	0.006
844.1657	-1.1806
844.3311	0.4937
844.4964	0.0886
844.6617	0.103
844.827	-0
844.9923	-0.0564
845.1575	-0.1622
845.3227	-0.143
845.4879	-0.0565
845.6531	0.0977
845.8183	0.1861
845.9834	0.0297
846.1485	0.2689
846.3136	-0.141
846.4787	0.5804
846.6438	-0.2652
846.8088	-0.0419
846.9738	-0
847.1388	0.1302
847.3038	-0
847.4687	-0
847.6337	-0.0546
847.7986	-0.0827
847.9635	-0.1698
848.1284	1.3123
848.2932	0.347
848.458	-0
848.6228	0.8643
848.7876	-0
848.9524	-0.2649
849.1172	-1.7656
849.2819	-0
849.4466	0.0989
849.6113	-0.1283
849.7759	0.5044
849.9406	0.148
850.1052	-1.3915
850.2698	-0
850.4344	-0.4212
850.599	-0.2787
850.7635	0.0606
850.928	0.2811
851.0925	0.1862
851.257	0.0658
851.4215	-0.0197
851.5859	-0.1174
851.7503	-0
851.9147	-0.6285
852.0791	0.3616
852.2434	0.4432
852.4078	-0
852.5721	-0
852.7364	-0.2323
852.9007	-0.09
853.0649	-0
853.2291	0.3258
853.3934	-0
853.5575	-0.0878
853.7217	0.0769
853.8859	0.2465
854.05	-0.1528
854.2141	0.4529
854.3782	-0.2048
854.5423	-0.2734
854.7063	-0.022
854.8703	0.3801
855.0343	0.0705
855.1983	0.0701
855.3623	-0.2066
855.5262	-0
855.6901	0.2985
855.854	0.588
856.0179	-0.4678
856.1818	1.1721
856.3456	0.2779
856.5094	-0.4813
856.6732	-0
856.837	-1.1319
857.0008	-0
857.1645	-0.1231
857.3282	-0.2985
857.4919	0.2398
857.6556	-0.3884
857.8192	-0.3268
857.9828	-0.2649
858.1465	0.2709
858.31	-0
858.4736	-0.6355
858.6372	-0.178
858.8007	-0.0409
858.9642	0.1882
859.1277	0.6093
859.2911	-0.6824
859.4546	-0
859.618	-0.1575
859.7814	-0.0736
859.9448	-0
860.1081	-0
860.2715	-0
860.4348	-0.1728
860.5981	0.3438
860.7614	-0
860.9246	1.2251
861.0879	-0
861.2511	-0
861.4143	-0
861.5774	-0.1007
861.7406	-0
861.9037	-0
862.0668	-0.3388
862.2299	-0
862.393	-0
862.556	-0
862.7191	-0.2697
862.8821	0.6141
863.0451	-0.1809
863.208	-0
863.371	0.3316
863.5339	0.2816
863.6968	-0.0351
863.8597	-0.2697
864.0225	-0
864.1854	-0.0143
864.3482	-0.8183
864.511	0.3709
864.6737	-0.3495
864.8365	-0.0681
864.9992	-0
865.1619	-0
865.3246	-1.6812
865.4873	-0.3506
865.65	-0.0746
865.8126	-0
865.9752	-0
866.1378	-0.0715
866.3004	0.0944
866.4629	-1.6654
866.6254	-0.5272
866.7879	-0.5126
866.9504	-0
867.1129	0.1225
867.2753	-0.0045
867.4377	-0.2515
867.6001	-0.221
867.7625	-0.3163
867.9249	0.4507
868.0872	-0
868.2495	-0
868.4118	0.4431
868.5741	-0.6998
868.7363	-0
868.8986	-0.4898
869.0608	-0
869.223	-0.1457
869.3851	-0.7426
869.5473	0.5901
869.7094	-0
869.8715	-0.0478
870.0336	0.0747
870.1957	-0.3115
870.3577	0.0126
870.5197	-0.2198
870.6817	-0.945
870.8437	-0.1776
871.0057	-0
871.1676	0.1085
871.3295	-0
871.4914	-1.0792
871.6533	-0
871.8151	0.137
871.977	-0
872.1388	-0
872.3006	-0.563
872.4623	-0.5433
872.6241	0.4836
872.7858	-0
872.9475	-0
873.1092	-0.0532
873.2709	-0
873.4325	-1.1883
873.5941	-0.7977
873.7557	0.0908
873.9173	-0.0604
874.0789	0.6538
874.2404	-0
874.4019	-0.1338
874.5634	-0
874.7249	-0
874.8863	-0.1208
875.0478	-0.0998
875.2092	0.4177
875.3706	0.4985
875.5319	-0
875.6933	0.1633
875.8546	-0
876.0159	0.0899
876.1772	-0.6205
876.3385	0.1533
876.4997	0.5964
876.6609	-0.2902
876.8221	-0
876.9833	0.0953
877.1445	0.1352
877.3056	-1.0028
877.4667	-0.4206
877.6278	0.0348
877.7889	0.3463
877.9499	0.6679
878.111	-0.5604
878.272	-0
878.433	0.4695
878.5939	0.2767
878.7549	-0
878.9158	-0
879.0767	-0
879.2376	-0
879.3984	0.3206
879.5593	-0
879.7201	-1.2755
879.8809	-0.3244
880.0417	-0.184
880.2024	0.5313
880.3632	-0.3164
880.5239	-0
880.6846	-0.4977
880.8452	-0.2319
881.0059	-0
881.1665	0.3927
881.3271	0.5435
881.4877	-0.0207
881.6483	-0
881.8088	-0
881.9693	-0.803
882.1298	-0.803
882.2903	-0.803
