Data from D4ACN5uM460nmA_Absorbance_13-05-41-390.txt Node
Date: Fri Feb 21 13:05:41 GMT 2025
User: LASERRRRR
Spectrometer: FLMT03099
Trigger mode: 0
Integration Time (sec): 1.500000E-2
Scans to average: 1
Electric dark correction enabled: true
Nonlinearity correction enabled: false
Boxcar width: 0
XAxis mode: Wavelengths
Number of Pixels in Spectrum: 3648
>>>>>Begin Spectral Data<<<<<
179.3399	-0.1448
179.5586	-0.1448
179.7771	-0.1448
179.9957	-0.1438
180.2143	-0
180.4329	0.4203
180.6514	-0.1421
180.8699	1.5879
181.0885	-0
181.307	0.3087
181.5255	0.233
181.744	-0
181.9625	0.0586
182.181	-0.3563
182.3994	0.2062
182.6179	0.5907
182.8363	-0.1514
183.0547	-0
183.2732	0.3397
183.4916	0.3253
183.71	0.3479
183.9284	0.1255
184.1467	0.1335
184.3651	0.1284
184.5835	0.2001
184.8018	0.2664
185.0201	0.1484
185.2385	0.2478
185.4568	0.0821
185.6751	0.1236
185.8934	0.2029
186.1117	-0.2341
186.3299	0.3023
186.5482	0.186
186.7664	0.3964
186.9847	0.3629
187.2029	0.0995
187.4211	-0.0794
187.6393	0.2686
187.8575	0.3541
188.0757	0.5388
188.2939	0.173
188.512	0.1443
188.7302	0.0247
188.9483	0.226
189.1665	0.9269
189.3846	0.226
189.6027	0.1569
189.8208	0.2077
190.0389	0.1753
190.257	0.2538
190.475	-0.0038
190.6931	0.1231
190.9111	0.109
191.1292	0.096
191.3472	0.0714
191.5652	0.3523
191.7832	0.2177
192.0012	0.1732
192.2192	0.2092
192.4371	0.1891
192.6551	0.3053
192.873	0.1147
193.091	0.145
193.3089	0.1965
193.5268	0.3098
193.7447	0.2259
193.9626	0.142
194.1805	0.1568
194.3984	0.2096
194.6162	0.2383
194.8341	0.2745
195.0519	0.2823
195.2697	0.1892
195.4875	0.4396
195.7054	0.1784
195.9231	0.2587
196.1409	0.317
196.3587	0.3363
196.5765	0.338
196.7942	0.2696
197.012	0.3798
197.2297	0.2725
197.4474	0.375
197.6651	0.2738
197.8828	0.3305
198.1005	0.4362
198.3182	0.4126
198.5358	0.3612
198.7535	0.3856
198.9711	0.3656
199.1888	0.34
199.4064	0.3767
199.624	0.346
199.8416	0.3161
200.0592	0.4019
200.2767	0.3801
200.4943	0.4375
200.7119	0.3355
200.9294	0.3989
201.1469	0.3816
201.3645	0.441
201.582	0.4071
201.7995	0.4042
202.017	0.3686
202.2344	0.3951
202.4519	0.3578
202.6694	0.3861
202.8868	0.371
203.1042	0.398
203.3217	0.3886
203.5391	0.3928
203.7565	0.3066
203.9739	0.3823
204.1913	0.3534
204.4086	0.3553
204.626	0.3451
204.8433	0.3542
205.0607	0.3407
205.278	0.3762
205.4953	0.3453
205.7126	0.3445
205.9299	0.3252
206.1472	0.3331
206.3644	0.3479
206.5817	0.3088
206.7989	0.3415
207.0162	0.3025
207.2334	0.316
207.4506	0.3296
207.6678	0.3028
207.885	0.2968
208.1022	0.2993
208.3194	0.3057
208.5365	0.3252
208.7537	0.3049
208.9708	0.2975
209.1879	0.2783
209.405	0.2813
209.6222	0.2674
209.8392	0.3055
210.0563	0.2864
210.2734	0.271
210.4905	0.2583
210.7075	0.2953
210.9245	0.263
211.1416	0.2736
211.3586	0.2508
211.5756	0.2662
211.7926	0.2684
212.0096	0.2517
212.2265	0.2624
212.4435	0.2711
212.6604	0.265
212.8774	0.2488
213.0943	0.2655
213.3112	0.2549
213.5281	0.2618
213.745	0.2231
213.9619	0.2424
214.1788	0.2661
214.3956	0.2483
214.6125	0.2706
214.8293	0.2498
215.0461	0.2571
215.2629	0.2636
215.4798	0.264
215.6965	0.2462
215.9133	0.2363
216.1301	0.2493
216.3469	0.2598
216.5636	0.268
216.7803	0.2506
216.9971	0.2691
217.2138	0.2637
217.4305	0.2471
217.6472	0.2559
217.8639	0.2592
218.0805	0.2683
218.2972	0.2488
218.5138	0.2403
218.7305	0.2592
218.9471	0.2543
219.1637	0.2679
219.3803	0.2707
219.5969	0.2636
219.8135	0.2588
220.0301	0.2592
220.2466	0.2615
220.4632	0.2457
220.6797	0.2591
220.8962	0.258
221.1127	0.2747
221.3292	0.2726
221.5457	0.2842
221.7622	0.2693
221.9787	0.2809
222.1951	0.2855
222.4116	0.2681
222.628	0.2955
222.8444	0.2879
223.0608	0.2766
223.2772	0.2941
223.4936	0.2781
223.71	0.2819
223.9264	0.2887
224.1427	0.2682
224.3591	0.288
224.5754	0.2957
224.7917	0.2898
225.008	0.3014
225.2243	0.3063
225.4406	0.2874
225.6569	0.2993
225.8732	0.3046
226.0894	0.3147
226.3057	0.3154
226.5219	0.321
226.7381	0.3117
226.9543	0.3109
227.1705	0.3169
227.3867	0.3235
227.6029	0.3349
227.8191	0.3265
228.0352	0.3473
228.2513	0.3431
228.4675	0.3409
228.6836	0.3561
228.8997	0.3443
229.1158	0.3542
229.3319	0.3596
229.548	0.3544
229.764	0.3503
229.9801	0.3663
230.1961	0.3787
230.4121	0.3691
230.6282	0.3817
230.8442	0.3914
231.0602	0.3883
231.2761	0.391
231.4921	0.3855
231.7081	0.4067
231.924	0.3887
232.14	0.3881
232.3559	0.3986
232.5718	0.3989
232.7877	0.4105
233.0036	0.4091
233.2195	0.4141
233.4353	0.4186
233.6512	0.412
233.867	0.4152
234.0829	0.4303
234.2987	0.4195
234.5145	0.4311
234.7303	0.4331
234.9461	0.4315
235.1619	0.4375
235.3776	0.4315
235.5934	0.4349
235.8091	0.4365
236.0249	0.4431
236.2406	0.4306
236.4563	0.4459
236.672	0.4426
236.8877	0.4474
237.1034	0.4445
237.319	0.4453
237.5347	0.4575
237.7503	0.4465
237.966	0.4521
238.1816	0.4522
238.3972	0.4678
238.6128	0.4657
238.8284	0.4649
239.0439	0.4573
239.2595	0.4699
239.475	0.4515
239.6906	0.4537
239.9061	0.4579
240.1216	0.4588
240.3371	0.4622
240.5526	0.462
240.7681	0.4567
240.9836	0.4602
241.199	0.4532
241.4145	0.4465
241.6299	0.4412
241.8453	0.433
242.0607	0.4311
242.2761	0.4259
242.4915	0.4277
242.7069	0.405
242.9223	0.4218
243.1376	0.407
243.353	0.3997
243.5683	0.387
243.7836	0.3896
243.9989	0.3703
244.2142	0.3686
244.4295	0.3676
244.6448	0.3618
244.86	0.346
245.0753	0.339
245.2905	0.3339
245.5057	0.3286
245.721	0.3346
245.9362	0.3273
246.1514	0.3121
246.3665	0.3019
246.5817	0.2994
246.7969	0.2877
247.012	0.2876
247.2271	0.2961
247.4423	0.2814
247.6574	0.2842
247.8725	0.2759
248.0876	0.266
248.3026	0.2578
248.5177	0.2576
248.7328	0.2503
248.9478	0.2432
249.1628	0.2482
249.3779	0.2342
249.5929	0.2396
249.8079	0.2315
250.0228	0.2311
250.2378	0.2262
250.4528	0.2312
250.6677	0.2186
250.8827	0.2093
251.0976	0.211
251.3125	0.2145
251.5274	0.2131
251.7423	0.208
251.9572	0.2056
252.172	0.2118
252.3869	0.1996
252.6017	0.1984
252.8166	0.1976
253.0314	0.1902
253.2462	0.1969
253.461	0.1927
253.6758	0.1937
253.8906	0.1932
254.1053	0.1893
254.3201	0.1938
254.5348	0.1824
254.7496	0.1863
254.9643	0.1914
255.179	0.1869
255.3937	0.184
255.6083	0.1949
255.823	0.1877
256.0377	0.1787
256.2523	0.1823
256.467	0.1818
256.6816	0.1843
256.8962	0.1791
257.1108	0.1769
257.3254	0.1791
257.54	0.1757
257.7545	0.1796
257.9691	0.1835
258.1836	0.1724
258.3981	0.1791
258.6127	0.1773
258.8272	0.178
259.0417	0.1752
259.2561	0.1745
259.4706	0.1708
259.6851	0.1761
259.8995	0.1751
260.114	0.1756
260.3284	0.1708
260.5428	0.1752
260.7572	0.1778
260.9716	0.1758
261.186	0.1705
261.4003	0.1698
261.6147	0.1721
261.829	0.1791
262.0433	0.1754
262.2577	0.1784
262.472	0.1731
262.6863	0.1789
262.9005	0.1695
263.1148	0.1698
263.3291	0.1714
263.5433	0.1754
263.7576	0.1686
263.9718	0.1768
264.186	0.1742
264.4002	0.1786
264.6144	0.1768
264.8286	0.1775
265.0427	0.1791
265.2569	0.1794
265.471	0.1783
265.6851	0.1757
265.8993	0.1781
266.1134	0.1749
266.3275	0.1761
266.5415	0.1753
266.7556	0.1738
266.9697	0.183
267.1837	0.1711
267.3978	0.1773
267.6118	0.1686
267.8258	0.1755
268.0398	0.1815
268.2538	0.1763
268.4677	0.1765
268.6817	0.1709
268.8957	0.1693
269.1096	0.1641
269.3235	0.1698
269.5374	0.169
269.7514	0.1702
269.9652	0.1745
270.1791	0.1654
270.393	0.1666
270.6068	0.1734
270.8207	0.1657
271.0345	0.1658
271.2483	0.1662
271.4622	0.1669
271.676	0.1674
271.8897	0.1642
272.1035	0.172
272.3173	0.1729
272.531	0.1661
272.7448	0.1674
272.9585	0.1609
273.1722	0.162
273.3859	0.1594
273.5996	0.1667
273.8133	0.1625
274.0269	0.1592
274.2406	0.1649
274.4542	0.1721
274.6679	0.1682
274.8815	0.1678
275.0951	0.1688
275.3087	0.1757
275.5223	0.168
275.7358	0.1721
275.9494	0.169
276.1629	0.1672
276.3765	0.1698
276.59	0.1625
276.8035	0.1656
277.017	0.1688
277.2305	0.171
277.444	0.1759
277.6574	0.1735
277.8709	0.1777
278.0843	0.1714
278.2978	0.1745
278.5112	0.1735
278.7246	0.1713
278.938	0.1714
279.1513	0.1777
279.3647	0.1712
279.5781	0.1702
279.7914	0.1694
280.0047	0.1727
280.2181	0.1724
280.4314	0.1699
280.6447	0.1796
280.8579	0.1724
281.0712	0.1722
281.2845	0.1761
281.4977	0.1812
281.711	0.172
281.9242	0.1787
282.1374	0.1766
282.3506	0.1855
282.5638	0.172
282.7769	0.1732
282.9901	0.1792
283.2033	0.1822
283.4164	0.1745
283.6295	0.182
283.8426	0.1774
284.0557	0.1802
284.2688	0.1816
284.4819	0.1723
284.695	0.1852
284.908	0.1794
285.1211	0.1797
285.3341	0.1831
285.5471	0.1789
285.7601	0.1838
285.9731	0.1848
286.1861	0.1885
286.3991	0.1886
286.612	0.1865
286.825	0.1801
287.0379	0.1901
287.2508	0.1857
287.4637	0.1862
287.6766	0.1873
287.8895	0.1879
288.1024	0.192
288.3152	0.193
288.5281	0.1818
288.7409	0.1881
288.9538	0.1899
289.1666	0.1879
289.3794	0.1895
289.5922	0.1866
289.8049	0.192
290.0177	0.1899
290.2304	0.1868
290.4432	0.1972
290.6559	0.1973
290.8686	0.1914
291.0813	0.1919
291.294	0.194
291.5067	0.1902
291.7194	0.1931
291.932	0.1904
292.1447	0.1934
292.3573	0.1951
292.5699	0.1965
292.7825	0.1904
292.9951	0.1972
293.2077	0.188
293.4203	0.1921
293.6328	0.1902
293.8454	0.1983
294.0579	0.1926
294.2704	0.196
294.4829	0.1939
294.6954	0.1899
294.9079	0.1915
295.1204	0.1896
295.3328	0.1964
295.5453	0.1958
295.7577	0.1926
295.9701	0.1934
296.1825	0.1925
296.3949	0.1923
296.6073	0.1901
296.8197	0.1952
297.0321	0.1946
297.2444	0.1882
297.4567	0.1922
297.6691	0.1958
297.8814	0.191
298.0937	0.1915
298.306	0.1897
298.5182	0.1969
298.7305	0.1955
298.9428	0.1919
299.155	0.1866
299.3672	0.1905
299.5794	0.1895
299.7916	0.1958
300.0038	0.192
300.216	0.1899
300.4282	0.1911
300.6403	0.2006
300.8525	0.1969
301.0646	0.1923
301.2767	0.1909
301.4888	0.194
301.7009	0.1949
301.913	0.1972
302.125	0.1926
302.3371	0.1949
302.5491	0.195
302.7612	0.2012
302.9732	0.1972
303.1852	0.1935
303.3972	0.1932
303.6092	0.1957
303.8211	0.1891
304.0331	0.1877
304.245	0.1891
304.457	0.1874
304.6689	0.1873
304.8808	0.1823
305.0927	0.1888
305.3046	0.1875
305.5164	0.1835
305.7283	0.1812
305.9401	0.1752
306.152	0.1758
306.3638	0.1795
306.5756	0.1795
306.7874	0.1714
306.9992	0.1772
307.2109	0.1681
307.4227	0.1697
307.6344	0.1758
307.8462	0.1658
308.0579	0.1742
308.2696	0.1681
308.4813	0.1632
308.693	0.1601
308.9046	0.1595
309.1163	0.1618
309.328	0.1596
309.5396	0.1605
309.7512	0.1562
309.9628	0.1542
310.1744	0.1446
310.386	0.1406
310.5976	0.1485
310.8091	0.1494
311.0207	0.1464
311.2322	0.1435
311.4437	0.1407
311.6552	0.1418
311.8667	0.143
312.0782	0.1359
312.2897	0.1402
312.5012	0.137
312.7126	0.132
312.924	0.1364
313.1355	0.1305
313.3469	0.1324
313.5583	0.1304
313.7696	0.1253
313.981	0.1357
314.1924	0.1221
314.4037	0.1293
314.6151	0.1315
314.8264	0.1322
315.0377	0.1273
315.249	0.1275
315.4603	0.1222
315.6716	0.12
315.8828	0.1222
316.0941	0.128
316.3053	0.1219
316.5165	0.1259
316.7277	0.1192
316.9389	0.123
317.1501	0.1193
317.3613	0.1203
317.5724	0.1197
317.7836	0.1183
317.9947	0.1202
318.2058	0.1171
318.417	0.1217
318.6281	0.1157
318.8391	0.1239
319.0502	0.1181
319.2613	0.1151
319.4723	0.1143
319.6834	0.1222
319.8944	0.1198
320.1054	0.1211
320.3164	0.1167
320.5274	0.1194
320.7383	0.1206
320.9493	0.1206
321.1602	0.1196
321.3712	0.1158
321.5821	0.1186
321.793	0.1275
322.0039	0.1174
322.2148	0.1164
322.4257	0.1143
322.6365	0.1192
322.8474	0.1226
323.0582	0.1219
323.269	0.1145
323.4798	0.1207
323.6906	0.1164
323.9014	0.1144
324.1122	0.1187
324.3229	0.1215
324.5337	0.1233
324.7444	0.1225
324.9551	0.1244
325.1658	0.1198
325.3765	0.1223
325.5872	0.1229
325.7979	0.117
326.0085	0.1189
326.2192	0.1198
326.4298	0.1207
326.6404	0.1269
326.851	0.1228
327.0616	0.1213
327.2722	0.1272
327.4828	0.1262
327.6933	0.1284
327.9039	0.1225
328.1144	0.1213
328.3249	0.1253
328.5354	0.1231
328.7459	0.1246
328.9564	0.1259
329.1669	0.131
329.3773	0.1324
329.5878	0.1225
329.7982	0.1257
330.0086	0.1305
330.219	0.1203
330.4294	0.1228
330.6398	0.1243
330.8502	0.1332
331.0605	0.1242
331.2708	0.1274
331.4812	0.1284
331.6915	0.129
331.9018	0.126
332.1121	0.1396
332.3224	0.1292
332.5326	0.1216
332.7429	0.1215
332.9531	0.131
333.1633	0.1267
333.3735	0.1247
333.5837	0.1243
333.7939	0.127
334.0041	0.1317
334.2143	0.1232
334.4244	0.1307
334.6346	0.1333
334.8447	0.1261
335.0548	0.1334
335.2649	0.1352
335.475	0.1276
335.685	0.135
335.8951	0.1315
336.1051	0.1336
336.3152	0.1404
336.5252	0.1309
336.7352	0.1278
336.9452	0.1312
337.1552	0.1356
337.3652	0.1322
337.5751	0.1331
337.7851	0.1302
337.995	0.1378
338.2049	0.136
338.4148	0.1347
338.6247	0.1391
338.8346	0.1375
339.0445	0.1353
339.2543	0.1389
339.4642	0.1341
339.674	0.1381
339.8838	0.1379
340.0936	0.137
340.3034	0.1326
340.5132	0.127
340.7229	0.1366
340.9327	0.1462
341.1424	0.1404
341.3522	0.1372
341.5619	0.1374
341.7716	0.1471
341.9813	0.1488
342.1909	0.1466
342.4006	0.1424
342.6102	0.1498
342.8199	0.1438
343.0295	0.1399
343.2391	0.1438
343.4487	0.149
343.6583	0.1494
343.8679	0.1433
344.0774	0.1487
344.287	0.1486
344.4965	0.149
344.706	0.1513
344.9155	0.1429
345.125	0.1479
345.3345	0.1546
345.544	0.1514
345.7534	0.1567
345.9629	0.1492
346.1723	0.1565
346.3817	0.1583
346.5911	0.1515
346.8005	0.1544
347.0099	0.156
347.2193	0.1595
347.4286	0.1704
347.638	0.1646
347.8473	0.1615
348.0566	0.1592
348.2659	0.1597
348.4752	0.1615
348.6845	0.1589
348.8937	0.1608
349.103	0.1613
349.3122	0.1612
349.5214	0.1681
349.7306	0.1685
349.9398	0.1668
350.149	0.1621
350.3582	0.1641
350.5674	0.1674
350.7765	0.1735
350.9856	0.1635
351.1948	0.1663
351.4039	0.1691
351.613	0.1717
351.822	0.1731
352.0311	0.1682
352.2402	0.1795
352.4492	0.1682
352.6582	0.1798
352.8672	0.1697
353.0762	0.1756
353.2852	0.1713
353.4942	0.1816
353.7032	0.1752
353.9121	0.182
354.1211	0.1846
354.33	0.175
354.5389	0.178
354.7478	0.1781
354.9567	0.1887
355.1655	0.1868
355.3744	0.182
355.5833	0.1845
355.7921	0.1882
356.0009	0.1898
356.2097	0.182
356.4185	0.1869
356.6273	0.1868
356.8361	0.1819
357.0448	0.1849
357.2536	0.1878
357.4623	0.1923
357.671	0.1993
357.8797	0.1852
358.0884	0.1847
358.2971	0.1889
358.5057	0.1972
358.7144	0.1958
358.923	0.2001
359.1316	0.1996
359.3402	0.2009
359.5488	0.2013
359.7574	0.2024
359.966	0.1958
360.1746	0.2025
360.3831	0.1998
360.5916	0.2025
360.8002	0.2055
361.0087	0.2035
361.2172	0.2076
361.4256	0.2033
361.6341	0.2159
361.8426	0.2201
362.051	0.2106
362.2594	0.2012
362.4678	0.2152
362.6762	0.218
362.8846	0.2174
363.093	0.2197
363.3014	0.2244
363.5097	0.2172
363.718	0.2213
363.9264	0.2242
364.1347	0.2295
364.343	0.2261
364.5513	0.2184
364.7595	0.2366
364.9678	0.2226
365.176	0.233
365.3842	0.2331
365.5925	0.2244
365.8007	0.2353
366.0089	0.2416
366.217	0.2321
366.4252	0.2311
366.6333	0.2428
366.8415	0.2401
367.0496	0.2336
367.2577	0.2478
367.4658	0.2383
367.6739	0.2426
367.882	0.2491
368.09	0.2414
368.2981	0.2384
368.5061	0.2431
368.7141	0.2378
368.9221	0.2545
369.1301	0.2495
369.3381	0.255
369.5461	0.2531
369.754	0.2596
369.962	0.2504
370.1699	0.2611
370.3778	0.2615
370.5857	0.2574
370.7936	0.2602
371.0015	0.2549
371.2093	0.2537
371.4172	0.2572
371.625	0.2552
371.8328	0.2658
372.0406	0.2591
372.2484	0.2596
372.4562	0.2624
372.664	0.2691
372.8717	0.267
373.0795	0.2722
373.2872	0.2767
373.4949	0.2636
373.7026	0.2667
373.9103	0.2639
374.118	0.2768
374.3256	0.2758
374.5333	0.2723
374.7409	0.2761
374.9485	0.2729
375.1561	0.279
375.3637	0.2698
375.5713	0.281
375.7789	0.2665
375.9864	0.2781
376.194	0.2833
376.4015	0.2748
376.609	0.2812
376.8165	0.2802
377.024	0.2855
377.2315	0.2839
377.4389	0.2868
377.6464	0.2876
377.8538	0.2933
378.0612	0.2912
378.2686	0.2813
378.476	0.2922
378.6834	0.2881
378.8908	0.2934
379.0981	0.2941
379.3055	0.3
379.5128	0.2879
379.7201	0.2893
379.9274	0.2934
380.1347	0.2957
380.342	0.305
380.5492	0.3032
380.7565	0.2915
380.9637	0.2913
381.1709	0.295
381.3781	0.3136
381.5853	0.299
381.7925	0.2871
381.9997	0.307
382.2068	0.3058
382.4139	0.3048
382.6211	0.3092
382.8282	0.3075
383.0353	0.315
383.2424	0.301
383.4494	0.3071
383.6565	0.3083
383.8635	0.2975
384.0706	0.3157
384.2776	0.3103
384.4846	0.3159
384.6916	0.3083
384.8986	0.3113
385.1055	0.3152
385.3125	0.3136
385.5194	0.3129
385.7263	0.3107
385.9333	0.3028
386.1402	0.3094
386.347	0.3059
386.5539	0.3129
386.7608	0.3083
386.9676	0.3105
387.1744	0.3105
387.3813	0.3141
387.5881	0.3044
387.7948	0.3125
388.0016	0.3262
388.2084	0.3119
388.4151	0.3121
388.6219	0.3004
388.8286	0.3052
389.0353	0.318
389.242	0.3084
389.4487	0.3072
389.6553	0.3051
389.862	0.3003
390.0686	0.3151
390.2753	0.2989
390.4819	0.3005
390.6885	0.304
390.8951	0.2973
391.1016	0.3006
391.3082	0.3045
391.5147	0.2977
391.7213	0.2885
391.9278	0.292
392.1343	0.2884
392.3408	0.2883
392.5473	0.2873
392.7537	0.2919
392.9602	0.2798
393.1666	0.2853
393.373	0.2886
393.5794	0.2856
393.7858	0.2895
393.9922	0.2808
394.1986	0.2785
394.4049	0.2848
394.6113	0.283
394.8176	0.2855
395.0239	0.2789
395.2302	0.276
395.4365	0.2736
395.6428	0.2708
395.8491	0.2713
396.0553	0.2677
396.2615	0.2771
396.4678	0.2841
396.674	0.2659
396.8802	0.2768
397.0863	0.2626
397.2925	0.2631
397.4987	0.2602
397.7048	0.2761
397.9109	0.2695
398.117	0.2712
398.3231	0.2582
398.5292	0.2564
398.7353	0.2657
398.9413	0.2698
399.1474	0.274
399.3534	0.2582
399.5594	0.2759
399.7654	0.2714
399.9714	0.2637
400.1774	0.2671
400.3833	0.267
400.5893	0.2624
400.7952	0.2686
401.0011	0.2628
401.207	0.2722
401.4129	0.2634
401.6188	0.2611
401.8247	0.2643
402.0305	0.2626
402.2364	0.258
402.4422	0.2687
402.648	0.2644
402.8538	0.2604
403.0596	0.2492
403.2654	0.2642
403.4711	0.261
403.6768	0.258
403.8826	0.2711
404.0883	0.2612
404.294	0.2676
404.4997	0.2607
404.7054	0.2685
404.911	0.2612
405.1167	0.2667
405.3223	0.256
405.5279	0.2679
405.7335	0.2615
405.9391	0.2548
406.1447	0.2693
406.3502	0.2632
406.5558	0.2606
406.7613	0.2516
406.9668	0.2566
407.1724	0.2503
407.3778	0.2713
407.5833	0.2594
407.7888	0.2671
407.9942	0.26
408.1997	0.2612
408.4051	0.2716
408.6105	0.2585
408.8159	0.2638
409.0213	0.2588
409.2267	0.2701
409.432	0.2523
409.6374	0.2685
409.8427	0.2775
410.048	0.2646
410.2533	0.2669
410.4586	0.2554
410.6639	0.2607
410.8691	0.2626
411.0744	0.2689
411.2796	0.2716
411.4848	0.261
411.69	0.2511
411.8952	0.2619
412.1004	0.2693
412.3056	0.258
412.5107	0.2693
412.7158	0.2635
412.921	0.2667
413.1261	0.2612
413.3312	0.2683
413.5362	0.2731
413.7413	0.2651
413.9464	0.2451
414.1514	0.261
414.3564	0.2547
414.5614	0.2528
414.7664	0.2514
414.9714	0.2562
415.1764	0.2597
415.3813	0.245
415.5863	0.2592
415.7912	0.2484
415.9961	0.2591
416.201	0.2597
416.4059	0.2546
416.6108	0.2634
416.8156	0.2577
417.0205	0.2592
417.2253	0.2609
417.4301	0.2491
417.6349	0.2578
417.8397	0.2451
418.0445	0.2607
418.2492	0.2497
418.454	0.2523
418.6587	0.2595
418.8634	0.2547
419.0681	0.2656
419.2728	0.2437
419.4775	0.2529
419.6822	0.2469
419.8868	0.2471
420.0915	0.2446
420.2961	0.2377
420.5007	0.2478
420.7053	0.2414
420.9099	0.2403
421.1144	0.2466
421.319	0.2359
421.5235	0.2258
421.728	0.2483
421.9325	0.2415
422.137	0.2437
422.3415	0.2296
422.546	0.242
422.7504	0.2443
422.9549	0.2331
423.1593	0.2271
423.3637	0.2353
423.5681	0.2359
423.7725	0.2328
423.9769	0.2414
424.1812	0.2223
424.3856	0.2288
424.5899	0.2274
424.7942	0.2209
424.9985	0.2225
425.2028	0.2394
425.4071	0.2256
425.6113	0.2314
425.8156	0.2285
426.0198	0.225
426.224	0.2233
426.4282	0.2096
426.6324	0.2156
426.8366	0.2129
427.0407	0.2171
427.2449	0.2152
427.449	0.2136
427.6531	0.2167
427.8572	0.2059
428.0613	0.2123
428.2654	0.2095
428.4694	0.1993
428.6735	0.2036
428.8775	0.2034
429.0815	0.2054
429.2855	0.2022
429.4895	0.1957
429.6935	0.1947
429.8975	0.196
430.1014	0.1952
430.3053	0.2011
430.5093	0.1916
430.7132	0.1961
430.9171	0.1876
431.1209	0.1906
431.3248	0.1792
431.5286	0.1706
431.7325	0.1906
431.9363	0.1759
432.1401	0.1713
432.3439	0.1793
432.5477	0.1709
432.7514	0.1793
432.9552	0.1624
433.1589	0.1691
433.3627	0.176
433.5664	0.1679
433.7701	0.1711
433.9737	0.1705
434.1774	0.1646
434.3811	0.1615
434.5847	0.1654
434.7883	0.1629
434.9919	0.1533
435.1955	0.1592
435.3991	0.1524
435.6027	0.1505
435.8062	0.162
436.0098	0.1408
436.2133	0.1421
436.4168	0.1462
436.6203	0.1377
436.8238	0.139
437.0272	0.1344
437.2307	0.1345
437.4341	0.1403
437.6375	0.1408
437.841	0.1272
438.0443	0.1294
438.2477	0.1264
438.4511	0.1165
438.6545	0.1345
438.8578	0.1166
439.0611	0.1314
439.2644	0.1267
439.4677	0.121
439.671	0.1157
439.8743	0.1173
440.0775	0.1188
440.2808	0.1191
440.484	0.1148
440.6872	0.1103
440.8904	0.1081
441.0936	0.1049
441.2967	0.0958
441.4999	0.094
441.703	0.1031
441.9062	0.1034
442.1093	0.1104
442.3124	0.0953
442.5155	0.096
442.7185	0.088
442.9216	0.0907
443.1246	0.0905
443.3276	0.0923
443.5307	0.0793
443.7337	0.0932
443.9366	0.0803
444.1396	0.078
444.3426	0.0791
444.5455	0.0803
444.7484	0.0744
444.9513	0.0734
445.1542	0.0823
445.3571	0.0751
445.56	0.0647
445.7628	0.0698
445.9657	0.0786
446.1685	0.0771
446.3713	0.0715
446.5741	0.0699
446.7769	0.0753
446.9797	0.0712
447.1824	0.0654
447.3852	0.0562
447.5879	0.0572
447.7906	0.0503
447.9933	0.0622
448.196	0.0614
448.3986	0.0571
448.6013	0.0505
448.8039	0.0526
449.0066	0.067
449.2092	0.0587
449.4118	0.0554
449.6143	0.0553
449.8169	0.0469
450.0195	0.0498
450.222	0.056
450.4245	0.052
450.627	0.039
450.8295	0.0453
451.032	0.0459
451.2345	0.0414
451.4369	0.0429
451.6394	0.0475
451.8418	0.0397
452.0442	0.0513
452.2466	0.0329
452.449	0.0457
452.6513	0.0274
452.8537	0.0353
453.056	0.0305
453.2583	0.0417
453.4607	0.0241
453.663	0.0309
453.8652	0.0308
454.0675	0.0294
454.2697	0.0294
454.472	0.0222
454.6742	0.0374
454.8764	0.039
455.0786	0.0232
455.2808	0.024
455.4829	0.031
455.6851	0.0321
455.8872	0.0239
456.0893	0.0228
456.2915	0.0287
456.4935	0.0324
456.6956	0.0247
456.8977	0.0161
457.0997	0.0269
457.3018	0.0274
457.5038	0.0359
457.7058	0.0281
457.9078	0.0251
458.1098	0.0216
458.3117	0.0293
458.5137	0.0122
458.7156	0.0232
458.9175	0.026
459.1194	0.0149
459.3213	0.0177
459.5232	0.0101
459.725	0.0154
459.9269	0.0221
460.1287	0.0131
460.3305	0.0142
460.5323	0.0155
460.7341	0.017
460.9359	0.0025
461.1376	0.0174
461.3394	0.0196
461.5411	0.0175
461.7428	0.0155
461.9445	0.0147
462.1462	0.0115
462.3479	0.0023
462.5495	0.0141
462.7512	0.0269
462.9528	0.0084
463.1544	0.0066
463.356	0.0097
463.5576	0.0242
463.7592	0.0067
463.9607	0.0156
464.1623	0.0106
464.3638	0.0034
464.5653	0.0095
464.7668	0.0226
464.9683	0.0116
465.1697	0.0092
465.3712	0.0048
465.5726	0.0122
465.7741	0.0166
465.9755	0.0098
466.1769	0.0052
466.3782	0.0088
466.5796	0.0152
466.7809	0.0127
466.9823	0.0148
467.1836	0.0085
467.3849	0.0087
467.5862	0.0034
467.7875	0.004
467.9887	0.0106
468.19	0.0093
468.3912	0.0148
468.5924	0.0023
468.7936	0.0166
468.9948	0.0008
469.196	0.0081
469.3972	0.0013
469.5983	0.0047
469.7994	0.0108
470.0006	0.0123
470.2017	0.0004
470.4027	0.0219
470.6038	0.0041
470.8049	-0.0034
471.0059	0.0213
471.2069	0.008
471.408	0.0083
471.6089	0.0158
471.8099	0.0067
472.0109	0.0083
472.2119	0.0139
472.4128	-0.002
472.6137	0.014
472.8146	0.0044
473.0155	0.0097
473.2164	0.0018
473.4173	0.0004
473.6181	0.0016
473.819	0.0022
474.0198	0.0047
474.2206	-0.0057
474.4214	0.0117
474.6222	-0.0025
474.8229	-0.0003
475.0237	0.009
475.2244	0.0053
475.4251	0.0033
475.6258	0.0098
475.8265	0.005
476.0272	-0.0023
476.2278	0.0061
476.4285	0.0086
476.6291	0.0062
476.8297	0.0038
477.0303	-0.0026
477.2309	0.0092
477.4315	0.0042
477.632	0.0066
477.8326	0.0096
478.0331	0.0061
478.2336	0.0033
478.4341	0.0119
478.6346	-0.0035
478.8351	-0.004
479.0355	0.0066
479.236	0.006
479.4364	0.0103
479.6368	0.0013
479.8372	0.0043
480.0376	0.0062
480.2379	0.0077
480.4383	0.0063
480.6386	0.0012
480.8389	0.0024
481.0392	0.0061
481.2395	0.005
481.4398	0.0018
481.6401	0.0064
481.8403	0.0012
482.0405	0.007
482.2408	-0.0013
482.441	0.0067
482.6411	0.0057
482.8413	-0.0002
483.0415	0.0059
483.2416	0.0054
483.4417	0.0027
483.6419	-0.0015
483.8419	0.001
484.042	-0.0029
484.2421	-0.0071
484.4422	0.0009
484.6422	0.0001
484.8422	0.0064
485.0422	0.0053
485.2422	0.0004
485.4422	0.0035
485.6422	0.0018
485.8421	-0
486.042	0.0072
486.242	-0.0048
486.4419	0.0032
486.6417	-0.0048
486.8416	0.0043
487.0415	-0.0017
487.2413	-0.0005
487.4411	0.0004
487.641	-0.0003
487.8408	0.0086
488.0405	0.0131
488.2403	0.0027
488.4401	0.0052
488.6398	0.0091
488.8395	0.0064
489.0392	0.0065
489.2389	0.0099
489.4386	-0.0091
489.6383	0.007
489.8379	-0.0024
490.0376	0.0068
490.2372	-0.0052
490.4368	-0.0009
490.6364	-0.0051
490.836	-0.0036
491.0355	-0.004
491.2351	-0.0023
491.4346	0.0021
491.6341	-0.004
491.8336	0.004
492.0331	0.0046
492.2326	0.007
492.432	0.0054
492.6315	0.0105
492.8309	0.0081
493.0303	0.0019
493.2297	0.0018
493.4291	0.0003
493.6284	0.0073
493.8278	-0.0031
494.0271	0.0025
494.2264	-0.0026
494.4257	0.0081
494.625	-0.0024
494.8243	0.0033
495.0236	0.0041
495.2228	0.0089
495.422	0.0002
495.6213	0.0074
495.8205	0.0053
496.0196	0.0043
496.2188	0.0003
496.418	-0.0043
496.6171	-0.0033
496.8162	-0.0034
497.0153	0.0071
497.2144	0.0023
497.4135	0.0011
497.6126	0.003
497.8116	0.004
498.0107	0.0027
498.2097	0.0047
498.4087	0.0015
498.6077	-0.0066
498.8067	-0.0013
499.0056	-0.0035
499.2046	0.015
499.4035	0.0045
499.6024	-0.0023
499.8013	0.0066
500.0002	0.0011
500.199	0.0165
500.3979	-0.0028
500.5967	-0.0022
500.7956	-0.0001
500.9944	-0.0002
501.1932	0.0102
501.3919	0.0057
501.5907	0.0067
501.7895	0.0023
501.9882	0.002
502.1869	0.0103
502.3856	-0.0039
502.5843	0.0031
502.783	-0.0017
502.9816	0.001
503.1803	0.0094
503.3789	0.0104
503.5775	-0.0002
503.7761	-0.0053
503.9747	0.0096
504.1732	-0.0042
504.3718	0.0141
504.5703	0.0043
504.7689	-0.0083
504.9674	-0.0003
505.1658	-0.0019
505.3643	0.0067
505.5628	0.0028
505.7612	-0.0001
505.9597	-0.0053
506.1581	-0.0012
506.3565	0.0033
506.5549	-0.0001
506.7532	-0.0048
506.9516	0.0054
507.1499	0.0055
507.3482	0.0052
507.5465	0.0045
507.7448	-0.0023
507.9431	-0.0006
508.1414	-0.004
508.3396	0.0118
508.5379	0.0019
508.7361	-0.0045
508.9343	0.006
509.1325	0.0118
509.3306	0.0015
509.5288	-0.0116
509.7269	0.0047
509.9251	0.0029
510.1232	0.0039
510.3213	0.0103
510.5193	-0.0004
510.7174	-0.0064
510.9154	-0.0027
511.1135	-0.0005
511.3115	0.0011
511.5095	-0.003
511.7075	-0.0075
511.9055	0.0055
512.1034	0.0023
512.3014	0.0009
512.4993	0.0058
512.6972	0.0022
512.8951	0.0026
513.093	-0.0009
513.2908	0.0143
513.4887	-0.0005
513.6865	0.0062
513.8844	0.006
514.0822	0.0087
514.2799	-0.0044
514.4777	-0.0091
514.6755	0.0005
514.8732	-0.0028
515.0709	0.0025
515.2687	-0.0047
515.4664	0.0112
515.664	0.0081
515.8617	0.0111
516.0594	0.0093
516.257	0.0012
516.4546	0.0084
516.6522	0.0002
516.8498	-0.0027
517.0474	0.0095
517.2449	0.0062
517.4425	0.0099
517.64	0.0095
517.8375	0.0047
518.035	0.0047
518.2325	-0.0048
518.43	-0.0036
518.6274	0.0002
518.8249	-0.0146
519.0223	0.0009
519.2197	0.0064
519.4171	-0.0017
519.6145	0.0044
519.8118	0.0008
520.0092	-0.0087
520.2065	0.0051
520.4038	-0.0056
520.6011	0.0032
520.7984	0.0053
520.9956	0.0121
521.1929	0.0124
521.3901	0.0044
521.5874	0.0071
521.7846	-0.0015
521.9818	0.0059
522.1789	0.0038
522.3761	0.0147
522.5732	0.004
522.7704	-0.0094
522.9675	-0.0041
523.1646	-0.0034
523.3617	-0.0003
523.5587	-0.0008
523.7558	0.0077
523.9528	0.0053
524.1498	-0.0017
524.3468	0.0049
524.5438	0.0008
524.7408	0.0023
524.9378	-0.0001
525.1347	-0.0002
525.3316	-0.0108
525.5285	-0.0009
525.7254	0.0082
525.9223	0.0095
526.1192	0.001
526.316	0.0002
526.5129	0.0115
526.7097	-0.0028
526.9065	0.0078
527.1033	-0.0069
527.3	-0.002
527.4968	0.0111
527.6935	-0.0016
527.8903	0.0032
528.087	0.0033
528.2837	0.0062
528.4804	-0.0022
528.677	0.0001
528.8737	0.0005
529.0703	-0.0085
529.2669	-0.0008
529.4635	-0.0089
529.6601	-0.0055
529.8567	0.001
530.0532	-0.0031
530.2498	0.003
530.4463	-0.0033
530.6428	-0.0021
530.8393	0.0142
531.0358	-0.0022
531.2322	-0.0019
531.4287	-0.0011
531.6251	-0.013
531.8215	0.0005
532.0179	0.0067
532.2143	0.0011
532.4107	0.0078
532.607	0.0042
532.8034	-0.0025
532.9997	-0.005
533.196	-0.0003
533.3923	0.0149
533.5886	0.0126
533.7848	0.0018
533.9811	0.0047
534.1773	-0.0014
534.3735	-0.0007
534.5697	0.0004
534.7659	0.0029
534.9621	0.0022
535.1582	-0.0052
535.3544	0.0109
535.5505	0.0064
535.7466	-0.0004
535.9427	-0.0005
536.1387	-0.008
536.3348	0.0115
536.5308	0.0038
536.7269	-0.0003
536.9229	-0.0039
537.1189	0.0093
537.3148	-0.0026
537.5108	0.0078
537.7068	0.0089
537.9027	-0.0084
538.0986	0.0054
538.2945	-0.0031
538.4904	-0.0086
538.6863	0.0005
538.8821	0.0069
539.078	-0.0029
539.2738	-0.0075
539.4696	-0.0054
539.6654	0.0057
539.8611	-0.0036
540.0569	0.0005
540.2526	0.0077
540.4484	-0.0032
540.6441	0.0026
540.8398	0.0085
541.0355	-0.0036
541.2311	-0.0011
541.4268	0.0089
541.6224	0.0127
541.818	0.0018
542.0136	0.0085
542.2092	0.0014
542.4048	0.0046
542.6003	-0.0047
542.7959	0.0069
542.9914	0.0074
543.1869	-0.0036
543.3824	0.0006
543.5779	0.0098
543.7734	0.0048
543.9688	0.0069
544.1642	0.0011
544.3596	0.0006
544.555	0.005
544.7504	0.0174
544.9458	0.0046
545.1411	-0.0062
545.3365	0.0043
545.5318	0.0024
545.7271	0.0072
545.9224	0.003
546.1177	0.0077
546.3129	-0.0053
546.5081	0.0019
546.7034	0.0025
546.8986	-0.0029
547.0938	0.0147
547.289	0.0106
547.4841	0.0061
547.6793	0.0031
547.8744	0.0018
548.0695	-0.0026
548.2646	0.0008
548.4597	0.002
548.6548	0.0098
548.8498	0.0048
549.0448	0.0026
549.2399	0.0053
549.4349	-0.0029
549.6298	0.0068
549.8248	0.0008
550.0198	0.0084
550.2147	0.0034
550.4096	-0.0018
550.6045	-0.001
550.7994	-0.0011
550.9943	0.0109
551.1892	-0.0107
551.384	0.0035
551.5788	-0.0014
551.7737	0.008
551.9685	0.0035
552.1632	0.0054
552.358	-0.0066
552.5528	0.0037
552.7475	0.0042
552.9422	0.0082
553.1369	0.0044
553.3316	-0.0052
553.5263	0.0052
553.7209	0.0056
553.9156	0.0041
554.1102	0.013
554.3048	-0.0099
554.4994	0.001
554.694	0.0057
554.8885	0.0115
555.0831	0.0113
555.2776	0.0067
555.4721	0.0019
555.6666	-0.0058
555.8611	0.0003
556.0555	-0.0023
556.25	0.0099
556.4444	-0.0065
556.6388	0.0007
556.8332	0.0031
557.0276	0.0033
557.222	0.0024
557.4163	0.0007
557.6107	-0.0004
557.805	-0.0037
557.9993	0.0055
558.1936	-0.0049
558.3879	0.0051
558.5821	0.0042
558.7764	-0.0003
558.9706	0.0056
559.1648	0.0071
559.359	-0.0005
559.5532	-0.0042
559.7473	-0.0131
559.9415	0.0019
560.1356	0.0108
560.3297	-0.0015
560.5238	0.0038
560.7179	-0.0031
560.9119	0.009
561.106	-0.0128
561.3	0.0022
561.494	-0.0064
561.688	-0.0049
561.882	0.0031
562.076	0.0043
562.2699	0.0027
562.4639	0.0126
562.6578	0.0169
562.8517	-0.0016
563.0456	0.0065
563.2395	0.004
563.4333	0.0021
563.6272	-0.0019
563.821	0.002
564.0148	-0.0046
564.2086	-0.0019
564.4024	0.0108
564.5961	-0
564.7899	0.0211
564.9836	-0.0008
565.1773	0.0113
565.371	0.0065
565.5647	0.0003
565.7584	0.0076
565.952	0.0026
566.1456	-0.0012
566.3393	0.0025
566.5329	0.0038
566.7264	0.0028
566.92	0.0003
567.1136	-0.001
567.3071	-0.0001
567.5006	0.0003
567.6941	0.0016
567.8876	0.0068
568.0811	0.0158
568.2745	-0.0024
568.468	0.0016
568.6614	0.0062
568.8548	0.0062
569.0482	0.0047
569.2416	0.0045
569.4349	0.0088
569.6283	0.0011
569.8216	0.0027
570.0149	0.0014
570.2082	0.005
570.4015	0.0012
570.5947	0.0022
570.788	0.0085
570.9812	0.0001
571.1744	0.0031
571.3676	0.0001
571.5608	0.0044
571.754	0.0055
571.9471	0.0078
572.1402	0.002
572.3333	0.0013
572.5264	0.0046
572.7195	0.0047
572.9126	0.0019
573.1057	0.0038
573.2987	0.0007
573.4917	-0.001
573.6847	0.0024
573.8777	0.0079
574.0707	0.0046
574.2636	0.0043
574.4566	-0.0014
574.6495	0.0001
574.8424	0.0015
575.0353	0.0045
575.2281	0.0066
575.421	0.0008
575.6138	-0.0012
575.8067	0.005
575.9995	-0.002
576.1923	0.005
576.385	0.0007
576.5778	0.0049
576.7706	0.0019
576.9633	0.004
577.156	-0.0034
577.3487	0.0015
577.5414	-0.0023
577.734	0.0003
577.9267	0.0033
578.1193	0.0049
578.3119	0.0014
578.5045	0.0036
578.6971	-0.001
578.8897	0.0033
579.0822	0.0092
579.2747	0.0041
579.4673	0.004
579.6598	0.0018
579.8522	0.0055
580.0447	0.0049
580.2372	0.0091
580.4296	0.0047
580.622	0.0015
580.8144	0.0053
581.0068	0.0033
581.1992	0.0034
581.3915	0.0001
581.5839	0.0026
581.7762	0.0025
581.9685	0.0022
582.1608	0.0015
582.353	0.0031
582.5453	0.0027
582.7375	0.0039
582.9298	0.0022
583.122	0.0008
583.3142	0.0052
583.5063	-0.0007
583.6985	-0.002
583.8906	0.0005
584.0827	0.0062
584.2749	0.0026
584.4669	0.0039
584.659	0.006
584.8511	0.005
585.0431	0.0045
585.2352	0.0013
585.4272	0.0018
585.6192	0.0024
585.8111	0.0044
586.0031	0.001
586.195	0.0029
586.387	0.0022
586.5789	0.0082
586.7708	0.0074
586.9627	-0.0022
587.1545	0.0029
587.3464	0.0008
587.5382	0.0001
587.73	0.007
587.9218	-0.0038
588.1136	-0.0036
588.3053	0.0045
588.4971	0.0034
588.6888	-0.0077
588.8805	0.0012
589.0722	0.0053
589.2639	0.0034
589.4556	0.0092
589.6472	0.0107
589.8389	0.0099
590.0305	0.0011
590.2221	0.008
590.4137	-0.0011
590.6052	-0.0037
590.7968	0.0057
590.9883	-0.0002
591.1798	0.0011
591.3713	0.0005
591.5628	0.0023
591.7543	-0.0054
591.9458	-0.0002
592.1372	0.0029
592.3286	0.0017
592.52	0.0027
592.7114	0.001
592.9028	0.0093
593.0941	0.0015
593.2855	-0.0006
593.4768	0.0129
593.6681	0.0053
593.8594	0.0081
594.0506	0.0037
594.2419	0.0029
594.4331	-0.0035
594.6244	0.0009
594.8156	0.0005
595.0067	-0.0012
595.1979	-0.0059
595.3891	0.0067
595.5802	0.0033
595.7713	0.0099
595.9624	0.0057
596.1535	0.0017
596.3446	0.0007
596.5357	0.0017
596.7267	0.003
596.9177	0.0017
597.1087	0.0007
597.2997	0.0051
597.4907	-0.0059
597.6817	0.0064
597.8726	0.002
598.0635	-0.0002
598.2544	0.0067
598.4453	0.0036
598.6362	0.0012
598.827	0.0038
599.0179	-0.001
599.2087	0.0081
599.3995	0.002
599.5903	0.0065
599.7811	0.0101
599.9718	0.0019
600.1626	0.0002
600.3533	0.0061
600.544	0.0021
600.7347	0.0016
600.9254	0.0096
601.116	0.0031
601.3067	0.0016
601.4973	0.0035
601.6879	-0.0073
601.8785	0.0059
602.0691	0.0006
602.2596	0.003
602.4502	0.0032
602.6407	0.0054
602.8312	0.0043
603.0217	0.0013
603.2122	0.0023
603.4027	0.0017
603.5931	0.0024
603.7835	0.0017
603.9739	0.0018
604.1643	0.0065
604.3547	0.0049
604.5451	0.0022
604.7354	-0.0057
604.9257	-0.002
605.116	-0.0025
605.3063	-0.0017
605.4966	0.0025
605.6869	0.0102
605.8771	0.0022
606.0673	0.0063
606.2575	0.006
606.4477	0.0093
606.6379	-0.0003
606.8281	-0.0026
607.0182	-0.0018
607.2083	0.003
607.3985	0.0016
607.5885	0
607.7786	-0.0005
607.9687	0.003
608.1587	0.0042
608.3488	0.0058
608.5388	-0.006
608.7288	-0.0033
608.9187	0.0023
609.1087	0.0083
609.2986	0.002
609.4886	0.0012
609.6785	-0.0014
609.8684	0.0024
610.0582	0.0027
610.2481	-0.0035
610.4379	0.0027
610.6278	-0.0025
610.8176	0.0047
611.0074	0.0027
611.1971	-0.0023
611.3869	0.0033
611.5766	0.0011
611.7664	0.0004
611.9561	0.0055
612.1458	0.0039
612.3354	0.0022
612.5251	0.0017
612.7147	0.0046
612.9044	-0.0038
613.094	0.0032
613.2836	0.004
613.4731	-0.0012
613.6627	0.0021
613.8522	-0.0038
614.0417	0.0095
614.2313	0.0093
614.4207	0.0119
614.6102	0.0097
614.7997	0.0039
614.9891	-0.0009
615.1785	0.0011
615.3679	-0.0001
615.5573	0.0021
615.7467	-0.0054
615.9361	0.0002
616.1254	0.0019
616.3147	0.0108
616.504	-0.003
616.6933	-0.0061
616.8826	0.0004
617.0718	0.0146
617.2611	0.0037
617.4503	-0.0026
617.6395	0.0053
617.8287	0.0028
618.0179	0.0034
618.207	0.0092
618.3961	-0.0081
618.5853	-0.0067
618.7744	0.0047
618.9634	0.012
619.1525	-0.0005
619.3416	0.002
619.5306	0.0034
619.7196	0.0075
619.9086	-0.0029
620.0976	-0.0128
620.2866	0.0107
620.4755	-0.0034
620.6645	0.0077
620.8534	0.0034
621.0423	-0.0116
621.2312	0.0018
621.42	-0.003
621.6089	0.0052
621.7977	0.012
621.9865	0.0012
622.1753	-0.0098
622.3641	-0.003
622.5529	-0.0089
622.7416	-0.0016
622.9303	-0.0044
623.1191	-0.0049
623.3078	-0.0014
623.4964	0.009
623.6851	-0.0044
623.8737	0.005
624.0624	-0.0114
624.251	0.0017
624.4396	0.0041
624.6282	0.0064
624.8167	-0.0023
625.0053	0.0034
625.1938	0.0021
625.3823	0.0015
625.5708	-0.0063
625.7593	-0.0008
625.9477	0.0049
626.1362	-0.0058
626.3246	-0.0089
626.513	-0.0033
626.7014	0.0031
626.8898	0.004
627.0781	0.0017
627.2665	0.0101
627.4548	-0.0019
627.6431	0.007
627.8314	0.0085
628.0197	0.0171
628.2079	0.0026
628.3962	-0.0054
628.5844	-0.0022
628.7726	0.0078
628.9608	0.0006
629.1489	-0.0042
629.3371	-0.0048
629.5252	-0.0025
629.7134	0.0028
629.9015	0.0066
630.0895	-0.0117
630.2776	0.0056
630.4657	0.0044
630.6537	0.0035
630.8417	-0.0182
631.0297	-0.009
631.2177	-0.0047
631.4057	0.0027
631.5936	-0.0068
631.7815	-0.0098
631.9695	0.017
632.1574	0.004
632.3452	0.0019
632.5331	-0.01
632.7209	0.0129
632.9088	-0.0034
633.0966	0.0175
633.2844	-0.007
633.4722	0.0072
633.6599	0.0232
633.8477	-0.003
634.0354	0.0085
634.2231	-0.0077
634.4108	0.0054
634.5985	0.0252
634.7861	0.0096
634.9738	-0.0028
635.1614	0.0127
635.349	-0.0063
635.5366	0.0069
635.7242	-0.0109
635.9117	0.0076
636.0993	0.0089
636.2868	-0.0023
636.4743	0.0062
636.6618	-0.0049
636.8492	-0.0046
637.0367	-0.0067
637.2241	0.0074
637.4115	0.0171
637.5989	-0.0036
637.7863	0.0249
637.9737	-0.0076
638.161	0.007
638.3484	-0.0207
638.5357	-0
638.723	-0.0053
638.9103	-0.0152
639.0975	0.0027
639.2848	0.002
639.472	0.0039
639.6592	-0.0091
639.8464	-0.0041
640.0336	0.0021
640.2208	-0.0045
640.4079	-0.0178
640.595	-0.0137
640.7821	0.0223
640.9692	-0.0064
641.1563	0.0071
641.3434	0.0004
641.5304	0.0319
641.7174	0.0097
641.9044	-0.0028
642.0914	0.011
642.2784	-0.0012
642.4653	-0.0112
642.6523	0.0055
642.8392	0.0002
643.0261	0.0011
643.213	-0.0024
643.3999	0.0117
643.5867	0.0089
643.7735	-0.0026
643.9604	0.0062
644.1472	0.0217
644.3339	-0.0012
644.5207	-0.0076
644.7075	0.0002
644.8942	-0.0075
645.0809	0.009
645.2676	-0.0056
645.4543	0.0007
645.6409	0.0046
645.8276	0.0015
646.0142	-0.0024
646.2008	0.0049
646.3874	-0.0055
646.574	-0.0088
646.7605	-0.0169
646.9471	-0.0088
647.1336	-0.0225
647.3201	-0.0015
647.5066	-0.0061
647.6931	-0.0051
647.8795	0.0022
648.0659	-0.009
648.2524	0.0005
648.4388	-0
648.6252	0.0123
648.8115	0.0017
648.9979	-0.0045
649.1842	0.0107
649.3705	0.016
649.5568	-0.028
649.7431	-0.0032
649.9294	-0.0124
650.1156	-0.0144
650.3018	0.0027
650.488	0.0045
650.6742	0.021
650.8604	0.0189
651.0466	0.0059
651.2327	-0.0084
651.4188	0.0126
651.6049	0.0082
651.791	-0.0041
651.9771	0.0181
652.1632	0.0052
652.3492	0.0075
652.5352	0.0069
652.7212	0.0024
652.9072	0.0055
653.0932	0.0085
653.2791	0.01
653.465	0.0008
653.651	-0.0078
653.8369	0.0008
654.0227	-0.0115
654.2086	0.0018
654.3944	0.0179
654.5803	-0.002
654.7661	0.001
654.9519	0.0008
655.1377	0.0001
655.3234	0.0001
655.5092	0.0001
655.6949	0.0001
655.8806	0.0001
656.0663	0.0001
656.2519	0.0001
656.4376	0.0001
656.6232	0.0001
656.8088	0.0001
656.9945	0.0001
657.18	0.0001
657.3656	0.0001
657.5511	0.0001
657.7367	0.0001
657.9222	0.0001
658.1077	0.0001
658.2932	0.0001
658.4786	0.0001
658.6641	0.0001
658.8495	0.0001
659.0349	0.0001
659.2203	0.0001
659.4057	0.0001
659.591	0.0779
659.7764	0.0212
659.9617	0.0026
660.147	-0.0002
660.3323	0.0115
660.5176	-0.0022
660.7028	-0.0007
660.888	0.0083
661.0733	0.0062
661.2585	-0.0081
661.4436	0.0166
661.6288	0.0302
661.8139	-0.0075
661.9991	-0.0239
662.1842	-0.0073
662.3693	0.0056
662.5544	0.006
662.7394	0.0055
662.9245	0.0094
663.1095	-0.0068
663.2945	-0.0201
663.4795	-0.0231
663.6644	-0.0104
663.8494	0.0087
664.0343	0.0031
664.2193	-0.0044
664.4042	-0.0112
664.589	0.0034
664.7739	0.0054
664.9587	-0.0179
665.1436	-0.0217
665.3284	-0.002
665.5132	-0.0141
665.698	0.0325
665.8827	0.0082
666.0675	-0.0206
666.2522	0.0006
666.4369	-0.0141
666.6216	0.0003
666.8063	0.0024
666.9909	0.0027
667.1756	0.0131
667.3602	-0.0033
667.5448	0.0075
667.7294	0.0236
667.9139	-0.0157
668.0985	0.0003
668.283	0.0184
668.4675	0.0227
668.652	0.0006
668.8365	-0.0102
669.0209	0.0045
669.2054	0.0029
669.3898	0.0032
669.5742	0.0303
669.7586	0.0085
669.943	-0.0015
670.1273	-0.0013
670.3117	0.0127
670.496	-0.001
670.6803	-0.0006
670.8646	-0.0063
671.0488	0.0162
671.2331	-0.0187
671.4173	-0.0036
671.6015	0.0026
671.7857	-0.0084
671.9699	0.0007
672.1541	-0.0078
672.3382	0.0061
672.5223	0.0032
672.7064	-0.0128
672.8905	0.0086
673.0746	-0.0048
673.2587	0.0279
673.4427	0.0111
673.6267	-0.0093
673.8107	0.0213
673.9947	0.0172
674.1787	-0.0117
674.3626	-0.009
674.5465	0.0064
674.7304	0.0033
674.9143	-0.0145
675.0982	-0.0107
675.2821	-0.0074
675.4659	0.0062
675.6497	0.014
675.8335	-0.0121
676.0173	-0.0034
676.2011	0.0051
676.3849	-0.0125
676.5686	0.0189
676.7523	-0.0069
676.936	0.0153
677.1197	-0.0204
677.3034	0.0379
677.487	0.0144
677.6706	0.0094
677.8542	-0.0013
678.0378	0.0005
678.2214	0.006
678.405	0.0141
678.5885	-0.0007
678.772	0.0059
678.9555	-0.0076
679.139	0.006
679.3225	0.0015
679.5059	0.0081
679.6894	0.0054
679.8728	0.0002
680.0562	-0.0057
680.2395	-0.0144
680.4229	0.0032
680.6062	0.0028
680.7896	-0.0293
680.9729	0.0103
681.1562	-0.0134
681.3394	0.0016
681.5227	0.0028
681.7059	0.0025
681.8891	0.0048
682.0723	0.008
682.2555	-0.0025
682.4387	0.0204
682.6218	0.0151
682.805	0.009
682.9881	-0.0003
683.1712	0.0077
683.3542	0.0056
683.5373	-0.0085
683.7203	-0.0085
683.9034	-0.0264
684.0864	-0.0031
684.2694	0.0092
684.4523	0.0057
684.6353	-0.0057
684.8182	-0.0152
685.0011	0.0003
685.184	-0.0005
685.3669	0.0119
685.5498	-0.008
685.7326	-0.0095
685.9154	-0.0038
686.0982	0.0018
686.281	-0.0116
686.4638	-0.0008
686.6465	-0.0185
686.8293	-0.0109
687.012	0.0143
687.1947	-0.0006
687.3774	0.0144
687.56	-0.0139
687.7427	0.0125
687.9253	-0.026
688.1079	-0
688.2905	-0.0069
688.4731	0.0095
688.6556	-0.0072
688.8382	-0.0383
689.0207	-0.004
689.2032	0.004
689.3857	-0.0008
689.5681	-0.0218
689.7506	0.0173
689.933	-0.0116
690.1154	0.0144
690.2978	-0.0139
690.4802	0.0002
690.6626	-0.0007
690.8449	0.0082
691.0272	0.0002
691.2095	-0.0252
691.3918	-0.0071
691.5741	0.012
691.7563	0.0009
691.9386	0.0217
692.1208	0.0084
692.303	-0.0158
692.4852	-0.0087
692.6673	-0.0124
692.8495	-0.0007
693.0316	0.007
693.2137	0.0102
693.3958	-0.004
693.5778	-0.0003
693.7599	-0.0199
693.9419	-0.0253
694.1239	0.0157
694.3059	-0.0098
694.4879	-0.0205
694.6699	-0.0158
694.8518	0.0005
695.0337	0.0183
695.2157	0.0275
695.3975	-0.0025
695.5794	-0.0225
695.7613	0.0076
695.9431	-0.012
696.1249	0.0308
696.3067	0.001
696.4885	0.0201
696.6703	0.0073
696.852	-0.004
697.0337	0.0134
697.2154	0.0074
697.3971	-0.0081
697.5788	0.0118
697.7605	-0.0234
697.9421	0.0034
698.1237	-0.0015
698.3053	-0.0133
698.4869	-0.0116
698.6685	0.0036
698.85	-0.0003
699.0315	-0.0096
699.213	0.0146
699.3945	-0.0218
699.576	0.0266
699.7575	0.0174
699.9389	-0.0073
700.1203	0.0142
700.3017	-0.0066
700.4831	0.013
700.6645	0.0227
700.8458	-0.0113
701.0271	0.0168
701.2084	0.0127
701.3897	0.0117
701.571	-0.0431
701.7523	-0.0014
701.9335	0.0203
702.1147	0.021
702.2959	-0.0094
702.4771	0.0018
702.6583	-0.0069
702.8394	-0.0107
703.0205	0.022
703.2016	0.0165
703.3827	-0.0177
703.5638	-0.016
703.7449	0.0061
703.9259	0.0264
704.1069	-0.0133
704.2879	-0.0176
704.4689	-0.0218
704.6499	-0.0045
704.8308	-0.0055
705.0117	0.0015
705.1927	0.0125
705.3735	-0.0215
705.5544	-0.004
705.7353	-0.0164
705.9161	-0.0403
706.0969	0.0064
706.2777	0.0148
706.4585	-0.0052
706.6393	0.0129
706.82	0.0125
707.0007	-0.011
707.1815	0.0011
707.3621	0.0305
707.5428	0.011
707.7235	0.0032
707.9041	0.0062
708.0847	0.0031
708.2653	0.033
708.4459	0.0036
708.6265	-0.0238
708.807	0.0049
708.9875	-0.0276
709.168	0.0004
709.3485	0.009
709.529	-0.0091
709.7095	-0.0211
709.8899	-0.0106
710.0703	0.0135
710.2507	-0.0028
710.4311	-0.0209
710.6115	0.0106
710.7918	0.0326
710.9721	0.0003
711.1524	-0.0472
711.3327	-0.0237
711.513	-0.0059
711.6932	-0.0206
711.8735	-0.0183
712.0537	-0.0478
712.2339	0.0085
712.4141	0.0075
712.5942	-0.004
712.7744	0.0161
712.9545	0.0136
713.1346	0.0258
713.3147	-0.0022
713.4947	-0.0022
713.6748	-0.0026
713.8548	0.0126
714.0348	0.0062
714.2148	-0.0061
714.3948	0.0116
714.5748	0.0055
714.7547	0.0112
714.9346	-0.0032
715.1145	-0.0036
715.2944	-0.0196
715.4743	0.0023
715.6541	-0.0114
715.834	0.0146
716.0138	-0.0099
716.1936	-0.01
716.3733	-0.0153
716.5531	0.0103
716.7328	0.0305
716.9126	0.0216
717.0923	-0.0256
717.2719	0.0092
717.4516	-0.0008
717.6312	-0.0246
717.8109	0.0261
717.9905	0.0046
718.1701	0.032
718.3496	-0.0112
718.5292	-0.0148
718.7087	-0.0041
718.8882	0.0034
719.0677	-0.0221
719.2472	-0.0131
719.4267	0.0015
719.6061	-0.0034
719.7856	0.0333
719.965	0.0098
720.1443	-0.0062
720.3237	-0.007
720.5031	-0.0105
720.6824	-0.0038
720.8617	0.0034
721.041	0.0224
721.2203	-0.0139
721.3995	-0.0106
721.5788	-0.0074
721.758	0.0114
721.9372	0.0012
722.1164	-0.0152
722.2956	0.0035
722.4747	-0.0099
722.6538	-0.0039
722.8329	0.0573
723.012	-0.0092
723.1911	0.0051
723.3702	-0.0118
723.5492	-0.0026
723.7282	0.0017
723.9072	0.0056
724.0862	0.0164
724.2652	-0.0131
724.4441	-0.0393
724.623	-0.0037
724.8019	-0.0025
724.9808	0.0007
725.1597	-0.0051
725.3385	0.0024
725.5174	0.0113
725.6962	-0.0007
725.875	0.0179
726.0538	0.0116
726.2325	0.009
726.4112	-0.0081
726.59	-0.011
726.7687	-0.0126
726.9474	0.0211
727.126	0.005
727.3047	-0.0211
727.4833	0.0122
727.6619	0.0161
727.8405	0.0003
728.0191	0.0308
728.1976	-0.0018
728.3762	0.0087
728.5547	-0.0108
728.7332	-0.0129
728.9116	0.0106
729.0901	-0.0009
729.2686	0.0147
729.447	-0.0009
729.6254	0.0035
729.8038	-0.005
729.9821	-0.0274
730.1605	-0.0091
730.3388	-0.0167
730.5171	0.0015
730.6954	-0.0141
730.8737	0.0012
731.0519	-0.0228
731.2302	0.0131
731.4084	-0.0058
731.5866	-0.0032
731.7648	-0.0101
731.9429	0.0088
732.1211	0.0117
732.2992	-0.0026
732.4773	0.0046
732.6554	-0.0223
732.8335	0.0175
733.0115	-0.006
733.1896	-0.0074
733.3676	0.0109
733.5456	-0.0108
733.7235	-0.0179
733.9015	0.0116
734.0794	-0.0162
734.2574	-0.0203
734.4353	0.005
734.6131	-0.0014
734.791	-0.0165
734.9689	-0.0028
735.1467	-0.0098
735.3245	0.0169
735.5023	-0.0078
735.68	-0
735.8578	-0.0072
736.0355	-0.0069
736.2132	-0.0055
736.3909	0.0027
736.5686	-0.0081
736.7463	-0.0143
736.9239	0.0109
737.1015	0.0086
737.2791	0.0139
737.4567	-0.0043
737.6343	-0.0092
737.8118	0.0154
737.9894	-0.0205
738.1669	-0.005
738.3444	0.0318
738.5218	-0.0146
738.6993	0.0126
738.8767	0.0065
739.0541	-0.0017
739.2315	0.0178
739.4089	-0.0091
739.5863	0.0013
739.7636	-0.0072
739.9409	-0.0054
740.1182	-0.0184
740.2955	0.0082
740.4728	-0.0069
740.65	-0.016
740.8272	0.0175
741.0044	-0.0222
741.1816	0.0307
741.3588	-0.0333
741.5359	-0.0238
741.7131	0.0125
741.8902	0.0286
742.0673	-0.0229
742.2444	0.0128
742.4214	0.0065
742.5985	-0.0074
742.7755	-0.0182
742.9525	-0.0225
743.1295	-0.0334
743.3064	0.0064
743.4834	0.0219
743.6603	0.0142
743.8372	-0.0672
744.0141	0.017
744.191	-0.0019
744.3678	-0.0121
744.5446	-0.0245
744.7215	0.0081
744.8982	0.0069
745.075	0.0502
745.2518	-0.0023
745.4285	-0.0118
745.6052	-0.0425
745.7819	0.0052
745.9586	-0.0203
746.1353	-0.0267
746.3119	-0.0037
746.4885	0.0338
746.6651	-0.0148
746.8417	-0.0046
747.0183	0.0281
747.1948	0.0043
747.3714	-0.0042
747.5479	0.003
747.7244	-0.0139
747.9008	-0.0153
748.0773	0.0382
748.2537	0.0163
748.4301	0.0487
748.6065	-0.0372
748.7829	0.0017
748.9593	0.0108
749.1356	0.0045
749.3119	0.0132
749.4882	0.0295
749.6645	0.003
749.8408	0.0079
750.017	0.0241
750.1933	-0.0221
750.3695	0.0056
750.5457	-0.0064
750.7218	-0.0091
750.898	-0.0216
751.0741	-0.011
751.2502	0.0037
751.4263	-0.0182
751.6024	-0.0093
751.7784	-0.0066
751.9545	0.0231
752.1305	-0.0127
752.3065	0.0098
752.4825	-0.0107
752.6584	0.0051
752.8344	-0.0026
753.0103	-0.0054
753.1862	0.0029
753.3621	-0.0029
753.5379	0.0112
753.7138	0.001
753.8896	-0.009
754.0654	-0.0112
754.2412	0.0094
754.417	0.0061
754.5927	0.0238
754.7685	0.0029
754.9442	0.025
755.1199	-0.0055
755.2956	0.0075
755.4712	0.0108
755.6469	0.002
755.8225	-0.0022
755.9981	-0.0059
756.1736	0.0079
756.3492	-0.0039
756.5248	0.024
756.7003	0.0009
756.8758	-0.0163
757.0513	-0.0016
757.2267	0.007
757.4022	0.0016
757.5776	-0.0075
757.753	0.0172
757.9284	0.0098
758.1038	0.013
758.2791	-0.0077
758.4545	-0.0227
758.6298	0.0054
758.8051	0.0178
758.9803	-0.0031
759.1556	-0.0005
759.3308	0.0009
759.506	0.008
759.6812	-0.0015
759.8564	0.0152
760.0316	-0.0091
760.2067	0.0093
760.3819	0.0016
760.557	-0
760.732	-0.004
760.9071	0.0016
761.0821	0.0075
761.2572	0.0039
761.4322	-0.0006
761.6072	-0.0064
761.7821	-0.0184
761.9571	0.0373
762.132	-0.0079
762.3069	-0.006
762.4818	0.0023
762.6567	-0.0235
762.8316	0.0007
763.0064	0.0142
763.1812	0.0035
763.356	-0.0175
763.5308	0.0276
763.7055	-0.0144
763.8803	-0.0086
764.055	-0.0098
764.2297	0.0146
764.4044	0.0132
764.579	-0.0059
764.7537	-0.0016
764.9283	0.0163
765.1029	0.0031
765.2775	-0.0039
765.4521	0.0031
765.6266	-0.0093
765.8011	-0.0034
765.9756	0.0117
766.1501	-0.0153
766.3246	0.0009
766.4991	-0.0137
766.6735	0.0174
766.8479	-0.0188
767.0223	-0.0022
767.1967	-0.0062
767.371	0.0184
767.5454	0.0071
767.7197	0.0169
767.894	-0.0056
768.0683	-0.0014
768.2425	0.0085
768.4168	0.0043
768.591	0.0128
768.7652	-0.0159
768.9394	-0.0137
769.1135	-0.0261
769.2877	-0.0062
769.4618	0.009
769.6359	-0.016
769.81	0.0137
769.984	-0.0151
770.1581	0.006
770.3321	0.0059
770.5061	-0.0175
770.6801	0.017
770.8541	0.0201
771.028	0.0414
771.202	0.0197
771.3759	0.0145
771.5498	0.0089
771.7236	-0.0231
771.8975	-0.013
772.0713	0.0111
772.2451	-0.0223
772.4189	-0.0096
772.5927	-0.0245
772.7665	-0.021
772.9402	0.0032
773.1139	-0.012
773.2876	-0.0298
773.4613	0.012
773.635	0.0585
773.8086	0.0545
773.9822	0.0382
774.1558	0.0224
774.3294	-0.027
774.503	-0.0123
774.6765	0.0489
774.8501	0.0027
775.0236	0.0194
775.1971	-0.0295
775.3705	-0.0039
775.544	-0.0486
775.7174	0.034
775.8908	0.0097
776.0642	0.0185
776.2376	0.0196
776.4109	-0.0026
776.5843	-0.007
776.7576	0.012
776.9309	0.0448
777.1041	-0.0333
777.2774	0.0042
777.4506	-0.0217
777.6238	-0.0078
777.797	0.0158
777.9702	0.0066
778.1434	-0.031
778.3165	0.0006
778.4896	-0.0036
778.6627	0.0047
778.8358	-0.0029
779.0089	-0.0346
779.1819	-0.0122
779.3549	-0.0209
779.5279	-0.0128
779.7009	0.0822
779.8739	0.0248
780.0468	-0.0049
780.2197	0.0404
780.3926	-0.0217
780.5655	-0.0163
780.7384	0.0031
780.9112	0.008
781.0841	0.0557
781.2569	0.0179
781.4297	-0
781.6024	0.0115
781.7752	0.0436
781.9479	0.062
782.1206	-0.014
782.2933	0.0092
782.466	-0.0037
782.6386	-0.0341
782.8113	0.0154
782.9839	-0.0127
783.1565	0.0296
783.329	-0.0225
783.5016	-0.0151
783.6741	-0.0018
783.8466	0.0258
784.0191	0.0055
784.1916	-0.017
784.3641	-0.0468
784.5365	0.0031
784.7089	-0.0235
784.8813	0.0259
785.0537	0.009
785.2261	-0.021
785.3984	-0.0055
785.5707	0.0173
785.743	0.0197
785.9153	-0.0382
786.0876	-0.0323
786.2598	0.006
786.432	-0.0066
786.6042	0.028
786.7764	-0.0118
786.9486	0.0126
787.1207	0.0241
787.2928	0.005
787.4649	-0.0071
787.637	-0.0201
787.8091	-0.0006
787.9811	0.0117
788.1532	0.0315
788.3252	-0.0092
788.4972	-0.0071
788.6691	0.0341
788.8411	-0.0183
789.013	0.0089
789.1849	0.0071
789.3568	-0.026
789.5287	0.0435
789.7005	-0.0239
789.8723	0.0182
790.0442	0.0406
790.2159	-0.0588
790.3877	0.009
790.5595	0.0334
790.7312	0.005
790.9029	-0.0575
791.0746	-0.0134
791.2463	-0.0494
791.4179	0.0074
791.5896	0.0478
791.7612	-0.0214
791.9328	0.0178
792.1044	0.0011
792.2759	0.0443
792.4474	0.0251
792.619	0.008
792.7905	0.0784
792.9619	0.0743
793.1334	0.0491
793.3048	0.0552
793.4762	-0
793.6476	-0.0148
793.819	-0.0125
793.9904	0.0067
794.1617	-0.0248
794.333	-0.0215
794.5043	-0.0267
794.6756	0.0012
794.8469	0.0018
795.0181	-0.0038
795.1893	0.021
795.3605	0.0061
795.5317	0.0024
795.7029	-0.0574
795.874	0.022
796.0452	0.0166
796.2163	0.0981
796.3873	0.0732
796.5584	0.0714
796.7294	-0.0189
796.9005	-0.0029
797.0715	0.0016
797.2425	0.0454
797.4134	0.0893
797.5844	-0.011
797.7553	-0.0774
797.9262	0.0533
798.0971	0.018
798.2679	0.011
798.4388	-0.0209
798.6096	0.0209
798.7804	0.0435
798.9512	0.0082
799.122	-0.0473
799.2927	0.0123
799.4635	-0.0424
799.6342	-0.0505
799.8049	0.0268
799.9755	-0.0432
800.1462	0.0296
800.3168	0.0257
800.4874	-0.1002
800.658	-0.0107
800.8286	-0.0122
800.9991	0.0111
801.1696	-0.0282
801.3402	-0.0196
801.5106	-0.0607
801.6811	0.0256
801.8516	0.0544
802.022	-0.0075
802.1924	-0.1049
802.3628	-0.0116
802.5332	0.0357
802.7035	-0.0125
802.8739	-0.0077
803.0442	0.0411
803.2145	-0.0113
803.3847	-0.0122
803.555	0.0524
803.7252	-0.0242
803.8954	-0.0286
804.0656	-0.0119
804.2358	0.0148
804.4059	0.0174
804.5761	-0.0239
804.7462	-0.0316
804.9163	0.057
805.0864	-0.0367
805.2564	-0.0221
805.4264	0.0996
805.5965	0.0444
805.7665	0.0267
805.9364	-0.0372
806.1064	-0.038
806.2763	0.0531
806.4462	0.0009
806.6161	0.0423
806.786	-0.0079
806.9559	0.0312
807.1257	-0.0313
807.2955	-0.0618
807.4653	-0.0129
807.6351	-0.0261
807.8048	0.0083
807.9746	-0.0493
808.1443	-0.0375
808.314	0.0668
808.4837	0.06
808.6533	0.0111
808.8229	0.0421
808.9926	0.0443
809.1622	0.0444
809.3317	-0.0638
809.5013	-0.0161
809.6708	0.0084
809.8403	0.0199
810.0098	0.0691
810.1793	0.0394
810.3488	-0.0576
810.5182	0.1105
810.6876	0.0448
810.857	0.0825
811.0264	0.0025
811.1958	0.1278
811.3651	-0.0404
811.5344	0.1191
811.7037	0.0734
811.873	0.0787
812.0422	-0.0774
812.2115	0.0415
812.3807	-0.0128
812.5499	-0.0536
812.7191	-0.076
812.8882	-0.1361
813.0574	0.0297
813.2265	0.0708
813.3956	-0.0183
813.5646	0.0581
813.7337	0.0127
813.9027	-0.0101
814.0718	-0.022
814.2407	0.1278
814.4097	0.0528
814.5787	0.0672
814.7476	0.0591
814.9165	-0.0178
815.0854	-0.0948
815.2543	0.1114
815.4232	0.0284
815.592	0.0799
815.7608	-0.2078
815.9296	-0.0374
816.0984	0.0405
816.2671	-0.3269
816.4359	0.0865
816.6046	-0.0323
816.7733	-0.0168
816.942	-0.078
817.1106	0.3454
817.2793	-0.0813
817.4479	0.0368
817.6165	0.027
817.785	0.1126
817.9536	-0.0294
818.1221	-0.056
818.2906	-0.0446
818.4591	-0.0066
818.6276	0.0631
818.7961	-0.0187
818.9645	0.0428
819.1329	0.0679
819.3013	0.0296
819.4697	0.0975
819.638	0.1181
819.8064	0.0341
819.9747	0.0989
820.143	-0.138
820.3113	-0.0184
820.4795	0.0972
820.6477	0.0618
820.816	0.0068
820.9842	0.1298
821.1523	0.0413
821.3205	-0.035
821.4886	-0.002
821.6567	-0.0928
821.8248	0.0967
821.9929	-0.2027
822.1609	0.0534
822.329	-0.0369
822.497	0.0306
822.665	-0.0517
822.833	-0.0184
823.0009	-0.0035
823.1688	-0.0326
823.3367	-0.1713
823.5046	0.1672
823.6725	-0.0346
823.8404	-0.117
824.0082	-0
824.176	-0.0943
824.3438	0.1134
824.5116	-0.0095
824.6793	0.1041
824.847	-0.0115
825.0147	0.0775
825.1824	0.112
825.3501	-0.1366
825.5177	0.0326
825.6854	0.1076
825.853	0.0844
826.0206	-0.0477
826.1881	0.0073
826.3557	-0
826.5232	0.1528
826.6907	0.0267
826.8582	-0.0523
827.0257	0.0672
827.1931	0.0344
827.3605	-0.0672
827.528	-0.1332
827.6953	-0.156
827.8627	-0.0957
828.03	0.0258
828.1974	0.146
828.3647	0.128
828.532	0.0545
828.6992	0.0874
828.8665	-0.1864
829.0337	0.0393
829.2009	-0.1779
829.3681	0.0262
829.5352	0.0172
829.7024	0.0608
829.8695	-0.0467
830.0366	0.1797
830.2037	0.1687
830.3707	0.0926
830.5378	-0.0471
830.7048	-0.0046
830.8718	0.1128
831.0388	-0.1281
831.2057	0.6677
831.3727	-0.3254
831.5396	0.1558
831.7065	-0.9986
831.8734	0.0257
832.0402	0.1993
832.2071	-0.0692
832.3739	0.1844
832.5407	-1.773
832.7075	-0.3588
832.8742	0.4679
833.041	0.1722
833.2077	-0.023
833.3744	0.0953
833.541	0.0439
833.7077	-0
833.8743	0.0042
834.0409	0.0582
834.2075	0.2464
834.3741	-0.1676
834.5407	0.2548
834.7072	0.0205
834.8737	0.1825
835.0402	0.0762
835.2067	0.3607
835.3731	-0.0556
835.5395	-0.0651
835.706	-0.1809
835.8723	0.3673
836.0387	0.357
836.2051	-0.0533
836.3714	0.164
836.5377	0.0417
836.704	0.2277
836.8703	-0.2015
837.0365	-0.6056
837.2027	0.0331
837.3689	0.2034
837.5351	0.0594
837.7013	0.0529
837.8674	-0
838.0335	-0.0761
838.1997	0.1343
838.3657	-0
838.5318	-0.2343
838.6978	-0
838.8639	0.1053
839.0299	-0.1341
839.1958	0.0434
839.3618	-0
839.5277	0.1409
839.6937	0.0928
839.8596	-0.2215
840.0254	-0.2199
840.1913	1.6247
840.3571	-0.1775
840.523	-0
840.6888	0.0125
840.8545	-0.2087
841.0203	0.1083
841.186	0.0387
841.3517	-0.2215
841.5174	-0.0052
841.6831	0.0863
841.8488	0.227
842.0144	-0
842.18	0.5939
842.3456	-0.5086
842.5112	-0
842.6767	0.5627
842.8422	-0.0977
843.0077	0.1741
843.1732	-0.3547
843.3387	0.1789
843.5042	-0
843.6696	-0
843.835	-0.3338
844.0004	-0.2492
844.1657	-0
844.3311	-0
844.4964	-0.3582
844.6617	0.2239
844.827	0.4792
844.9923	0.1771
845.1575	-0.257
845.3227	-0.4029
845.4879	-0.2776
845.6531	0.5444
845.8183	0.3639
845.9834	0.9475
846.1485	0.653
846.3136	-0.129
846.4787	-0
846.6438	-0.1995
846.8088	0.2314
846.9738	-0.3634
847.1388	0.2102
847.3038	0.2262
847.4687	-0
847.6337	-0.168
847.7986	-0.0895
847.9635	-0.0957
848.1284	-0
848.2932	0.0675
848.458	-0
848.6228	-0
848.7876	-0
848.9524	-0.4645
849.1172	-1.9868
849.2819	-0
849.4466	0.4822
849.6113	1.0678
849.7759	-0
849.9406	-0.1905
850.1052	-0.8643
850.2698	0.3708
850.4344	-0.7693
850.599	-0
850.7635	0.1407
850.928	1.3003
851.0925	0.3381
851.257	0.1592
851.4215	0.172
851.5859	0.0362
851.7503	-0.2238
851.9147	-0
852.0791	-0.1628
852.2434	0.4892
852.4078	-0
852.5721	-0
852.7364	0.3992
852.9007	-0.108
853.0649	0.1178
853.2291	0.1688
853.3934	-0
853.5575	0.5935
853.7217	0.1371
853.8859	-0.0392
854.05	-0.024
854.2141	0.2621
854.3782	-0.167
854.5423	-0.0468
854.7063	-0.1419
854.8703	-0.1065
855.0343	-0.1858
855.1983	0.1853
855.3623	0.3219
855.5262	-0.1542
855.6901	0.3287
855.854	0.1543
856.0179	-0.3345
856.1818	-0
856.3456	0.2101
856.5094	-0.259
856.6732	0.1631
856.837	-1.5727
857.0008	-0
857.1645	-0
857.3282	-0.5226
857.4919	0.0241
857.6556	-0.2938
857.8192	0.0225
857.9828	-0.0529
858.1465	0.07
858.31	-0
858.4736	-0.4654
858.6372	-0.4083
858.8007	-0
858.9642	0.8538
859.1277	1.1978
859.2911	-0.6241
859.4546	-0.9138
859.618	0.3752
859.7814	-0.2358
859.9448	-0
860.1081	-0
860.2715	-1.7602
860.4348	0.0855
860.5981	0.1668
860.7614	-0
860.9246	-0.2342
861.0879	0.0114
861.2511	-0.8789
861.4143	-0
861.5774	0.9785
861.7406	0.7798
861.9037	-0.8728
862.0668	-0
862.2299	0.7949
862.393	-0
862.556	-0
862.7191	0.0288
862.8821	0.3894
863.0451	0.5112
863.208	-0.3997
863.371	-0
863.5339	0.2707
863.6968	-0
863.8597	-0.027
864.0225	-0
864.1854	-0.0898
864.3482	-1.1962
864.511	-0.3258
864.6737	0.0701
864.8365	-0
864.9992	-0
865.1619	-0.3462
865.3246	-0
865.4873	-0
865.65	-0.0317
865.8126	-0
865.9752	0.0771
866.1378	0.0344
866.3004	0.4746
866.4629	-2.0639
866.6254	-0
866.7879	0.9013
866.9504	-0
867.1129	-0.5652
867.2753	-0.1233
867.4377	-0
867.6001	-0
867.7625	-0.2323
867.9249	0.1087
868.0872	0.4315
868.2495	-0
868.4118	-0
868.5741	0.5215
868.7363	-0.7316
868.8986	-0.1324
869.0608	-0
869.223	-0.3665
869.3851	-0.2887
869.5473	-0.0993
869.7094	-0
869.8715	-0.1069
870.0336	-0.0562
870.1957	-0
870.3577	0.4314
870.5197	-0.1887
870.6817	-0.768
870.8437	-0.4519
871.0057	0.2523
871.1676	0.124
871.3295	-0
871.4914	-0
871.6533	0.3203
871.8151	0.2608
871.977	-0
872.1388	0.7376
872.3006	-0.79
872.4623	-0.8005
872.6241	-0
872.7858	-0.0658
872.9475	-0
873.1092	-0.0399
873.2709	0.5227
873.4325	-2.1067
873.5941	-0
873.7557	-0.1878
873.9173	-0.0551
874.0789	0.9493
874.2404	-0
874.4019	-0.2044
874.5634	-0
874.7249	0.4072
874.8863	-0
875.0478	-0.216
875.2092	0.5372
875.3706	0.3718
875.5319	-0
875.6933	0.1129
875.8546	-0.4337
876.0159	-0
876.1772	-0
876.3385	-0
876.4997	1.0873
876.6609	-0.052
876.8221	-0
876.9833	-0.256
877.1445	0.3397
877.3056	-0
877.4667	-0.7971
877.6278	0.192
877.7889	0.5175
877.9499	-0
878.111	-0.4445
878.272	-0.3706
878.433	-0.068
878.5939	0.0988
878.7549	-0.0619
878.9158	0.6857
879.0767	-0
879.2376	-0
879.3984	0.9493
879.5593	0.2612
879.7201	-1.773
879.8809	0.2382
880.0417	0.0334
880.2024	0.178
880.3632	-0.3088
880.5239	0.4748
880.6846	0.1868
880.8452	0.43
881.0059	-0
881.1665	-0.1651
881.3271	-0
881.4877	0.1692
881.6483	-0
881.8088	-0
881.9693	-0
882.1298	-0
882.2903	-0
