Data from D4ACN5uM460nmA_Absorbance_13-05-42-065.txt Node
Date: Fri Feb 21 13:05:42 GMT 2025
User: LASERRRRR
Spectrometer: FLMT03099
Trigger mode: 0
Integration Time (sec): 1.500000E-2
Scans to average: 1
Electric dark correction enabled: true
Nonlinearity correction enabled: false
Boxcar width: 0
XAxis mode: Wavelengths
Number of Pixels in Spectrum: 3648
>>>>>Begin Spectral Data<<<<<
179.3399	-0.7938
179.5586	-0.7938
179.7771	-0.7938
179.9957	-0.0082
180.2143	-1.3854
180.4329	-0.1938
180.6514	-0.0884
180.8699	-0.3198
181.0885	-0
181.307	-0.0054
181.5255	-0.0216
181.744	-0
181.9625	0.0549
182.181	-0
182.3994	-0.6928
182.6179	-0.5554
182.8363	0.0085
183.0547	-0
183.2732	0.0473
183.4916	0.4098
183.71	0.2526
183.9284	0.3867
184.1467	0.0919
184.3651	0.3064
184.5835	0.1838
184.8018	0.223
185.0201	0.0935
185.2385	0.5724
185.4568	0.0837
185.6751	0.1858
185.8934	0.229
186.1117	0.0024
186.3299	0.4136
186.5482	0.196
186.7664	0.2432
186.9847	0.1069
187.2029	0.2773
187.4211	-0.0128
187.6393	0.1852
187.8575	0.2946
188.0757	0.336
188.2939	0.1368
188.512	0.5172
188.7302	0.0723
188.9483	0.1477
189.1665	0.4225
189.3846	0.3116
189.6027	0.1286
189.8208	0.3312
190.0389	0.1449
190.257	0.182
190.475	0.0094
190.6931	0.1114
190.9111	0.163
191.1292	0.1977
191.3472	0.3258
191.5652	0.4298
191.7832	0.2034
192.0012	0.2093
192.2192	0.1465
192.4371	0.1561
192.6551	0.125
192.873	0.2194
193.091	0.1311
193.3089	0.1018
193.5268	0.3112
193.7447	0.2117
193.9626	0.1173
194.1805	0.2836
194.3984	0.3113
194.6162	0.2765
194.8341	0.3204
195.0519	0.2339
195.2697	0.2464
195.4875	0.2931
195.7054	0.206
195.9231	0.2561
196.1409	0.4128
196.3587	0.302
196.5765	0.328
196.7942	0.2891
197.012	0.2756
197.2297	0.3243
197.4474	0.3997
197.6651	0.2577
197.8828	0.3326
198.1005	0.4446
198.3182	0.3743
198.5358	0.3702
198.7535	0.3697
198.9711	0.3919
199.1888	0.3705
199.4064	0.3869
199.624	0.3825
199.8416	0.3029
200.0592	0.3674
200.2767	0.435
200.4943	0.3869
200.7119	0.3972
200.9294	0.413
201.1469	0.4656
201.3645	0.4661
201.582	0.3838
201.7995	0.4073
202.017	0.4161
202.2344	0.3939
202.4519	0.3942
202.6694	0.3738
202.8868	0.4296
203.1042	0.4177
203.3217	0.3925
203.5391	0.3679
203.7565	0.3727
203.9739	0.4122
204.1913	0.3197
204.4086	0.3646
204.626	0.4137
204.8433	0.3749
205.0607	0.3565
205.278	0.3542
205.4953	0.3444
205.7126	0.3624
205.9299	0.3149
206.1472	0.3277
206.3644	0.3518
206.5817	0.2873
206.7989	0.3407
207.0162	0.3427
207.2334	0.344
207.4506	0.312
207.6678	0.3365
207.885	0.3032
208.1022	0.2975
208.3194	0.3027
208.5365	0.3068
208.7537	0.3017
208.9708	0.3053
209.1879	0.2731
209.405	0.2775
209.6222	0.2578
209.8392	0.3031
210.0563	0.2613
210.2734	0.2653
210.4905	0.2502
210.7075	0.2954
210.9245	0.2794
211.1416	0.2753
211.3586	0.2722
211.5756	0.2619
211.7926	0.2695
212.0096	0.2585
212.2265	0.2691
212.4435	0.2814
212.6604	0.2528
212.8774	0.2419
213.0943	0.2637
213.3112	0.2477
213.5281	0.2565
213.745	0.2442
213.9619	0.2546
214.1788	0.2586
214.3956	0.2429
214.6125	0.2624
214.8293	0.2492
215.0461	0.2722
215.2629	0.2589
215.4798	0.25
215.6965	0.2483
215.9133	0.2551
216.1301	0.2643
216.3469	0.2593
216.5636	0.2567
216.7803	0.2633
216.9971	0.2558
217.2138	0.2531
217.4305	0.2464
217.6472	0.2572
217.8639	0.2736
218.0805	0.261
218.2972	0.2637
218.5138	0.2532
218.7305	0.268
218.9471	0.2585
219.1637	0.2782
219.3803	0.2684
219.5969	0.2682
219.8135	0.2752
220.0301	0.2625
220.2466	0.2473
220.4632	0.2603
220.6797	0.275
220.8962	0.2697
221.1127	0.2732
221.3292	0.2792
221.5457	0.2753
221.7622	0.2737
221.9787	0.2806
222.1951	0.2735
222.4116	0.2775
222.628	0.2951
222.8444	0.2753
223.0608	0.2789
223.2772	0.2907
223.4936	0.2833
223.71	0.2983
223.9264	0.3057
224.1427	0.2947
224.3591	0.2992
224.5754	0.2901
224.7917	0.2942
225.008	0.3043
225.2243	0.3072
225.4406	0.2954
225.6569	0.3082
225.8732	0.3232
226.0894	0.319
226.3057	0.3114
226.5219	0.3163
226.7381	0.3199
226.9543	0.3082
227.1705	0.3127
227.3867	0.3269
227.6029	0.3265
227.8191	0.3415
228.0352	0.3502
228.2513	0.3502
228.4675	0.3395
228.6836	0.3431
228.8997	0.348
229.1158	0.3481
229.3319	0.3707
229.548	0.3471
229.764	0.3541
229.9801	0.3704
230.1961	0.3701
230.4121	0.3721
230.6282	0.3923
230.8442	0.3807
231.0602	0.3875
231.2761	0.3803
231.4921	0.4007
231.7081	0.4075
231.924	0.4054
232.14	0.4089
232.3559	0.4088
232.5718	0.3997
232.7877	0.4235
233.0036	0.4102
233.2195	0.4106
233.4353	0.4202
233.6512	0.4137
233.867	0.4256
234.0829	0.4166
234.2987	0.4252
234.5145	0.4324
234.7303	0.4309
234.9461	0.4358
235.1619	0.436
235.3776	0.4402
235.5934	0.4456
235.8091	0.4381
236.0249	0.448
236.2406	0.4388
236.4563	0.4395
236.672	0.4468
236.8877	0.4549
237.1034	0.4461
237.319	0.4494
237.5347	0.4589
237.7503	0.453
237.966	0.4552
238.1816	0.4517
238.3972	0.4538
238.6128	0.4586
238.8284	0.4681
239.0439	0.4559
239.2595	0.4596
239.475	0.4614
239.6906	0.4683
239.9061	0.4603
240.1216	0.466
240.3371	0.4652
240.5526	0.4571
240.7681	0.4576
240.9836	0.4637
241.199	0.457
241.4145	0.4489
241.6299	0.4439
241.8453	0.4403
242.0607	0.4323
242.2761	0.4309
242.4915	0.43
242.7069	0.4127
242.9223	0.4126
243.1376	0.406
243.353	0.3938
243.5683	0.392
243.7836	0.382
243.9989	0.3793
244.2142	0.3719
244.4295	0.361
244.6448	0.3648
244.86	0.3418
245.0753	0.3382
245.2905	0.3318
245.5057	0.329
245.721	0.3338
245.9362	0.3235
246.1514	0.3149
246.3665	0.3048
246.5817	0.2971
246.7969	0.2963
247.012	0.2929
247.2271	0.2945
247.4423	0.2784
247.6574	0.282
247.8725	0.265
248.0876	0.2647
248.3026	0.2647
248.5177	0.2522
248.7328	0.2442
248.9478	0.2514
249.1628	0.2475
249.3779	0.2417
249.5929	0.2396
249.8079	0.2334
250.0228	0.2268
250.2378	0.2299
250.4528	0.2234
250.6677	0.2217
250.8827	0.2103
251.0976	0.218
251.3125	0.2156
251.5274	0.2098
251.7423	0.2088
251.9572	0.2031
252.172	0.2049
252.3869	0.2083
252.6017	0.2055
252.8166	0.1959
253.0314	0.1959
253.2462	0.1979
253.461	0.1942
253.6758	0.1963
253.8906	0.1961
254.1053	0.1949
254.3201	0.193
254.5348	0.188
254.7496	0.1807
254.9643	0.1877
255.179	0.1884
255.3937	0.1883
255.6083	0.1866
255.823	0.1861
256.0377	0.1798
256.2523	0.1844
256.467	0.1874
256.6816	0.1812
256.8962	0.1831
257.1108	0.1799
257.3254	0.1805
257.54	0.1777
257.7545	0.1877
257.9691	0.1804
258.1836	0.176
258.3981	0.1815
258.6127	0.1705
258.8272	0.182
259.0417	0.1739
259.2561	0.1759
259.4706	0.1722
259.6851	0.1826
259.8995	0.1773
260.114	0.1763
260.3284	0.1722
260.5428	0.1764
260.7572	0.1747
260.9716	0.1871
261.186	0.1737
261.4003	0.1706
261.6147	0.1723
261.829	0.1751
262.0433	0.1728
262.2577	0.1811
262.472	0.1789
262.6863	0.1787
262.9005	0.1778
263.1148	0.1703
263.3291	0.1727
263.5433	0.1774
263.7576	0.1748
263.9718	0.1734
264.186	0.1809
264.4002	0.1753
264.6144	0.1788
264.8286	0.1781
265.0427	0.1801
265.2569	0.1759
265.471	0.1781
265.6851	0.1735
265.8993	0.1737
266.1134	0.1761
266.3275	0.1742
266.5415	0.1806
266.7556	0.1799
266.9697	0.1801
267.1837	0.1727
267.3978	0.178
267.6118	0.1702
267.8258	0.1728
268.0398	0.1742
268.2538	0.1794
268.4677	0.1748
268.6817	0.1765
268.8957	0.1691
269.1096	0.1657
269.3235	0.1748
269.5374	0.1718
269.7514	0.1719
269.9652	0.1672
270.1791	0.1662
270.393	0.1737
270.6068	0.1756
270.8207	0.1718
271.0345	0.1651
271.2483	0.1639
271.4622	0.1685
271.676	0.1711
271.8897	0.1637
272.1035	0.1731
272.3173	0.1654
272.531	0.1664
272.7448	0.1666
272.9585	0.1632
273.1722	0.1645
273.3859	0.1643
273.5996	0.1725
273.8133	0.17
274.0269	0.1659
274.2406	0.1649
274.4542	0.1669
274.6679	0.1706
274.8815	0.1704
275.0951	0.1783
275.3087	0.1671
275.5223	0.1695
275.7358	0.17
275.9494	0.1697
276.1629	0.1764
276.3765	0.1676
276.59	0.1653
276.8035	0.1713
277.017	0.1764
277.2305	0.1752
277.444	0.1719
277.6574	0.174
277.8709	0.1761
278.0843	0.1748
278.2978	0.167
278.5112	0.1754
278.7246	0.1735
278.938	0.1701
279.1513	0.1784
279.3647	0.1753
279.5781	0.1773
279.7914	0.1745
280.0047	0.1761
280.2181	0.1768
280.4314	0.1764
280.6447	0.1847
280.8579	0.1716
281.0712	0.1738
281.2845	0.1785
281.4977	0.1775
281.711	0.1768
281.9242	0.175
282.1374	0.1808
282.3506	0.1755
282.5638	0.1774
282.7769	0.1733
282.9901	0.181
283.2033	0.1791
283.4164	0.1783
283.6295	0.1811
283.8426	0.1729
284.0557	0.1802
284.2688	0.1808
284.4819	0.1787
284.695	0.183
284.908	0.1843
285.1211	0.1879
285.3341	0.1816
285.5471	0.1835
285.7601	0.1837
285.9731	0.1796
286.1861	0.1852
286.3991	0.1893
286.612	0.1867
286.825	0.1836
287.0379	0.188
287.2508	0.1905
287.4637	0.1924
287.6766	0.1838
287.8895	0.1825
288.1024	0.19
288.3152	0.1933
288.5281	0.1856
288.7409	0.1961
288.9538	0.1854
289.1666	0.1901
289.3794	0.1916
289.5922	0.188
289.8049	0.1902
290.0177	0.197
290.2304	0.1905
290.4432	0.1988
290.6559	0.1913
290.8686	0.196
291.0813	0.1889
291.294	0.1935
291.5067	0.1881
291.7194	0.1908
291.932	0.1895
292.1447	0.1927
292.3573	0.1893
292.5699	0.1914
292.7825	0.1873
292.9951	0.1916
293.2077	0.1892
293.4203	0.1956
293.6328	0.1934
293.8454	0.1969
294.0579	0.1919
294.2704	0.194
294.4829	0.1907
294.6954	0.1919
294.9079	0.1939
295.1204	0.1871
295.3328	0.1954
295.5453	0.194
295.7577	0.1958
295.9701	0.2011
296.1825	0.1922
296.3949	0.1895
296.6073	0.1912
296.8197	0.1933
297.0321	0.1919
297.2444	0.1907
297.4567	0.1944
297.6691	0.1895
297.8814	0.1979
298.0937	0.1974
298.306	0.1938
298.5182	0.1971
298.7305	0.1954
298.9428	0.1949
299.155	0.1848
299.3672	0.1913
299.5794	0.1917
299.7916	0.1903
300.0038	0.1954
300.216	0.1872
300.4282	0.1901
300.6403	0.1931
300.8525	0.194
301.0646	0.1936
301.2767	0.192
301.4888	0.1931
301.7009	0.1892
301.913	0.1977
302.125	0.1895
302.3371	0.1952
302.5491	0.1891
302.7612	0.1962
302.9732	0.1929
303.1852	0.1883
303.3972	0.1969
303.6092	0.1909
303.8211	0.1895
304.0331	0.1914
304.245	0.1882
304.457	0.1897
304.6689	0.1886
304.8808	0.1877
305.0927	0.1881
305.3046	0.188
305.5164	0.1848
305.7283	0.186
305.9401	0.1752
306.152	0.1766
306.3638	0.1762
306.5756	0.1814
306.7874	0.1735
306.9992	0.172
307.2109	0.1727
307.4227	0.1749
307.6344	0.1733
307.8462	0.1694
308.0579	0.1739
308.2696	0.1661
308.4813	0.1658
308.693	0.1606
308.9046	0.1621
309.1163	0.1584
309.328	0.1588
309.5396	0.1551
309.7512	0.1538
309.9628	0.1487
310.1744	0.15
310.386	0.145
310.5976	0.1413
310.8091	0.1486
311.0207	0.1432
311.2322	0.1392
311.4437	0.1462
311.6552	0.1425
311.8667	0.1498
312.0782	0.1411
312.2897	0.1441
312.5012	0.1372
312.7126	0.1348
312.924	0.1408
313.1355	0.138
313.3469	0.1314
313.5583	0.1335
313.7696	0.1218
313.981	0.1371
314.1924	0.1294
314.4037	0.1282
314.6151	0.1259
314.8264	0.1286
315.0377	0.1248
315.249	0.1288
315.4603	0.1219
315.6716	0.1332
315.8828	0.1245
316.0941	0.1231
316.3053	0.1217
316.5165	0.1324
316.7277	0.1177
316.9389	0.1274
317.1501	0.1231
317.3613	0.1228
317.5724	0.1239
317.7836	0.1128
317.9947	0.1197
318.2058	0.1198
318.417	0.1237
318.6281	0.1138
318.8391	0.1192
319.0502	0.12
319.2613	0.1202
319.4723	0.1223
319.6834	0.121
319.8944	0.1197
320.1054	0.1226
320.3164	0.1153
320.5274	0.1223
320.7383	0.1177
320.9493	0.115
321.1602	0.1203
321.3712	0.121
321.5821	0.1199
321.793	0.1252
322.0039	0.1167
322.2148	0.1175
322.4257	0.1163
322.6365	0.1195
322.8474	0.1219
323.0582	0.1232
323.269	0.1231
323.4798	0.1214
323.6906	0.1205
323.9014	0.1146
324.1122	0.1182
324.3229	0.1221
324.5337	0.1237
324.7444	0.123
324.9551	0.1265
325.1658	0.1194
325.3765	0.127
325.5872	0.1231
325.7979	0.1219
326.0085	0.1203
326.2192	0.1193
326.4298	0.1224
326.6404	0.1247
326.851	0.1206
327.0616	0.1288
327.2722	0.1213
327.4828	0.1259
327.6933	0.135
327.9039	0.1252
328.1144	0.1245
328.3249	0.1232
328.5354	0.1281
328.7459	0.1228
328.9564	0.1296
329.1669	0.1269
329.3773	0.1309
329.5878	0.1309
329.7982	0.1313
330.0086	0.1245
330.219	0.1255
330.4294	0.1259
330.6398	0.1254
330.8502	0.1321
331.0605	0.1257
331.2708	0.1277
331.4812	0.1285
331.6915	0.1293
331.9018	0.1253
332.1121	0.1362
332.3224	0.1314
332.5326	0.1226
332.7429	0.1296
332.9531	0.1348
333.1633	0.127
333.3735	0.1307
333.5837	0.1265
333.7939	0.1306
334.0041	0.1313
334.2143	0.1338
334.4244	0.1406
334.6346	0.1327
334.8447	0.1303
335.0548	0.1352
335.2649	0.1335
335.475	0.1354
335.685	0.1367
335.8951	0.1302
336.1051	0.1389
336.3152	0.1393
336.5252	0.1409
336.7352	0.132
336.9452	0.1366
337.1552	0.1352
337.3652	0.1363
337.5751	0.1325
337.7851	0.1348
337.995	0.1408
338.2049	0.1309
338.4148	0.1394
338.6247	0.143
338.8346	0.1304
339.0445	0.1382
339.2543	0.1366
339.4642	0.1362
339.674	0.1317
339.8838	0.139
340.0936	0.1407
340.3034	0.1375
340.5132	0.1373
340.7229	0.1418
340.9327	0.1477
341.1424	0.1405
341.3522	0.1374
341.5619	0.1404
341.7716	0.1352
341.9813	0.1433
342.1909	0.1424
342.4006	0.1534
342.6102	0.1435
342.8199	0.1445
343.0295	0.1401
343.2391	0.1438
343.4487	0.1456
343.6583	0.1583
343.8679	0.1473
344.0774	0.1486
344.287	0.1509
344.4965	0.1516
344.706	0.153
344.9155	0.1462
345.125	0.1459
345.3345	0.158
345.544	0.1572
345.7534	0.158
345.9629	0.1558
346.1723	0.1539
346.3817	0.156
346.5911	0.1541
346.8005	0.1565
347.0099	0.154
347.2193	0.1611
347.4286	0.1633
347.638	0.1607
347.8473	0.1631
348.0566	0.1626
348.2659	0.1619
348.4752	0.1606
348.6845	0.1704
348.8937	0.1689
349.103	0.164
349.3122	0.1614
349.5214	0.172
349.7306	0.1735
349.9398	0.1643
350.149	0.1632
350.3582	0.1696
350.5674	0.1735
350.7765	0.1756
350.9856	0.1717
351.1948	0.1758
351.4039	0.1738
351.613	0.1658
351.822	0.1713
352.0311	0.175
352.2402	0.1742
352.4492	0.1734
352.6582	0.1752
352.8672	0.1784
353.0762	0.1727
353.2852	0.1761
353.4942	0.1748
353.7032	0.1775
353.9121	0.1761
354.1211	0.1786
354.33	0.1898
354.5389	0.1715
354.7478	0.1725
354.9567	0.187
355.1655	0.1813
355.3744	0.1816
355.5833	0.1824
355.7921	0.1852
356.0009	0.1903
356.2097	0.1804
356.4185	0.1825
356.6273	0.186
356.8361	0.1894
357.0448	0.1862
357.2536	0.1869
357.4623	0.1922
357.671	0.1919
357.8797	0.1861
358.0884	0.1889
358.2971	0.1964
358.5057	0.1959
358.7144	0.1988
358.923	0.2021
359.1316	0.2054
359.3402	0.2006
359.5488	0.1941
359.7574	0.2053
359.966	0.2016
360.1746	0.1919
360.3831	0.2008
360.5916	0.2031
360.8002	0.2094
361.0087	0.2011
361.2172	0.2121
361.4256	0.2076
361.6341	0.2086
361.8426	0.2068
362.051	0.212
362.2594	0.2094
362.4678	0.2127
362.6762	0.2135
362.8846	0.2096
363.093	0.2169
363.3014	0.221
363.5097	0.2232
363.718	0.2222
363.9264	0.2238
364.1347	0.2275
364.343	0.2276
364.5513	0.2217
364.7595	0.2306
364.9678	0.2271
365.176	0.232
365.3842	0.231
365.5925	0.227
365.8007	0.2383
366.0089	0.2381
366.217	0.2377
366.4252	0.232
366.6333	0.2322
366.8415	0.239
367.0496	0.2424
367.2577	0.2359
367.4658	0.2337
367.6739	0.2423
367.882	0.2443
368.09	0.2364
368.2981	0.24
368.5061	0.2436
368.7141	0.2421
368.9221	0.2481
369.1301	0.2494
369.3381	0.254
369.5461	0.249
369.754	0.254
369.962	0.2495
370.1699	0.253
370.3778	0.2589
370.5857	0.2493
370.7936	0.2523
371.0015	0.2566
371.2093	0.2524
371.4172	0.2507
371.625	0.2494
371.8328	0.2568
372.0406	0.2651
372.2484	0.2667
372.4562	0.265
372.664	0.2619
372.8717	0.2618
373.0795	0.2652
373.2872	0.2691
373.4949	0.2666
373.7026	0.2612
373.9103	0.2581
374.118	0.2667
374.3256	0.2739
374.5333	0.2705
374.7409	0.2709
374.9485	0.2701
375.1561	0.2748
375.3637	0.2629
375.5713	0.2822
375.7789	0.2839
375.9864	0.2699
376.194	0.281
376.4015	0.2758
376.609	0.2847
376.8165	0.2807
377.024	0.2844
377.2315	0.2861
377.4389	0.2727
377.6464	0.2793
377.8538	0.2757
378.0612	0.286
378.2686	0.2782
378.476	0.296
378.6834	0.2805
378.8908	0.302
379.0981	0.285
379.3055	0.2857
379.5128	0.2884
379.7201	0.3003
379.9274	0.2913
380.1347	0.3031
380.342	0.3053
380.5492	0.2934
380.7565	0.2862
380.9637	0.2938
381.1709	0.3028
381.3781	0.302
381.5853	0.2921
381.7925	0.303
381.9997	0.3092
382.2068	0.3035
382.4139	0.2949
382.6211	0.2983
382.8282	0.311
383.0353	0.3116
383.2424	0.2994
383.4494	0.3017
383.6565	0.305
383.8635	0.301
384.0706	0.3107
384.2776	0.3039
384.4846	0.3101
384.6916	0.3033
384.8986	0.3178
385.1055	0.3157
385.3125	0.3161
385.5194	0.3196
385.7263	0.3047
385.9333	0.3146
386.1402	0.3076
386.347	0.3092
386.5539	0.31
386.7608	0.3148
386.9676	0.2974
387.1744	0.3099
387.3813	0.3072
387.5881	0.2998
387.7948	0.3081
388.0016	0.3169
388.2084	0.3103
388.4151	0.3161
388.6219	0.301
388.8286	0.3094
389.0353	0.3088
389.242	0.3053
389.4487	0.296
389.6553	0.2976
389.862	0.2994
390.0686	0.3112
390.2753	0.3085
390.4819	0.3
390.6885	0.3005
390.8951	0.296
391.1016	0.3058
391.3082	0.3035
391.5147	0.2892
391.7213	0.2984
391.9278	0.2837
392.1343	0.2951
392.3408	0.2952
392.5473	0.2917
392.7537	0.2946
392.9602	0.2797
393.1666	0.2897
393.373	0.2901
393.5794	0.2832
393.7858	0.288
393.9922	0.2876
394.1986	0.2821
394.4049	0.2804
394.6113	0.2839
394.8176	0.2816
395.0239	0.2747
395.2302	0.2802
395.4365	0.282
395.6428	0.279
395.8491	0.2772
396.0553	0.272
396.2615	0.2711
396.4678	0.2785
396.674	0.2631
396.8802	0.264
397.0863	0.2664
397.2925	0.2676
397.4987	0.267
397.7048	0.2658
397.9109	0.2709
398.117	0.2634
398.3231	0.2612
398.5292	0.2581
398.7353	0.2619
398.9413	0.2579
399.1474	0.2595
399.3534	0.2665
399.5594	0.2619
399.7654	0.2722
399.9714	0.2719
400.1774	0.2573
400.3833	0.2584
400.5893	0.2549
400.7952	0.2713
401.0011	0.2613
401.207	0.2588
401.4129	0.2632
401.6188	0.2582
401.8247	0.2674
402.0305	0.2559
402.2364	0.2681
402.4422	0.2613
402.648	0.263
402.8538	0.267
403.0596	0.2532
403.2654	0.2578
403.4711	0.2481
403.6768	0.2595
403.8826	0.2736
404.0883	0.2602
404.294	0.2731
404.4997	0.2591
404.7054	0.265
404.911	0.2564
405.1167	0.2652
405.3223	0.2525
405.5279	0.2644
405.7335	0.2591
405.9391	0.257
406.1447	0.269
406.3502	0.2654
406.5558	0.2587
406.7613	0.2636
406.9668	0.2595
407.1724	0.2623
407.3778	0.2621
407.5833	0.2507
407.7888	0.2674
407.9942	0.2565
408.1997	0.2676
408.4051	0.2682
408.6105	0.2627
408.8159	0.2504
409.0213	0.2613
409.2267	0.2662
409.432	0.2589
409.6374	0.2594
409.8427	0.2717
410.048	0.2715
410.2533	0.2672
410.4586	0.2528
410.6639	0.2595
410.8691	0.2561
411.0744	0.2559
411.2796	0.2592
411.4848	0.2662
411.69	0.258
411.8952	0.2592
412.1004	0.269
412.3056	0.2557
412.5107	0.2594
412.7158	0.2714
412.921	0.2588
413.1261	0.2604
413.3312	0.2626
413.5362	0.2674
413.7413	0.2547
413.9464	0.2528
414.1514	0.2567
414.3564	0.2518
414.5614	0.2513
414.7664	0.2553
414.9714	0.2513
415.1764	0.2655
415.3813	0.2589
415.5863	0.2589
415.7912	0.2591
415.9961	0.2516
416.201	0.2602
416.4059	0.2515
416.6108	0.2566
416.8156	0.2575
417.0205	0.2525
417.2253	0.2538
417.4301	0.2556
417.6349	0.2524
417.8397	0.2451
418.0445	0.2568
418.2492	0.2537
418.454	0.2518
418.6587	0.2418
418.8634	0.2509
419.0681	0.2545
419.2728	0.2506
419.4775	0.2631
419.6822	0.2385
419.8868	0.2476
420.0915	0.2438
420.2961	0.2428
420.5007	0.2406
420.7053	0.2453
420.9099	0.2444
421.1144	0.2396
421.319	0.2279
421.5235	0.2429
421.728	0.2421
421.9325	0.2383
422.137	0.2272
422.3415	0.2408
422.546	0.2247
422.7504	0.2323
422.9549	0.2421
423.1593	0.2309
423.3637	0.2291
423.5681	0.2312
423.7725	0.2352
423.9769	0.2253
424.1812	0.2114
424.3856	0.2198
424.5899	0.2295
424.7942	0.2205
424.9985	0.2227
425.2028	0.2394
425.4071	0.2283
425.6113	0.2291
425.8156	0.2255
426.0198	0.2223
426.224	0.2262
426.4282	0.2156
426.6324	0.2161
426.8366	0.216
427.0407	0.2159
427.2449	0.2128
427.449	0.214
427.6531	0.2254
427.8572	0.2152
428.0613	0.2186
428.2654	0.2073
428.4694	0.2049
428.6735	0.209
428.8775	0.2142
429.0815	0.2082
429.2855	0.1979
429.4895	0.1992
429.6935	0.1961
429.8975	0.1796
430.1014	0.1896
430.3053	0.1969
430.5093	0.1919
430.7132	0.1817
430.9171	0.1901
431.1209	0.1897
431.3248	0.1781
431.5286	0.1798
431.7325	0.1931
431.9363	0.1812
432.1401	0.1875
432.3439	0.1853
432.5477	0.1737
432.7514	0.1695
432.9552	0.1783
433.1589	0.1667
433.3627	0.178
433.5664	0.1644
433.7701	0.169
433.9737	0.1707
434.1774	0.1671
434.3811	0.1642
434.5847	0.1579
434.7883	0.1597
434.9919	0.1519
435.1955	0.159
435.3991	0.147
435.6027	0.146
435.8062	0.1683
436.0098	0.1444
436.2133	0.1444
436.4168	0.139
436.6203	0.1419
436.8238	0.1461
437.0272	0.141
437.2307	0.1347
437.4341	0.126
437.6375	0.1368
437.841	0.1249
438.0443	0.1421
438.2477	0.1315
438.4511	0.1244
438.6545	0.131
438.8578	0.1225
439.0611	0.1206
439.2644	0.1319
439.4677	0.1203
439.671	0.1059
439.8743	0.1224
440.0775	0.1174
440.2808	0.1148
440.484	0.1112
440.6872	0.1085
440.8904	0.1048
441.0936	0.1105
441.2967	0.0987
441.4999	0.0961
441.703	0.0984
441.9062	0.1026
442.1093	0.1131
442.3124	0.0935
442.5155	0.0973
442.7185	0.099
442.9216	0.1012
443.1246	0.0906
443.3276	0.0934
443.5307	0.0844
443.7337	0.0922
443.9366	0.087
444.1396	0.082
444.3426	0.0838
444.5455	0.0849
444.7484	0.0745
444.9513	0.0799
445.1542	0.0746
445.3571	0.0742
445.56	0.0713
445.7628	0.0714
445.9657	0.0751
446.1685	0.0737
446.3713	0.0725
446.5741	0.0757
446.7769	0.0683
446.9797	0.0736
447.1824	0.0681
447.3852	0.0534
447.5879	0.0641
447.7906	0.0527
447.9933	0.0616
448.196	0.0562
448.3986	0.05
448.6013	0.0467
448.8039	0.0614
449.0066	0.0611
449.2092	0.0545
449.4118	0.057
449.6143	0.0572
449.8169	0.0467
450.0195	0.045
450.222	0.0557
450.4245	0.049
450.627	0.0414
450.8295	0.0495
451.032	0.0401
451.2345	0.0357
451.4369	0.0412
451.6394	0.0374
451.8418	0.0476
452.0442	0.0425
452.2466	0.0412
452.449	0.044
452.6513	0.0403
452.8537	0.0336
453.056	0.0284
453.2583	0.0388
453.4607	0.0353
453.663	0.0409
453.8652	0.0333
454.0675	0.0439
454.2697	0.0316
454.472	0.0247
454.6742	0.035
454.8764	0.0422
455.0786	0.0299
455.2808	0.0335
455.4829	0.0367
455.6851	0.0273
455.8872	0.0202
456.0893	0.0302
456.2915	0.0261
456.4935	0.0382
456.6956	0.0247
456.8977	0.026
457.0997	0.0303
457.3018	0.022
457.5038	0.0242
457.7058	0.0303
457.9078	0.0236
458.1098	0.0282
458.3117	0.0203
458.5137	0.0164
458.7156	0.0291
458.9175	0.0216
459.1194	0.0231
459.3213	0.0234
459.5232	0.0202
459.725	0.0236
459.9269	0.0237
460.1287	0.0175
460.3305	0.0251
460.5323	0.0146
460.7341	0.0272
460.9359	0.0121
461.1376	0.0164
461.3394	0.0234
461.5411	0.0239
461.7428	0.0242
461.9445	0.0066
462.1462	0.0133
462.3479	0.0115
462.5495	0.0171
462.7512	0.0208
462.9528	0.0158
463.1544	0.0102
463.356	-0.0019
463.5576	0.0245
463.7592	0.01
463.9607	0.0173
464.1623	0.013
464.3638	0.0046
464.5653	0.0109
464.7668	0.0186
464.9683	0.016
465.1697	0.007
465.3712	0.0125
465.5726	0.0097
465.7741	0.0151
465.9755	0.017
466.1769	0.0005
466.3782	0.0017
466.5796	0.0104
466.7809	0.0161
466.9823	-0.0013
467.1836	0.0063
467.3849	0.0075
467.5862	-0.0054
467.7875	0.0131
467.9887	0.0118
468.19	0.0095
468.3912	0.0126
468.5924	0.0055
468.7936	0.007
468.9948	0.0007
469.196	0.0147
469.3972	0.0015
469.5983	0.0111
469.7994	0.0053
470.0006	0.0206
470.2017	0.0096
470.4027	0.0188
470.6038	-0.0005
470.8049	0.0068
471.0059	0.014
471.2069	0.0031
471.408	0.0159
471.6089	0.0108
471.8099	0.0047
472.0109	0.0033
472.2119	0.0284
472.4128	0.0059
472.6137	0.011
472.8146	0.0049
473.0155	0.0189
473.2164	0.0102
473.4173	-0.0062
473.6181	0.0037
473.819	0.0077
474.0198	0.007
474.2206	-0.0023
474.4214	0.0082
474.6222	-0.0029
474.8229	0.005
475.0237	0.0047
475.2244	0.011
475.4251	0.0114
475.6258	0.0008
475.8265	0.0164
476.0272	0.0042
476.2278	0.0101
476.4285	0.0042
476.6291	0.017
476.8297	0.0092
477.0303	0.0018
477.2309	0.0163
477.4315	0.0114
477.632	0.0004
477.8326	0.0084
478.0331	0.0063
478.2336	0.0033
478.4341	0.0134
478.6346	0
478.8351	-0.0059
479.0355	0.016
479.236	0.0158
479.4364	0.0033
479.6368	0.0035
479.8372	0.0029
480.0376	0.0017
480.2379	0.0068
480.4383	0.0114
480.6386	0.0047
480.8389	0.0068
481.0392	0.0006
481.2395	0.0132
481.4398	0.0098
481.6401	0.0065
481.8403	-0.0033
482.0405	0.0077
482.2408	0.0088
482.441	0.013
482.6411	0.006
482.8413	0.0062
483.0415	0.011
483.2416	0.0041
483.4417	0.0051
483.6419	-0.003
483.8419	0.0075
484.042	-0.003
484.2421	-0.0027
484.4422	0.009
484.6422	0.0084
484.8422	0.0082
485.0422	0.0007
485.2422	0.003
485.4422	0.0036
485.6422	0.0033
485.8421	0.0005
486.042	0.0128
486.242	0.0008
486.4419	0.0038
486.6417	0.0018
486.8416	0.004
487.0415	0.0029
487.2413	0.0002
487.4411	0
487.641	0.003
487.8408	0.0078
488.0405	0.0112
488.2403	-0.0006
488.4401	0.001
488.6398	0.0117
488.8395	0.0103
489.0392	0.0021
489.2389	0.0072
489.4386	-0.0037
489.6383	0.0175
489.8379	0.005
490.0376	-0.0002
490.2372	0.0016
490.4368	0.0037
490.6364	0.0008
490.836	-0.0021
491.0355	0.0041
491.2351	0.0003
491.4346	0.0083
491.6341	0.0001
491.8336	0.0049
492.0331	-0.0021
492.2326	0.0104
492.432	0.0103
492.6315	0.0083
492.8309	0.0037
493.0303	0.0075
493.2297	0.0071
493.4291	0.0029
493.6284	0.0043
493.8278	-0.0001
494.0271	0.0041
494.2264	-0.0013
494.4257	0.0068
494.625	-0.0014
494.8243	0.0033
495.0236	0.0154
495.2228	0.0074
495.422	0.005
495.6213	0.0097
495.8205	0.0045
496.0196	0.0023
496.2188	0.0008
496.418	0.0051
496.6171	-0.0033
496.8162	0.005
497.0153	0.0046
497.2144	0.0083
497.4135	0.0004
497.6126	0.0018
497.8116	-0.0006
498.0107	0.0023
498.2097	0.002
498.4087	-0.0012
498.6077	-0.0081
498.8067	0.0065
499.0056	-0
499.2046	0.0113
499.4035	0.0059
499.6024	-0.0025
499.8013	0.004
500.0002	0.0052
500.199	0.0193
500.3979	-0.0089
500.5967	-0.0004
500.7956	0.0058
500.9944	0.0074
501.1932	0.0058
501.3919	0.0152
501.5907	0.0085
501.7895	0.0026
501.9882	0.0075
502.1869	0.007
502.3856	0.0058
502.5843	0.0094
502.783	0.0001
502.9816	0.0032
503.1803	-0.0002
503.3789	0.0064
503.5775	-0.0005
503.7761	0.0001
503.9747	0.01
504.1732	-0.0017
504.3718	0.01
504.5703	0.0019
504.7689	-0.0027
504.9674	-0.0025
505.1658	0.0019
505.3643	0.0063
505.5628	0.0058
505.7612	0.0089
505.9597	0.0005
506.1581	0.0063
506.3565	0.0035
506.5549	0.0011
506.7532	0.0007
506.9516	0.0035
507.1499	0.0059
507.3482	-0.0004
507.5465	0.0013
507.7448	0.0075
507.9431	-0.0046
508.1414	0.006
508.3396	-0.0001
508.5379	0.0009
508.7361	0.0056
508.9343	0.0097
509.1325	0.0083
509.3306	-0.0008
509.5288	0.0018
509.7269	0.0125
509.9251	0.0074
510.1232	0.0039
510.3213	0.005
510.5193	0.0002
510.7174	-0.0026
510.9154	0.0106
511.1135	-0.0043
511.3115	0.0047
511.5095	0.0087
511.7075	0.0012
511.9055	0.0074
512.1034	-0.0003
512.3014	0.0042
512.4993	0.0047
512.6972	-0.0042
512.8951	0.0044
513.093	-0.0046
513.2908	0.0209
513.4887	-0.001
513.6865	0.0072
513.8844	0.0028
514.0822	0.0066
514.2799	-0.0016
514.4777	-0.0042
514.6755	0.0118
514.8732	-0.0009
515.0709	0.0053
515.2687	-0.0033
515.4664	0.0138
515.664	0.0091
515.8617	0.0072
516.0594	0.0115
516.257	0.0065
516.4546	0.0161
516.6522	0.0002
516.8498	0.0003
517.0474	0.0039
517.2449	0.0029
517.4425	0.0077
517.64	0.0059
517.8375	0.011
518.035	0.0108
518.2325	0.0033
518.43	0.001
518.6274	0.0023
518.8249	-0.0028
519.0223	0.0064
519.2197	0.008
519.4171	-0.0063
519.6145	0.009
519.8118	-0.0076
520.0092	-0.0002
520.2065	0.0054
520.4038	0.0074
520.6011	0.0062
520.7984	0.0021
520.9956	0.0054
521.1929	0.0018
521.3901	0.0175
521.5874	0.0083
521.7846	0.0115
521.9818	0.005
522.1789	-0.0014
522.3761	0.0075
522.5732	0.0158
522.7704	-0.0049
522.9675	-0.0039
523.1646	0.005
523.3617	0.0103
523.5587	0.0081
523.7558	0.0001
523.9528	0.014
524.1498	0.0064
524.3468	-0.001
524.5438	0.0024
524.7408	-0.005
524.9378	0.0073
525.1347	-0.0017
525.3316	-0.0015
525.5285	0.0044
525.7254	0.0085
525.9223	0.0032
526.1192	0.0089
526.316	0.0057
526.5129	0.0072
526.7097	0.002
526.9065	0.0133
527.1033	0.0038
527.3	-0.0015
527.4968	0.0021
527.6935	-0.0041
527.8903	-0.0049
528.087	0.0135
528.2837	0.0075
528.4804	-0.0024
528.677	0.0063
528.8737	0.0021
529.0703	0.0011
529.2669	0.0152
529.4635	-0.0021
529.6601	-0.0021
529.8567	-0.0014
530.0532	0.0058
530.2498	-0.0021
530.4463	-0.0067
530.6428	0.0095
530.8393	0.0148
531.0358	0.0054
531.2322	0.0015
531.4287	0.0009
531.6251	-0.0084
531.8215	0.0061
532.0179	0.0054
532.2143	0.0044
532.4107	0.0072
532.607	0.014
532.8034	0.0047
532.9997	0.0025
533.196	0.0006
533.3923	0.0046
533.5886	0.0173
533.7848	0.0045
533.9811	0.0141
534.1773	0.0016
534.3735	0.0096
534.5697	0.0082
534.7659	0.0062
534.9621	0.0113
535.1582	0.0077
535.3544	0.0036
535.5505	0.0057
535.7466	0.0111
535.9427	0.0002
536.1387	-0.0099
536.3348	0.0102
536.5308	-0.0015
536.7269	0.0018
536.9229	-0.0033
537.1189	0.0105
537.3148	0.0036
537.5108	0.0087
537.7068	0.0073
537.9027	-0.008
538.0986	-0.0005
538.2945	-0.0063
538.4904	-0.0002
538.6863	0.0046
538.8821	0.0089
539.078	0.0032
539.2738	0.0095
539.4696	0.0042
539.6654	0.0079
539.8611	0.0106
540.0569	0.0045
540.2526	0.0107
540.4484	-0.018
540.6441	0.0061
540.8398	0.0084
541.0355	0.0024
541.2311	0.0061
541.4268	0.0082
541.6224	0.0102
541.818	0.0058
542.0136	0.0065
542.2092	0.0053
542.4048	0.0024
542.6003	0.0089
542.7959	0.0083
542.9914	0.0046
543.1869	0.0012
543.3824	0.0035
543.5779	0.01
543.7734	0.0149
543.9688	0.0043
544.1642	0.0025
544.3596	0.0131
544.555	0.0079
544.7504	0.0172
544.9458	0.0057
545.1411	-0.0025
545.3365	0.0022
545.5318	0.0012
545.7271	0.0099
545.9224	0.0088
546.1177	0.0024
546.3129	-0.005
546.5081	-0.0004
546.7034	0.0116
546.8986	-0.0005
547.0938	0.01
547.289	0.0069
547.4841	0.0045
547.6793	-0.0005
547.8744	0.0045
548.0695	0.0029
548.2646	0.0109
548.4597	-0.0017
548.6548	0.0165
548.8498	0.0042
549.0448	-0.0016
549.2399	0.0147
549.4349	0.0129
549.6298	0.0159
549.8248	0.0011
550.0198	0.0058
550.2147	-0.0006
550.4096	0.0022
550.6045	0.0048
550.7994	0.0036
550.9943	0.0095
551.1892	-0.006
551.384	0.0023
551.5788	0.0041
551.7737	0.0022
551.9685	0.0042
552.1632	-0.0057
552.358	0.0061
552.5528	0.0078
552.7475	0.0029
552.9422	0.013
553.1369	0.0093
553.3316	0.0089
553.5263	0.0067
553.7209	0.0018
553.9156	0.0033
554.1102	-0.001
554.3048	-0.0091
554.4994	0.005
554.694	0.0006
554.8885	-0.0007
555.0831	0.0114
555.2776	0.0099
555.4721	0.0006
555.6666	0.0047
555.8611	0.0091
556.0555	0.0047
556.25	0.0021
556.4444	0.0012
556.6388	0.0021
556.8332	-0.0043
557.0276	0.0005
557.222	-0.0047
557.4163	0.0081
557.6107	0.0058
557.805	-0.0077
557.9993	0.0066
558.1936	-0.0011
558.3879	0.0052
558.5821	0.0038
558.7764	0.0024
558.9706	-0.0094
559.1648	0.0134
559.359	-0.0066
559.5532	-0.0062
559.7473	-0.0039
559.9415	0.0038
560.1356	0.0119
560.3297	-0.0083
560.5238	0.0104
560.7179	0.0074
560.9119	0.003
561.106	-0.0112
561.3	0.0031
561.494	-0.0061
561.688	-0.0017
561.882	0.0047
562.076	0.0012
562.2699	0.0033
562.4639	0.019
562.6578	0.0046
562.8517	0.0011
563.0456	0.0017
563.2395	0.0076
563.4333	0.0105
563.6272	0.0078
563.821	0.0064
564.0148	-0.0021
564.2086	0.0053
564.4024	0.0067
564.5961	0.0048
564.7899	0.0105
564.9836	0.0057
565.1773	0.0047
565.371	-0.0086
565.5647	0.0105
565.7584	0.0089
565.952	0.0084
566.1456	0.0014
566.3393	0.0052
566.5329	0.0052
566.7264	0.0041
566.92	0.0019
567.1136	-0.007
567.3071	-0.009
567.5006	0.0089
567.6941	0.003
567.8876	-0.0041
568.0811	0.0135
568.2745	0.0006
568.468	0.0056
568.6614	0.0043
568.8548	0.0081
569.0482	0.0039
569.2416	0.0031
569.4349	0.0031
569.6283	0.0028
569.8216	0.0049
570.0149	-0.0007
570.2082	0.0081
570.4015	0.0039
570.5947	0.0011
570.788	0.0056
570.9812	0.0012
571.1744	0.0015
571.3676	0.005
571.5608	0.0012
571.754	0.0081
571.9471	0.0083
572.1402	0.0016
572.3333	0.008
572.5264	0.0066
572.7195	-0.0005
572.9126	0.0025
573.1057	0.0032
573.2987	0.0026
573.4917	0.0028
573.6847	0.0008
573.8777	0.0066
574.0707	0.0023
574.2636	0.0053
574.4566	0.0005
574.6495	0
574.8424	0.0059
575.0353	0.0051
575.2281	0.0113
575.421	0.0002
575.6138	0.0034
575.8067	0.0076
575.9995	0.0022
576.1923	0.0062
576.385	0.0082
576.5778	0.008
576.7706	0.0035
576.9633	0.0015
577.156	-0.0038
577.3487	0.0035
577.5414	-0.0045
577.734	-0.001
577.9267	0.0038
578.1193	0.0019
578.3119	0.002
578.5045	0.0029
578.6971	-0.0028
578.8897	0.0019
579.0822	0.0068
579.2747	-0.0014
579.4673	0.0081
579.6598	0.0054
579.8522	0.0022
580.0447	0.0083
580.2372	0.0043
580.4296	0.0095
580.622	0.0029
580.8144	0.0019
581.0068	0.0015
581.1992	0.004
581.3915	0.0002
581.5839	0.0037
581.7762	0.0013
581.9685	-0.0005
582.1608	0.0002
582.353	0.0048
582.5453	0.0056
582.7375	0.004
582.9298	0.0007
583.122	0.0014
583.3142	0.0047
583.5063	-0.0001
583.6985	-0.003
583.8906	0.0032
584.0827	0.0088
584.2749	0.0011
584.4669	0.0022
584.659	0.007
584.8511	0.0056
585.0431	0.0035
585.2352	0.0012
585.4272	0.0052
585.6192	0.0049
585.8111	0.0015
586.0031	-0.0012
586.195	0.0027
586.387	0.0006
586.5789	0.0066
586.7708	0.0081
586.9627	0.0021
587.1545	0.0055
587.3464	0.0024
587.5382	0.002
587.73	0.0108
587.9218	-0.0021
588.1136	-0.0031
588.3053	0.003
588.4971	0.0009
588.6888	-0.0019
588.8805	0.0012
589.0722	0.0131
589.2639	0.0053
589.4556	0.0061
589.6472	0.0076
589.8389	0.0046
590.0305	0.0059
590.2221	0.0051
590.4137	-0.0025
590.6052	-0.0031
590.7968	0.0054
590.9883	-0.0025
591.1798	-0.0011
591.3713	0.0024
591.5628	-0.003
591.7543	0.0017
591.9458	0.0058
592.1372	0.0051
592.3286	0.0011
592.52	0.0023
592.7114	-0.0003
592.9028	0.0095
593.0941	0.002
593.2855	0.003
593.4768	0.0059
593.6681	0.0044
593.8594	0.0057
594.0506	0.003
594.2419	0.0048
594.4331	0.0054
594.6244	0.0001
594.8156	0.0028
595.0067	-0.0002
595.1979	0.001
595.3891	0.0032
595.5802	0.0066
595.7713	0.0054
595.9624	0.0098
596.1535	0.0029
596.3446	-0.001
596.5357	0.0015
596.7267	-0.0009
596.9177	-0.0026
597.1087	-0.0017
597.2997	0.0012
597.4907	-0.0051
597.6817	0.0089
597.8726	0.009
598.0635	0.0002
598.2544	0.0044
598.4453	0.0025
598.6362	0.0027
598.827	-0.0005
599.0179	0.005
599.2087	0.0058
599.3995	0.0108
599.5903	0.0033
599.7811	0.0081
599.9718	0
600.1626	0.0017
600.3533	0.0016
600.544	0.0007
600.7347	0.0025
600.9254	0.0113
601.116	0.0028
601.3067	0.002
601.4973	0.0042
601.6879	0.0026
601.8785	0.0048
602.0691	-0.0013
602.2596	0.0023
602.4502	0.0049
602.6407	0.0048
602.8312	0.0013
603.0217	0.0009
603.2122	0.0059
603.4027	0.0088
603.5931	-0.0003
603.7835	0
603.9739	-0.0004
604.1643	0.0056
604.3547	0.0056
604.5451	0.0068
604.7354	0.0051
604.9257	-0.0005
605.116	-0.0074
605.3063	0.0066
605.4966	0.0032
605.6869	0.006
605.8771	0.0018
606.0673	0.0048
606.2575	0.0062
606.4477	0.0063
606.6379	-0.0011
606.8281	0.0025
607.0182	0.0035
607.2083	0.0018
607.3985	0.0042
607.5885	0.0009
607.7786	-0.003
607.9687	0.0032
608.1587	0.0078
608.3488	0.0053
608.5388	-0.0007
608.7288	-0.0013
608.9187	-0.0023
609.1087	0.0052
609.2986	0.0068
609.4886	-0.0048
609.6785	0.0027
609.8684	-0.0035
610.0582	0.0006
610.2481	-0.0077
610.4379	0.0105
610.6278	0.0015
610.8176	0.0109
611.0074	0.0026
611.1971	0.0085
611.3869	0.0014
611.5766	-0.0074
611.7664	0.0055
611.9561	0.0103
612.1458	0.006
612.3354	0.0074
612.5251	0.0006
612.7147	0.0068
612.9044	-0.0016
613.094	0.0023
613.2836	-0.0044
613.4731	0.0046
613.6627	0.0006
613.8522	0.0069
614.0417	0.0013
614.2313	0.0024
614.4207	0.0045
614.6102	0.0007
614.7997	0.0075
614.9891	0.006
615.1785	0.0038
615.3679	0.004
615.5573	0.0052
615.7467	-0.003
615.9361	0.0069
616.1254	0.002
616.3147	-0.0012
616.504	-0.0036
616.6933	0.0057
616.8826	0.0054
617.0718	0.0125
617.2611	0.0016
617.4503	0.003
617.6395	0.0047
617.8287	0.011
618.0179	0.0056
618.207	0.0025
618.3961	-0.0045
618.5853	-0.0017
618.7744	0.0096
618.9634	0.0087
619.1525	-0.0027
619.3416	0.0015
619.5306	0.0058
619.7196	0.0114
619.9086	0.0081
620.0976	-0.0103
620.2866	0.0097
620.4755	0.0068
620.6645	0.0137
620.8534	0.0109
621.0423	-0.0009
621.2312	-0.0091
621.42	0.0045
621.6089	-0.0075
621.7977	0.0065
621.9865	0.0021
622.1753	0.0012
622.3641	-0.0076
622.5529	-0.0091
622.7416	0.003
622.9303	0.0021
623.1191	0.0094
623.3078	0.0054
623.4964	-0.0015
623.6851	0.0108
623.8737	-0.0023
624.0624	-0.0147
624.251	0.005
624.4396	-0.0007
624.6282	0.0184
624.8167	0.0033
625.0053	0.0079
625.1938	0.0186
625.3823	0.006
625.5708	-0.0108
625.7593	-0.004
625.9477	0.0047
626.1362	-0.0087
626.3246	0.0046
626.513	0.0067
626.7014	0.0155
626.8898	0.0164
627.0781	-0.0062
627.2665	0.0036
627.4548	0.0019
627.6431	0.0087
627.8314	0.0097
628.0197	0.013
628.2079	-0.0011
628.3962	0.002
628.5844	0.0051
628.7726	-0.0008
628.9608	0.0044
629.1489	0.0072
629.3371	-0.0105
629.5252	0.004
629.7134	-0.0115
629.9015	0.0007
630.0895	-0.0055
630.2776	0.0151
630.4657	0.0062
630.6537	0.0119
630.8417	-0.0102
631.0297	-0.0068
631.2177	-0.0069
631.4057	0.0002
631.5936	0.0054
631.7815	0.0029
631.9695	0.01
632.1574	0.0076
632.3452	0.0029
632.5331	0.0077
632.7209	0.0023
632.9088	0.0048
633.0966	0.0277
633.2844	0.0072
633.4722	0.0132
633.6599	0.0071
633.8477	0.02
634.0354	0.0128
634.2231	-0.0037
634.4108	0.0078
634.5985	0.0069
634.7861	-0.0095
634.9738	-0.0024
635.1614	0.0056
635.349	-0.0001
635.5366	0.0073
635.7242	-0.0001
635.9117	0.0158
636.0993	0.0075
636.2868	0.0008
636.4743	0.0198
636.6618	-0.0225
636.8492	0.0166
637.0367	-0.0117
637.2241	-0.0055
637.4115	0.0298
637.5989	0.0013
637.7863	0.0231
637.9737	0.0067
638.161	0.0132
638.3484	-0.0085
638.5357	0.0016
638.723	0.0161
638.9103	-0.0211
639.0975	0.0075
639.2848	0.0179
639.472	0.0029
639.6592	-0.0141
639.8464	0.0143
640.0336	0.0089
640.2208	0.0032
640.4079	-0.0052
640.595	-0.0024
640.7821	0.0244
640.9692	0.0005
641.1563	0.0103
641.3434	0.0091
641.5304	0.0213
641.7174	0.0134
641.9044	-0.001
642.0914	0.0091
642.2784	0.0058
642.4653	0.0081
642.6523	0.0056
642.8392	-0.0115
643.0261	0.0076
643.213	0.0025
643.3999	0.0264
643.5867	0.0043
643.7735	-0.0011
643.9604	0.0086
644.1472	0.0247
644.3339	0.001
644.5207	-0.0096
644.7075	0.0047
644.8942	-0.0032
645.0809	-0.0041
645.2676	0.0003
645.4543	0.0084
645.6409	0.0339
645.8276	0.0136
646.0142	0.0211
646.2008	0.0023
646.3874	0.0133
646.574	-0.0058
646.7605	0.001
646.9471	-0.0092
647.1336	-0.0172
647.3201	0.0103
647.5066	0.0003
647.6931	0.0077
647.8795	0.0151
648.0659	0.0102
648.2524	0.0198
648.4388	-0.001
648.6252	0.0096
648.8115	0.0043
648.9979	0.0094
649.1842	-0.009
649.3705	0.0062
649.5568	-0.0097
649.7431	-0.0164
649.9294	0.0022
650.1156	-0.0083
650.3018	-0.0038
650.488	0.0109
650.6742	0.0284
650.8604	0.0101
651.0466	0.0035
651.2327	0.0072
651.4188	0.003
651.6049	0.0133
651.791	0.0063
651.9771	-0.0005
652.1632	0.0067
652.3492	0.004
652.5352	0.0136
652.7212	0.0028
652.9072	-0.0159
653.0932	0.0009
653.2791	0.0013
653.465	0.0083
653.651	0.0007
653.8369	0.0005
654.0227	-0.0085
654.2086	0.0167
654.3944	0.0171
654.5803	0.0056
654.7661	0.0002
654.9519	-0.0001
655.1377	0.0002
655.3234	0.0002
655.5092	0.0002
655.6949	0.0002
655.8806	0.0002
656.0663	0.0002
656.2519	0.0002
656.4376	0.0002
656.6232	0.0002
656.8088	0.0002
656.9945	0.0002
657.18	0.0002
657.3656	0.0002
657.5511	0.0002
657.7367	0.0002
657.9222	0.0002
658.1077	0.0002
658.2932	0.0002
658.4786	0.0002
658.6641	0.0002
658.8495	0.0002
659.0349	0.0002
659.2203	0.0002
659.4057	0.0002
659.591	0.0546
659.7764	0.0345
659.9617	0.0038
660.147	-0.0072
660.3323	0.0056
660.5176	-0.0014
660.7028	-0.0093
660.888	-0.0051
661.0733	0.0138
661.2585	-0.0048
661.4436	-0.0076
661.6288	0.0107
661.8139	-0.0215
661.9991	-0.0177
662.1842	0.0065
662.3693	0.0129
662.5544	0.0096
662.7394	0.0219
662.9245	0.0135
663.1095	-0.0204
663.2945	0.0024
663.4795	-0.0066
663.6644	-0.0004
663.8494	-0.0022
664.0343	0.0037
664.2193	-0.0207
664.4042	0.005
664.589	0.0053
664.7739	0.0143
664.9587	0.0016
665.1436	-0.0112
665.3284	0.0069
665.5132	-0.009
665.698	0.0073
665.8827	0.0141
666.0675	-0.022
666.2522	0.0175
666.4369	-0.0073
666.6216	-0.0052
666.8063	0.0077
666.9909	-0.0022
667.1756	0.0005
667.3602	-0.0057
667.5448	0.0054
667.7294	0.0241
667.9139	-0.0081
668.0985	0.026
668.283	-0.0059
668.4675	0.0242
668.652	0.0008
668.8365	-0.0152
669.0209	-0.005
669.2054	-0.0102
669.3898	0.0043
669.5742	0.0369
669.7586	0.0154
669.943	0.009
670.1273	-0.0187
670.3117	0.0182
670.496	0.0128
670.6803	0.0296
670.8646	-0.0037
671.0488	0.0179
671.2331	-0.0174
671.4173	0.0172
671.6015	0.0018
671.7857	-0.0021
671.9699	0.0088
672.1541	-0.0085
672.3382	-0.0003
672.5223	0.0005
672.7064	-0.0032
672.8905	-0.0108
673.0746	-0.0054
673.2587	0.0089
673.4427	-0.0002
673.6267	0.0199
673.8107	0.0282
673.9947	0.0197
674.1787	-0.0038
674.3626	0.0055
674.5465	0.0253
674.7304	0.0031
674.9143	-0.0008
675.0982	0.0011
675.2821	-0.0005
675.4659	-0.0174
675.6497	0.0138
675.8335	0.0062
676.0173	-0.0099
676.2011	0.0147
676.3849	0.0117
676.5686	0.0187
676.7523	0.0159
676.936	0.0058
677.1197	-0.0174
677.3034	0.0345
677.487	0.0119
677.6706	0.0134
677.8542	0.0117
678.0378	0.0281
678.2214	-0.0095
678.405	0.0061
678.5885	0.0213
678.772	0.0073
678.9555	0.016
679.139	0.0144
679.3225	-0.0052
679.5059	-0.0071
679.6894	0.0117
679.8728	0.0027
680.0562	0.0027
680.2395	-0.0172
680.4229	-0.0036
680.6062	-0.0031
680.7896	-0.01
680.9729	0.0181
681.1562	-0.0008
681.3394	0.0243
681.5227	-0.0008
681.7059	0.0069
681.8891	0.0136
682.0723	-0.0086
682.2555	0.0089
682.4387	0.0152
682.6218	0.0172
682.805	0.0254
682.9881	0.0159
683.1712	0.0133
683.3542	0.019
683.5373	-0.0059
683.7203	0.0113
683.9034	0.0068
684.0864	-0.0014
684.2694	0.0069
684.4523	0.0162
684.6353	-0.0096
684.8182	0.0044
685.0011	0.011
685.184	0.0086
685.3669	0.022
685.5498	-0.0008
685.7326	-0.004
685.9154	-0.0149
686.0982	0.0007
686.281	0.0058
686.4638	0.0109
686.6465	0.0084
686.8293	0.0045
687.012	0.0148
687.1947	0.0114
687.3774	0.0016
687.56	-0.0045
687.7427	0.0006
687.9253	-0.0128
688.1079	0.0084
688.2905	-0.0026
688.4731	0.0129
688.6556	-0.0151
688.8382	-0.0197
689.0207	0.0052
689.2032	0.0368
689.3857	0.006
689.5681	-0.0108
689.7506	0.0146
689.933	-0.0105
690.1154	0.0021
690.2978	-0.0127
690.4802	0.0294
690.6626	0.0033
690.8449	0.0163
691.0272	-0.001
691.2095	-0.0141
691.3918	0.0118
691.5741	0.0103
691.7563	0.0028
691.9386	0.009
692.1208	0.003
692.303	0.0016
692.4852	0.0131
692.6673	0.0124
692.8495	-0.0016
693.0316	0.0003
693.2137	0.0051
693.3958	0.0153
693.5778	0.0215
693.7599	-0.0116
693.9419	-0.0155
694.1239	-0.0026
694.3059	0.0185
694.4879	0.0004
694.6699	0.0064
694.8518	0.0289
695.0337	0.0097
695.2157	0.019
695.3975	0.0079
695.5794	-0.0198
695.7613	0.0094
695.9431	-0.05
696.1249	-0.0011
696.3067	-0.015
696.4885	0.014
696.6703	0.0072
696.852	-0.0105
697.0337	0.0146
697.2154	-0.0064
697.3971	-0.0055
697.5788	0.0112
697.7605	0.0049
697.9421	0.022
698.1237	0.0172
698.3053	-0.0153
698.4869	-0.0052
698.6685	-0.012
698.85	0.0076
699.0315	-0.0033
699.213	-0.0125
699.3945	-0.0029
699.576	0.0129
699.7575	0.0153
699.9389	0.0096
700.1203	0.0368
700.3017	0.0182
700.4831	0.0039
700.6645	0.0345
700.8458	-0.0116
701.0271	0.0423
701.2084	0.0259
701.3897	-0.001
701.571	-0.0227
701.7523	0.0089
701.9335	0.0127
702.1147	0.0072
702.2959	-0.0035
702.4771	-0.0017
702.6583	0.0046
702.8394	-0.0102
703.0205	0.0041
703.2016	0.003
703.3827	-0.0168
703.5638	0.0028
703.7449	0.0017
703.9259	0.0134
704.1069	-0.0006
704.2879	0.0109
704.4689	0.0168
704.6499	-0.0084
704.8308	0.0182
705.0117	0.0265
705.1927	0.0497
705.3735	0.008
705.5544	0.0176
705.7353	-0.0081
705.9161	0.0039
706.0969	0.0103
706.2777	0.0152
706.4585	0.0134
706.6393	0.0089
706.82	0.0102
707.0007	-0.0049
707.1815	0.0047
707.3621	0.0247
707.5428	0.0069
707.7235	0.0124
707.9041	0.0116
708.0847	0.0203
708.2653	0.0116
708.4459	-0.0087
708.6265	0.0103
708.807	0.0171
708.9875	-0.0028
709.168	-0.0065
709.3485	0.0165
709.529	-0.0121
709.7095	-0.0026
709.8899	0.0064
710.0703	0.0336
710.2507	0.0086
710.4311	-0.0192
710.6115	0.0379
710.7918	0.031
710.9721	-0.0037
711.1524	-0.0061
711.3327	-0.0014
711.513	-0.014
711.6932	0.0048
711.8735	0.0333
712.0537	-0.0002
712.2339	0.001
712.4141	0.0364
712.5942	-0.0024
712.7744	0.0249
712.9545	0.0247
713.1346	0.0272
713.3147	0.0075
713.4947	0.009
713.6748	0.0196
713.8548	0.0283
714.0348	0.0198
714.2148	0.0057
714.3948	0.0194
714.5748	0.0095
714.7547	-0.0114
714.9346	0.0227
715.1145	0.0112
715.2944	-0.0158
715.4743	0.0203
715.6541	-0.0154
715.834	0.0147
716.0138	0.0328
716.1936	0.0045
716.3733	0.0093
716.5531	0.0139
716.7328	-0.01
716.9126	0.0109
717.0923	-0.035
717.2719	0.0322
717.4516	-0.0084
717.6312	-0.0034
717.8109	0.0199
717.9905	0.0154
718.1701	0.0155
718.3496	-0.0145
718.5292	-0.0121
718.7087	-0.0028
718.8882	0.0356
719.0677	0.0002
719.2472	0.0002
719.4267	-0.0054
719.6061	-0.0195
719.7856	0.0382
719.965	0.0321
720.1443	0.0235
720.3237	-0.0191
720.5031	-0.0051
720.6824	0.0129
720.8617	-0.0095
721.041	0.0247
721.2203	-0.013
721.3995	-0.0097
721.5788	0.0105
721.758	-0.0173
721.9372	0.0091
722.1164	0.0181
722.2956	-0.0038
722.4747	0.0086
722.6538	-0.0016
722.8329	0.0019
723.012	0.0374
723.1911	-0.0128
723.3702	0.0396
723.5492	0.0331
723.7282	-0.0011
723.9072	0.0224
724.0862	0.011
724.2652	0.019
724.4441	0.0067
724.623	-0.0036
724.8019	0.0308
724.9808	0.0151
725.1597	0.0032
725.3385	-0.0056
725.5174	-0.0076
725.6962	-0.0022
725.875	0.0031
726.0538	0.0229
726.2325	0.0153
726.4112	-0.0445
726.59	-0.0113
726.7687	-0.0096
726.9474	0.0303
727.126	0.0188
727.3047	-0.0206
727.4833	0.0174
727.6619	0.0041
727.8405	0.0295
728.0191	0.0117
728.1976	-0.0107
728.3762	-0.0161
728.5547	0.0056
728.7332	0.0224
728.9116	0.026
729.0901	-0.0055
729.2686	0.0113
729.447	-0.0058
729.6254	-0.0027
729.8038	-0.0095
729.9821	-0.0153
730.1605	0.017
730.3388	0.0017
730.5171	0.0083
730.6954	-0.0207
730.8737	-0.0063
731.0519	-0.0082
731.2302	0.0156
731.4084	0.0018
731.5866	-0.0102
731.7648	-0.0005
731.9429	0.0164
732.1211	-0.0089
732.2992	0.003
732.4773	-0.003
732.6554	-0.0163
732.8335	0.0315
733.0115	0.014
733.1896	-0.0097
733.3676	0.011
733.5456	0.001
733.7235	0.0084
733.9015	0.004
734.0794	0.0129
734.2574	-0.0063
734.4353	0.0142
734.6131	0.0029
734.791	0.0115
734.9689	-0.0064
735.1467	-0.0108
735.3245	0.0099
735.5023	0.0105
735.68	-0.0075
735.8578	0.016
736.0355	0.0028
736.2132	0.0084
736.3909	0.0004
736.5686	-0.0012
736.7463	-0.0169
736.9239	0.0125
737.1015	0.0004
737.2791	0.0137
737.4567	-0.0015
737.6343	-0.0038
737.8118	0.0026
737.9894	-0.013
738.1669	0.0035
738.3444	0.0234
738.5218	-0.0236
738.6993	0.0188
738.8767	-0.0107
739.0541	-0.008
739.2315	-0.008
739.4089	0.0097
739.5863	0.016
739.7636	-0.0036
739.9409	-0.0152
740.1182	-0.012
740.2955	0.0152
740.4728	-0.0118
740.65	0.0011
740.8272	0.0142
741.0044	0.018
741.1816	0.0134
741.3588	-0.041
741.5359	-0.0102
741.7131	0.0064
741.8902	0.0145
742.0673	-0.0031
742.2444	0.0387
742.4214	0.0043
742.5985	-0.0178
742.7755	0.001
742.9525	-0.0548
743.1295	-0.0285
743.3064	-0.0089
743.4834	0.0108
743.6603	0.0316
743.8372	-0.0423
744.0141	0.0477
744.191	-0.0035
744.3678	-0.0318
744.5446	0.0238
744.7215	0.006
744.8982	0.0326
745.075	0.0345
745.2518	0.0043
745.4285	0.0476
745.6052	-0.0255
745.7819	0.0276
745.9586	-0.014
746.1353	0.0105
746.3119	0.0116
746.4885	0.0413
746.6651	0.0019
746.8417	-0.0032
747.0183	0.0305
747.1948	0.0002
747.3714	0.0097
747.5479	0.0193
747.7244	0.0211
747.9008	-0.0053
748.0773	0.039
748.2537	0.0063
748.4301	0.015
748.6065	-0.0114
748.7829	-0.0019
748.9593	0.0157
749.1356	0.0326
749.3119	0.0117
749.4882	0.0197
749.6645	0.0035
749.8408	-0.0023
750.017	0.0128
750.1933	-0.0178
750.3695	0.0001
750.5457	-0.0062
750.7218	0.0011
750.898	-0.0005
751.0741	-0.0046
751.2502	0.0206
751.4263	0.0058
751.6024	-0.0053
751.7784	0.0026
751.9545	0.0024
752.1305	-0.0125
752.3065	0.0213
752.4825	0.0119
752.6584	0.014
752.8344	-0.0161
753.0103	-0.0027
753.1862	0.0316
753.3621	0.0028
753.5379	-0.0068
753.7138	0.0199
753.8896	0.017
754.0654	-0.0057
754.2412	0.0269
754.417	0.0066
754.5927	0.0203
754.7685	0.0036
754.9442	0.0339
755.1199	0.011
755.2956	-0.0014
755.4712	0.0101
755.6469	0.0085
755.8225	0.0215
755.9981	0.0163
756.1736	0.0123
756.3492	0.0016
756.5248	0.0111
756.7003	-0.0161
756.8758	-0.0158
757.0513	0.0152
757.2267	0.0075
757.4022	-0.0047
757.5776	0.0017
757.753	0.0189
757.9284	0.0001
758.1038	0.0076
758.2791	0.0099
758.4545	-0.0082
758.6298	0.0128
758.8051	0.0182
758.9803	0.0034
759.1556	0.0063
759.3308	-0.0069
759.506	0.0052
759.6812	0.0007
759.8564	-0.0028
760.0316	-0.0034
760.2067	0.025
760.3819	-0.0049
760.557	-0.0101
760.732	-0.0055
760.9071	0.0171
761.0821	-0.0093
761.2572	0.015
761.4322	0.0112
761.6072	0.0053
761.7821	-0.0144
761.9571	0.0103
762.132	-0.0066
762.3069	0.0475
762.4818	0.0036
762.6567	-0.0002
762.8316	0.0214
763.0064	0.0301
763.1812	0.0104
763.356	-0.0204
763.5308	0.022
763.7055	0.0033
763.8803	-0.0035
764.055	-0.0104
764.2297	0.0106
764.4044	-0.0028
764.579	0.0038
764.7537	-0.002
764.9283	0.0058
765.1029	0.0159
765.2775	-0.0017
765.4521	0.028
765.6266	-0.007
765.8011	0.0289
765.9756	0.0052
766.1501	-0.0106
766.3246	0.0121
766.4991	0.0158
766.6735	0.0416
766.8479	0.0271
767.0223	0.0118
767.1967	-0.0026
767.371	0.0229
767.5454	0.0476
767.7197	0.0214
767.894	0.02
768.0683	0.0242
768.2425	0.0097
768.4168	0.0202
768.591	-0.0054
768.7652	0.0171
768.9394	-0.0087
769.1135	0.0094
769.2877	0.0151
769.4618	0.0371
769.6359	0.0094
769.81	0.0006
769.984	0.0085
770.1581	0.0043
770.3321	0.0223
770.5061	-0.007
770.6801	0.0248
770.8541	0.0199
771.028	0.0231
771.202	0.0251
771.3759	0.0306
771.5498	-0.0138
771.7236	0.0101
771.8975	0.0353
772.0713	0.0384
772.2451	-0.0104
772.4189	-0.0046
772.5927	-0.0267
772.7665	0.0042
772.9402	0.0044
773.1139	-0.0276
773.2876	-0.0063
773.4613	0.027
773.635	0.029
773.8086	0.0379
773.9822	0.0313
774.1558	0.0343
774.3294	-0.0004
774.503	-0.0107
774.6765	0.0127
774.8501	0.0156
775.0236	0.0175
775.1971	-0.0271
775.3705	0.0162
775.544	-0.065
775.7174	-0.007
775.8908	0.0065
776.0642	0.0028
776.2376	0.0451
776.4109	0.0581
776.5843	0.0156
776.7576	0.0098
776.9309	0.0342
777.1041	-0.004
777.2774	0.0286
777.4506	0.009
777.6238	-0.0023
777.797	0.0518
777.9702	-0.0004
778.1434	0.0015
778.3165	-0.0196
778.4896	0.0138
778.6627	0.0002
778.8358	-0.0151
779.0089	-0.0421
779.1819	0.0172
779.3549	0.0234
779.5279	0.0075
779.7009	0.0415
779.8739	0.059
780.0468	0.0379
780.2197	0.0077
780.3926	0.0252
780.5655	0.0232
780.7384	-0.0085
780.9112	0.042
781.0841	-0.003
781.2569	0.0038
781.4297	-0.0137
781.6024	0.0164
781.7752	0.0459
781.9479	0.0594
782.1206	0.0115
782.2933	-0.0043
782.466	0.0271
782.6386	-0.0127
782.8113	-0.0196
782.9839	0.0257
783.1565	0.0008
783.329	0.0072
783.5016	0.0261
783.6741	-0.0118
783.8466	0.049
784.0191	0.0072
784.1916	0.0099
784.3641	-0.0455
784.5365	0.0311
784.7089	-0.0104
784.8813	0.0605
785.0537	0.017
785.2261	0.0055
785.3984	0.0094
785.5707	0.0429
785.743	0.0524
785.9153	0.004
786.0876	0.0057
786.2598	-0.0173
786.432	0.0086
786.6042	0.0582
786.7764	-0.0028
786.9486	-0.0324
787.1207	0.0257
787.2928	0.046
787.4649	-0.0236
787.637	0.0074
787.8091	0.0287
787.9811	0.0258
788.1532	-0.0071
788.3252	-0.0032
788.4972	0.0002
788.6691	-0.0175
788.8411	-0.0093
789.013	0.0201
789.1849	-0.0144
789.3568	0.0164
789.5287	0.0215
789.7005	-0.0262
789.8723	-0.0153
790.0442	0.0156
790.2159	0.0056
790.3877	0.0112
790.5595	0.0569
790.7312	-0.0239
790.9029	0.0182
791.0746	0.0408
791.2463	-0.0582
791.4179	0.0232
791.5896	0.0114
791.7612	0.0402
791.9328	-0.0044
792.1044	-0.0174
792.2759	-0.0044
792.4474	-0.0166
792.619	-0.0096
792.7905	0.0361
792.9619	0.0687
793.1334	0.0408
793.3048	0.037
793.4762	0.0237
793.6476	-0.0091
793.819	0.007
793.9904	0.0033
794.1617	0.0028
794.333	-0.0095
794.5043	0.0293
794.6756	-0.0156
794.8469	0.0319
795.0181	0.0066
795.1893	0.0441
795.3605	0.0215
795.5317	-0.0052
795.7029	-0.0096
795.874	-0.0033
796.0452	0.0076
796.2163	0.0438
796.3873	0.0455
796.5584	0.1036
796.7294	0.0236
796.9005	0.0421
797.0715	0.0054
797.2425	0.0706
797.4134	0.0532
797.5844	0.0408
797.7553	-0.0507
797.9262	0.0727
798.0971	0.035
798.2679	0.0091
798.4388	0.07
798.6096	0.0116
798.7804	-0.0019
798.9512	0.0196
799.122	-0.0537
799.2927	0.08
799.4635	0.0006
799.6342	-0.1014
799.8049	0.066
799.9755	-0.0322
800.1462	0.0273
800.3168	0.0642
800.4874	-0.0233
800.658	0.0008
800.8286	0.0022
800.9991	0.015
801.1696	-0.0303
801.3402	-0.0394
801.5106	-0.0257
801.6811	-0.0133
801.8516	0.0931
802.022	0.1556
802.1924	0.0157
802.3628	0.125
802.5332	0.0804
802.7035	0.0336
802.8739	0.0866
803.0442	0.0298
803.2145	0.136
803.3847	0.0345
803.555	0.0164
803.7252	0.0043
803.8954	-0.0042
804.0656	0.0855
804.2358	0.0469
804.4059	0.01
804.5761	0.0302
804.7462	0.0112
804.9163	0.0524
805.0864	0.0095
805.2564	-0.0049
805.4264	0.0297
805.5965	0.0297
805.7665	0.0146
805.9364	0.0006
806.1064	0.01
806.2763	0.0721
806.4462	0.0311
806.6161	0.0146
806.786	-0.023
806.9559	-0.0544
807.1257	0.0025
807.2955	-0.0424
807.4653	0.0537
807.6351	0.0192
807.8048	-0.0435
807.9746	-0.0057
808.1443	-0.0528
808.314	0.0647
808.4837	0.0383
808.6533	-0.0687
808.8229	0.0615
808.9926	-0.0021
809.1622	0.0309
809.3317	0.0183
809.5013	0.037
809.6708	0.0462
809.8403	-0.0009
810.0098	-0.0464
810.1793	0.052
810.3488	0.0391
810.5182	0.0872
810.6876	-0.0011
810.857	0.1377
811.0264	0.0244
811.1958	0.1472
811.3651	0.0839
811.5344	0.0695
811.7037	0.0829
811.873	0.0284
812.0422	0.0316
812.2115	0.109
812.3807	-0.1579
812.5499	0.0966
812.7191	0.1611
812.8882	-0.0231
813.0574	-0.0243
813.2265	0.0122
813.3956	0.0494
813.5646	0.1451
813.7337	0.0116
813.9027	-0.0192
814.0718	0.086
814.2407	0.1486
814.4097	-0.0117
814.5787	0.0722
814.7476	-0.0066
814.9165	-0.0216
815.0854	-0.025
815.2543	-0.006
815.4232	0.0432
815.592	-0.0352
815.7608	-0.0991
815.9296	0.0484
816.0984	0.4371
816.2671	-0.3166
816.4359	0.0667
816.6046	0.0743
816.7733	-0.0054
816.942	0.0147
817.1106	0.0173
817.2793	-0.0898
817.4479	-0.0014
817.6165	0.0027
817.785	0.0966
817.9536	-0.0712
818.1221	0.0582
818.2906	-0.1027
818.4591	0.0895
818.6276	0.0341
818.7961	0.0414
818.9645	0.0247
819.1329	0.2148
819.3013	0.1094
819.4697	-0.1373
819.638	0.0546
819.8064	0.2764
819.9747	0.144
820.143	-0.0253
820.3113	0.2014
820.4795	0.1379
820.6477	0.0709
820.816	-0.0338
820.9842	0.024
821.1523	0.0127
821.3205	-0.0361
821.4886	-0.0192
821.6567	0.0335
821.8248	0.2224
821.9929	-0.0956
822.1609	-0.1054
822.329	0.124
822.497	0.006
822.665	-0.0359
822.833	0.0579
823.0009	0.0421
823.1688	0.6279
823.3367	-0.1545
823.5046	0.0502
823.6725	0.0574
823.8404	-0.0122
824.0082	0.1044
824.176	-0.0128
824.3438	0.2012
824.5116	0.0862
824.6793	0.1196
824.847	0.1232
825.0147	0.7813
825.1824	0.0881
825.3501	0.3023
825.5177	-0.0981
825.6854	-0.1239
825.853	0.0379
826.0206	-0.0684
826.1881	-0.0301
826.3557	0.0123
826.5232	0.0649
826.6907	0.0839
826.8582	-0.043
827.0257	0.0924
827.1931	0.1798
827.3605	-0.1327
827.528	0.0022
827.6953	-0.2354
827.8627	0.2282
828.03	-0.0327
828.1974	0.1295
828.3647	0.1259
828.532	0.0111
828.6992	0.0923
828.8665	-0.1704
829.0337	0.0248
829.2009	-0.0397
829.3681	-0.0143
829.5352	-0.0446
829.7024	0.428
829.8695	-0.017
830.0366	0.1472
830.2037	0.1214
830.3707	0.1219
830.5378	0.0079
830.7048	-0.0295
830.8718	0.1095
831.0388	0.1043
831.2057	0.0453
831.3727	-0.1435
831.5396	-0.0353
831.7065	-0.8995
831.8734	0.0026
832.0402	0.2657
832.2071	0.0159
832.3739	-0.0067
832.5407	-1.415
832.7075	-0.1435
832.8742	0.1019
833.041	0.0222
833.2077	0.7816
833.3744	0.0924
833.541	-0.0548
833.7077	-0.0036
833.8743	0.151
834.0409	0.0677
834.2075	0.2261
834.3741	-0.2903
834.5407	0.2962
834.7072	-0.0023
834.8737	0.1519
835.0402	0.3519
835.2067	-0.1525
835.3731	0.0856
835.5395	0.0964
835.706	0.1218
835.8723	-0.0931
836.0387	0.3776
836.2051	0.0116
836.3714	0.5441
836.5377	0.1441
836.704	0.4597
836.8703	-0.1899
837.0365	-0.8618
837.2027	0.3538
837.3689	0.6278
837.5351	1.0832
837.7013	0.0464
837.8674	-0
838.0335	-0.1079
838.1997	-0.0179
838.3657	-0
838.5318	-0.5041
838.6978	-0
838.8639	-0.5382
839.0299	0.1784
839.1958	0.0884
839.3618	0.4651
839.5277	0.2901
839.6937	-0.1951
839.8596	0.0267
840.0254	-0.1518
840.1913	-0.4429
840.3571	-0.1472
840.523	-0
840.6888	0.3151
840.8545	-0.7005
841.0203	0.186
841.186	0.2604
841.3517	-0.1589
841.5174	0.0467
841.6831	-0.1018
841.8488	0.0875
842.0144	-0
842.18	0.2249
842.3456	-0.2834
842.5112	-0
842.6767	0.0996
842.8422	-0.0944
843.0077	0.3693
843.1732	1.2466
843.3387	0.3617
843.5042	0.3242
843.6696	0.6661
843.835	-0
844.0004	-0.0444
844.1657	-0
844.3311	-0
844.4964	-0
844.6617	1.1553
844.827	-0
844.9923	0.1729
845.1575	-0
845.3227	-0.1454
845.4879	0.2098
845.6531	0.1073
845.8183	0.1568
845.9834	-0
846.1485	0.7709
846.3136	0.6128
846.4787	-0.2399
846.6438	-0.2044
846.8088	-0
846.9738	-0
847.1388	0.4952
847.3038	0.0805
847.4687	0.7896
847.6337	-0.3211
847.7986	-0.2149
847.9635	-0.1173
848.1284	-0
848.2932	0.0622
848.458	-0
848.6228	0.3547
848.7876	-0
848.9524	-0
849.1172	-0
849.2819	-0
849.4466	0.2403
849.6113	0.5481
849.7759	-0
849.9406	-0
850.1052	-1.3821
850.2698	-0
850.4344	-0.5379
850.599	0.2908
850.7635	0.2863
850.928	-0
851.0925	0.1999
851.257	-0.1698
851.4215	-0
851.5859	-0.0853
851.7503	-0
851.9147	-0.2194
852.0791	-0.0216
852.2434	0.8612
852.4078	-0.207
852.5721	0.3728
852.7364	-0
852.9007	0.4128
853.0649	-0
853.2291	0.409
853.3934	0.2229
853.5575	-0.0396
853.7217	0.4249
853.8859	0.524
854.05	-0
854.2141	0.0256
854.3782	2.1861
854.5423	-0
854.7063	0.3426
854.8703	-0
855.0343	-0.1945
855.1983	0.0867
855.3623	0.1424
855.5262	1.2945
855.6901	0.3087
855.854	0.6582
856.0179	-0.053
856.1818	-0
856.3456	0.6452
856.5094	-0.7114
856.6732	0.2683
856.837	-1.158
857.0008	-0.4496
857.1645	-0.2664
857.3282	-0.4291
857.4919	0.1411
857.6556	0.1972
857.8192	0.0514
857.9828	0.0657
858.1465	-0.1566
858.31	0.3421
858.4736	-0.3214
858.6372	-0.0565
858.8007	0.7488
858.9642	0.3577
859.1277	-0
859.2911	-0.4901
859.4546	-1.2148
859.618	0.2793
859.7814	0.1472
859.9448	-0
860.1081	-0
860.2715	-1.3854
860.4348	-0
860.5981	-0
860.7614	-0
860.9246	-0.0322
861.0879	-0
861.2511	-0
861.4143	-0.424
861.5774	-0.283
861.7406	0.4788
861.9037	-0.8665
862.0668	-0.3867
862.2299	0.7429
862.393	-0.4165
862.556	-0
862.7191	-0.328
862.8821	0.3307
863.0451	0.2293
863.208	-0.1088
863.371	-0.5738
863.5339	0.365
863.6968	-0
863.8597	-0.2869
864.0225	-0
864.1854	-0.034
864.3482	-0.55
864.511	0.2493
864.6737	-0
864.8365	0.3496
864.9992	0.5235
865.1619	-0
865.3246	-1.6314
865.4873	-0
865.65	-0
865.8126	0.4278
865.9752	0.2712
866.1378	0.1872
866.3004	-0.3775
866.4629	-1.6681
866.6254	-0
866.7879	-0.2566
866.9504	-0
867.1129	0.6633
867.2753	-0.2296
867.4377	0.0064
867.6001	-0.2744
867.7625	-0.2361
867.9249	-0
868.0872	-0
868.2495	0.5496
868.4118	1.3674
868.5741	-0
868.7363	-0
868.8986	-0.6527
869.0608	0.6888
869.223	-0.1495
869.3851	-0
869.5473	0.3784
869.7094	-0.1163
869.8715	-0.2358
870.0336	0.1073
870.1957	0.6128
870.3577	-0.095
870.5197	-0.0281
870.6817	-0.5648
870.8437	0.1314
871.0057	-0
871.1676	0.2925
871.3295	-0
871.4914	-1.2148
871.6533	-0.4726
871.8151	1.6934
871.977	-0.153
872.1388	-0
872.3006	-0.2834
872.4623	-0
872.6241	-0
872.7858	0.0357
872.9475	-0
873.1092	-0
873.2709	0.5305
873.4325	0.5441
873.5941	-0
873.7557	-0
873.9173	0.037
874.0789	0.3337
874.2404	-0
874.4019	0.011
874.5634	-0
874.7249	-0
874.8863	0.2948
875.0478	-0.1787
875.2092	0.6793
875.3706	0.3635
875.5319	0.1256
875.6933	-0
875.8546	-0
876.0159	0.2066
876.1772	-0.0257
876.3385	-0
876.4997	0.1346
876.6609	2.1508
876.8221	1.0308
876.9833	1.0873
877.1445	0.4187
877.3056	-0.8471
877.4667	-0.5012
877.6278	0.3749
877.7889	-0
877.9499	-0
878.111	-0.5535
878.272	-0
878.433	-0
878.5939	0.3055
878.7549	-0
878.9158	1.4099
879.0767	0.17
879.2376	-0
879.3984	0.7199
879.5593	-0.0455
879.7201	-0
879.8809	-0.1452
880.0417	0.0045
880.2024	0.2277
880.3632	-0.337
880.5239	0.7862
880.6846	-0
880.8452	0.4892
881.0059	-0.6357
881.1665	0.1932
881.3271	-0
881.4877	0.2304
881.6483	-1.1461
881.8088	-0
881.9693	-1.1879
882.1298	-1.1879
882.2903	-1.1879
