Data from D4ACN5uM460nmA_Absorbance_13-05-42-785.txt Node
Date: Fri Feb 21 13:05:42 GMT 2025
User: LASERRRRR
Spectrometer: FLMT03099
Trigger mode: 0
Integration Time (sec): 1.500000E-2
Scans to average: 1
Electric dark correction enabled: true
Nonlinearity correction enabled: false
Boxcar width: 0
XAxis mode: Wavelengths
Number of Pixels in Spectrum: 3648
>>>>>Begin Spectral Data<<<<<
179.3399	0.2109
179.5586	0.2109
179.7771	0.2109
179.9957	0.0281
180.2143	-1.4291
180.4329	-0.1102
180.6514	-0
180.8699	-0
181.0885	-0
181.307	-0.0596
181.5255	-0.2857
181.744	0.0035
181.9625	0.7736
182.181	-0.4986
182.3994	-0.462
182.6179	-0.265
182.8363	-0.0213
183.0547	-0.1192
183.2732	0.1764
183.4916	0.3315
183.71	0.0998
183.9284	0.1764
184.1467	-0.0594
184.3651	-0.0372
184.5835	0.2222
184.8018	0.2456
185.0201	0.1648
185.2385	0.458
185.4568	0.1316
185.6751	0.1955
185.8934	0.494
186.1117	0.1824
186.3299	0.3661
186.5482	0.2611
186.7664	0.0675
186.9847	0.0186
187.2029	0.4468
187.4211	-0.0916
187.6393	0.2741
187.8575	0.2427
188.0757	0.2538
188.2939	0.1136
188.512	0.2599
188.7302	0.0623
188.9483	0.1968
189.1665	0.2874
189.3846	0.5562
189.6027	0.1804
189.8208	0.1317
190.0389	0.214
190.257	0.0295
190.475	0.1669
190.6931	0.0709
190.9111	0.1661
191.1292	0.1331
191.3472	0.0882
191.5652	0.3019
191.7832	0.19
192.0012	0.0725
192.2192	0.1265
192.4371	0.1493
192.6551	0.205
192.873	0.1789
193.091	0.0969
193.3089	0.1138
193.5268	0.2601
193.7447	0.2282
193.9626	0.2842
194.1805	0.2268
194.3984	0.2693
194.6162	0.2196
194.8341	0.3274
195.0519	0.2148
195.2697	0.2533
195.4875	0.2132
195.7054	0.3065
195.9231	0.2807
196.1409	0.3895
196.3587	0.331
196.5765	0.304
196.7942	0.3391
197.012	0.322
197.2297	0.3349
197.4474	0.4421
197.6651	0.3292
197.8828	0.3803
198.1005	0.3628
198.3182	0.3853
198.5358	0.3576
198.7535	0.3668
198.9711	0.3759
199.1888	0.3639
199.4064	0.393
199.624	0.3774
199.8416	0.3674
200.0592	0.3956
200.2767	0.468
200.4943	0.4664
200.7119	0.4085
200.9294	0.4277
201.1469	0.4441
201.3645	0.4177
201.582	0.4211
201.7995	0.4334
202.017	0.4181
202.2344	0.4418
202.4519	0.3822
202.6694	0.3801
202.8868	0.4003
203.1042	0.3703
203.3217	0.3604
203.5391	0.3996
203.7565	0.3704
203.9739	0.4032
204.1913	0.3682
204.4086	0.3801
204.626	0.3369
204.8433	0.3651
205.0607	0.3642
205.278	0.3717
205.4953	0.3561
205.7126	0.3562
205.9299	0.349
206.1472	0.3118
206.3644	0.3731
206.5817	0.322
206.7989	0.3503
207.0162	0.3071
207.2334	0.3411
207.4506	0.3309
207.6678	0.3201
207.885	0.2919
208.1022	0.3205
208.3194	0.3081
208.5365	0.2759
208.7537	0.3128
208.9708	0.2924
209.1879	0.3062
209.405	0.272
209.6222	0.2745
209.8392	0.2847
210.0563	0.2868
210.2734	0.274
210.4905	0.2731
210.7075	0.29
210.9245	0.2567
211.1416	0.2683
211.3586	0.2787
211.5756	0.2593
211.7926	0.2675
212.0096	0.2908
212.2265	0.2823
212.4435	0.2617
212.6604	0.265
212.8774	0.2651
213.0943	0.2851
213.3112	0.2549
213.5281	0.2492
213.745	0.2527
213.9619	0.2436
214.1788	0.2537
214.3956	0.2372
214.6125	0.241
214.8293	0.2529
215.0461	0.2544
215.2629	0.2535
215.4798	0.2569
215.6965	0.2473
215.9133	0.2378
216.1301	0.2612
216.3469	0.25
216.5636	0.2438
216.7803	0.2528
216.9971	0.2557
217.2138	0.2549
217.4305	0.2578
217.6472	0.2479
217.8639	0.2645
218.0805	0.2469
218.2972	0.2469
218.5138	0.2668
218.7305	0.2582
218.9471	0.2496
219.1637	0.2787
219.3803	0.2644
219.5969	0.2408
219.8135	0.2647
220.0301	0.2625
220.2466	0.2652
220.4632	0.259
220.6797	0.2589
220.8962	0.2673
221.1127	0.2619
221.3292	0.2687
221.5457	0.2716
221.7622	0.2714
221.9787	0.29
222.1951	0.2646
222.4116	0.267
222.628	0.3046
222.8444	0.2743
223.0608	0.2993
223.2772	0.2865
223.4936	0.2803
223.71	0.2949
223.9264	0.2793
224.1427	0.2929
224.3591	0.2843
224.5754	0.2912
224.7917	0.3112
225.008	0.3051
225.2243	0.3012
225.4406	0.2897
225.6569	0.3028
225.8732	0.3189
226.0894	0.3128
226.3057	0.3052
226.5219	0.3207
226.7381	0.3237
226.9543	0.3015
227.1705	0.3063
227.3867	0.3183
227.6029	0.3285
227.8191	0.3343
228.0352	0.3403
228.2513	0.3479
228.4675	0.3478
228.6836	0.3461
228.8997	0.346
229.1158	0.3584
229.3319	0.3616
229.548	0.3521
229.764	0.3638
229.9801	0.3672
230.1961	0.3736
230.4121	0.3595
230.6282	0.3749
230.8442	0.3866
231.0602	0.3963
231.2761	0.3931
231.4921	0.3891
231.7081	0.3918
231.924	0.3993
232.14	0.4109
232.3559	0.4034
232.5718	0.403
232.7877	0.4107
233.0036	0.4095
233.2195	0.4171
233.4353	0.4384
233.6512	0.4283
233.867	0.4199
234.0829	0.4233
234.2987	0.4318
234.5145	0.4385
234.7303	0.4345
234.9461	0.4304
235.1619	0.4391
235.3776	0.4394
235.5934	0.4396
235.8091	0.4426
236.0249	0.4437
236.2406	0.4367
236.4563	0.4528
236.672	0.4353
236.8877	0.4418
237.1034	0.4534
237.319	0.449
237.5347	0.4398
237.7503	0.4396
237.966	0.4666
238.1816	0.4537
238.3972	0.4443
238.6128	0.4741
238.8284	0.4619
239.0439	0.4614
239.2595	0.4618
239.475	0.4615
239.6906	0.4623
239.9061	0.469
240.1216	0.4638
240.3371	0.4606
240.5526	0.4561
240.7681	0.4524
240.9836	0.4598
241.199	0.452
241.4145	0.4421
241.6299	0.4555
241.8453	0.4358
242.0607	0.439
242.2761	0.434
242.4915	0.4288
242.7069	0.424
242.9223	0.4104
243.1376	0.4077
243.353	0.4023
243.5683	0.3937
243.7836	0.3921
243.9989	0.3792
244.2142	0.3685
244.4295	0.364
244.6448	0.3664
244.86	0.3494
245.0753	0.3365
245.2905	0.3394
245.5057	0.3288
245.721	0.332
245.9362	0.3264
246.1514	0.3188
246.3665	0.3121
246.5817	0.293
246.7969	0.292
247.012	0.2919
247.2271	0.2898
247.4423	0.2759
247.6574	0.2854
247.8725	0.267
248.0876	0.2626
248.3026	0.2616
248.5177	0.249
248.7328	0.2477
248.9478	0.247
249.1628	0.2468
249.3779	0.2386
249.5929	0.2429
249.8079	0.229
250.0228	0.2294
250.2378	0.2245
250.4528	0.2231
250.6677	0.2213
250.8827	0.2167
251.0976	0.2173
251.3125	0.2115
251.5274	0.2121
251.7423	0.2084
251.9572	0.2064
252.172	0.2042
252.3869	0.2022
252.6017	0.2064
252.8166	0.2002
253.0314	0.1928
253.2462	0.1976
253.461	0.1961
253.6758	0.1945
253.8906	0.1904
254.1053	0.1913
254.3201	0.1925
254.5348	0.1862
254.7496	0.1817
254.9643	0.1912
255.179	0.1871
255.3937	0.189
255.6083	0.1889
255.823	0.1866
256.0377	0.1761
256.2523	0.1812
256.467	0.1862
256.6816	0.1789
256.8962	0.1818
257.1108	0.1841
257.3254	0.1786
257.54	0.179
257.7545	0.1851
257.9691	0.1783
258.1836	0.1712
258.3981	0.1738
258.6127	0.1782
258.8272	0.1866
259.0417	0.176
259.2561	0.1747
259.4706	0.1709
259.6851	0.1783
259.8995	0.1739
260.114	0.1767
260.3284	0.1707
260.5428	0.1731
260.7572	0.1766
260.9716	0.1813
261.186	0.1723
261.4003	0.1709
261.6147	0.1744
261.829	0.1718
262.0433	0.1725
262.2577	0.1756
262.472	0.1725
262.6863	0.1757
262.9005	0.1756
263.1148	0.1805
263.3291	0.1708
263.5433	0.1745
263.7576	0.1756
263.9718	0.1806
264.186	0.1789
264.4002	0.1736
264.6144	0.1827
264.8286	0.175
265.0427	0.1801
265.2569	0.1779
265.471	0.1825
265.6851	0.1786
265.8993	0.1779
266.1134	0.1805
266.3275	0.1773
266.5415	0.1764
266.7556	0.1847
266.9697	0.1845
267.1837	0.1764
267.3978	0.1769
267.6118	0.1708
267.8258	0.172
268.0398	0.1831
268.2538	0.1721
268.4677	0.1744
268.6817	0.1753
268.8957	0.168
269.1096	0.1689
269.3235	0.1719
269.5374	0.1731
269.7514	0.1769
269.9652	0.1725
270.1791	0.1708
270.393	0.1664
270.6068	0.1743
270.8207	0.1705
271.0345	0.1705
271.2483	0.164
271.4622	0.1757
271.676	0.1737
271.8897	0.1613
272.1035	0.1748
272.3173	0.1665
272.531	0.1691
272.7448	0.1715
272.9585	0.1608
273.1722	0.1618
273.3859	0.1677
273.5996	0.1736
273.8133	0.1681
274.0269	0.1582
274.2406	0.1654
274.4542	0.1698
274.6679	0.1721
274.8815	0.178
275.0951	0.178
275.3087	0.168
275.5223	0.1687
275.7358	0.1708
275.9494	0.1701
276.1629	0.1789
276.3765	0.1718
276.59	0.17
276.8035	0.1715
277.017	0.1738
277.2305	0.1713
277.444	0.1751
277.6574	0.1769
277.8709	0.1822
278.0843	0.1745
278.2978	0.1726
278.5112	0.1752
278.7246	0.1768
278.938	0.1735
279.1513	0.1755
279.3647	0.1799
279.5781	0.1736
279.7914	0.1794
280.0047	0.1755
280.2181	0.1778
280.4314	0.178
280.6447	0.1764
280.8579	0.1692
281.0712	0.1743
281.2845	0.1762
281.4977	0.1863
281.711	0.178
281.9242	0.1802
282.1374	0.1824
282.3506	0.1784
282.5638	0.1745
282.7769	0.1779
282.9901	0.1854
283.2033	0.1783
283.4164	0.1818
283.6295	0.1796
283.8426	0.1787
284.0557	0.1805
284.2688	0.18
284.4819	0.1739
284.695	0.1871
284.908	0.1792
285.1211	0.1835
285.3341	0.1816
285.5471	0.1854
285.7601	0.181
285.9731	0.1864
286.1861	0.1826
286.3991	0.1933
286.612	0.1856
286.825	0.19
287.0379	0.1865
287.2508	0.1894
287.4637	0.189
287.6766	0.1929
287.8895	0.1874
288.1024	0.1943
288.3152	0.1925
288.5281	0.1866
288.7409	0.1941
288.9538	0.1871
289.1666	0.1889
289.3794	0.1892
289.5922	0.1852
289.8049	0.1827
290.0177	0.1901
290.2304	0.1893
290.4432	0.1913
290.6559	0.1903
290.8686	0.1918
291.0813	0.1945
291.294	0.1907
291.5067	0.1887
291.7194	0.1905
291.932	0.1886
292.1447	0.1966
292.3573	0.1935
292.5699	0.1901
292.7825	0.1906
292.9951	0.1938
293.2077	0.1928
293.4203	0.1917
293.6328	0.1898
293.8454	0.1994
294.0579	0.1886
294.2704	0.1956
294.4829	0.1887
294.6954	0.1893
294.9079	0.188
295.1204	0.1917
295.3328	0.1973
295.5453	0.1923
295.7577	0.1866
295.9701	0.195
296.1825	0.1947
296.3949	0.1909
296.6073	0.1899
296.8197	0.1982
297.0321	0.1938
297.2444	0.1891
297.4567	0.1898
297.6691	0.1929
297.8814	0.1926
298.0937	0.194
298.306	0.1895
298.5182	0.199
298.7305	0.1913
298.9428	0.1948
299.155	0.1835
299.3672	0.1971
299.5794	0.1966
299.7916	0.1867
300.0038	0.1895
300.216	0.1944
300.4282	0.1917
300.6403	0.1911
300.8525	0.1951
301.0646	0.1916
301.2767	0.1929
301.4888	0.1939
301.7009	0.1902
301.913	0.1976
302.125	0.1918
302.3371	0.1924
302.5491	0.1937
302.7612	0.1948
302.9732	0.1959
303.1852	0.1918
303.3972	0.1941
303.6092	0.1895
303.8211	0.1867
304.0331	0.1877
304.245	0.1935
304.457	0.1864
304.6689	0.185
304.8808	0.1818
305.0927	0.1875
305.3046	0.1848
305.5164	0.1829
305.7283	0.1858
305.9401	0.1756
306.152	0.1749
306.3638	0.1822
306.5756	0.1789
306.7874	0.174
306.9992	0.1744
307.2109	0.1757
307.4227	0.1712
307.6344	0.1735
307.8462	0.1662
308.0579	0.1737
308.2696	0.1707
308.4813	0.165
308.693	0.1615
308.9046	0.1644
309.1163	0.1599
309.328	0.158
309.5396	0.1586
309.7512	0.1484
309.9628	0.1563
310.1744	0.1478
310.386	0.1456
310.5976	0.1432
310.8091	0.1491
311.0207	0.1439
311.2322	0.1386
311.4437	0.1448
311.6552	0.1404
311.8667	0.1431
312.0782	0.1427
312.2897	0.1422
312.5012	0.1435
312.7126	0.1378
312.924	0.1434
313.1355	0.1333
313.3469	0.1366
313.5583	0.1319
313.7696	0.1284
313.981	0.1374
314.1924	0.1245
314.4037	0.1274
314.6151	0.128
314.8264	0.1282
315.0377	0.1297
315.249	0.1309
315.4603	0.1196
315.6716	0.123
315.8828	0.1239
316.0941	0.1237
316.3053	0.1196
316.5165	0.1249
316.7277	0.126
316.9389	0.1251
317.1501	0.1215
317.3613	0.1248
317.5724	0.1235
317.7836	0.1138
317.9947	0.119
318.2058	0.1205
318.417	0.1231
318.6281	0.1202
318.8391	0.1217
319.0502	0.122
319.2613	0.115
319.4723	0.1221
319.6834	0.1199
319.8944	0.1177
320.1054	0.1212
320.3164	0.1181
320.5274	0.1145
320.7383	0.1197
320.9493	0.1219
321.1602	0.1197
321.3712	0.1183
321.5821	0.1201
321.793	0.125
322.0039	0.1212
322.2148	0.1228
322.4257	0.1189
322.6365	0.1149
322.8474	0.1217
323.0582	0.1213
323.269	0.1248
323.4798	0.1268
323.6906	0.1189
323.9014	0.1186
324.1122	0.1172
324.3229	0.1269
324.5337	0.1235
324.7444	0.1207
324.9551	0.1276
325.1658	0.1216
325.3765	0.1227
325.5872	0.128
325.7979	0.1223
326.0085	0.1178
326.2192	0.1233
326.4298	0.13
326.6404	0.1308
326.851	0.1204
327.0616	0.13
327.2722	0.1223
327.4828	0.1244
327.6933	0.1292
327.9039	0.1231
328.1144	0.121
328.3249	0.1328
328.5354	0.1294
328.7459	0.1316
328.9564	0.1279
329.1669	0.1332
329.3773	0.126
329.5878	0.1221
329.7982	0.1311
330.0086	0.1297
330.219	0.1282
330.4294	0.1289
330.6398	0.1291
330.8502	0.1348
331.0605	0.131
331.2708	0.1237
331.4812	0.1294
331.6915	0.1351
331.9018	0.1269
332.1121	0.1363
332.3224	0.1316
332.5326	0.1252
332.7429	0.1282
332.9531	0.1373
333.1633	0.1278
333.3735	0.1222
333.5837	0.1225
333.7939	0.1322
334.0041	0.135
334.2143	0.129
334.4244	0.1334
334.6346	0.1336
334.8447	0.1304
335.0548	0.1375
335.2649	0.1344
335.475	0.1383
335.685	0.1343
335.8951	0.1339
336.1051	0.1399
336.3152	0.1385
336.5252	0.1334
336.7352	0.138
336.9452	0.1426
337.1552	0.138
337.3652	0.1372
337.5751	0.1343
337.7851	0.1391
337.995	0.1371
338.2049	0.139
338.4148	0.1365
338.6247	0.1359
338.8346	0.1352
339.0445	0.1345
339.2543	0.1374
339.4642	0.135
339.674	0.132
339.8838	0.1413
340.0936	0.1376
340.3034	0.1405
340.5132	0.1362
340.7229	0.1422
340.9327	0.1471
341.1424	0.1396
341.3522	0.143
341.5619	0.1435
341.7716	0.1417
341.9813	0.146
342.1909	0.1471
342.4006	0.1445
342.6102	0.1449
342.8199	0.145
343.0295	0.1458
343.2391	0.1521
343.4487	0.1509
343.6583	0.1563
343.8679	0.1486
344.0774	0.1473
344.287	0.151
344.4965	0.1524
344.706	0.1543
344.9155	0.1515
345.125	0.1503
345.3345	0.1557
345.544	0.1585
345.7534	0.1553
345.9629	0.1594
346.1723	0.1534
346.3817	0.1588
346.5911	0.1635
346.8005	0.1662
347.0099	0.1555
347.2193	0.1623
347.4286	0.1639
347.638	0.1625
347.8473	0.1642
348.0566	0.1637
348.2659	0.1607
348.4752	0.1673
348.6845	0.1631
348.8937	0.168
349.103	0.1657
349.3122	0.1617
349.5214	0.1635
349.7306	0.1756
349.9398	0.1696
350.149	0.1694
350.3582	0.1721
350.5674	0.1718
350.7765	0.1761
350.9856	0.1623
351.1948	0.1715
351.4039	0.1749
351.613	0.1727
351.822	0.1786
352.0311	0.1773
352.2402	0.1718
352.4492	0.1783
352.6582	0.1802
352.8672	0.1807
353.0762	0.176
353.2852	0.1739
353.4942	0.1807
353.7032	0.1717
353.9121	0.1775
354.1211	0.1878
354.33	0.1804
354.5389	0.1759
354.7478	0.1781
354.9567	0.1812
355.1655	0.185
355.3744	0.1798
355.5833	0.1826
355.7921	0.1911
356.0009	0.1848
356.2097	0.1818
356.4185	0.1838
356.6273	0.1884
356.8361	0.1872
357.0448	0.1894
357.2536	0.1921
357.4623	0.1887
357.671	0.1872
357.8797	0.1924
358.0884	0.1929
358.2971	0.1889
358.5057	0.1958
358.7144	0.1977
358.923	0.2017
359.1316	0.1988
359.3402	0.2
359.5488	0.2013
359.7574	0.206
359.966	0.2003
360.1746	0.1967
360.3831	0.2093
360.5916	0.209
360.8002	0.2068
361.0087	0.2059
361.2172	0.2069
361.4256	0.2006
361.6341	0.2091
361.8426	0.2073
362.051	0.2068
362.2594	0.2131
362.4678	0.211
362.6762	0.2193
362.8846	0.2103
363.093	0.2167
363.3014	0.2237
363.5097	0.2199
363.718	0.2229
363.9264	0.2229
364.1347	0.2232
364.343	0.2296
364.5513	0.2237
364.7595	0.2232
364.9678	0.2268
365.176	0.2218
365.3842	0.2283
365.5925	0.2298
365.8007	0.2314
366.0089	0.234
366.217	0.2341
366.4252	0.2323
366.6333	0.2356
366.8415	0.2362
367.0496	0.2361
367.2577	0.2388
367.4658	0.2422
367.6739	0.2296
367.882	0.242
368.09	0.2399
368.2981	0.2458
368.5061	0.243
368.7141	0.241
368.9221	0.2517
369.1301	0.2527
369.3381	0.2513
369.5461	0.2577
369.754	0.2473
369.962	0.2513
370.1699	0.2584
370.3778	0.2612
370.5857	0.253
370.7936	0.2582
371.0015	0.2553
371.2093	0.2516
371.4172	0.2504
371.625	0.2535
371.8328	0.2524
372.0406	0.2664
372.2484	0.2578
372.4562	0.2707
372.664	0.2561
372.8717	0.262
373.0795	0.2658
373.2872	0.2697
373.4949	0.277
373.7026	0.2681
373.9103	0.2609
374.118	0.2664
374.3256	0.277
374.5333	0.2644
374.7409	0.2666
374.9485	0.263
375.1561	0.2781
375.3637	0.2704
375.5713	0.268
375.7789	0.2723
375.9864	0.2768
376.194	0.282
376.4015	0.2798
376.609	0.282
376.8165	0.2854
377.024	0.2807
377.2315	0.2831
377.4389	0.274
377.6464	0.2793
377.8538	0.2816
378.0612	0.2902
378.2686	0.2778
378.476	0.2899
378.6834	0.2928
378.8908	0.2912
379.0981	0.2883
379.3055	0.2878
379.5128	0.278
379.7201	0.2912
379.9274	0.2904
380.1347	0.2898
380.342	0.2997
380.5492	0.2891
380.7565	0.3004
380.9637	0.2912
381.1709	0.297
381.3781	0.2974
381.5853	0.2959
381.7925	0.2957
381.9997	0.3034
382.2068	0.2962
382.4139	0.2961
382.6211	0.2968
382.8282	0.3035
383.0353	0.2965
383.2424	0.3005
383.4494	0.3009
383.6565	0.3003
383.8635	0.3045
384.0706	0.3109
384.2776	0.3136
384.4846	0.3114
384.6916	0.3067
384.8986	0.3086
385.1055	0.32
385.3125	0.3094
385.5194	0.3221
385.7263	0.2993
385.9333	0.3054
386.1402	0.316
386.347	0.3001
386.5539	0.3076
386.7608	0.3042
386.9676	0.3113
387.1744	0.3068
387.3813	0.3079
387.5881	0.306
387.7948	0.3167
388.0016	0.315
388.2084	0.2964
388.4151	0.3083
388.6219	0.307
388.8286	0.3098
389.0353	0.3022
389.242	0.3085
389.4487	0.2968
389.6553	0.2919
389.862	0.2959
390.0686	0.3021
390.2753	0.2951
390.4819	0.3058
390.6885	0.2957
390.8951	0.287
391.1016	0.3032
391.3082	0.2969
391.5147	0.2944
391.7213	0.2849
391.9278	0.2951
392.1343	0.2945
392.3408	0.298
392.5473	0.2899
392.7537	0.2854
392.9602	0.2835
393.1666	0.2831
393.373	0.2769
393.5794	0.2919
393.7858	0.2837
393.9922	0.2835
394.1986	0.2778
394.4049	0.2819
394.6113	0.2793
394.8176	0.2772
395.0239	0.2778
395.2302	0.2724
395.4365	0.2783
395.6428	0.2711
395.8491	0.279
396.0553	0.2752
396.2615	0.2631
396.4678	0.2665
396.674	0.2637
396.8802	0.2747
397.0863	0.2655
397.2925	0.2633
397.4987	0.2658
397.7048	0.2623
397.9109	0.255
398.117	0.2688
398.3231	0.2634
398.5292	0.2557
398.7353	0.262
398.9413	0.2592
399.1474	0.2611
399.3534	0.263
399.5594	0.2683
399.7654	0.2613
399.9714	0.2583
400.1774	0.2549
400.3833	0.2574
400.5893	0.2599
400.7952	0.2629
401.0011	0.26
401.207	0.2584
401.4129	0.2604
401.6188	0.2539
401.8247	0.266
402.0305	0.2613
402.2364	0.2682
402.4422	0.255
402.648	0.2581
402.8538	0.2561
403.0596	0.2494
403.2654	0.262
403.4711	0.2573
403.6768	0.2553
403.8826	0.2721
404.0883	0.2601
404.294	0.2582
404.4997	0.2618
404.7054	0.2623
404.911	0.2583
405.1167	0.2546
405.3223	0.261
405.5279	0.2638
405.7335	0.2619
405.9391	0.254
406.1447	0.263
406.3502	0.2587
406.5558	0.2584
406.7613	0.2539
406.9668	0.2607
407.1724	0.2649
407.3778	0.267
407.5833	0.2452
407.7888	0.2558
407.9942	0.2616
408.1997	0.2582
408.4051	0.2588
408.6105	0.2589
408.8159	0.2507
409.0213	0.2579
409.2267	0.2641
409.432	0.2639
409.6374	0.2611
409.8427	0.2632
410.048	0.2563
410.2533	0.2685
410.4586	0.2521
410.6639	0.2573
410.8691	0.2519
411.0744	0.2522
411.2796	0.2602
411.4848	0.2667
411.69	0.2512
411.8952	0.2601
412.1004	0.2623
412.3056	0.2616
412.5107	0.2579
412.7158	0.2678
412.921	0.2511
413.1261	0.2551
413.3312	0.2616
413.5362	0.2615
413.7413	0.2598
413.9464	0.2507
414.1514	0.2557
414.3564	0.2532
414.5614	0.2521
414.7664	0.2519
414.9714	0.2461
415.1764	0.2546
415.3813	0.2581
415.5863	0.2621
415.7912	0.2419
415.9961	0.2496
416.201	0.2528
416.4059	0.2527
416.6108	0.2589
416.8156	0.2464
417.0205	0.2545
417.2253	0.2534
417.4301	0.26
417.6349	0.247
417.8397	0.2528
418.0445	0.2386
418.2492	0.2522
418.454	0.2454
418.6587	0.2535
418.8634	0.2447
419.0681	0.25
419.2728	0.2459
419.4775	0.2562
419.6822	0.2474
419.8868	0.2343
420.0915	0.253
420.2961	0.2387
420.5007	0.2401
420.7053	0.2365
420.9099	0.2409
421.1144	0.2457
421.319	0.236
421.5235	0.2241
421.728	0.2491
421.9325	0.2334
422.137	0.2396
422.3415	0.2296
422.546	0.2273
422.7504	0.229
422.9549	0.2416
423.1593	0.2301
423.3637	0.2272
423.5681	0.2364
423.7725	0.2359
423.9769	0.2404
424.1812	0.2233
424.3856	0.2242
424.5899	0.2266
424.7942	0.2244
424.9985	0.2284
425.2028	0.2274
425.4071	0.237
425.6113	0.2176
425.8156	0.2254
426.0198	0.2278
426.224	0.2229
426.4282	0.2049
426.6324	0.2193
426.8366	0.2151
427.0407	0.2139
427.2449	0.2072
427.449	0.215
427.6531	0.2215
427.8572	0.2152
428.0613	0.2139
428.2654	0.2188
428.4694	0.1997
428.6735	0.1924
428.8775	0.1973
429.0815	0.198
429.2855	0.202
429.4895	0.2009
429.6935	0.1924
429.8975	0.1938
430.1014	0.2003
430.3053	0.1956
430.5093	0.1955
430.7132	0.1846
430.9171	0.1889
431.1209	0.1851
431.3248	0.1796
431.5286	0.1808
431.7325	0.1942
431.9363	0.177
432.1401	0.1857
432.3439	0.1861
432.5477	0.1732
432.7514	0.1729
432.9552	0.1785
433.1589	0.1613
433.3627	0.1737
433.5664	0.1624
433.7701	0.1598
433.9737	0.1665
434.1774	0.1658
434.3811	0.1516
434.5847	0.1569
434.7883	0.1536
434.9919	0.1496
435.1955	0.1557
435.3991	0.1487
435.6027	0.1489
435.8062	0.1662
436.0098	0.1504
436.2133	0.1392
436.4168	0.142
436.6203	0.1332
436.8238	0.139
437.0272	0.1364
437.2307	0.1268
437.4341	0.1462
437.6375	0.1394
437.841	0.1246
438.0443	0.1352
438.2477	0.1184
438.4511	0.1176
438.6545	0.1288
438.8578	0.1239
439.0611	0.1256
439.2644	0.1115
439.4677	0.1247
439.671	0.1096
439.8743	0.1188
440.0775	0.1073
440.2808	0.1103
440.484	0.1153
440.6872	0.1153
440.8904	0.0929
441.0936	0.1056
441.2967	0.093
441.4999	0.0917
441.703	0.1008
441.9062	0.1009
442.1093	0.1116
442.3124	0.0967
442.5155	0.101
442.7185	0.091
442.9216	0.0959
443.1246	0.0917
443.3276	0.0872
443.5307	0.0831
443.7337	0.0824
443.9366	0.0797
444.1396	0.0785
444.3426	0.0877
444.5455	0.087
444.7484	0.074
444.9513	0.081
445.1542	0.0769
445.3571	0.0718
445.56	0.0654
445.7628	0.0689
445.9657	0.0758
446.1685	0.0764
446.3713	0.077
446.5741	0.0656
446.7769	0.073
446.9797	0.0748
447.1824	0.0632
447.3852	0.0564
447.5879	0.0619
447.7906	0.0539
447.9933	0.0655
448.196	0.0507
448.3986	0.0566
448.6013	0.0484
448.8039	0.0631
449.0066	0.0616
449.2092	0.0558
449.4118	0.0535
449.6143	0.0514
449.8169	0.0509
450.0195	0.0512
450.222	0.0574
450.4245	0.0467
450.627	0.0494
450.8295	0.0434
451.032	0.0478
451.2345	0.0337
451.4369	0.0423
451.6394	0.0397
451.8418	0.0363
452.0442	0.0435
452.2466	0.0378
452.449	0.0345
452.6513	0.0308
452.8537	0.0298
453.056	0.0439
453.2583	0.0352
453.4607	0.0298
453.663	0.0318
453.8652	0.0209
454.0675	0.0381
454.2697	0.0319
454.472	0.0357
454.6742	0.0295
454.8764	0.0386
455.0786	0.035
455.2808	0.022
455.4829	0.0327
455.6851	0.0275
455.8872	0.025
456.0893	0.0277
456.2915	0.017
456.4935	0.0308
456.6956	0.0249
456.8977	0.0233
457.0997	0.0235
457.3018	0.0306
457.5038	0.0234
457.7058	0.019
457.9078	0.0337
458.1098	0.0257
458.3117	0.0294
458.5137	0.0116
458.7156	0.0261
458.9175	0.0221
459.1194	0.019
459.3213	0.0235
459.5232	0.0246
459.725	0.0175
459.9269	0.0267
460.1287	0.0189
460.3305	0.024
460.5323	0.0171
460.7341	0.0102
460.9359	0.0074
461.1376	0.0167
461.3394	0.0169
461.5411	0.0218
461.7428	0.0161
461.9445	0.0184
462.1462	0.014
462.3479	0.0104
462.5495	0.0216
462.7512	0.0326
462.9528	0.0144
463.1544	0.0073
463.356	0.0009
463.5576	0.0255
463.7592	0.0107
463.9607	0.0156
464.1623	0.016
464.3638	0.0092
464.5653	0.0132
464.7668	0.0192
464.9683	0.0178
465.1697	0.0073
465.3712	0.0056
465.5726	0.0089
465.7741	0.0177
465.9755	0.0109
466.1769	0.012
466.3782	0.0142
466.5796	0.014
466.7809	0.0056
466.9823	0.0138
467.1836	0.0109
467.3849	0.0119
467.5862	0.0072
467.7875	0.0215
467.9887	0.0055
468.19	0.0077
468.3912	0.0176
468.5924	0.0012
468.7936	0.0051
468.9948	-0.0053
469.196	0.0071
469.3972	0.0064
469.5983	0.01
469.7994	0.0103
470.0006	0.0033
470.2017	0.0037
470.4027	0.025
470.6038	0.0081
470.8049	0.0131
471.0059	0.0103
471.2069	0.0188
471.408	0.0138
471.6089	0.0142
471.8099	0.0076
472.0109	0.0032
472.2119	0.0145
472.4128	0.0023
472.6137	0.0045
472.8146	0.011
473.0155	0.0163
473.2164	0.0105
473.4173	0.0081
473.6181	0.0013
473.819	0.0035
474.0198	0.0014
474.2206	-0.0092
474.4214	0.0141
474.6222	-0.0078
474.8229	0.0021
475.0237	0.0091
475.2244	0.0069
475.4251	0.0075
475.6258	-0.0009
475.8265	0.0108
476.0272	-0.0027
476.2278	0.0056
476.4285	0.01
476.6291	0.0002
476.8297	0.0167
477.0303	0.0057
477.2309	0.0068
477.4315	0.0087
477.632	-0.0021
477.8326	0.0103
478.0331	0.009
478.2336	0.0026
478.4341	0.0061
478.6346	0.0088
478.8351	0.0086
479.0355	0.0142
479.236	0.0111
479.4364	0.011
479.6368	0.0049
479.8372	-0.0052
480.0376	0.007
480.2379	-0.0003
480.4383	0.0062
480.6386	-0.0003
480.8389	0.0029
481.0392	0.0071
481.2395	0.0133
481.4398	0.0086
481.6401	0.0055
481.8403	0.0013
482.0405	0.002
482.2408	0.0115
482.441	0.0023
482.6411	-0
482.8413	0.0013
483.0415	0.0145
483.2416	0.012
483.4417	0.0069
483.6419	-0.0004
483.8419	0.0059
484.042	0.0021
484.2421	0.0006
484.4422	0.0115
484.6422	0.0004
484.8422	0.0066
485.0422	0.0023
485.2422	0.0057
485.4422	0.002
485.6422	0.0017
485.8421	-0.0002
486.042	0.0057
486.242	0.0023
486.4419	0.0048
486.6417	-0.0014
486.8416	0.0061
487.0415	-0.0023
487.2413	-0.0038
487.4411	0.0084
487.641	0.0009
487.8408	0.0029
488.0405	0.0103
488.2403	0.0001
488.4401	0.0024
488.6398	0.0064
488.8395	0.0031
489.0392	0.0052
489.2389	0.0084
489.4386	-0.0077
489.6383	0.0069
489.8379	-0.0013
490.0376	0.0042
490.2372	0.0052
490.4368	-0.0024
490.6364	-0.0019
490.836	0.0005
491.0355	-0.003
491.2351	-0.0008
491.4346	0.0045
491.6341	0.0059
491.8336	0.0101
492.0331	0.0044
492.2326	0.0125
492.432	0.0061
492.6315	0.0038
492.8309	0.0082
493.0303	-0.0014
493.2297	0.0135
493.4291	0.0033
493.6284	0.01
493.8278	0.0075
494.0271	0.0068
494.2264	-0.0032
494.4257	0.0105
494.625	0.0066
494.8243	-0.0015
495.0236	0.0057
495.2228	0.0028
495.422	0.005
495.6213	-0.0014
495.8205	0.0099
496.0196	0.002
496.2188	0.0096
496.418	0.005
496.6171	-0.0025
496.8162	0.0064
497.0153	0.0034
497.2144	-0.0021
497.4135	0.0087
497.6126	0.0075
497.8116	-0.0015
498.0107	0.0008
498.2097	0.0103
498.4087	0.0099
498.6077	0.0006
498.8067	0.005
499.0056	0.0005
499.2046	0.0069
499.4035	0.006
499.6024	-0.0003
499.8013	0.0021
500.0002	0.01
500.199	0.0085
500.3979	-0.0011
500.5967	0.0029
500.7956	-0.0037
500.9944	0.0061
501.1932	0.0068
501.3919	0.0028
501.5907	0.0168
501.7895	0.0026
501.9882	0.0013
502.1869	0.0049
502.3856	-0.0002
502.5843	0.0108
502.783	-0.0015
502.9816	0.0058
503.1803	0.0078
503.3789	0.0051
503.5775	0.0045
503.7761	0.0019
503.9747	0.0033
504.1732	-0.0015
504.3718	0.0161
504.5703	0.0085
504.7689	-0.0087
504.9674	0.0003
505.1658	-0.0047
505.3643	0.0072
505.5628	0.0135
505.7612	0.0087
505.9597	-0.001
506.1581	-0.0061
506.3565	0.0085
506.5549	-0.0007
506.7532	-0.0106
506.9516	0.0016
507.1499	0.0048
507.3482	0.0037
507.5465	0.0019
507.7448	0.004
507.9431	0.0097
508.1414	0.0037
508.3396	-0
508.5379	-0.0006
508.7361	0.007
508.9343	0.0079
509.1325	0.0054
509.3306	-0.0072
509.5288	-0.0009
509.7269	0.0088
509.9251	0.0048
510.1232	0.0174
510.3213	0.0093
510.5193	-0.0009
510.7174	0.0014
510.9154	0.0136
511.1135	-0.0052
511.3115	-0.0011
511.5095	-0.0015
511.7075	0.0008
511.9055	-0.0024
512.1034	-0
512.3014	-0.0009
512.4993	0.0048
512.6972	0.0038
512.8951	0.0053
513.093	-0.0001
513.2908	0.0216
513.4887	0.0053
513.6865	0.0109
513.8844	0.0078
514.0822	0.0067
514.2799	-0.0042
514.4777	-0.0049
514.6755	0.0002
514.8732	0.0053
515.0709	0.0046
515.2687	0.0017
515.4664	0.0146
515.664	0.0126
515.8617	0.0061
516.0594	0.0052
516.257	0.0147
516.4546	0.0107
516.6522	0.0089
516.8498	0.0096
517.0474	0.0025
517.2449	0.0084
517.4425	0.0025
517.64	-0.0007
517.8375	0.0115
518.035	-0.0024
518.2325	0.0037
518.43	-0
518.6274	0.001
518.8249	0.001
519.0223	0.0137
519.2197	0.0057
519.4171	0.0023
519.6145	0.0113
519.8118	-0.0054
520.0092	-0.0041
520.2065	0.0139
520.4038	0.0119
520.6011	0.0125
520.7984	0.0033
520.9956	0.0112
521.1929	0.0005
521.3901	-0.0004
521.5874	0.0149
521.7846	-0
521.9818	0.0016
522.1789	-0.004
522.3761	0.0114
522.5732	0.0001
522.7704	-0.0058
522.9675	-0.0084
523.1646	-0.0057
523.3617	0.0029
523.5587	0.0027
523.7558	-0.0039
523.9528	0.0122
524.1498	-0.0028
524.3468	0.006
524.5438	0.0021
524.7408	0.0036
524.9378	0.0137
525.1347	0.0113
525.3316	-0.0017
525.5285	0.0011
525.7254	0.0013
525.9223	0.0147
526.1192	0.0059
526.316	0.0119
526.5129	0.0083
526.7097	0.0022
526.9065	0.0059
527.1033	0.0113
527.3	-0.0028
527.4968	0.0141
527.6935	0.0014
527.8903	-0.0018
528.087	0.0001
528.2837	0.006
528.4804	0.0002
528.677	0.0106
528.8737	0.0104
529.0703	-0.0005
529.2669	0.01
529.4635	0.0012
529.6601	-0.0011
529.8567	0.001
530.0532	0.0118
530.2498	0.0002
530.4463	-0.0045
530.6428	0.0085
530.8393	0.0082
531.0358	-0.0055
531.2322	-0.0056
531.4287	0.0058
531.6251	-0.0114
531.8215	-0.0008
532.0179	-0.0018
532.2143	0.005
532.4107	0.0106
532.607	-0.0009
532.8034	0.0023
532.9997	0.0017
533.196	-0.006
533.3923	0.0142
533.5886	0.0125
533.7848	0.0021
533.9811	0.0038
534.1773	-0.0023
534.3735	0.005
534.5697	-0.0024
534.7659	0.0072
534.9621	0.0039
535.1582	0.0025
535.3544	0.0017
535.5505	0.0063
535.7466	0.0099
535.9427	0.0062
536.1387	-0.0073
536.3348	0.0144
536.5308	-0.0048
536.7269	0.0016
536.9229	0.0026
537.1189	0.0072
537.3148	0.0014
537.5108	0.0053
537.7068	0.019
537.9027	0.0012
538.0986	0.0094
538.2945	0.0047
538.4904	-0.003
538.6863	0.0012
538.8821	0.0049
539.078	-0.0026
539.2738	0.0037
539.4696	-0.0011
539.6654	0.0034
539.8611	0.0045
540.0569	-0.0007
540.2526	0.0043
540.4484	-0.0103
540.6441	0.0063
540.8398	0.0111
541.0355	-0.0038
541.2311	-0.0025
541.4268	0.0117
541.6224	0.0111
541.818	0.0064
542.0136	0.0077
542.2092	0.0164
542.4048	0.0041
542.6003	0.0022
542.7959	0.0074
542.9914	0.0015
543.1869	-0.0025
543.3824	0.0054
543.5779	0.0148
543.7734	0.0137
543.9688	0.0101
544.1642	-0.0027
544.3596	0.0016
544.555	0.0007
544.7504	0.0142
544.9458	0.0085
545.1411	0.0024
545.3365	0.0061
545.5318	0.0045
545.7271	0.0096
545.9224	-0.0032
546.1177	0.003
546.3129	0.0041
546.5081	-0.0012
546.7034	-0.0009
546.8986	0.0047
547.0938	0.0016
547.289	0.0061
547.4841	0.0091
547.6793	0.0022
547.8744	0.0109
548.0695	0.0003
548.2646	0.0036
548.4597	-0.001
548.6548	0.0042
548.8498	0.005
549.0448	0.0117
549.2399	0.0158
549.4349	0.0033
549.6298	0.004
549.8248	-0.0096
550.0198	0.0072
550.2147	0.0034
550.4096	-0.0088
550.6045	0.0053
550.7994	0.0018
550.9943	0.0045
551.1892	-0.0172
551.384	0.0108
551.5788	0.0062
551.7737	0.013
551.9685	0.0148
552.1632	-0.0048
552.358	0.0011
552.5528	0.0104
552.7475	0.0021
552.9422	0.0107
553.1369	0.0018
553.3316	0.0066
553.5263	0.0074
553.7209	-0.0097
553.9156	-0.0002
554.1102	0.0068
554.3048	-0.0007
554.4994	-0.0022
554.694	0.0106
554.8885	0.0079
555.0831	0.008
555.2776	0.0062
555.4721	0.0124
555.6666	-0.0006
555.8611	0.0109
556.0555	0.0046
556.25	0.0027
556.4444	0.0076
556.6388	-0.0016
556.8332	0.0036
557.0276	0.0022
557.222	-0.0088
557.4163	0.0047
557.6107	0.0055
557.805	-0.006
557.9993	0.0015
558.1936	-0.0107
558.3879	0.0104
558.5821	0.007
558.7764	-0.0049
558.9706	0.0054
559.1648	0.0087
559.359	-0.0042
559.5532	-0.0043
559.7473	-0.0026
559.9415	0.0085
560.1356	0.0121
560.3297	0.001
560.5238	0.0088
560.7179	-0.0052
560.9119	0.0049
561.106	-0.0038
561.3	0.0151
561.494	-0.0034
561.688	0.0077
561.882	0.0001
562.076	0.0048
562.2699	0.008
562.4639	0.014
562.6578	0.0118
562.8517	-0.0002
563.0456	0.0024
563.2395	0.0087
563.4333	0.0075
563.6272	0.0099
563.821	0.0044
564.0148	0.0034
564.2086	-0.0035
564.4024	0.0089
564.5961	0.0015
564.7899	0.013
564.9836	0.0048
565.1773	0.0099
565.371	-0.0041
565.5647	0.0058
565.7584	0.0169
565.952	0.0005
566.1456	0.0021
566.3393	0.0023
566.5329	0.0064
566.7264	0.0033
566.92	0.0046
567.1136	0.0012
567.3071	-0.0084
567.5006	0.0107
567.6941	0.0035
567.8876	-0.0003
568.0811	0.0135
568.2745	0.0007
568.468	0.0093
568.6614	0.0077
568.8548	0.0058
569.0482	0.0042
569.2416	0.0035
569.4349	0.0056
569.6283	-0.003
569.8216	0.0052
570.0149	0.0037
570.2082	0.0093
570.4015	-0.0008
570.5947	0.003
570.788	0.0042
570.9812	0.0036
571.1744	0.0041
571.3676	0.0041
571.5608	-0.0005
571.754	0.0077
571.9471	0.0075
572.1402	0.0048
572.3333	0.0048
572.5264	0.0049
572.7195	0.0017
572.9126	0.0039
573.1057	0.0057
573.2987	0.0016
573.4917	0.001
573.6847	-0.0001
573.8777	0.0064
574.0707	0.0003
574.2636	0.0019
574.4566	0.0008
574.6495	-0.0014
574.8424	0.0053
575.0353	0.0063
575.2281	0.0048
575.421	-0.0023
575.6138	-0.0049
575.8067	0.0032
575.9995	0.0022
576.1923	0.0027
576.385	0.0065
576.5778	0.0092
576.7706	0.004
576.9633	0.0051
577.156	-0.0006
577.3487	0.0015
577.5414	-0.0004
577.734	0.0024
577.9267	0.0029
578.1193	0.0059
578.3119	-0.0021
578.5045	0.0035
578.6971	-0.0018
578.8897	0.0011
579.0822	0.0058
579.2747	0.0023
579.4673	0.0024
579.6598	0.0042
579.8522	0.0084
580.0447	0.0014
580.2372	0.0061
580.4296	0.0071
580.622	0.0001
580.8144	0.0052
581.0068	0.0013
581.1992	0.0036
581.3915	0.0001
581.5839	0.0044
581.7762	0.0026
581.9685	0.002
582.1608	0.0006
582.353	0.0051
582.5453	0.0041
582.7375	0.0066
582.9298	-0.0017
583.122	0.0006
583.3142	0.0054
583.5063	-0.0023
583.6985	-0.0044
583.8906	0.0049
584.0827	0.0048
584.2749	0.0013
584.4669	-0
584.659	0.009
584.8511	0.0078
585.0431	0.0052
585.2352	0.001
585.4272	0.0026
585.6192	0.0034
585.8111	-0.0011
586.0031	0.0023
586.195	0.0003
586.387	-0.0016
586.5789	0.0039
586.7708	0.0065
586.9627	0.0042
587.1545	0.0018
587.3464	0.0044
587.5382	0.0014
587.73	0.0064
587.9218	-0.0017
588.1136	-0.0025
588.3053	0.0054
588.4971	-0
588.6888	0.0028
588.8805	0.0044
589.0722	0.0088
589.2639	0.0049
589.4556	0.0029
589.6472	0.0081
589.8389	0.0077
590.0305	0.0024
590.2221	0.008
590.4137	0.0037
590.6052	0.0002
590.7968	0.0094
590.9883	0.0058
591.1798	0.0033
591.3713	-0.0029
591.5628	0.0093
591.7543	0.0024
591.9458	-0.0013
592.1372	0.0043
592.3286	0.0001
592.52	0.0021
592.7114	0.0002
592.9028	0.0108
593.0941	-0.0012
593.2855	0.0019
593.4768	0.0066
593.6681	0.0051
593.8594	0.0033
594.0506	0.0026
594.2419	-0
594.4331	0.0077
594.6244	-0.0063
594.8156	0.0064
595.0067	-0.0042
595.1979	0.0003
595.3891	0.0005
595.5802	0.0129
595.7713	0.0053
595.9624	0.0062
596.1535	0.0064
596.3446	-0.0061
596.5357	0.0057
596.7267	0.0005
596.9177	0.0038
597.1087	0.0001
597.2997	0.0029
597.4907	-0.0025
597.6817	-0.0014
597.8726	0.0058
598.0635	0.0006
598.2544	0.0079
598.4453	0.0033
598.6362	0.0038
598.827	0.0017
599.0179	-0.0001
599.2087	0.0098
599.3995	0.0073
599.5903	0.0067
599.7811	0.011
599.9718	-0.0013
600.1626	0.0033
600.3533	0.0036
600.544	-0.0027
600.7347	0.003
600.9254	0.0099
601.116	0.0075
601.3067	0.003
601.4973	0.0076
601.6879	0.0012
601.8785	0.0026
602.0691	-0.0025
602.2596	0.0014
602.4502	0.0039
602.6407	0.0032
602.8312	0.0074
603.0217	0.0007
603.2122	0.0044
603.4027	0.0035
603.5931	0.0039
603.7835	0.004
603.9739	0.0065
604.1643	0.0105
604.3547	0.0046
604.5451	0.0024
604.7354	0.0019
604.9257	-0.0029
605.116	-0.0009
605.3063	0.0062
605.4966	0.0015
605.6869	0.0079
605.8771	0.004
606.0673	0.0045
606.2575	0.0047
606.4477	0.0038
606.6379	0.0001
606.8281	0.003
607.0182	0.0084
607.2083	0.0034
607.3985	-0.0003
607.5885	0.0016
607.7786	0.0067
607.9687	0.0065
608.1587	0.0119
608.3488	0.0004
608.5388	-0.005
608.7288	-0.0021
608.9187	0.0033
609.1087	0.004
609.2986	0.0078
609.4886	0.0028
609.6785	0.002
609.8684	-0.0022
610.0582	0.0065
610.2481	-0.0002
610.4379	0.0043
610.6278	-0.0002
610.8176	0.0034
611.0074	0.0042
611.1971	0.0022
611.3869	0.0034
611.5766	-0.0066
611.7664	0.0079
611.9561	0.012
612.1458	0.0036
612.3354	0.0025
612.5251	-0.0011
612.7147	0.0045
612.9044	0.0005
613.094	0.0061
613.2836	0.0035
613.4731	0.0008
613.6627	0.0153
613.8522	0.005
614.0417	-0.0001
614.2313	0.003
614.4207	0.0043
614.6102	0.0068
614.7997	0.0058
614.9891	0.0053
615.1785	-0.0039
615.3679	0.0001
615.5573	0.0057
615.7467	-0.0032
615.9361	0.0074
616.1254	0.0039
616.3147	0.0081
616.504	0.0001
616.6933	0.0044
616.8826	0.0002
617.0718	0.0025
617.2611	-0.0027
617.4503	-0.0002
617.6395	0.0063
617.8287	0.011
618.0179	-0.0008
618.207	0.0073
618.3961	0.0045
618.5853	-0.0005
618.7744	0.0111
618.9634	0.012
619.1525	0.0035
619.3416	-0.002
619.5306	0.0047
619.7196	0.0055
619.9086	0.0017
620.0976	0.0063
620.2866	0.0059
620.4755	-0.0026
620.6645	0.0048
620.8534	-0.0024
621.0423	-0.0082
621.2312	0.001
621.42	0.0057
621.6089	-0.0011
621.7977	0.0161
621.9865	-0.0004
622.1753	0.0009
622.3641	-0.0076
622.5529	-0.0091
622.7416	-0.0007
622.9303	0.0011
623.1191	0.0025
623.3078	0.0024
623.4964	0.0075
623.6851	0.0095
623.8737	0.0032
624.0624	-0.0133
624.251	0.0064
624.4396	0.0097
624.6282	0.0039
624.8167	0.0058
625.0053	0.0094
625.1938	-0.0004
625.3823	0.0057
625.5708	-0.0018
625.7593	-0.0048
625.9477	-0.0004
626.1362	-0.004
626.3246	-0.012
626.513	0.0057
626.7014	0.0045
626.8898	0.0163
627.0781	0.0128
627.2665	0.0028
627.4548	-0.007
627.6431	0.0184
627.8314	0.0157
628.0197	0.0168
628.2079	-0.0058
628.3962	0.0058
628.5844	0.0061
628.7726	-0.0044
628.9608	0.0073
629.1489	0.0014
629.3371	-0.0045
629.5252	0.0061
629.7134	-0.0094
629.9015	0.0056
630.0895	-0.0085
630.2776	0.0078
630.4657	0.01
630.6537	0.0062
630.8417	-0.0012
631.0297	0.0061
631.2177	0.0101
631.4057	0.0076
631.5936	-0.0059
631.7815	0.0123
631.9695	0.0224
632.1574	0.0082
632.3452	0.0039
632.5331	0.0086
632.7209	0.0003
632.9088	-0.0073
633.0966	0.0209
633.2844	0.0073
633.4722	0.0089
633.6599	0.0145
633.8477	0.0057
634.0354	0.0198
634.2231	-0.0055
634.4108	0.0038
634.5985	0.0018
634.7861	0.0057
634.9738	-0.0073
635.1614	-0.0012
635.349	-0.0087
635.5366	-0.0008
635.7242	0.0061
635.9117	0.0045
636.0993	0.0059
636.2868	-0.0139
636.4743	0.0173
636.6618	0.0051
636.8492	0.0147
637.0367	0.006
637.2241	0.0108
637.4115	0.015
637.5989	-0.0009
637.7863	0.035
637.9737	-0.0015
638.161	0.0138
638.3484	0.0071
638.5357	0.0066
638.723	0.0172
638.9103	-0.0058
639.0975	-0.0009
639.2848	0.0101
639.472	0.0118
639.6592	-0.0084
639.8464	0.0069
640.0336	0.0069
640.2208	0.0021
640.4079	0.0041
640.595	-0.0023
640.7821	0.0145
640.9692	0.0107
641.1563	-0.0046
641.3434	0.0041
641.5304	0.0152
641.7174	0.016
641.9044	0.0072
642.0914	0.0335
642.2784	-0.0045
642.4653	0.0018
642.6523	0.0041
642.8392	-0.0002
643.0261	0.0162
643.213	0.0006
643.3999	0.0323
643.5867	0.0141
643.7735	0.0026
643.9604	0.0152
644.1472	0.0164
644.3339	-0.0048
644.5207	0.003
644.7075	0.0094
644.8942	0.0033
645.0809	0.0076
645.2676	-0.013
645.4543	0.0041
645.6409	0.0179
645.8276	0.0049
646.0142	-0.0019
646.2008	0.0033
646.3874	-0.0126
646.574	0.0124
646.7605	0.0025
646.9471	0.0084
647.1336	-0.0093
647.3201	0.0221
647.5066	0.0022
647.6931	0.0055
647.8795	-0.0041
648.0659	-0.0084
648.2524	0.0071
648.4388	0.0027
648.6252	0.0131
648.8115	0.0108
648.9979	0.0152
649.1842	-0.0002
649.3705	0.017
649.5568	-0.0074
649.7431	-0.0002
649.9294	0.0046
650.1156	0.0034
650.3018	0.0051
650.488	-0.001
650.6742	0.0278
650.8604	0.0143
651.0466	-0.0149
651.2327	-0.0056
651.4188	-0.0007
651.6049	0.0128
651.791	0.007
651.9771	0.0151
652.1632	0.0139
652.3492	-0.0074
652.5352	0.0123
652.7212	-0.0082
652.9072	0.0151
653.0932	0.0153
653.2791	-0.0024
653.465	0.0125
653.651	0.0224
653.8369	-0.0013
654.0227	0.0092
654.2086	-0.0002
654.3944	0.0168
654.5803	-0.0062
654.7661	0.0029
654.9519	-0.0033
655.1377	0.0001
655.3234	0.0001
655.5092	0.0001
655.6949	0.0001
655.8806	0.0001
656.0663	0.0001
656.2519	0.0001
656.4376	0.0001
656.6232	0.0001
656.8088	0.0001
656.9945	0.0001
657.18	0.0001
657.3656	0.0001
657.5511	0.0001
657.7367	0.0001
657.9222	0.0001
658.1077	0.0001
658.2932	0.0001
658.4786	0.0001
658.6641	0.0001
658.8495	0.0001
659.0349	0.0001
659.2203	0.0001
659.4057	0.0001
659.591	0.0644
659.7764	0.0341
659.9617	-0.0055
660.147	-0.0027
660.3323	0.0006
660.5176	-0.0112
660.7028	-0.0157
660.888	-0.0032
661.0733	0.003
661.2585	-0.0172
661.4436	0.0002
661.6288	0.0228
661.8139	0.001
661.9991	-0.0086
662.1842	-0.0047
662.3693	-0.005
662.5544	0.0094
662.7394	0.029
662.9245	0.0038
663.1095	-0.014
663.2945	-0.0087
663.4795	0.0181
663.6644	0.0058
663.8494	0.0078
664.0343	0.0177
664.2193	0.0087
664.4042	0.0117
664.589	0.0099
664.7739	0.0024
664.9587	-0.0013
665.1436	-0.0003
665.3284	0.0122
665.5132	-0.0041
665.698	0.0116
665.8827	0.0239
666.0675	-0.0224
666.2522	0.0173
666.4369	0.0019
666.6216	-0.0067
666.8063	0.0085
666.9909	-0.0054
667.1756	-0
667.3602	-0.0013
667.5448	0.0162
667.7294	-0.0007
667.9139	-0.0052
668.0985	0.0148
668.283	-0.0124
668.4675	0.0318
668.652	0.0217
668.8365	0.0083
669.0209	0.0184
669.2054	-0.0016
669.3898	-0.0137
669.5742	0.0306
669.7586	0.0282
669.943	0.0133
670.1273	-0.0044
670.3117	0.0235
670.496	0.0022
670.6803	-0.0108
670.8646	-0.0136
671.0488	0.035
671.2331	-0.0013
671.4173	0.019
671.6015	0.0033
671.7857	0.0087
671.9699	0.0151
672.1541	0.0007
672.3382	-0.0061
672.5223	-0.0031
672.7064	-0.0024
672.8905	-0.0124
673.0746	0.0017
673.2587	0.0246
673.4427	0.0133
673.6267	0.0181
673.8107	0.0192
673.9947	0.016
674.1787	0.0073
674.3626	0.0063
674.5465	0.0012
674.7304	-0.0049
674.9143	-0.0161
675.0982	-0.0022
675.2821	0.0037
675.4659	0.0003
675.6497	0.0243
675.8335	0.0133
676.0173	-0.0037
676.2011	0.0173
676.3849	0.008
676.5686	0.0128
676.7523	-0.0159
676.936	0.0117
677.1197	-0.0111
677.3034	0.0234
677.487	0.0188
677.6706	0.0105
677.8542	-0.0043
678.0378	0.0134
678.2214	-0.011
678.405	-0.0032
678.5885	-0.0002
678.772	0.0169
678.9555	0.0069
679.139	0.0135
679.3225	-0.0086
679.5059	0.0069
679.6894	0.0054
679.8728	-0.0139
680.0562	-0.0024
680.2395	-0.0042
680.4229	-0.012
680.6062	0.0072
680.7896	-0.0073
680.9729	0.0156
681.1562	-0
681.3394	-0.0038
681.5227	0.0028
681.7059	0.0193
681.8891	0.0089
682.0723	0.0159
682.2555	0.0123
682.4387	0.0016
682.6218	0.0067
682.805	0.006
682.9881	0.0166
683.1712	0.0177
683.3542	0.0221
683.5373	-0.0108
683.7203	0.0038
683.9034	-0.0029
684.0864	0.0043
684.2694	0.008
684.4523	0.0147
684.6353	0.0078
684.8182	0.0061
685.0011	0.0087
685.184	0.0031
685.3669	0.0099
685.5498	0.0025
685.7326	0.0011
685.9154	-0.019
686.0982	0.023
686.281	0.0015
686.4638	0.0123
686.6465	-0.0029
686.8293	0.0017
687.012	-0.0012
687.1947	0.0032
687.3774	0.0008
687.56	-0.0068
687.7427	0.005
687.9253	-0.0121
688.1079	0.0035
688.2905	-0.0093
688.4731	0.0208
688.6556	-0.0081
688.8382	-0.008
689.0207	0.0208
689.2032	0.0112
689.3857	-0.0076
689.5681	-0.0155
689.7506	0.0222
689.933	0.0059
690.1154	0.002
690.2978	0.0155
690.4802	0.0014
690.6626	0.0038
690.8449	0.0172
691.0272	-0.0037
691.2095	-0.0063
691.3918	0.0057
691.5741	0.0192
691.7563	0.0074
691.9386	0.0109
692.1208	0.0185
692.303	0.0117
692.4852	0.004
692.6673	0.0159
692.8495	-0.0222
693.0316	0.0043
693.2137	0.0053
693.3958	0.0024
693.5778	0.0059
693.7599	-0.0098
693.9419	-0.0224
694.1239	0.0062
694.3059	0.0367
694.4879	0.0104
694.6699	-0.0117
694.8518	-0.0032
695.0337	0.0038
695.2157	0.0168
695.3975	0.0165
695.5794	-0.026
695.7613	0.019
695.9431	-0.0109
696.1249	0.0192
696.3067	-0.0093
696.4885	0.0187
696.6703	-0.0002
696.852	-0.0199
697.0337	0.0223
697.2154	0.016
697.3971	0.0171
697.5788	0.0201
697.7605	-0.0062
697.9421	0.0214
698.1237	0.012
698.3053	-0.0253
698.4869	0.0035
698.6685	-0.0135
698.85	0.0369
699.0315	-0.0174
699.213	0.0092
699.3945	-0.0037
699.576	0.0251
699.7575	0.0166
699.9389	-0.0246
700.1203	0.0024
700.3017	0.0099
700.4831	0.0196
700.6645	0.0307
700.8458	0.0092
701.0271	0.0284
701.2084	0.0055
701.3897	0.0225
701.571	-0.0064
701.7523	0.0158
701.9335	0.0161
702.1147	0.0235
702.2959	0.0105
702.4771	0.0219
702.6583	0.0038
702.8394	-0.0211
703.0205	0.0349
703.2016	-0.0135
703.3827	-0.011
703.5638	-0.0042
703.7449	0.0285
703.9259	0.0291
704.1069	-0.0239
704.2879	0.0015
704.4689	-0.0113
704.6499	0.0087
704.8308	0.0112
705.0117	0.0182
705.1927	0.0269
705.3735	0.0038
705.5544	0.0141
705.7353	0.0132
705.9161	-0.0125
706.0969	0.0119
706.2777	-0.0055
706.4585	-0.0087
706.6393	0.0235
706.82	0.0222
707.0007	-0.0095
707.1815	0.0106
707.3621	0.0313
707.5428	0.0016
707.7235	0.0077
707.9041	0.0075
708.0847	-0.0044
708.2653	0.0258
708.4459	-0.0065
708.6265	-0.0232
708.807	0.0076
708.9875	-0.0062
709.168	0.0007
709.3485	0.0174
709.529	0.0085
709.7095	-0.0082
709.8899	-0.0091
710.0703	0.0203
710.2507	0.0043
710.4311	-0.0235
710.6115	0.0135
710.7918	0.0302
710.9721	0.0144
711.1524	-0.0167
711.3327	0.023
711.513	-0.0044
711.6932	-0.0162
711.8735	0.0279
712.0537	-0.0017
712.2339	-0.0032
712.4141	0.0604
712.5942	-0.0058
712.7744	0.0213
712.9545	0.0041
713.1346	0.0046
713.3147	0.0131
713.4947	-0.0014
713.6748	0.0118
713.8548	0.0228
714.0348	0.0157
714.2148	0.0288
714.3948	0.022
714.5748	0.0085
714.7547	0.0262
714.9346	0.0281
715.1145	-0.0185
715.2944	-0.0203
715.4743	0.0363
715.6541	0.0197
715.834	0.0648
716.0138	0.0279
716.1936	0.0037
716.3733	0.021
716.5531	0.001
716.7328	-0.0057
716.9126	0.0132
717.0923	-0.0307
717.2719	0.005
717.4516	-0
717.6312	0.0124
717.8109	0.0387
717.9905	0.0262
718.1701	0.0081
718.3496	-0.0028
718.5292	0.0103
718.7087	-0.0063
718.8882	0.0196
719.0677	-0
719.2472	-0.0153
719.4267	-0.0125
719.6061	-0.0102
719.7856	0.0375
719.965	0.0123
720.1443	0.0095
720.3237	-0.0193
720.5031	0.0135
720.6824	0.0038
720.8617	-0.0093
721.041	0.0272
721.2203	-0.0112
721.3995	-0.0151
721.5788	0.0008
721.758	0.0004
721.9372	0.0012
722.1164	0.0325
722.2956	-0.0109
722.4747	0.0307
722.6538	0.0296
722.8329	0.022
723.012	0.0125
723.1911	0.0199
723.3702	0.0174
723.5492	-0.0177
723.7282	-0.0043
723.9072	0.0312
724.0862	0.0117
724.2652	0.0399
724.4441	0.0166
724.623	-0.0045
724.8019	-0.0025
724.9808	0.0252
725.1597	0.018
725.3385	0.0133
725.5174	0.0058
725.6962	0.022
725.875	-0.0017
726.0538	0.0151
726.2325	-0.004
726.4112	0.0049
726.59	-0.0092
726.7687	0.0062
726.9474	0.0349
727.126	0.0057
727.3047	0.0027
727.4833	-0.0245
727.6619	0.0007
727.8405	-0.0048
728.0191	0.0367
728.1976	0.0184
728.3762	0.0047
728.5547	-0.0072
728.7332	0.0299
728.9116	0.013
729.0901	0.0019
729.2686	0.0153
729.447	-0.006
729.6254	0.0022
729.8038	-0.0197
729.9821	-0.0203
730.1605	0.0229
730.3388	-0.0057
730.5171	0.0158
730.6954	-0.0173
730.8737	-0.015
731.0519	-0.0133
731.2302	0.0255
731.4084	-0.0066
731.5866	-0.0003
731.7648	-0.0121
731.9429	0.018
732.1211	-0.0222
732.2992	0.0037
732.4773	0.0103
732.6554	-0.0137
732.8335	0.0104
733.0115	0.0161
733.1896	-0.0006
733.3676	0.0278
733.5456	0.0007
733.7235	-0.0075
733.9015	0.0157
734.0794	-0.0095
734.2574	-0.0157
734.4353	0.0216
734.6131	-0.0116
734.791	0.0102
734.9689	-0.0135
735.1467	0.0014
735.3245	0.0225
735.5023	-0
735.68	-0.0153
735.8578	0.0117
736.0355	0.008
736.2132	-0.0032
736.3909	0.0045
736.5686	-0.0086
736.7463	-0.0039
736.9239	0.0316
737.1015	-0.0009
737.2791	0.0096
737.4567	-0.0109
737.6343	0.005
737.8118	0.0165
737.9894	0.0003
738.1669	-0.0092
738.3444	0.0181
738.5218	-0.0109
738.6993	0.0093
738.8767	0.0012
739.0541	-0.0077
739.2315	-0.0156
739.4089	0.0176
739.5863	-0.0107
739.7636	-0.014
739.9409	-0
740.1182	0.0081
740.2955	0.0039
740.4728	-0.0154
740.65	-0.0074
740.8272	0.0185
741.0044	0.0112
741.1816	0.018
741.3588	-0.0091
741.5359	0.0065
741.7131	0.0044
741.8902	-0
742.0673	-0.0225
742.2444	0.0037
742.4214	0.0391
742.5985	-0.0115
742.7755	0.0189
742.9525	-0.0248
743.1295	-0.0159
743.3064	-0.0015
743.4834	-0.0084
743.6603	0.0553
743.8372	-0.0378
744.0141	0.0351
744.191	0.0275
744.3678	-0.0275
744.5446	0.0188
744.7215	0.0232
744.8982	0.006
745.075	0.0334
745.2518	-0.0027
745.4285	0.0412
745.6052	-0.0474
745.7819	0.0042
745.9586	0.0077
746.1353	-0.0151
746.3119	-0.018
746.4885	0.0547
746.6651	-0.0115
746.8417	-0.0067
747.0183	0.0375
747.1948	0.0061
747.3714	0.0321
747.5479	0.0128
747.7244	0.0074
747.9008	-0.0045
748.0773	0.0376
748.2537	0.0368
748.4301	0.0514
748.6065	-0.0203
748.7829	-0.0287
748.9593	-0.0299
749.1356	0.0003
749.3119	0.0265
749.4882	0.0229
749.6645	-0.0015
749.8408	0.0087
750.017	-0.0103
750.1933	-0.0067
750.3695	0.0183
750.5457	-0.0057
750.7218	0.0067
750.898	-0.0165
751.0741	0.0009
751.2502	0.0125
751.4263	-0.0022
751.6024	0.0035
751.7784	0.0157
751.9545	0.0115
752.1305	0.0111
752.3065	0.0331
752.4825	-0.0048
752.6584	-0.0074
752.8344	0.0048
753.0103	-0.0159
753.1862	0.0234
753.3621	-0.012
753.5379	-0.008
753.7138	0.0109
753.8896	-0.0028
754.0654	-0.0232
754.2412	0.0098
754.417	0.0091
754.5927	0.0127
754.7685	0.0105
754.9442	0.0167
755.1199	0.0205
755.2956	0.0044
755.4712	0.0048
755.6469	0.0052
755.8225	0.0011
755.9981	0.0167
756.1736	0.0099
756.3492	-0.0118
756.5248	0.0242
756.7003	-0.0011
756.8758	0.0006
757.0513	0.0034
757.2267	0.009
757.4022	-0.01
757.5776	0.0012
757.753	0.0235
757.9284	0.016
758.1038	0.0119
758.2791	-0.0123
758.4545	-0.004
758.6298	0.0171
758.8051	0.016
758.9803	0.0005
759.1556	0.0143
759.3308	0.01
759.506	-0.0033
759.6812	-0.0015
759.8564	0.0012
760.0316	-0.0033
760.2067	0.0119
760.3819	0.0044
760.557	-0.0015
760.732	-0.0072
760.9071	0.0021
761.0821	-0.0081
761.2572	0.0129
761.4322	0.0271
761.6072	0.0058
761.7821	-0.0191
761.9571	0.0227
762.132	0.0218
762.3069	0.0275
762.4818	0.0127
762.6567	-0.0144
762.8316	0.0133
763.0064	0.0321
763.1812	0.0197
763.356	-0.0189
763.5308	0.0386
763.7055	-0.0013
763.8803	-0.0124
764.055	-0.0145
764.2297	0.009
764.4044	-0.0243
764.579	-0.0071
764.7537	0.0102
764.9283	0.0143
765.1029	0.0041
765.2775	0.0235
765.4521	0.016
765.6266	0.0198
765.8011	-0.0017
765.9756	0.024
766.1501	0.0115
766.3246	0.0068
766.4991	0.0146
766.6735	0.0522
766.8479	0.0118
767.0223	0.0149
767.1967	0.0131
767.371	0.0221
767.5454	-0.0088
767.7197	0.0309
767.894	-0.0004
768.0683	0.0406
768.2425	0.0157
768.4168	0.0152
768.591	0.0081
768.7652	-0.0108
768.9394	-0.0305
769.1135	-0.0141
769.2877	0.0161
769.4618	0.048
769.6359	0.0114
769.81	0.012
769.984	0.0003
770.1581	0.0098
770.3321	0.0243
770.5061	-0.0106
770.6801	-0.016
770.8541	0.0179
771.028	0.0449
771.202	0.0312
771.3759	0.0101
771.5498	0.0175
771.7236	0.0537
771.8975	0.0578
772.0713	0.0027
772.2451	0.0039
772.4189	0.0143
772.5927	-0.0206
772.7665	0.0121
772.9402	0.0326
773.1139	0.0151
773.2876	-0.0071
773.4613	0.0091
773.635	0.0333
773.8086	0.0635
773.9822	0.0265
774.1558	0.0643
774.3294	0.0216
774.503	-0.009
774.6765	0.0251
774.8501	0.0138
775.0236	0.0674
775.1971	0.0163
775.3705	-0.022
775.544	-0.0123
775.7174	0.0107
775.8908	0.0469
776.0642	0.0588
776.2376	0.0274
776.4109	-0.0026
776.5843	-0.0088
776.7576	-0.0223
776.9309	-0.0001
777.1041	-0.0589
777.2774	-0.0211
777.4506	-0.0218
777.6238	-0.0122
777.797	0.0467
777.9702	0.0059
778.1434	-0.0098
778.3165	-0.0122
778.4896	-0.0293
778.6627	0.0253
778.8358	0.0105
779.0089	-0.0194
779.1819	0.0375
779.3549	0.0274
779.5279	0.0052
779.7009	0.0343
779.8739	0.0855
780.0468	-0.0146
780.2197	-0.0106
780.3926	-0.0285
780.5655	0.004
780.7384	0.0238
780.9112	0.0157
781.0841	0.0272
781.2569	0.0317
781.4297	0.0143
781.6024	0.005
781.7752	0.0493
781.9479	0.0219
782.1206	0.0166
782.2933	0.0226
782.466	0.0157
782.6386	0.0283
782.8113	0.0052
782.9839	0.0291
783.1565	0.0191
783.329	0.0111
783.5016	0.0086
783.6741	-0.0001
783.8466	0.0487
784.0191	0.0068
784.1916	-0.0428
784.3641	-0.0287
784.5365	0.0115
784.7089	-0.0034
784.8813	0.0812
785.0537	0.0188
785.2261	-0.0074
785.3984	0.0284
785.5707	-0.0139
785.743	0.0498
785.9153	-0.0117
786.0876	-0.0194
786.2598	0.0067
786.432	0.0189
786.6042	0.0712
786.7764	-0.0056
786.9486	-0.0028
787.1207	0.0414
787.2928	0.0481
787.4649	-0.0001
787.637	0.0242
787.8091	0.0052
787.9811	0.0231
788.1532	0.0017
788.3252	0.0269
788.4972	0.0254
788.6691	0.0118
788.8411	0.0337
789.013	0.0075
789.1849	-0.0289
789.3568	0.0717
789.5287	0.0475
789.7005	-0.002
789.8723	0.0084
790.0442	0.0182
790.2159	0.0009
790.3877	0.0274
790.5595	0.0367
790.7312	-0.0129
790.9029	-0.0042
791.0746	0.0902
791.2463	-0.0546
791.4179	0.0193
791.5896	0.0119
791.7612	-0.0281
791.9328	-0.0112
792.1044	0.0992
792.2759	-0.0218
792.4474	-0.0304
792.619	-0.0422
792.7905	0.0648
792.9619	0.0389
793.1334	0.0039
793.3048	0.1064
793.4762	0.0153
793.6476	-0.0342
793.819	0.01
793.9904	-0.0079
794.1617	-0.0105
794.333	0.0011
794.5043	0.0321
794.6756	0.0335
794.8469	0.0049
795.0181	0.0279
795.1893	0.073
795.3605	0.0449
795.5317	0.0253
795.7029	0.011
795.874	-0.0289
796.0452	0.0239
796.2163	0.0154
796.3873	0.0386
796.5584	0.1026
796.7294	0.0044
796.9005	0.0478
797.0715	-0.0216
797.2425	0.0581
797.4134	0.0829
797.5844	-0.0099
797.7553	-0.0376
797.9262	0.0156
798.0971	0.0587
798.2679	0.0693
798.4388	0.1023
798.6096	0.0519
798.7804	-0.0226
798.9512	0.0789
799.122	0.0209
799.2927	0.1377
799.4635	-0.0571
799.6342	-0.0628
799.8049	0.0176
799.9755	0.0533
800.1462	0.004
800.3168	0.0187
800.4874	-0.0453
800.658	0.1348
800.8286	-0.0168
800.9991	0.0175
801.1696	-0.0255
801.3402	-0.06
801.5106	-0.096
801.6811	0.0088
801.8516	0.0672
802.022	0.0871
802.1924	-0.038
802.3628	0.0178
802.5332	0.125
802.7035	0.0701
802.8739	0.0279
803.0442	-0.0478
803.2145	0.0251
803.3847	-0.0032
803.555	0.0322
803.7252	-0.0072
803.8954	-0.0178
804.0656	0.0477
804.2358	-0.0674
804.4059	0.0404
804.5761	-0.0095
804.7462	-0.0001
804.9163	0.0462
805.0864	0.0496
805.2564	-0.0039
805.4264	-0.0514
805.5965	0.0817
805.7665	-0.061
805.9364	-0.0689
806.1064	0.0166
806.2763	-0.002
806.4462	0.0306
806.6161	0.059
806.786	0.0429
806.9559	0.0428
807.1257	0.006
807.2955	0.0747
807.4653	-0.006
807.6351	0.07
807.8048	0.0838
807.9746	0.1032
808.1443	-0.0028
808.314	0.0454
808.4837	0.0556
808.6533	0.0207
808.8229	0.0591
808.9926	0.0579
809.1622	0.0034
809.3317	-0.03
809.5013	0.0282
809.6708	-0.0212
809.8403	0.0113
810.0098	0.0016
810.1793	0.2465
810.3488	-0.0208
810.5182	0.1271
810.6876	-0.0228
810.857	-0.0321
811.0264	-0.074
811.1958	0.1051
811.3651	0.0796
811.5344	0.0405
811.7037	0.132
811.873	0.1432
812.0422	-0.106
812.2115	0.0759
812.3807	-0.1499
812.5499	-0.0079
812.7191	-0.1643
812.8882	-0.1608
813.0574	-0.04
813.2265	0.0548
813.3956	0.1529
813.5646	0.0502
813.7337	-0.0177
813.9027	0.006
814.0718	0.0171
814.2407	0.0886
814.4097	0.0465
814.5787	0.0556
814.7476	0.0013
814.9165	0.0106
815.0854	0.0739
815.2543	-0.0025
815.4232	0.1318
815.592	0.095
815.7608	0.0332
815.9296	-0.014
816.0984	0.0599
816.2671	-0.2525
816.4359	0.102
816.6046	0.0761
816.7733	-0.0669
816.942	-0.1063
817.1106	0.1327
817.2793	0.0583
817.4479	-0.0341
817.6165	0.0978
817.785	-0.02
817.9536	-0.0343
818.1221	0.0454
818.2906	-0.0135
818.4591	0.002
818.6276	0.0022
818.7961	0.0126
818.9645	0.026
819.1329	0.03
819.3013	-0.0705
819.4697	-0.1353
819.638	0.3253
819.8064	0.1747
819.9747	0.1027
820.143	-0.083
820.3113	0.1432
820.4795	0.0868
820.6477	0.0021
820.816	0.0814
820.9842	0.0135
821.1523	-0.0094
821.3205	0.082
821.4886	0.0384
821.6567	-0.0304
821.8248	0.1531
821.9929	-0.0943
822.1609	-0.0167
822.329	0.0241
822.497	0.0148
822.665	0.0095
822.833	-0.0566
823.0009	0.0363
823.1688	0.0584
823.3367	-0.0988
823.5046	0.1323
823.6725	-0.1222
823.8404	-0.0371
824.0082	-0.0974
824.176	-0.0946
824.3438	0.3052
824.5116	0.0127
824.6793	0.1003
824.847	0.2325
825.0147	0.0578
825.1824	0.1342
825.3501	0.1765
825.5177	0.0248
825.6854	-0.0152
825.853	0.0514
826.0206	0.007
826.1881	0.2045
826.3557	0.0215
826.5232	0.1242
826.6907	0.0657
826.8582	0.0352
827.0257	0.0063
827.1931	0.0282
827.3605	-0.1313
827.528	0.1612
827.6953	-0.0956
827.8627	0.1764
828.03	0.1839
828.1974	0.0099
828.3647	-0.0315
828.532	0.0094
828.6992	0.1792
828.8665	-0.0719
829.0337	0.0228
829.2009	0.0629
829.3681	0.0159
829.5352	-0.2817
829.7024	0.1251
829.8695	-0.0225
830.0366	0.1793
830.2037	0.1023
830.3707	-0.0607
830.5378	0.0714
830.7048	0.0284
830.8718	0.0852
831.0388	0.166
831.2057	0.3781
831.3727	0.443
831.5396	0.1349
831.7065	-0.7603
831.8734	0.1829
832.0402	0.2459
832.2071	-0.4761
832.3739	-0.1783
832.5407	-1.7613
832.7075	-0.5142
832.8742	-0.175
833.041	0.1367
833.2077	0.3269
833.3744	0.1
833.541	0.0234
833.7077	0.1553
833.8743	0.3463
834.0409	0.1781
834.2075	0.1599
834.3741	-0.2885
834.5407	-0.0194
834.7072	0.1081
834.8737	-0.0077
835.0402	0.2529
835.2067	-0.0505
835.3731	-0.1456
835.5395	-0.0184
835.706	0.4074
835.8723	0.1795
836.0387	0.121
836.2051	0.3031
836.3714	0.2049
836.5377	0.1728
836.704	0.1436
836.8703	0.0471
837.0365	-0.342
837.2027	0.041
837.3689	0.4904
837.5351	0.2959
837.7013	-0.2509
837.8674	-0
838.0335	-0.1219
838.1997	-0.1382
838.3657	1.1933
838.5318	-0.0665
838.6978	0.4575
838.8639	-0.7162
839.0299	-0.052
839.1958	0.2074
839.3618	-0
839.5277	0.0058
839.6937	-0.0943
839.8596	0.1664
840.0254	0.2865
840.1913	-0.1616
840.3571	-0.0203
840.523	-1.301
840.6888	-0.0066
840.8545	-0.4454
841.0203	0.4696
841.186	-0.1496
841.3517	-0.045
841.5174	0.0267
841.6831	-0.0612
841.8488	0.7272
842.0144	-0
842.18	0.5924
842.3456	-0.7109
842.5112	-0
842.6767	0.1731
842.8422	0.0634
843.0077	0.0901
843.1732	-0.3266
843.3387	0.5751
843.5042	-0
843.6696	-0.2816
843.835	0.1647
844.0004	0.0533
844.1657	-0
844.3311	-0
844.4964	-0.0944
844.6617	0.5801
844.827	-0
844.9923	0.1415
845.1575	-0.2581
845.3227	-0.0753
845.4879	-0.4524
845.6531	0.2052
845.8183	0.1634
845.9834	-0
846.1485	0.9843
846.3136	-0.075
846.4787	-0
846.6438	-0.0513
846.8088	-0
846.9738	-0
847.1388	0.3385
847.3038	-0.0473
847.4687	-0
847.6337	-0.2464
847.7986	-0.2277
847.9635	0.2342
848.1284	-0
848.2932	0.205
848.458	-0
848.6228	0.2275
848.7876	-0
848.9524	-0.0888
849.1172	-1.8214
849.2819	-0
849.4466	0.1858
849.6113	0.3369
849.7759	-0
849.9406	-0.0389
850.1052	-1.1746
850.2698	1.7181
850.4344	-0.9755
850.599	-0.1203
850.7635	-0
850.928	0.2119
851.0925	0.7099
851.257	-0.0142
851.4215	0.2636
851.5859	-0.0142
851.7503	-0.2209
851.9147	-0.1072
852.0791	0.3887
852.2434	0.2591
852.4078	-0
852.5721	0.2052
852.7364	0.3971
852.9007	-0.122
853.0649	-0
853.2291	0.6013
853.3934	-0
853.5575	0.0351
853.7217	0.0406
853.8859	-0
854.05	-0.2555
854.2141	0.6395
854.3782	-0
854.5423	-0.129
854.7063	0.4733
854.8703	-0.0701
855.0343	-0.0644
855.1983	0.4049
855.3623	0.1853
855.5262	-0
855.6901	-0
855.854	0.1452
856.0179	-0
856.1818	0.4828
856.3456	0.2693
856.5094	-0
856.6732	-0.6586
856.837	-1.2568
857.0008	-0
857.1645	0.6229
857.3282	-0.058
857.4919	0.303
857.6556	-0.2123
857.8192	0.0834
857.9828	0.3646
858.1465	0.0255
858.31	-0.2475
858.4736	-0.7482
858.6372	0.2411
858.8007	-0.2441
858.9642	0.1487
859.1277	0.4949
859.2911	-0.3473
859.4546	-0
859.618	0.033
859.7814	0.5612
859.9448	1.3958
860.1081	0.6048
860.2715	-1.5051
860.4348	-0
860.5981	0.2229
860.7614	-0.0388
860.9246	-0.0498
861.0879	0.6485
861.2511	-0
861.4143	-0
861.5774	-0.0015
861.7406	-0.2532
861.9037	-0
862.0668	-0
862.2299	-0
862.393	-0.071
862.556	-0
862.7191	-0.1815
862.8821	0.0232
863.0451	-0.0123
863.208	-0.3576
863.371	-0
863.5339	0.3284
863.6968	0.3865
863.8597	0.9708
864.0225	-0
864.1854	-0.2264
864.3482	-0.7828
864.511	0.0609
864.6737	-0.2014
864.8365	0.1812
864.9992	-0
865.1619	-0.1011
865.3246	-2.1679
865.4873	-0
865.65	0.8442
865.8126	-0
865.9752	0.6373
866.1378	0.4498
866.3004	-0.0838
866.4629	-1.058
866.6254	-0
866.7879	-0.2264
866.9504	-0.4919
867.1129	0.7379
867.2753	-0.2198
867.4377	0.0142
867.6001	-0.4238
867.7625	0.2617
867.9249	0.6005
868.0872	-0
868.2495	-0
868.4118	-0.1155
868.5741	-0.2327
868.7363	-0
868.8986	-0.6106
869.0608	-0
869.223	-0.1141
869.3851	-0
869.5473	0.0168
869.7094	1.3131
869.8715	-0.3836
870.0336	0.1324
870.1957	-1.1131
870.3577	1.5231
870.5197	0.0723
870.6817	-0.4753
870.8437	-0.0353
871.0057	-0
871.1676	0.194
871.3295	-0.4654
871.4914	-0
871.6533	0.6048
871.8151	0.6934
871.977	-0
872.1388	-0.2353
872.3006	-0.4401
872.4623	-0.5737
872.6241	0.1556
872.7858	-0
872.9475	-0
873.1092	0.1467
873.2709	0.4087
873.4325	-1.8742
873.5941	-0
873.7557	-0
873.9173	-0
874.0789	0.3584
874.2404	-0
874.4019	-0.2048
874.5634	-0
874.7249	0.443
874.8863	0.7181
875.0478	-0.2167
875.2092	-0
875.3706	0.0558
875.5319	0.8191
875.6933	0.0281
875.8546	-0
876.0159	0.0745
876.1772	-0.0038
876.3385	0.987
876.4997	-0
876.6609	-0
876.8221	-0
876.9833	-0
877.1445	0.3305
877.3056	-0.3411
877.4667	-0
877.6278	0.6415
877.7889	-0.1605
877.9499	-0
878.111	-0.2283
878.272	-0
878.433	-0
878.5939	-0.2394
878.7549	-0.1948
878.9158	-0
879.0767	-0
879.2376	-0.0029
879.3984	1.0988
879.5593	1.0123
879.7201	-1.8841
879.8809	-0
880.0417	-0.1956
880.2024	0.6105
880.3632	-0.1311
880.5239	0.3968
880.6846	-0
880.8452	0.175
881.0059	-0
881.1665	0.0969
881.3271	-0
881.4877	0.108
881.6483	-1.4856
881.8088	-0
881.9693	-1.409
882.1298	-1.409
882.2903	-1.409
