Data from D4ACN5uM460nmA_Absorbance_13-05-42-005.txt Node
Date: Fri Feb 21 13:05:42 GMT 2025
User: LASERRRRR
Spectrometer: FLMT03099
Trigger mode: 0
Integration Time (sec): 1.500000E-2
Scans to average: 1
Electric dark correction enabled: true
Nonlinearity correction enabled: false
Boxcar width: 0
XAxis mode: Wavelengths
Number of Pixels in Spectrum: 3648
>>>>>Begin Spectral Data<<<<<
179.3399	-0.5621
179.5586	-0.5621
179.7771	-0.5621
179.9957	-0.3759
180.2143	-0
180.4329	-0.0143
180.6514	-0
180.8699	-0
181.0885	-0
181.307	0.7223
181.5255	1.4822
181.744	-0
181.9625	1.2208
182.181	-0.3422
182.3994	-0.6536
182.6179	-0
182.8363	0.4495
183.0547	-0
183.2732	0.1316
183.4916	0.4664
183.71	0.245
183.9284	0.0289
184.1467	0.2002
184.3651	0.0591
184.5835	0.3876
184.8018	0.3252
185.0201	0.5038
185.2385	0.1101
185.4568	0.2526
185.6751	0.0975
185.8934	0.2774
186.1117	-0.0544
186.3299	0.4334
186.5482	0.2611
186.7664	0.0627
186.9847	0.0645
187.2029	0.5851
187.4211	0.1449
187.6393	0.1412
187.8575	0.1441
188.0757	-0
188.2939	0.4755
188.512	0.1822
188.7302	0.1798
188.9483	0.2641
189.1665	0.6197
189.3846	0.5338
189.6027	0.1763
189.8208	0.2662
190.0389	0.4047
190.257	0.1844
190.475	0.2408
190.6931	0.1367
190.9111	0.0531
191.1292	0.0295
191.3472	0.0603
191.5652	0.1952
191.7832	0.2686
192.0012	0.1969
192.2192	0.2508
192.4371	0.2809
192.6551	0.1886
192.873	0.1816
193.091	0.2043
193.3089	0.2719
193.5268	0.2401
193.7447	0.2257
193.9626	0.2119
194.1805	0.2423
194.3984	0.2115
194.6162	0.2754
194.8341	0.2159
195.0519	0.3236
195.2697	0.343
195.4875	0.2901
195.7054	0.2961
195.9231	0.2931
196.1409	0.3627
196.3587	0.3485
196.5765	0.3097
196.7942	0.3463
197.012	0.4443
197.2297	0.3865
197.4474	0.3811
197.6651	0.3489
197.8828	0.3657
198.1005	0.372
198.3182	0.4224
198.5358	0.4211
198.7535	0.4014
198.9711	0.3724
199.1888	0.3844
199.4064	0.3919
199.624	0.3808
199.8416	0.3695
200.0592	0.421
200.2767	0.4033
200.4943	0.4341
200.7119	0.4055
200.9294	0.4027
201.1469	0.435
201.3645	0.4331
201.582	0.4256
201.7995	0.4143
202.017	0.4357
202.2344	0.4288
202.4519	0.448
202.6694	0.3851
202.8868	0.4116
203.1042	0.4369
203.3217	0.4008
203.5391	0.423
203.7565	0.3605
203.9739	0.3795
204.1913	0.3559
204.4086	0.3917
204.626	0.3474
204.8433	0.3435
205.0607	0.3653
205.278	0.3345
205.4953	0.3294
205.7126	0.3445
205.9299	0.3338
206.1472	0.3331
206.3644	0.3416
206.5817	0.3083
206.7989	0.3594
207.0162	0.3516
207.2334	0.3292
207.4506	0.3
207.6678	0.3105
207.885	0.3113
208.1022	0.3184
208.3194	0.3162
208.5365	0.3208
208.7537	0.3218
208.9708	0.2858
209.1879	0.2878
209.405	0.2964
209.6222	0.295
209.8392	0.3196
210.0563	0.29
210.2734	0.2811
210.4905	0.2702
210.7075	0.2824
210.9245	0.2495
211.1416	0.261
211.3586	0.2736
211.5756	0.2455
211.7926	0.2898
212.0096	0.2721
212.2265	0.2654
212.4435	0.2664
212.6604	0.2725
212.8774	0.2446
213.0943	0.2487
213.3112	0.2687
213.5281	0.2645
213.745	0.2412
213.9619	0.2498
214.1788	0.258
214.3956	0.2704
214.6125	0.2613
214.8293	0.264
215.0461	0.2747
215.2629	0.2583
215.4798	0.2659
215.6965	0.2471
215.9133	0.2524
216.1301	0.2541
216.3469	0.2582
216.5636	0.2533
216.7803	0.2451
216.9971	0.2687
217.2138	0.2566
217.4305	0.266
217.6472	0.242
217.8639	0.2481
218.0805	0.2712
218.2972	0.2608
218.5138	0.2521
218.7305	0.2657
218.9471	0.2502
219.1637	0.2781
219.3803	0.2573
219.5969	0.2515
219.8135	0.272
220.0301	0.2666
220.2466	0.2662
220.4632	0.2583
220.6797	0.27
220.8962	0.2567
221.1127	0.2723
221.3292	0.2812
221.5457	0.2881
221.7622	0.2668
221.9787	0.2689
222.1951	0.2816
222.4116	0.2743
222.628	0.2699
222.8444	0.2836
223.0608	0.2728
223.2772	0.2816
223.4936	0.2903
223.71	0.2937
223.9264	0.2947
224.1427	0.2913
224.3591	0.2836
224.5754	0.3019
224.7917	0.2972
225.008	0.3048
225.2243	0.3248
225.4406	0.3058
225.6569	0.3162
225.8732	0.3125
226.0894	0.3108
226.3057	0.3218
226.5219	0.3083
226.7381	0.3285
226.9543	0.3232
227.1705	0.3174
227.3867	0.3199
227.6029	0.3245
227.8191	0.3428
228.0352	0.3438
228.2513	0.3523
228.4675	0.3494
228.6836	0.3602
228.8997	0.335
229.1158	0.3524
229.3319	0.3585
229.548	0.3613
229.764	0.3527
229.9801	0.3667
230.1961	0.3718
230.4121	0.367
230.6282	0.3771
230.8442	0.3858
231.0602	0.3898
231.2761	0.389
231.4921	0.3954
231.7081	0.3908
231.924	0.4007
232.14	0.4026
232.3559	0.4211
232.5718	0.4024
232.7877	0.4071
233.0036	0.4068
233.2195	0.4155
233.4353	0.4195
233.6512	0.42
233.867	0.4207
234.0829	0.421
234.2987	0.4248
234.5145	0.426
234.7303	0.4461
234.9461	0.4518
235.1619	0.4472
235.3776	0.4339
235.5934	0.4368
235.8091	0.4442
236.0249	0.4524
236.2406	0.4442
236.4563	0.4573
236.672	0.4438
236.8877	0.4555
237.1034	0.4363
237.319	0.4474
237.5347	0.4549
237.7503	0.4495
237.966	0.4675
238.1816	0.4614
238.3972	0.4634
238.6128	0.4641
238.8284	0.4607
239.0439	0.4596
239.2595	0.4645
239.475	0.4622
239.6906	0.4619
239.9061	0.4647
240.1216	0.4625
240.3371	0.4657
240.5526	0.4617
240.7681	0.4639
240.9836	0.4546
241.199	0.4482
241.4145	0.4471
241.6299	0.4402
241.8453	0.4527
242.0607	0.4403
242.2761	0.4301
242.4915	0.4184
242.7069	0.4128
242.9223	0.426
243.1376	0.4035
243.353	0.4028
243.5683	0.3966
243.7836	0.3902
243.9989	0.3799
244.2142	0.3684
244.4295	0.3641
244.6448	0.3641
244.86	0.3552
245.0753	0.3478
245.2905	0.3345
245.5057	0.3339
245.721	0.3288
245.9362	0.3259
246.1514	0.3189
246.3665	0.3146
246.5817	0.3
246.7969	0.2986
247.012	0.2924
247.2271	0.2914
247.4423	0.285
247.6574	0.2824
247.8725	0.2662
248.0876	0.2629
248.3026	0.261
248.5177	0.2545
248.7328	0.2503
248.9478	0.2517
249.1628	0.2475
249.3779	0.2394
249.5929	0.2403
249.8079	0.2349
250.0228	0.2319
250.2378	0.2325
250.4528	0.2303
250.6677	0.2212
250.8827	0.2159
251.0976	0.2091
251.3125	0.2172
251.5274	0.2109
251.7423	0.2071
251.9572	0.2021
252.172	0.2
252.3869	0.2029
252.6017	0.2016
252.8166	0.2027
253.0314	0.198
253.2462	0.1997
253.461	0.1882
253.6758	0.1956
253.8906	0.1925
254.1053	0.1937
254.3201	0.1951
254.5348	0.1879
254.7496	0.1861
254.9643	0.192
255.179	0.1847
255.3937	0.1887
255.6083	0.193
255.823	0.1862
256.0377	0.1739
256.2523	0.1858
256.467	0.1853
256.6816	0.1824
256.8962	0.1888
257.1108	0.1779
257.3254	0.1816
257.54	0.1729
257.7545	0.1825
257.9691	0.1761
258.1836	0.1779
258.3981	0.1803
258.6127	0.1693
258.8272	0.1835
259.0417	0.1713
259.2561	0.1758
259.4706	0.1746
259.6851	0.1808
259.8995	0.1746
260.114	0.1783
260.3284	0.1698
260.5428	0.1802
260.7572	0.1741
260.9716	0.1797
261.186	0.1745
261.4003	0.1693
261.6147	0.178
261.829	0.1738
262.0433	0.1768
262.2577	0.1748
262.472	0.1731
262.6863	0.1805
262.9005	0.1739
263.1148	0.1733
263.3291	0.1779
263.5433	0.1751
263.7576	0.1781
263.9718	0.1812
264.186	0.1774
264.4002	0.1716
264.6144	0.1833
264.8286	0.1773
265.0427	0.18
265.2569	0.1797
265.471	0.1765
265.6851	0.1763
265.8993	0.1746
266.1134	0.1811
266.3275	0.1781
266.5415	0.1817
266.7556	0.1849
266.9697	0.1777
267.1837	0.1748
267.3978	0.1823
267.6118	0.1738
267.8258	0.1771
268.0398	0.177
268.2538	0.1749
268.4677	0.174
268.6817	0.1728
268.8957	0.1673
269.1096	0.1672
269.3235	0.1693
269.5374	0.1742
269.7514	0.17
269.9652	0.1706
270.1791	0.1708
270.393	0.17
270.6068	0.1675
270.8207	0.167
271.0345	0.1691
271.2483	0.1661
271.4622	0.1676
271.676	0.1696
271.8897	0.1707
272.1035	0.1736
272.3173	0.1671
272.531	0.1712
272.7448	0.1672
272.9585	0.1597
273.1722	0.1654
273.3859	0.1662
273.5996	0.1666
273.8133	0.1666
274.0269	0.1625
274.2406	0.1683
274.4542	0.1633
274.6679	0.1658
274.8815	0.1723
275.0951	0.1774
275.3087	0.1726
275.5223	0.1714
275.7358	0.1685
275.9494	0.1676
276.1629	0.1758
276.3765	0.1701
276.59	0.1671
276.8035	0.1702
277.017	0.1764
277.2305	0.1751
277.444	0.1728
277.6574	0.1759
277.8709	0.179
278.0843	0.1769
278.2978	0.1726
278.5112	0.1684
278.7246	0.1711
278.938	0.1729
279.1513	0.1715
279.3647	0.1729
279.5781	0.1745
279.7914	0.171
280.0047	0.1726
280.2181	0.179
280.4314	0.1779
280.6447	0.178
280.8579	0.1685
281.0712	0.1758
281.2845	0.1785
281.4977	0.1766
281.711	0.1761
281.9242	0.1779
282.1374	0.1778
282.3506	0.1745
282.5638	0.1835
282.7769	0.174
282.9901	0.1802
283.2033	0.1812
283.4164	0.1788
283.6295	0.1825
283.8426	0.1772
284.0557	0.1843
284.2688	0.1791
284.4819	0.1796
284.695	0.1887
284.908	0.1812
285.1211	0.1852
285.3341	0.1802
285.5471	0.1848
285.7601	0.1834
285.9731	0.1842
286.1861	0.187
286.3991	0.1894
286.612	0.1922
286.825	0.1891
287.0379	0.1839
287.2508	0.1884
287.4637	0.1899
287.6766	0.1907
287.8895	0.1878
288.1024	0.19
288.3152	0.1887
288.5281	0.1844
288.7409	0.1946
288.9538	0.1912
289.1666	0.1857
289.3794	0.1862
289.5922	0.1873
289.8049	0.1892
290.0177	0.1886
290.2304	0.1883
290.4432	0.1931
290.6559	0.1966
290.8686	0.1901
291.0813	0.188
291.294	0.1913
291.5067	0.1929
291.7194	0.1964
291.932	0.1935
292.1447	0.1888
292.3573	0.1926
292.5699	0.1984
292.7825	0.1879
292.9951	0.1935
293.2077	0.186
293.4203	0.1919
293.6328	0.1913
293.8454	0.1944
294.0579	0.193
294.2704	0.2007
294.4829	0.1932
294.6954	0.1952
294.9079	0.1907
295.1204	0.1889
295.3328	0.1936
295.5453	0.1938
295.7577	0.1947
295.9701	0.1956
296.1825	0.1986
296.3949	0.1939
296.6073	0.1942
296.8197	0.1965
297.0321	0.1978
297.2444	0.1841
297.4567	0.1945
297.6691	0.1912
297.8814	0.1928
298.0937	0.1954
298.306	0.19
298.5182	0.1983
298.7305	0.1931
298.9428	0.1883
299.155	0.1914
299.3672	0.1905
299.5794	0.1915
299.7916	0.1904
300.0038	0.1961
300.216	0.1943
300.4282	0.1904
300.6403	0.1967
300.8525	0.1914
301.0646	0.1891
301.2767	0.1942
301.4888	0.191
301.7009	0.1955
301.913	0.1911
302.125	0.1899
302.3371	0.1932
302.5491	0.1925
302.7612	0.1995
302.9732	0.1934
303.1852	0.1951
303.3972	0.1901
303.6092	0.1921
303.8211	0.1921
304.0331	0.1895
304.245	0.1873
304.457	0.1941
304.6689	0.1913
304.8808	0.1837
305.0927	0.1898
305.3046	0.1844
305.5164	0.1877
305.7283	0.186
305.9401	0.1691
306.152	0.1828
306.3638	0.1789
306.5756	0.1827
306.7874	0.1753
306.9992	0.172
307.2109	0.1734
307.4227	0.1718
307.6344	0.1741
307.8462	0.1673
308.0579	0.179
308.2696	0.1646
308.4813	0.1638
308.693	0.1618
308.9046	0.1653
309.1163	0.1642
309.328	0.1538
309.5396	0.1568
309.7512	0.1488
309.9628	0.1506
310.1744	0.1475
310.386	0.1418
310.5976	0.1405
310.8091	0.1514
311.0207	0.1468
311.2322	0.1437
311.4437	0.1444
311.6552	0.1418
311.8667	0.1458
312.0782	0.1399
312.2897	0.1369
312.5012	0.1393
312.7126	0.1374
312.924	0.1394
313.1355	0.1351
313.3469	0.126
313.5583	0.1301
313.7696	0.1283
313.981	0.1379
314.1924	0.1246
314.4037	0.1291
314.6151	0.1273
314.8264	0.1268
315.0377	0.132
315.249	0.1333
315.4603	0.1243
315.6716	0.1299
315.8828	0.1187
316.0941	0.1279
316.3053	0.1194
316.5165	0.1228
316.7277	0.1159
316.9389	0.1239
317.1501	0.1236
317.3613	0.1252
317.5724	0.1189
317.7836	0.1178
317.9947	0.118
318.2058	0.1218
318.417	0.1242
318.6281	0.1175
318.8391	0.1252
319.0502	0.1158
319.2613	0.1162
319.4723	0.119
319.6834	0.1227
319.8944	0.1205
320.1054	0.1222
320.3164	0.1159
320.5274	0.1214
320.7383	0.1216
320.9493	0.1246
321.1602	0.1217
321.3712	0.1193
321.5821	0.1163
321.793	0.125
322.0039	0.1155
322.2148	0.1225
322.4257	0.115
322.6365	0.1179
322.8474	0.1288
323.0582	0.1204
323.269	0.1212
323.4798	0.1226
323.6906	0.1238
323.9014	0.1186
324.1122	0.1224
324.3229	0.1266
324.5337	0.1226
324.7444	0.1222
324.9551	0.1267
325.1658	0.1235
325.3765	0.1252
325.5872	0.126
325.7979	0.1251
326.0085	0.1162
326.2192	0.1276
326.4298	0.1267
326.6404	0.1264
326.851	0.1224
327.0616	0.1181
327.2722	0.1227
327.4828	0.1244
327.6933	0.1305
327.9039	0.1236
328.1144	0.1274
328.3249	0.1261
328.5354	0.1213
328.7459	0.1255
328.9564	0.1266
329.1669	0.1287
329.3773	0.1259
329.5878	0.1243
329.7982	0.129
330.0086	0.1298
330.219	0.13
330.4294	0.1272
330.6398	0.1302
330.8502	0.131
331.0605	0.1308
331.2708	0.1242
331.4812	0.1272
331.6915	0.1308
331.9018	0.1275
332.1121	0.1362
332.3224	0.1272
332.5326	0.1277
332.7429	0.1305
332.9531	0.1396
333.1633	0.128
333.3735	0.1269
333.5837	0.1291
333.7939	0.1344
334.0041	0.1302
334.2143	0.132
334.4244	0.1363
334.6346	0.1339
334.8447	0.1313
335.0548	0.1394
335.2649	0.1367
335.475	0.1379
335.685	0.1341
335.8951	0.1314
336.1051	0.1402
336.3152	0.1391
336.5252	0.136
336.7352	0.1321
336.9452	0.1329
337.1552	0.1366
337.3652	0.1312
337.5751	0.1336
337.7851	0.137
337.995	0.1344
338.2049	0.132
338.4148	0.1417
338.6247	0.1422
338.8346	0.1394
339.0445	0.1318
339.2543	0.1399
339.4642	0.1385
339.674	0.1329
339.8838	0.1399
340.0936	0.1411
340.3034	0.1356
340.5132	0.1362
340.7229	0.1461
340.9327	0.1482
341.1424	0.1409
341.3522	0.1311
341.5619	0.1414
341.7716	0.1503
341.9813	0.1453
342.1909	0.1502
342.4006	0.1486
342.6102	0.1482
342.8199	0.148
343.0295	0.1432
343.2391	0.148
343.4487	0.1464
343.6583	0.1554
343.8679	0.143
344.0774	0.1496
344.287	0.1498
344.4965	0.1468
344.706	0.1565
344.9155	0.1436
345.125	0.1505
345.3345	0.1596
345.544	0.1551
345.7534	0.1513
345.9629	0.1573
346.1723	0.1536
346.3817	0.1598
346.5911	0.1614
346.8005	0.1554
347.0099	0.1564
347.2193	0.1595
347.4286	0.1649
347.638	0.1625
347.8473	0.1636
348.0566	0.1644
348.2659	0.1641
348.4752	0.1654
348.6845	0.161
348.8937	0.1619
349.103	0.1678
349.3122	0.1663
349.5214	0.1664
349.7306	0.1746
349.9398	0.1708
350.149	0.1652
350.3582	0.1691
350.5674	0.1718
350.7765	0.1731
350.9856	0.1754
351.1948	0.1662
351.4039	0.1695
351.613	0.1698
351.822	0.1741
352.0311	0.1728
352.2402	0.1785
352.4492	0.1733
352.6582	0.1717
352.8672	0.1769
353.0762	0.1789
353.2852	0.1805
353.4942	0.1832
353.7032	0.1797
353.9121	0.1839
354.1211	0.1765
354.33	0.1809
354.5389	0.1752
354.7478	0.178
354.9567	0.1832
355.1655	0.1819
355.3744	0.1883
355.5833	0.1826
355.7921	0.1918
356.0009	0.1898
356.2097	0.1834
356.4185	0.1816
356.6273	0.1863
356.8361	0.1857
357.0448	0.1871
357.2536	0.1877
357.4623	0.1873
357.671	0.1963
357.8797	0.192
358.0884	0.1885
358.2971	0.1935
358.5057	0.1913
358.7144	0.1962
358.923	0.2022
359.1316	0.2005
359.3402	0.1936
359.5488	0.1991
359.7574	0.2049
359.966	0.2034
360.1746	0.2003
360.3831	0.2048
360.5916	0.2033
360.8002	0.2151
361.0087	0.2074
361.2172	0.2097
361.4256	0.2056
361.6341	0.2116
361.8426	0.2095
362.051	0.2114
362.2594	0.2139
362.4678	0.2169
362.6762	0.2221
362.8846	0.2155
363.093	0.2197
363.3014	0.2283
363.5097	0.2203
363.718	0.2219
363.9264	0.2269
364.1347	0.2199
364.343	0.225
364.5513	0.2214
364.7595	0.2293
364.9678	0.2218
365.176	0.2278
365.3842	0.2283
365.5925	0.2278
365.8007	0.2342
366.0089	0.2414
366.217	0.2315
366.4252	0.2272
366.6333	0.2454
366.8415	0.2428
367.0496	0.2363
367.2577	0.2459
367.4658	0.2356
367.6739	0.2337
367.882	0.2503
368.09	0.2451
368.2981	0.2514
368.5061	0.2476
368.7141	0.2385
368.9221	0.2502
369.1301	0.2483
369.3381	0.2569
369.5461	0.2425
369.754	0.2531
369.962	0.2456
370.1699	0.2602
370.3778	0.2617
370.5857	0.2611
370.7936	0.2618
371.0015	0.261
371.2093	0.2571
371.4172	0.265
371.625	0.2533
371.8328	0.2579
372.0406	0.2725
372.2484	0.2542
372.4562	0.2643
372.664	0.2587
372.8717	0.2617
373.0795	0.2765
373.2872	0.2751
373.4949	0.2706
373.7026	0.2675
373.9103	0.2613
374.118	0.2711
374.3256	0.2801
374.5333	0.2732
374.7409	0.2785
374.9485	0.2814
375.1561	0.2749
375.3637	0.2699
375.5713	0.2747
375.7789	0.2735
375.9864	0.2753
376.194	0.2863
376.4015	0.2798
376.609	0.2819
376.8165	0.2867
377.024	0.2817
377.2315	0.2881
377.4389	0.2831
377.6464	0.2843
377.8538	0.28
378.0612	0.299
378.2686	0.2883
378.476	0.2859
378.6834	0.2807
378.8908	0.2976
379.0981	0.2902
379.3055	0.2957
379.5128	0.2893
379.7201	0.2889
379.9274	0.2965
380.1347	0.3017
380.342	0.2938
380.5492	0.2932
380.7565	0.2984
380.9637	0.3037
381.1709	0.2968
381.3781	0.3003
381.5853	0.2974
381.7925	0.3055
381.9997	0.2997
382.2068	0.2938
382.4139	0.2997
382.6211	0.301
382.8282	0.3117
383.0353	0.3087
383.2424	0.2975
383.4494	0.305
383.6565	0.3037
383.8635	0.3019
384.0706	0.3234
384.2776	0.3126
384.4846	0.31
384.6916	0.3071
384.8986	0.3132
385.1055	0.3184
385.3125	0.3114
385.5194	0.3144
385.7263	0.3104
385.9333	0.3128
386.1402	0.3113
386.347	0.3071
386.5539	0.3112
386.7608	0.3038
386.9676	0.3125
387.1744	0.307
387.3813	0.3082
387.5881	0.2988
387.7948	0.3186
388.0016	0.3174
388.2084	0.3126
388.4151	0.3165
388.6219	0.3067
388.8286	0.2968
389.0353	0.3088
389.242	0.306
389.4487	0.3069
389.6553	0.2939
389.862	0.3005
390.0686	0.3137
390.2753	0.2964
390.4819	0.3069
390.6885	0.3072
390.8951	0.3123
391.1016	0.3006
391.3082	0.301
391.5147	0.2857
391.7213	0.3047
391.9278	0.2866
392.1343	0.3024
392.3408	0.2926
392.5473	0.2961
392.7537	0.2866
392.9602	0.282
393.1666	0.2896
393.373	0.2934
393.5794	0.2914
393.7858	0.2875
393.9922	0.285
394.1986	0.2901
394.4049	0.2816
394.6113	0.2879
394.8176	0.2771
395.0239	0.2798
395.2302	0.2769
395.4365	0.2811
395.6428	0.2735
395.8491	0.2736
396.0553	0.2688
396.2615	0.2772
396.4678	0.2745
396.674	0.2648
396.8802	0.271
397.0863	0.2615
397.2925	0.2708
397.4987	0.2644
397.7048	0.2743
397.9109	0.2495
398.117	0.271
398.3231	0.2675
398.5292	0.2542
398.7353	0.2627
398.9413	0.2669
399.1474	0.2686
399.3534	0.2681
399.5594	0.2739
399.7654	0.2685
399.9714	0.2689
400.1774	0.2598
400.3833	0.261
400.5893	0.2611
400.7952	0.2716
401.0011	0.2623
401.207	0.2662
401.4129	0.2559
401.6188	0.2644
401.8247	0.2644
402.0305	0.2561
402.2364	0.2622
402.4422	0.2684
402.648	0.264
402.8538	0.2727
403.0596	0.2561
403.2654	0.2709
403.4711	0.267
403.6768	0.2583
403.8826	0.2651
404.0883	0.2641
404.294	0.2735
404.4997	0.2694
404.7054	0.271
404.911	0.2715
405.1167	0.2691
405.3223	0.252
405.5279	0.2651
405.7335	0.2662
405.9391	0.2588
406.1447	0.2621
406.3502	0.2596
406.5558	0.2635
406.7613	0.2588
406.9668	0.2536
407.1724	0.263
407.3778	0.2708
407.5833	0.2556
407.7888	0.2674
407.9942	0.261
408.1997	0.2682
408.4051	0.2665
408.6105	0.2658
408.8159	0.2546
409.0213	0.2622
409.2267	0.2623
409.432	0.2612
409.6374	0.2643
409.8427	0.2641
410.048	0.2734
410.2533	0.2581
410.4586	0.2583
410.6639	0.2648
410.8691	0.2663
411.0744	0.2612
411.2796	0.2625
411.4848	0.2601
411.69	0.253
411.8952	0.2578
412.1004	0.2656
412.3056	0.2563
412.5107	0.2646
412.7158	0.2663
412.921	0.2573
413.1261	0.254
413.3312	0.2566
413.5362	0.2774
413.7413	0.2532
413.9464	0.2635
414.1514	0.2577
414.3564	0.2604
414.5614	0.2612
414.7664	0.2621
414.9714	0.2452
415.1764	0.2614
415.3813	0.2472
415.5863	0.2553
415.7912	0.2662
415.9961	0.2538
416.201	0.2697
416.4059	0.2611
416.6108	0.2519
416.8156	0.2679
417.0205	0.2518
417.2253	0.2531
417.4301	0.2558
417.6349	0.2557
417.8397	0.2493
418.0445	0.2568
418.2492	0.2503
418.454	0.2464
418.6587	0.2617
418.8634	0.2519
419.0681	0.2591
419.2728	0.2572
419.4775	0.2588
419.6822	0.2443
419.8868	0.2422
420.0915	0.2499
420.2961	0.2492
420.5007	0.2482
420.7053	0.2436
420.9099	0.2419
421.1144	0.2398
421.319	0.242
421.5235	0.2371
421.728	0.239
421.9325	0.2441
422.137	0.2391
422.3415	0.2387
422.546	0.2342
422.7504	0.2392
422.9549	0.244
423.1593	0.2323
423.3637	0.2313
423.5681	0.2351
423.7725	0.2271
423.9769	0.2417
424.1812	0.227
424.3856	0.2264
424.5899	0.2354
424.7942	0.2396
424.9985	0.228
425.2028	0.2365
425.4071	0.2286
425.6113	0.2201
425.8156	0.2301
426.0198	0.2211
426.224	0.224
426.4282	0.2184
426.6324	0.214
426.8366	0.2153
427.0407	0.2138
427.2449	0.2148
427.449	0.2056
427.6531	0.2218
427.8572	0.2144
428.0613	0.2181
428.2654	0.2081
428.4694	0.2011
428.6735	0.2019
428.8775	0.2168
429.0815	0.2019
429.2855	0.2035
429.4895	0.1984
429.6935	0.204
429.8975	0.1932
430.1014	0.2036
430.3053	0.1982
430.5093	0.1897
430.7132	0.1933
430.9171	0.1885
431.1209	0.1964
431.3248	0.1844
431.5286	0.1837
431.7325	0.1925
431.9363	0.1864
432.1401	0.1819
432.3439	0.1884
432.5477	0.1732
432.7514	0.17
432.9552	0.1695
433.1589	0.1644
433.3627	0.1719
433.5664	0.1645
433.7701	0.1638
433.9737	0.1689
434.1774	0.17
434.3811	0.1507
434.5847	0.1585
434.7883	0.1563
434.9919	0.1581
435.1955	0.1515
435.3991	0.1569
435.6027	0.1488
435.8062	0.1631
436.0098	0.146
436.2133	0.1548
436.4168	0.1417
436.6203	0.1376
436.8238	0.1425
437.0272	0.1449
437.2307	0.1432
437.4341	0.1355
437.6375	0.1352
437.841	0.1259
438.0443	0.14
438.2477	0.1215
438.4511	0.1231
438.6545	0.1271
438.8578	0.1269
439.0611	0.1275
439.2644	0.1226
439.4677	0.1136
439.671	0.1162
439.8743	0.1145
440.0775	0.1114
440.2808	0.1143
440.484	0.1128
440.6872	0.1124
440.8904	0.1005
441.0936	0.1034
441.2967	0.1033
441.4999	0.0984
441.703	0.1012
441.9062	0.0991
442.1093	0.1097
442.3124	0.0983
442.5155	0.0963
442.7185	0.0798
442.9216	0.0948
443.1246	0.0848
443.3276	0.0961
443.5307	0.083
443.7337	0.0905
443.9366	0.0789
444.1396	0.0835
444.3426	0.0831
444.5455	0.087
444.7484	0.0807
444.9513	0.0751
445.1542	0.0819
445.3571	0.0759
445.56	0.0672
445.7628	0.0781
445.9657	0.0728
446.1685	0.0742
446.3713	0.0745
446.5741	0.0764
446.7769	0.0711
446.9797	0.0652
447.1824	0.0692
447.3852	0.0521
447.5879	0.0626
447.7906	0.0587
447.9933	0.0569
448.196	0.0578
448.3986	0.0555
448.6013	0.0476
448.8039	0.0554
449.0066	0.0672
449.2092	0.0546
449.4118	0.0526
449.6143	0.0569
449.8169	0.0427
450.0195	0.0474
450.222	0.0482
450.4245	0.0491
450.627	0.0476
450.8295	0.0509
451.032	0.0515
451.2345	0.0389
451.4369	0.0424
451.6394	0.0449
451.8418	0.0397
452.0442	0.0429
452.2466	0.0408
452.449	0.0374
452.6513	0.0339
452.8537	0.033
453.056	0.0364
453.2583	0.0343
453.4607	0.0265
453.663	0.0392
453.8652	0.0305
454.0675	0.0366
454.2697	0.0269
454.472	0.0245
454.6742	0.0305
454.8764	0.038
455.0786	0.0234
455.2808	0.0201
455.4829	0.0279
455.6851	0.0278
455.8872	0.0236
456.0893	0.019
456.2915	0.019
456.4935	0.0387
456.6956	0.0184
456.8977	0.0181
457.0997	0.0311
457.3018	0.0222
457.5038	0.0365
457.7058	0.0312
457.9078	0.0218
458.1098	0.0347
458.3117	0.0278
458.5137	0.0097
458.7156	0.0262
458.9175	0.026
459.1194	0.0217
459.3213	0.0198
459.5232	0.0245
459.725	0.016
459.9269	0.0169
460.1287	0.0133
460.3305	0.0152
460.5323	0.0152
460.7341	0.0198
460.9359	0.0152
461.1376	0.0239
461.3394	0.0196
461.5411	0.0192
461.7428	0.0186
461.9445	0.0182
462.1462	0.0141
462.3479	0.0163
462.5495	0.0197
462.7512	0.0244
462.9528	0.0124
463.1544	0.0122
463.356	0.0066
463.5576	0.023
463.7592	0.0126
463.9607	0.0143
464.1623	0.0142
464.3638	0.0107
464.5653	0.0167
464.7668	0.0245
464.9683	0.0202
465.1697	0.0179
465.3712	0.0053
465.5726	0.0108
465.7741	0.0124
465.9755	0.0112
466.1769	0.0036
466.3782	0.0039
466.5796	0.0057
466.7809	0.0103
466.9823	0.0062
467.1836	0.0127
467.3849	0.0116
467.5862	0.0059
467.7875	0.0074
467.9887	0.0129
468.19	0.0147
468.3912	0.0168
468.5924	0.0159
468.7936	0.0085
468.9948	0.0065
469.196	0.0092
469.3972	0.0033
469.5983	0.0068
469.7994	0.0132
470.0006	0.0091
470.2017	0.0023
470.4027	0.0228
470.6038	0.0117
470.8049	0.0142
471.0059	0.0146
471.2069	0.01
471.408	0.0085
471.6089	0.0123
471.8099	0.0176
472.0109	0.0077
472.2119	0.0141
472.4128	0.0067
472.6137	0.0121
472.8146	0.0101
473.0155	0.0136
473.2164	0.0067
473.4173	-0.0047
473.6181	0.0064
473.819	0.0114
474.0198	-0.0004
474.2206	0.0062
474.4214	0.0078
474.6222	-0.0038
474.8229	0.0064
475.0237	0.0129
475.2244	0.0069
475.4251	-0.0003
475.6258	-0.0014
475.8265	0.009
476.0272	0.0057
476.2278	0.0065
476.4285	0.0068
476.6291	0.0089
476.8297	0.0085
477.0303	0.0037
477.2309	0.005
477.4315	0.0012
477.632	0.0028
477.8326	0.0073
478.0331	0.0133
478.2336	0.0059
478.4341	0.0078
478.6346	0.0033
478.8351	0.0035
479.0355	0.0087
479.236	0.013
479.4364	0.0036
479.6368	0.0052
479.8372	0.0025
480.0376	0.0078
480.2379	0.0066
480.4383	0.0099
480.6386	-0.0024
480.8389	0.0031
481.0392	0.0068
481.2395	0.0067
481.4398	0.0053
481.6401	0.0143
481.8403	0.0021
482.0405	0.0074
482.2408	0.0071
482.441	0.0078
482.6411	0.0084
482.8413	-0.0006
483.0415	0.0113
483.2416	0.0069
483.4417	0.0028
483.6419	-0.0022
483.8419	0.007
484.042	0.0079
484.2421	-0.0009
484.4422	0.002
484.6422	0.0008
484.8422	0.0087
485.0422	0.0025
485.2422	0.0003
485.4422	0.0019
485.6422	0.0016
485.8421	0.0019
486.042	0.0061
486.242	0.0001
486.4419	0.0005
486.6417	0.0006
486.8416	0.0056
487.0415	0.0057
487.2413	-0.0028
487.4411	0.0084
487.641	0.0027
487.8408	0.0073
488.0405	0.0102
488.2403	-0.0023
488.4401	0.0084
488.6398	0.0044
488.8395	0.0068
489.0392	0.0054
489.2389	0.0096
489.4386	-0.0015
489.6383	0.0052
489.8379	0.004
490.0376	0.003
490.2372	0.0004
490.4368	0.0025
490.6364	-0.005
490.836	0.004
491.0355	-0.0031
491.2351	0.0053
491.4346	0.0014
491.6341	-0.001
491.8336	0.0177
492.0331	0.0028
492.2326	0.0081
492.432	0.0074
492.6315	0.0077
492.8309	0.0054
493.0303	0.0049
493.2297	0.008
493.4291	0.002
493.6284	0.0064
493.8278	0.0023
494.0271	0.0022
494.2264	-0.0031
494.4257	0.0041
494.625	-0.0017
494.8243	0.0061
495.0236	0.01
495.2228	0.0086
495.422	0.0062
495.6213	0.0035
495.8205	0.0067
496.0196	0.0073
496.2188	0.0059
496.418	-0.002
496.6171	-0.0058
496.8162	0.0103
497.0153	0.0031
497.2144	0.005
497.4135	0.0016
497.6126	0.0024
497.8116	-0.0012
498.0107	0.008
498.2097	0.0047
498.4087	-0.0015
498.6077	-0.0098
498.8067	0.0035
499.0056	0.0007
499.2046	0.0075
499.4035	0.005
499.6024	-0.0025
499.8013	0.0091
500.0002	0.0021
500.199	0.0132
500.3979	0.0018
500.5967	0.008
500.7956	0.0036
500.9944	-0.0019
501.1932	0.0132
501.3919	0.0128
501.5907	0.0004
501.7895	0.0041
501.9882	0.0029
502.1869	0.0156
502.3856	0.0104
502.5843	0.0095
502.783	-0.0001
502.9816	0.0118
503.1803	0.0069
503.3789	0.0072
503.5775	0.0016
503.7761	-0.0122
503.9747	0.0126
504.1732	-0.0082
504.3718	0.0132
504.5703	0.0034
504.7689	-0.0106
504.9674	-0.0035
505.1658	0.0047
505.3643	0.0054
505.5628	0.0037
505.7612	0.0096
505.9597	0.0023
506.1581	0.0067
506.3565	0.0005
506.5549	-0.0012
506.7532	-0.0028
506.9516	0.0028
507.1499	-0.0052
507.3482	0.0065
507.5465	-0.0024
507.7448	0.0055
507.9431	0.007
508.1414	0.0013
508.3396	0.0058
508.5379	0.0017
508.7361	0.0021
508.9343	0.0058
509.1325	0.0108
509.3306	-0.002
509.5288	-0.0105
509.7269	0.0077
509.9251	0.0103
510.1232	0.0057
510.3213	0.0037
510.5193	0.0064
510.7174	-0.0026
510.9154	0.0015
511.1135	0.0001
511.3115	0.0001
511.5095	-0.0002
511.7075	0.0034
511.9055	0.0083
512.1034	0.0062
512.3014	-0.0002
512.4993	0.0049
512.6972	-0.0023
512.8951	0.0043
513.093	0.005
513.2908	0.0113
513.4887	0.0036
513.6865	0.0107
513.8844	0.0094
514.0822	-0.0034
514.2799	-0.0017
514.4777	0.0013
514.6755	0.0002
514.8732	0.0065
515.0709	0.013
515.2687	-0.0026
515.4664	0.0096
515.664	0.011
515.8617	0.0085
516.0594	0.0097
516.257	0.0142
516.4546	0.0239
516.6522	0.0045
516.8498	0.0019
517.0474	0.007
517.2449	-0.0025
517.4425	0.0101
517.64	-0.0024
517.8375	0.0001
518.035	-0.0039
518.2325	-0.0078
518.43	0.004
518.6274	0.0074
518.8249	-0.0042
519.0223	0.0155
519.2197	0.001
519.4171	0.0008
519.6145	0.0078
519.8118	-0.0106
520.0092	0.0039
520.2065	0.0071
520.4038	-0.0015
520.6011	0.0151
520.7984	0.0232
520.9956	0.0147
521.1929	0.0071
521.3901	0.008
521.5874	0.001
521.7846	0.0011
521.9818	0.0003
522.1789	-0.0083
522.3761	0.0156
522.5732	0.0113
522.7704	0.0019
522.9675	-0.0029
523.1646	0.0013
523.3617	0.01
523.5587	0.0081
523.7558	0.0092
523.9528	0.0135
524.1498	0.0038
524.3468	-0.0016
524.5438	0.0129
524.7408	-0.0025
524.9378	0.0039
525.1347	0.013
525.3316	-0.0001
525.5285	-0.0017
525.7254	0.0098
525.9223	0.0158
526.1192	0.012
526.316	0.0011
526.5129	0.0117
526.7097	0.0011
526.9065	0.0121
527.1033	-0.001
527.3	-0.0015
527.4968	-0
527.6935	-0.0047
527.8903	0.0169
528.087	-0.0065
528.2837	0.0102
528.4804	0.0074
528.677	0.0025
528.8737	0.0042
529.0703	-0.0028
529.2669	0.0135
529.4635	-0.0004
529.6601	-0.0068
529.8567	0.0055
530.0532	-0.0017
530.2498	0.0004
530.4463	-0.0068
530.6428	0.0044
530.8393	0.008
531.0358	0.0066
531.2322	-0.0033
531.4287	0.0061
531.6251	-0.0105
531.8215	0.0034
532.0179	0.0028
532.2143	0.006
532.4107	0.0109
532.607	-0.0014
532.8034	0.0067
532.9997	-0.0082
533.196	0.0024
533.3923	0.0059
533.5886	0.0054
533.7848	0.0007
533.9811	0.0119
534.1773	-0.0009
534.3735	0.0089
534.5697	-0.0003
534.7659	0.005
534.9621	0.0031
535.1582	0.0041
535.3544	0.0068
535.5505	0.0048
535.7466	0.0206
535.9427	-0.0026
536.1387	0.0045
536.3348	0.0004
536.5308	0.0074
536.7269	0.0002
536.9229	0.0073
537.1189	0.0104
537.3148	-0.0004
537.5108	0.0011
537.7068	0.0075
537.9027	-0.0049
538.0986	0.0051
538.2945	-0.0016
538.4904	-0.0014
538.6863	-0.0018
538.8821	0.0037
539.078	0.0024
539.2738	0.0047
539.4696	-0.0013
539.6654	0.007
539.8611	0.007
540.0569	0.0012
540.2526	0.0093
540.4484	-0.0059
540.6441	0.0051
540.8398	0.0159
541.0355	-0.0002
541.2311	0.0043
541.4268	0.0083
541.6224	0.0107
541.818	0.0017
542.0136	0.0158
542.2092	0.0093
542.4048	0.0035
542.6003	0.0041
542.7959	0.0097
542.9914	0.0129
543.1869	0.0021
543.3824	-0.0014
543.5779	0.0083
543.7734	0.005
543.9688	0.0075
544.1642	0.0019
544.3596	0.0026
544.555	-0.0018
544.7504	0.008
544.9458	0.0007
545.1411	0.0096
545.3365	0.0031
545.5318	0.0006
545.7271	0.0041
545.9224	-0.0047
546.1177	0.0041
546.3129	0.0017
546.5081	0.0043
546.7034	0.0009
546.8986	0.0004
547.0938	0.0041
547.289	0.0049
547.4841	0.0094
547.6793	0.0071
547.8744	0.011
548.0695	0.0036
548.2646	0.0018
548.4597	0.0007
548.6548	0.0095
548.8498	0.0134
549.0448	0.0066
549.2399	0.01
549.4349	0.0004
549.6298	0.0051
549.8248	0.0096
550.0198	0.008
550.2147	0.0022
550.4096	0.0018
550.6045	0.0015
550.7994	0.0039
550.9943	0.0107
551.1892	-0.0077
551.384	0.0079
551.5788	0.0026
551.7737	0.0077
551.9685	0.0046
552.1632	0.0066
552.358	0.0011
552.5528	0.0022
552.7475	0.0031
552.9422	0.0075
553.1369	0.0141
553.3316	0.0076
553.5263	0.0133
553.7209	-0.0003
553.9156	0.0042
554.1102	0.0087
554.3048	-0.0022
554.4994	-0.0117
554.694	0.0091
554.8885	0.0007
555.0831	0.0151
555.2776	0.0024
555.4721	0.0073
555.6666	0.0043
555.8611	0.0015
556.0555	0.0106
556.25	0.0123
556.4444	-0.0001
556.6388	0.0027
556.8332	-0.0009
557.0276	0.0058
557.222	-0.0014
557.4163	0.0077
557.6107	0.001
557.805	-0.0029
557.9993	0.0067
558.1936	-0.0067
558.3879	0.0152
558.5821	0.0035
558.7764	-0.0045
558.9706	-0.0038
559.1648	0.0019
559.359	-0.0078
559.5532	0.0026
559.7473	0.0056
559.9415	0.0046
560.1356	0.0081
560.3297	0.0067
560.5238	0.0022
560.7179	0.0028
560.9119	0.0054
561.106	-0.0068
561.3	0.0091
561.494	0.0031
561.688	-0.0011
561.882	0.0027
562.076	0.0083
562.2699	0.0101
562.4639	0.0141
562.6578	0.0102
562.8517	0.0138
563.0456	0.0042
563.2395	0.0084
563.4333	0.0092
563.6272	0.0004
563.821	0.0009
564.0148	0.0069
564.2086	0.0109
564.4024	0.0158
564.5961	0.0137
564.7899	0.0017
564.9836	-0.0022
565.1773	0.007
565.371	0.0049
565.5647	0.0073
565.7584	0.018
565.952	0.0101
566.1456	0.001
566.3393	0.0012
566.5329	0.004
566.7264	0.0034
566.92	0.0007
567.1136	-0.0004
567.3071	-0.0002
567.5006	0.0084
567.6941	0.0009
567.8876	0.0032
568.0811	0.0176
568.2745	0.0016
568.468	0.0023
568.6614	0.009
568.8548	0.0074
569.0482	0.0036
569.2416	0.0069
569.4349	0.005
569.6283	-0.0002
569.8216	0.0056
570.0149	0.0013
570.2082	0.0079
570.4015	0.0034
570.5947	-0.0009
570.788	0.0078
570.9812	0.002
571.1744	0.0015
571.3676	0.0074
571.5608	0.0057
571.754	0.0074
571.9471	0.0078
572.1402	0.0026
572.3333	0.0079
572.5264	0.0062
572.7195	-0.0025
572.9126	0.0018
573.1057	0.0028
573.2987	0.0004
573.4917	0.0038
573.6847	0.0017
573.8777	0.0071
574.0707	0.005
574.2636	0.0001
574.4566	-0.0002
574.6495	0.0023
574.8424	0.004
575.0353	0.0081
575.2281	0.0018
575.421	-0.0007
575.6138	0.0022
575.8067	-0.0007
575.9995	0.0016
576.1923	0.0028
576.385	0.0026
576.5778	0.0064
576.7706	0.0058
576.9633	0.003
577.156	-0.002
577.3487	0.0016
577.5414	0.0022
577.734	-0.0025
577.9267	0.0029
578.1193	0.0069
578.3119	0.0007
578.5045	0.0018
578.6971	-0.0001
578.8897	0.0005
579.0822	0.0063
579.2747	0.0019
579.4673	0.0045
579.6598	0.0032
579.8522	0.0031
580.0447	0.0077
580.2372	0.0056
580.4296	0.0105
580.622	0.0011
580.8144	0.0031
581.0068	0.0028
581.1992	0.0021
581.3915	0.0002
581.5839	0.0038
581.7762	0.0013
581.9685	0.0072
582.1608	0.001
582.353	0.0017
582.5453	0.0032
582.7375	0.0037
582.9298	-0.0035
583.122	0.0009
583.3142	0.0073
583.5063	0.0042
583.6985	-0.0014
583.8906	0.0016
584.0827	0.0077
584.2749	-0.0005
584.4669	0.002
584.659	0.0063
584.8511	0.008
585.0431	0.0031
585.2352	-0.0002
585.4272	0.0057
585.6192	0.0037
585.8111	0.0023
586.0031	0.0035
586.195	0.0005
586.387	0.0012
586.5789	0.0034
586.7708	0.008
586.9627	0.0017
587.1545	-0.0005
587.3464	0.0042
587.5382	0.0008
587.73	0.0086
587.9218	-0.0002
588.1136	-0.0024
588.3053	0.0048
588.4971	0.0051
588.6888	-0.0048
588.8805	0.0024
589.0722	0.0095
589.2639	0.0053
589.4556	0.0027
589.6472	0.004
589.8389	0.0074
590.0305	0.0025
590.2221	0.0085
590.4137	0.0009
590.6052	0.008
590.7968	0.0083
590.9883	0.0038
591.1798	0.0031
591.3713	0.0036
591.5628	0.0001
591.7543	0.0003
591.9458	0.0052
592.1372	0.0036
592.3286	0.004
592.52	0.0004
592.7114	-0.0005
592.9028	0.0112
593.0941	0.0012
593.2855	-0.0002
593.4768	0.005
593.6681	0.0037
593.8594	0.0022
594.0506	-0.0042
594.2419	0.0047
594.4331	0.0024
594.6244	-0.0007
594.8156	0.0038
595.0067	0.0019
595.1979	0.0018
595.3891	0.0025
595.5802	0.006
595.7713	0.0048
595.9624	0.0032
596.1535	0.0046
596.3446	0.0028
596.5357	0.0023
596.7267	0.0026
596.9177	0.0037
597.1087	-0.0021
597.2997	0.0082
597.4907	-0.0017
597.6817	0.0076
597.8726	0.0093
598.0635	-0.0023
598.2544	0.0057
598.4453	0.0051
598.6362	-0.0013
598.827	0.0012
599.0179	0.0023
599.2087	0.0058
599.3995	0.0006
599.5903	0.0078
599.7811	0.0092
599.9718	-0.0025
600.1626	-0.0001
600.3533	-0.0013
600.544	0.0041
600.7347	0.0097
600.9254	0.0108
601.116	0.0004
601.3067	-0.0003
601.4973	0.0064
601.6879	0.0028
601.8785	0.0118
602.0691	0.0011
602.2596	0.0029
602.4502	0.0113
602.6407	0.0048
602.8312	0.0008
603.0217	0.0091
603.2122	0.0033
603.4027	0.0017
603.5931	0.0023
603.7835	0.0079
603.9739	-0.0017
604.1643	0.0056
604.3547	0.0016
604.5451	0.0125
604.7354	-0.0023
604.9257	-0.0017
605.116	-0.001
605.3063	0.0044
605.4966	-0.0048
605.6869	0.0116
605.8771	0.0052
606.0673	0.0026
606.2575	0.0011
606.4477	0.0096
606.6379	-0.0069
606.8281	0.0005
607.0182	-0.0004
607.2083	0.0075
607.3985	0.0011
607.5885	0.0002
607.7786	0.0036
607.9687	0.0092
608.1587	0.0078
608.3488	0.0061
608.5388	-0.0008
608.7288	0.0019
608.9187	0.0007
609.1087	0.0034
609.2986	0.0059
609.4886	-0.0027
609.6785	0.0011
609.8684	0.0045
610.0582	-0.0007
610.2481	0.0015
610.4379	0.0006
610.6278	0.0035
610.8176	0.0093
611.0074	-0.0025
611.1971	0.001
611.3869	0.0004
611.5766	-0.0037
611.7664	0.0159
611.9561	0.0094
612.1458	0.0044
612.3354	0.0007
612.5251	0.0076
612.7147	0.0024
612.9044	0.0008
613.094	0.0017
613.2836	0.0036
613.4731	0.0079
613.6627	0.0039
613.8522	0.0095
614.0417	0.0103
614.2313	0.0065
614.4207	0.0048
614.6102	0.0065
614.7997	0.0045
614.9891	0.0038
615.1785	0.0005
615.3679	0.0061
615.5573	0.0044
615.7467	-0.002
615.9361	-0.0006
616.1254	0.005
616.3147	0.0022
616.504	0.0048
616.6933	-0.0002
616.8826	-0.0004
617.0718	0.0147
617.2611	-0.001
617.4503	-0.0051
617.6395	0.0036
617.8287	0.0014
618.0179	0.0081
618.207	0.0057
618.3961	0.0023
618.5853	0.001
618.7744	0.005
618.9634	0.0088
619.1525	0.0014
619.3416	-0.0066
619.5306	0.0127
619.7196	0.0113
619.9086	0.0057
620.0976	-0.005
620.2866	0.0138
620.4755	-0.0017
620.6645	-0.0031
620.8534	0.0031
621.0423	0.0066
621.2312	0.0067
621.42	0.0052
621.6089	-0.0015
621.7977	0.0066
621.9865	0.0062
622.1753	0.0033
622.3641	-0.0003
622.5529	-0.0063
622.7416	-0.0039
622.9303	0.001
623.1191	0.0066
623.3078	0.0087
623.4964	0.0092
623.6851	0.0069
623.8737	-0.0025
624.0624	-0.0081
624.251	-0.0034
624.4396	0.0029
624.6282	0.011
624.8167	-0.0007
625.0053	0.0103
625.1938	-0.0004
625.3823	0.0141
625.5708	0.0008
625.7593	0.0009
625.9477	0.0071
626.1362	0.0004
626.3246	0.0045
626.513	0.0052
626.7014	0.0056
626.8898	0.0197
627.0781	-0.0034
627.2665	0.0037
627.4548	-0.0075
627.6431	0.0006
627.8314	0.0022
628.0197	0.0112
628.2079	-0.0118
628.3962	0.0039
628.5844	0.0054
628.7726	0.007
628.9608	0.013
629.1489	0.0073
629.3371	-0.0109
629.5252	0.0085
629.7134	-0.0032
629.9015	0.0123
630.0895	-0.0148
630.2776	0.0063
630.4657	0.0159
630.6537	0.0035
630.8417	-0.0103
631.0297	0.0116
631.2177	0.0044
631.4057	0.0077
631.5936	0.0069
631.7815	0.0093
631.9695	0.022
632.1574	0.0103
632.3452	0.0036
632.5331	0.0008
632.7209	0.0106
632.9088	-0.0049
633.0966	0.0222
633.2844	0.0131
633.4722	0.0075
633.6599	0.0171
633.8477	0.0106
634.0354	0.0066
634.2231	-0.0041
634.4108	-0.0019
634.5985	0.0092
634.7861	-0.0069
634.9738	-0.0055
635.1614	0.0069
635.349	-0.0021
635.5366	0.0171
635.7242	0.0047
635.9117	0.0007
636.0993	0.0108
636.2868	-0.0003
636.4743	0.007
636.6618	-0.0123
636.8492	0.0166
637.0367	-0.0027
637.2241	0.0042
637.4115	0.0256
637.5989	0.0046
637.7863	0.0364
637.9737	0.0048
638.161	0.0173
638.3484	-0.0199
638.5357	0.0132
638.723	0.0155
638.9103	-0.0034
639.0975	0.0023
639.2848	0.0134
639.472	0.0141
639.6592	-0.0152
639.8464	-0.0118
640.0336	0.0067
640.2208	-0.0033
640.4079	-0.0053
640.595	-0.001
640.7821	0.0049
640.9692	0.0075
641.1563	-0
641.3434	0.0022
641.5304	0.0131
641.7174	0.0216
641.9044	0.0063
642.0914	0.0295
642.2784	-0.0014
642.4653	0.0071
642.6523	0.0044
642.8392	0.0179
643.0261	0.0013
643.213	0.0114
643.3999	0.011
643.5867	0.0165
643.7735	0.0097
643.9604	0.0195
644.1472	0.0205
644.3339	-0.0082
644.5207	0.0097
644.7075	0.004
644.8942	-0.004
645.0809	0.009
645.2676	-0.0154
645.4543	0.0125
645.6409	0.0159
645.8276	0.0173
646.0142	0.0207
646.2008	0.015
646.3874	-0.0066
646.574	0.0066
646.7605	0.0202
646.9471	-0.0072
647.1336	-0.0189
647.3201	0.02
647.5066	0.0093
647.6931	-0.0123
647.8795	-0.0089
648.0659	0.0005
648.2524	0.0138
648.4388	0.0102
648.6252	0.0146
648.8115	-0.0096
648.9979	0.0151
649.1842	-0.0052
649.3705	0.013
649.5568	-0.0022
649.7431	0.0039
649.9294	0.0057
650.1156	0.0041
650.3018	0.0133
650.488	0.0164
650.6742	0.0223
650.8604	0.0138
651.0466	0.0042
651.2327	0.0042
651.4188	-0.0034
651.6049	0.0372
651.791	0.0091
651.9771	-0.0059
652.1632	0.0153
652.3492	0.0041
652.5352	0.0163
652.7212	0.0083
652.9072	0.0033
653.0932	0.0039
653.2791	-0.003
653.465	-0.0073
653.651	-0.0041
653.8369	0.0111
654.0227	-0.0009
654.2086	0.0075
654.3944	0.0126
654.5803	0.0001
654.7661	0.0065
654.9519	-0.0029
655.1377	0.0002
655.3234	0.0002
655.5092	0.0002
655.6949	0.0002
655.8806	0.0002
656.0663	0.0002
656.2519	0.0002
656.4376	0.0002
656.6232	0.0002
656.8088	0.0002
656.9945	0.0002
657.18	0.0002
657.3656	0.0002
657.5511	0.0002
657.7367	0.0002
657.9222	0.0002
658.1077	0.0002
658.2932	0.0002
658.4786	0.0002
658.6641	0.0002
658.8495	0.0002
659.0349	0.0002
659.2203	0.0002
659.4057	0.0002
659.591	0.0809
659.7764	0.0309
659.9617	0.0108
660.147	0.006
660.3323	-0.0012
660.5176	0.0123
660.7028	-0.0067
660.888	0.0152
661.0733	0.0118
661.2585	-0.0088
661.4436	0.0093
661.6288	0.0178
661.8139	0.0145
661.9991	-0.0036
662.1842	0.0169
662.3693	0.0153
662.5544	0.021
662.7394	0.0163
662.9245	0.0128
663.1095	-0.0051
663.2945	-0.009
663.4795	-0.0087
663.6644	-0.0008
663.8494	0.0309
664.0343	0.0013
664.2193	0.0117
664.4042	0.0083
664.589	-0.0008
664.7739	0.0134
664.9587	-0.0149
665.1436	0.0079
665.3284	-0.0087
665.5132	0.0019
665.698	0.0052
665.8827	0.0254
666.0675	-0.0097
666.2522	0.0097
666.4369	-0.0078
666.6216	0.0082
666.8063	0.0037
666.9909	0.0231
667.1756	-0.0053
667.3602	0.0187
667.5448	0.0049
667.7294	0.0457
667.9139	0.0063
668.0985	0.0096
668.283	-0.0154
668.4675	0.0006
668.652	0.0147
668.8365	0.0077
669.0209	0.0211
669.2054	0.0019
669.3898	0.0207
669.5742	0.0297
669.7586	0.0266
669.943	0.0231
670.1273	0.0009
670.3117	0.0385
670.496	0.0127
670.6803	0.0095
670.8646	-0.0052
671.0488	0.0269
671.2331	-0.0071
671.4173	0.0076
671.6015	0.0113
671.7857	0.0099
671.9699	0.0104
672.1541	-0.0037
672.3382	0.0054
672.5223	0.0036
672.7064	0.0093
672.8905	-0.0109
673.0746	0.0178
673.2587	0.0211
673.4427	0.0081
673.6267	0.0109
673.8107	0.0075
673.9947	0.0336
674.1787	-0.0027
674.3626	0.0095
674.5465	0.0161
674.7304	0.0078
674.9143	0.0173
675.0982	-0.0031
675.2821	-0.0035
675.4659	0.0068
675.6497	0.0136
675.8335	-0.0033
676.0173	-0.0103
676.2011	0.003
676.3849	-0.0022
676.5686	0.0029
676.7523	0.0036
676.936	-0.0006
677.1197	-0.0154
677.3034	0.0256
677.487	0.0159
677.6706	0.0158
677.8542	-0.0027
678.0378	0.0154
678.2214	-0.0073
678.405	0.0126
678.5885	-0.0018
678.772	-0.0017
678.9555	0.0144
679.139	0.02
679.3225	-0.0021
679.5059	-0.0008
679.6894	0.0021
679.8728	0.0124
680.0562	0.0075
680.2395	0.0136
680.4229	-0.0047
680.6062	0.0065
680.7896	0.0034
680.9729	0.026
681.1562	-0.0103
681.3394	-0.0052
681.5227	0.0037
681.7059	0.0121
681.8891	0.0091
682.0723	0.0006
682.2555	0.02
682.4387	0.0154
682.6218	0.0184
682.805	0.0238
682.9881	0.0029
683.1712	0.022
683.3542	0.0178
683.5373	-0.0021
683.7203	0.0253
683.9034	-0.0035
684.0864	0.0058
684.2694	0.0022
684.4523	0.0167
684.6353	0.0119
684.8182	-0.0145
685.0011	0.0129
685.184	0.0094
685.3669	0.0157
685.5498	-0.0038
685.7326	0.0083
685.9154	-0.0048
686.0982	0.0172
686.281	0.0004
686.4638	0.0008
686.6465	-0.0102
686.8293	-0.0069
687.012	0.0076
687.1947	0.0163
687.3774	-0.0009
687.56	0.0002
687.7427	-0.0114
687.9253	-0.0107
688.1079	0.0107
688.2905	-0.0093
688.4731	0.0214
688.6556	0.0169
688.8382	-0.0261
689.0207	0.0197
689.2032	0.0112
689.3857	-0.0061
689.5681	0.0039
689.7506	-0.0003
689.933	-0.0125
690.1154	0.01
690.2978	0.007
690.4802	0.0143
690.6626	0.0036
690.8449	0.0214
691.0272	-0.0025
691.2095	-0.0114
691.3918	0.0219
691.5741	0.0261
691.7563	-0.0012
691.9386	0.0194
692.1208	-0.0044
692.303	0.0081
692.4852	0.0055
692.6673	0.0075
692.8495	-0.0159
693.0316	0.0089
693.2137	0.0123
693.3958	0.0119
693.5778	-0.0006
693.7599	0.0049
693.9419	-0.0286
694.1239	0.0181
694.3059	0.0153
694.4879	-0.0072
694.6699	-0.0194
694.8518	0.0351
695.0337	0.0291
695.2157	0.0423
695.3975	-0.0042
695.5794	-0.011
695.7613	0.01
695.9431	-0.0012
696.1249	0.0101
696.3067	-0.0021
696.4885	0.0129
696.6703	0.0038
696.852	-0.0036
697.0337	0.0072
697.2154	0.0099
697.3971	0.0187
697.5788	0.0145
697.7605	-0.0036
697.9421	0.0134
698.1237	0.0128
698.3053	-0.0102
698.4869	-0.0003
698.6685	-0.0033
698.85	0.0203
699.0315	-0.0062
699.213	0.0089
699.3945	-0.0225
699.576	0.0247
699.7575	0.0073
699.9389	0.009
700.1203	0.0125
700.3017	-0.0147
700.4831	0.0184
700.6645	0.0384
700.8458	-0.0148
701.0271	0.0562
701.2084	0.0071
701.3897	-0.0011
701.571	-0.009
701.7523	0.0255
701.9335	0.0177
702.1147	0.0053
702.2959	-0.0082
702.4771	0.0245
702.6583	0.0112
702.8394	-0.0217
703.0205	0.0086
703.2016	-0.0152
703.3827	0.0176
703.5638	-0.0083
703.7449	0.033
703.9259	0.0132
704.1069	-0.0157
704.2879	0.0196
704.4689	0.0035
704.6499	0.0301
704.8308	0.0155
705.0117	0.0246
705.1927	0.0483
705.3735	0.0498
705.5544	0.0022
705.7353	0.0166
705.9161	-0.0359
706.0969	0.0084
706.2777	0.0026
706.4585	-0.0003
706.6393	0.0285
706.82	0.017
707.0007	0.0059
707.1815	0.005
707.3621	0.0212
707.5428	0.014
707.7235	0.026
707.9041	0.0083
708.0847	0.011
708.2653	0.0261
708.4459	-0.0086
708.6265	-0.0197
708.807	0.0031
708.9875	0.0036
709.168	-0.0014
709.3485	0.016
709.529	0.0053
709.7095	-0.0283
709.8899	-0.0088
710.0703	0.0129
710.2507	-0.0098
710.4311	-0.0105
710.6115	0.0254
710.7918	0.0225
710.9721	-0.0079
711.1524	-0.0174
711.3327	-0.0043
711.513	0.006
711.6932	0.0137
711.8735	0.0378
712.0537	0.0024
712.2339	-0.0028
712.4141	0.0262
712.5942	-0.0004
712.7744	0.0175
712.9545	0.007
713.1346	0.0267
713.3147	0.0034
713.4947	0.0163
713.6748	0.0134
713.8548	0.0107
714.0348	0.0138
714.2148	0.0118
714.3948	0.0017
714.5748	-0.0012
714.7547	0.0226
714.9346	0.0385
715.1145	0.001
715.2944	-0.0277
715.4743	0.015
715.6541	-0.014
715.834	0.0338
716.0138	0.0568
716.1936	0.0173
716.3733	0.005
716.5531	0.0021
716.7328	0.0104
716.9126	-0.0153
717.0923	0.0081
717.2719	0.0344
717.4516	0.0281
717.6312	0.0088
717.8109	0.0193
717.9905	0.0134
718.1701	-0.0105
718.3496	-0.002
718.5292	0.0045
718.7087	0.0094
718.8882	0.021
719.0677	0.0029
719.2472	-0.0022
719.4267	0.022
719.6061	-0.0262
719.7856	0.0265
719.965	0.005
720.1443	-0.0184
720.3237	-0.0132
720.5031	-0.0102
720.6824	0.0103
720.8617	-0.0015
721.041	0.0179
721.2203	0.0198
721.3995	-0.0027
721.5788	-0.0109
721.758	0.002
721.9372	0.004
722.1164	0.0166
722.2956	-0.0022
722.4747	0.0174
722.6538	0.0013
722.8329	0.0224
723.012	0.0285
723.1911	-0.0042
723.3702	0.039
723.5492	-0
723.7282	-0.0026
723.9072	0.0142
724.0862	-0.0054
724.2652	0.006
724.4441	-0.0176
724.623	0.0137
724.8019	0.0083
724.9808	-0.0007
725.1597	-0.0068
725.3385	0.0075
725.5174	0.0051
725.6962	0.018
725.875	0.0245
726.0538	0.0031
726.2325	0.0077
726.4112	-0.0104
726.59	0.0054
726.7687	0.002
726.9474	0.0177
727.126	0.0273
727.3047	0.0031
727.4833	0.0122
727.6619	0.012
727.8405	0.0041
728.0191	0.0216
728.1976	0.0434
728.3762	0.0168
728.5547	-0.0047
728.7332	0.0183
728.9116	0.0155
729.0901	-0.0084
729.2686	0.0232
729.447	-0.0051
729.6254	0.0047
729.8038	0.0092
729.9821	-0.0066
730.1605	0.0047
730.3388	0.0168
730.5171	0.0039
730.6954	-0.0101
730.8737	0.021
731.0519	-0.0113
731.2302	0.0147
731.4084	0.0005
731.5866	-0.0063
731.7648	-0.0156
731.9429	0.0387
732.1211	-0.0148
732.2992	0.0155
732.4773	0.0066
732.6554	-0.009
732.8335	0.0128
733.0115	-0.0076
733.1896	0.0051
733.3676	0.0206
733.5456	0.0062
733.7235	0.0103
733.9015	0.0186
734.0794	-0.0113
734.2574	-0.0092
734.4353	0.01
734.6131	0.0022
734.791	0.0154
734.9689	-0
735.1467	-0.005
735.3245	0.01
735.5023	0.0005
735.68	-0.0033
735.8578	0.0172
736.0355	0.0026
736.2132	0.0008
736.3909	0.0162
736.5686	-0.0054
736.7463	-0.0192
736.9239	0.0253
737.1015	0.0095
737.2791	0.0218
737.4567	0.0221
737.6343	0.0036
737.8118	0.0287
737.9894	0.0312
738.1669	0.0026
738.3444	0.022
738.5218	-0.0055
738.6993	0.0069
738.8767	-0.0047
739.0541	-0.0028
739.2315	-0.012
739.4089	0.025
739.5863	-0.0073
739.7636	0.0038
739.9409	0.0297
740.1182	0.0148
740.2955	0.0347
740.4728	-0.0048
740.65	0.0037
740.8272	0.0242
741.0044	-0.0252
741.1816	0.0084
741.3588	-0.0081
741.5359	-0.0045
741.7131	0.0222
741.8902	0.0041
742.0673	-0.0284
742.2444	0.0233
742.4214	0.0233
742.5985	-0.0013
742.7755	-0.0141
742.9525	-0.0072
743.1295	-0.0144
743.3064	0.0234
743.4834	0.0044
743.6603	0.0436
743.8372	-0.0449
744.0141	0.0336
744.191	0.0094
744.3678	-0.0433
744.5446	0.0095
744.7215	-0.0005
744.8982	0.0144
745.075	0.0393
745.2518	0.0128
745.4285	0.0021
745.6052	-0.0267
745.7819	0.0299
745.9586	0.0274
746.1353	-0.0116
746.3119	0.0061
746.4885	0.0194
746.6651	-0.0123
746.8417	-0.0262
747.0183	0.0362
747.1948	0.0271
747.3714	0.0236
747.5479	0.0112
747.7244	-0.0205
747.9008	0.009
748.0773	0.0112
748.2537	0.0533
748.4301	0.0503
748.6065	-0.0134
748.7829	-0.0349
748.9593	-0.0087
749.1356	0.0132
749.3119	0.0326
749.4882	0.0168
749.6645	0.01
749.8408	0.0106
750.017	-0.0031
750.1933	-0.016
750.3695	-0.0017
750.5457	0.0134
750.7218	0.0083
750.898	0.0202
751.0741	0.0022
751.2502	-0.0074
751.4263	-0
751.6024	-0.0055
751.7784	-0.0084
751.9545	0.0142
752.1305	0.0269
752.3065	0.0394
752.4825	0.0008
752.6584	0.0011
752.8344	0.0226
753.0103	-0.0082
753.1862	0.0244
753.3621	0.0006
753.5379	0.0013
753.7138	0.0044
753.8896	0.0161
754.0654	0.0051
754.2412	0.0319
754.417	0.0284
754.5927	0.0358
754.7685	0.0237
754.9442	0.0126
755.1199	0.0241
755.2956	0.0157
755.4712	0.0136
755.6469	0.0179
755.8225	0.0144
755.9981	0.0207
756.1736	0.0074
756.3492	0.0002
756.5248	0.0089
756.7003	-0.0048
756.8758	0.0205
757.0513	0.0042
757.2267	0.0056
757.4022	-0.0118
757.5776	0.0046
757.753	0.0228
757.9284	0.0036
758.1038	0.0085
758.2791	-0.0077
758.4545	-0.0103
758.6298	0.0045
758.8051	0.0116
758.9803	0.0079
759.1556	-0.0041
759.3308	-0.0007
759.506	0.0091
759.6812	-0.0013
759.8564	0.0082
760.0316	-0.0101
760.2067	0.0366
760.3819	0.0034
760.557	-0.0098
760.732	0.0179
760.9071	0.0308
761.0821	-0.0032
761.2572	0.0115
761.4322	0.0056
761.6072	0.0007
761.7821	-0.0164
761.9571	-0.0047
762.132	0.0167
762.3069	0.0426
762.4818	0.0065
762.6567	0.0167
762.8316	0.0227
763.0064	0.0108
763.1812	0.0157
763.356	-0.0308
763.5308	0.0094
763.7055	-0.0065
763.8803	-0.0078
764.055	-0.0071
764.2297	-0.0096
764.4044	0.0139
764.579	-0.0073
764.7537	0.0064
764.9283	0.0095
765.1029	0.0092
765.2775	0.0293
765.4521	0.0128
765.6266	-0.0038
765.8011	0.024
765.9756	-0.0121
766.1501	0.008
766.3246	0.0218
766.4991	0.0375
766.6735	0.0034
766.8479	-0.0085
767.0223	0.0189
767.1967	0.0056
767.371	0.0387
767.5454	0.022
767.7197	0.0143
767.894	-0.0016
768.0683	0.0225
768.2425	0.006
768.4168	0.0145
768.591	0.0263
768.7652	0.0034
768.9394	-0.0259
769.1135	-0.0191
769.2877	0.0249
769.4618	-0.0021
769.6359	0.0139
769.81	0.0235
769.984	-0.0045
770.1581	-0.0004
770.3321	0.0387
770.5061	0.0134
770.6801	0.0108
770.8541	0.0111
771.028	0.0421
771.202	0.0286
771.3759	0.0137
771.5498	0.0192
771.7236	0.015
771.8975	0.0553
772.0713	0.0148
772.2451	-0
772.4189	0.0123
772.5927	-0.0057
772.7665	0.0188
772.9402	0.0434
773.1139	0.0273
773.2876	0.0094
773.4613	-0.0095
773.635	0.0602
773.8086	0.0303
773.9822	0.0018
774.1558	0.0531
774.3294	0.0473
774.503	0.0041
774.6765	0.0346
774.8501	-0.0095
775.0236	0.0056
775.1971	-0.0001
775.3705	-0.0123
775.544	-0.0304
775.7174	0.0357
775.8908	0.0251
776.0642	0.0201
776.2376	0.0328
776.4109	0.021
776.5843	0.029
776.7576	0.0379
776.9309	0.0204
777.1041	0.0008
777.2774	-0.0123
777.4506	-0.0185
777.6238	-0.0139
777.797	0.0578
777.9702	0.0221
778.1434	0.03
778.3165	-0.0098
778.4896	-0.0007
778.6627	0.0111
778.8358	0.0171
779.0089	-0.0302
779.1819	0.0578
779.3549	-0.0115
779.5279	-0.0046
779.7009	0.0447
779.8739	0.0333
780.0468	0.0136
780.2197	0.0396
780.3926	-0.0174
780.5655	0.0735
780.7384	0.0046
780.9112	0.031
781.0841	0.0145
781.2569	0.039
781.4297	0.0036
781.6024	0.0306
781.7752	0.0394
781.9479	0.0291
782.1206	-0.0094
782.2933	0.0323
782.466	0.0395
782.6386	0.032
782.8113	0.0388
782.9839	-0.0041
783.1565	0.0077
783.329	0.0058
783.5016	0.0252
783.6741	0.008
783.8466	0.0283
784.0191	0.0304
784.1916	0.016
784.3641	-0.0175
784.5365	0.0772
784.7089	-0.026
784.8813	0.0609
785.0537	0.0484
785.2261	0.0173
785.3984	0.0336
785.5707	0.0074
785.743	0.0588
785.9153	-0.0146
786.0876	-0.0165
786.2598	0.0121
786.432	0.0315
786.6042	0.0362
786.7764	-0.0316
786.9486	-0.0021
787.1207	0.0407
787.2928	0.0128
787.4649	-0.0141
787.637	0.0168
787.8091	-0.0064
787.9811	0.0157
788.1532	0.0235
788.3252	-0.0006
788.4972	0.006
788.6691	0.0148
788.8411	0.0042
789.013	0.005
789.1849	0.0028
789.3568	-0.0032
789.5287	0.0609
789.7005	-0.0275
789.8723	-0.0029
790.0442	0.01
790.2159	0.0041
790.3877	0.064
790.5595	0.072
790.7312	-0.0225
790.9029	-0.0201
791.0746	0.039
791.2463	-0.0628
791.4179	-0.0146
791.5896	0.0315
791.7612	0.0994
791.9328	0.0458
792.1044	-0.0012
792.2759	-0.0335
792.4474	-0.0315
792.619	0.0196
792.7905	0.0379
792.9619	0.0389
793.1334	0.1044
793.3048	0.0706
793.4762	0.011
793.6476	-0.0306
793.819	0.0135
793.9904	0.0067
794.1617	0.0249
794.333	0.0005
794.5043	0.0092
794.6756	0.0164
794.8469	0.0174
795.0181	-0.0281
795.1893	0.0356
795.3605	0.027
795.5317	-0.0307
795.7029	0.0554
795.874	-0.0281
796.0452	0.0448
796.2163	0.1076
796.3873	0.1106
796.5584	0.0146
796.7294	0.0727
796.9005	-0.0059
797.0715	-0.0548
797.2425	0.1046
797.4134	0.0377
797.5844	0.0294
797.7553	-0.0353
797.9262	0.0895
798.0971	0.0551
798.2679	0.0172
798.4388	0.009
798.6096	0.074
798.7804	0.0873
798.9512	0.0117
799.122	0.0346
799.2927	0.1179
799.4635	-0.0505
799.6342	-0.1044
799.8049	0.0682
799.9755	0.0215
800.1462	0.004
800.3168	0.0187
800.4874	-0.0531
800.658	0.0538
800.8286	0.0577
800.9991	0.0788
801.1696	0.0028
801.3402	0.0353
801.5106	-0.0126
801.6811	0.0254
801.8516	0.125
802.022	0.078
802.1924	-0.0884
802.3628	0.0607
802.5332	0.0791
802.7035	0.093
802.8739	-0.0098
803.0442	-0.0675
803.2145	0.1625
803.3847	0.0387
803.555	0.0421
803.7252	0.033
803.8954	-0.0655
804.0656	0.117
804.2358	0.0184
804.4059	0.0965
804.5761	-0.015
804.7462	-0.0019
804.9163	-0.0171
805.0864	-0.0222
805.2564	-0.0095
805.4264	0.0655
805.5965	0.0733
805.7665	0.0138
805.9364	0.0157
806.1064	-0.0093
806.2763	0.0509
806.4462	0.0478
806.6161	0.0206
806.786	-0.0158
806.9559	0.0188
807.1257	0.0336
807.2955	0.0218
807.4653	-0.0322
807.6351	0.0123
807.8048	0.0973
807.9746	0.0684
808.1443	-0.0028
808.314	0.056
808.4837	0.0759
808.6533	-0.072
808.8229	-0.0448
808.9926	0.0412
809.1622	0.0508
809.3317	0.0103
809.5013	0.0054
809.6708	-0.0034
809.8403	-0.005
810.0098	-0.0293
810.1793	0.0927
810.3488	-0.0299
810.5182	0.0961
810.6876	0.1536
810.857	0.0665
811.0264	-0.0294
811.1958	0.1432
811.3651	0.0685
811.5344	0.0804
811.7037	0.1682
811.873	0.0705
812.0422	0.0904
812.2115	-0.0444
812.3807	-0.1311
812.5499	0.0609
812.7191	0.062
812.8882	-0.0588
813.0574	0.0024
813.2265	0.0935
813.3956	0.0082
813.5646	-0.0308
813.7337	-0.0125
813.9027	-0.0666
814.0718	0.0537
814.2407	0.0402
814.4097	0.1092
814.5787	0.1213
814.7476	0.0132
814.9165	0.0616
815.0854	-0.0399
815.2543	0.0313
815.4232	0.0914
815.592	0.0919
815.7608	-0.1632
815.9296	0.125
816.0984	0.0104
816.2671	-0.0863
816.4359	0.125
816.6046	0.1101
816.7733	0.0663
816.942	-0.041
817.1106	0.1891
817.2793	-0.0886
817.4479	-0.0716
817.6165	0.0863
817.785	0.0924
817.9536	-0.0052
818.1221	0.0341
818.2906	-0.074
818.4591	0.0226
818.6276	0.0122
818.7961	-0.0309
818.9645	0.0807
819.1329	0.148
819.3013	0.0685
819.4697	-0.0469
819.638	0.1949
819.8064	-0.0163
819.9747	0.0824
820.143	-0.0697
820.3113	0.1137
820.4795	-0.0317
820.6477	0.1092
820.816	0.0474
820.9842	0.1512
821.1523	-0.0094
821.3205	0.1046
821.4886	0.0166
821.6567	0.0145
821.8248	0.1411
821.9929	-0.1875
822.1609	0.1097
822.329	0.0918
822.497	0.0383
822.665	0.0696
822.833	0.1509
823.0009	0.0639
823.1688	0.1558
823.3367	0.0586
823.5046	0.0052
823.6725	-0.102
823.8404	-0.0237
824.0082	-0.0209
824.176	-0.0824
824.3438	0.2201
824.5116	0.016
824.6793	0.125
824.847	-0.0176
825.0147	-0.0059
825.1824	0.0737
825.3501	-0.0611
825.5177	0.0926
825.6854	-0.1754
825.853	0.0211
826.0206	-0.073
826.1881	0.3995
826.3557	0.32
826.5232	0.1636
826.6907	0.1028
826.8582	-0.0993
827.0257	0.3928
827.1931	0.1574
827.3605	0.0439
827.528	0.0208
827.6953	-0.0956
827.8627	-0.1313
828.03	0.1615
828.1974	-0.0069
828.3647	0.1065
828.532	0.1083
828.6992	0.0702
828.8665	-0.0212
829.0337	0.0776
829.2009	-0.1045
829.3681	0.0327
829.5352	-0.2303
829.7024	0.3681
829.8695	0.023
830.0366	0.2021
830.2037	0.0956
830.3707	0.0385
830.5378	0.0164
830.7048	-0.1031
830.8718	0.0958
831.0388	0.0812
831.2057	-0.0008
831.3727	-0.372
831.5396	0.1913
831.7065	-0.7891
831.8734	0.1293
832.0402	0.1388
832.2071	-0.3935
832.3739	-0.0448
832.5407	-1.9638
832.7075	-0.2072
832.8742	-0
833.041	0.0981
833.2077	0.0238
833.3744	-0.0163
833.541	0.4313
833.7077	-0.08
833.8743	0.2252
834.0409	0.1781
834.2075	0.2646
834.3741	-0.0894
834.5407	0.608
834.7072	0.0329
834.8737	0.3289
835.0402	0.0553
835.2067	0.1668
835.3731	0.1379
835.5395	-0.004
835.706	-0.0668
835.8723	0.0176
836.0387	0.5272
836.2051	0.9757
836.3714	0.394
836.5377	-0.106
836.704	0.1765
836.8703	-0.101
837.0365	0.2109
837.2027	0.1728
837.3689	0.3232
837.5351	0.3545
837.7013	-0.1577
837.8674	-0
838.0335	-0.0448
838.1997	-0.075
838.3657	-0
838.5318	-0.0952
838.6978	-0
838.8639	-0.3809
839.0299	0.05
839.1958	0.1205
839.3618	0.9487
839.5277	-0.0484
839.6937	-0.0112
839.8596	0.1824
840.0254	-0.0914
840.1913	-0
840.3571	-0.0297
840.523	-1.301
840.6888	0.073
840.8545	-0.4957
841.0203	0.1009
841.186	0.432
841.3517	-0.0365
841.5174	0.3296
841.6831	0.2036
841.8488	-0.0559
842.0144	0.4542
842.18	0.8309
842.3456	-0.5963
842.5112	-1.1977
842.6767	0.2552
842.8422	-0
843.0077	0.6677
843.1732	-0.2508
843.3387	0.0124
843.5042	-0.4014
843.6696	0.1624
843.835	-0.265
844.0004	-0.058
844.1657	-0
844.3311	-0.0292
844.4964	0.049
844.6617	-0.0006
844.827	-0
844.9923	0.3121
845.1575	0.4452
845.3227	-0.18
845.4879	-0.0015
845.6531	1.4556
845.8183	-0.2503
845.9834	-0
846.1485	0.4962
846.3136	-0.1783
846.4787	-0
846.6438	1.6891
846.8088	-0
846.9738	-0
847.1388	0.3385
847.3038	1.0361
847.4687	-0
847.6337	-0.6714
847.7986	0.2905
847.9635	0.2342
848.1284	0.6538
848.2932	0.3708
848.458	-0
848.6228	-0
848.7876	0.3864
848.9524	-0
849.1172	-0.7984
849.2819	-0
849.4466	2.0309
849.6113	0.2284
849.7759	-0
849.9406	0.075
850.1052	-0
850.2698	1.116
850.4344	-0.4139
850.599	0.1073
850.7635	0.5377
850.928	-0.009
851.0925	0.4564
851.257	0.6284
851.4215	-0
851.5859	-0.0339
851.7503	-0
851.9147	-0.5051
852.0791	0.1281
852.2434	0.2474
852.4078	0.0024
852.5721	-0
852.7364	0.2448
852.9007	0.0652
853.0649	-0
853.2291	0.3128
853.3934	0.1922
853.5575	0.1176
853.7217	0.6426
853.8859	-0
854.05	-0.0486
854.2141	0.2109
854.3782	0.0158
854.5423	-0.2272
854.7063	-0.0278
854.8703	0.0306
855.0343	-0.2133
855.1983	0.8224
855.3623	-0.0331
855.5262	-0
855.6901	-0
855.854	0.0767
856.0179	-0
856.1818	-0
856.3456	-0
856.5094	0.5077
856.6732	-0
856.837	-1.3917
857.0008	-0.6063
857.1645	0.1256
857.3282	-0.3633
857.4919	0.2177
857.6556	-0.0486
857.8192	-0.0621
857.9828	-0
858.1465	0.5883
858.31	0.1318
858.4736	-0.4642
858.6372	0.2838
858.8007	0.2917
858.9642	0.11
859.1277	0.1731
859.2911	-0.2647
859.4546	-0
859.618	0.1891
859.7814	-0.3175
859.9448	-0
860.1081	-0.1587
860.2715	-1.301
860.4348	0.279
860.5981	1.9512
860.7614	-0.2514
860.9246	0.4981
861.0879	-0.0538
861.2511	-0
861.4143	-0.6099
861.5774	-0
861.7406	0.5808
861.9037	-0
862.0668	-0
862.2299	-0.2895
862.393	-0
862.556	-0
862.7191	-0.1815
862.8821	0.4752
863.0451	1.7511
863.208	-0.1221
863.371	-0.202
863.5339	0.4144
863.6968	-0
863.8597	-0
864.0225	-0
864.1854	-0.3959
864.3482	-0.7828
864.511	0.0227
864.6737	-0.4081
864.8365	-0.1949
864.9992	-0
865.1619	0.3081
865.3246	-2.0366
865.4873	-0
865.65	-0
865.8126	-0
865.9752	-0
866.1378	0.8362
866.3004	-0.174
866.4629	-0
866.6254	-0
866.7879	0.1779
866.9504	-0.1679
867.1129	-0.4121
867.2753	-0.0715
867.4377	0.209
867.6001	0.0043
867.7625	-0.2756
867.9249	-0
868.0872	-0
868.2495	-0
868.4118	0.1632
868.5741	-0.3135
868.7363	-0.5208
868.8986	-0.8099
869.0608	1.2007
869.223	0.0661
869.3851	-0
869.5473	1.278
869.7094	1.9151
869.8715	-0
870.0336	0.1251
870.1957	-0.1934
870.3577	0.3356
870.5197	0.3392
870.6817	-0.7908
870.8437	-0.269
871.0057	-0.1268
871.1676	0.3173
871.3295	-0
871.4914	-1.7839
871.6533	-0.6601
871.8151	-0
871.977	-0
872.1388	-0
872.3006	0.5355
872.4623	-0
872.6241	0.5306
872.7858	0.5002
872.9475	0.5478
873.1092	-0.0858
873.2709	0.5801
873.4325	-1.1719
873.5941	-0
873.7557	-0
873.9173	-0.1691
874.0789	1.3418
874.2404	-0
874.4019	0.0655
874.5634	-0
874.7249	0.1157
874.8863	-0.4433
875.0478	-0.2771
875.2092	-0
875.3706	0.119
875.5319	0.6808
875.6933	0.0281
875.8546	-0
876.0159	0.266
876.1772	-0
876.3385	-0
876.4997	-0
876.6609	0.6193
876.8221	-0
876.9833	0.4298
877.1445	0.6343
877.3056	-1.0298
877.4667	1.0107
877.6278	-0
877.7889	-0.0328
877.9499	0.2193
878.111	-0.058
878.272	-0
878.433	-0
878.5939	-0
878.7549	-0
878.9158	-0.0729
879.0767	-0
879.2376	-0
879.3984	-0
879.5593	-0
879.7201	-1.6435
879.8809	-0.2944
880.0417	-0.0009
880.2024	1.0084
880.3632	-0.0031
880.5239	0.6149
880.6846	-0
880.8452	-0.1325
881.0059	-0
881.1665	-0.0254
881.3271	0.535
881.4877	-0
881.6483	-1.112
881.8088	-0
881.9693	-0.9031
882.1298	-0.9031
882.2903	-0.9031
