Data from D4ACN5uM460nmA_Absorbance_13-05-42-755.txt Node
Date: Fri Feb 21 13:05:42 GMT 2025
User: LASERRRRR
Spectrometer: FLMT03099
Trigger mode: 0
Integration Time (sec): 1.500000E-2
Scans to average: 1
Electric dark correction enabled: true
Nonlinearity correction enabled: false
Boxcar width: 0
XAxis mode: Wavelengths
Number of Pixels in Spectrum: 3648
>>>>>Begin Spectral Data<<<<<
179.3399	-0
179.5586	-0
179.7771	-0
179.9957	-0.0668
180.2143	-0
180.4329	0.2817
180.6514	-0
180.8699	-0
181.0885	0.6284
181.307	0.2607
181.5255	0.1397
181.744	-0
181.9625	-0
182.181	-0
182.3994	-0.1704
182.6179	-0
182.8363	-0
183.0547	-0
183.2732	0.1648
183.4916	0.4307
183.71	0.6135
183.9284	0.0465
184.1467	0.8115
184.3651	0.0352
184.5835	0.2622
184.8018	0.4537
185.0201	0.0584
185.2385	0.5041
185.4568	0.0897
185.6751	0.1763
185.8934	0.1238
186.1117	-0.1069
186.3299	0.1433
186.5482	0.4031
186.7664	0.4169
186.9847	0.1673
187.2029	0.5244
187.4211	0.1398
187.6393	0.1074
187.8575	0.4793
188.0757	0.3019
188.2939	0.0617
188.512	0.1648
188.7302	0.3123
188.9483	0.1508
189.1665	0.4938
189.3846	0.2202
189.6027	0.0956
189.8208	0.261
190.0389	0.1876
190.257	0.2955
190.475	0.1842
190.6931	0.3019
190.9111	0.1785
191.1292	0.0669
191.3472	0.1242
191.5652	0.3516
191.7832	0.1714
192.0012	0.1471
192.2192	0.1003
192.4371	0.0912
192.6551	0.2135
192.873	0.2036
193.091	0.2161
193.3089	0.2098
193.5268	0.1851
193.7447	0.125
193.9626	0.2119
194.1805	0.1756
194.3984	0.1919
194.6162	0.1866
194.8341	0.1863
195.0519	0.2678
195.2697	0.15
195.4875	0.2802
195.7054	0.2522
195.9231	0.2159
196.1409	0.3287
196.3587	0.2825
196.5765	0.4021
196.7942	0.2559
197.012	0.3379
197.2297	0.348
197.4474	0.3626
197.6651	0.3251
197.8828	0.3516
198.1005	0.4285
198.3182	0.3524
198.5358	0.3647
198.7535	0.4639
198.9711	0.4048
199.1888	0.3969
199.4064	0.476
199.624	0.3696
199.8416	0.3414
200.0592	0.4264
200.2767	0.3722
200.4943	0.4483
200.7119	0.3614
200.9294	0.3819
201.1469	0.4222
201.3645	0.444
201.582	0.3875
201.7995	0.3924
202.017	0.4036
202.2344	0.4228
202.4519	0.3709
202.6694	0.392
202.8868	0.4318
203.1042	0.4337
203.3217	0.3886
203.5391	0.3927
203.7565	0.393
203.9739	0.3919
204.1913	0.3623
204.4086	0.3578
204.626	0.3533
204.8433	0.339
205.0607	0.3836
205.278	0.3421
205.4953	0.3605
205.7126	0.3461
205.9299	0.3186
206.1472	0.3404
206.3644	0.3426
206.5817	0.3116
206.7989	0.3347
207.0162	0.3165
207.2334	0.3332
207.4506	0.3173
207.6678	0.3118
207.885	0.3135
208.1022	0.3049
208.3194	0.3125
208.5365	0.307
208.7537	0.3266
208.9708	0.2963
209.1879	0.3047
209.405	0.286
209.6222	0.2824
209.8392	0.2889
210.0563	0.3005
210.2734	0.2644
210.4905	0.2715
210.7075	0.2974
210.9245	0.2749
211.1416	0.2674
211.3586	0.269
211.5756	0.2678
211.7926	0.2687
212.0096	0.2709
212.2265	0.2555
212.4435	0.2676
212.6604	0.2399
212.8774	0.2396
213.0943	0.2669
213.3112	0.2439
213.5281	0.25
213.745	0.2234
213.9619	0.2669
214.1788	0.2804
214.3956	0.2463
214.6125	0.2611
214.8293	0.2457
215.0461	0.2564
215.2629	0.276
215.4798	0.2621
215.6965	0.2623
215.9133	0.249
216.1301	0.2437
216.3469	0.2711
216.5636	0.2608
216.7803	0.2493
216.9971	0.2659
217.2138	0.2734
217.4305	0.2465
217.6472	0.2469
217.8639	0.2612
218.0805	0.2664
218.2972	0.2462
218.5138	0.249
218.7305	0.2584
218.9471	0.24
219.1637	0.263
219.3803	0.2653
219.5969	0.2548
219.8135	0.2783
220.0301	0.2661
220.2466	0.2725
220.4632	0.2566
220.6797	0.2665
220.8962	0.2616
221.1127	0.2692
221.3292	0.2721
221.5457	0.2802
221.7622	0.2778
221.9787	0.2903
222.1951	0.278
222.4116	0.2819
222.628	0.2874
222.8444	0.2927
223.0608	0.2934
223.2772	0.2872
223.4936	0.299
223.71	0.2897
223.9264	0.2814
224.1427	0.2962
224.3591	0.2849
224.5754	0.297
224.7917	0.2904
225.008	0.2887
225.2243	0.3124
225.4406	0.2941
225.6569	0.3079
225.8732	0.3242
226.0894	0.3164
226.3057	0.323
226.5219	0.3215
226.7381	0.3216
226.9543	0.3224
227.1705	0.3259
227.3867	0.3326
227.6029	0.3308
227.8191	0.3351
228.0352	0.3415
228.2513	0.3497
228.4675	0.3473
228.6836	0.3425
228.8997	0.3377
229.1158	0.3498
229.3319	0.3627
229.548	0.3407
229.764	0.3655
229.9801	0.3758
230.1961	0.3757
230.4121	0.3684
230.6282	0.3803
230.8442	0.3936
231.0602	0.3819
231.2761	0.3797
231.4921	0.3895
231.7081	0.3873
231.924	0.398
232.14	0.4055
232.3559	0.4095
232.5718	0.4054
232.7877	0.4143
233.0036	0.4103
233.2195	0.4101
233.4353	0.4159
233.6512	0.4165
233.867	0.4155
234.0829	0.4232
234.2987	0.4231
234.5145	0.4262
234.7303	0.4369
234.9461	0.4343
235.1619	0.4407
235.3776	0.4384
235.5934	0.4354
235.8091	0.4437
236.0249	0.4462
236.2406	0.4492
236.4563	0.4517
236.672	0.4475
236.8877	0.4461
237.1034	0.4493
237.319	0.4513
237.5347	0.453
237.7503	0.4566
237.966	0.4624
238.1816	0.4581
238.3972	0.4582
238.6128	0.4703
238.8284	0.4642
239.0439	0.4607
239.2595	0.4619
239.475	0.4582
239.6906	0.4592
239.9061	0.458
240.1216	0.4634
240.3371	0.4606
240.5526	0.4659
240.7681	0.458
240.9836	0.4603
241.199	0.4603
241.4145	0.4489
241.6299	0.4475
241.8453	0.4406
242.0607	0.4309
242.2761	0.4367
242.4915	0.4268
242.7069	0.4116
242.9223	0.4145
243.1376	0.4034
243.353	0.3989
243.5683	0.3964
243.7836	0.382
243.9989	0.3709
244.2142	0.3752
244.4295	0.3636
244.6448	0.3573
244.86	0.3556
245.0753	0.3385
245.2905	0.3334
245.5057	0.3299
245.721	0.3309
245.9362	0.3226
246.1514	0.3168
246.3665	0.3039
246.5817	0.2993
246.7969	0.299
247.012	0.2939
247.2271	0.2932
247.4423	0.2786
247.6574	0.2784
247.8725	0.269
248.0876	0.2657
248.3026	0.2674
248.5177	0.2565
248.7328	0.2487
248.9478	0.2483
249.1628	0.2462
249.3779	0.2372
249.5929	0.2412
249.8079	0.2349
250.0228	0.2297
250.2378	0.2297
250.4528	0.2267
250.6677	0.2262
250.8827	0.2178
251.0976	0.2126
251.3125	0.2135
251.5274	0.2122
251.7423	0.2075
251.9572	0.2024
252.172	0.2045
252.3869	0.2074
252.6017	0.2048
252.8166	0.2024
253.0314	0.2034
253.2462	0.1928
253.461	0.1953
253.6758	0.191
253.8906	0.1874
254.1053	0.1974
254.3201	0.1955
254.5348	0.1815
254.7496	0.1884
254.9643	0.1889
255.179	0.1849
255.3937	0.1895
255.6083	0.1867
255.823	0.1819
256.0377	0.178
256.2523	0.1818
256.467	0.1863
256.6816	0.1827
256.8962	0.1814
257.1108	0.1854
257.3254	0.1783
257.54	0.1778
257.7545	0.1847
257.9691	0.1773
258.1836	0.1735
258.3981	0.1743
258.6127	0.168
258.8272	0.1756
259.0417	0.1745
259.2561	0.1722
259.4706	0.1779
259.6851	0.1811
259.8995	0.1786
260.114	0.1789
260.3284	0.1705
260.5428	0.1717
260.7572	0.1706
260.9716	0.1789
261.186	0.1752
261.4003	0.1639
261.6147	0.1764
261.829	0.178
262.0433	0.1744
262.2577	0.1719
262.472	0.1728
262.6863	0.1802
262.9005	0.1735
263.1148	0.1733
263.3291	0.1729
263.5433	0.1779
263.7576	0.1762
263.9718	0.1779
264.186	0.1813
264.4002	0.1775
264.6144	0.1807
264.8286	0.1776
265.0427	0.182
265.2569	0.1809
265.471	0.1755
265.6851	0.1816
265.8993	0.1735
266.1134	0.1761
266.3275	0.1791
266.5415	0.1758
266.7556	0.1779
266.9697	0.1801
267.1837	0.1798
267.3978	0.181
267.6118	0.1723
267.8258	0.1722
268.0398	0.1786
268.2538	0.182
268.4677	0.1759
268.6817	0.1765
268.8957	0.1663
269.1096	0.1658
269.3235	0.1739
269.5374	0.1743
269.7514	0.1692
269.9652	0.1713
270.1791	0.1681
270.393	0.1698
270.6068	0.1709
270.8207	0.1736
271.0345	0.1674
271.2483	0.1639
271.4622	0.1681
271.676	0.1686
271.8897	0.1685
272.1035	0.1709
272.3173	0.1662
272.531	0.1653
272.7448	0.1679
272.9585	0.1634
273.1722	0.1669
273.3859	0.1685
273.5996	0.1709
273.8133	0.1741
274.0269	0.1649
274.2406	0.1662
274.4542	0.1664
274.6679	0.1735
274.8815	0.175
275.0951	0.172
275.3087	0.1727
275.5223	0.1727
275.7358	0.1746
275.9494	0.1734
276.1629	0.1678
276.3765	0.1727
276.59	0.1701
276.8035	0.1714
277.017	0.1787
277.2305	0.1747
277.444	0.18
277.6574	0.1764
277.8709	0.1803
278.0843	0.1773
278.2978	0.181
278.5112	0.1768
278.7246	0.1749
278.938	0.1778
279.1513	0.1803
279.3647	0.1791
279.5781	0.1751
279.7914	0.1718
280.0047	0.1786
280.2181	0.1739
280.4314	0.1777
280.6447	0.181
280.8579	0.1731
281.0712	0.1755
281.2845	0.1789
281.4977	0.1802
281.711	0.1708
281.9242	0.1761
282.1374	0.1801
282.3506	0.1741
282.5638	0.1791
282.7769	0.1741
282.9901	0.1812
283.2033	0.1819
283.4164	0.1751
283.6295	0.1838
283.8426	0.1807
284.0557	0.179
284.2688	0.186
284.4819	0.1766
284.695	0.1819
284.908	0.1843
285.1211	0.1861
285.3341	0.1836
285.5471	0.186
285.7601	0.1842
285.9731	0.1829
286.1861	0.1838
286.3991	0.1942
286.612	0.1813
286.825	0.1856
287.0379	0.1857
287.2508	0.185
287.4637	0.187
287.6766	0.1884
287.8895	0.1817
288.1024	0.1911
288.3152	0.1892
288.5281	0.1883
288.7409	0.1962
288.9538	0.1898
289.1666	0.187
289.3794	0.1854
289.5922	0.1857
289.8049	0.1853
290.0177	0.1872
290.2304	0.1911
290.4432	0.1919
290.6559	0.1926
290.8686	0.19
291.0813	0.1971
291.294	0.1898
291.5067	0.1928
291.7194	0.193
291.932	0.1826
292.1447	0.1961
292.3573	0.1955
292.5699	0.1884
292.7825	0.1904
292.9951	0.1918
293.2077	0.1924
293.4203	0.191
293.6328	0.1922
293.8454	0.1917
294.0579	0.1918
294.2704	0.1955
294.4829	0.1849
294.6954	0.1903
294.9079	0.188
295.1204	0.1923
295.3328	0.1944
295.5453	0.1919
295.7577	0.1922
295.9701	0.1925
296.1825	0.1936
296.3949	0.1926
296.6073	0.1884
296.8197	0.1917
297.0321	0.195
297.2444	0.1836
297.4567	0.1961
297.6691	0.1912
297.8814	0.191
298.0937	0.1931
298.306	0.1945
298.5182	0.1965
298.7305	0.1886
298.9428	0.1889
299.155	0.1837
299.3672	0.1842
299.5794	0.1918
299.7916	0.1937
300.0038	0.1919
300.216	0.1909
300.4282	0.1955
300.6403	0.1937
300.8525	0.193
301.0646	0.195
301.2767	0.1876
301.4888	0.1865
301.7009	0.1933
301.913	0.1977
302.125	0.1902
302.3371	0.1969
302.5491	0.1914
302.7612	0.1912
302.9732	0.1874
303.1852	0.1901
303.3972	0.1917
303.6092	0.1911
303.8211	0.1893
304.0331	0.1907
304.245	0.1891
304.457	0.1874
304.6689	0.1865
304.8808	0.1836
305.0927	0.1909
305.3046	0.1835
305.5164	0.1812
305.7283	0.1839
305.9401	0.1738
306.152	0.1801
306.3638	0.1812
306.5756	0.179
306.7874	0.1729
306.9992	0.1718
307.2109	0.1741
307.4227	0.1751
307.6344	0.1785
307.8462	0.1661
308.0579	0.1677
308.2696	0.1694
308.4813	0.1686
308.693	0.1631
308.9046	0.1629
309.1163	0.1601
309.328	0.1579
309.5396	0.1539
309.7512	0.1543
309.9628	0.149
310.1744	0.1493
310.386	0.1429
310.5976	0.1446
310.8091	0.1492
311.0207	0.1483
311.2322	0.1416
311.4437	0.1442
311.6552	0.1428
311.8667	0.1426
312.0782	0.1406
312.2897	0.1382
312.5012	0.1393
312.7126	0.1318
312.924	0.1376
313.1355	0.1343
313.3469	0.1335
313.5583	0.1336
313.7696	0.1283
313.981	0.1383
314.1924	0.1309
314.4037	0.1265
314.6151	0.126
314.8264	0.131
315.0377	0.1208
315.249	0.1279
315.4603	0.1278
315.6716	0.1253
315.8828	0.1194
316.0941	0.126
316.3053	0.1192
316.5165	0.1298
316.7277	0.118
316.9389	0.1227
317.1501	0.1211
317.3613	0.126
317.5724	0.1184
317.7836	0.1151
317.9947	0.1235
318.2058	0.1201
318.417	0.119
318.6281	0.1148
318.8391	0.1231
319.0502	0.1235
319.2613	0.1191
319.4723	0.1197
319.6834	0.1253
319.8944	0.1212
320.1054	0.1197
320.3164	0.1127
320.5274	0.1219
320.7383	0.1212
320.9493	0.1146
321.1602	0.1213
321.3712	0.1124
321.5821	0.11
321.793	0.1215
322.0039	0.123
322.2148	0.1198
322.4257	0.1197
322.6365	0.1185
322.8474	0.1254
323.0582	0.1244
323.269	0.1271
323.4798	0.1248
323.6906	0.1191
323.9014	0.1201
324.1122	0.1183
324.3229	0.1248
324.5337	0.1301
324.7444	0.1245
324.9551	0.1241
325.1658	0.1287
325.3765	0.125
325.5872	0.1209
325.7979	0.1247
326.0085	0.1233
326.2192	0.1177
326.4298	0.1236
326.6404	0.1298
326.851	0.1223
327.0616	0.1212
327.2722	0.1265
327.4828	0.1279
327.6933	0.1284
327.9039	0.126
328.1144	0.1244
328.3249	0.1323
328.5354	0.1258
328.7459	0.1283
328.9564	0.1244
329.1669	0.1316
329.3773	0.1311
329.5878	0.1243
329.7982	0.1297
330.0086	0.1307
330.219	0.1275
330.4294	0.1356
330.6398	0.128
330.8502	0.1307
331.0605	0.1281
331.2708	0.1298
331.4812	0.1288
331.6915	0.1293
331.9018	0.1292
332.1121	0.1328
332.3224	0.1328
332.5326	0.1333
332.7429	0.1266
332.9531	0.1337
333.1633	0.1264
333.3735	0.1296
333.5837	0.1308
333.7939	0.1298
334.0041	0.1396
334.2143	0.1345
334.4244	0.1382
334.6346	0.1356
334.8447	0.1321
335.0548	0.1355
335.2649	0.1373
335.475	0.1421
335.685	0.1378
335.8951	0.1314
336.1051	0.1428
336.3152	0.1348
336.5252	0.1314
336.7352	0.1378
336.9452	0.1385
337.1552	0.1331
337.3652	0.1306
337.5751	0.1338
337.7851	0.1412
337.995	0.1356
338.2049	0.1363
338.4148	0.1374
338.6247	0.1366
338.8346	0.1325
339.0445	0.1407
339.2543	0.1373
339.4642	0.1376
339.674	0.1328
339.8838	0.1452
340.0936	0.1416
340.3034	0.1382
340.5132	0.1347
340.7229	0.1407
340.9327	0.1416
341.1424	0.1428
341.3522	0.1413
341.5619	0.1447
341.7716	0.1428
341.9813	0.143
342.1909	0.1505
342.4006	0.1453
342.6102	0.1438
342.8199	0.1421
343.0295	0.1469
343.2391	0.1476
343.4487	0.1462
343.6583	0.1529
343.8679	0.1437
344.0774	0.1448
344.287	0.1502
344.4965	0.15
344.706	0.1516
344.9155	0.1476
345.125	0.1472
345.3345	0.1534
345.544	0.1541
345.7534	0.1517
345.9629	0.1621
346.1723	0.1627
346.3817	0.157
346.5911	0.1587
346.8005	0.1556
347.0099	0.1571
347.2193	0.1642
347.4286	0.1629
347.638	0.1618
347.8473	0.164
348.0566	0.1611
348.2659	0.1607
348.4752	0.1629
348.6845	0.1607
348.8937	0.1618
349.103	0.1601
349.3122	0.1685
349.5214	0.1663
349.7306	0.1718
349.9398	0.175
350.149	0.1641
350.3582	0.168
350.5674	0.1715
350.7765	0.1712
350.9856	0.17
351.1948	0.1759
351.4039	0.172
351.613	0.1729
351.822	0.1785
352.0311	0.172
352.2402	0.1684
352.4492	0.1782
352.6582	0.1754
352.8672	0.1783
353.0762	0.179
353.2852	0.1756
353.4942	0.1841
353.7032	0.1788
353.9121	0.1807
354.1211	0.1838
354.33	0.1875
354.5389	0.1801
354.7478	0.1736
354.9567	0.1864
355.1655	0.1805
355.3744	0.1881
355.5833	0.1891
355.7921	0.1913
356.0009	0.1895
356.2097	0.179
356.4185	0.1884
356.6273	0.1901
356.8361	0.187
357.0448	0.1846
357.2536	0.1932
357.4623	0.1862
357.671	0.1883
357.8797	0.1989
358.0884	0.1863
358.2971	0.1985
358.5057	0.1935
358.7144	0.1996
358.923	0.2014
359.1316	0.2
359.3402	0.197
359.5488	0.1951
359.7574	0.1998
359.966	0.1983
360.1746	0.1983
360.3831	0.2096
360.5916	0.2075
360.8002	0.2074
361.0087	0.2083
361.2172	0.2069
361.4256	0.2066
361.6341	0.2085
361.8426	0.2101
362.051	0.2159
362.2594	0.2144
362.4678	0.2072
362.6762	0.2193
362.8846	0.2142
363.093	0.2212
363.3014	0.2244
363.5097	0.2255
363.718	0.225
363.9264	0.2206
364.1347	0.222
364.343	0.2225
364.5513	0.2243
364.7595	0.2232
364.9678	0.2227
365.176	0.2269
365.3842	0.2293
365.5925	0.2294
365.8007	0.2286
366.0089	0.2309
366.217	0.2349
366.4252	0.2298
366.6333	0.2343
366.8415	0.2278
367.0496	0.2279
367.2577	0.2418
367.4658	0.231
367.6739	0.2324
367.882	0.2431
368.09	0.2318
368.2981	0.2437
368.5061	0.2512
368.7141	0.243
368.9221	0.2524
369.1301	0.2472
369.3381	0.2514
369.5461	0.2528
369.754	0.2601
369.962	0.2471
370.1699	0.2588
370.3778	0.2615
370.5857	0.2606
370.7936	0.2533
371.0015	0.25
371.2093	0.2574
371.4172	0.2494
371.625	0.2591
371.8328	0.2596
372.0406	0.2608
372.2484	0.2544
372.4562	0.2604
372.664	0.2607
372.8717	0.2587
373.0795	0.274
373.2872	0.265
373.4949	0.2723
373.7026	0.2688
373.9103	0.2593
374.118	0.2695
374.3256	0.2697
374.5333	0.2641
374.7409	0.2694
374.9485	0.2681
375.1561	0.2761
375.3637	0.2666
375.5713	0.2708
375.7789	0.2707
375.9864	0.2683
376.194	0.2838
376.4015	0.2767
376.609	0.2799
376.8165	0.2721
377.024	0.2792
377.2315	0.2896
377.4389	0.2805
377.6464	0.2793
377.8538	0.2854
378.0612	0.2899
378.2686	0.2882
378.476	0.2985
378.6834	0.2858
378.8908	0.2912
379.0981	0.286
379.3055	0.2889
379.5128	0.2809
379.7201	0.2942
379.9274	0.2874
380.1347	0.2918
380.342	0.2989
380.5492	0.2965
380.7565	0.2914
380.9637	0.3099
381.1709	0.288
381.3781	0.3027
381.5853	0.2954
381.7925	0.2926
381.9997	0.3079
382.2068	0.3014
382.4139	0.3066
382.6211	0.3048
382.8282	0.306
383.0353	0.3088
383.2424	0.2945
383.4494	0.2976
383.6565	0.3011
383.8635	0.305
384.0706	0.3138
384.2776	0.3073
384.4846	0.3072
384.6916	0.3096
384.8986	0.3086
385.1055	0.3117
385.3125	0.3078
385.5194	0.3149
385.7263	0.309
385.9333	0.3092
386.1402	0.3079
386.347	0.3106
386.5539	0.3155
386.7608	0.3055
386.9676	0.3141
387.1744	0.3001
387.3813	0.3056
387.5881	0.3009
387.7948	0.3154
388.0016	0.3172
388.2084	0.3056
388.4151	0.3141
388.6219	0.297
388.8286	0.3048
389.0353	0.3143
389.242	0.2966
389.4487	0.3088
389.6553	0.2924
389.862	0.3007
390.0686	0.3134
390.2753	0.2989
390.4819	0.3045
390.6885	0.2914
390.8951	0.2905
391.1016	0.293
391.3082	0.3019
391.5147	0.2978
391.7213	0.2891
391.9278	0.2866
392.1343	0.2948
392.3408	0.292
392.5473	0.2834
392.7537	0.2924
392.9602	0.2942
393.1666	0.2867
393.373	0.2895
393.5794	0.2891
393.7858	0.2826
393.9922	0.2776
394.1986	0.2722
394.4049	0.2761
394.6113	0.281
394.8176	0.2767
395.0239	0.2673
395.2302	0.2723
395.4365	0.2656
395.6428	0.2785
395.8491	0.2765
396.0553	0.2673
396.2615	0.2679
396.4678	0.2726
396.674	0.2695
396.8802	0.2647
397.0863	0.2664
397.2925	0.2693
397.4987	0.2635
397.7048	0.2668
397.9109	0.2649
398.117	0.271
398.3231	0.2561
398.5292	0.2532
398.7353	0.2603
398.9413	0.2613
399.1474	0.2657
399.3534	0.2556
399.5594	0.2679
399.7654	0.261
399.9714	0.2656
400.1774	0.2565
400.3833	0.2696
400.5893	0.2581
400.7952	0.2681
401.0011	0.2577
401.207	0.2618
401.4129	0.2593
401.6188	0.262
401.8247	0.2717
402.0305	0.2562
402.2364	0.2548
402.4422	0.2642
402.648	0.2668
402.8538	0.2579
403.0596	0.2574
403.2654	0.2612
403.4711	0.2526
403.6768	0.2568
403.8826	0.2678
404.0883	0.2638
404.294	0.2627
404.4997	0.2635
404.7054	0.2589
404.911	0.2607
405.1167	0.2558
405.3223	0.266
405.5279	0.2632
405.7335	0.2528
405.9391	0.257
406.1447	0.2652
406.3502	0.2594
406.5558	0.2533
406.7613	0.2604
406.9668	0.2584
407.1724	0.2522
407.3778	0.2596
407.5833	0.2409
407.7888	0.2578
407.9942	0.2577
408.1997	0.2668
408.4051	0.2599
408.6105	0.2612
408.8159	0.255
409.0213	0.2684
409.2267	0.275
409.432	0.2535
409.6374	0.2625
409.8427	0.2643
410.048	0.2612
410.2533	0.2627
410.4586	0.2531
410.6639	0.266
410.8691	0.2593
411.0744	0.2653
411.2796	0.2598
411.4848	0.2603
411.69	0.2569
411.8952	0.2532
412.1004	0.2639
412.3056	0.2609
412.5107	0.2552
412.7158	0.2652
412.921	0.2527
413.1261	0.2538
413.3312	0.2573
413.5362	0.2598
413.7413	0.258
413.9464	0.2544
414.1514	0.2684
414.3564	0.257
414.5614	0.2657
414.7664	0.2501
414.9714	0.2512
415.1764	0.2547
415.3813	0.253
415.5863	0.2538
415.7912	0.2599
415.9961	0.2582
416.201	0.2574
416.4059	0.2522
416.6108	0.2492
416.8156	0.2466
417.0205	0.2499
417.2253	0.25
417.4301	0.2561
417.6349	0.2518
417.8397	0.2416
418.0445	0.2447
418.2492	0.2401
418.454	0.2383
418.6587	0.2492
418.8634	0.2546
419.0681	0.2558
419.2728	0.245
419.4775	0.2498
419.6822	0.2442
419.8868	0.2379
420.0915	0.2501
420.2961	0.2359
420.5007	0.2501
420.7053	0.2347
420.9099	0.2329
421.1144	0.2387
421.319	0.2377
421.5235	0.2364
421.728	0.2456
421.9325	0.2442
422.137	0.2333
422.3415	0.2198
422.546	0.2274
422.7504	0.2381
422.9549	0.2381
423.1593	0.2275
423.3637	0.2307
423.5681	0.2376
423.7725	0.2275
423.9769	0.2408
424.1812	0.2191
424.3856	0.2264
424.5899	0.2229
424.7942	0.2275
424.9985	0.2259
425.2028	0.2297
425.4071	0.2288
425.6113	0.2281
425.8156	0.2099
426.0198	0.2191
426.224	0.2166
426.4282	0.2144
426.6324	0.2245
426.8366	0.2142
427.0407	0.2171
427.2449	0.2128
427.449	0.2067
427.6531	0.2158
427.8572	0.2129
428.0613	0.2092
428.2654	0.213
428.4694	0.2043
428.6735	0.2035
428.8775	0.2057
429.0815	0.2064
429.2855	0.2064
429.4895	0.1951
429.6935	0.1931
429.8975	0.1906
430.1014	0.2034
430.3053	0.1997
430.5093	0.1953
430.7132	0.1931
430.9171	0.1822
431.1209	0.1873
431.3248	0.1808
431.5286	0.177
431.7325	0.1936
431.9363	0.18
432.1401	0.1803
432.3439	0.1784
432.5477	0.1721
432.7514	0.1636
432.9552	0.1684
433.1589	0.1619
433.3627	0.1714
433.5664	0.1578
433.7701	0.1614
433.9737	0.1656
434.1774	0.163
434.3811	0.1552
434.5847	0.1552
434.7883	0.1618
434.9919	0.1543
435.1955	0.1658
435.3991	0.1527
435.6027	0.1409
435.8062	0.1654
436.0098	0.1404
436.2133	0.139
436.4168	0.1473
436.6203	0.139
436.8238	0.1317
437.0272	0.1332
437.2307	0.1378
437.4341	0.1334
437.6375	0.1369
437.841	0.1269
438.0443	0.132
438.2477	0.1191
438.4511	0.1294
438.6545	0.1266
438.8578	0.1197
439.0611	0.1292
439.2644	0.1239
439.4677	0.1194
439.671	0.1112
439.8743	0.119
440.0775	0.1127
440.2808	0.1121
440.484	0.1066
440.6872	0.1123
440.8904	0.1016
441.0936	0.1005
441.2967	0.0989
441.4999	0.1002
441.703	0.1035
441.9062	0.0971
442.1093	0.1092
442.3124	0.0928
442.5155	0.0885
442.7185	0.0984
442.9216	0.0908
443.1246	0.0944
443.3276	0.0861
443.5307	0.0815
443.7337	0.0827
443.9366	0.0883
444.1396	0.0753
444.3426	0.0801
444.5455	0.0812
444.7484	0.072
444.9513	0.0749
445.1542	0.0765
445.3571	0.0679
445.56	0.0677
445.7628	0.0691
445.9657	0.0672
446.1685	0.0674
446.3713	0.0721
446.5741	0.0747
446.7769	0.0743
446.9797	0.0619
447.1824	0.0586
447.3852	0.0562
447.5879	0.0635
447.7906	0.0572
447.9933	0.0679
448.196	0.0572
448.3986	0.058
448.6013	0.0462
448.8039	0.0576
449.0066	0.06
449.2092	0.0558
449.4118	0.049
449.6143	0.0546
449.8169	0.0508
450.0195	0.0489
450.222	0.0514
450.4245	0.0545
450.627	0.044
450.8295	0.0409
451.032	0.0407
451.2345	0.0369
451.4369	0.0459
451.6394	0.0395
451.8418	0.0404
452.0442	0.043
452.2466	0.0295
452.449	0.0402
452.6513	0.0335
452.8537	0.0349
453.056	0.0348
453.2583	0.032
453.4607	0.0344
453.663	0.0354
453.8652	0.0375
454.0675	0.0363
454.2697	0.034
454.472	0.0238
454.6742	0.0297
454.8764	0.037
455.0786	0.0252
455.2808	0.0221
455.4829	0.0326
455.6851	0.0268
455.8872	0.0194
456.0893	0.0283
456.2915	0.0229
456.4935	0.0326
456.6956	0.0247
456.8977	0.0186
457.0997	0.0293
457.3018	0.0089
457.5038	0.0294
457.7058	0.0259
457.9078	0.0293
458.1098	0.0255
458.3117	0.0275
458.5137	0.013
458.7156	0.019
458.9175	0.0247
459.1194	0.0205
459.3213	0.0215
459.5232	0.0255
459.725	0.0143
459.9269	0.0165
460.1287	0.012
460.3305	0.0229
460.5323	0.0205
460.7341	0.0188
460.9359	0.0121
461.1376	0.0198
461.3394	0.0194
461.5411	0.0248
461.7428	0.0263
461.9445	0.0196
462.1462	0.0155
462.3479	0.0137
462.5495	0.0147
462.7512	0.0321
462.9528	0.0208
463.1544	0.0127
463.356	0.0103
463.5576	0.0217
463.7592	0.011
463.9607	0.0172
464.1623	0.0068
464.3638	0.0141
464.5653	0.0117
464.7668	0.016
464.9683	0.0123
465.1697	0.0047
465.3712	0.0077
465.5726	0.0113
465.7741	0.0161
465.9755	0.0113
466.1769	0.0054
466.3782	0.018
466.5796	0.0121
466.7809	0.0105
466.9823	0.003
467.1836	0.0087
467.3849	0.0085
467.5862	-0.0038
467.7875	0.0078
467.9887	0.0098
468.19	0.0117
468.3912	0.0178
468.5924	0.0082
468.7936	0.006
468.9948	0.0044
469.196	0.0073
469.3972	0.0057
469.5983	0.0044
469.7994	0.016
470.0006	0.0082
470.2017	0.0041
470.4027	0.0149
470.6038	0.0045
470.8049	0.0069
471.0059	0.0115
471.2069	0.0146
471.408	0.009
471.6089	0.0121
471.8099	0.0048
472.0109	0.0103
472.2119	0.0186
472.4128	0.0059
472.6137	0.0022
472.8146	0.0111
473.0155	0.0138
473.2164	0.0113
473.4173	-0.0063
473.6181	-0.0058
473.819	0.0026
474.0198	0.011
474.2206	-0.002
474.4214	0.0099
474.6222	-0.0044
474.8229	0.0051
475.0237	0.0102
475.2244	0.0113
475.4251	0.0004
475.6258	-0.0093
475.8265	0.0063
476.0272	0.0096
476.2278	0.0079
476.4285	0.0043
476.6291	0.0119
476.8297	0.0035
477.0303	0.0001
477.2309	0.0082
477.4315	0.0119
477.632	0.0042
477.8326	0.0064
478.0331	0.0106
478.2336	0.0045
478.4341	0.0093
478.6346	0.0069
478.8351	0.0028
479.0355	0.0029
479.236	0.0063
479.4364	0.0088
479.6368	0.01
479.8372	0.0038
480.0376	0.0025
480.2379	0.0047
480.4383	0.0104
480.6386	-0.0072
480.8389	0.0069
481.0392	0.0004
481.2395	0.0076
481.4398	0.0053
481.6401	0.0036
481.8403	0.0027
482.0405	0.0008
482.2408	0.006
482.441	0.0088
482.6411	0.0067
482.8413	0.003
483.0415	0.0104
483.2416	0.0044
483.4417	0.0023
483.6419	-0.0033
483.8419	0.0082
484.042	0.0024
484.2421	-0.0076
484.4422	-0.0034
484.6422	0.003
484.8422	0.0074
485.0422	0.0082
485.2422	0.0023
485.4422	0.0016
485.6422	0.0047
485.8421	0.0005
486.042	0.0112
486.242	0.0015
486.4419	0.0029
486.6417	-0.0042
486.8416	0.004
487.0415	-0.0024
487.2413	-0.0049
487.4411	0.005
487.641	0.0015
487.8408	0.0064
488.0405	0.0104
488.2403	0.0032
488.4401	-0.0003
488.6398	0.007
488.8395	0.0027
489.0392	0.0037
489.2389	0.0074
489.4386	-0.0033
489.6383	0.0109
489.8379	0.002
490.0376	-0.0046
490.2372	0.0016
490.4368	0.0049
490.6364	-0.0079
490.836	-0.0026
491.0355	-0.0041
491.2351	0.002
491.4346	0.0019
491.6341	-0.0049
491.8336	0.0103
492.0331	-0.0015
492.2326	0.0079
492.432	0.0055
492.6315	0.0088
492.8309	0.0022
493.0303	0.0044
493.2297	0.0037
493.4291	0.0026
493.6284	0.0125
493.8278	-0.0012
494.0271	0.0014
494.2264	0.0011
494.4257	0.0038
494.625	-0.0019
494.8243	-0.0043
495.0236	0.0051
495.2228	-0.0009
495.422	0.0021
495.6213	0.0008
495.8205	0.0045
496.0196	0.002
496.2188	0.0074
496.418	-0.0032
496.6171	0.0032
496.8162	0.0015
497.0153	0.0026
497.2144	0.0088
497.4135	-0.0006
497.6126	-0.0041
497.8116	0.0039
498.0107	0.0061
498.2097	0.0043
498.4087	0.0039
498.6077	-0.0034
498.8067	0.0008
499.0056	0.0005
499.2046	0.0116
499.4035	0.0063
499.6024	-0.0032
499.8013	0.0117
500.0002	0.0021
500.199	0.0108
500.3979	-0.0062
500.5967	0.0022
500.7956	0.0011
500.9944	0.0012
501.1932	0.0091
501.3919	0.0101
501.5907	0.0047
501.7895	-0.0013
501.9882	0.0009
502.1869	0.0097
502.3856	0.0044
502.5843	0.0019
502.783	-0.0019
502.9816	0.0092
503.1803	0.0017
503.3789	0.0019
503.5775	-0.0032
503.7761	0.0064
503.9747	0.0121
504.1732	-0.0068
504.3718	0.0143
504.5703	0.0022
504.7689	-0.0091
504.9674	0.0075
505.1658	-0.0001
505.3643	0.0051
505.5628	0.0044
505.7612	0.0029
505.9597	0.0064
506.1581	-0.0016
506.3565	0.0008
506.5549	0.0001
506.7532	-0.0086
506.9516	0.0092
507.1499	0.008
507.3482	-0.0011
507.5465	0.0081
507.7448	0.0071
507.9431	0.0057
508.1414	-0.0072
508.3396	0.0009
508.5379	0.0025
508.7361	0.0032
508.9343	0.007
509.1325	0.0114
509.3306	0.01
509.5288	-0.0055
509.7269	0.008
509.9251	0.0088
510.1232	0.0046
510.3213	0.0029
510.5193	-0.0026
510.7174	-0.0037
510.9154	0.0062
511.1135	0.0064
511.3115	-0.0035
511.5095	-0.0008
511.7075	0.0035
511.9055	0.0067
512.1034	-0.003
512.3014	-0.0014
512.4993	0.0082
512.6972	-0.0008
512.8951	0.0051
513.093	0.0017
513.2908	0.011
513.4887	0.0061
513.6865	0.0076
513.8844	0.0117
514.0822	0.003
514.2799	-0.0073
514.4777	-0.0089
514.6755	0.0063
514.8732	0.0015
515.0709	0.0092
515.2687	-0.006
515.4664	0.0133
515.664	0.0053
515.8617	0.0127
516.0594	0.0154
516.257	0.0045
516.4546	0.0195
516.6522	0.0041
516.8498	-0.0012
517.0474	0.0002
517.2449	-0.0023
517.4425	0.0013
517.64	-0.0001
517.8375	0.004
518.035	-0.0027
518.2325	-0.004
518.43	-0.0002
518.6274	-0.0097
518.8249	-0.0105
519.0223	0.0068
519.2197	-0.001
519.4171	-0.0044
519.6145	0.009
519.8118	-0.0042
520.0092	-0.0029
520.2065	0.0132
520.4038	0.0036
520.6011	0.009
520.7984	0.0068
520.9956	-0.0002
521.1929	0.0069
521.3901	0.0026
521.5874	0.0141
521.7846	-0.0086
521.9818	0.0001
522.1789	-0.0009
522.3761	0.0141
522.5732	0.0021
522.7704	-0.0021
522.9675	-0.0111
523.1646	0.0023
523.3617	0.002
523.5587	0.0018
523.7558	0.0036
523.9528	0.014
524.1498	0.0016
524.3468	0.007
524.5438	0.0101
524.7408	-0.0061
524.9378	0.0061
525.1347	0.0021
525.3316	-0.0002
525.5285	0.0033
525.7254	0.014
525.9223	0.0038
526.1192	0.0078
526.316	0.015
526.5129	0.0122
526.7097	-0.0005
526.9065	0.0114
527.1033	-0.0132
527.3	0.007
527.4968	0.0098
527.6935	-0.0112
527.8903	0.0014
528.087	-0.0039
528.2837	0.0079
528.4804	-0.0031
528.677	0.0024
528.8737	0.0091
529.0703	0.0017
529.2669	0.0137
529.4635	-0.0033
529.6601	0.0003
529.8567	-0.0097
530.0532	-0.0017
530.2498	0.0059
530.4463	-0.0018
530.6428	0.0027
530.8393	0.0136
531.0358	0.0042
531.2322	-0.0107
531.4287	0.0108
531.6251	-0.0058
531.8215	-0.0053
532.0179	0.0018
532.2143	-0.001
532.4107	0.0135
532.607	-0.004
532.8034	-0.0009
532.9997	-0.0014
533.196	-0.0037
533.3923	0.0013
533.5886	0.0012
533.7848	-0.0007
533.9811	0.0023
534.1773	0.0058
534.3735	0.0123
534.5697	-0.0003
534.7659	0.0006
534.9621	0.0123
535.1582	0.0026
535.3544	0.0105
535.5505	0.0049
535.7466	0.0029
535.9427	0.0013
536.1387	-0.0024
536.3348	0.0126
536.5308	-0.0017
536.7269	-0.0094
536.9229	-0.0007
537.1189	0.011
537.3148	0.0011
537.5108	0.0031
537.7068	0.0169
537.9027	-0.0085
538.0986	0.0083
538.2945	0.0014
538.4904	-0.0028
538.6863	0.0065
538.8821	0.0104
539.078	0.0029
539.2738	-0.0001
539.4696	0.0004
539.6654	0.0009
539.8611	0.0055
540.0569	-0.0043
540.2526	0.0033
540.4484	-0.0029
540.6441	-0.0032
540.8398	0.0065
541.0355	-0.0021
541.2311	-0.0073
541.4268	0.0096
541.6224	0.0104
541.818	0.0065
542.0136	0.0103
542.2092	0.0098
542.4048	0.0038
542.6003	0.0018
542.7959	0.0027
542.9914	-0.0039
543.1869	0.0117
543.3824	0.0033
543.5779	0.018
543.7734	0.0181
543.9688	0.0122
544.1642	0.0008
544.3596	0.002
544.555	0.0075
544.7504	0.0154
544.9458	0.0023
545.1411	0.0029
545.3365	0.0117
545.5318	0.0032
545.7271	0.012
545.9224	0.0064
546.1177	0.0063
546.3129	-0.0044
546.5081	0.0017
546.7034	0.0101
546.8986	0.0017
547.0938	0.0101
547.289	0.0164
547.4841	0.011
547.6793	0.0107
547.8744	0.0066
548.0695	0.0012
548.2646	-0.0016
548.4597	0.0032
548.6548	0.0155
548.8498	0.0081
549.0448	0.0084
549.2399	0.0121
549.4349	0.0072
549.6298	0.0067
549.8248	-0.002
550.0198	0.0113
550.2147	0.0134
550.4096	-0.0009
550.6045	0.0027
550.7994	0.0002
550.9943	0.0158
551.1892	-0.0085
551.384	0.0067
551.5788	0.0052
551.7737	0.0128
551.9685	0.0038
552.1632	0.0045
552.358	0.0061
552.5528	0.0018
552.7475	-0.0003
552.9422	0.0052
553.1369	-0.0013
553.3316	0.0039
553.5263	0.0009
553.7209	-0.0035
553.9156	-0.0028
554.1102	0.0001
554.3048	-0.0128
554.4994	0.0126
554.694	0.0052
554.8885	0.0032
555.0831	0.0046
555.2776	0.005
555.4721	0.0009
555.6666	0.0036
555.8611	-0.0019
556.0555	0.0067
556.25	0.0077
556.4444	-0.005
556.6388	-0.0115
556.8332	-0.0008
557.0276	0.0075
557.222	0.0026
557.4163	0.0066
557.6107	0.0029
557.805	-0.0048
557.9993	0.0086
558.1936	-0.0116
558.3879	0.0015
558.5821	-0.0037
558.7764	0.0016
558.9706	-0.0006
559.1648	0.0036
559.359	-0.001
559.5532	-0.0036
559.7473	0.002
559.9415	0.0004
560.1356	0.0165
560.3297	-0.0006
560.5238	0.0022
560.7179	-0.0075
560.9119	-0.0019
561.106	0.0018
561.3	-0.002
561.494	-0.0117
561.688	0.0003
561.882	-0.0012
562.076	0.0012
562.2699	0.0015
562.4639	0.0109
562.6578	0.0045
562.8517	-0.0011
563.0456	0.0024
563.2395	0.0033
563.4333	-0.0004
563.6272	-0.0073
563.821	-0.0002
564.0148	-0.0059
564.2086	0.004
564.4024	0.0057
564.5961	0.0023
564.7899	0.0073
564.9836	-0.0035
565.1773	0.0084
565.371	0.0008
565.5647	0.0045
565.7584	0.0155
565.952	0.0098
566.1456	0.0062
566.3393	0.0032
566.5329	0.0006
566.7264	0.0047
566.92	-0.0008
567.1136	-0.0062
567.3071	0.0022
567.5006	0.0067
567.6941	0.0006
567.8876	-0.0071
568.0811	0.0118
568.2745	-0.0038
568.468	0.0024
568.6614	0.0088
568.8548	0.006
569.0482	0.0031
569.2416	0.0028
569.4349	0.0036
569.6283	0.0005
569.8216	0.0063
570.0149	0.0003
570.2082	0.0028
570.4015	0.0055
570.5947	0.0024
570.788	0.0065
570.9812	0.0029
571.1744	0.0008
571.3676	0.0029
571.5608	-0.0022
571.754	0.0098
571.9471	0.0044
572.1402	0.0038
572.3333	0.0015
572.5264	0.002
572.7195	0.0006
572.9126	-0.0034
573.1057	0.0037
573.2987	0.0016
573.4917	0.0016
573.6847	0.003
573.8777	0.0072
574.0707	0.0031
574.2636	0.0035
574.4566	0.0013
574.6495	0.0001
574.8424	0.0027
575.0353	0.0049
575.2281	0.003
575.421	0.002
575.6138	0.0033
575.8067	0.0001
575.9995	0.0018
576.1923	0.0043
576.385	0.0007
576.5778	0.0066
576.7706	0.0024
576.9633	0.0065
577.156	-0.0039
577.3487	0.0027
577.5414	-0.0004
577.734	0.0011
577.9267	0.0069
578.1193	0.0057
578.3119	0.0006
578.5045	0.0005
578.6971	-0.0028
578.8897	0.0014
579.0822	0.004
579.2747	-0.0003
579.4673	0.0007
579.6598	0.0071
579.8522	0.0033
580.0447	0.0022
580.2372	0.0056
580.4296	0.006
580.622	0.0015
580.8144	0.005
581.0068	0.0028
581.1992	0.0049
581.3915	0.0001
581.5839	0.0023
581.7762	0.0013
581.9685	0.0018
582.1608	0.0053
582.353	0.0041
582.5453	0.0042
582.7375	0.0049
582.9298	-0.0011
583.122	0.0008
583.3142	0.0045
583.5063	0.0028
583.6985	-0.0005
583.8906	0.0001
584.0827	0.0015
584.2749	0.0006
584.4669	0.0034
584.659	0.0068
584.8511	0.0052
585.0431	0.0023
585.2352	0.0021
585.4272	0.0027
585.6192	-0.0002
585.8111	-0.0012
586.0031	-0.0034
586.195	-0.0012
586.387	0.0018
586.5789	0.006
586.7708	0.0049
586.9627	0.0065
587.1545	0.0033
587.3464	0.0019
587.5382	-0.0014
587.73	0.0039
587.9218	-0.0011
588.1136	-0.0008
588.3053	0.0026
588.4971	0.0028
588.6888	0.0046
588.8805	-0.0023
589.0722	0.0102
589.2639	0.0066
589.4556	0.0105
589.6472	0.0094
589.8389	0.0044
590.0305	0.004
590.2221	0.0049
590.4137	0.0001
590.6052	-0.0031
590.7968	0.0005
590.9883	0.0048
591.1798	-0.0006
591.3713	0.0014
591.5628	-0.0013
591.7543	0.0037
591.9458	-0.0052
592.1372	0.0077
592.3286	0.0049
592.52	0.0019
592.7114	0.0016
592.9028	0.0114
593.0941	0.0021
593.2855	-0.0008
593.4768	0.0106
593.6681	0.0034
593.8594	0.0056
594.0506	0.0027
594.2419	0.0019
594.4331	0.0028
594.6244	-0.0022
594.8156	0.0063
595.0067	-0.0013
595.1979	0.0005
595.3891	0.0033
595.5802	0.003
595.7713	0.006
595.9624	0.0047
596.1535	-0.0039
596.3446	0.0033
596.5357	0.0054
596.7267	0.0028
596.9177	0.0038
597.1087	0
597.2997	0.0101
597.4907	-0.0046
597.6817	0.0063
597.8726	0.0088
598.0635	0.0002
598.2544	0.001
598.4453	0.0049
598.6362	0.0038
598.827	-0.0028
599.0179	0.0009
599.2087	0.005
599.3995	0.0014
599.5903	0.0056
599.7811	0.0049
599.9718	0.0005
600.1626	0.0063
600.3533	0.0026
600.544	0.0044
600.7347	0.0023
600.9254	0.0107
601.116	0.0002
601.3067	0.0053
601.4973	0.0089
601.6879	-0.0006
601.8785	0.008
602.0691	0.0026
602.2596	0.0059
602.4502	0.0055
602.6407	0.0082
602.8312	0.0025
603.0217	0.0013
603.2122	0.0017
603.4027	-0.0011
603.5931	0.0037
603.7835	0.0077
603.9739	0.0102
604.1643	0.003
604.3547	-0.0009
604.5451	0.0025
604.7354	-0.0056
604.9257	0.003
605.116	-0.0018
605.3063	0.0056
605.4966	0.0009
605.6869	0.0061
605.8771	0.0001
606.0673	-0
606.2575	0.0001
606.4477	0.0022
606.6379	0.0028
606.8281	0.0027
607.0182	0.0005
607.2083	-0.002
607.3985	-0.0056
607.5885	0.0052
607.7786	0.0046
607.9687	0.0061
608.1587	0.0015
608.3488	0.0003
608.5388	0.0015
608.7288	-0.0056
608.9187	0.0044
609.1087	0.0044
609.2986	0.0057
609.4886	-0.0007
609.6785	0.002
609.8684	-0.0013
610.0582	-0.0022
610.2481	-0.001
610.4379	0.004
610.6278	0.0022
610.8176	0.0118
611.0074	0.0057
611.1971	0.0039
611.3869	0.0062
611.5766	-0.0072
611.7664	0.0009
611.9561	0.005
612.1458	-0.0001
612.3354	0.0046
612.5251	0.0049
612.7147	0.0096
612.9044	-0.0033
613.094	0.0053
613.2836	0.0021
613.4731	0.0093
613.6627	0.0021
613.8522	0.0074
614.0417	0.0093
614.2313	0.0021
614.4207	0.0027
614.6102	0.0063
614.7997	0.0096
614.9891	-0.0026
615.1785	-0.0028
615.3679	0.0108
615.5573	0.0013
615.7467	-0.0034
615.9361	0.0021
616.1254	0.0046
616.3147	-0.0049
616.504	0.0039
616.6933	0.0027
616.8826	0.0014
617.0718	-0
617.2611	0.0009
617.4503	-0.0004
617.6395	-0.0001
617.8287	0.0043
618.0179	-0.0029
618.207	0.0014
618.3961	-0.0052
618.5853	-0.0054
618.7744	0.0052
618.9634	0.0112
619.1525	0.0048
619.3416	-0.0021
619.5306	0.0093
619.7196	0.0087
619.9086	-0.0004
620.0976	0.004
620.2866	0.0138
620.4755	-0.0058
620.6645	0.0079
620.8534	0.0042
621.0423	-0.0025
621.2312	0.0069
621.42	0.0057
621.6089	0.0039
621.7977	0.0038
621.9865	-0.0011
622.1753	-0.0153
622.3641	0.0045
622.5529	-0.0023
622.7416	0.001
622.9303	-0.0018
623.1191	0.0103
623.3078	0.0086
623.4964	0.0034
623.6851	0.006
623.8737	-0.0022
624.0624	-0.0167
624.251	-0.004
624.4396	-0.0098
624.6282	0.0061
624.8167	-0.0072
625.0053	0.0108
625.1938	0.0038
625.3823	0.0014
625.5708	-0.007
625.7593	-0.0072
625.9477	0.0105
626.1362	-0.0029
626.3246	-0.0018
626.513	0.0019
626.7014	0.0076
626.8898	0.0173
627.0781	0.0028
627.2665	0.0046
627.4548	-0.005
627.6431	0.0008
627.8314	0.0137
628.0197	0.0081
628.2079	-0.0035
628.3962	0.0094
628.5844	0.0077
628.7726	0.0011
628.9608	0.0107
629.1489	0.0145
629.3371	-0.0029
629.5252	-0.0053
629.7134	-0.0143
629.9015	0.0075
630.0895	-0.0178
630.2776	0.0007
630.4657	0.0086
630.6537	0.0118
630.8417	-0.018
631.0297	0.0045
631.2177	-0.0064
631.4057	-0
631.5936	-0.0019
631.7815	-0.0058
631.9695	0.001
632.1574	0.014
632.3452	0.0055
632.5331	-0.0011
632.7209	0.0078
632.9088	-0.001
633.0966	0.0111
633.2844	0.0221
633.4722	0.0035
633.6599	0.0122
633.8477	0.0042
634.0354	0.0159
634.2231	-0.0092
634.4108	0.0031
634.5985	0.0035
634.7861	-0.0024
634.9738	0.0088
635.1614	0.0198
635.349	-0.0114
635.5366	0.0147
635.7242	0.0031
635.9117	0.0046
636.0993	0.0034
636.2868	0.001
636.4743	0.0079
636.6618	-0.0106
636.8492	0.0043
637.0367	-0.0053
637.2241	0.0106
637.4115	0.0336
637.5989	0.0182
637.7863	0.0328
637.9737	0.0061
638.161	0.0089
638.3484	-0.0112
638.5357	-0.0056
638.723	0.0214
638.9103	-0.0137
639.0975	0.0003
639.2848	0.0063
639.472	0.0127
639.6592	-0.0082
639.8464	0.0239
640.0336	0.0071
640.2208	-0.0081
640.4079	-0.0141
640.595	-0.0047
640.7821	0.0099
640.9692	-0.0129
641.1563	0.0012
641.3434	0.0103
641.5304	0.0075
641.7174	0.0018
641.9044	-0.0007
642.0914	0.0097
642.2784	0.0062
642.4653	0.0057
642.6523	0.005
642.8392	-0.0116
643.0261	0.0196
643.213	0.0006
643.3999	0.0221
643.5867	0.0175
643.7735	-0.0019
643.9604	0.0048
644.1472	0.0032
644.3339	0.0037
644.5207	0.0011
644.7075	-0.0148
644.8942	-0.0096
645.0809	-0.0068
645.2676	0.0029
645.4543	0.0046
645.6409	0.0189
645.8276	0.0053
646.0142	0.0114
646.2008	0.0049
646.3874	0.0028
646.574	-0.0231
646.7605	0.0108
646.9471	0.0028
647.1336	-0.0297
647.3201	-0.0017
647.5066	0.0238
647.6931	0.0002
647.8795	0.006
648.0659	0.0013
648.2524	0.0078
648.4388	0.0222
648.6252	0.0127
648.8115	0.0033
648.9979	-0
649.1842	0.0139
649.3705	0.0122
649.5568	-0.0038
649.7431	-0.0045
649.9294	-0.0115
650.1156	0.0113
650.3018	0.0053
650.488	0.0037
650.6742	0.0185
650.8604	0.0107
651.0466	0.0116
651.2327	-0.0093
651.4188	-0.0054
651.6049	0.0162
651.791	0.0104
651.9771	-0.0053
652.1632	0.0022
652.3492	0.0073
652.5352	0.0077
652.7212	-0.001
652.9072	-0.0097
653.0932	0.0143
653.2791	0.0179
653.465	0.0091
653.651	0.0041
653.8369	0.0119
654.0227	0.006
654.2086	0.0028
654.3944	-0.0125
654.5803	-0.0007
654.7661	0.0079
654.9519	-0.0017
655.1377	0.0001
655.3234	0.0001
655.5092	0.0001
655.6949	0.0001
655.8806	0.0001
656.0663	0.0001
656.2519	0.0001
656.4376	0.0001
656.6232	0.0001
656.8088	0.0001
656.9945	0.0001
657.18	0.0001
657.3656	0.0001
657.5511	0.0001
657.7367	0.0001
657.9222	0.0001
658.1077	0.0001
658.2932	0.0001
658.4786	0.0001
658.6641	0.0001
658.8495	0.0001
659.0349	0.0001
659.2203	0.0001
659.4057	0.0001
659.591	0.0644
659.7764	0.0083
659.9617	-0.0104
660.147	-0.0026
660.3323	0.0153
660.5176	-0.0233
660.7028	-0.026
660.888	0.0096
661.0733	-0.0016
661.2585	0.0042
661.4436	0.0002
661.6288	0.0233
661.8139	0.0012
661.9991	-0.0174
662.1842	0.0029
662.3693	0.014
662.5544	0.0052
662.7394	0.0229
662.9245	0.0011
663.1095	-0.0084
663.2945	0.0011
663.4795	-0.014
663.6644	-0.0066
663.8494	0.0137
664.0343	0.0049
664.2193	0.0095
664.4042	0.0093
664.589	0.0094
664.7739	-0.0121
664.9587	-0.0117
665.1436	0.001
665.3284	0.0197
665.5132	-0.0202
665.698	0.0019
665.8827	0.0105
666.0675	-0.0115
666.2522	-0.0059
666.4369	-0.0029
666.6216	0.0096
666.8063	0.0064
666.9909	-0.0007
667.1756	-0.0095
667.3602	0.0039
667.5448	0.0122
667.7294	0.0084
667.9139	0.0003
668.0985	0.0201
668.283	-0.0277
668.4675	0.0103
668.652	0.0091
668.8365	0.0063
669.0209	0.0107
669.2054	0.0048
669.3898	0.018
669.5742	0.0348
669.7586	-0.0054
669.943	-0.0021
670.1273	0.0006
670.3117	0.0222
670.496	0.0087
670.6803	0.0053
670.8646	-0.0133
671.0488	0.0227
671.2331	-0.0133
671.4173	0.0099
671.6015	-0.0065
671.7857	0.0148
671.9699	0.0006
672.1541	0.0044
672.3382	-0.0057
672.5223	-0.0107
672.7064	0.0046
672.8905	-0.0015
673.0746	0.011
673.2587	0.0205
673.4427	0.0136
673.6267	0.0145
673.8107	0.0192
673.9947	0.0081
674.1787	0.0179
674.3626	0.0038
674.5465	0.006
674.7304	0.0082
674.9143	-0.0136
675.0982	0.0125
675.2821	0.0061
675.4659	-0.0037
675.6497	0.0103
675.8335	0.0218
676.0173	0.0058
676.2011	0.0148
676.3849	-0.0082
676.5686	0.0199
676.7523	-0.0053
676.936	0.0047
677.1197	-0.0117
677.3034	0.0329
677.487	0.0212
677.6706	0.0087
677.8542	0.0144
678.0378	0.0132
678.2214	0.0032
678.405	0.0124
678.5885	0.0163
678.772	0.0091
678.9555	-0.0103
679.139	0.0039
679.3225	0.0055
679.5059	-0.0072
679.6894	0.0019
679.8728	-0.0099
680.0562	0.0095
680.2395	0.0112
680.4229	0.003
680.6062	-0
680.7896	-0.02
680.9729	0.0173
681.1562	0.015
681.3394	-0.0056
681.5227	0.0114
681.7059	0.0138
681.8891	0.019
682.0723	-0.0108
682.2555	0.0081
682.4387	-0.0029
682.6218	-0.0057
682.805	0.0026
682.9881	0.0169
683.1712	0.0054
683.3542	0.0234
683.5373	-0.0184
683.7203	0.0119
683.9034	-0.0064
684.0864	0.0175
684.2694	0.0032
684.4523	0.008
684.6353	0.0005
684.8182	0.0054
685.0011	0.0062
685.184	-0.0002
685.3669	0.0144
685.5498	-0.0214
685.7326	-0.017
685.9154	-0.0175
686.0982	0.0174
686.281	-0.0056
686.4638	0.0084
686.6465	0.0033
686.8293	-0.0087
687.012	0.0157
687.1947	-0.003
687.3774	0.0144
687.56	-0.0053
687.7427	0.0152
687.9253	-0.0194
688.1079	0.0062
688.2905	-0.003
688.4731	0.0081
688.6556	0.0186
688.8382	-0.0259
689.0207	0.0012
689.2032	0.0183
689.3857	-0.0102
689.5681	-0.0128
689.7506	0.0179
689.933	0.0128
690.1154	0.0141
690.2978	-0.0075
690.4802	0.0158
690.6626	0.0011
690.8449	0.0185
691.0272	0.0044
691.2095	-0.008
691.3918	0.0041
691.5741	0.012
691.7563	0.0149
691.9386	0.0172
692.1208	0.0069
692.303	-0.002
692.4852	0.0012
692.6673	0.0097
692.8495	-0.0173
693.0316	-0.0067
693.2137	0.0178
693.3958	0.0051
693.5778	-0.009
693.7599	-0.0013
693.9419	-0.0052
694.1239	0.0114
694.3059	0.023
694.4879	0.0091
694.6699	0.0037
694.8518	-0.0077
695.0337	0.0013
695.2157	-0.0026
695.3975	0.0054
695.5794	-0.0143
695.7613	-0.0055
695.9431	0.0004
696.1249	0.0172
696.3067	-0.0261
696.4885	0.0251
696.6703	-0.0064
696.852	-0.0032
697.0337	0.0119
697.2154	0.0118
697.3971	0.0087
697.5788	0.0164
697.7605	-0.0128
697.9421	0.0087
698.1237	0.0133
698.3053	-0.0144
698.4869	0.011
698.6685	-0.0057
698.85	0.0273
699.0315	-0.0034
699.213	0.0108
699.3945	0.001
699.576	0.0044
699.7575	0.0277
699.9389	0.0098
700.1203	0.0113
700.3017	0.0055
700.4831	0.0227
700.6645	0.0315
700.8458	-0.022
701.0271	0.0408
701.2084	0.0039
701.3897	-0.0118
701.571	-0.0145
701.7523	0.0168
701.9335	0.0255
702.1147	0.0316
702.2959	-0.0133
702.4771	0.0021
702.6583	0.0092
702.8394	-0.0127
703.0205	0.0123
703.2016	0.0025
703.3827	0.0229
703.5638	-0.0012
703.7449	0.0413
703.9259	0.0054
704.1069	-0.0362
704.2879	-0.0004
704.4689	0.0102
704.6499	0.0138
704.8308	0.0257
705.0117	0.0198
705.1927	-0.0155
705.3735	0.036
705.5544	0.0118
705.7353	-0.0071
705.9161	-0.0144
706.0969	0.0081
706.2777	0.0002
706.4585	-0.0094
706.6393	0.0099
706.82	0.009
707.0007	-0.0011
707.1815	-0.0028
707.3621	0.0259
707.5428	0.0186
707.7235	0.005
707.9041	0.0046
708.0847	0.0185
708.2653	0.0359
708.4459	-0.0056
708.6265	-0.0142
708.807	0.002
708.9875	-0.0015
709.168	0.0003
709.3485	-0.0078
709.529	0.0213
709.7095	-0.0048
709.8899	0.0119
710.0703	-0.0065
710.2507	0.011
710.4311	-0.0427
710.6115	0.0351
710.7918	0.0143
710.9721	0.0021
711.1524	-0.0117
711.3327	-0.0196
711.513	-0.0036
711.6932	-0.0059
711.8735	0.0056
712.0537	-0.0041
712.2339	-0.0012
712.4141	0.0152
712.5942	-0.0015
712.7744	0.001
712.9545	0.007
713.1346	0.0332
713.3147	0.0045
713.4947	0.0011
713.6748	0.0085
713.8548	0.0134
714.0348	0.01
714.2148	0.0056
714.3948	0.0298
714.5748	0.0211
714.7547	0.0357
714.9346	0.0277
715.1145	0.0073
715.2944	-0.0063
715.4743	-0.0075
715.6541	0.0056
715.834	0.0286
716.0138	0.0154
716.1936	-0.0116
716.3733	0.0035
716.5531	0.0048
716.7328	-0.0026
716.9126	0.0127
717.0923	-0.0149
717.2719	0.0175
717.4516	0.0256
717.6312	-0.0291
717.8109	0.02
717.9905	0.0207
718.1701	0.016
718.3496	-0.0162
718.5292	0.0149
718.7087	0.0293
718.8882	0.0133
719.0677	-0.0066
719.2472	-0.0242
719.4267	0.0112
719.6061	-0.0051
719.7856	0.0345
719.965	0.0021
720.1443	-0.0078
720.3237	0.0103
720.5031	-0.0053
720.6824	-0.0076
720.8617	-0.0223
721.041	0.0194
721.2203	0.0016
721.3995	-0.0125
721.5788	0.0123
721.758	-0.0115
721.9372	-0.0174
722.1164	0.0139
722.2956	0.0017
722.4747	0.0499
722.6538	-0.0053
722.8329	0.0122
723.012	-0
723.1911	-0.0101
723.3702	0.0278
723.5492	-0.0238
723.7282	-0.0069
723.9072	0.02
724.0862	-0.0067
724.2652	0.0161
724.4441	-0.0089
724.623	0.0148
724.8019	0.0036
724.9808	0.0149
725.1597	0.012
725.3385	0.0003
725.5174	0.0229
725.6962	0.0044
725.875	0.0013
726.0538	0.0315
726.2325	0.0305
726.4112	0.0033
726.59	-0.0229
726.7687	-0.0078
726.9474	0.0135
727.126	0.0065
727.3047	-0.0204
727.4833	0.0022
727.6619	0.0003
727.8405	0.0178
728.0191	0.0296
728.1976	-0.0035
728.3762	0.0127
728.5547	0.0025
728.7332	0.0125
728.9116	0.0047
729.0901	0.0066
729.2686	0.0095
729.447	-0.0069
729.6254	0.0009
729.8038	0.0038
729.9821	-0.0121
730.1605	0.0024
730.3388	-0.0073
730.5171	0.012
730.6954	-0.0047
730.8737	0.0248
731.0519	-0.0063
731.2302	0.0176
731.4084	0.0072
731.5866	-0.0134
731.7648	0.0027
731.9429	0.0023
732.1211	-0.0076
732.2992	-0.0145
732.4773	0.0014
732.6554	-0.0142
732.8335	0.0058
733.0115	0.0257
733.1896	0.0166
733.3676	0.0155
733.5456	0.0117
733.7235	-0.0042
733.9015	0.015
734.0794	-0.0084
734.2574	-0.0212
734.4353	0.0146
734.6131	-0.002
734.791	0.0056
734.9689	-0.0057
735.1467	-0.0144
735.3245	-0.0069
735.5023	0.0129
735.68	0.0175
735.8578	0.0008
736.0355	0.0146
736.2132	-0.004
736.3909	0.0135
736.5686	-0.0022
736.7463	-0.0176
736.9239	-0.0025
737.1015	0.0196
737.2791	0.0161
737.4567	0.007
737.6343	0.0018
737.8118	0.0157
737.9894	0.0074
738.1669	-0.0024
738.3444	0.0107
738.5218	-0.0084
738.6993	0.0138
738.8767	0.0078
739.0541	0.0017
739.2315	-0.0133
739.4089	0.0312
739.5863	0.0041
739.7636	-0.0189
739.9409	0.0293
740.1182	-0.0125
740.2955	0.0047
740.4728	-0.0065
740.65	-0.0219
740.8272	0.018
741.0044	0.0042
741.1816	0.0329
741.3588	-0.0027
741.5359	-0.0172
741.7131	0.0031
741.8902	0.0004
742.0673	-0.0158
742.2444	0.0446
742.4214	0.0026
742.5985	0.0075
742.7755	-0.0022
742.9525	-0.0329
743.1295	-0.0245
743.3064	-0.0106
743.4834	-0.0103
743.6603	0.0156
743.8372	-0.0354
744.0141	0.0293
744.191	0.0128
744.3678	-0.0229
744.5446	0.0082
744.7215	0.0004
744.8982	0.0027
745.075	0.0306
745.2518	0.0027
745.4285	0.0174
745.6052	-0.0253
745.7819	0.0205
745.9586	0.017
746.1353	-0.0121
746.3119	-0.0313
746.4885	0.0137
746.6651	0.0043
746.8417	-0.017
747.0183	0.0106
747.1948	0.0221
747.3714	0.0187
747.5479	0.0669
747.7244	0.0068
747.9008	-0.0039
748.0773	0.0481
748.2537	0.0191
748.4301	-0.0049
748.6065	-0.0164
748.7829	-0.012
748.9593	-0.008
749.1356	0.0076
749.3119	0.0041
749.4882	0.0017
749.6645	-0.0036
749.8408	-0.0006
750.017	0.0049
750.1933	-0.026
750.3695	0.018
750.5457	-0.0037
750.7218	-0.0135
750.898	-0.0146
751.0741	-0.0042
751.2502	0.0283
751.4263	-0.0003
751.6024	0.0049
751.7784	-0.0018
751.9545	-0.0138
752.1305	0.0057
752.3065	0.0126
752.4825	-0.0056
752.6584	-0.0016
752.8344	-0.0022
753.0103	-0.0163
753.1862	-0.0016
753.3621	0.0059
753.5379	0.0118
753.7138	0.0294
753.8896	0.006
754.0654	0.0036
754.2412	0.0144
754.417	0.0255
754.5927	0.0241
754.7685	0.0041
754.9442	0.0246
755.1199	-0.0021
755.2956	0.0132
755.4712	0.0099
755.6469	-0.0183
755.8225	0.0164
755.9981	0.0223
756.1736	-0.0059
756.3492	-0.0065
756.5248	0.0133
756.7003	-0.0063
756.8758	0.0058
757.0513	0.004
757.2267	0.0132
757.4022	0.0072
757.5776	-0.0032
757.753	0.0174
757.9284	-0
758.1038	0.022
758.2791	0.0146
758.4545	-0.0012
758.6298	-0.0029
758.8051	-0.0167
758.9803	0.0138
759.1556	-0.0121
759.3308	-0.0127
759.506	-0.0055
759.6812	-0.007
759.8564	-0.0122
760.0316	-0.0133
760.2067	0.0216
760.3819	0.0118
760.557	0.0029
760.732	-0.0065
760.9071	0.0194
761.0821	-0.0153
761.2572	0.0192
761.4322	0.0015
761.6072	-0.0054
761.7821	-0.0371
761.9571	0.0025
762.132	0.0344
762.3069	0.02
762.4818	0.0356
762.6567	-0.0062
762.8316	0.0198
763.0064	0.0013
763.1812	0.0085
763.356	-0.0209
763.5308	0.035
763.7055	-0.004
763.8803	-0.0006
764.055	0.0134
764.2297	-0.0093
764.4044	0.0119
764.579	0.005
764.7537	-0.0093
764.9283	0.0028
765.1029	0.0197
765.2775	0.0108
765.4521	0.0261
765.6266	0.0088
765.8011	0.019
765.9756	0.0087
766.1501	0.0046
766.3246	0.0368
766.4991	0.0181
766.6735	0.0281
766.8479	0.0326
767.0223	-0.0255
767.1967	0.0022
767.371	0.0359
767.5454	0.0123
767.7197	0.016
767.894	0.021
768.0683	0.0094
768.2425	0.0049
768.4168	-0.005
768.591	0.0088
768.7652	-0.0206
768.9394	-0.0403
769.1135	0.0008
769.2877	0.0029
769.4618	0.0111
769.6359	-0.0087
769.81	0.0012
769.984	-0.0045
770.1581	0.0129
770.3321	0.024
770.5061	-0.0043
770.6801	0.008
770.8541	-0.0109
771.028	0.0438
771.202	0.0204
771.3759	0.0145
771.5498	0.0149
771.7236	0.0206
771.8975	0.0527
772.0713	0.0106
772.2451	-0.014
772.4189	-0.0068
772.5927	-0.0187
772.7665	0.0065
772.9402	-0.0011
773.1139	-0.0163
773.2876	0.0243
773.4613	-0.0023
773.635	0.0243
773.8086	0.0114
773.9822	0.0221
774.1558	0.0371
774.3294	-0.0271
774.503	0.0293
774.6765	0.0259
774.8501	0.0223
775.0236	0.0305
775.1971	0.0015
775.3705	0.0314
775.544	-0.0251
775.7174	0.0278
775.8908	0.0223
776.0642	-0.0074
776.2376	0.0292
776.4109	0.0219
776.5843	-0.0044
776.7576	0.0128
776.9309	0.0531
777.1041	-0.0844
777.2774	-0.0042
777.4506	0.0086
777.6238	-0.045
777.797	0.0343
777.9702	0.0228
778.1434	0.0049
778.3165	-0.0412
778.4896	-0.0382
778.6627	0.0084
778.8358	-0.0115
779.0089	0.006
779.1819	0.0346
779.3549	0.0117
779.5279	-0.0129
779.7009	0.0227
779.8739	0.0847
780.0468	0.0291
780.2197	0.0114
780.3926	-0.0149
780.5655	0.0247
780.7384	-0.0011
780.9112	0.0275
781.0841	0.0098
781.2569	-0.0005
781.4297	0.0379
781.6024	0.0365
781.7752	0.0358
781.9479	0.0653
782.1206	0.0096
782.2933	-0.0107
782.466	-0.0038
782.6386	-0.0052
782.8113	-0.0098
782.9839	0.0029
783.1565	0.0397
783.329	-0.0109
783.5016	0.0011
783.6741	-0.0121
783.8466	0.0371
784.0191	0.0103
784.1916	-0.0193
784.3641	-0.0424
784.5365	0.0202
784.7089	-0.0497
784.8813	0.0941
785.0537	-0.0109
785.2261	-0.0059
785.3984	0.0204
785.5707	-0.0067
785.743	0.0491
785.9153	0.0089
786.0876	-0.0372
786.2598	-0.0023
786.432	0.0029
786.6042	0.066
786.7764	-0.018
786.9486	-0.0275
787.1207	0.0221
787.2928	0.0414
787.4649	-0.0026
787.637	0.0077
787.8091	0.0058
787.9811	0.0415
788.1532	0.0181
788.3252	0.0301
788.4972	0.0128
788.6691	0.0228
788.8411	0.0091
789.013	0.0205
789.1849	0.0114
789.3568	-0.017
789.5287	0.0678
789.7005	-0.0186
789.8723	-0.0504
790.0442	-0.0381
790.2159	0.0332
790.3877	0.0518
790.5595	0.0179
790.7312	-0.0253
790.9029	0.0051
791.0746	0.0402
791.2463	-0.0707
791.4179	-0.0136
791.5896	0.0149
791.7612	-0.0206
791.9328	0.0458
792.1044	-0.008
792.2759	-0.0602
792.4474	0.0287
792.619	-0.0135
792.7905	0.0635
792.9619	0.0469
793.1334	0.0682
793.3048	0.0402
793.4762	0.0162
793.6476	-0.0422
793.819	0.004
793.9904	0.0073
794.1617	0.0056
794.333	0.0093
794.5043	0.0549
794.6756	0.0134
794.8469	0.0558
795.0181	0.057
795.1893	0.0438
795.3605	0.0355
795.5317	0.0145
795.7029	-0.0125
795.874	-0.001
796.0452	0.0381
796.2163	0.0408
796.3873	0.0423
796.5584	0.0712
796.7294	0.0212
796.9005	0.0349
797.0715	-0.0818
797.2425	0.0808
797.4134	0.0222
797.5844	0.0889
797.7553	0.005
797.9262	0.0871
798.0971	0.0136
798.2679	0.021
798.4388	-0.0101
798.6096	0.0597
798.7804	0.0122
798.9512	0.072
799.122	-0.0065
799.2927	0.0989
799.4635	-0.0246
799.6342	-0.0493
799.8049	0.074
799.9755	-0.0606
800.1462	0.055
800.3168	0.068
800.4874	-0.0191
800.658	0.0377
800.8286	-0.0078
800.9991	0.0462
801.1696	-0.035
801.3402	-0.0022
801.5106	-0.0207
801.6811	-0.0504
801.8516	0.0709
802.022	0.0434
802.1924	-0.0284
802.3628	0.0261
802.5332	0.1304
802.7035	0.0814
802.8739	0.0217
803.0442	-0.0411
803.2145	-0.0082
803.3847	0.0254
803.555	0.0322
803.7252	-0.0037
803.8954	0.0048
804.0656	0.0279
804.2358	0.0184
804.4059	0.0985
804.5761	0.0784
804.7462	0.0321
804.9163	0.0826
805.0864	0.0016
805.2564	0.0251
805.4264	-0.0099
805.5965	0.0396
805.7665	0.0014
805.9364	0.0173
806.1064	0.0403
806.2763	0.0638
806.4462	0.0018
806.6161	0.0133
806.786	0.0418
806.9559	0.0375
807.1257	0.0293
807.2955	-0.043
807.4653	0.0244
807.6351	0.1169
807.8048	-0.0015
807.9746	0.0189
808.1443	0.015
808.314	0.0202
808.4837	0.0834
808.6533	-0.0032
808.8229	0.0819
808.9926	0.0397
809.1622	0.0203
809.3317	0.0121
809.5013	0.0243
809.6708	-0.0228
809.8403	0.0387
810.0098	0.0506
810.1793	-0.066
810.3488	-0.0097
810.5182	0.1652
810.6876	0.0757
810.857	0.0986
811.0264	-0.0589
811.1958	0.0791
811.3651	0.1211
811.5344	-0.0042
811.7037	-0.0444
811.873	0.0927
812.0422	0.0086
812.2115	0.0677
812.3807	-0.0255
812.5499	0.125
812.7191	-0.2076
812.8882	0.0125
813.0574	0.0379
813.2265	-0.0657
813.3956	0.0436
813.5646	0.0401
813.7337	0.0759
813.9027	-0.1165
814.0718	0.0013
814.2407	0.0769
814.4097	0.0097
814.5787	0.0336
814.7476	0.0394
814.9165	0.0776
815.0854	-0.0634
815.2543	0.0993
815.4232	0.096
815.592	0.0257
815.7608	-0.1256
815.9296	-0.0113
816.0984	0.2949
816.2671	-0.2732
816.4359	0.102
816.6046	0.1061
816.7733	0.0545
816.942	-0.1267
817.1106	0.056
817.2793	-0.0002
817.4479	0.034
817.6165	0.0471
817.785	0.0924
817.9536	-0.057
818.1221	0.0103
818.2906	-0.0907
818.4591	0.0491
818.6276	0.0435
818.7961	0.0647
818.9645	0.0868
819.1329	0.428
819.3013	-0.0339
819.4697	0.1631
819.638	0.1118
819.8064	0.1747
819.9747	0.0746
820.143	-0.1022
820.3113	-0.0156
820.4795	0.0337
820.6477	0.1868
820.816	0.0814
820.9842	0.1117
821.1523	0.1039
821.3205	0.1311
821.4886	-0.0788
821.6567	-0.0393
821.8248	0.1678
821.9929	-0.1336
822.1609	-0.1014
822.329	0.0027
822.497	0.0632
822.665	-0.0161
822.833	0.0035
823.0009	-0.0038
823.1688	0.1098
823.3367	-0.1863
823.5046	0.1629
823.6725	0.1239
823.8404	0.0724
824.0082	-0.0832
824.176	-0.074
824.3438	0.1882
824.5116	-0.0035
824.6793	0.159
824.847	0.213
825.0147	0.3024
825.1824	0.1029
825.3501	0.2875
825.5177	0.0103
825.6854	-0.1754
825.853	-0.014
826.0206	0.1335
826.1881	0.0259
826.3557	0.131
826.5232	0.1947
826.6907	0.0392
826.8582	-0.1026
827.0257	0.0631
827.1931	0.065
827.3605	-0.099
827.528	-0.0977
827.6953	-0.0956
827.8627	-0.0227
828.03	-0.0715
828.1974	0.0133
828.3647	-0.0213
828.532	-0.0251
828.6992	0.0413
828.8665	-0.1484
829.0337	0.0821
829.2009	-0.1401
829.3681	-0.028
829.5352	-0.0704
829.7024	0.3386
829.8695	0.1366
830.0366	0.1096
830.2037	0.1161
830.3707	0.1118
830.5378	0.2652
830.7048	-0.0185
830.8718	0.2569
831.0388	0.1432
831.2057	0.6211
831.3727	-0.4718
831.5396	-0.01
831.7065	-0.2228
831.8734	0.3153
832.0402	0.2089
832.2071	-0.2299
832.3739	-0.2742
832.5407	-1.5895
832.7075	0.0137
832.8742	0.3277
833.041	0.3072
833.2077	0.2684
833.3744	0.1051
833.541	0.362
833.7077	-0.0953
833.8743	0.262
834.0409	0.0066
834.2075	0.1173
834.3741	0.0211
834.5407	0.1702
834.7072	-0.0458
834.8737	0.011
835.0402	0.1349
835.2067	-0.0845
835.3731	-0.07
835.5395	0.0589
835.706	0.4629
835.8723	-0.123
836.0387	0.4005
836.2051	0.2018
836.3714	-0.052
836.5377	0.0588
836.704	0.1765
836.8703	-0.0154
837.0365	0.2109
837.2027	0.1173
837.3689	0.0203
837.5351	0.2205
837.7013	-0.1911
837.8674	-0.1357
838.0335	-0.0353
838.1997	0.2196
838.3657	0.1933
838.5318	-0.4525
838.6978	-0
838.8639	-0.1728
839.0299	-0.1192
839.1958	-0.076
839.3618	0.1772
839.5277	-0.0427
839.6937	0.1467
839.8596	0.0561
840.0254	-0.1488
840.1913	-0.0015
840.3571	0.0092
840.523	-0
840.6888	-0.141
840.8545	-0.0025
841.0203	0.0158
841.186	-0.1751
841.3517	0.0809
841.5174	0.0496
841.6831	-0.1482
841.8488	0.0724
842.0144	-0.1192
842.18	0.1362
842.3456	-0.236
842.5112	-0
842.6767	0.0608
842.8422	-0
843.0077	0.0986
843.1732	-0.4242
843.3387	-0
843.5042	-0
843.6696	-0
843.835	0.0666
844.0004	-0.0668
844.1657	-0.4694
844.3311	-0.0545
844.4964	-0.169
844.6617	0.145
844.827	-0
844.9923	0.2307
845.1575	-0.2315
845.3227	0.3061
845.4879	-0.2291
845.6531	-0.2238
845.8183	-0
845.9834	0.8079
846.1485	0.7271
846.3136	0.0744
846.4787	0.0875
846.6438	0.1389
846.8088	0.473
846.9738	-0
847.1388	0.1569
847.3038	0.1299
847.4687	-0
847.6337	-0.476
847.7986	-0.0151
847.9635	0.021
848.1284	-0
848.2932	0.7169
848.458	-0
848.6228	0.248
848.7876	-0
848.9524	-0
849.1172	-1.4812
849.2819	-0.7962
849.4466	2.0309
849.6113	1.1648
849.7759	-0.3338
849.9406	-0.0567
850.1052	-0.6243
850.2698	-0.3072
850.4344	-0.6207
850.599	-0.0146
850.7635	0.509
850.928	0.1853
851.0925	0.4704
851.257	0.446
851.4215	-0
851.5859	-0.0275
851.7503	-0
851.9147	-0.5144
852.0791	0.2621
852.2434	-0.0197
852.4078	-0
852.5721	0.7928
852.7364	-0.2713
852.9007	-0.1477
853.0649	-0
853.2291	0.0182
853.3934	-0
853.5575	0.1027
853.7217	0.2116
853.8859	-0.078
854.05	-0.269
854.2141	0.2352
854.3782	-0
854.5423	0.0788
854.7063	0.3128
854.8703	0.0556
855.0343	-0.0717
855.1983	0.2462
855.3623	0.1853
855.5262	-0.048
855.6901	-0
855.854	0.3662
856.0179	-0.3564
856.1818	-0
856.3456	0.1275
856.5094	-0.7354
856.6732	-0.4604
856.837	-1.301
857.0008	-0
857.1645	-0
857.3282	-0.3084
857.4919	0.1357
857.6556	0.0501
857.8192	-0.0223
857.9828	-0.0918
858.1465	-0
858.31	-0
858.4736	-0.0734
858.6372	-0.0667
858.8007	-0.001
858.9642	0.1487
859.1277	0.4087
859.2911	-0.7402
859.4546	-0
859.618	0.5341
859.7814	-0.2954
859.9448	-0.2223
860.1081	-0
860.2715	-1.676
860.4348	-0
860.5981	1.0218
860.7614	-0
860.9246	-0.2709
861.0879	0.177
861.2511	-0
861.4143	-0.5051
861.5774	-0.0513
861.7406	-0.04
861.9037	-0
862.0668	-0.9262
862.2299	0.7028
862.393	-0
862.556	-0.158
862.7191	-0.1011
862.8821	0.3162
863.0451	0.38
863.208	-0.3096
863.371	-0.2327
863.5339	0.3131
863.6968	-0.0114
863.8597	-0
864.0225	-0.3737
864.1854	0.3201
864.3482	-0
864.511	0.1027
864.6737	-0.2014
864.8365	0.2087
864.9992	-0
865.1619	0.1646
865.3246	-1.5366
865.4873	-0
865.65	-0.0807
865.8126	0.3467
865.9752	-0.0816
866.1378	-0.0169
866.3004	-0.2311
866.4629	-1.5278
866.6254	-0.5121
866.7879	-0.1125
866.9504	-0.2455
867.1129	-0.3228
867.2753	-0.0326
867.4377	-0.174
867.6001	-0.0891
867.7625	0.1715
867.9249	0.0601
868.0872	0.209
868.2495	-0
868.4118	0.9202
868.5741	-0
868.7363	-0.8344
868.8986	-0.0891
869.0608	-0
869.223	-0.4868
869.3851	-0
869.5473	-0
869.7094	-0
869.8715	-0.8717
870.0336	0.2916
870.1957	-0.976
870.3577	0.3896
870.5197	-0.4165
870.6817	-0.4753
870.8437	-0.42
871.0057	0.2123
871.1676	0.3489
871.3295	-0
871.4914	-0.7482
871.6533	0.0733
871.8151	1.007
871.977	-0.0784
872.1388	0.6229
872.3006	-0.3096
872.4623	-0
872.6241	-0
872.7858	-0.2277
872.9475	-0
873.1092	0.0205
873.2709	0.5032
873.4325	-2.1566
873.5941	-0
873.7557	-0
873.9173	0.1558
874.0789	0.2035
874.2404	-0
874.4019	0.0837
874.5634	-0
874.7249	-0
874.8863	-0.127
875.0478	-0.2403
875.2092	-0
875.3706	-0
875.5319	-0
875.6933	-0
875.8546	0.1358
876.0159	0.3267
876.1772	-0
876.3385	-0
876.4997	0.3968
876.6609	-0
876.8221	-0
876.9833	-0.4153
877.1445	0.5431
877.3056	-0.6158
877.4667	-1.1131
877.6278	-0
877.7889	-0.016
877.9499	-0
878.111	-0.6535
878.272	-0
878.433	0.1015
878.5939	0.8264
878.7549	-0
878.9158	0.4099
879.0767	-0
879.2376	-0.3725
879.3984	1.2035
879.5593	-0
879.7201	-1.774
879.8809	-0
880.0417	-0.16
880.2024	1.4556
880.3632	-0.272
880.5239	-0.3045
880.6846	0.1097
880.8452	0.175
881.0059	-0
881.1665	0.0383
881.3271	0.7196
881.4877	0.7101
881.6483	-0
881.8088	-0
881.9693	-1.3447
882.1298	-1.3447
882.2903	-1.3447
