Data from D4ACN5uM460nmA_Absorbance_13-05-40-896.txt Node
Date: Fri Feb 21 13:05:40 GMT 2025
User: LASERRRRR
Spectrometer: FLMT03099
Trigger mode: 0
Integration Time (sec): 1.500000E-2
Scans to average: 1
Electric dark correction enabled: true
Nonlinearity correction enabled: false
Boxcar width: 0
XAxis mode: Wavelengths
Number of Pixels in Spectrum: 3648
>>>>>Begin Spectral Data<<<<<
179.3399	0.0195
179.5586	0.0195
179.7771	0.0195
179.9957	-0.2157
180.2143	-1.2448
180.4329	-0.1272
180.6514	-0
180.8699	0.1429
181.0885	-0.3022
181.307	-0.017
181.5255	-0.0223
181.744	-0.1206
181.9625	-0
182.181	0.0486
182.3994	-0.2598
182.6179	-0.4847
182.8363	-0
183.0547	0.1712
183.2732	0.2291
183.4916	0.0626
183.71	0.2321
183.9284	0.0483
184.1467	-0.105
184.3651	0.0325
184.5835	0.2556
184.8018	0.1585
185.0201	-0.0364
185.2385	0.1986
185.4568	0.1751
185.6751	0.0513
185.8934	0.1557
186.1117	0.1773
186.3299	0.1752
186.5482	0.1753
186.7664	0.0186
186.9847	-0.0122
187.2029	0.0232
187.4211	0.0236
187.6393	0.0342
187.8575	0.1844
188.0757	0.2977
188.2939	0.0818
188.512	0.3709
188.7302	0.3297
188.9483	0.1997
189.1665	0.6912
189.3846	0.1533
189.6027	0.143
189.8208	0.2684
190.0389	0.2251
190.257	0.0859
190.475	0.0091
190.6931	0.1247
190.9111	0.1505
191.1292	0.1476
191.3472	0.1684
191.5652	0.236
191.7832	0.1586
192.0012	0.1612
192.2192	0.0875
192.4371	0.167
192.6551	0.1738
192.873	0.0414
193.091	0.268
193.3089	0.2109
193.5268	0.2357
193.7447	0.1279
193.9626	0.2059
194.1805	0.2255
194.3984	0.1489
194.6162	0.1727
194.8341	0.3038
195.0519	0.1981
195.2697	0.2443
195.4875	0.2023
195.7054	0.2622
195.9231	0.2061
196.1409	0.27
196.3587	0.2725
196.5765	0.2771
196.7942	0.3471
197.012	0.3226
197.2297	0.3807
197.4474	0.4062
197.6651	0.2706
197.8828	0.3179
198.1005	0.3738
198.3182	0.359
198.5358	0.3616
198.7535	0.3375
198.9711	0.3799
199.1888	0.3305
199.4064	0.3946
199.624	0.3634
199.8416	0.3516
200.0592	0.3829
200.2767	0.3864
200.4943	0.4025
200.7119	0.4346
200.9294	0.4449
201.1469	0.4178
201.3645	0.4474
201.582	0.4013
201.7995	0.3999
202.017	0.4293
202.2344	0.4232
202.4519	0.3864
202.6694	0.3855
202.8868	0.412
203.1042	0.4154
203.3217	0.3735
203.5391	0.3944
203.7565	0.378
203.9739	0.3978
204.1913	0.3549
204.4086	0.3461
204.626	0.3542
204.8433	0.3454
205.0607	0.3296
205.278	0.3676
205.4953	0.3354
205.7126	0.3618
205.9299	0.3294
206.1472	0.322
206.3644	0.3857
206.5817	0.3436
206.7989	0.333
207.0162	0.2927
207.2334	0.3195
207.4506	0.3103
207.6678	0.3225
207.885	0.3119
208.1022	0.3274
208.3194	0.2882
208.5365	0.2963
208.7537	0.3071
208.9708	0.3004
209.1879	0.306
209.405	0.2976
209.6222	0.2911
209.8392	0.2796
210.0563	0.2865
210.2734	0.2659
210.4905	0.2799
210.7075	0.2731
210.9245	0.2587
211.1416	0.3
211.3586	0.2728
211.5756	0.2591
211.7926	0.2579
212.0096	0.2707
212.2265	0.2722
212.4435	0.2724
212.6604	0.2514
212.8774	0.2574
213.0943	0.2598
213.3112	0.2564
213.5281	0.2554
213.745	0.2555
213.9619	0.2566
214.1788	0.2472
214.3956	0.2531
214.6125	0.2607
214.8293	0.254
215.0461	0.2607
215.2629	0.2502
215.4798	0.2341
215.6965	0.2474
215.9133	0.2535
216.1301	0.2436
216.3469	0.2532
216.5636	0.2437
216.7803	0.2576
216.9971	0.2572
217.2138	0.2614
217.4305	0.253
217.6472	0.2466
217.8639	0.2506
218.0805	0.2694
218.2972	0.2564
218.5138	0.2541
218.7305	0.2485
218.9471	0.2577
219.1637	0.2603
219.3803	0.2711
219.5969	0.2562
219.8135	0.254
220.0301	0.2704
220.2466	0.2605
220.4632	0.2665
220.6797	0.2691
220.8962	0.2537
221.1127	0.2734
221.3292	0.28
221.5457	0.2832
221.7622	0.2743
221.9787	0.29
222.1951	0.2585
222.4116	0.2862
222.628	0.3006
222.8444	0.2874
223.0608	0.2807
223.2772	0.2969
223.4936	0.2798
223.71	0.2889
223.9264	0.293
224.1427	0.2975
224.3591	0.2864
224.5754	0.2992
224.7917	0.2846
225.008	0.2964
225.2243	0.3073
225.4406	0.2927
225.6569	0.307
225.8732	0.3074
226.0894	0.3193
226.3057	0.3104
226.5219	0.3053
226.7381	0.3232
226.9543	0.31
227.1705	0.3225
227.3867	0.3248
227.6029	0.3394
227.8191	0.3393
228.0352	0.3453
228.2513	0.3546
228.4675	0.3425
228.6836	0.342
228.8997	0.3568
229.1158	0.3564
229.3319	0.357
229.548	0.3477
229.764	0.3647
229.9801	0.3677
230.1961	0.3786
230.4121	0.3753
230.6282	0.3717
230.8442	0.3897
231.0602	0.3896
231.2761	0.3856
231.4921	0.393
231.7081	0.3956
231.924	0.4093
232.14	0.4025
232.3559	0.403
232.5718	0.4048
232.7877	0.415
233.0036	0.4045
233.2195	0.4129
233.4353	0.4118
233.6512	0.4153
233.867	0.4283
234.0829	0.4188
234.2987	0.4238
234.5145	0.436
234.7303	0.4352
234.9461	0.4416
235.1619	0.4387
235.3776	0.4332
235.5934	0.4335
235.8091	0.4332
236.0249	0.454
236.2406	0.4417
236.4563	0.434
236.672	0.4514
236.8877	0.4416
237.1034	0.4468
237.319	0.4473
237.5347	0.4527
237.7503	0.4432
237.966	0.463
238.1816	0.4553
238.3972	0.4603
238.6128	0.4697
238.8284	0.4698
239.0439	0.4597
239.2595	0.4549
239.475	0.4495
239.6906	0.4575
239.9061	0.4544
240.1216	0.4571
240.3371	0.4661
240.5526	0.4576
240.7681	0.4657
240.9836	0.4603
241.199	0.4534
241.4145	0.4459
241.6299	0.4523
241.8453	0.4395
242.0607	0.436
242.2761	0.4314
242.4915	0.4227
242.7069	0.4175
242.9223	0.4211
243.1376	0.406
243.353	0.4083
243.5683	0.3886
243.7836	0.3843
243.9989	0.3749
244.2142	0.3652
244.4295	0.3582
244.6448	0.3543
244.86	0.3538
245.0753	0.3401
245.2905	0.3351
245.5057	0.3303
245.721	0.3312
245.9362	0.3221
246.1514	0.3099
246.3665	0.307
246.5817	0.2972
246.7969	0.299
247.012	0.2881
247.2271	0.2881
247.4423	0.2829
247.6574	0.2726
247.8725	0.2672
248.0876	0.267
248.3026	0.2611
248.5177	0.252
248.7328	0.2546
248.9478	0.2501
249.1628	0.2429
249.3779	0.2369
249.5929	0.2357
249.8079	0.2417
250.0228	0.2307
250.2378	0.2223
250.4528	0.2277
250.6677	0.2221
250.8827	0.2163
251.0976	0.2151
251.3125	0.2147
251.5274	0.2081
251.7423	0.209
251.9572	0.2026
252.172	0.2082
252.3869	0.2099
252.6017	0.2052
252.8166	0.1995
253.0314	0.196
253.2462	0.1899
253.461	0.1932
253.6758	0.1945
253.8906	0.1928
254.1053	0.1941
254.3201	0.1943
254.5348	0.1807
254.7496	0.1817
254.9643	0.1893
255.179	0.1861
255.3937	0.1859
255.6083	0.1845
255.823	0.1839
256.0377	0.1805
256.2523	0.1823
256.467	0.1828
256.6816	0.1799
256.8962	0.1819
257.1108	0.1809
257.3254	0.178
257.54	0.1773
257.7545	0.1848
257.9691	0.1841
258.1836	0.1714
258.3981	0.177
258.6127	0.1734
258.8272	0.1782
259.0417	0.1746
259.2561	0.1817
259.4706	0.1722
259.6851	0.1728
259.8995	0.1746
260.114	0.1727
260.3284	0.1682
260.5428	0.1784
260.7572	0.1767
260.9716	0.1794
261.186	0.17
261.4003	0.1738
261.6147	0.1711
261.829	0.1769
262.0433	0.1773
262.2577	0.1805
262.472	0.1671
262.6863	0.1802
262.9005	0.1762
263.1148	0.1705
263.3291	0.1755
263.5433	0.1807
263.7576	0.1714
263.9718	0.1746
264.186	0.1744
264.4002	0.1777
264.6144	0.1802
264.8286	0.1788
265.0427	0.1735
265.2569	0.1818
265.471	0.1746
265.6851	0.1758
265.8993	0.1753
266.1134	0.1742
266.3275	0.1703
266.5415	0.1728
266.7556	0.18
266.9697	0.1782
267.1837	0.1785
267.3978	0.1831
267.6118	0.1647
267.8258	0.1734
268.0398	0.1742
268.2538	0.1787
268.4677	0.1712
268.6817	0.175
268.8957	0.169
269.1096	0.1623
269.3235	0.1736
269.5374	0.1729
269.7514	0.1744
269.9652	0.1684
270.1791	0.1648
270.393	0.1671
270.6068	0.1664
270.8207	0.1631
271.0345	0.1634
271.2483	0.1642
271.4622	0.1732
271.676	0.164
271.8897	0.169
272.1035	0.1696
272.3173	0.1689
272.531	0.1696
272.7448	0.1623
272.9585	0.1546
273.1722	0.1626
273.3859	0.1653
273.5996	0.1649
273.8133	0.1643
274.0269	0.1617
274.2406	0.165
274.4542	0.1659
274.6679	0.1683
274.8815	0.1633
275.0951	0.1699
275.3087	0.171
275.5223	0.165
275.7358	0.1658
275.9494	0.1679
276.1629	0.1708
276.3765	0.1703
276.59	0.1642
276.8035	0.1631
277.017	0.1701
277.2305	0.1704
277.444	0.1679
277.6574	0.1695
277.8709	0.1753
278.0843	0.1688
278.2978	0.1712
278.5112	0.1682
278.7246	0.1651
278.938	0.1752
279.1513	0.1724
279.3647	0.1736
279.5781	0.1722
279.7914	0.1764
280.0047	0.171
280.2181	0.1753
280.4314	0.172
280.6447	0.1777
280.8579	0.1739
281.0712	0.1744
281.2845	0.1791
281.4977	0.1781
281.711	0.173
281.9242	0.1752
282.1374	0.173
282.3506	0.1728
282.5638	0.1773
282.7769	0.171
282.9901	0.1753
283.2033	0.1794
283.4164	0.1774
283.6295	0.1801
283.8426	0.178
284.0557	0.1814
284.2688	0.185
284.4819	0.1734
284.695	0.1911
284.908	0.1787
285.1211	0.1822
285.3341	0.1861
285.5471	0.1893
285.7601	0.1842
285.9731	0.1896
286.1861	0.1862
286.3991	0.1874
286.612	0.186
286.825	0.1848
287.0379	0.1854
287.2508	0.1895
287.4637	0.1865
287.6766	0.1913
287.8895	0.1907
288.1024	0.1868
288.3152	0.191
288.5281	0.1842
288.7409	0.1899
288.9538	0.1902
289.1666	0.1928
289.3794	0.1907
289.5922	0.1824
289.8049	0.1871
290.0177	0.1903
290.2304	0.1874
290.4432	0.1924
290.6559	0.1904
290.8686	0.1946
291.0813	0.192
291.294	0.1884
291.5067	0.1929
291.7194	0.1956
291.932	0.1882
292.1447	0.1897
292.3573	0.1948
292.5699	0.1923
292.7825	0.1897
292.9951	0.1939
293.2077	0.1919
293.4203	0.1962
293.6328	0.1916
293.8454	0.1899
294.0579	0.1926
294.2704	0.1982
294.4829	0.1938
294.6954	0.1988
294.9079	0.1903
295.1204	0.1917
295.3328	0.2004
295.5453	0.1878
295.7577	0.1915
295.9701	0.1991
296.1825	0.1981
296.3949	0.1937
296.6073	0.1897
296.8197	0.1942
297.0321	0.1971
297.2444	0.1852
297.4567	0.1997
297.6691	0.1904
297.8814	0.1926
298.0937	0.2005
298.306	0.1892
298.5182	0.2015
298.7305	0.1959
298.9428	0.192
299.155	0.1933
299.3672	0.1895
299.5794	0.1974
299.7916	0.1965
300.0038	0.1961
300.216	0.1953
300.4282	0.1969
300.6403	0.2043
300.8525	0.1899
301.0646	0.1881
301.2767	0.1923
301.4888	0.19
301.7009	0.194
301.913	0.1948
302.125	0.1914
302.3371	0.1904
302.5491	0.1964
302.7612	0.1965
302.9732	0.1983
303.1852	0.1967
303.3972	0.1925
303.6092	0.1917
303.8211	0.194
304.0331	0.1944
304.245	0.1848
304.457	0.1906
304.6689	0.1912
304.8808	0.182
305.0927	0.187
305.3046	0.1859
305.5164	0.1842
305.7283	0.182
305.9401	0.1769
306.152	0.1773
306.3638	0.1763
306.5756	0.1818
306.7874	0.1731
306.9992	0.1781
307.2109	0.1753
307.4227	0.1744
307.6344	0.1741
307.8462	0.1704
308.0579	0.1677
308.2696	0.1668
308.4813	0.1655
308.693	0.1638
308.9046	0.1658
309.1163	0.1581
309.328	0.1567
309.5396	0.1538
309.7512	0.156
309.9628	0.1531
310.1744	0.1469
310.386	0.1473
310.5976	0.1517
310.8091	0.1522
311.0207	0.1448
311.2322	0.1403
311.4437	0.1451
311.6552	0.1414
311.8667	0.1459
312.0782	0.1337
312.2897	0.1374
312.5012	0.1336
312.7126	0.1341
312.924	0.1391
313.1355	0.1299
313.3469	0.1306
313.5583	0.1296
313.7696	0.1277
313.981	0.1369
314.1924	0.1289
314.4037	0.1296
314.6151	0.1242
314.8264	0.131
315.0377	0.1237
315.249	0.1279
315.4603	0.1142
315.6716	0.1213
315.8828	0.1203
316.0941	0.1221
316.3053	0.1191
316.5165	0.1215
316.7277	0.1228
316.9389	0.1215
317.1501	0.1178
317.3613	0.1178
317.5724	0.1167
317.7836	0.1141
317.9947	0.1198
318.2058	0.1169
318.417	0.1195
318.6281	0.1121
318.8391	0.1209
319.0502	0.1262
319.2613	0.1168
319.4723	0.114
319.6834	0.1184
319.8944	0.1155
320.1054	0.1181
320.3164	0.1122
320.5274	0.1174
320.7383	0.1244
320.9493	0.1153
321.1602	0.1169
321.3712	0.1175
321.5821	0.1135
321.793	0.1194
322.0039	0.1187
322.2148	0.1239
322.4257	0.1138
322.6365	0.1115
322.8474	0.1218
323.0582	0.1218
323.269	0.1245
323.4798	0.1227
323.6906	0.1176
323.9014	0.1169
324.1122	0.1156
324.3229	0.1206
324.5337	0.1179
324.7444	0.1212
324.9551	0.1258
325.1658	0.1213
325.3765	0.1244
325.5872	0.1211
325.7979	0.1195
326.0085	0.121
326.2192	0.121
326.4298	0.1206
326.6404	0.1227
326.851	0.1213
327.0616	0.1241
327.2722	0.1188
327.4828	0.1259
327.6933	0.1304
327.9039	0.1242
328.1144	0.1245
328.3249	0.1234
328.5354	0.1242
328.7459	0.1303
328.9564	0.1272
329.1669	0.1252
329.3773	0.1272
329.5878	0.1267
329.7982	0.1273
330.0086	0.1275
330.219	0.1232
330.4294	0.1234
330.6398	0.1258
330.8502	0.1256
331.0605	0.1212
331.2708	0.122
331.4812	0.125
331.6915	0.1259
331.9018	0.1243
332.1121	0.1315
332.3224	0.13
332.5326	0.1245
332.7429	0.1267
332.9531	0.132
333.1633	0.1282
333.3735	0.124
333.5837	0.1267
333.7939	0.13
334.0041	0.1302
334.2143	0.1198
334.4244	0.1304
334.6346	0.1291
334.8447	0.1324
335.0548	0.1391
335.2649	0.134
335.475	0.1348
335.685	0.1319
335.8951	0.1282
336.1051	0.1388
336.3152	0.1332
336.5252	0.1336
336.7352	0.1341
336.9452	0.1317
337.1552	0.1317
337.3652	0.1295
337.5751	0.132
337.7851	0.1322
337.995	0.1407
338.2049	0.1311
338.4148	0.1402
338.6247	0.1358
338.8346	0.1334
339.0445	0.1334
339.2543	0.1383
339.4642	0.1341
339.674	0.1357
339.8838	0.1408
340.0936	0.1374
340.3034	0.1386
340.5132	0.1335
340.7229	0.1405
340.9327	0.1458
341.1424	0.1401
341.3522	0.1312
341.5619	0.1356
341.7716	0.1478
341.9813	0.1435
342.1909	0.1455
342.4006	0.1486
342.6102	0.1409
342.8199	0.1409
343.0295	0.1412
343.2391	0.1428
343.4487	0.1435
343.6583	0.1492
343.8679	0.1433
344.0774	0.1412
344.287	0.146
344.4965	0.1485
344.706	0.1487
344.9155	0.1486
345.125	0.1435
345.3345	0.1636
345.544	0.1544
345.7534	0.1503
345.9629	0.1556
346.1723	0.154
346.3817	0.1572
346.5911	0.1591
346.8005	0.1593
347.0099	0.154
347.2193	0.161
347.4286	0.16
347.638	0.1587
347.8473	0.1611
348.0566	0.1576
348.2659	0.1618
348.4752	0.1601
348.6845	0.1603
348.8937	0.157
349.103	0.1623
349.3122	0.1631
349.5214	0.1632
349.7306	0.1694
349.9398	0.1684
350.149	0.1598
350.3582	0.1593
350.5674	0.17
350.7765	0.1697
350.9856	0.1665
351.1948	0.1718
351.4039	0.167
351.613	0.1725
351.822	0.178
352.0311	0.1694
352.2402	0.1758
352.4492	0.1758
352.6582	0.1717
352.8672	0.1812
353.0762	0.171
353.2852	0.1748
353.4942	0.1842
353.7032	0.1712
353.9121	0.1804
354.1211	0.1779
354.33	0.186
354.5389	0.1862
354.7478	0.1883
354.9567	0.183
355.1655	0.1904
355.3744	0.1803
355.5833	0.1857
355.7921	0.1943
356.0009	0.1852
356.2097	0.1804
356.4185	0.1825
356.6273	0.1906
356.8361	0.1976
357.0448	0.1865
357.2536	0.1905
357.4623	0.1865
357.671	0.1931
357.8797	0.1885
358.0884	0.1903
358.2971	0.1836
358.5057	0.1959
358.7144	0.2039
358.923	0.1982
359.1316	0.1996
359.3402	0.1993
359.5488	0.1986
359.7574	0.2066
359.966	0.2003
360.1746	0.1975
360.3831	0.2058
360.5916	0.2078
360.8002	0.2129
361.0087	0.2123
361.2172	0.2075
361.4256	0.2078
361.6341	0.2114
361.8426	0.2097
362.051	0.2126
362.2594	0.2062
362.4678	0.2098
362.6762	0.2207
362.8846	0.2173
363.093	0.222
363.3014	0.2204
363.5097	0.2155
363.718	0.2226
363.9264	0.2288
364.1347	0.222
364.343	0.2267
364.5513	0.229
364.7595	0.2338
364.9678	0.219
365.176	0.2261
365.3842	0.2297
365.5925	0.231
365.8007	0.2332
366.0089	0.2374
366.217	0.2342
366.4252	0.2354
366.6333	0.2353
366.8415	0.2388
367.0496	0.2388
367.2577	0.2352
367.4658	0.2344
367.6739	0.2437
367.882	0.2506
368.09	0.2383
368.2981	0.2469
368.5061	0.2495
368.7141	0.2426
368.9221	0.2546
369.1301	0.2505
369.3381	0.2563
369.5461	0.2588
369.754	0.2545
369.962	0.2501
370.1699	0.2563
370.3778	0.2622
370.5857	0.2526
370.7936	0.2512
371.0015	0.2643
371.2093	0.2593
371.4172	0.2619
371.625	0.2553
371.8328	0.2517
372.0406	0.2776
372.2484	0.256
372.4562	0.2643
372.664	0.2704
372.8717	0.264
373.0795	0.2627
373.2872	0.2699
373.4949	0.2709
373.7026	0.2679
373.9103	0.2649
374.118	0.2716
374.3256	0.2774
374.5333	0.2691
374.7409	0.2726
374.9485	0.2744
375.1561	0.2792
375.3637	0.2707
375.5713	0.2797
375.7789	0.2876
375.9864	0.2692
376.194	0.2818
376.4015	0.2756
376.609	0.2852
376.8165	0.2742
377.024	0.2878
377.2315	0.2828
377.4389	0.2776
377.6464	0.2913
377.8538	0.2899
378.0612	0.2872
378.2686	0.2842
378.476	0.2962
378.6834	0.2845
378.8908	0.296
379.0981	0.2924
379.3055	0.2864
379.5128	0.2937
379.7201	0.2907
379.9274	0.3009
380.1347	0.3008
380.342	0.3004
380.5492	0.3022
380.7565	0.2964
380.9637	0.2991
381.1709	0.2941
381.3781	0.3068
381.5853	0.3041
381.7925	0.298
381.9997	0.3096
382.2068	0.3083
382.4139	0.3037
382.6211	0.3034
382.8282	0.3159
383.0353	0.3125
383.2424	0.3069
383.4494	0.3112
383.6565	0.3105
383.8635	0.3091
384.0706	0.3094
384.2776	0.3106
384.4846	0.3115
384.6916	0.3151
384.8986	0.3198
385.1055	0.3168
385.3125	0.326
385.5194	0.3111
385.7263	0.3138
385.9333	0.3252
386.1402	0.3086
386.347	0.3132
386.5539	0.3143
386.7608	0.3104
386.9676	0.3205
387.1744	0.3109
387.3813	0.3104
387.5881	0.2985
387.7948	0.3214
388.0016	0.3183
388.2084	0.3142
388.4151	0.3118
388.6219	0.3055
388.8286	0.309
389.0353	0.3129
389.242	0.3102
389.4487	0.3052
389.6553	0.307
389.862	0.301
390.0686	0.3153
390.2753	0.309
390.4819	0.3116
390.6885	0.3075
390.8951	0.2917
391.1016	0.3049
391.3082	0.311
391.5147	0.308
391.7213	0.3027
391.9278	0.2949
392.1343	0.2981
392.3408	0.2984
392.5473	0.2932
392.7537	0.2962
392.9602	0.2875
393.1666	0.2937
393.373	0.2903
393.5794	0.2883
393.7858	0.2887
393.9922	0.2798
394.1986	0.2763
394.4049	0.2917
394.6113	0.2827
394.8176	0.276
395.0239	0.2826
395.2302	0.2911
395.4365	0.2844
395.6428	0.2772
395.8491	0.282
396.0553	0.2738
396.2615	0.2743
396.4678	0.2854
396.674	0.2808
396.8802	0.2801
397.0863	0.2708
397.2925	0.2699
397.4987	0.271
397.7048	0.2739
397.9109	0.2695
398.117	0.2588
398.3231	0.2741
398.5292	0.2615
398.7353	0.2669
398.9413	0.2683
399.1474	0.2626
399.3534	0.262
399.5594	0.2766
399.7654	0.2676
399.9714	0.2688
400.1774	0.2743
400.3833	0.2668
400.5893	0.2613
400.7952	0.274
401.0011	0.2596
401.207	0.265
401.4129	0.2639
401.6188	0.261
401.8247	0.2794
402.0305	0.2568
402.2364	0.2721
402.4422	0.2721
402.648	0.2721
402.8538	0.2697
403.0596	0.2581
403.2654	0.2728
403.4711	0.2591
403.6768	0.26
403.8826	0.2692
404.0883	0.2655
404.294	0.2679
404.4997	0.2738
404.7054	0.2761
404.911	0.254
405.1167	0.263
405.3223	0.2601
405.5279	0.2645
405.7335	0.2643
405.9391	0.2665
406.1447	0.2639
406.3502	0.2671
406.5558	0.2629
406.7613	0.2602
406.9668	0.2595
407.1724	0.2594
407.3778	0.2722
407.5833	0.2583
407.7888	0.2689
407.9942	0.2641
408.1997	0.271
408.4051	0.2699
408.6105	0.2636
408.8159	0.2554
409.0213	0.2653
409.2267	0.2718
409.432	0.2667
409.6374	0.2696
409.8427	0.2716
410.048	0.2737
410.2533	0.2772
410.4586	0.2585
410.6639	0.2722
410.8691	0.2509
411.0744	0.2607
411.2796	0.2672
411.4848	0.2641
411.69	0.2463
411.8952	0.2693
412.1004	0.27
412.3056	0.2519
412.5107	0.2553
412.7158	0.2817
412.921	0.2668
413.1261	0.2546
413.3312	0.2602
413.5362	0.2687
413.7413	0.2628
413.9464	0.2537
414.1514	0.2577
414.3564	0.249
414.5614	0.2608
414.7664	0.2596
414.9714	0.2561
415.1764	0.2546
415.3813	0.2572
415.5863	0.2597
415.7912	0.2557
415.9961	0.2596
416.201	0.2565
416.4059	0.2569
416.6108	0.2625
416.8156	0.2587
417.0205	0.2616
417.2253	0.2565
417.4301	0.262
417.6349	0.2663
417.8397	0.2529
418.0445	0.2626
418.2492	0.2558
418.454	0.2559
418.6587	0.2579
418.8634	0.2586
419.0681	0.2564
419.2728	0.2536
419.4775	0.267
419.6822	0.2379
419.8868	0.2472
420.0915	0.2502
420.2961	0.2365
420.5007	0.2572
420.7053	0.2428
420.9099	0.2481
421.1144	0.246
421.319	0.2395
421.5235	0.2437
421.728	0.2549
421.9325	0.2419
422.137	0.239
422.3415	0.2392
422.546	0.2376
422.7504	0.243
422.9549	0.2482
423.1593	0.2298
423.3637	0.2402
423.5681	0.2391
423.7725	0.2377
423.9769	0.2334
424.1812	0.2252
424.3856	0.2305
424.5899	0.2321
424.7942	0.2239
424.9985	0.2359
425.2028	0.2239
425.4071	0.2269
425.6113	0.235
425.8156	0.2209
426.0198	0.2307
426.224	0.2187
426.4282	0.2137
426.6324	0.22
426.8366	0.2111
427.0407	0.2204
427.2449	0.2187
427.449	0.2168
427.6531	0.2209
427.8572	0.2203
428.0613	0.217
428.2654	0.2094
428.4694	0.2029
428.6735	0.1996
428.8775	0.2081
429.0815	0.2012
429.2855	0.2007
429.4895	0.1965
429.6935	0.1934
429.8975	0.1951
430.1014	0.2072
430.3053	0.2049
430.5093	0.2008
430.7132	0.1947
430.9171	0.1951
431.1209	0.188
431.3248	0.1833
431.5286	0.1813
431.7325	0.1995
431.9363	0.187
432.1401	0.1824
432.3439	0.1796
432.5477	0.17
432.7514	0.1791
432.9552	0.1842
433.1589	0.1698
433.3627	0.1768
433.5664	0.1635
433.7701	0.1749
433.9737	0.1742
434.1774	0.1703
434.3811	0.1558
434.5847	0.1721
434.7883	0.1579
434.9919	0.1557
435.1955	0.1621
435.3991	0.1532
435.6027	0.1577
435.8062	0.1653
436.0098	0.1477
436.2133	0.1458
436.4168	0.1511
436.6203	0.1439
436.8238	0.135
437.0272	0.1485
437.2307	0.1316
437.4341	0.1306
437.6375	0.1421
437.841	0.1292
438.0443	0.1336
438.2477	0.1188
438.4511	0.1235
438.6545	0.1262
438.8578	0.1321
439.0611	0.1254
439.2644	0.1237
439.4677	0.1267
439.671	0.1132
439.8743	0.1211
440.0775	0.1188
440.2808	0.1159
440.484	0.1139
440.6872	0.1112
440.8904	0.1122
441.0936	0.1009
441.2967	0.103
441.4999	0.0985
441.703	0.1058
441.9062	0.1035
442.1093	0.1044
442.3124	0.0981
442.5155	0.1025
442.7185	0.0872
442.9216	0.0885
443.1246	0.0879
443.3276	0.0923
443.5307	0.0745
443.7337	0.0875
443.9366	0.085
444.1396	0.0766
444.3426	0.0868
444.5455	0.0812
444.7484	0.0772
444.9513	0.077
445.1542	0.0836
445.3571	0.0702
445.56	0.075
445.7628	0.0761
445.9657	0.0743
446.1685	0.0746
446.3713	0.0788
446.5741	0.0721
446.7769	0.0758
446.9797	0.0656
447.1824	0.0693
447.3852	0.0524
447.5879	0.0647
447.7906	0.0539
447.9933	0.0631
448.196	0.0523
448.3986	0.0541
448.6013	0.0518
448.8039	0.0597
449.0066	0.0553
449.2092	0.0681
449.4118	0.0531
449.6143	0.0511
449.8169	0.0451
450.0195	0.0473
450.222	0.0555
450.4245	0.0537
450.627	0.0449
450.8295	0.0473
451.032	0.0396
451.2345	0.0443
451.4369	0.0445
451.6394	0.0447
451.8418	0.0425
452.0442	0.0426
452.2466	0.0321
452.449	0.0461
452.6513	0.0322
452.8537	0.0277
453.056	0.0389
453.2583	0.0309
453.4607	0.0261
453.663	0.0315
453.8652	0.0288
454.0675	0.0421
454.2697	0.0297
454.472	0.0217
454.6742	0.0379
454.8764	0.0327
455.0786	0.0265
455.2808	0.0222
455.4829	0.0316
455.6851	0.02
455.8872	0.0253
456.0893	0.0302
456.2915	0.0157
456.4935	0.0334
456.6956	0.0236
456.8977	0.0293
457.0997	0.0304
457.3018	0.027
457.5038	0.0336
457.7058	0.0259
457.9078	0.0283
458.1098	0.0229
458.3117	0.0194
458.5137	0.008
458.7156	0.0242
458.9175	0.0299
459.1194	0.0189
459.3213	0.0188
459.5232	0.0225
459.725	0.0191
459.9269	0.021
460.1287	0.0147
460.3305	0.0251
460.5323	0.0166
460.7341	0.0169
460.9359	0.0164
461.1376	0.024
461.3394	0.0222
461.5411	0.0184
461.7428	0.0147
461.9445	0.0163
462.1462	0.0097
462.3479	0.0111
462.5495	0.0095
462.7512	0.0285
462.9528	0.0204
463.1544	0.0182
463.356	0.0136
463.5576	0.0177
463.7592	0.0106
463.9607	0.0126
464.1623	0.0067
464.3638	0.004
464.5653	0.0138
464.7668	0.0181
464.9683	0.0136
465.1697	0.0079
465.3712	0.0063
465.5726	0.0063
465.7741	0.0165
465.9755	0.0115
466.1769	0.0113
466.3782	0.0062
466.5796	0.0158
466.7809	0.0159
466.9823	0.0062
467.1836	0.0114
467.3849	0.0083
467.5862	0.0056
467.7875	0.001
467.9887	0.0084
468.19	0.0128
468.3912	0.0131
468.5924	0.0083
468.7936	-0.0002
468.9948	0.003
469.196	0.0018
469.3972	0.0065
469.5983	0.0173
469.7994	0.0168
470.0006	0.0128
470.2017	0.0094
470.4027	0.0273
470.6038	0.0012
470.8049	-0.0011
471.0059	0.0199
471.2069	0.0035
471.408	0.0127
471.6089	0.007
471.8099	0.0018
472.0109	0.0108
472.2119	0.0232
472.4128	0.0009
472.6137	0.0047
472.8146	0.0073
473.0155	0.0177
473.2164	0.0069
473.4173	-0.0016
473.6181	0.0016
473.819	-0.0006
474.0198	0.0025
474.2206	0.0023
474.4214	0.01
474.6222	0.0007
474.8229	0.0001
475.0237	0.0122
475.2244	0.0067
475.4251	0.0072
475.6258	-0.0004
475.8265	0.0093
476.0272	0.0015
476.2278	0.0016
476.4285	0.0049
476.6291	0.004
476.8297	0.0031
477.0303	-0.0028
477.2309	0.0071
477.4315	0.0064
477.632	0.0036
477.8326	0.0086
478.0331	0.0115
478.2336	0.0075
478.4341	0.0104
478.6346	0.0122
478.8351	0.0036
479.0355	0.0153
479.236	0.0198
479.4364	0.0066
479.6368	0.0044
479.8372	0.0062
480.0376	0.012
480.2379	0.0034
480.4383	0.0078
480.6386	-0.008
480.8389	0.0044
481.0392	0.0025
481.2395	0.0124
481.4398	0.0038
481.6401	0.0036
481.8403	0.0092
482.0405	0.0025
482.2408	0.005
482.441	0.0031
482.6411	0.0081
482.8413	0.0055
483.0415	0.007
483.2416	0.0041
483.4417	0.0009
483.6419	-0.0026
483.8419	0.007
484.042	-0.0023
484.2421	0.0028
484.4422	0.005
484.6422	0.0054
484.8422	-0
485.0422	0.0052
485.2422	0
485.4422	0.0064
485.6422	0.0021
485.8421	0.0009
486.042	0.0093
486.242	0.0025
486.4419	0.0035
486.6417	0.0007
486.8416	0.0056
487.0415	-0.0001
487.2413	-0.0039
487.4411	0.0065
487.641	-0.0007
487.8408	0.0042
488.0405	0.0076
488.2403	-0.005
488.4401	0.0105
488.6398	0.0086
488.8395	0.0111
489.0392	0.0128
489.2389	0.0116
489.4386	-0.0031
489.6383	0.0112
489.8379	-0.0034
490.0376	0.0034
490.2372	0.0007
490.4368	-0.003
490.6364	-0.0034
490.836	-0.0006
491.0355	-0.0026
491.2351	0
491.4346	0.0074
491.6341	-0.0045
491.8336	0.0045
492.0331	-0.0044
492.2326	0.0045
492.432	-0.0013
492.6315	0.0142
492.8309	0.0022
493.0303	0.0004
493.2297	0.0047
493.4291	0.0001
493.6284	0.0104
493.8278	-0.0055
494.0271	0.0038
494.2264	0.002
494.4257	0.0029
494.625	-0.0035
494.8243	-0.0005
495.0236	-0.0023
495.2228	-0.0001
495.422	0.0083
495.6213	0.0048
495.8205	0.0006
496.0196	0.0059
496.2188	0.0062
496.418	0.0006
496.6171	-0.0028
496.8162	0.0068
497.0153	0.0066
497.2144	0.0044
497.4135	0.001
497.6126	0.0123
497.8116	0.0012
498.0107	0.0001
498.2097	0.0082
498.4087	-0.001
498.6077	-0.0098
498.8067	0.0016
499.0056	-0.0015
499.2046	0.0091
499.4035	0.0065
499.6024	0.0026
499.8013	0.0085
500.0002	0.003
500.199	0.0053
500.3979	-0.0013
500.5967	0.0078
500.7956	0.0039
500.9944	0.0018
501.1932	0.0087
501.3919	0.005
501.5907	0.0055
501.7895	0.0019
501.9882	0.0038
502.1869	0.0104
502.3856	0.0012
502.5843	0.0034
502.783	0.0008
502.9816	0.0128
503.1803	0.0055
503.3789	0.0073
503.5775	0.0027
503.7761	-0.0047
503.9747	0.0057
504.1732	-0.0087
504.3718	0.0132
504.5703	0.0096
504.7689	0.0017
504.9674	0.0024
505.1658	0.009
505.3643	0.0035
505.5628	0.0078
505.7612	0.0029
505.9597	-0.0022
506.1581	0.0036
506.3565	-0.0007
506.5549	-0.0015
506.7532	-0.0089
506.9516	0.0022
507.1499	0.0076
507.3482	0.0095
507.5465	0.0023
507.7448	0.005
507.9431	0.0016
508.1414	-0.0021
508.3396	-0.0012
508.5379	0.0068
508.7361	0.0032
508.9343	0.0058
509.1325	0.0131
509.3306	0.0085
509.5288	-0.0077
509.7269	0.0092
509.9251	0.0091
510.1232	-0.0037
510.3213	0.0113
510.5193	0.0003
510.7174	0.0096
510.9154	0.0102
511.1135	0.003
511.3115	-0.0042
511.5095	0.0111
511.7075	0.0055
511.9055	0.0049
512.1034	0.0048
512.3014	0.0031
512.4993	0.0052
512.6972	0.0056
512.8951	0.0089
513.093	-0.0055
513.2908	0.0084
513.4887	0.0077
513.6865	0.0113
513.8844	0.0003
514.0822	0.0077
514.2799	0.0004
514.4777	-0.0057
514.6755	-0.0024
514.8732	0.0028
515.0709	0.0029
515.2687	-0.0023
515.4664	0.0039
515.664	0.0027
515.8617	0.017
516.0594	0.0079
516.257	0.0039
516.4546	0.0226
516.6522	0.0091
516.8498	-0.0001
517.0474	0.0105
517.2449	-0.0021
517.4425	-0.0063
517.64	0.0054
517.8375	0.0153
518.035	-0.0023
518.2325	-0.0007
518.43	0.001
518.6274	0.0019
518.8249	0.0044
519.0223	0.0051
519.2197	0.0021
519.4171	0.0001
519.6145	0.0125
519.8118	0.0016
520.0092	-0.0023
520.2065	0.0137
520.4038	0.0012
520.6011	0.0089
520.7984	0.01
520.9956	0.0092
521.1929	0.0039
521.3901	0.0085
521.5874	0.0259
521.7846	0.0005
521.9818	0.006
522.1789	-0.0046
522.3761	0.0125
522.5732	0.0043
522.7704	-0.0006
522.9675	-0.0051
523.1646	0.0015
523.3617	-0.0004
523.5587	0.001
523.7558	0.0003
523.9528	0.0104
524.1498	-0.0008
524.3468	0.0028
524.5438	0.0119
524.7408	-0.0023
524.9378	0.0104
525.1347	0.0052
525.3316	0.0072
525.5285	-0.001
525.7254	0.0086
525.9223	0.0172
526.1192	0.0039
526.316	0.0123
526.5129	0.0113
526.7097	-0.0011
526.9065	0.0018
527.1033	0.0023
527.3	-0.0112
527.4968	0.0113
527.6935	-0.0035
527.8903	0.0012
528.087	0.0003
528.2837	0.0034
528.4804	0.0024
528.677	0.0086
528.8737	0.0014
529.0703	0.005
529.2669	0.0068
529.4635	-0.0053
529.6601	0.0022
529.8567	-0.006
530.0532	0.0007
530.2498	0.0007
530.4463	-0.0071
530.6428	0.0147
530.8393	0.0072
531.0358	0.0012
531.2322	-0.0098
531.4287	0.0014
531.6251	-0.0074
531.8215	0.0035
532.0179	0.0087
532.2143	0.0135
532.4107	0.0089
532.607	-0.0035
532.8034	-0.0012
532.9997	-0.0085
533.196	0.0067
533.3923	0.0125
533.5886	0.0142
533.7848	-0.0044
533.9811	0.004
534.1773	0.0014
534.3735	0.0102
534.5697	0.0046
534.7659	0.0048
534.9621	0.0072
535.1582	0.005
535.3544	0.004
535.5505	0.0005
535.7466	0.001
535.9427	0.0065
536.1387	0.0045
536.3348	0.0048
536.5308	-0.003
536.7269	0
536.9229	0.0024
537.1189	0.0099
537.3148	-0.007
537.5108	0.0083
537.7068	0.0086
537.9027	-0.005
538.0986	0.0098
538.2945	0.0014
538.4904	-0.0024
538.6863	0.0062
538.8821	0.0114
539.078	0.0059
539.2738	0.0038
539.4696	-0.0019
539.6654	0.0056
539.8611	0.0073
540.0569	0.0011
540.2526	0.0085
540.4484	-0.0127
540.6441	-0.0057
540.8398	0.0174
541.0355	-0.0018
541.2311	-0.0008
541.4268	0.0057
541.6224	0.0121
541.818	0.0066
542.0136	0.0052
542.2092	0.0114
542.4048	-0.0037
542.6003	0.0028
542.7959	0.0083
542.9914	0.0069
543.1869	0.0075
543.3824	0.0036
543.5779	0.0056
543.7734	0.0123
543.9688	0.0099
544.1642	0.0039
544.3596	0.0103
544.555	-0.0044
544.7504	0.0076
544.9458	0.0044
545.1411	0.0044
545.3365	0.0021
545.5318	0.0018
545.7271	0.0041
545.9224	0.0026
546.1177	0.0095
546.3129	0.0079
546.5081	0.0025
546.7034	0.0053
546.8986	-0.0056
547.0938	0.0163
547.289	0.0089
547.4841	0.0138
547.6793	0
547.8744	0.0121
548.0695	-0.0071
548.2646	0.0093
548.4597	0.0002
548.6548	0.0096
548.8498	0.0115
549.0448	-0.0015
549.2399	0.013
549.4349	0.007
549.6298	0.0089
549.8248	-0.0023
550.0198	0.015
550.2147	0.0138
550.4096	0.0038
550.6045	-0.0056
550.7994	0.0065
550.9943	0.002
551.1892	-0.003
551.384	0.0043
551.5788	0.003
551.7737	0.0096
551.9685	0.01
552.1632	0.0017
552.358	-0.0006
552.5528	0.0066
552.7475	0.0058
552.9422	0.0045
553.1369	0.0187
553.3316	0.0089
553.5263	0.0049
553.7209	0.0132
553.9156	0.0019
554.1102	0.0102
554.3048	-0.001
554.4994	-0.0003
554.694	0.0031
554.8885	0.0134
555.0831	0.0173
555.2776	0.0098
555.4721	0.0041
555.6666	-0.0082
555.8611	0.0074
556.0555	0.0087
556.25	0.0141
556.4444	0.0017
556.6388	0.004
556.8332	0.0047
557.0276	0.0041
557.222	-0.0011
557.4163	0.0008
557.6107	0.0053
557.805	-0.01
557.9993	0.0093
558.1936	-0.0026
558.3879	0.0044
558.5821	0.0062
558.7764	-0.0061
558.9706	-0.0011
559.1648	0.0088
559.359	-0.0044
559.5532	-0.0059
559.7473	-0.0006
559.9415	0.012
560.1356	0.0193
560.3297	0.0012
560.5238	0.0053
560.7179	-0.0081
560.9119	0.0003
561.106	-0.0047
561.3	0.0005
561.494	-0.0072
561.688	-0.0014
561.882	0.0004
562.076	0.0032
562.2699	0.0079
562.4639	0.0116
562.6578	0.0022
562.8517	0.0085
563.0456	0.0079
563.2395	0.0015
563.4333	0.0079
563.6272	0.0029
563.821	0.0033
564.0148	-0.0019
564.2086	0.0037
564.4024	0.0049
564.5961	-0.0024
564.7899	0.0168
564.9836	0.0002
565.1773	0.0034
565.371	0.0066
565.5647	0.0033
565.7584	0.0101
565.952	0.0103
566.1456	0.0066
566.3393	0.0122
566.5329	0.0036
566.7264	0.0102
566.92	0.0069
567.1136	0.0022
567.3071	-0.0006
567.5006	0.0129
567.6941	-0.0028
567.8876	-0.0068
568.0811	0.0195
568.2745	-0.0023
568.468	0.0047
568.6614	0.0031
568.8548	0.0062
569.0482	0.0073
569.2416	0.0046
569.4349	0.0004
569.6283	0.0055
569.8216	0.0083
570.0149	0.0011
570.2082	0.004
570.4015	0.0009
570.5947	-0.0007
570.788	0.0031
570.9812	-0.0016
571.1744	0.0033
571.3676	0.0065
571.5608	-0.0003
571.754	0.0121
571.9471	0.0082
572.1402	0.0029
572.3333	0.005
572.5264	-0.0009
572.7195	0.0041
572.9126	0.0059
573.1057	-0.0001
573.2987	0.0013
573.4917	-0.0002
573.6847	0.0013
573.8777	0.0075
574.0707	0.0003
574.2636	0.0028
574.4566	-0.0011
574.6495	-0.0014
574.8424	0.0035
575.0353	0.0076
575.2281	0.0059
575.421	-0.0018
575.6138	-0.0024
575.8067	0.0086
575.9995	0.0009
576.1923	0.0059
576.385	0.0053
576.5778	0.0084
576.7706	0.0055
576.9633	0.0066
577.156	-0.0034
577.3487	-0.0014
577.5414	0.0024
577.734	0.0023
577.9267	0.0028
578.1193	0.0062
578.3119	0.0004
578.5045	0.0045
578.6971	0.0019
578.8897	-0.0019
579.0822	0.0044
579.2747	-0.0014
579.4673	0.0012
579.6598	0.003
579.8522	0.0023
580.0447	0.0032
580.2372	0.0075
580.4296	0.0062
580.622	0.0007
580.8144	0.0018
581.0068	0.0036
581.1992	0.0043
581.3915	0
581.5839	0.0045
581.7762	0.0018
581.9685	0.0034
582.1608	0.0025
582.353	0.0014
582.5453	0.0033
582.7375	0.0042
582.9298	-0.002
583.122	0.0013
583.3142	0.0096
583.5063	-0.0027
583.6985	0.0058
583.8906	0.0019
584.0827	0.002
584.2749	0.0008
584.4669	0.0024
584.659	0.0067
584.8511	0.0042
585.0431	0.0007
585.2352	0.0012
585.4272	0.0018
585.6192	-0.0014
585.8111	-0.0024
586.0031	0.0022
586.195	0.0062
586.387	-0.0003
586.5789	0.0072
586.7708	0.0041
586.9627	0.0083
587.1545	0.0051
587.3464	0.0074
587.5382	0.0019
587.73	0.0069
587.9218	-0.0032
588.1136	0.0012
588.3053	0.0059
588.4971	0.0016
588.6888	0.0017
588.8805	-0.0003
589.0722	0.0098
589.2639	0.0042
589.4556	0.0054
589.6472	0.0061
589.8389	0.0009
590.0305	0.0007
590.2221	0.0062
590.4137	0.0029
590.6052	0.0054
590.7968	0.0033
590.9883	0.0046
591.1798	-0.0001
591.3713	0.0022
591.5628	-0.003
591.7543	0.0074
591.9458	-0.0006
592.1372	0.0026
592.3286	0.0021
592.52	0.0035
592.7114	0.0015
592.9028	0.0064
593.0941	-0.0032
593.2855	-0.0005
593.4768	0.0076
593.6681	0.0091
593.8594	0.0091
594.0506	0.0051
594.2419	0.0029
594.4331	0.0087
594.6244	-0.006
594.8156	0.0025
595.0067	-0.0001
595.1979	-0.0013
595.3891	0.0089
595.5802	0.011
595.7713	0.0043
595.9624	0.0107
596.1535	-0.0013
596.3446	-0.001
596.5357	0.0033
596.7267	0.0042
596.9177	0.0062
597.1087	0.0026
597.2997	0.006
597.4907	-0.0005
597.6817	0.0024
597.8726	0.0071
598.0635	-0.0006
598.2544	-0.0003
598.4453	0.0057
598.6362	0.0074
598.827	-0.0006
599.0179	0.0009
599.2087	0.0073
599.3995	0.006
599.5903	0.0073
599.7811	0.0102
599.9718	-0.0021
600.1626	-0.0011
600.3533	0.0014
600.544	0.0037
600.7347	0.0049
600.9254	0.012
601.116	0.0033
601.3067	-0.0012
601.4973	0.005
601.6879	0.0044
601.8785	0.0063
602.0691	0.0012
602.2596	0.0057
602.4502	0.0016
602.6407	0.0026
602.8312	0.0011
603.0217	0.0101
603.2122	0.0061
603.4027	0.0036
603.5931	-0.0002
603.7835	0.0069
603.9739	0.001
604.1643	0.0054
604.3547	0.0064
604.5451	0.0085
604.7354	0.0014
604.9257	-0.0007
605.116	-0.0042
605.3063	0.0009
605.4966	-0.006
605.6869	0.0095
605.8771	-0.0012
606.0673	0.0039
606.2575	-0.0007
606.4477	0.0078
606.6379	-0.0034
606.8281	0.0024
607.0182	-0.0034
607.2083	0.0033
607.3985	-0.0036
607.5885	0.0002
607.7786	0.0022
607.9687	0.0089
608.1587	0.0031
608.3488	0.0027
608.5388	0.0015
608.7288	0.002
608.9187	0.0045
609.1087	0.007
609.2986	0.0063
609.4886	0.0048
609.6785	0.0016
609.8684	-0.0023
610.0582	0.0043
610.2481	-0.0061
610.4379	0.0047
610.6278	-0.0003
610.8176	0.0017
611.0074	0.0008
611.1971	0.0062
611.3869	0.012
611.5766	-0.0022
611.7664	0.0116
611.9561	0.0119
612.1458	0.0054
612.3354	0.0057
612.5251	0.0004
612.7147	0.0052
612.9044	-0.0021
613.094	0.0031
613.2836	0.0068
613.4731	0.0038
613.6627	0.0035
613.8522	0.0032
614.0417	0.002
614.2313	0.0021
614.4207	0.0059
614.6102	0.008
614.7997	0.0131
614.9891	0.0023
615.1785	-0.0024
615.3679	0.0001
615.5573	0.0043
615.7467	-0.0067
615.9361	0.0012
616.1254	0.0151
616.3147	-0.0003
616.504	0.0023
616.6933	0.0013
616.8826	-0.0011
617.0718	0.0152
617.2611	-0.0065
617.4503	-0.0015
617.6395	0.0014
617.8287	0.0054
618.0179	-0.0023
618.207	0.0094
618.3961	-0.0011
618.5853	0.0033
618.7744	0.0023
618.9634	0.0054
619.1525	-0.0028
619.3416	0.0054
619.5306	0.0084
619.7196	0.0138
619.9086	-0.0014
620.0976	-0.0039
620.2866	0.0107
620.4755	0.0008
620.6645	-0.0009
620.8534	-0.0025
621.0423	0.0095
621.2312	-0.0109
621.42	-0.0001
621.6089	-0.0024
621.7977	0.0047
621.9865	-0.0059
622.1753	-0.0135
622.3641	-0.0033
622.5529	0.0024
622.7416	-0.0029
622.9303	0.0075
623.1191	0.0033
623.3078	0.0025
623.4964	0.0041
623.6851	0.0107
623.8737	0.0036
624.0624	-0.0082
624.251	0.0067
624.4396	0.0087
624.6282	0.0068
624.8167	0.008
625.0053	0.0159
625.1938	0.0043
625.3823	0.0069
625.5708	-0.0079
625.7593	-0.0018
625.9477	0.0037
626.1362	0.0043
626.3246	-0.0037
626.513	0.0054
626.7014	0.0132
626.8898	0.0108
627.0781	-0.0046
627.2665	0.004
627.4548	-0.006
627.6431	0.0032
627.8314	0.0138
628.0197	-0.0029
628.2079	-0.0061
628.3962	-0.0023
628.5844	-0.0033
628.7726	-0.0057
628.9608	0.0031
629.1489	-0.0034
629.3371	-0.0056
629.5252	0.0083
629.7134	-0.0093
629.9015	0.0048
630.0895	-0.0024
630.2776	-0.0019
630.4657	0.0048
630.6537	0.0152
630.8417	-0.0135
631.0297	0.0004
631.2177	-0.0013
631.4057	-0.005
631.5936	-0.0069
631.7815	-0.0009
631.9695	0.0126
632.1574	0.0103
632.3452	0.0137
632.5331	0.009
632.7209	-0.0077
632.9088	-0.0091
633.0966	0.0223
633.2844	0.013
633.4722	0.0059
633.6599	0.0072
633.8477	0.0038
634.0354	0.012
634.2231	-0.0084
634.4108	0.0009
634.5985	0.0059
634.7861	-0.0114
634.9738	-0.0058
635.1614	0.0028
635.349	0.0018
635.5366	0.0035
635.7242	0.0082
635.9117	0.0085
636.0993	0.009
636.2868	0.0089
636.4743	0.0126
636.6618	-0.0012
636.8492	0.0036
637.0367	-0.0059
637.2241	0.0004
637.4115	0.0227
637.5989	-0.0021
637.7863	0.0184
637.9737	0.0038
638.161	0.0075
638.3484	-0.0123
638.5357	0.0007
638.723	0.0156
638.9103	-0.0128
639.0975	-0.0015
639.2848	0.0211
639.472	0.0056
639.6592	-0.0166
639.8464	0.0029
640.0336	0.0175
640.2208	0.0064
640.4079	-0.0115
640.595	-0.0042
640.7821	0.01
640.9692	-0.0108
641.1563	0.0031
641.3434	-0.0014
641.5304	0.0217
641.7174	-0.0086
641.9044	0.0071
642.0914	0.0215
642.2784	0.0273
642.4653	-0.0105
642.6523	0.0149
642.8392	0.0041
643.0261	0.008
643.213	0.0058
643.3999	0.0273
643.5867	-0.0008
643.7735	-0.0014
643.9604	0.0189
644.1472	0.0225
644.3339	-0.0024
644.5207	-0.0018
644.7075	-0.007
644.8942	-0.0154
645.0809	-0.0027
645.2676	-0.0084
645.4543	0.0059
645.6409	0.0341
645.8276	0.0146
646.0142	-0.0026
646.2008	0.0075
646.3874	-0.0002
646.574	-0.0022
646.7605	-0.0061
646.9471	0.0023
647.1336	-0.0243
647.3201	0.013
647.5066	-0.0026
647.6931	0.0106
647.8795	-0.0057
648.0659	-0.0119
648.2524	0.0121
648.4388	-0.001
648.6252	-0.0042
648.8115	-0.0018
648.9979	0.0036
649.1842	0.0079
649.3705	0.0086
649.5568	-0.0044
649.7431	-0.0031
649.9294	0.0026
650.1156	-0.0021
650.3018	0.004
650.488	0.0145
650.6742	0.0235
650.8604	-0.0014
651.0466	0.0035
651.2327	-0.0057
651.4188	-0.0033
651.6049	0.0007
651.791	0.0211
651.9771	0.0001
652.1632	0.0097
652.3492	0.0022
652.5352	0.0097
652.7212	-0.0088
652.9072	0.0068
653.0932	0.0056
653.2791	0.0128
653.465	-0.0123
653.651	0.0169
653.8369	0.0137
654.0227	-0.0037
654.2086	0.0001
654.3944	-0.0048
654.5803	0.0032
654.7661	-0.0013
654.9519	-0.0004
655.1377	0
655.3234	0
655.5092	0
655.6949	0
655.8806	0
656.0663	0
656.2519	0
656.4376	0
656.6232	0
656.8088	0
656.9945	0
657.18	0
657.3656	0
657.5511	0
657.7367	0
657.9222	0
658.1077	0
658.2932	0
658.4786	0
658.6641	0
658.8495	0
659.0349	0
659.2203	0
659.4057	0
659.591	0.0511
659.7764	0.0178
659.9617	0.0004
660.147	-0.0016
660.3323	0.0026
660.5176	0.0136
660.7028	-0.0141
660.888	0.0135
661.0733	0.0135
661.2585	-0.0185
661.4436	0.0102
661.6288	0.0247
661.8139	-0.0052
661.9991	-0.0185
662.1842	-0.0124
662.3693	0.0003
662.5544	-0.0033
662.7394	0.007
662.9245	-0.0043
663.1095	-0.0201
663.2945	-0.0146
663.4795	-0.0005
663.6644	-0.0012
663.8494	0.0011
664.0343	0.0157
664.2193	-0.0154
664.4042	-0.0153
664.589	0.0135
664.7739	-0.0101
664.9587	-0.0136
665.1436	-0.0167
665.3284	0.0031
665.5132	-0.0159
665.698	0.0108
665.8827	0.0199
666.0675	0.0065
666.2522	-0.0106
666.4369	-0.0092
666.6216	-0.0026
666.8063	0.0156
666.9909	-0.0066
667.1756	-0.0022
667.3602	-0.0051
667.5448	-0.0218
667.7294	0.0004
667.9139	-0.0033
668.0985	0.0025
668.283	-0.0106
668.4675	0.0094
668.652	0.0243
668.8365	-0.0029
669.0209	0.0053
669.2054	0.0199
669.3898	0.0211
669.5742	0.0185
669.7586	0.0037
669.943	-0.0017
670.1273	-0.0139
670.3117	0.0172
670.496	0.0089
670.6803	-0.0083
670.8646	-0.0158
671.0488	0.0177
671.2331	0.0009
671.4173	-0.0011
671.6015	0.0129
671.7857	0.0002
671.9699	0.0098
672.1541	-0.0038
672.3382	0.0131
672.5223	0.0056
672.7064	-0.0019
672.8905	-0.0229
673.0746	0.0142
673.2587	0.0269
673.4427	0.0251
673.6267	0.0066
673.8107	0.0046
673.9947	0.026
674.1787	0.0133
674.3626	-0.0067
674.5465	0.0269
674.7304	-0.0136
674.9143	-0.0215
675.0982	0.0107
675.2821	-0.0224
675.4659	0.0101
675.6497	0.0039
675.8335	0.0104
676.0173	-0.0072
676.2011	0.0278
676.3849	-0.0037
676.5686	0.0224
676.7523	-0.0106
676.936	0.0058
677.1197	0.0009
677.3034	0.0347
677.487	0.009
677.6706	-0.0017
677.8542	0.006
678.0378	0.0087
678.2214	0.0001
678.405	0.0092
678.5885	0.0134
678.772	0.0157
678.9555	0.0055
679.139	-0.0036
679.3225	0.0061
679.5059	-0.0053
679.6894	0.0153
679.8728	-0.0042
680.0562	-0.0169
680.2395	-0.0143
680.4229	-0.0076
680.6062	-0.0091
680.7896	-0.0081
680.9729	0.0138
681.1562	0.0022
681.3394	-0.0024
681.5227	0.0129
681.7059	-0.0014
681.8891	0.0098
682.0723	-0.0026
682.2555	0.0067
682.4387	0.0105
682.6218	0.0162
682.805	0.007
682.9881	-0.0031
683.1712	0.0019
683.3542	0.0099
683.5373	-0.0034
683.7203	-0.0013
683.9034	-0.016
684.0864	-0.0081
684.2694	-0.0048
684.4523	0.0154
684.6353	0.0038
684.8182	-0.0157
685.0011	0.0103
685.184	0.0011
685.3669	0.0158
685.5498	-0.0118
685.7326	-0.0118
685.9154	-0.0003
686.0982	0.0221
686.281	-0.003
686.4638	-0.0006
686.6465	-0.0201
686.8293	-0.0115
687.012	0.0052
687.1947	0.0077
687.3774	-0.0019
687.56	-0.0081
687.7427	-0.0103
687.9253	-0.0145
688.1079	-0.0017
688.2905	-0.0041
688.4731	-0.0195
688.6556	-0.008
688.8382	-0.0176
689.0207	0.0201
689.2032	0.0138
689.3857	0.0022
689.5681	-0.0151
689.7506	0.0263
689.933	-0.013
690.1154	-0.005
690.2978	-0.0128
690.4802	0.0161
690.6626	-0.0046
690.8449	0.0079
691.0272	-0.012
691.2095	-0.0243
691.3918	0.0243
691.5741	0.0133
691.7563	0.0272
691.9386	0.0127
692.1208	0.0033
692.303	0.0095
692.4852	0.002
692.6673	0.0005
692.8495	0.0045
693.0316	-0.0049
693.2137	0.0022
693.3958	0.0012
693.5778	-0.0083
693.7599	0.0051
693.9419	-0.0129
694.1239	0.0137
694.3059	0.0134
694.4879	0.0154
694.6699	-0.0016
694.8518	0.009
695.0337	0.0183
695.2157	0.0172
695.3975	0.0124
695.5794	0.0114
695.7613	0.0175
695.9431	-0.031
696.1249	0.0147
696.3067	-0.0064
696.4885	0.0032
696.6703	-0.0114
696.852	-0.0193
697.0337	0.0112
697.2154	-0.008
697.3971	0.0279
697.5788	0.0057
697.7605	-0.0153
697.9421	0.0133
698.1237	0.0103
698.3053	-0.0249
698.4869	0.0183
698.6685	0.0049
698.85	0.0127
699.0315	-0.0107
699.213	0.0233
699.3945	-0.0099
699.576	0.0142
699.7575	0.0306
699.9389	-0.0018
700.1203	-0.0228
700.3017	0.0165
700.4831	0.0245
700.6645	0.0088
700.8458	-0.0223
701.0271	0.0306
701.2084	0.0197
701.3897	0.0069
701.571	-0.0169
701.7523	-0.0019
701.9335	0.0092
702.1147	-0.0031
702.2959	-0.0176
702.4771	0.001
702.6583	-0.0148
702.8394	-0.0122
703.0205	-0.0132
703.2016	-0.0024
703.3827	0.0024
703.5638	-0.007
703.7449	0.0101
703.9259	0.0231
704.1069	-0.0092
704.2879	0.0052
704.4689	-0.015
704.6499	0.0417
704.8308	0.0172
705.0117	0.0184
705.1927	0.0177
705.3735	-0.0003
705.5544	0.0129
705.7353	0.0103
705.9161	-0.0592
706.0969	0.0201
706.2777	0.0075
706.4585	-0.0197
706.6393	0.0117
706.82	0.016
707.0007	-0.0049
707.1815	0.0076
707.3621	0.0117
707.5428	0.0108
707.7235	0.0031
707.9041	0.0081
708.0847	0.0141
708.2653	0.0199
708.4459	-0.0052
708.6265	-0.03
708.807	-0.0088
708.9875	-0.0118
709.168	-0.0065
709.3485	0.0254
709.529	-0.0266
709.7095	0.0022
709.8899	-0.0147
710.0703	0.0004
710.2507	0.0273
710.4311	-0.042
710.6115	0.0155
710.7918	0.0278
710.9721	-0.0071
711.1524	0.0005
711.3327	0.0033
711.513	-0.0019
711.6932	-0.0045
711.8735	0.0239
712.0537	-0.0083
712.2339	0.0054
712.4141	-0.0051
712.5942	0.0042
712.7744	0.0051
712.9545	-0.0037
713.1346	0.0314
713.3147	0.0124
713.4947	0.0001
713.6748	-0.0041
713.8548	0.0127
714.0348	0.0006
714.2148	0.0166
714.3948	-0.0042
714.5748	-0.0133
714.7547	0.0071
714.9346	0.022
715.1145	-0.0009
715.2944	-0.0268
715.4743	0.0097
715.6541	-0.0245
715.834	-0.0063
716.0138	0.0025
716.1936	0.0137
716.3733	0.0129
716.5531	0.0251
716.7328	0.0431
716.9126	0.0007
717.0923	0.0007
717.2719	0.0098
717.4516	0.0069
717.6312	-0.0007
717.8109	0.044
717.9905	0.0068
718.1701	0.0049
718.3496	-0.0142
718.5292	0.0047
718.7087	0.0235
718.8882	0.0201
719.0677	-0.0082
719.2472	-0.0085
719.4267	0.0106
719.6061	-0.0324
719.7856	0.0334
719.965	0.0023
720.1443	-0.0118
720.3237	-0.0119
720.5031	-0.0203
720.6824	0.009
720.8617	0.0189
721.041	0.0104
721.2203	-0.0035
721.3995	0.0193
721.5788	-0.0221
721.758	-0.0109
721.9372	-0.0114
722.1164	-0.0134
722.2956	0.0213
722.4747	0.0063
722.6538	0.0205
722.8329	0.0397
723.012	-0.0016
723.1911	0.0053
723.3702	0.0217
723.5492	0.0006
723.7282	-0.0033
723.9072	0.0018
724.0862	0.0096
724.2652	-0.0228
724.4441	-0.0043
724.623	-0.0179
724.8019	0.0033
724.9808	0.0032
725.1597	-0.005
725.3385	0.0128
725.5174	-0.0119
725.6962	0.0066
725.875	0.0132
726.0538	0.0131
726.2325	0.0187
726.4112	-0.0088
726.59	-0.0006
726.7687	-0.0263
726.9474	0.0333
727.126	0.0164
727.3047	-0.0084
727.4833	0.0093
727.6619	-0.001
727.8405	0.0049
728.0191	0.0088
728.1976	0.0094
728.3762	0.0162
728.5547	-0.0046
728.7332	0.0173
728.9116	-0.0036
729.0901	-0.0002
729.2686	-0.0058
729.447	-0.0167
729.6254	0.0074
729.8038	0.0125
729.9821	-0.0105
730.1605	0.0078
730.3388	0.0139
730.5171	0.036
730.6954	-0.0231
730.8737	-0.0042
731.0519	-0.0229
731.2302	0.0286
731.4084	-0.0005
731.5866	-0.0039
731.7648	0.0257
731.9429	0.0059
732.1211	-0.0064
732.2992	-0.0099
732.4773	0.0067
732.6554	-0.0187
732.8335	0.0301
733.0115	0.0004
733.1896	-0.0185
733.3676	0.0183
733.5456	-0.0024
733.7235	-0.0072
733.9015	-0.004
734.0794	-0.0119
734.2574	-0.0166
734.4353	0.0145
734.6131	-0.0065
734.791	-0.0151
734.9689	-0.0285
735.1467	0.0057
735.3245	0.0212
735.5023	0.0161
735.68	0.0026
735.8578	0.0287
736.0355	0.0004
736.2132	-0.0023
736.3909	0.0185
736.5686	-0.0072
736.7463	-0.012
736.9239	0.0099
737.1015	-0.0028
737.2791	-0.004
737.4567	0.0237
737.6343	0.0026
737.8118	0.0101
737.9894	-0.003
738.1669	0.0001
738.3444	0.0338
738.5218	-0.0181
738.6993	-0.0091
738.8767	-0.0004
739.0541	0.0008
739.2315	-0.0028
739.4089	0.0066
739.5863	-0.0099
739.7636	0.0067
739.9409	-0.0035
740.1182	-0.0018
740.2955	0.0451
740.4728	-0.0114
740.65	-0.0208
740.8272	0.0234
741.0044	-0.004
741.1816	0.0033
741.3588	-0.011
741.5359	-0.0175
741.7131	0.0028
741.8902	0.0132
742.0673	-0.0184
742.2444	0.0302
742.4214	0.0179
742.5985	-0.0036
742.7755	-0.0118
742.9525	-0.015
743.1295	-0.0328
743.3064	-0.0226
743.4834	-0.0135
743.6603	0.0238
743.8372	-0.0433
744.0141	0.0065
744.191	-0.0091
744.3678	-0.0426
744.5446	-0.0016
744.7215	-0.0134
744.8982	0.0142
745.075	0.0763
745.2518	0.0225
745.4285	0.0391
745.6052	-0.0119
745.7819	0.0082
745.9586	0.0247
746.1353	-0.0202
746.3119	0.0058
746.4885	0.0408
746.6651	0.0155
746.8417	-0.0061
747.0183	0.0094
747.1948	0.0014
747.3714	0.0121
747.5479	0.0022
747.7244	-0.0245
747.9008	0.0529
748.0773	0.0242
748.2537	-0.0091
748.4301	0.0095
748.6065	0.0149
748.7829	-0.0262
748.9593	-0.0236
749.1356	-0.0013
749.3119	-0.0264
749.4882	0.0033
749.6645	0.0037
749.8408	0.0347
750.017	0.0115
750.1933	-0.0338
750.3695	0.0021
750.5457	-0.0089
750.7218	-0.0168
750.898	-0.0009
751.0741	-0.0034
751.2502	-0.0093
751.4263	-0.012
751.6024	-0.0022
751.7784	-0.0106
751.9545	-0.0061
752.1305	0.0097
752.3065	-0.0125
752.4825	-0.0175
752.6584	0.0164
752.8344	0.0023
753.0103	-0.0052
753.1862	0.0091
753.3621	0.0188
753.5379	0.0031
753.7138	0.0125
753.8896	0.0184
754.0654	-0.0096
754.2412	0.0113
754.417	0.0155
754.5927	-0.0076
754.7685	0.0104
754.9442	0.0229
755.1199	0.0059
755.2956	-0.0078
755.4712	0.0162
755.6469	0.0004
755.8225	0.002
755.9981	0.0014
756.1736	0.0038
756.3492	0.0023
756.5248	0.0141
756.7003	-0.0125
756.8758	0.0182
757.0513	-0.0059
757.2267	0.0049
757.4022	-0.0084
757.5776	0.0011
757.753	-0.0016
757.9284	0.0151
758.1038	-0.0012
758.2791	0.0099
758.4545	-0.0042
758.6298	-0.0128
758.8051	0.0156
758.9803	0.0063
759.1556	0.0047
759.3308	0.0012
759.506	0.0018
759.6812	-0.0018
759.8564	0.0003
760.0316	0.009
760.2067	0.0116
760.3819	-0.0021
760.557	-0.0024
760.732	-0.0117
760.9071	0.0173
761.0821	-0.0276
761.2572	0.0121
761.4322	0.0226
761.6072	0.0118
761.7821	-0.011
761.9571	0.0158
762.132	-0.0037
762.3069	0.0299
762.4818	-0.0025
762.6567	-0.0216
762.8316	-0.0054
763.0064	0.0136
763.1812	-0.0037
763.356	-0.0174
763.5308	0.0055
763.7055	-0.0131
763.8803	-0.0104
764.055	-0.0017
764.2297	0.0031
764.4044	0.0023
764.579	0.0086
764.7537	0.0024
764.9283	-0.0039
765.1029	0.0014
765.2775	0.0283
765.4521	0.0004
765.6266	0.0073
765.8011	-0.0113
765.9756	0.0085
766.1501	0.0143
766.3246	0.0052
766.4991	0.0069
766.6735	0.0442
766.8479	-0.0019
767.0223	0.0243
767.1967	0.0442
767.371	-0.0115
767.5454	-0.0012
767.7197	0.031
767.894	0.0091
768.0683	0.0034
768.2425	0.0258
768.4168	0.0209
768.591	-0.0006
768.7652	-0.0051
768.9394	-0.014
769.1135	-0.0235
769.2877	0.0185
769.4618	0.0214
769.6359	0.0224
769.81	0.0482
769.984	0.015
770.1581	0.0024
770.3321	0.0063
770.5061	-0.0013
770.6801	-0.0169
770.8541	0.0235
771.028	0.023
771.202	0.0299
771.3759	-0.0079
771.5498	0.0065
771.7236	0.0001
771.8975	0.0155
772.0713	0.015
772.2451	-0.0114
772.4189	-0.0179
772.5927	-0.0494
772.7665	0.0007
772.9402	0.007
773.1139	0.0091
773.2876	0.0063
773.4613	-0.0115
773.635	0.0427
773.8086	0.0311
773.9822	0.0117
774.1558	0.0287
774.3294	-0.0011
774.503	0.0179
774.6765	0.0233
774.8501	0.0343
775.0236	0.008
775.1971	-0.0103
775.3705	-0.0036
775.544	-0.0283
775.7174	0.0195
775.8908	-0.0015
776.0642	0.0145
776.2376	0.0368
776.4109	-0.0057
776.5843	-0.0203
776.7576	-0.0508
776.9309	0.0079
777.1041	-0.0841
777.2774	-0.0385
777.4506	-0.0358
777.6238	-0.0211
777.797	0.0182
777.9702	0.019
778.1434	-0.0047
778.3165	-0.029
778.4896	-0.0302
778.6627	0.0146
778.8358	-0.0095
779.0089	-0.022
779.1819	0.0256
779.3549	0.009
779.5279	-0.0287
779.7009	0.087
779.8739	0.0402
780.0468	-0.0068
780.2197	-0.0206
780.3926	-0.0227
780.5655	0.0077
780.7384	0.0069
780.9112	0.0262
781.0841	0.0124
781.2569	0.0047
781.4297	-0.003
781.6024	0.0089
781.7752	0.0279
781.9479	0.0366
782.1206	-0.0046
782.2933	-0.0149
782.466	0.0099
782.6386	0.0147
782.8113	-0.0152
782.9839	0.0049
783.1565	0.021
783.329	-0.0163
783.5016	-0.0026
783.6741	-0.0218
783.8466	0.0424
784.0191	0.0023
784.1916	-0.0867
784.3641	-0.0228
784.5365	0.0221
784.7089	-0.0233
784.8813	0.0332
785.0537	0.0099
785.2261	0.0373
785.3984	0.01
785.5707	-0.0042
785.743	0.0262
785.9153	0.001
786.0876	-0.0313
786.2598	-0.0108
786.432	0.0239
786.6042	0.0358
786.7764	-0.0473
786.9486	-0.0181
787.1207	-0.0053
787.2928	0.0286
787.4649	-0.0157
787.637	-0.0097
787.8091	-0.0131
787.9811	0.0136
788.1532	0.0213
788.3252	-0.0067
788.4972	0.0182
788.6691	0.0031
788.8411	-0.0028
789.013	0.0194
789.1849	-0.0005
789.3568	-0.0021
789.5287	0.0381
789.7005	-0.0146
789.8723	-0.0269
790.0442	-0.0341
790.2159	0.0035
790.3877	0.0462
790.5595	0.0141
790.7312	-0.0086
790.9029	-0.0168
791.0746	-0.026
791.2463	-0.0811
791.4179	-0.0028
791.5896	0.0416
791.7612	0.0023
791.9328	0.0004
792.1044	-0.045
792.2759	-0.0714
792.4474	0.0194
792.619	-0.0408
792.7905	-0.0053
792.9619	0.076
793.1334	0.0722
793.3048	0.0244
793.4762	-0.0014
793.6476	-0.0258
793.819	-0.0168
793.9904	0.0002
794.1617	-0.0333
794.333	0.0096
794.5043	0.0244
794.6756	0.0185
794.8469	0.0202
795.0181	0.0376
795.1893	-0.0029
795.3605	-0.004
795.5317	0.0003
795.7029	-0.0047
795.874	-0.0329
796.0452	-0.0057
796.2163	0.0546
796.3873	0.0831
796.5584	0.0253
796.7294	0.0544
796.9005	0.0843
797.0715	-0.0928
797.2425	0.1081
797.4134	0.0532
797.5844	0.0041
797.7553	-0.0854
797.9262	0.0865
798.0971	0.0056
798.2679	-0.0068
798.4388	0.0259
798.6096	-0.0221
798.7804	0.0591
798.9512	-0.0031
799.122	-0.0481
799.2927	0.0703
799.4635	-0.0338
799.6342	-0.001
799.8049	-0.0008
799.9755	-0.0091
800.1462	-0.0449
800.3168	0.0875
800.4874	-0.0617
800.658	0.0979
800.8286	-0.0294
800.9991	0.0777
801.1696	-0.0755
801.3402	-0.0228
801.5106	0.069
801.6811	0.0575
801.8516	0.0252
802.022	-0.0069
802.1924	0.0634
802.3628	0.0572
802.5332	0.0088
802.7035	0.0368
802.8739	0.0085
803.0442	-0.0248
803.2145	0.0715
803.3847	0.0497
803.555	0.03
803.7252	-0.0818
803.8954	-0.014
804.0656	0.0035
804.2358	-0.019
804.4059	0.036
804.5761	-0.0087
804.7462	0.0218
804.9163	0.0685
805.0864	-0.0503
805.2564	-0.0215
805.4264	-0.0343
805.5965	0.0608
805.7665	-0.0188
805.9364	-0.0396
806.1064	0.0207
806.2763	0.0051
806.4462	0.0012
806.6161	-0.0252
806.786	0.0198
806.9559	0.0295
807.1257	-0.0027
807.2955	0.0038
807.4653	-0.002
807.6351	0.0663
807.8048	-0.0399
807.9746	0.0273
808.1443	-0.0529
808.314	-0.029
808.4837	0.0534
808.6533	-0.037
808.8229	-0.0064
808.9926	0.0509
809.1622	-0.0169
809.3317	-0.0261
809.5013	0.0043
809.6708	0.0498
809.8403	0.0377
810.0098	0.0435
810.1793	-0.0296
810.3488	-0.0502
810.5182	0.1071
810.6876	0.0979
810.857	0.0188
811.0264	-0.0536
811.1958	0.0847
811.3651	-0.0085
811.5344	0.0069
811.7037	0.0297
811.873	0.0635
812.0422	-0.1424
812.2115	-0.0039
812.3807	-0.1513
812.5499	-0.0144
812.7191	-0.1149
812.8882	-0.0263
813.0574	-0.039
813.2265	-0.0152
813.3956	-0.0721
813.5646	0.0313
813.7337	0.0303
813.9027	-0.0882
814.0718	0.0047
814.2407	-0.058
814.4097	0.0188
814.5787	0.0382
814.7476	-0.018
814.9165	0.0255
815.0854	0.0102
815.2543	-0.0287
815.4232	0.0746
815.592	0.1289
815.7608	-0.1182
815.9296	-0.0492
816.0984	0.0457
816.2671	-0.2884
816.4359	0.1544
816.6046	-0.0453
816.7733	-0.1262
816.942	-0.0375
817.1106	-0.0787
817.2793	0.0068
817.4479	0.0031
817.6165	0.0501
817.785	0.0076
817.9536	-0.1065
818.1221	0.0175
818.2906	-0.1575
818.4591	0.0552
818.6276	0.0107
818.7961	-0.0443
818.9645	0.0244
819.1329	-0.0151
819.3013	-0.0584
819.4697	-0.1455
819.638	0.1572
819.8064	0.1817
819.9747	-0.0306
820.143	-0.0615
820.3113	0.1363
820.4795	0.0561
820.6477	0.0172
820.816	0.0263
820.9842	0.0687
821.1523	0.0524
821.3205	-0.0527
821.4886	0.0132
821.6567	0.0256
821.8248	0.1038
821.9929	-0.1808
822.1609	0.0289
822.329	-0.1245
822.497	0.097
822.665	-0.0507
822.833	-0.0099
823.0009	-0.0261
823.1688	0.1288
823.3367	-0.2872
823.5046	-0.0099
823.6725	-0.0336
823.8404	0.1043
824.0082	-0.0963
824.176	-0.1049
824.3438	0.128
824.5116	-0.0726
824.6793	0.0176
824.847	-0.0477
825.0147	0.0862
825.1824	0.1224
825.3501	0.0552
825.5177	-0.0899
825.6854	-0.2032
825.853	-0.016
826.0206	-0.0199
826.1881	-0.0024
826.3557	0.1629
826.5232	0.1431
826.6907	-0.0482
826.8582	0.097
827.0257	0.2074
827.1931	0.1032
827.3605	-0.0822
827.528	0.1494
827.6953	-0.253
827.8627	-0.0493
828.03	0.1247
828.1974	-0.0281
828.3647	0.122
828.532	0.0668
828.6992	0.0364
828.8665	-0.249
829.0337	0.175
829.2009	-0.0575
829.3681	-0.0957
829.5352	-0.1403
829.7024	0.4043
829.8695	-0.1177
830.0366	0.1551
830.2037	0.0903
830.3707	0.1383
830.5378	-0.1014
830.7048	-0.2417
830.8718	0.0102
831.0388	0.0904
831.2057	0.183
831.3727	-0.2553
831.5396	-0.0574
831.7065	-1.0707
831.8734	0.1328
832.0402	0.1154
832.2071	-0.1974
832.3739	-0.2527
832.5407	-1.7148
832.7075	-0.5428
832.8742	0.1659
833.041	0.0066
833.2077	0.1167
833.3744	0.1512
833.541	0.1371
833.7077	0.0346
833.8743	-0.0575
834.0409	0.0404
834.2075	0.154
834.3741	-0.1755
834.5407	0.1118
834.7072	0.1368
834.8737	0.0322
835.0402	0.3255
835.2067	-0.0173
835.3731	-0.2407
835.5395	-0.0025
835.706	-0.3165
835.8723	0.0797
836.0387	0.0772
836.2051	2.3311
836.3714	0.0023
836.5377	0.0911
836.704	0.238
836.8703	-0.2781
837.0365	-0.5712
837.2027	0.6148
837.3689	0.1823
837.5351	0.0238
837.7013	-0.3064
837.8674	-0.7161
838.0335	0.221
838.1997	-0.0709
838.3657	-0
838.5318	-0.5837
838.6978	0.1581
838.8639	-0.4887
839.0299	0.0853
839.1958	0.0879
839.3618	-0.0918
839.5277	-0.0517
839.6937	0.0142
839.8596	-0.0751
840.0254	0.029
840.1913	-0.3438
840.3571	-0.2011
840.523	-0
840.6888	-0.2727
840.8545	-0.6828
841.0203	0.2756
841.186	-0.2544
841.3517	-0.2083
841.5174	-0.0386
841.6831	-0.0043
841.8488	-0.3377
842.0144	0.2827
842.18	0.0958
842.3456	-0.3356
842.5112	-0
842.6767	0.0643
842.8422	0.2202
843.0077	0.1289
843.1732	-0.0529
843.3387	-0.3147
843.5042	-0
843.6696	-0.2536
843.835	0.1197
844.0004	0.1939
844.1657	-0
844.3311	-0
844.4964	-0.894
844.6617	0.5383
844.827	-0
844.9923	0.1376
845.1575	-0.1331
845.3227	-0.0132
845.4879	-0.5882
845.6531	-0.0803
845.8183	0.9573
845.9834	-0
846.1485	0.0817
846.3136	-0.3185
846.4787	-0
846.6438	-0.1426
846.8088	0.779
846.9738	-0
847.1388	0.3836
847.3038	0.7013
847.4687	1.8607
847.6337	-0.2598
847.7986	0.6251
847.9635	0.0998
848.1284	0.2548
848.2932	0.6227
848.458	-0
848.6228	-0
848.7876	-0
848.9524	0.6211
849.1172	-2.1048
849.2819	1.2632
849.4466	0.8037
849.6113	0.2483
849.7759	-0
849.9406	0.2729
850.1052	-0.1526
850.2698	-0
850.4344	-0.9347
850.599	0.0187
850.7635	0.2233
850.928	1.2006
851.0925	0.8689
851.257	-0.0696
851.4215	-0.0094
851.5859	0.0701
851.7503	-0
851.9147	-0.2872
852.0791	0.2379
852.2434	-0.0355
852.4078	-0
852.5721	0.2927
852.7364	0.1679
852.9007	0.0906
853.0649	-0
853.2291	0.2172
853.3934	-0
853.5575	0.124
853.7217	0.2063
853.8859	-0
854.05	-0.505
854.2141	0.687
854.3782	0.3972
854.5423	-0.3375
854.7063	-0.2253
854.8703	0.201
855.0343	0.3567
855.1983	0.0025
855.3623	-0.0886
855.5262	-0
855.6901	0.1204
855.854	-0.0211
856.0179	0.2574
856.1818	0.4124
856.3456	1.1681
856.5094	0.2135
856.6732	1.5836
856.837	-1.1926
857.0008	-0.6711
857.1645	-0
857.3282	-0.2872
857.4919	-0.0052
857.6556	-0
857.8192	-0.3281
857.9828	0.1057
858.1465	-0.0565
858.31	-0
858.4736	-0.3197
858.6372	0.181
858.8007	1.442
858.9642	0.7562
859.1277	-0
859.2911	-0.5651
859.4546	-0
859.618	0.0831
859.7814	-0
859.9448	-0
860.1081	-0
860.2715	-1.3563
860.4348	-0.1198
860.5981	0.809
860.7614	-0.0243
860.9246	-0.1574
861.0879	-0
861.2511	-0.5522
861.4143	-0.7235
861.5774	-0.192
861.7406	-0
861.9037	-0.6037
862.0668	-0.7898
862.2299	0.037
862.393	-0
862.556	0.3437
862.7191	0.1415
862.8821	0.0301
863.0451	0.1396
863.208	-0.494
863.371	-0.5471
863.5339	0.1642
863.6968	0.049
863.8597	0.3968
864.0225	-0
864.1854	-0
864.3482	-1.2032
864.511	0.0157
864.6737	-0.2293
864.8365	0.0906
864.9992	1.9156
865.1619	-0.39
865.3246	-1.6294
865.4873	-0
865.65	-0
865.8126	-0
865.9752	-0.0755
866.1378	0.0849
866.3004	-0.3017
866.4629	-1.9265
866.6254	-0.4955
866.7879	-0.1375
866.9504	-0
867.1129	-0.3708
867.2753	0.0504
867.4377	-0.2274
867.6001	-0.4123
867.7625	-0.3015
867.9249	-0
868.0872	-0
868.2495	0.089
868.4118	-0
868.5741	1.5357
868.7363	-0
868.8986	-0.4123
869.0608	-0.1292
869.223	-0.2517
869.3851	-0
869.5473	0.2092
869.7094	0.3325
869.8715	-0
870.0336	0.0796
870.1957	-0
870.3577	-0
870.5197	-0.106
870.6817	-1.075
870.8437	-0.2032
871.0057	0.5757
871.1676	0.4388
871.3295	0.7808
871.4914	-0
871.6533	-0.3602
871.8151	0.5235
871.977	-0.2265
872.1388	0.3257
872.3006	-0.81
872.4623	-0.7033
872.6241	0.1168
872.7858	-0.0363
872.9475	-0
873.1092	-0.1538
873.2709	0.4292
873.4325	-1.4709
873.5941	-0
873.7557	-0
873.9173	0.02
874.0789	0.3655
874.2404	-0
874.4019	0.1269
874.5634	-0
874.7249	0.4603
874.8863	1.3659
875.0478	-0.2133
875.2092	0.3464
875.3706	0.8733
875.5319	-0.4293
875.6933	-0.0971
875.8546	-0
876.0159	-0.0484
876.1772	-0.4538
876.3385	0.9229
876.4997	0.215
876.6609	-0
876.8221	-0
876.9833	-0.2147
877.1445	0.5352
877.3056	-1.135
877.4667	-0
877.6278	-0
877.7889	-0.0059
877.9499	-0
878.111	0.0757
878.272	-0.3291
878.433	-0
878.5939	-0.0901
878.7549	0.3257
878.9158	0.5711
879.0767	-0
879.2376	-0
879.3984	0.6456
879.5593	0.6254
879.7201	-1.4174
879.8809	0.0659
880.0417	-0.2851
880.2024	-0.006
880.3632	0.4354
880.5239	0.2886
880.6846	-0.1886
880.8452	0.8473
881.0059	-0.7987
881.1665	0.2776
881.3271	-0
881.4877	-0.0144
881.6483	-0.0918
881.8088	-0.9124
881.9693	-0.5254
882.1298	-0.5254
882.2903	-0.5254
