Data from D4ACN5uM460nmA_Absorbance_13-05-42-455.txt Node
Date: Fri Feb 21 13:05:42 GMT 2025
User: LASERRRRR
Spectrometer: FLMT03099
Trigger mode: 0
Integration Time (sec): 1.500000E-2
Scans to average: 1
Electric dark correction enabled: true
Nonlinearity correction enabled: false
Boxcar width: 0
XAxis mode: Wavelengths
Number of Pixels in Spectrum: 3648
>>>>>Begin Spectral Data<<<<<
179.3399	-0.4301
179.5586	-0.4301
179.7771	-0.4301
179.9957	-0
180.2143	-0
180.4329	-0.0026
180.6514	-0
180.8699	0.4286
181.0885	-0
181.307	-0.0022
181.5255	-0.0474
181.744	0.2708
181.9625	-0
182.181	-0.1412
182.3994	-0.3805
182.6179	0.7743
182.8363	0.1461
183.0547	-0.277
183.2732	-0.0148
183.4916	0.0963
183.71	0.2362
183.9284	0.066
184.1467	0.159
184.3651	0.0652
184.5835	0.2632
184.8018	-0.0142
185.0201	0.1071
185.2385	0.119
185.4568	0.215
185.6751	0.2334
185.8934	0.293
186.1117	-0.1526
186.3299	0.3033
186.5482	0.303
186.7664	0.059
186.9847	-0.0517
187.2029	0.1573
187.4211	0.0346
187.6393	0.1003
187.8575	0.2128
188.0757	0.2687
188.2939	0.1571
188.512	0.5989
188.7302	-0.0261
188.9483	0.1781
189.1665	0.363
189.3846	0.1618
189.6027	0.1032
189.8208	0.1366
190.0389	0.1401
190.257	-0.0621
190.475	0.0124
190.6931	0.0843
190.9111	0.0688
191.1292	0.0847
191.3472	0.0775
191.5652	0.2711
191.7832	0.1374
192.0012	0.2231
192.2192	0.1038
192.4371	0.1314
192.6551	0.1085
192.873	0.084
193.091	0.1379
193.3089	0.2601
193.5268	0.2008
193.7447	0.1617
193.9626	0.1962
194.1805	0.178
194.3984	0.2541
194.6162	0.1815
194.8341	0.2208
195.0519	0.1712
195.2697	0.2325
195.4875	0.2596
195.7054	0.2525
195.9231	0.2193
196.1409	0.3309
196.3587	0.3418
196.5765	0.3367
196.7942	0.2593
197.012	0.3518
197.2297	0.2956
197.4474	0.3944
197.6651	0.2369
197.8828	0.3009
198.1005	0.3683
198.3182	0.2923
198.5358	0.3872
198.7535	0.3671
198.9711	0.3681
199.1888	0.3884
199.4064	0.4114
199.624	0.3984
199.8416	0.3823
200.0592	0.3818
200.2767	0.3892
200.4943	0.4333
200.7119	0.378
200.9294	0.4373
201.1469	0.4383
201.3645	0.4151
201.582	0.4003
201.7995	0.3989
202.017	0.425
202.2344	0.4147
202.4519	0.3645
202.6694	0.3597
202.8868	0.4294
203.1042	0.4252
203.3217	0.3606
203.5391	0.3909
203.7565	0.3752
203.9739	0.3776
204.1913	0.3498
204.4086	0.3542
204.626	0.347
204.8433	0.3694
205.0607	0.3626
205.278	0.365
205.4953	0.3416
205.7126	0.3302
205.9299	0.3299
206.1472	0.326
206.3644	0.3464
206.5817	0.3162
206.7989	0.3254
207.0162	0.319
207.2334	0.3212
207.4506	0.3043
207.6678	0.3273
207.885	0.306
208.1022	0.3131
208.3194	0.2967
208.5365	0.3016
208.7537	0.2834
208.9708	0.3113
209.1879	0.3048
209.405	0.2654
209.6222	0.28
209.8392	0.2997
210.0563	0.2725
210.2734	0.2731
210.4905	0.2949
210.7075	0.2674
210.9245	0.2574
211.1416	0.2818
211.3586	0.2762
211.5756	0.2267
211.7926	0.2815
212.0096	0.2581
212.2265	0.2679
212.4435	0.2653
212.6604	0.2577
212.8774	0.2494
213.0943	0.2534
213.3112	0.2539
213.5281	0.2479
213.745	0.2431
213.9619	0.2535
214.1788	0.2778
214.3956	0.2458
214.6125	0.249
214.8293	0.2532
215.0461	0.2468
215.2629	0.2538
215.4798	0.2525
215.6965	0.2406
215.9133	0.2433
216.1301	0.2335
216.3469	0.2514
216.5636	0.235
216.7803	0.2368
216.9971	0.2627
217.2138	0.2573
217.4305	0.243
217.6472	0.2461
217.8639	0.2519
218.0805	0.2423
218.2972	0.2533
218.5138	0.2525
218.7305	0.2506
218.9471	0.2647
219.1637	0.2777
219.3803	0.2644
219.5969	0.2499
219.8135	0.2593
220.0301	0.268
220.2466	0.2552
220.4632	0.2474
220.6797	0.2619
220.8962	0.261
221.1127	0.2723
221.3292	0.2672
221.5457	0.2787
221.7622	0.2657
221.9787	0.2842
222.1951	0.287
222.4116	0.2726
222.628	0.3009
222.8444	0.2918
223.0608	0.2945
223.2772	0.2806
223.4936	0.2713
223.71	0.2881
223.9264	0.2942
224.1427	0.2927
224.3591	0.2834
224.5754	0.2857
224.7917	0.2927
225.008	0.2948
225.2243	0.2907
225.4406	0.2863
225.6569	0.3196
225.8732	0.3152
226.0894	0.3012
226.3057	0.3001
226.5219	0.3107
226.7381	0.3215
226.9543	0.3138
227.1705	0.3157
227.3867	0.3246
227.6029	0.319
227.8191	0.3371
228.0352	0.3339
228.2513	0.35
228.4675	0.3471
228.6836	0.3388
228.8997	0.3442
229.1158	0.3528
229.3319	0.3499
229.548	0.3539
229.764	0.3632
229.9801	0.3764
230.1961	0.3688
230.4121	0.3754
230.6282	0.3706
230.8442	0.3874
231.0602	0.3782
231.2761	0.3781
231.4921	0.3934
231.7081	0.3931
231.924	0.4039
232.14	0.3918
232.3559	0.4016
232.5718	0.4089
232.7877	0.4142
233.0036	0.4145
233.2195	0.4108
233.4353	0.4268
233.6512	0.4088
233.867	0.4216
234.0829	0.4322
234.2987	0.4243
234.5145	0.4345
234.7303	0.4238
234.9461	0.4299
235.1619	0.4282
235.3776	0.4291
235.5934	0.4278
235.8091	0.4391
236.0249	0.4363
236.2406	0.4385
236.4563	0.4378
236.672	0.4445
236.8877	0.4551
237.1034	0.438
237.319	0.4536
237.5347	0.4467
237.7503	0.4451
237.966	0.4657
238.1816	0.4578
238.3972	0.4583
238.6128	0.4664
238.8284	0.4608
239.0439	0.4619
239.2595	0.4629
239.475	0.4588
239.6906	0.4654
239.9061	0.4675
240.1216	0.4588
240.3371	0.4564
240.5526	0.4567
240.7681	0.4614
240.9836	0.458
241.199	0.4516
241.4145	0.4456
241.6299	0.4456
241.8453	0.4322
242.0607	0.4353
242.2761	0.4216
242.4915	0.4242
242.7069	0.4129
242.9223	0.42
243.1376	0.4118
243.353	0.3936
243.5683	0.3803
243.7836	0.3908
243.9989	0.3769
244.2142	0.3681
244.4295	0.3661
244.6448	0.3631
244.86	0.3487
245.0753	0.3358
245.2905	0.3363
245.5057	0.3342
245.721	0.3296
245.9362	0.3225
246.1514	0.3194
246.3665	0.3049
246.5817	0.2935
246.7969	0.2971
247.012	0.293
247.2271	0.2948
247.4423	0.2837
247.6574	0.2749
247.8725	0.2666
248.0876	0.2679
248.3026	0.2647
248.5177	0.2488
248.7328	0.2485
248.9478	0.2499
249.1628	0.2521
249.3779	0.2398
249.5929	0.2357
249.8079	0.2332
250.0228	0.2352
250.2378	0.2226
250.4528	0.2291
250.6677	0.2132
250.8827	0.2146
251.0976	0.2092
251.3125	0.2134
251.5274	0.207
251.7423	0.2067
251.9572	0.2096
252.172	0.2007
252.3869	0.21
252.6017	0.2021
252.8166	0.2021
253.0314	0.1953
253.2462	0.1924
253.461	0.1929
253.6758	0.1955
253.8906	0.1923
254.1053	0.1948
254.3201	0.1943
254.5348	0.1822
254.7496	0.1802
254.9643	0.1922
255.179	0.1837
255.3937	0.1882
255.6083	0.1891
255.823	0.1873
256.0377	0.1827
256.2523	0.1794
256.467	0.1858
256.6816	0.1747
256.8962	0.1804
257.1108	0.1787
257.3254	0.1821
257.54	0.1731
257.7545	0.1791
257.9691	0.1823
258.1836	0.1667
258.3981	0.1813
258.6127	0.1743
258.8272	0.1782
259.0417	0.1732
259.2561	0.1748
259.4706	0.169
259.6851	0.1799
259.8995	0.1736
260.114	0.1718
260.3284	0.174
260.5428	0.1736
260.7572	0.1703
260.9716	0.1768
261.186	0.1724
261.4003	0.1712
261.6147	0.1696
261.829	0.1751
262.0433	0.1743
262.2577	0.1767
262.472	0.1727
262.6863	0.1799
262.9005	0.1747
263.1148	0.1728
263.3291	0.1749
263.5433	0.1801
263.7576	0.176
263.9718	0.1802
264.186	0.1757
264.4002	0.1766
264.6144	0.1874
264.8286	0.1746
265.0427	0.1732
265.2569	0.1753
265.471	0.1785
265.6851	0.1756
265.8993	0.1729
266.1134	0.1756
266.3275	0.1753
266.5415	0.1789
266.7556	0.1726
266.9697	0.1744
267.1837	0.1722
267.3978	0.1806
267.6118	0.173
267.8258	0.1779
268.0398	0.1768
268.2538	0.1803
268.4677	0.1773
268.6817	0.1754
268.8957	0.1693
269.1096	0.1748
269.3235	0.1662
269.5374	0.1712
269.7514	0.1671
269.9652	0.1763
270.1791	0.1684
270.393	0.1673
270.6068	0.1701
270.8207	0.1685
271.0345	0.1672
271.2483	0.1647
271.4622	0.1711
271.676	0.1694
271.8897	0.1612
272.1035	0.1709
272.3173	0.1682
272.531	0.1661
272.7448	0.166
272.9585	0.1632
273.1722	0.1692
273.3859	0.1639
273.5996	0.1699
273.8133	0.1726
274.0269	0.1654
274.2406	0.1654
274.4542	0.1678
274.6679	0.1717
274.8815	0.1744
275.0951	0.1783
275.3087	0.1721
275.5223	0.171
275.7358	0.1721
275.9494	0.1696
276.1629	0.1727
276.3765	0.1704
276.59	0.1657
276.8035	0.1684
277.017	0.1739
277.2305	0.1713
277.444	0.1706
277.6574	0.1715
277.8709	0.1779
278.0843	0.176
278.2978	0.1758
278.5112	0.1724
278.7246	0.1731
278.938	0.1736
279.1513	0.1771
279.3647	0.175
279.5781	0.175
279.7914	0.1766
280.0047	0.1797
280.2181	0.1729
280.4314	0.1762
280.6447	0.177
280.8579	0.1709
281.0712	0.174
281.2845	0.1736
281.4977	0.1748
281.711	0.1728
281.9242	0.1749
282.1374	0.1744
282.3506	0.1804
282.5638	0.1764
282.7769	0.1768
282.9901	0.1827
283.2033	0.1823
283.4164	0.1772
283.6295	0.1749
283.8426	0.1761
284.0557	0.1841
284.2688	0.1818
284.4819	0.1774
284.695	0.1856
284.908	0.1787
285.1211	0.1805
285.3341	0.1791
285.5471	0.1851
285.7601	0.1867
285.9731	0.1811
286.1861	0.1797
286.3991	0.1877
286.612	0.1818
286.825	0.1919
287.0379	0.1837
287.2508	0.1818
287.4637	0.1901
287.6766	0.1873
287.8895	0.1878
288.1024	0.1919
288.3152	0.1853
288.5281	0.1836
288.7409	0.1925
288.9538	0.1899
289.1666	0.1922
289.3794	0.1896
289.5922	0.1901
289.8049	0.1917
290.0177	0.1879
290.2304	0.1906
290.4432	0.1923
290.6559	0.1921
290.8686	0.1938
291.0813	0.1843
291.294	0.1928
291.5067	0.1886
291.7194	0.1902
291.932	0.1899
292.1447	0.1912
292.3573	0.1915
292.5699	0.196
292.7825	0.1883
292.9951	0.1893
293.2077	0.189
293.4203	0.1916
293.6328	0.1911
293.8454	0.1906
294.0579	0.1904
294.2704	0.1933
294.4829	0.1903
294.6954	0.1874
294.9079	0.185
295.1204	0.1902
295.3328	0.1939
295.5453	0.196
295.7577	0.1935
295.9701	0.1856
296.1825	0.1982
296.3949	0.19
296.6073	0.1852
296.8197	0.1915
297.0321	0.1962
297.2444	0.192
297.4567	0.1957
297.6691	0.1902
297.8814	0.191
298.0937	0.1923
298.306	0.1913
298.5182	0.198
298.7305	0.1929
298.9428	0.1943
299.155	0.1868
299.3672	0.1939
299.5794	0.1921
299.7916	0.1955
300.0038	0.1936
300.216	0.1935
300.4282	0.1937
300.6403	0.1944
300.8525	0.1844
301.0646	0.1916
301.2767	0.1878
301.4888	0.1915
301.7009	0.19
301.913	0.1973
302.125	0.1916
302.3371	0.1879
302.5491	0.1901
302.7612	0.1927
302.9732	0.1955
303.1852	0.1859
303.3972	0.1905
303.6092	0.1926
303.8211	0.1911
304.0331	0.1867
304.245	0.1857
304.457	0.1903
304.6689	0.1903
304.8808	0.1863
305.0927	0.1938
305.3046	0.1839
305.5164	0.1868
305.7283	0.1865
305.9401	0.1716
306.152	0.1836
306.3638	0.1783
306.5756	0.1792
306.7874	0.1772
306.9992	0.1686
307.2109	0.1735
307.4227	0.1681
307.6344	0.1712
307.8462	0.1696
308.0579	0.1714
308.2696	0.1674
308.4813	0.1684
308.693	0.162
308.9046	0.162
309.1163	0.1574
309.328	0.1591
309.5396	0.1572
309.7512	0.1464
309.9628	0.1476
310.1744	0.1463
310.386	0.1447
310.5976	0.1453
310.8091	0.1443
311.0207	0.1438
311.2322	0.137
311.4437	0.1384
311.6552	0.1401
311.8667	0.1444
312.0782	0.1398
312.2897	0.1408
312.5012	0.1397
312.7126	0.1312
312.924	0.1309
313.1355	0.1341
313.3469	0.1304
313.5583	0.1291
313.7696	0.1297
313.981	0.1358
314.1924	0.1303
314.4037	0.1272
314.6151	0.1243
314.8264	0.1298
315.0377	0.1269
315.249	0.1275
315.4603	0.1261
315.6716	0.1245
315.8828	0.1239
316.0941	0.1258
316.3053	0.1235
316.5165	0.1254
316.7277	0.1208
316.9389	0.1171
317.1501	0.1192
317.3613	0.1206
317.5724	0.1208
317.7836	0.1192
317.9947	0.1212
318.2058	0.1186
318.417	0.1187
318.6281	0.1194
318.8391	0.121
319.0502	0.1181
319.2613	0.1207
319.4723	0.117
319.6834	0.1179
319.8944	0.1143
320.1054	0.1172
320.3164	0.1164
320.5274	0.1198
320.7383	0.1186
320.9493	0.1173
321.1602	0.1173
321.3712	0.118
321.5821	0.114
321.793	0.1215
322.0039	0.1248
322.2148	0.1214
322.4257	0.1157
322.6365	0.1163
322.8474	0.1234
323.0582	0.124
323.269	0.1188
323.4798	0.1236
323.6906	0.1185
323.9014	0.1194
324.1122	0.1185
324.3229	0.1281
324.5337	0.1216
324.7444	0.1234
324.9551	0.1244
325.1658	0.1199
325.3765	0.1257
325.5872	0.127
325.7979	0.1244
326.0085	0.1223
326.2192	0.119
326.4298	0.1258
326.6404	0.1243
326.851	0.1235
327.0616	0.1213
327.2722	0.1291
327.4828	0.1248
327.6933	0.1382
327.9039	0.1227
328.1144	0.1255
328.3249	0.1315
328.5354	0.1274
328.7459	0.1275
328.9564	0.1283
329.1669	0.1304
329.3773	0.1295
329.5878	0.1223
329.7982	0.1319
330.0086	0.131
330.219	0.1265
330.4294	0.1277
330.6398	0.1278
330.8502	0.1292
331.0605	0.1297
331.2708	0.125
331.4812	0.1257
331.6915	0.129
331.9018	0.1309
332.1121	0.1338
332.3224	0.1243
332.5326	0.1269
332.7429	0.1263
332.9531	0.1349
333.1633	0.1255
333.3735	0.1318
333.5837	0.1301
333.7939	0.1323
334.0041	0.1348
334.2143	0.1294
334.4244	0.1372
334.6346	0.1319
334.8447	0.1336
335.0548	0.132
335.2649	0.1405
335.475	0.1395
335.685	0.1309
335.8951	0.1285
336.1051	0.1264
336.3152	0.1362
336.5252	0.1336
336.7352	0.1354
336.9452	0.1345
337.1552	0.1334
337.3652	0.1294
337.5751	0.1354
337.7851	0.1356
337.995	0.1385
338.2049	0.134
338.4148	0.1392
338.6247	0.1334
338.8346	0.1423
339.0445	0.1351
339.2543	0.136
339.4642	0.1325
339.674	0.1368
339.8838	0.1368
340.0936	0.1379
340.3034	0.1374
340.5132	0.1285
340.7229	0.1384
340.9327	0.1427
341.1424	0.1407
341.3522	0.1365
341.5619	0.139
341.7716	0.1423
341.9813	0.147
342.1909	0.1449
342.4006	0.1522
342.6102	0.1442
342.8199	0.1444
343.0295	0.1409
343.2391	0.1431
343.4487	0.1458
343.6583	0.1514
343.8679	0.1415
344.0774	0.1397
344.287	0.1502
344.4965	0.1537
344.706	0.1547
344.9155	0.1499
345.125	0.1446
345.3345	0.1583
345.544	0.1497
345.7534	0.1522
345.9629	0.1511
346.1723	0.1604
346.3817	0.1545
346.5911	0.1544
346.8005	0.1595
347.0099	0.1563
347.2193	0.1591
347.4286	0.1629
347.638	0.162
347.8473	0.1679
348.0566	0.1575
348.2659	0.1593
348.4752	0.1705
348.6845	0.1593
348.8937	0.1628
349.103	0.1681
349.3122	0.1693
349.5214	0.1619
349.7306	0.1716
349.9398	0.1712
350.149	0.1677
350.3582	0.1659
350.5674	0.1688
350.7765	0.1727
350.9856	0.1631
351.1948	0.1701
351.4039	0.1753
351.613	0.1699
351.822	0.1817
352.0311	0.1717
352.2402	0.1763
352.4492	0.176
352.6582	0.1756
352.8672	0.1735
353.0762	0.1846
353.2852	0.1786
353.4942	0.1839
353.7032	0.1759
353.9121	0.174
354.1211	0.1826
354.33	0.189
354.5389	0.1789
354.7478	0.1812
354.9567	0.1876
355.1655	0.1825
355.3744	0.178
355.5833	0.1833
355.7921	0.184
356.0009	0.1853
356.2097	0.1777
356.4185	0.1814
356.6273	0.187
356.8361	0.1894
357.0448	0.1852
357.2536	0.1866
357.4623	0.1831
357.671	0.1921
357.8797	0.1947
358.0884	0.1926
358.2971	0.1937
358.5057	0.1893
358.7144	0.1931
358.923	0.1972
359.1316	0.198
359.3402	0.1964
359.5488	0.1956
359.7574	0.2062
359.966	0.2057
360.1746	0.1954
360.3831	0.2098
360.5916	0.2022
360.8002	0.208
361.0087	0.207
361.2172	0.2133
361.4256	0.2026
361.6341	0.2077
361.8426	0.2034
362.051	0.2129
362.2594	0.2114
362.4678	0.2127
362.6762	0.2119
362.8846	0.2091
363.093	0.2182
363.3014	0.2255
363.5097	0.2212
363.718	0.2185
363.9264	0.2226
364.1347	0.2173
364.343	0.2316
364.5513	0.2287
364.7595	0.2241
364.9678	0.233
365.176	0.2329
365.3842	0.232
365.5925	0.2286
365.8007	0.2347
366.0089	0.2349
366.217	0.2302
366.4252	0.2282
366.6333	0.2329
366.8415	0.2455
367.0496	0.2408
367.2577	0.2414
367.4658	0.2395
367.6739	0.2352
367.882	0.2392
368.09	0.2322
368.2981	0.2503
368.5061	0.2428
368.7141	0.2399
368.9221	0.2536
369.1301	0.2448
369.3381	0.2488
369.5461	0.2476
369.754	0.2472
369.962	0.2503
370.1699	0.2534
370.3778	0.2594
370.5857	0.2624
370.7936	0.2538
371.0015	0.2561
371.2093	0.2523
371.4172	0.2525
371.625	0.2595
371.8328	0.2521
372.0406	0.2635
372.2484	0.2597
372.4562	0.2646
372.664	0.2608
372.8717	0.2636
373.0795	0.2723
373.2872	0.2679
373.4949	0.2686
373.7026	0.2611
373.9103	0.2631
374.118	0.2692
374.3256	0.2728
374.5333	0.2688
374.7409	0.2678
374.9485	0.2717
375.1561	0.2611
375.3637	0.2646
375.5713	0.2718
375.7789	0.2758
375.9864	0.2754
376.194	0.2804
376.4015	0.2789
376.609	0.2823
376.8165	0.2768
377.024	0.2746
377.2315	0.2778
377.4389	0.2783
377.6464	0.2842
377.8538	0.282
378.0612	0.285
378.2686	0.2855
378.476	0.2947
378.6834	0.2798
378.8908	0.2889
379.0981	0.2866
379.3055	0.2839
379.5128	0.2868
379.7201	0.2846
379.9274	0.2887
380.1347	0.2887
380.342	0.3003
380.5492	0.297
380.7565	0.3029
380.9637	0.2958
381.1709	0.2905
381.3781	0.3082
381.5853	0.301
381.7925	0.2955
381.9997	0.3079
382.2068	0.3023
382.4139	0.2975
382.6211	0.2938
382.8282	0.3092
383.0353	0.3019
383.2424	0.3039
383.4494	0.2984
383.6565	0.3071
383.8635	0.3072
384.0706	0.3181
384.2776	0.2983
384.4846	0.3015
384.6916	0.3072
384.8986	0.3135
385.1055	0.3177
385.3125	0.3083
385.5194	0.3087
385.7263	0.3098
385.9333	0.31
386.1402	0.3152
386.347	0.2956
386.5539	0.3148
386.7608	0.306
386.9676	0.3082
387.1744	0.3066
387.3813	0.3046
387.5881	0.3058
387.7948	0.3098
388.0016	0.3147
388.2084	0.298
388.4151	0.3071
388.6219	0.2997
388.8286	0.2964
389.0353	0.31
389.242	0.3148
389.4487	0.2978
389.6553	0.2897
389.862	0.3058
390.0686	0.2993
390.2753	0.294
390.4819	0.304
390.6885	0.2959
390.8951	0.3103
391.1016	0.2969
391.3082	0.2961
391.5147	0.2921
391.7213	0.2828
391.9278	0.2927
392.1343	0.2923
392.3408	0.2845
392.5473	0.2878
392.7537	0.2944
392.9602	0.2893
393.1666	0.2885
393.373	0.2829
393.5794	0.2883
393.7858	0.2922
393.9922	0.2808
394.1986	0.2723
394.4049	0.2806
394.6113	0.2809
394.8176	0.2842
395.0239	0.265
395.2302	0.2745
395.4365	0.2865
395.6428	0.2632
395.8491	0.2741
396.0553	0.2725
396.2615	0.2867
396.4678	0.272
396.674	0.2636
396.8802	0.2751
397.0863	0.2669
397.2925	0.2672
397.4987	0.2643
397.7048	0.2684
397.9109	0.2645
398.117	0.2579
398.3231	0.2649
398.5292	0.2604
398.7353	0.2554
398.9413	0.2631
399.1474	0.2662
399.3534	0.2621
399.5594	0.2641
399.7654	0.2527
399.9714	0.2637
400.1774	0.263
400.3833	0.2602
400.5893	0.2694
400.7952	0.267
401.0011	0.2551
401.207	0.2596
401.4129	0.2552
401.6188	0.256
401.8247	0.2663
402.0305	0.2589
402.2364	0.2647
402.4422	0.2631
402.648	0.2708
402.8538	0.2566
403.0596	0.2566
403.2654	0.2588
403.4711	0.2597
403.6768	0.2629
403.8826	0.2601
404.0883	0.2678
404.294	0.2619
404.4997	0.2523
404.7054	0.2642
404.911	0.2599
405.1167	0.2583
405.3223	0.2534
405.5279	0.2597
405.7335	0.2605
405.9391	0.2615
406.1447	0.2614
406.3502	0.2596
406.5558	0.2582
406.7613	0.2487
406.9668	0.2504
407.1724	0.2538
407.3778	0.2576
407.5833	0.2494
407.7888	0.2612
407.9942	0.257
408.1997	0.2713
408.4051	0.2533
408.6105	0.2629
408.8159	0.2498
409.0213	0.2589
409.2267	0.2595
409.432	0.2532
409.6374	0.2545
409.8427	0.2671
410.048	0.2573
410.2533	0.2582
410.4586	0.2468
410.6639	0.2592
410.8691	0.2528
411.0744	0.2645
411.2796	0.2615
411.4848	0.2567
411.69	0.2524
411.8952	0.2586
412.1004	0.2542
412.3056	0.2464
412.5107	0.2552
412.7158	0.2658
412.921	0.2627
413.1261	0.2539
413.3312	0.2615
413.5362	0.2742
413.7413	0.2516
413.9464	0.2632
414.1514	0.2653
414.3564	0.2481
414.5614	0.2522
414.7664	0.245
414.9714	0.2393
415.1764	0.2551
415.3813	0.2507
415.5863	0.2538
415.7912	0.2531
415.9961	0.2555
416.201	0.257
416.4059	0.257
416.6108	0.2586
416.8156	0.251
417.0205	0.251
417.2253	0.2469
417.4301	0.2624
417.6349	0.2456
417.8397	0.2556
418.0445	0.2459
418.2492	0.2498
418.454	0.2468
418.6587	0.2502
418.8634	0.2486
419.0681	0.2607
419.2728	0.2407
419.4775	0.2574
419.6822	0.2459
419.8868	0.2399
420.0915	0.234
420.2961	0.2294
420.5007	0.2453
420.7053	0.2407
420.9099	0.2373
421.1144	0.2392
421.319	0.2286
421.5235	0.2388
421.728	0.2407
421.9325	0.2392
422.137	0.2299
422.3415	0.2333
422.546	0.2316
422.7504	0.2382
422.9549	0.2377
423.1593	0.2292
423.3637	0.228
423.5681	0.2501
423.7725	0.2321
423.9769	0.2368
424.1812	0.2217
424.3856	0.215
424.5899	0.2233
424.7942	0.2195
424.9985	0.2323
425.2028	0.229
425.4071	0.2228
425.6113	0.2189
425.8156	0.2215
426.0198	0.2232
426.224	0.2148
426.4282	0.2146
426.6324	0.2223
426.8366	0.2116
427.0407	0.2211
427.2449	0.2133
427.449	0.2061
427.6531	0.2223
427.8572	0.2087
428.0613	0.2146
428.2654	0.2082
428.4694	0.199
428.6735	0.2102
428.8775	0.1996
429.0815	0.2021
429.2855	0.1964
429.4895	0.201
429.6935	0.1981
429.8975	0.1871
430.1014	0.1998
430.3053	0.1969
430.5093	0.1953
430.7132	0.1884
430.9171	0.1906
431.1209	0.1873
431.3248	0.1823
431.5286	0.1749
431.7325	0.1918
431.9363	0.1917
432.1401	0.1776
432.3439	0.1769
432.5477	0.1661
432.7514	0.1702
432.9552	0.1655
433.1589	0.163
433.3627	0.1693
433.5664	0.168
433.7701	0.1674
433.9737	0.1622
434.1774	0.1685
434.3811	0.1588
434.5847	0.1521
434.7883	0.1669
434.9919	0.1538
435.1955	0.1536
435.3991	0.1612
435.6027	0.1484
435.8062	0.1632
436.0098	0.1374
436.2133	0.1474
436.4168	0.1387
436.6203	0.1274
436.8238	0.1364
437.0272	0.1331
437.2307	0.14
437.4341	0.1285
437.6375	0.1303
437.841	0.1281
438.0443	0.1351
438.2477	0.122
438.4511	0.1191
438.6545	0.1284
438.8578	0.1272
439.0611	0.1221
439.2644	0.1207
439.4677	0.1147
439.671	0.1074
439.8743	0.1134
440.0775	0.1097
440.2808	0.1091
440.484	0.1058
440.6872	0.1124
440.8904	0.1048
441.0936	0.1051
441.2967	0.0986
441.4999	0.0986
441.703	0.0982
441.9062	0.1047
442.1093	0.1013
442.3124	0.1004
442.5155	0.1008
442.7185	0.0841
442.9216	0.0972
443.1246	0.0868
443.3276	0.0909
443.5307	0.0772
443.7337	0.0922
443.9366	0.0725
444.1396	0.0704
444.3426	0.0813
444.5455	0.0828
444.7484	0.0766
444.9513	0.0749
445.1542	0.0807
445.3571	0.0683
445.56	0.0635
445.7628	0.0739
445.9657	0.0745
446.1685	0.0707
446.3713	0.0713
446.5741	0.0782
446.7769	0.0681
446.9797	0.0649
447.1824	0.063
447.3852	0.0437
447.5879	0.0618
447.7906	0.0539
447.9933	0.0588
448.196	0.0517
448.3986	0.0484
448.6013	0.0472
448.8039	0.0488
449.0066	0.0684
449.2092	0.0588
449.4118	0.0466
449.6143	0.0562
449.8169	0.0454
450.0195	0.0524
450.222	0.053
450.4245	0.0568
450.627	0.0424
450.8295	0.0463
451.032	0.0418
451.2345	0.0385
451.4369	0.0427
451.6394	0.0446
451.8418	0.0388
452.0442	0.0389
452.2466	0.0389
452.449	0.0423
452.6513	0.0383
452.8537	0.0272
453.056	0.0416
453.2583	0.0388
453.4607	0.0251
453.663	0.0256
453.8652	0.0257
454.0675	0.0382
454.2697	0.0276
454.472	0.021
454.6742	0.0368
454.8764	0.0319
455.0786	0.0276
455.2808	0.0232
455.4829	0.031
455.6851	0.0348
455.8872	0.0187
456.0893	0.0235
456.2915	0.0252
456.4935	0.0316
456.6956	0.0214
456.8977	0.0233
457.0997	0.0279
457.3018	0.0216
457.5038	0.024
457.7058	0.0184
457.9078	0.0265
458.1098	0.0248
458.3117	0.0322
458.5137	0.0109
458.7156	0.0254
458.9175	0.0241
459.1194	0.0111
459.3213	0.0189
459.5232	0.029
459.725	0.0153
459.9269	0.0219
460.1287	0.0115
460.3305	0.0187
460.5323	0.0164
460.7341	0.0178
460.9359	0.0047
461.1376	0.0174
461.3394	0.0163
461.5411	0.0218
461.7428	0.0191
461.9445	0.0146
462.1462	0.0135
462.3479	0.0096
462.5495	0.0102
462.7512	0.0255
462.9528	0.0113
463.1544	0.0089
463.356	0.0017
463.5576	0.0182
463.7592	0.0151
463.9607	0.013
464.1623	0.0095
464.3638	0.0098
464.5653	0.0108
464.7668	0.0097
464.9683	0.0153
465.1697	0.0102
465.3712	0.0108
465.5726	0.0196
465.7741	0.0167
465.9755	0.0158
466.1769	0.0057
466.3782	0.0086
466.5796	0.0155
466.7809	0.0134
466.9823	0.0098
467.1836	-0.0018
467.3849	0.0109
467.5862	0.0002
467.7875	0.0002
467.9887	0.0114
468.19	0.0032
468.3912	0.007
468.5924	0.0021
468.7936	0.0064
468.9948	0.0049
469.196	0.0113
469.3972	0.0049
469.5983	0.005
469.7994	0.0059
470.0006	0.0078
470.2017	0.011
470.4027	0.0196
470.6038	0.0119
470.8049	0.0039
471.0059	0.0063
471.2069	0.008
471.408	0.0041
471.6089	0.0188
471.8099	0.0119
472.0109	0.0094
472.2119	0.0053
472.4128	0.0042
472.6137	0.0014
472.8146	0.0143
473.0155	0.016
473.2164	0.0064
473.4173	-0.0024
473.6181	-0.0025
473.819	0.0028
474.0198	-0.006
474.2206	-0.0042
474.4214	0.0047
474.6222	-0.0051
474.8229	0.0049
475.0237	0.0106
475.2244	0.0118
475.4251	0.0022
475.6258	0.0019
475.8265	0.0082
476.0272	0
476.2278	0.0096
476.4285	-0.0043
476.6291	0.0017
476.8297	0.0085
477.0303	0.0005
477.2309	0.0044
477.4315	0.0076
477.632	-0.0039
477.8326	-0.0029
478.0331	0.0109
478.2336	0.0047
478.4341	0.0082
478.6346	0.0026
478.8351	-0.0024
479.0355	0.0075
479.236	0.0136
479.4364	-0.0006
479.6368	0.0028
479.8372	0.0059
480.0376	0.0066
480.2379	-0.002
480.4383	0.0094
480.6386	-0.0019
480.8389	0.0031
481.0392	0.0016
481.2395	0.004
481.4398	0.0051
481.6401	0.0032
481.8403	0.0031
482.0405	0.0003
482.2408	0.0048
482.441	0.0058
482.6411	-0.0013
482.8413	-0.0023
483.0415	0.0092
483.2416	0.0018
483.4417	-0.0011
483.6419	-0.0018
483.8419	-0.003
484.042	-0.0035
484.2421	0.0007
484.4422	0.0016
484.6422	0.0006
484.8422	0.003
485.0422	0.0016
485.2422	0.0027
485.4422	0.0015
485.6422	0.0045
485.8421	0.004
486.042	0.0101
486.242	0.0028
486.4419	0.0081
486.6417	-0.0028
486.8416	0.0011
487.0415	0.0008
487.2413	-0.0019
487.4411	0.0045
487.641	-0.0012
487.8408	0.0029
488.0405	0.0098
488.2403	-0.0055
488.4401	-0.0016
488.6398	0.0074
488.8395	0.002
489.0392	0.0035
489.2389	0.0029
489.4386	-0.0077
489.6383	0.001
489.8379	-0.0062
490.0376	0.0018
490.2372	-0.007
490.4368	-0.0027
490.6364	0.0019
490.836	-0.0027
491.0355	0.0007
491.2351	0.0083
491.4346	0.0043
491.6341	-0.0018
491.8336	0.0043
492.0331	0.0076
492.2326	0.0062
492.432	-0.0013
492.6315	0.0074
492.8309	0.0087
493.0303	-0.0019
493.2297	-0.0004
493.4291	0.0009
493.6284	0.0097
493.8278	0.0008
494.0271	0.0025
494.2264	-0.0026
494.4257	0.0032
494.625	-0.0037
494.8243	0.0019
495.0236	0.008
495.2228	0.0093
495.422	0.0062
495.6213	0.0091
495.8205	0.0056
496.0196	0.0022
496.2188	0.0058
496.418	-0.0025
496.6171	0.0008
496.8162	0.0069
497.0153	0.0002
497.2144	0.0023
497.4135	0.0048
497.6126	-0.0033
497.8116	-0.0043
498.0107	0.0059
498.2097	0.0059
498.4087	0.0055
498.6077	-0.0039
498.8067	0.0084
499.0056	-0.0022
499.2046	0.008
499.4035	0.0021
499.6024	-0.0042
499.8013	0.0067
500.0002	0.0084
500.199	0.0058
500.3979	0.0003
500.5967	-0.0031
500.7956	0.0054
500.9944	0.0033
501.1932	0.0105
501.3919	0.0059
501.5907	0.0023
501.7895	0.0004
501.9882	-0.0005
502.1869	0.01
502.3856	0.0054
502.5843	0.0003
502.783	0.004
502.9816	0.0154
503.1803	0.0046
503.3789	0.0002
503.5775	0.0001
503.7761	-0.0074
503.9747	0.0016
504.1732	-0.0061
504.3718	0.0059
504.5703	0.0016
504.7689	-0.0068
504.9674	0.0032
505.1658	0.0011
505.3643	0.0046
505.5628	0.0152
505.7612	0.0025
505.9597	-0.0093
506.1581	0.0011
506.3565	0.0064
506.5549	0.0031
506.7532	-0.0081
506.9516	0.0007
507.1499	0.0041
507.3482	0.0027
507.5465	0.0082
507.7448	-0.0019
507.9431	0.0031
508.1414	0.0081
508.3396	0.0047
508.5379	-0.0033
508.7361	0.0041
508.9343	-0.0035
509.1325	0.009
509.3306	0.0032
509.5288	0.0007
509.7269	0.0067
509.9251	0.0089
510.1232	0.0044
510.3213	0.0022
510.5193	0.0008
510.7174	0.001
510.9154	0.0057
511.1135	0.0011
511.3115	-0.0023
511.5095	-0.0024
511.7075	-0.005
511.9055	0.0033
512.1034	0.0029
512.3014	0
512.4993	0.0106
512.6972	0.0016
512.8951	0.0014
513.093	0.0027
513.2908	0.0097
513.4887	-0.0022
513.6865	0.0089
513.8844	0.0104
514.0822	0.0084
514.2799	-0.0115
514.4777	-0.0001
514.6755	-0.0015
514.8732	-0.0019
515.0709	-0.0012
515.2687	0.0053
515.4664	0.0018
515.664	0.0013
515.8617	0.0047
516.0594	0.0096
516.257	0.0054
516.4546	0.0185
516.6522	-0.0002
516.8498	0.0033
517.0474	0.002
517.2449	0.0037
517.4425	0.0088
517.64	0.0073
517.8375	0.0169
518.035	-0.0077
518.2325	-0.0124
518.43	0.0058
518.6274	-0.0051
518.8249	-0.0048
519.0223	0.014
519.2197	0.0025
519.4171	0.0014
519.6145	0.0102
519.8118	-0.0063
520.0092	-0.002
520.2065	0.011
520.4038	0.0053
520.6011	0.0072
520.7984	0.0074
520.9956	-0.0006
521.1929	0.0025
521.3901	0.0122
521.5874	0.0047
521.7846	0.0024
521.9818	0.0005
522.1789	0.0038
522.3761	0.0141
522.5732	0.0083
522.7704	-0.0078
522.9675	-0.0106
523.1646	-0.0054
523.3617	0.0104
523.5587	-0.0043
523.7558	0.0057
523.9528	0.011
524.1498	-0.0058
524.3468	-0.0026
524.5438	0.0077
524.7408	0.0071
524.9378	0.006
525.1347	-0.0011
525.3316	-0.0037
525.5285	0.0043
525.7254	0.0023
525.9223	0.0122
526.1192	0.0037
526.316	0.0025
526.5129	0.0042
526.7097	-0.0017
526.9065	0.0056
527.1033	0.0031
527.3	0.0021
527.4968	0.001
527.6935	-0.0067
527.8903	-0.0017
528.087	0.0064
528.2837	0.0101
528.4804	0.0037
528.677	0.0112
528.8737	-0.0025
529.0703	-0.0026
529.2669	0.0091
529.4635	-0.0001
529.6601	-0.0056
529.8567	-0.0059
530.0532	0.0006
530.2498	0.0045
530.4463	-0.0011
530.6428	0.0072
530.8393	0.004
531.0358	0.0074
531.2322	-0.0023
531.4287	-0.0062
531.6251	-0.0073
531.8215	-0.0027
532.0179	0.0105
532.2143	0.0033
532.4107	0.006
532.607	-0.0003
532.8034	-0.0005
532.9997	-0.0048
533.196	-0.0063
533.3923	0.0033
533.5886	0.0072
533.7848	0.0006
533.9811	-0.0005
534.1773	-0.0023
534.3735	-0.0057
534.5697	0.0048
534.7659	-0.0055
534.9621	0.0056
535.1582	0.005
535.3544	0.0012
535.5505	0.0037
535.7466	0.0026
535.9427	0.0087
536.1387	-0.0024
536.3348	-0.0023
536.5308	-0.0017
536.7269	-0.0031
536.9229	-0.0024
537.1189	0.0166
537.3148	-0.0114
537.5108	-0.0002
537.7068	0.0007
537.9027	-0.007
538.0986	0.0042
538.2945	-0.0027
538.4904	-0.0026
538.6863	-0.001
538.8821	0.017
539.078	0.0132
539.2738	-0.0003
539.4696	0.0085
539.6654	-0.0011
539.8611	0.0029
540.0569	-0.0005
540.2526	0.0039
540.4484	-0.0097
540.6441	0.0032
540.8398	0.0058
541.0355	-0.0103
541.2311	0.0075
541.4268	0.0095
541.6224	0.0156
541.818	0.0047
542.0136	0.0041
542.2092	0.015
542.4048	-0.0016
542.6003	-0.0036
542.7959	0.0014
542.9914	0.0032
543.1869	0.0134
543.3824	-0.0002
543.5779	0.0028
543.7734	0.0034
543.9688	0.0093
544.1642	-0.0052
544.3596	0.0064
544.555	-0.0005
544.7504	0.0019
544.9458	-0.0035
545.1411	0.0042
545.3365	0.0126
545.5318	0.0061
545.7271	0.0131
545.9224	-0.0007
546.1177	-0.0025
546.3129	-0.004
546.5081	-0.0081
546.7034	-0.0035
546.8986	0.006
547.0938	0.0055
547.289	0.0038
547.4841	0.0126
547.6793	0.0021
547.8744	0.0018
548.0695	-0.0028
548.2646	0.002
548.4597	0.0033
548.6548	0.01
548.8498	0.0141
549.0448	-0.0009
549.2399	0.0025
549.4349	0.0068
549.6298	0.0068
549.8248	0.0015
550.0198	0.007
550.2147	0.0034
550.4096	0.0021
550.6045	-0.0063
550.7994	-0.0078
550.9943	-0.0007
551.1892	-0.013
551.384	0.016
551.5788	0.0002
551.7737	0.0062
551.9685	0.0046
552.1632	0.0063
552.358	0.0012
552.5528	0.0072
552.7475	0.0065
552.9422	0.0102
553.1369	0.0067
553.3316	0.0114
553.5263	0.0113
553.7209	0.0005
553.9156	-0.0002
554.1102	-0.0003
554.3048	-0.0115
554.4994	0.0026
554.694	0.0039
554.8885	0.0051
555.0831	0.0071
555.2776	0.0074
555.4721	0.0061
555.6666	0.001
555.8611	-0.0008
556.0555	-0.0017
556.25	0.0031
556.4444	-0.0052
556.6388	0
556.8332	0.0039
557.0276	0.002
557.222	0.0002
557.4163	0.0086
557.6107	-0.0066
557.805	-0.0034
557.9993	0.0027
558.1936	-0.0077
558.3879	0.0086
558.5821	-0.0032
558.7764	0.0022
558.9706	0.0044
559.1648	-0.0008
559.359	-0.0023
559.5532	-0.0042
559.7473	-0.0062
559.9415	-0.0063
560.1356	0.012
560.3297	0.0015
560.5238	0.0013
560.7179	-0.0056
560.9119	-0.0083
561.106	-0.0062
561.3	0.0017
561.494	-0.0094
561.688	-0.0027
561.882	-0.007
562.076	-0.0006
562.2699	0.0111
562.4639	0.0033
562.6578	0.0043
562.8517	-0.0033
563.0456	0.0051
563.2395	0.0054
563.4333	0.0022
563.6272	0.0045
563.821	0.0048
564.0148	0.0003
564.2086	0.0008
564.4024	0.0115
564.5961	-0.0001
564.7899	0.0033
564.9836	0.0055
565.1773	0.0093
565.371	-0.0038
565.5647	0.0032
565.7584	0.0198
565.952	0.0025
566.1456	0.0045
566.3393	0.0039
566.5329	-0.0019
566.7264	-0.0002
566.92	-0.0049
567.1136	-0.0019
567.3071	0.0003
567.5006	0.0049
567.6941	0.0043
567.8876	0.0044
568.0811	0.0119
568.2745	-0.0064
568.468	0.0016
568.6614	0.0047
568.8548	0.0085
569.0482	0.0062
569.2416	0.005
569.4349	0.0015
569.6283	-0.0001
569.8216	0.0061
570.0149	0.0003
570.2082	0.0111
570.4015	0.0022
570.5947	0.0051
570.788	0.0051
570.9812	-0.0008
571.1744	0.0032
571.3676	0.0039
571.5608	0.0001
571.754	0.0115
571.9471	0.0084
572.1402	0.0035
572.3333	0.0084
572.5264	0.0069
572.7195	-0.0038
572.9126	-0.0011
573.1057	0.0035
573.2987	0.0024
573.4917	-0.0031
573.6847	-0.002
573.8777	0.009
574.0707	0.0013
574.2636	0.0016
574.4566	-0.0014
574.6495	-0.0005
574.8424	0.0062
575.0353	0.0037
575.2281	0.0065
575.421	0.0013
575.6138	-0.003
575.8067	0.0091
575.9995	0.0034
576.1923	0.0068
576.385	0.0038
576.5778	0.0048
576.7706	0.0024
576.9633	0.0025
577.156	-0.0035
577.3487	0.0045
577.5414	0.0005
577.734	-0.0011
577.9267	0.0016
578.1193	0.0074
578.3119	0.0003
578.5045	0.0002
578.6971	-0.0016
578.8897	0.0014
579.0822	0.0068
579.2747	0.0019
579.4673	0.0052
579.6598	0.0006
579.8522	-0.0019
580.0447	0.0028
580.2372	0.0092
580.4296	0.0062
580.622	0
580.8144	0.0046
581.0068	0.0055
581.1992	0.0021
581.3915	-0
581.5839	0.0046
581.7762	0.0031
581.9685	0.0008
582.1608	0.0019
582.353	0.0034
582.5453	0.0039
582.7375	0.0033
582.9298	0.0002
583.122	-0.001
583.3142	0.0038
583.5063	-0.0019
583.6985	-0.0022
583.8906	-0.0019
584.0827	0.0033
584.2749	-0.0021
584.4669	-0.0004
584.659	-0.0005
584.8511	0.0097
585.0431	0.006
585.2352	0.0026
585.4272	0.0038
585.6192	0.0028
585.8111	-0.0008
586.0031	0.0005
586.195	0.0057
586.387	0.0012
586.5789	0.0038
586.7708	0.0037
586.9627	0.0028
587.1545	0.0021
587.3464	0.0031
587.5382	0.0008
587.73	0.0048
587.9218	0.0001
588.1136	-0.0004
588.3053	0.0027
588.4971	0.004
588.6888	-0.0008
588.8805	-0.0012
589.0722	0.0075
589.2639	0.0018
589.4556	0.0063
589.6472	0.0092
589.8389	0.0001
590.0305	-0.0008
590.2221	0.0053
590.4137	-0.0004
590.6052	-0.0028
590.7968	0.0009
590.9883	0.0021
591.1798	0.0033
591.3713	0.0045
591.5628	0.0072
591.7543	0.0027
591.9458	0.0005
592.1372	0.0032
592.3286	-0.0017
592.52	0.004
592.7114	0.0001
592.9028	0.0054
593.0941	-0.002
593.2855	0
593.4768	0.0087
593.6681	0.0068
593.8594	0.0048
594.0506	0.0072
594.2419	0.0027
594.4331	0.0037
594.6244	-0.0021
594.8156	0.0001
595.0067	0.0044
595.1979	-0.0005
595.3891	0.0049
595.5802	0.0076
595.7713	0.0066
595.9624	0.0016
596.1535	0.0036
596.3446	-0.0024
596.5357	0.0088
596.7267	0.0052
596.9177	0.0065
597.1087	0.0016
597.2997	-0.0014
597.4907	-0.0032
597.6817	0.0057
597.8726	-0.0005
598.0635	0.0013
598.2544	0.0045
598.4453	0.0017
598.6362	0.0022
598.827	-0.0004
599.0179	-0.0033
599.2087	0.0059
599.3995	0.0075
599.5903	0.0102
599.7811	0.0117
599.9718	0.0039
600.1626	-0.0027
600.3533	0.0014
600.544	-0.0006
600.7347	0.0073
600.9254	0.0079
601.116	0.0035
601.3067	0.0058
601.4973	0.0047
601.6879	0.0041
601.8785	0.0047
602.0691	0.003
602.2596	0.0046
602.4502	0.0031
602.6407	0.0028
602.8312	0.0009
603.0217	0.0059
603.2122	0.0014
603.4027	0.0044
603.5931	0.0031
603.7835	0.0027
603.9739	0.0016
604.1643	0.0097
604.3547	0.0064
604.5451	0.0096
604.7354	-0.0049
604.9257	-0.0046
605.116	-0.0002
605.3063	0.0025
605.4966	0.0017
605.6869	0.0085
605.8771	0.002
606.0673	0.0009
606.2575	-0.0017
606.4477	0.0058
606.6379	0.001
606.8281	0.0015
607.0182	0.0009
607.2083	0.006
607.3985	-0.005
607.5885	0.0002
607.7786	-0.0039
607.9687	0.0092
608.1587	0.0077
608.3488	0.0038
608.5388	-0.0036
608.7288	0.0014
608.9187	0.0037
609.1087	0.0088
609.2986	0.0108
609.4886	0.002
609.6785	0.0049
609.8684	-0.0022
610.0582	0
610.2481	-0.0042
610.4379	0.0052
610.6278	0.0019
610.8176	0.0075
611.0074	0.0058
611.1971	-0.0036
611.3869	0.0037
611.5766	-0.0098
611.7664	0.0127
611.9561	0.0069
612.1458	0.0019
612.3354	0.0035
612.5251	-0.0019
612.7147	0.0118
612.9044	-0.0069
613.094	0.0047
613.2836	0.0019
613.4731	-0.0043
613.6627	0.0013
613.8522	0.0063
614.0417	0.0001
614.2313	0.0051
614.4207	0.006
614.6102	0.0022
614.7997	0.0076
614.9891	0.0025
615.1785	-0.0021
615.3679	0.0022
615.5573	0.0004
615.7467	-0.0039
615.9361	-0.0027
616.1254	0.0036
616.3147	0.0004
616.504	0.0035
616.6933	-0.0064
616.8826	0.0012
617.0718	0.0059
617.2611	-0.0067
617.4503	-0.0025
617.6395	0.0074
617.8287	0.0018
618.0179	0.008
618.207	0.0093
618.3961	-0.0008
618.5853	0.001
618.7744	0.0044
618.9634	0.0079
619.1525	-0.0027
619.3416	-0.0034
619.5306	0.0024
619.7196	0.0111
619.9086	-0.0013
620.0976	-0.0077
620.2866	0.0041
620.4755	-0.0052
620.6645	0.0066
620.8534	0.0031
621.0423	0.0074
621.2312	-0.0049
621.42	-0.0096
621.6089	-0.0094
621.7977	-0.0003
621.9865	-0.0095
622.1753	-0.0004
622.3641	-0.0012
622.5529	-0.0037
622.7416	-0.0067
622.9303	0.0027
623.1191	0.0015
623.3078	0.006
623.4964	-0.0039
623.6851	0.0008
623.8737	-0.0031
624.0624	-0.0077
624.251	-0.0029
624.4396	0.002
624.6282	0.0099
624.8167	-0.0033
625.0053	0.0192
625.1938	-0.0004
625.3823	0.0043
625.5708	-0.0086
625.7593	-0.0012
625.9477	0.0029
626.1362	-0.0014
626.3246	-0.0057
626.513	-0.0045
626.7014	0.0089
626.8898	0.0087
627.0781	0.0048
627.2665	0.0089
627.4548	-0.0001
627.6431	0.0054
627.8314	0.0001
628.0197	0.0055
628.2079	0.0013
628.3962	-0.001
628.5844	0.0028
628.7726	-0.0065
628.9608	0.0068
629.1489	-0.0104
629.3371	-0.0066
629.5252	-0.0009
629.7134	0.0039
629.9015	0.0115
630.0895	-0.0037
630.2776	0.0083
630.4657	0.0041
630.6537	0.0083
630.8417	-0.0025
631.0297	0.0041
631.2177	0.0036
631.4057	0.0088
631.5936	-0.0018
631.7815	0.0056
631.9695	0.0099
632.1574	0.0112
632.3452	0.0027
632.5331	-0.013
632.7209	0.002
632.9088	0.0173
633.0966	0.0172
633.2844	0.008
633.4722	0.0022
633.6599	0.0092
633.8477	0.0073
634.0354	0.0072
634.2231	-0.0158
634.4108	-0.0043
634.5985	0.0102
634.7861	-0.0051
634.9738	-0.0046
635.1614	0.0064
635.349	0.0007
635.5366	0.0002
635.7242	0.0055
635.9117	0.0047
636.0993	0.0034
636.2868	0.0003
636.4743	0.0034
636.6618	-0.0175
636.8492	-0.0017
637.0367	-0.0085
637.2241	0.0049
637.4115	0.025
637.5989	-0.0023
637.7863	0.0249
637.9737	0.0055
638.161	0.0025
638.3484	-0.0138
638.5357	0.0223
638.723	0.0133
638.9103	-0.0137
639.0975	-0.0099
639.2848	0.002
639.472	0.0151
639.6592	-0.0068
639.8464	-0.0047
640.0336	0.0147
640.2208	-0.0119
640.4079	-0.0134
640.595	-0.0107
640.7821	0.0225
640.9692	0.0038
641.1563	0.0008
641.3434	0.0167
641.5304	0.0119
641.7174	0.0095
641.9044	0.0053
642.0914	0.0249
642.2784	-0.0309
642.4653	-0.0143
642.6523	-0.0006
642.8392	-0.007
643.0261	0.0262
643.213	0.0016
643.3999	0.0142
643.5867	0.0017
643.7735	-0.0097
643.9604	0.0198
644.1472	0.0023
644.3339	0.0158
644.5207	-0.0097
644.7075	0.0087
644.8942	-0.0081
645.0809	-0.01
645.2676	0
645.4543	-0.0126
645.6409	0.0312
645.8276	0.0252
646.0142	0.0074
646.2008	-0.0118
646.3874	-0.0005
646.574	0.0072
646.7605	0.0077
646.9471	-0.0109
647.1336	-0.0383
647.3201	0.0117
647.5066	-0.0033
647.6931	-0.021
647.8795	0.0077
648.0659	0.0077
648.2524	0.0042
648.4388	0.0113
648.6252	0.0046
648.8115	-0.0025
648.9979	0.0046
649.1842	0.0102
649.3705	0.0028
649.5568	-0.0082
649.7431	-0.0133
649.9294	-0.0139
650.1156	-0.0113
650.3018	0.0138
650.488	-0.0165
650.6742	0.0198
650.8604	0.0095
651.0466	-0.0065
651.2327	-0.0158
651.4188	0.0039
651.6049	0.0066
651.791	0.0013
651.9771	0.0132
652.1632	0.0068
652.3492	0.0002
652.5352	0.0048
652.7212	0.001
652.9072	-0.0084
653.0932	-0.0056
653.2791	-0.0014
653.465	-0.001
653.651	0.0036
653.8369	0.0122
654.0227	0.0082
654.2086	-0.0105
654.3944	-0.0035
654.5803	0.0053
654.7661	0.0005
654.9519	-0.0048
655.1377	-0
655.3234	-0
655.5092	-0
655.6949	-0
655.8806	-0
656.0663	-0
656.2519	-0
656.4376	-0
656.6232	-0
656.8088	-0
656.9945	-0
657.18	-0
657.3656	-0
657.5511	-0
657.7367	-0
657.9222	-0
658.1077	-0
658.2932	-0
658.4786	-0
658.6641	-0
658.8495	-0
659.0349	-0
659.2203	-0
659.4057	-0
659.591	0.0796
659.7764	0.0228
659.9617	-0.0086
660.147	-0.009
660.3323	0.0048
660.5176	-0.0011
660.7028	-0.0015
660.888	0.0088
661.0733	0.0072
661.2585	-0.0036
661.4436	-0.0058
661.6288	0.0144
661.8139	-0.0007
661.9991	-0.0131
662.1842	0.0008
662.3693	-0.0106
662.5544	0.0176
662.7394	0.0045
662.9245	-0.0132
663.1095	-0.0177
663.2945	-0.0119
663.4795	0.0064
663.6644	0.0008
663.8494	0.0116
664.0343	-0.0095
664.2193	-0.009
664.4042	0.0266
664.589	0.005
664.7739	0.0074
664.9587	-0.0056
665.1436	-0.0122
665.3284	0.0023
665.5132	-0.004
665.698	0.0058
665.8827	0.0198
666.0675	-0.0145
666.2522	0.0053
666.4369	-0.0112
666.6216	0.0031
666.8063	-0.003
666.9909	-0.0003
667.1756	-0.0068
667.3602	-0.0048
667.5448	-0.0074
667.7294	0.0117
667.9139	-0.0055
668.0985	0.0083
668.283	0.0066
668.4675	0.0118
668.652	0.0056
668.8365	-0.0059
669.0209	0.002
669.2054	-0.0018
669.3898	0.0039
669.5742	0.0039
669.7586	0.0052
669.943	-0.0069
670.1273	0.008
670.3117	0.0191
670.496	-0.0022
670.6803	0.0003
670.8646	-0.0024
671.0488	0.0207
671.2331	0.0016
671.4173	0.0175
671.6015	-0.0022
671.7857	0.0017
671.9699	0
672.1541	0
672.3382	0.0028
672.5223	0.0016
672.7064	-0.0013
672.8905	0.0026
673.0746	-0.0015
673.2587	0.0063
673.4427	-0.0061
673.6267	0.0215
673.8107	0.0012
673.9947	-0.0022
674.1787	-0.0009
674.3626	-0.0046
674.5465	0.0132
674.7304	-0.0009
674.9143	-0.0079
675.0982	0.011
675.2821	-0.0082
675.4659	-0.0166
675.6497	0.0122
675.8335	0.0091
676.0173	0.0037
676.2011	0.014
676.3849	0.0029
676.5686	0.0169
676.7523	-0.0113
676.936	-0.0079
677.1197	-0.0132
677.3034	0.0111
677.487	0.0191
677.6706	0.0161
677.8542	0.0103
678.0378	0.0005
678.2214	-0.0046
678.405	-0.0023
678.5885	0.0005
678.772	0.0107
678.9555	-0.001
679.139	-0.0017
679.3225	0.0105
679.5059	-0.0002
679.6894	-0.004
679.8728	-0.0065
680.0562	0.0043
680.2395	-0.0107
680.4229	-0.0288
680.6062	-0.0064
680.7896	-0.0125
680.9729	0.0012
681.1562	-0.0107
681.3394	-0.0109
681.5227	0.0129
681.7059	0.0073
681.8891	0.0073
682.0723	-0.0084
682.2555	0.0076
682.4387	0.0085
682.6218	0.0067
682.805	-0.0017
682.9881	0.0164
683.1712	0.0125
683.3542	0.0116
683.5373	-0.0034
683.7203	0.0083
683.9034	-0.0109
684.0864	-0.0049
684.2694	-0.0004
684.4523	0.0137
684.6353	-0.0082
684.8182	-0.0091
685.0011	0.0073
685.184	-0.0134
685.3669	0.0205
685.5498	0.0004
685.7326	0.001
685.9154	-0.0107
686.0982	0.0089
686.281	-0.0149
686.4638	0.0171
686.6465	-0.0059
686.8293	-0.0174
687.012	-0.0026
687.1947	-0.005
687.3774	-0.0013
687.56	-0.0033
687.7427	0.0048
687.9253	-0.0188
688.1079	-0.0133
688.2905	-0.0083
688.4731	0.017
688.6556	-0.0011
688.8382	-0.0517
689.0207	0.0206
689.2032	0.0045
689.3857	-0.0088
689.5681	-0.0175
689.7506	0.0231
689.933	0.0056
690.1154	0.0195
690.2978	-0.0038
690.4802	0.023
690.6626	0.005
690.8449	0.0051
691.0272	-0.007
691.2095	-0.034
691.3918	0.0088
691.5741	0.0109
691.7563	0.0095
691.9386	0.0103
692.1208	0.0245
692.303	0.0074
692.4852	-0.0091
692.6673	-0.0021
692.8495	-0.0046
693.0316	-0.0064
693.2137	-0.0007
693.3958	-0.0008
693.5778	-0.0052
693.7599	0.005
693.9419	-0.02
694.1239	0.0157
694.3059	0.0295
694.4879	-0.0021
694.6699	0.0035
694.8518	-0.017
695.0337	0.0063
695.2157	0.0327
695.3975	0.0133
695.5794	0.0019
695.7613	0.0081
695.9431	-0.0184
696.1249	0.0166
696.3067	-0.01
696.4885	0.0074
696.6703	-0.005
696.852	0.0087
697.0337	0.0159
697.2154	0.0098
697.3971	0.0116
697.5788	0.0018
697.7605	-0.0059
697.9421	0.0112
698.1237	0.0035
698.3053	-0.0086
698.4869	0.0046
698.6685	-0.0047
698.85	0.019
699.0315	-0.0233
699.213	0.0304
699.3945	-0.003
699.576	0.0107
699.7575	0.0164
699.9389	-0.0152
700.1203	0.0041
700.3017	0.0193
700.4831	0.0031
700.6645	0.0208
700.8458	-0.0257
701.0271	0.0439
701.2084	0.0005
701.3897	0.0141
701.571	-0.0369
701.7523	0.0245
701.9335	0.0053
702.1147	0.0123
702.2959	-0.0069
702.4771	0.0137
702.6583	-0.0133
702.8394	-0.0207
703.0205	0.0037
703.2016	-0.0046
703.3827	-0.0147
703.5638	0.0065
703.7449	0.027
703.9259	0.0008
704.1069	-0.0192
704.2879	0.0188
704.4689	-0.0268
704.6499	0.0163
704.8308	-0.0064
705.0117	0.0114
705.1927	-0.0116
705.3735	0.0243
705.5544	0.0073
705.7353	-0.0208
705.9161	-0.0299
706.0969	0.0213
706.2777	0.0035
706.4585	-0.0026
706.6393	-0.0031
706.82	0.0011
707.0007	-0.0097
707.1815	0.006
707.3621	0.0383
707.5428	0.0089
707.7235	0.0028
707.9041	-0.0076
708.0847	0.0132
708.2653	0.0207
708.4459	0.0127
708.6265	-0.0145
708.807	-0.0088
708.9875	0.0097
709.168	-0.0111
709.3485	0.0083
709.529	0.0075
709.7095	-0.0227
709.8899	0.0043
710.0703	-0.0021
710.2507	0.0041
710.4311	-0.0139
710.6115	0.0335
710.7918	0.0302
710.9721	-0.0044
711.1524	-0.0062
711.3327	0.0005
711.513	0.0167
711.6932	-0.0079
711.8735	0.018
712.0537	-0.0048
712.2339	-0.0043
712.4141	0.0141
712.5942	-0.0061
712.7744	0.0114
712.9545	0.0023
713.1346	0.0373
713.3147	0.0077
713.4947	0.0078
713.6748	0.0105
713.8548	0.0246
714.0348	0.0078
714.2148	0.0136
714.3948	0.0108
714.5748	0.0012
714.7547	0.0042
714.9346	0.0237
715.1145	-0.0175
715.2944	-0.017
715.4743	0.012
715.6541	-0.0038
715.834	0.0526
716.0138	0.0116
716.1936	0.0049
716.3733	-0.0137
716.5531	-0.026
716.7328	0.0246
716.9126	0.0243
717.0923	-0.0415
717.2719	0.0037
717.4516	0.0228
717.6312	0.0028
717.8109	0.0131
717.9905	0.0296
718.1701	-0.0014
718.3496	-0.0236
718.5292	-0.0111
718.7087	0.0231
718.8882	0.0176
719.0677	-0.0047
719.2472	-0.001
719.4267	0.0019
719.6061	-0.0305
719.7856	0.0329
719.965	0.0018
720.1443	-0.0187
720.3237	-0.0089
720.5031	0.0043
720.6824	-0.009
720.8617	-0.0029
721.041	0.0187
721.2203	-0.0193
721.3995	-0.0075
721.5788	-0.0314
721.758	0.0089
721.9372	-0.0051
722.1164	0.0018
722.2956	0.0212
722.4747	0.0257
722.6538	-0.0176
722.8329	0.0212
723.012	0.0139
723.1911	-0.0075
723.3702	0.0258
723.5492	0.0035
723.7282	-0.016
723.9072	0.0026
724.0862	0.0019
724.2652	-0.0042
724.4441	-0.004
724.623	0.0177
724.8019	-0.0007
724.9808	-0.0127
725.1597	0.0132
725.3385	0.0141
725.5174	-0.0073
725.6962	0.0121
725.875	0.0034
726.0538	0.0134
726.2325	0.0132
726.4112	-0.0179
726.59	0.011
726.7687	-0.0169
726.9474	0.0165
727.126	0.0194
727.3047	-0.0199
727.4833	-0.0329
727.6619	-0.0039
727.8405	0.0104
728.0191	0.0364
728.1976	0.0163
728.3762	0.0084
728.5547	-0.0209
728.7332	0.0011
728.9116	0.0149
729.0901	0.0042
729.2686	-0.0056
729.447	-0.014
729.6254	-0.0025
729.8038	-0.0043
729.9821	-0.0283
730.1605	-0.0028
730.3388	0.0074
730.5171	0.0128
730.6954	-0.0107
730.8737	0.0092
731.0519	-0.0027
731.2302	-0.0048
731.4084	-0.0109
731.5866	-0.0097
731.7648	0.0076
731.9429	0.0193
732.1211	-0.0008
732.2992	-0.0295
732.4773	-0.0164
732.6554	-0.0234
732.8335	0.0088
733.0115	0.0003
733.1896	-0.0037
733.3676	0.0185
733.5456	-0.0036
733.7235	-0.0133
733.9015	-0.0066
734.0794	-0.0036
734.2574	-0.0264
734.4353	0.0103
734.6131	-0.0174
734.791	-0.014
734.9689	-0.0059
735.1467	-0.0038
735.3245	0.0117
735.5023	0.0166
735.68	0.0058
735.8578	0.0065
736.0355	0.0103
736.2132	-0.0165
736.3909	0.0166
736.5686	-0.011
736.7463	-0.0126
736.9239	0.0161
737.1015	0.003
737.2791	0.012
737.4567	-0.0019
737.6343	-0.0174
737.8118	0.025
737.9894	-0.0242
738.1669	-0.014
738.3444	0.0387
738.5218	-0.0117
738.6993	-0.0079
738.8767	-0.0032
739.0541	-0.0057
739.2315	-0.0065
739.4089	0.0253
739.5863	-0.0006
739.7636	0.0049
739.9409	0.0004
740.1182	-0.0015
740.2955	0.0024
740.4728	-0.0094
740.65	-0.0213
740.8272	0.0105
741.0044	-0.0175
741.1816	0.0567
741.3588	-0.0241
741.5359	0.0317
741.7131	0.0094
741.8902	-0.0008
742.0673	-0.0081
742.2444	0.0281
742.4214	0.0294
742.5985	-0.0037
742.7755	0.0209
742.9525	-0.0283
743.1295	-0.0268
743.3064	0.003
743.4834	-0.0078
743.6603	0.0448
743.8372	-0.0443
744.0141	0.0772
744.191	0.0148
744.3678	-0.0209
744.5446	0.0138
744.7215	-0.007
744.8982	-0.0086
745.075	0.039
745.2518	-0.0124
745.4285	0.0096
745.6052	-0.0163
745.7819	0.0081
745.9586	-0.0017
746.1353	-0.0095
746.3119	0.0048
746.4885	0.027
746.6651	-0.0038
746.8417	0.0022
747.0183	0.0273
747.1948	0.015
747.3714	-0.0156
747.5479	0.0031
747.7244	-0.0116
747.9008	-0.029
748.0773	0.0119
748.2537	-0.0103
748.4301	0.0344
748.6065	-0.0017
748.7829	-0.0195
748.9593	0.0066
749.1356	-0.0125
749.3119	0.0084
749.4882	0.0208
749.6645	-0.0024
749.8408	0.0168
750.017	0.0001
750.1933	-0.0204
750.3695	0.001
750.5457	-0.0043
750.7218	0.0143
750.898	-0.0171
751.0741	0.0091
751.2502	0.01
751.4263	0.0001
751.6024	-0.0006
751.7784	-0.0072
751.9545	-0.0047
752.1305	0.0088
752.3065	0.0036
752.4825	0.0102
752.6584	0.004
752.8344	-0.0021
753.0103	-0.0085
753.1862	0.0171
753.3621	-0.0009
753.5379	-0.0092
753.7138	-0.008
753.8896	0.0359
754.0654	-0.0061
754.2412	0.0173
754.417	-0.0079
754.5927	0.0128
754.7685	0.0188
754.9442	0.0124
755.1199	0.008
755.2956	-0.0032
755.4712	0.01
755.6469	0.0117
755.8225	0.0171
755.9981	-0.001
756.1736	0.0057
756.3492	-0.005
756.5248	0.0138
756.7003	0.0053
756.8758	-0.0029
757.0513	0.0041
757.2267	0.0028
757.4022	-0.0131
757.5776	0.0004
757.753	0.0048
757.9284	-0.0004
758.1038	0.0114
758.2791	-0.0035
758.4545	-0.026
758.6298	-0.0026
758.8051	0.0018
758.9803	-0.003
759.1556	-0.0085
759.3308	-0.0076
759.506	-0.0035
759.6812	-0.0042
759.8564	-0.0136
760.0316	-0.002
760.2067	0.0113
760.3819	0.0121
760.557	-0.0004
760.732	-0.0124
760.9071	0.0199
761.0821	-0.0183
761.2572	0.005
761.4322	0.0142
761.6072	0.0227
761.7821	-0.0259
761.9571	0.0194
762.132	-0.0178
762.3069	0.0123
762.4818	0.0074
762.6567	0.0229
762.8316	0.0131
763.0064	0.0098
763.1812	-0.0212
763.356	-0.0198
763.5308	0.0076
763.7055	-0.0046
763.8803	0.0014
764.055	0.007
764.2297	-0.0125
764.4044	-0.0033
764.579	-0.0025
764.7537	-0.0025
764.9283	0.0222
765.1029	0.0049
765.2775	0.0141
765.4521	0.0152
765.6266	-0.0089
765.8011	-0.0003
765.9756	-0.0014
766.1501	-0.0217
766.3246	0.0257
766.4991	-0.0009
766.6735	0.02
766.8479	0.0147
767.0223	0.0341
767.1967	0.0186
767.371	0.0174
767.5454	0.0261
767.7197	0.0084
767.894	-0.0019
768.0683	0.0447
768.2425	0.0176
768.4168	-0.0003
768.591	-0.0103
768.7652	-0.0118
768.9394	-0.0273
769.1135	0.011
769.2877	0.0128
769.4618	0.0414
769.6359	-0.0037
769.81	-0.0008
769.984	-0.0286
770.1581	0.0004
770.3321	0.0303
770.5061	0.0251
770.6801	0.0058
770.8541	-0.0118
771.028	0.0162
771.202	0.0228
771.3759	-0.0011
771.5498	0.0005
771.7236	0.0032
771.8975	0.0569
772.0713	0.0084
772.2451	-0.0072
772.4189	0.0006
772.5927	-0.0268
772.7665	0.0006
772.9402	0.0022
773.1139	-0.0038
773.2876	0.0084
773.4613	0.0446
773.635	0.0357
773.8086	0.0191
773.9822	0.0141
774.1558	0.0117
774.3294	-0.0133
774.503	0.0149
774.6765	0.009
774.8501	0.0056
775.0236	0.0437
775.1971	-0.0142
775.3705	-0.0233
775.544	-0.0284
775.7174	0.001
775.8908	0.0347
776.0642	0.0479
776.2376	0.0145
776.4109	0.0097
776.5843	0.0153
776.7576	0.0035
776.9309	0.0137
777.1041	0.0324
777.2774	-0.0097
777.4506	0.0114
777.6238	-0.0042
777.797	0.036
777.9702	0.008
778.1434	0.0191
778.3165	0.0069
778.4896	-0.0392
778.6627	-0.0098
778.8358	-0.0074
779.0089	-0.0227
779.1819	0.0312
779.3549	-0.0051
779.5279	0.0008
779.7009	0.0498
779.8739	0.0103
780.0468	0.0123
780.2197	0.0068
780.3926	0.0074
780.5655	0.007
780.7384	-0.0161
780.9112	0.0053
781.0841	0.0109
781.2569	0.0083
781.4297	-0.0067
781.6024	0.0158
781.7752	0.0344
781.9479	0.0355
782.1206	-0.025
782.2933	0.0052
782.466	0.0298
782.6386	-0.0084
782.8113	-0.0114
782.9839	-0.0069
783.1565	0.0374
783.329	-0.0219
783.5016	-0.0027
783.6741	-0.03
783.8466	0.0054
784.0191	0.0105
784.1916	-0.0296
784.3641	-0.0135
784.5365	0.0375
784.7089	-0.0641
784.8813	0.0388
785.0537	0.0248
785.2261	-0.0208
785.3984	0.0015
785.5707	-0.0021
785.743	0.0191
785.9153	-0.0285
786.0876	-0.0134
786.2598	-0.0323
786.432	-0.0094
786.6042	0.0521
786.7764	-0.0329
786.9486	-0.0338
787.1207	0.0165
787.2928	0.0501
787.4649	-0.0341
787.637	0.0078
787.8091	-0.004
787.9811	-0.0059
788.1532	0.0035
788.3252	0.0125
788.4972	0.0006
788.6691	-0.0051
788.8411	-0.0472
789.013	0.0148
789.1849	-0.0118
789.3568	-0.0161
789.5287	0.0671
789.7005	-0.0282
789.8723	0.0096
790.0442	-0.0523
790.2159	0.0235
790.3877	0.0155
790.5595	0.0204
790.7312	-0.0353
790.9029	-0.011
791.0746	-0.063
791.2463	-0.0595
791.4179	-0.0123
791.5896	-0.0411
791.7612	0.0753
791.9328	0.0052
792.1044	-0.0503
792.2759	-0.032
792.4474	0.0096
792.619	0.0152
792.7905	0.0272
792.9619	0.0269
793.1334	0.0277
793.3048	0.0349
793.4762	0.0199
793.6476	-0.0362
793.819	0.0089
793.9904	0.0174
794.1617	-0.0288
794.333	-0.0034
794.5043	0.0384
794.6756	0.0077
794.8469	-0.0178
795.0181	-0.008
795.1893	0.0378
795.3605	0.0007
795.5317	-0.0085
795.7029	-0.022
795.874	0.0039
796.0452	-0.0226
796.2163	0.0447
796.3873	0.0748
796.5584	0.0531
796.7294	-0.0115
796.9005	0.0353
797.0715	0.0034
797.2425	0.0838
797.4134	-0.0298
797.5844	0.0052
797.7553	-0.061
797.9262	0.0353
798.0971	0.0193
798.2679	-0.038
798.4388	0.0378
798.6096	-0.0011
798.7804	0.0279
798.9512	0.0025
799.122	0.0186
799.2927	0.0622
799.4635	-0.093
799.6342	-0.0677
799.8049	0.0377
799.9755	-0.0444
800.1462	-0.0079
800.3168	0.0149
800.4874	-0.111
800.658	0.0775
800.8286	-0.0238
800.9991	-0.0242
801.1696	-0.0141
801.3402	-0.0174
801.5106	-0.0242
801.6811	0.0335
801.8516	0.0083
802.022	-0.0692
802.1924	0.0003
802.3628	-0.0549
802.5332	0.0749
802.7035	0.0632
802.8739	0.0453
803.0442	-0.0964
803.2145	0.0153
803.3847	0.0049
803.555	-0.0062
803.7252	-0.0746
803.8954	-0.0359
804.0656	-0.0415
804.2358	-0.0794
804.4059	0.0324
804.5761	0.0003
804.7462	-0.0249
804.9163	-0.006
805.0864	-0.049
805.2564	-0.0838
805.4264	-0.0111
805.5965	0.0525
805.7665	-0.0103
805.9364	-0.0283
806.1064	0.0002
806.2763	0.0386
806.4462	0.021
806.6161	0.0513
806.786	-0.0028
806.9559	0.0011
807.1257	-0.0568
807.2955	-0.0153
807.4653	-0.0162
807.6351	-0.0059
807.8048	-0.0301
807.9746	-0.0035
808.1443	-0.0025
808.314	-0.0314
808.4837	0.042
808.6533	0.0018
808.8229	0.0186
808.9926	0.1025
809.1622	0.0293
809.3317	-0.1167
809.5013	-0.0626
809.6708	0.0366
809.8403	0.0068
810.0098	-0.0289
810.1793	-0.0396
810.3488	-0.0898
810.5182	0.132
810.6876	-0.0368
810.857	0.0184
811.0264	0.0158
811.1958	0.032
811.3651	-0.1219
811.5344	0.0388
811.7037	0.1053
811.873	0.085
812.0422	-0.0746
812.2115	-0.0396
812.3807	-0.1826
812.5499	-0.0799
812.7191	-0.0612
812.8882	-0.1097
813.0574	0.011
813.2265	0.1012
813.3956	0.0217
813.5646	0.0213
813.7337	-0.0325
813.9027	-0.0644
814.0718	-0.0095
814.2407	0.0019
814.4097	-0.0253
814.5787	0.1023
814.7476	0.0061
814.9165	0.0745
815.0854	-0.0127
815.2543	0.0027
815.4232	0.0656
815.592	-0.054
815.7608	0.0214
815.9296	-0.0078
816.0984	-0.0167
816.2671	-0.0637
816.4359	0.0749
816.6046	0.0036
816.7733	-0.072
816.942	-0.0101
817.1106	0.1559
817.2793	-0.088
817.4479	-0.0066
817.6165	0.0625
817.785	0.0931
817.9536	-0.1204
818.1221	-0.0038
818.2906	-0.0589
818.4591	-0.0255
818.6276	0.023
818.7961	0.0884
818.9645	0.0213
819.1329	0.1209
819.3013	0.0037
819.4697	-0.1726
819.638	-0.1594
819.8064	0.0528
819.9747	-0.0092
820.143	-0.0756
820.3113	0.0503
820.4795	0.0745
820.6477	0.0649
820.816	0.0405
820.9842	0.0187
821.1523	0.005
821.3205	0.0588
821.4886	0.062
821.6567	-0.0517
821.8248	0.1034
821.9929	-0.1308
822.1609	-0.0318
822.329	-0.0282
822.497	0.0232
822.665	-0.0681
822.833	0.0698
823.0009	-0.0365
823.1688	0.2299
823.3367	-0.2167
823.5046	0.1081
823.6725	-0.1013
823.8404	0.0358
824.0082	-0.1187
824.176	-0.1323
824.3438	0.2105
824.5116	-0.0621
824.6793	0.1116
824.847	-0.1248
825.0147	-0.0649
825.1824	0.004
825.3501	0.011
825.5177	-0.0876
825.6854	-0.2456
825.853	-0.0063
826.0206	-0.0439
826.1881	-0.133
826.3557	0.0077
826.5232	0.1115
826.6907	-0.0507
826.8582	-0.0702
827.0257	0.245
827.1931	-0.0539
827.3605	-0.2128
827.528	-0.0797
827.6953	-0.2991
827.8627	-0.1043
828.03	0.0769
828.1974	-0.0286
828.3647	0.0838
828.532	-0.0304
828.6992	0.1203
828.8665	-0.162
829.0337	0.0238
829.2009	-0.2028
829.3681	0.0924
829.5352	-0.3305
829.7024	0.0983
829.8695	-0.0821
830.0366	0.0034
830.2037	0.1032
830.3707	0.1169
830.5378	-0.0154
830.7048	-0.1131
830.8718	0.0511
831.0388	0.1304
831.2057	-0.1665
831.3727	-0.4343
831.5396	0.1235
831.7065	-0.9739
831.8734	0.123
832.0402	0.0331
832.2071	-0.358
832.3739	-0.4001
832.5407	-0
832.7075	-0.5131
832.8742	0.2835
833.041	0.0058
833.2077	0.3176
833.3744	0.3338
833.541	-0.013
833.7077	-0.0173
833.8743	-0.0432
834.0409	-0.0628
834.2075	0.0702
834.3741	-0.2375
834.5407	-0.0966
834.7072	-0.0413
834.8737	0.0396
835.0402	1.339
835.2067	0.0578
835.3731	-0.1368
835.5395	-0.0645
835.706	-0.1144
835.8723	-0.0331
836.0387	0.0472
836.2051	0.0914
836.3714	0.008
836.5377	0.1525
836.704	0.0241
836.8703	-0.0419
837.0365	-0.7158
837.2027	0.0798
837.3689	0.0786
837.5351	-0.0693
837.7013	-0.1764
837.8674	0.0317
838.0335	0.0168
838.1997	-0.2665
838.3657	-0
838.5318	-0.5478
838.6978	0.5116
838.8639	-0.512
839.0299	-0.0057
839.1958	0.1736
839.3618	0.0594
839.5277	0.0772
839.6937	-0.2288
839.8596	-0.2861
840.0254	-0.0614
840.1913	-0.2159
840.3571	-0.3581
840.523	-0
840.6888	-0.1123
840.8545	-0.53
841.0203	0.0518
841.186	0.0012
841.3517	-0.2371
841.5174	0.0337
841.6831	0.3262
841.8488	-0.0965
842.0144	0.0535
842.18	0.1575
842.3456	-0.5669
842.5112	-0
842.6767	-0.0528
842.8422	0.1857
843.0077	-0.0565
843.1732	-0.2822
843.3387	-0
843.5042	-0
843.6696	-0.1914
843.835	-0.1637
844.0004	-0.433
844.1657	-1.2223
844.3311	0.1351
844.4964	-0.2252
844.6617	0.7176
844.827	0.7183
844.9923	0.6215
845.1575	-0.1844
845.3227	-0.6363
845.4879	-0.4184
845.6531	0.0398
845.8183	-0.0336
845.9834	-0
846.1485	0.2282
846.3136	-0.4092
846.4787	-0
846.6438	-0
846.8088	-0
846.9738	-0
847.1388	0.0308
847.3038	0.1723
847.4687	0.4222
847.6337	-0.9069
847.7986	-0.1812
847.9635	-0.1353
848.1284	-0
848.2932	0.8747
848.458	-0
848.6228	0.6931
848.7876	-0
848.9524	0.2079
849.1172	-2.0498
849.2819	-0.209
849.4466	0.5896
849.6113	0.0265
849.7759	-0
849.9406	0.4513
850.1052	-1.3112
850.2698	0.5798
850.4344	-0.894
850.599	0.9659
850.7635	-0.105
850.928	1.0674
851.0925	0.1348
851.257	0.2248
851.4215	-0.1904
851.5859	-0.1693
851.7503	-0
851.9147	-0.3047
852.0791	-0.1117
852.2434	0.0144
852.4078	-0
852.5721	1.2942
852.7364	0.6012
852.9007	-0.21
853.0649	-0
853.2291	0.1996
853.3934	-0
853.5575	-0.2133
853.7217	0.0421
853.8859	-0.3061
854.05	0.2274
854.2141	0.2512
854.3782	-0.4695
854.5423	-0
854.7063	-0.1201
854.8703	-0.1396
855.0343	0.9703
855.1983	0.2772
855.3623	-0.0311
855.5262	-0.2842
855.6901	0.0133
855.854	0.0578
856.0179	-0.375
856.1818	0.4612
856.3456	0.0939
856.5094	-0.6031
856.6732	-0.666
856.837	-0.458
857.0008	0.1999
857.1645	0.0037
857.3282	-0.3854
857.4919	0.0599
857.6556	0.0041
857.8192	-0.3635
857.9828	0.2358
858.1465	-0.1677
858.31	-0
858.4736	-0.3164
858.6372	-0.4335
858.8007	-0
858.9642	-0.0048
859.1277	0.618
859.2911	-0.2454
859.4546	-0
859.618	-0.0146
859.7814	-0.1829
859.9448	0.8365
860.1081	-0
860.2715	-0
860.4348	0.1566
860.5981	0.2512
860.7614	-0
860.9246	-0.1933
861.0879	-0.2019
861.2511	-0
861.4143	-0
861.5774	-0.276
861.7406	-0.1766
861.9037	-0
862.0668	-0.5541
862.2299	-0
862.393	-0
862.556	-0.358
862.7191	-0.3565
862.8821	0.5222
863.0451	-0.184
863.208	-0.3221
863.371	-0.7602
863.5339	0.2718
863.6968	0.0238
863.8597	0.2188
864.0225	-0.0172
864.1854	0.0483
864.3482	-1.0709
864.511	-0.3025
864.6737	-0
864.8365	-0.2154
864.9992	-0
865.1619	-0.5812
865.3246	-0.9345
865.4873	0.3463
865.65	0.0607
865.8126	-0
865.9752	-0.0925
866.1378	-0.0745
866.3004	-0.4037
866.4629	-2.008
866.6254	-0
866.7879	-0.3976
866.9504	-0
867.1129	-0.7078
867.2753	-0.2115
867.4377	-0.1504
867.6001	-0.32
867.7625	0.1756
867.9249	-0
868.0872	0.1909
868.2495	1.2143
868.4118	-0
868.5741	-0
868.7363	0.7677
868.8986	-0.3884
869.0608	-0.5246
869.223	-0.6958
869.3851	-0
869.5473	0.1083
869.7094	-0
869.8715	-0
870.0336	0.0986
870.1957	-0.1276
870.3577	0.771
870.5197	-0.3189
870.6817	-0.8192
870.8437	-0.2265
871.0057	0.2556
871.1676	0.0642
871.3295	-0.4515
871.4914	-0
871.6533	-0
871.8151	0.2495
871.977	-0.195
872.1388	0.318
872.3006	-0.3382
872.4623	-0.4468
872.6241	-0.0875
872.7858	0.0319
872.9475	-0
873.1092	0.0124
873.2709	0.4267
873.4325	-1.4494
873.5941	0.1794
873.7557	1.3198
873.9173	0.1205
874.0789	0.1506
874.2404	-0
874.4019	-0.1072
874.5634	-0
874.7249	0.9374
874.8863	0.4225
875.0478	-0.3814
875.2092	0.5082
875.3706	0.2315
875.5319	-0.5964
875.6933	-0.1717
875.8546	-0.0771
876.0159	-0.0138
876.1772	-0.3492
876.3385	0.2631
876.4997	-0.0113
876.6609	-0.0151
876.8221	-0
876.9833	-0
877.1445	0.2347
877.3056	-0.2329
877.4667	-0
877.6278	-0
877.7889	0.0339
877.9499	0.0299
878.111	-0.258
878.272	-0.1769
878.433	-0.2846
878.5939	0.2027
878.7549	-0
878.9158	0.6696
879.0767	-0
879.2376	-0
879.3984	0.2706
879.5593	0.1603
879.7201	-2.0692
879.8809	-0.168
880.0417	-0.0942
880.2024	-0.2114
880.3632	-0.6387
880.5239	-0
880.6846	-0.5199
880.8452	-0.2438
881.0059	-0.8031
881.1665	-0.1183
881.3271	0.6101
881.4877	0.134
881.6483	-0.5099
881.8088	-0
881.9693	-0
882.1298	-0
882.2903	-0
