Data from D4ACN5uM460nmA_Absorbance_13-05-41-045.txt Node
Date: Fri Feb 21 13:05:41 GMT 2025
User: LASERRRRR
Spectrometer: FLMT03099
Trigger mode: 0
Integration Time (sec): 1.500000E-2
Scans to average: 1
Electric dark correction enabled: true
Nonlinearity correction enabled: false
Boxcar width: 0
XAxis mode: Wavelengths
Number of Pixels in Spectrum: 3648
>>>>>Begin Spectral Data<<<<<
179.3399	-0.7644
179.5586	-0.7644
179.7771	-0.7644
179.9957	-0.1588
180.2143	-0
180.4329	-0
180.6514	-0
180.8699	0.7428
181.0885	0.4085
181.307	0.3503
181.5255	0.2713
181.744	-0
181.9625	0.0817
182.181	1.065
182.3994	-0.7164
182.6179	-0.3669
182.8363	-0
183.0547	-0.0846
183.2732	-0.0965
183.4916	0.0279
183.71	0.0876
183.9284	0.1448
184.1467	0.1535
184.3651	0.1199
184.5835	0.2522
184.8018	0.2914
185.0201	0.174
185.2385	0.1084
185.4568	0.2679
185.6751	0.2098
185.8934	0.1832
186.1117	-0.0197
186.3299	0.0873
186.5482	0.1271
186.7664	0.0958
186.9847	0.0263
187.2029	0.1593
187.4211	-0.0928
187.6393	0.0595
187.8575	0.041
188.0757	0.2446
188.2939	0.078
188.512	0.1716
188.7302	0.1526
188.9483	0.2373
189.1665	0.7556
189.3846	0.2024
189.6027	0.1147
189.8208	0.2146
190.0389	0.1189
190.257	-0.0111
190.475	0.0383
190.6931	0.1254
190.9111	0.1172
191.1292	0.4661
191.3472	0.0229
191.5652	0.4129
191.7832	0.2279
192.0012	0.1458
192.2192	0.211
192.4371	0.1482
192.6551	0.2067
192.873	0.1347
193.091	0.2425
193.3089	0.2086
193.5268	0.1162
193.7447	0.1625
193.9626	0.1512
194.1805	0.345
194.3984	0.1988
194.6162	0.1972
194.8341	0.1916
195.0519	0.2123
195.2697	0.2645
195.4875	0.2402
195.7054	0.2852
195.9231	0.2432
196.1409	0.2855
196.3587	0.3022
196.5765	0.3419
196.7942	0.275
197.012	0.32
197.2297	0.3258
197.4474	0.4324
197.6651	0.3272
197.8828	0.3027
198.1005	0.4294
198.3182	0.3655
198.5358	0.4124
198.7535	0.371
198.9711	0.4544
199.1888	0.3542
199.4064	0.4224
199.624	0.3814
199.8416	0.4125
200.0592	0.4151
200.2767	0.3651
200.4943	0.4128
200.7119	0.4041
200.9294	0.4324
201.1469	0.4189
201.3645	0.4651
201.582	0.4058
201.7995	0.4311
202.017	0.4017
202.2344	0.425
202.4519	0.3943
202.6694	0.3739
202.8868	0.4105
203.1042	0.4132
203.3217	0.373
203.5391	0.3777
203.7565	0.3885
203.9739	0.3805
204.1913	0.3614
204.4086	0.3653
204.626	0.3448
204.8433	0.3883
205.0607	0.3571
205.278	0.361
205.4953	0.3381
205.7126	0.3544
205.9299	0.3199
206.1472	0.3381
206.3644	0.3718
206.5817	0.3416
206.7989	0.3121
207.0162	0.3201
207.2334	0.3192
207.4506	0.3189
207.6678	0.3001
207.885	0.3271
208.1022	0.3031
208.3194	0.2956
208.5365	0.2777
208.7537	0.3038
208.9708	0.2977
209.1879	0.2958
209.405	0.2811
209.6222	0.2676
209.8392	0.2909
210.0563	0.2855
210.2734	0.2692
210.4905	0.2681
210.7075	0.2772
210.9245	0.2827
211.1416	0.2618
211.3586	0.2548
211.5756	0.2409
211.7926	0.2776
212.0096	0.2657
212.2265	0.2719
212.4435	0.2485
212.6604	0.2549
212.8774	0.2566
213.0943	0.2601
213.3112	0.2599
213.5281	0.2546
213.745	0.2418
213.9619	0.245
214.1788	0.2529
214.3956	0.2577
214.6125	0.2493
214.8293	0.2497
215.0461	0.2506
215.2629	0.2474
215.4798	0.2452
215.6965	0.2411
215.9133	0.2328
216.1301	0.2359
216.3469	0.2609
216.5636	0.2574
216.7803	0.2435
216.9971	0.2545
217.2138	0.2687
217.4305	0.2596
217.6472	0.2554
217.8639	0.2642
218.0805	0.2416
218.2972	0.2449
218.5138	0.2555
218.7305	0.2727
218.9471	0.248
219.1637	0.269
219.3803	0.27
219.5969	0.2534
219.8135	0.2675
220.0301	0.2604
220.2466	0.2739
220.4632	0.2487
220.6797	0.2636
220.8962	0.2629
221.1127	0.2779
221.3292	0.2627
221.5457	0.2778
221.7622	0.2564
221.9787	0.2868
222.1951	0.2813
222.4116	0.2789
222.628	0.2894
222.8444	0.2779
223.0608	0.2618
223.2772	0.3048
223.4936	0.2815
223.71	0.2862
223.9264	0.2864
224.1427	0.286
224.3591	0.2913
224.5754	0.2858
224.7917	0.2974
225.008	0.2978
225.2243	0.3141
225.4406	0.2962
225.6569	0.3123
225.8732	0.2993
226.0894	0.3003
226.3057	0.2974
226.5219	0.3119
226.7381	0.3244
226.9543	0.3166
227.1705	0.3223
227.3867	0.3153
227.6029	0.3322
227.8191	0.3319
228.0352	0.3303
228.2513	0.3455
228.4675	0.3375
228.6836	0.346
228.8997	0.3421
229.1158	0.356
229.3319	0.3578
229.548	0.3608
229.764	0.3489
229.9801	0.3807
230.1961	0.3679
230.4121	0.3721
230.6282	0.3803
230.8442	0.3936
231.0602	0.388
231.2761	0.384
231.4921	0.3819
231.7081	0.389
231.924	0.396
232.14	0.4125
232.3559	0.4086
232.5718	0.4047
232.7877	0.4067
233.0036	0.408
233.2195	0.4145
233.4353	0.4257
233.6512	0.4053
233.867	0.4154
234.0829	0.4309
234.2987	0.4204
234.5145	0.4308
234.7303	0.4308
234.9461	0.4363
235.1619	0.4331
235.3776	0.4389
235.5934	0.4333
235.8091	0.4422
236.0249	0.4342
236.2406	0.4446
236.4563	0.4498
236.672	0.4382
236.8877	0.4478
237.1034	0.4479
237.319	0.4473
237.5347	0.4622
237.7503	0.4501
237.966	0.4574
238.1816	0.4564
238.3972	0.4626
238.6128	0.4697
238.8284	0.4666
239.0439	0.4591
239.2595	0.4646
239.475	0.4559
239.6906	0.4684
239.9061	0.4556
240.1216	0.4582
240.3371	0.4627
240.5526	0.4517
240.7681	0.4588
240.9836	0.4508
241.199	0.4406
241.4145	0.4507
241.6299	0.4451
241.8453	0.4379
242.0607	0.4304
242.2761	0.4314
242.4915	0.4326
242.7069	0.4169
242.9223	0.4147
243.1376	0.4047
243.353	0.4005
243.5683	0.3969
243.7836	0.3866
243.9989	0.3752
244.2142	0.371
244.4295	0.3649
244.6448	0.3648
244.86	0.3539
245.0753	0.3418
245.2905	0.327
245.5057	0.3252
245.721	0.3282
245.9362	0.3212
246.1514	0.3138
246.3665	0.3118
246.5817	0.2931
246.7969	0.2961
247.012	0.2866
247.2271	0.2823
247.4423	0.2815
247.6574	0.2801
247.8725	0.2638
248.0876	0.2625
248.3026	0.2648
248.5177	0.2529
248.7328	0.2453
248.9478	0.2459
249.1628	0.2462
249.3779	0.2339
249.5929	0.2334
249.8079	0.2363
250.0228	0.2273
250.2378	0.2256
250.4528	0.2301
250.6677	0.2244
250.8827	0.2212
251.0976	0.2137
251.3125	0.2192
251.5274	0.2113
251.7423	0.2101
251.9572	0.2039
252.172	0.2083
252.3869	0.1993
252.6017	0.2021
252.8166	0.1999
253.0314	0.2004
253.2462	0.2009
253.461	0.1964
253.6758	0.1914
253.8906	0.1907
254.1053	0.1941
254.3201	0.1965
254.5348	0.1861
254.7496	0.1825
254.9643	0.1917
255.179	0.1868
255.3937	0.188
255.6083	0.1884
255.823	0.1846
256.0377	0.1851
256.2523	0.183
256.467	0.1847
256.6816	0.1902
256.8962	0.1786
257.1108	0.1826
257.3254	0.181
257.54	0.1761
257.7545	0.1785
257.9691	0.1795
258.1836	0.1758
258.3981	0.1827
258.6127	0.1769
258.8272	0.1783
259.0417	0.1724
259.2561	0.1733
259.4706	0.1721
259.6851	0.1732
259.8995	0.1676
260.114	0.1765
260.3284	0.1747
260.5428	0.1725
260.7572	0.1784
260.9716	0.1806
261.186	0.1723
261.4003	0.1691
261.6147	0.1731
261.829	0.1722
262.0433	0.1755
262.2577	0.1741
262.472	0.1725
262.6863	0.1773
262.9005	0.1717
263.1148	0.1746
263.3291	0.1688
263.5433	0.177
263.7576	0.1756
263.9718	0.1685
264.186	0.1766
264.4002	0.1788
264.6144	0.1833
264.8286	0.1751
265.0427	0.1824
265.2569	0.18
265.471	0.1749
265.6851	0.1767
265.8993	0.1737
266.1134	0.177
266.3275	0.1715
266.5415	0.1768
266.7556	0.1801
266.9697	0.1785
267.1837	0.1725
267.3978	0.1784
267.6118	0.1674
267.8258	0.181
268.0398	0.1786
268.2538	0.1781
268.4677	0.1789
268.6817	0.1721
268.8957	0.1662
269.1096	0.1687
269.3235	0.1712
269.5374	0.1753
269.7514	0.1698
269.9652	0.1705
270.1791	0.1713
270.393	0.1678
270.6068	0.1669
270.8207	0.163
271.0345	0.1655
271.2483	0.161
271.4622	0.1672
271.676	0.1652
271.8897	0.1692
272.1035	0.1701
272.3173	0.1615
272.531	0.1621
272.7448	0.1641
272.9585	0.1604
273.1722	0.1641
273.3859	0.1604
273.5996	0.165
273.8133	0.1666
274.0269	0.1624
274.2406	0.1656
274.4542	0.1641
274.6679	0.1614
274.8815	0.1705
275.0951	0.1723
275.3087	0.1713
275.5223	0.1687
275.7358	0.1675
275.9494	0.1709
276.1629	0.1664
276.3765	0.1665
276.59	0.1636
276.8035	0.1729
277.017	0.1736
277.2305	0.176
277.444	0.1711
277.6574	0.1709
277.8709	0.1735
278.0843	0.1707
278.2978	0.1684
278.5112	0.1717
278.7246	0.1682
278.938	0.1705
279.1513	0.1772
279.3647	0.171
279.5781	0.1693
279.7914	0.1676
280.0047	0.1703
280.2181	0.1725
280.4314	0.1773
280.6447	0.1786
280.8579	0.1707
281.0712	0.1745
281.2845	0.1767
281.4977	0.1779
281.711	0.1777
281.9242	0.1727
282.1374	0.1745
282.3506	0.1767
282.5638	0.1746
282.7769	0.1754
282.9901	0.1827
283.2033	0.1823
283.4164	0.1782
283.6295	0.1777
283.8426	0.1735
284.0557	0.1821
284.2688	0.1821
284.4819	0.174
284.695	0.1833
284.908	0.1797
285.1211	0.1851
285.3341	0.1771
285.5471	0.184
285.7601	0.189
285.9731	0.1795
286.1861	0.1867
286.3991	0.1913
286.612	0.1831
286.825	0.1893
287.0379	0.1899
287.2508	0.1895
287.4637	0.1877
287.6766	0.1854
287.8895	0.1823
288.1024	0.1864
288.3152	0.19
288.5281	0.191
288.7409	0.1914
288.9538	0.1871
289.1666	0.1916
289.3794	0.1855
289.5922	0.189
289.8049	0.1919
290.0177	0.1931
290.2304	0.1902
290.4432	0.1919
290.6559	0.1918
290.8686	0.1936
291.0813	0.1904
291.294	0.1929
291.5067	0.1962
291.7194	0.1924
291.932	0.1868
292.1447	0.1955
292.3573	0.193
292.5699	0.1992
292.7825	0.1911
292.9951	0.1954
293.2077	0.1938
293.4203	0.1939
293.6328	0.1935
293.8454	0.1997
294.0579	0.1901
294.2704	0.1975
294.4829	0.1908
294.6954	0.1952
294.9079	0.1918
295.1204	0.1886
295.3328	0.2024
295.5453	0.1935
295.7577	0.1901
295.9701	0.1978
296.1825	0.1992
296.3949	0.1848
296.6073	0.1897
296.8197	0.1903
297.0321	0.1932
297.2444	0.193
297.4567	0.1943
297.6691	0.1983
297.8814	0.1923
298.0937	0.1967
298.306	0.1939
298.5182	0.1979
298.7305	0.1965
298.9428	0.195
299.155	0.1909
299.3672	0.1985
299.5794	0.1973
299.7916	0.1948
300.0038	0.1923
300.216	0.1902
300.4282	0.1908
300.6403	0.1965
300.8525	0.1975
301.0646	0.1955
301.2767	0.1928
301.4888	0.1943
301.7009	0.1935
301.913	0.1928
302.125	0.1893
302.3371	0.1898
302.5491	0.1935
302.7612	0.2026
302.9732	0.1956
303.1852	0.1892
303.3972	0.1916
303.6092	0.1942
303.8211	0.1913
304.0331	0.1891
304.245	0.1892
304.457	0.1888
304.6689	0.1906
304.8808	0.1891
305.0927	0.1889
305.3046	0.1855
305.5164	0.1818
305.7283	0.1837
305.9401	0.1732
306.152	0.1787
306.3638	0.1813
306.5756	0.177
306.7874	0.1782
306.9992	0.1751
307.2109	0.1721
307.4227	0.1715
307.6344	0.179
307.8462	0.1661
308.0579	0.1712
308.2696	0.1691
308.4813	0.1612
308.693	0.1682
308.9046	0.1665
309.1163	0.159
309.328	0.1608
309.5396	0.1565
309.7512	0.1541
309.9628	0.153
310.1744	0.1437
310.386	0.1418
310.5976	0.1481
310.8091	0.1492
311.0207	0.1415
311.2322	0.1425
311.4437	0.1446
311.6552	0.1379
311.8667	0.1415
312.0782	0.1388
312.2897	0.1412
312.5012	0.1345
312.7126	0.138
312.924	0.1331
313.1355	0.1328
313.3469	0.1307
313.5583	0.1328
313.7696	0.1301
313.981	0.1326
314.1924	0.1268
314.4037	0.1281
314.6151	0.1223
314.8264	0.1317
315.0377	0.129
315.249	0.1281
315.4603	0.122
315.6716	0.1225
315.8828	0.1192
316.0941	0.1244
316.3053	0.1171
316.5165	0.1254
316.7277	0.1195
316.9389	0.1234
317.1501	0.1213
317.3613	0.123
317.5724	0.1237
317.7836	0.1162
317.9947	0.1156
318.2058	0.1248
318.417	0.1175
318.6281	0.1123
318.8391	0.1231
319.0502	0.1186
319.2613	0.1161
319.4723	0.1164
319.6834	0.1243
319.8944	0.1146
320.1054	0.1219
320.3164	0.1138
320.5274	0.1185
320.7383	0.1207
320.9493	0.1181
321.1602	0.1139
321.3712	0.1146
321.5821	0.1092
321.793	0.12
322.0039	0.1197
322.2148	0.118
322.4257	0.1153
322.6365	0.1187
322.8474	0.1208
323.0582	0.1209
323.269	0.119
323.4798	0.1208
323.6906	0.1118
323.9014	0.1164
324.1122	0.1163
324.3229	0.1255
324.5337	0.121
324.7444	0.1276
324.9551	0.1218
325.1658	0.1253
325.3765	0.1226
325.5872	0.1226
325.7979	0.1229
326.0085	0.1209
326.2192	0.1243
326.4298	0.1256
326.6404	0.1287
326.851	0.1238
327.0616	0.1252
327.2722	0.1266
327.4828	0.1228
327.6933	0.1307
327.9039	0.1218
328.1144	0.1192
328.3249	0.1217
328.5354	0.1281
328.7459	0.124
328.9564	0.1249
329.1669	0.1287
329.3773	0.1281
329.5878	0.1251
329.7982	0.1269
330.0086	0.1245
330.219	0.1252
330.4294	0.1239
330.6398	0.1262
330.8502	0.1313
331.0605	0.1291
331.2708	0.126
331.4812	0.1255
331.6915	0.1297
331.9018	0.1248
332.1121	0.1301
332.3224	0.128
332.5326	0.1281
332.7429	0.1276
332.9531	0.1315
333.1633	0.1248
333.3735	0.1243
333.5837	0.1284
333.7939	0.13
334.0041	0.1404
334.2143	0.1302
334.4244	0.1352
334.6346	0.1282
334.8447	0.1321
335.0548	0.1318
335.2649	0.1364
335.475	0.138
335.685	0.1292
335.8951	0.1298
336.1051	0.1348
336.3152	0.1345
336.5252	0.1313
336.7352	0.1318
336.9452	0.1311
337.1552	0.1312
337.3652	0.1312
337.5751	0.1336
337.7851	0.1312
337.995	0.1342
338.2049	0.1294
338.4148	0.1385
338.6247	0.1353
338.8346	0.1355
339.0445	0.1399
339.2543	0.1371
339.4642	0.1336
339.674	0.1371
339.8838	0.1353
340.0936	0.1415
340.3034	0.1349
340.5132	0.1316
340.7229	0.1411
340.9327	0.1416
341.1424	0.1395
341.3522	0.1343
341.5619	0.1416
341.7716	0.1408
341.9813	0.1417
342.1909	0.1482
342.4006	0.1358
342.6102	0.1464
342.8199	0.1408
343.0295	0.1461
343.2391	0.1471
343.4487	0.145
343.6583	0.162
343.8679	0.1477
344.0774	0.1418
344.287	0.1484
344.4965	0.1532
344.706	0.1573
344.9155	0.1433
345.125	0.15
345.3345	0.1536
345.544	0.1521
345.7534	0.1564
345.9629	0.1565
346.1723	0.1596
346.3817	0.16
346.5911	0.1552
346.8005	0.166
347.0099	0.1478
347.2193	0.1623
347.4286	0.1637
347.638	0.1583
347.8473	0.1646
348.0566	0.1619
348.2659	0.1577
348.4752	0.1607
348.6845	0.16
348.8937	0.1584
349.103	0.1656
349.3122	0.1626
349.5214	0.1697
349.7306	0.1722
349.9398	0.1618
350.149	0.1643
350.3582	0.1653
350.5674	0.17
350.7765	0.1762
350.9856	0.1563
351.1948	0.1729
351.4039	0.1702
351.613	0.1728
351.822	0.173
352.0311	0.1735
352.2402	0.1795
352.4492	0.1765
352.6582	0.1782
352.8672	0.1742
353.0762	0.1795
353.2852	0.177
353.4942	0.1812
353.7032	0.1739
353.9121	0.1765
354.1211	0.1783
354.33	0.1871
354.5389	0.1754
354.7478	0.178
354.9567	0.1954
355.1655	0.1832
355.3744	0.176
355.5833	0.1909
355.7921	0.1887
356.0009	0.1909
356.2097	0.1845
356.4185	0.1849
356.6273	0.184
356.8361	0.1977
357.0448	0.1855
357.2536	0.1839
357.4623	0.1911
357.671	0.1863
357.8797	0.1956
358.0884	0.1944
358.2971	0.2013
358.5057	0.1924
358.7144	0.2028
358.923	0.2011
359.1316	0.2019
359.3402	0.2018
359.5488	0.1911
359.7574	0.2079
359.966	0.2008
360.1746	0.2064
360.3831	0.2167
360.5916	0.2078
360.8002	0.2173
361.0087	0.2077
361.2172	0.2099
361.4256	0.2057
361.6341	0.2148
361.8426	0.2207
362.051	0.2185
362.2594	0.2146
362.4678	0.2143
362.6762	0.2146
362.8846	0.2218
363.093	0.2136
363.3014	0.2271
363.5097	0.2133
363.718	0.2251
363.9264	0.2274
364.1347	0.223
364.343	0.2239
364.5513	0.2293
364.7595	0.2366
364.9678	0.215
365.176	0.2319
365.3842	0.231
365.5925	0.2262
365.8007	0.2268
366.0089	0.2408
366.217	0.2352
366.4252	0.2368
366.6333	0.2298
366.8415	0.2408
367.0496	0.2379
367.2577	0.238
367.4658	0.2345
367.6739	0.2398
367.882	0.2475
368.09	0.2369
368.2981	0.2471
368.5061	0.244
368.7141	0.2407
368.9221	0.2551
369.1301	0.2584
369.3381	0.2559
369.5461	0.2518
369.754	0.2557
369.962	0.2559
370.1699	0.2621
370.3778	0.2622
370.5857	0.2561
370.7936	0.2605
371.0015	0.2622
371.2093	0.2595
371.4172	0.2589
371.625	0.2606
371.8328	0.2567
372.0406	0.2703
372.2484	0.2662
372.4562	0.2659
372.664	0.2663
372.8717	0.2728
373.0795	0.2717
373.2872	0.2683
373.4949	0.2775
373.7026	0.2664
373.9103	0.2725
374.118	0.269
374.3256	0.2792
374.5333	0.2691
374.7409	0.2698
374.9485	0.2823
375.1561	0.2861
375.3637	0.2771
375.5713	0.2777
375.7789	0.2845
375.9864	0.2756
376.194	0.2835
376.4015	0.2771
376.609	0.2806
376.8165	0.2781
377.024	0.2812
377.2315	0.2816
377.4389	0.2837
377.6464	0.286
377.8538	0.2849
378.0612	0.2894
378.2686	0.2849
378.476	0.2993
378.6834	0.2915
378.8908	0.2917
379.0981	0.2944
379.3055	0.2917
379.5128	0.2889
379.7201	0.303
379.9274	0.2933
380.1347	0.2995
380.342	0.2979
380.5492	0.3023
380.7565	0.2943
380.9637	0.2986
381.1709	0.2938
381.3781	0.3062
381.5853	0.2998
381.7925	0.2998
381.9997	0.3006
382.2068	0.304
382.4139	0.3085
382.6211	0.3026
382.8282	0.3122
383.0353	0.3114
383.2424	0.305
383.4494	0.3005
383.6565	0.3102
383.8635	0.2993
384.0706	0.3096
384.2776	0.3072
384.4846	0.3158
384.6916	0.3146
384.8986	0.3034
385.1055	0.3177
385.3125	0.3074
385.5194	0.3182
385.7263	0.3127
385.9333	0.3091
386.1402	0.3069
386.347	0.3066
386.5539	0.3168
386.7608	0.3011
386.9676	0.3118
387.1744	0.3148
387.3813	0.3153
387.5881	0.3042
387.7948	0.3194
388.0016	0.3167
388.2084	0.3134
388.4151	0.3161
388.6219	0.3046
388.8286	0.3156
389.0353	0.2997
389.242	0.305
389.4487	0.3058
389.6553	0.3015
389.862	0.2972
390.0686	0.3031
390.2753	0.3045
390.4819	0.3128
390.6885	0.2981
390.8951	0.2977
391.1016	0.3041
391.3082	0.2975
391.5147	0.2963
391.7213	0.302
391.9278	0.301
392.1343	0.3025
392.3408	0.2911
392.5473	0.2971
392.7537	0.2908
392.9602	0.2847
393.1666	0.29
393.373	0.2845
393.5794	0.288
393.7858	0.2882
393.9922	0.2863
394.1986	0.278
394.4049	0.2823
394.6113	0.2811
394.8176	0.2876
395.0239	0.2821
395.2302	0.2825
395.4365	0.2767
395.6428	0.2845
395.8491	0.2724
396.0553	0.2685
396.2615	0.2794
396.4678	0.285
396.674	0.2659
396.8802	0.2746
397.0863	0.2657
397.2925	0.2752
397.4987	0.2673
397.7048	0.283
397.9109	0.271
398.117	0.2661
398.3231	0.2637
398.5292	0.2571
398.7353	0.2672
398.9413	0.2568
399.1474	0.2631
399.3534	0.2677
399.5594	0.2682
399.7654	0.2627
399.9714	0.2616
400.1774	0.2638
400.3833	0.2764
400.5893	0.2669
400.7952	0.2768
401.0011	0.2611
401.207	0.263
401.4129	0.2622
401.6188	0.2645
401.8247	0.2733
402.0305	0.2634
402.2364	0.2649
402.4422	0.2706
402.648	0.2678
402.8538	0.2574
403.0596	0.2643
403.2654	0.2623
403.4711	0.2554
403.6768	0.2637
403.8826	0.2652
404.0883	0.2655
404.294	0.2637
404.4997	0.2586
404.7054	0.263
404.911	0.2613
405.1167	0.2709
405.3223	0.2551
405.5279	0.2624
405.7335	0.2649
405.9391	0.2699
406.1447	0.2695
406.3502	0.2666
406.5558	0.2621
406.7613	0.2677
406.9668	0.258
407.1724	0.2728
407.3778	0.261
407.5833	0.2585
407.7888	0.2715
407.9942	0.2688
408.1997	0.2613
408.4051	0.2592
408.6105	0.273
408.8159	0.263
409.0213	0.2679
409.2267	0.2691
409.432	0.2652
409.6374	0.2682
409.8427	0.2712
410.048	0.2738
410.2533	0.2652
410.4586	0.2612
410.6639	0.2655
410.8691	0.2573
411.0744	0.2584
411.2796	0.2721
411.4848	0.261
411.69	0.2562
411.8952	0.2613
412.1004	0.2759
412.3056	0.2641
412.5107	0.2684
412.7158	0.2703
412.921	0.2708
413.1261	0.2566
413.3312	0.2622
413.5362	0.2668
413.7413	0.259
413.9464	0.2573
414.1514	0.2689
414.3564	0.249
414.5614	0.2564
414.7664	0.2508
414.9714	0.2471
415.1764	0.2582
415.3813	0.2574
415.5863	0.2562
415.7912	0.258
415.9961	0.2668
416.201	0.2624
416.4059	0.2544
416.6108	0.2595
416.8156	0.249
417.0205	0.2671
417.2253	0.2552
417.4301	0.2632
417.6349	0.2551
417.8397	0.2518
418.0445	0.2646
418.2492	0.252
418.454	0.2597
418.6587	0.254
418.8634	0.2563
419.0681	0.2457
419.2728	0.2501
419.4775	0.2429
419.6822	0.2457
419.8868	0.2445
420.0915	0.2425
420.2961	0.234
420.5007	0.2521
420.7053	0.2464
420.9099	0.247
421.1144	0.249
421.319	0.2414
421.5235	0.2347
421.728	0.2497
421.9325	0.2442
422.137	0.2366
422.3415	0.2377
422.546	0.2389
422.7504	0.2334
422.9549	0.2437
423.1593	0.2242
423.3637	0.2293
423.5681	0.2302
423.7725	0.2315
423.9769	0.244
424.1812	0.2203
424.3856	0.2315
424.5899	0.2258
424.7942	0.226
424.9985	0.2211
425.2028	0.2325
425.4071	0.2333
425.6113	0.2282
425.8156	0.2207
426.0198	0.2285
426.224	0.2256
426.4282	0.2181
426.6324	0.2295
426.8366	0.2214
427.0407	0.216
427.2449	0.2166
427.449	0.2153
427.6531	0.2143
427.8572	0.2167
428.0613	0.2126
428.2654	0.2228
428.4694	0.1969
428.6735	0.2025
428.8775	0.2107
429.0815	0.2047
429.2855	0.2164
429.4895	0.2003
429.6935	0.203
429.8975	0.1928
430.1014	0.2017
430.3053	0.208
430.5093	0.1963
430.7132	0.1822
430.9171	0.1958
431.1209	0.1967
431.3248	0.1836
431.5286	0.1829
431.7325	0.1956
431.9363	0.1773
432.1401	0.1744
432.3439	0.1787
432.5477	0.1736
432.7514	0.1837
432.9552	0.1765
433.1589	0.1659
433.3627	0.1692
433.5664	0.1638
433.7701	0.1647
433.9737	0.1711
434.1774	0.1651
434.3811	0.1634
434.5847	0.1561
434.7883	0.1611
434.9919	0.1604
435.1955	0.1553
435.3991	0.1667
435.6027	0.1487
435.8062	0.1587
436.0098	0.146
436.2133	0.1528
436.4168	0.1394
436.6203	0.139
436.8238	0.1328
437.0272	0.1417
437.2307	0.131
437.4341	0.1453
437.6375	0.1376
437.841	0.138
438.0443	0.1369
438.2477	0.125
438.4511	0.1157
438.6545	0.1367
438.8578	0.1279
439.0611	0.1401
439.2644	0.1219
439.4677	0.1299
439.671	0.1146
439.8743	0.1234
440.0775	0.1177
440.2808	0.1096
440.484	0.1093
440.6872	0.1119
440.8904	0.1077
441.0936	0.1119
441.2967	0.1003
441.4999	0.0968
441.703	0.0991
441.9062	0.1027
442.1093	0.1121
442.3124	0.1013
442.5155	0.0958
442.7185	0.0917
442.9216	0.0995
443.1246	0.0944
443.3276	0.0884
443.5307	0.0896
443.7337	0.0844
443.9366	0.0822
444.1396	0.0796
444.3426	0.0845
444.5455	0.0799
444.7484	0.0756
444.9513	0.0783
445.1542	0.0775
445.3571	0.0757
445.56	0.0725
445.7628	0.0724
445.9657	0.0724
446.1685	0.0753
446.3713	0.0688
446.5741	0.072
446.7769	0.0695
446.9797	0.0658
447.1824	0.0655
447.3852	0.0577
447.5879	0.0669
447.7906	0.06
447.9933	0.0575
448.196	0.0524
448.3986	0.0552
448.6013	0.0426
448.8039	0.054
449.0066	0.0583
449.2092	0.06
449.4118	0.06
449.6143	0.0546
449.8169	0.0512
450.0195	0.0454
450.222	0.0566
450.4245	0.0532
450.627	0.0487
450.8295	0.0426
451.032	0.0417
451.2345	0.0406
451.4369	0.0513
451.6394	0.0435
451.8418	0.0458
452.0442	0.0429
452.2466	0.0375
452.449	0.0375
452.6513	0.0327
452.8537	0.0317
453.056	0.0358
453.2583	0.0347
453.4607	0.0406
453.663	0.0388
453.8652	0.0305
454.0675	0.0363
454.2697	0.0331
454.472	0.0215
454.6742	0.037
454.8764	0.0358
455.0786	0.0274
455.2808	0.0279
455.4829	0.0309
455.6851	0.032
455.8872	0.0172
456.0893	0.0293
456.2915	0.024
456.4935	0.0299
456.6956	0.023
456.8977	0.0261
457.0997	0.0266
457.3018	0.0173
457.5038	0.0289
457.7058	0.0252
457.9078	0.0274
458.1098	0.0239
458.3117	0.027
458.5137	0.011
458.7156	0.0249
458.9175	0.0264
459.1194	0.0249
459.3213	0.0108
459.5232	0.0192
459.725	0.0188
459.9269	0.0162
460.1287	0.0134
460.3305	0.0175
460.5323	0.011
460.7341	0.0216
460.9359	0.0083
461.1376	0.02
461.3394	0.0193
461.5411	0.0217
461.7428	0.0185
461.9445	0.0163
462.1462	0.0092
462.3479	0.0192
462.5495	0.0258
462.7512	0.0199
462.9528	0.0144
463.1544	0.018
463.356	0.0074
463.5576	0.0136
463.7592	0.018
463.9607	0.01
464.1623	0.0155
464.3638	0.0138
464.5653	0.0137
464.7668	0.0138
464.9683	0.0162
465.1697	0.0109
465.3712	0.0044
465.5726	0.0087
465.7741	0.02
465.9755	0.0057
466.1769	0.0163
466.3782	0.0084
466.5796	0.0046
466.7809	0.0109
466.9823	0.0105
467.1836	0.0162
467.3849	0.0129
467.5862	0.0011
467.7875	0.0078
467.9887	0.0149
468.19	0.0074
468.3912	0.0153
468.5924	0.004
468.7936	0.0008
468.9948	0
469.196	0.0046
469.3972	0.0032
469.5983	0.0136
469.7994	0.0108
470.0006	0.0037
470.2017	0.0008
470.4027	0.0234
470.6038	0.0031
470.8049	0.0063
471.0059	0.0022
471.2069	0.0054
471.408	0.0215
471.6089	0.0038
471.8099	0.0101
472.0109	0.0057
472.2119	0.0109
472.4128	0.0059
472.6137	0.0052
472.8146	0.013
473.0155	0.0135
473.2164	0.0062
473.4173	0.0056
473.6181	0.0015
473.819	0.0065
474.0198	0.0007
474.2206	-0.0015
474.4214	0.0083
474.6222	-0.0034
474.8229	0.008
475.0237	0.0052
475.2244	0.0007
475.4251	0.0095
475.6258	-0.0015
475.8265	0.0143
476.0272	-0.0104
476.2278	0.0078
476.4285	0.0089
476.6291	0.0064
476.8297	0.0092
477.0303	-0.0003
477.2309	0.008
477.4315	0.003
477.632	-0.0046
477.8326	0.0056
478.0331	0.0087
478.2336	-0.0056
478.4341	0.0094
478.6346	0.0054
478.8351	0.0027
479.0355	0.0096
479.236	0.0158
479.4364	0.0074
479.6368	0.0031
479.8372	0
480.0376	-0.0005
480.2379	0.0047
480.4383	0.0118
480.6386	-0.0033
480.8389	0.0048
481.0392	0.0066
481.2395	0.0128
481.4398	0.0078
481.6401	0.0067
481.8403	0.0032
482.0405	0.0081
482.2408	0.0092
482.441	0.0042
482.6411	0.0095
482.8413	0.0026
483.0415	0.0055
483.2416	0.0041
483.4417	-0.0005
483.6419	-0.0056
483.8419	0.0012
484.042	0.0019
484.2421	-0.0006
484.4422	0.0023
484.6422	0.0017
484.8422	0.0002
485.0422	0.0042
485.2422	0.002
485.4422	0.0029
485.6422	0.0006
485.8421	0.001
486.042	0.0054
486.242	-0.0035
486.4419	0.005
486.6417	0.0052
486.8416	0.0041
487.0415	-0.0018
487.2413	-0.0077
487.4411	0.0052
487.641	0.0045
487.8408	0.0056
488.0405	0.0057
488.2403	0.0018
488.4401	0.0045
488.6398	0.0073
488.8395	0.0054
489.0392	0.0035
489.2389	0.0128
489.4386	-0.0048
489.6383	-0.0026
489.8379	0.0038
490.0376	0.0048
490.2372	-0.0059
490.4368	-0.0031
490.6364	-0.0044
490.836	-0.0037
491.0355	-0.0004
491.2351	-0.0004
491.4346	0.0043
491.6341	0.0008
491.8336	0.0088
492.0331	0.0026
492.2326	0.0013
492.432	0.007
492.6315	0.0117
492.8309	0.0007
493.0303	0.0037
493.2297	0.0099
493.4291	-0.0001
493.6284	0.0043
493.8278	0.0025
494.0271	0.0074
494.2264	-0.0048
494.4257	0.0087
494.625	0.0009
494.8243	-0.0028
495.0236	-0.0037
495.2228	0.0092
495.422	0.0057
495.6213	0.0031
495.8205	0.0053
496.0196	0.0048
496.2188	0.0013
496.418	0.0071
496.6171	-0.0043
496.8162	0.0027
497.0153	0.0045
497.2144	0.0047
497.4135	0.0058
497.6126	0.0018
497.8116	0.0019
498.0107	0.0109
498.2097	0.0085
498.4087	-0.0023
498.6077	-0.0039
498.8067	0.0089
499.0056	0.0016
499.2046	0.0075
499.4035	0.0008
499.6024	-0.0052
499.8013	0.0113
500.0002	0.0059
500.199	0.0136
500.3979	0.0007
500.5967	0.0032
500.7956	0.0038
500.9944	0.0099
501.1932	0.0074
501.3919	0.0072
501.5907	0.0094
501.7895	0.0023
501.9882	-0.0017
502.1869	0.0038
502.3856	0.0057
502.5843	0.0005
502.783	0.0078
502.9816	0.0064
503.1803	0.0016
503.3789	0.006
503.5775	0.0028
503.7761	0.0026
503.9747	0.0054
504.1732	-0.0098
504.3718	0.0135
504.5703	0.0019
504.7689	-0.0094
504.9674	-0.0015
505.1658	-0.0002
505.3643	0.0064
505.5628	0.0038
505.7612	0.0067
505.9597	-0.0031
506.1581	0.0004
506.3565	0.0036
506.5549	0.0018
506.7532	-0.0036
506.9516	0.002
507.1499	0.0027
507.3482	-0.0023
507.5465	0.006
507.7448	0.0072
507.9431	0.0026
508.1414	0.0001
508.3396	0.0022
508.5379	0.0041
508.7361	-0.0073
508.9343	-0.0017
509.1325	0.0097
509.3306	0.0023
509.5288	-0.0091
509.7269	0.0072
509.9251	0.0001
510.1232	-0.0055
510.3213	0.0024
510.5193	0.0079
510.7174	-0.0081
510.9154	0.0064
511.1135	-0.0055
511.3115	-0
511.5095	-0.0008
511.7075	-0.0033
511.9055	0.0108
512.1034	0.0093
512.3014	0.0012
512.4993	0.0077
512.6972	0.0049
512.8951	-0.0006
513.093	0.0079
513.2908	0.0131
513.4887	0.0039
513.6865	0.0125
513.8844	0.0002
514.0822	0.0045
514.2799	-0.0074
514.4777	-0.005
514.6755	0.0028
514.8732	0.0032
515.0709	0.0006
515.2687	0.006
515.4664	0.0182
515.664	0.014
515.8617	0.0048
516.0594	0.0049
516.257	0.0052
516.4546	0.0112
516.6522	0.0045
516.8498	0.008
517.0474	-0.0013
517.2449	-0.0004
517.4425	-0.0029
517.64	0.0015
517.8375	0.0054
518.035	0.0069
518.2325	-0.004
518.43	-0.009
518.6274	0.0103
518.8249	-0.006
519.0223	0.0114
519.2197	-0.0008
519.4171	0.0015
519.6145	0.0127
519.8118	-0.0026
520.0092	-0.0014
520.2065	0.0099
520.4038	0.0053
520.6011	0.0015
520.7984	0.0086
520.9956	0.0096
521.1929	0.0015
521.3901	-0.0005
521.5874	0.0072
521.7846	-0.0061
521.9818	0.0087
522.1789	-0.003
522.3761	0.0147
522.5732	0.009
522.7704	-0.0089
522.9675	-0.0113
523.1646	-0.0106
523.3617	0.0098
523.5587	-0
523.7558	0.0068
523.9528	0.0095
524.1498	0.0027
524.3468	0.002
524.5438	-0.0016
524.7408	-0.0025
524.9378	0.0062
525.1347	0.015
525.3316	0.0009
525.5285	-0.0028
525.7254	0.0009
525.9223	0.0131
526.1192	0.0067
526.316	0.0085
526.5129	0.0031
526.7097	-0.0004
526.9065	-0.0006
527.1033	0.0027
527.3	0.0041
527.4968	0.0145
527.6935	-0.0092
527.8903	0.0011
528.087	0.0028
528.2837	0.009
528.4804	0.0028
528.677	0.0065
528.8737	-0.0039
529.0703	0.0145
529.2669	0.0206
529.4635	-0.0023
529.6601	-0.0042
529.8567	-0.0047
530.0532	0.0061
530.2498	-0.0056
530.4463	-0.0133
530.6428	0.0089
530.8393	0.0161
531.0358	-0.0036
531.2322	-0.0116
531.4287	-0.0002
531.6251	-0.0043
531.8215	0.0005
532.0179	0.0008
532.2143	0.0016
532.4107	0.0063
532.607	0.0032
532.8034	0.0023
532.9997	-0.005
533.196	0.0003
533.3923	0.0094
533.5886	0.0079
533.7848	0.0011
533.9811	0.0047
534.1773	-0.0018
534.3735	0.0032
534.5697	0.0017
534.7659	0.004
534.9621	-0.0015
535.1582	0.0026
535.3544	0.0073
535.5505	0.0017
535.7466	0.0031
535.9427	-0.0038
536.1387	-0.0037
536.3348	0.006
536.5308	0.0103
536.7269	-0.0073
536.9229	0.0037
537.1189	0.002
537.3148	-0.0014
537.5108	0.0023
537.7068	0.0093
537.9027	-0.0152
538.0986	0.0013
538.2945	-0.0011
538.4904	-0.0049
538.6863	0.0025
538.8821	0.0114
539.078	-0.0005
539.2738	0.001
539.4696	-0.0037
539.6654	0.0032
539.8611	0.0038
540.0569	-0.0035
540.2526	0.0105
540.4484	-0.009
540.6441	0.0002
540.8398	0.0091
541.0355	-0.001
541.2311	0.0063
541.4268	0.0054
541.6224	0.0142
541.818	0.0127
542.0136	0.0137
542.2092	0.0112
542.4048	0.0038
542.6003	0.004
542.7959	0.0017
542.9914	0.0055
543.1869	0.0022
543.3824	0.0062
543.5779	0.0049
543.7734	0.0088
543.9688	0.003
544.1642	0
544.3596	0.0123
544.555	0.0019
544.7504	0.0073
544.9458	-0.0007
545.1411	-0.0013
545.3365	0.0048
545.5318	0.0048
545.7271	0.015
545.9224	-0.0025
546.1177	0.0055
546.3129	0.0076
546.5081	0.0011
546.7034	0.0092
546.8986	0.0046
547.0938	0.0091
547.289	0.0091
547.4841	0.0058
547.6793	-0.004
547.8744	0.0104
548.0695	-0.0048
548.2646	0.0001
548.4597	0.0011
548.6548	0.0099
548.8498	0.0083
549.0448	-0.0009
549.2399	0.0123
549.4349	0.0056
549.6298	0.0176
549.8248	0.0023
550.0198	0.0065
550.2147	0.0099
550.4096	-0.0012
550.6045	-0.0044
550.7994	0.0047
550.9943	0.0043
551.1892	-0.0142
551.384	0.0156
551.5788	0.001
551.7737	0.0123
551.9685	0.0076
552.1632	-0.0031
552.358	-0.0091
552.5528	-0.002
552.7475	0.0012
552.9422	0.0046
553.1369	0.0058
553.3316	0.0097
553.5263	-0.0001
553.7209	0.0007
553.9156	0.0064
554.1102	0.0145
554.3048	-0.0016
554.4994	-0.0077
554.694	0.0032
554.8885	-0.0035
555.0831	0.0107
555.2776	0.0046
555.4721	0.0037
555.6666	0.0141
555.8611	0.0059
556.0555	0.0019
556.25	0.0038
556.4444	0.0012
556.6388	0.0067
556.8332	0.0093
557.0276	0.0065
557.222	-0.0046
557.4163	0.0051
557.6107	0.0001
557.805	-0.0113
557.9993	-0.0001
558.1936	-0.0093
558.3879	0.0037
558.5821	-0.0083
558.7764	-0.0069
558.9706	-0.0058
559.1648	0.0027
559.359	-0.0025
559.5532	-0.0001
559.7473	-0.0009
559.9415	-0.0019
560.1356	0.0047
560.3297	-0.0056
560.5238	0.013
560.7179	-0
560.9119	-0.0014
561.106	-0.0055
561.3	0.0063
561.494	-0.008
561.688	0.0011
561.882	-0.0054
562.076	0.0021
562.2699	0.0118
562.4639	0.0037
562.6578	0.008
562.8517	0.0126
563.0456	0.005
563.2395	0.0083
563.4333	-0.0002
563.6272	-0.0049
563.821	0.0049
564.0148	0.0021
564.2086	0.0041
564.4024	0.0085
564.5961	-0.0023
564.7899	0.0152
564.9836	0.0003
565.1773	0.0037
565.371	-0.0018
565.5647	0.0088
565.7584	0.0131
565.952	-0.0057
566.1456	-0.0014
566.3393	0.0047
566.5329	0.0099
566.7264	0.0069
566.92	0.0007
567.1136	0.0008
567.3071	0.0023
567.5006	0.0113
567.6941	-0.0035
567.8876	0.0026
568.0811	0.0132
568.2745	0.0014
568.468	0.0037
568.6614	0.0045
568.8548	0.0069
569.0482	0.0058
569.2416	0.0044
569.4349	0.0045
569.6283	-0.0008
569.8216	0.0081
570.0149	0.0009
570.2082	0.0078
570.4015	0.0027
570.5947	0.0052
570.788	0.0041
570.9812	0.0013
571.1744	0.0023
571.3676	0.0087
571.5608	0.0041
571.754	0.0083
571.9471	0.0082
572.1402	0.0033
572.3333	0.0043
572.5264	0.0079
572.7195	-0.0014
572.9126	0.007
573.1057	0.0011
573.2987	0.001
573.4917	0.0041
573.6847	-0.0033
573.8777	0.0077
574.0707	0.0017
574.2636	0.0047
574.4566	0.0009
574.6495	0.0007
574.8424	0.0025
575.0353	0.0042
575.2281	0.0025
575.421	0.0029
575.6138	-0.0003
575.8067	0.0093
575.9995	-0.0008
576.1923	0
576.385	0.0054
576.5778	0.0061
576.7706	0.0036
576.9633	0.0003
577.156	-0.0033
577.3487	0.0023
577.5414	-0.0027
577.734	0.0016
577.9267	0.0054
578.1193	0.0052
578.3119	-0.0013
578.5045	0.0019
578.6971	-0.0044
578.8897	-0.002
579.0822	0.0064
579.2747	0.0029
579.4673	0.0036
579.6598	0.0047
579.8522	-0
580.0447	0.0049
580.2372	0.0081
580.4296	0.0076
580.622	-0.0021
580.8144	0.0041
581.0068	0.0027
581.1992	0.0046
581.3915	-0
581.5839	0.003
581.7762	-0.0001
581.9685	0.0017
582.1608	0.0002
582.353	0.002
582.5453	0.0024
582.7375	0.004
582.9298	-0.0028
583.122	-0.0007
583.3142	0.0076
583.5063	0.0047
583.6985	0.0001
583.8906	0.0015
584.0827	0.005
584.2749	0.0015
584.4669	0.0014
584.659	0.0029
584.8511	0.0084
585.0431	0.0053
585.2352	0.0016
585.4272	0.0013
585.6192	0.0007
585.8111	0.0046
586.0031	-0.0032
586.195	-0.0005
586.387	0.0022
586.5789	0.0054
586.7708	0.0043
586.9627	0.0013
587.1545	0.0016
587.3464	-0.0006
587.5382	0.0016
587.73	0.0062
587.9218	-0.0019
588.1136	0.0036
588.3053	-0.001
588.4971	0.001
588.6888	0.0031
588.8805	0.0025
589.0722	0.0117
589.2639	0.0071
589.4556	0.0042
589.6472	0.003
589.8389	0.0034
590.0305	0.0018
590.2221	0.0055
590.4137	0.0006
590.6052	0.0059
590.7968	0.0024
590.9883	0.0012
591.1798	0.0008
591.3713	-0.0086
591.5628	0.0085
591.7543	0.0074
591.9458	0.0012
592.1372	0.0003
592.3286	-0.0015
592.52	0.0029
592.7114	0.0008
592.9028	0.0041
593.0941	0.0002
593.2855	0.0026
593.4768	0.006
593.6681	0.0064
593.8594	0.0058
594.0506	0.0052
594.2419	0.0022
594.4331	0.0015
594.6244	-0.002
594.8156	0.0001
595.0067	-0.0021
595.1979	0.0028
595.3891	0.0071
595.5802	0.0092
595.7713	-0.0005
595.9624	0.0031
596.1535	0
596.3446	-0.0029
596.5357	0.0003
596.7267	0.0018
596.9177	0.0027
597.1087	-0.0066
597.2997	0.0045
597.4907	-0.0044
597.6817	0.0052
597.8726	0.0057
598.0635	-0.0016
598.2544	0.004
598.4453	0.0024
598.6362	0.0014
598.827	-0.0025
599.0179	-0.0022
599.2087	0.0102
599.3995	0.0028
599.5903	0.0052
599.7811	0.0041
599.9718	0.0021
600.1626	0.0004
600.3533	-0.0019
600.544	-0.0009
600.7347	0.0043
600.9254	0.0133
601.116	0.0065
601.3067	-0.0014
601.4973	0.0012
601.6879	0.0004
601.8785	0.0073
602.0691	0.0036
602.2596	0.0018
602.4502	-0.0008
602.6407	0.0052
602.8312	0.0018
603.0217	0.0008
603.2122	0.0042
603.4027	0.0034
603.5931	-0.0022
603.7835	0.0032
603.9739	-0.0031
604.1643	0.0091
604.3547	0.0036
604.5451	0.0059
604.7354	-0.0073
604.9257	0.0015
605.116	0.0003
605.3063	-0.0008
605.4966	-0.0001
605.6869	0.0049
605.8771	0.0028
606.0673	0.0009
606.2575	-0.0012
606.4477	0.0045
606.6379	-0.0003
606.8281	0.0048
607.0182	0.0015
607.2083	0.0054
607.3985	0.0009
607.5885	0.0021
607.7786	0.0043
607.9687	0.0102
608.1587	0.0066
608.3488	0.0023
608.5388	-0.0051
608.7288	-0.0008
608.9187	0.0043
609.1087	0.0039
609.2986	0.0053
609.4886	-0.0028
609.6785	0.0058
609.8684	-0.0015
610.0582	0.0032
610.2481	-0.0015
610.4379	0.0054
610.6278	0.0051
610.8176	0.0051
611.0074	0.0079
611.1971	0.0024
611.3869	0.0132
611.5766	-0.0035
611.7664	0.0045
611.9561	0.0077
612.1458	0.0066
612.3354	-0.0006
612.5251	0.0062
612.7147	0.0065
612.9044	-0.0055
613.094	0.0085
613.2836	0.0014
613.4731	0.0034
613.6627	0.001
613.8522	0.0057
614.0417	0.0081
614.2313	-0.0023
614.4207	0.0053
614.6102	0.0052
614.7997	0.0064
614.9891	0.0046
615.1785	-0.0029
615.3679	0.0014
615.5573	0.0001
615.7467	0.0008
615.9361	0.0071
616.1254	0.0081
616.3147	0.0005
616.504	0.0066
616.6933	0.0058
616.8826	-0.0029
617.0718	0.0116
617.2611	-0.0074
617.4503	-0.0004
617.6395	0.0065
617.8287	0.0072
618.0179	-0.0004
618.207	0.0061
618.3961	-0.0019
618.5853	-0.0011
618.7744	-0.0026
618.9634	0.0035
619.1525	-0.0009
619.3416	-0.0035
619.5306	0.002
619.7196	0.0004
619.9086	0.0033
620.0976	-0.0096
620.2866	0.0101
620.4755	0.0008
620.6645	-0.0008
620.8534	0.0029
621.0423	-0.0028
621.2312	0.0048
621.42	0.0077
621.6089	0.0056
621.7977	0.0101
621.9865	-0.0038
622.1753	-0.0027
622.3641	-0.0051
622.5529	0.001
622.7416	0.0006
622.9303	0.0032
623.1191	0.0016
623.3078	0.0021
623.4964	0.0057
623.6851	0.0042
623.8737	0.0033
624.0624	-0.0106
624.251	-0.0037
624.4396	0.0019
624.6282	0.007
624.8167	-0.003
625.0053	0.0031
625.1938	-0.0039
625.3823	0.0061
625.5708	0.0012
625.7593	0.0022
625.9477	0.0029
626.1362	0.0098
626.3246	-0.0013
626.513	0.0071
626.7014	0.0142
626.8898	0.0019
627.0781	0.003
627.2665	-0.0031
627.4548	-0.0043
627.6431	0.0061
627.8314	0.0112
628.0197	-0.0034
628.2079	-0.0038
628.3962	0.0002
628.5844	-0.0004
628.7726	0.0024
628.9608	0.0106
629.1489	0.0044
629.3371	-0.0001
629.5252	0.0023
629.7134	-0.0122
629.9015	0.002
630.0895	-0.007
630.2776	0.0102
630.4657	0.0107
630.6537	0.013
630.8417	-0.0069
631.0297	0.0076
631.2177	0.0039
631.4057	-0.0053
631.5936	-0.0005
631.7815	0.0103
631.9695	0.011
632.1574	0.0129
632.3452	0.0037
632.5331	0.0075
632.7209	-0.0039
632.9088	0.0045
633.0966	0.023
633.2844	-0.0045
633.4722	0.0102
633.6599	0.0376
633.8477	0.0096
634.0354	0.0177
634.2231	-0.0254
634.4108	-0.0039
634.5985	-0.0035
634.7861	-0.011
634.9738	-0.0098
635.1614	-0.0009
635.349	-0.0052
635.5366	0.0048
635.7242	0.006
635.9117	0.0009
636.0993	0.0204
636.2868	-0.0033
636.4743	0.016
636.6618	-0.0134
636.8492	0.0034
637.0367	-0.0024
637.2241	0.0027
637.4115	0.018
637.5989	0.0066
637.7863	0.0208
637.9737	-0.0038
638.161	0.0159
638.3484	-0.0059
638.5357	0.0014
638.723	0.013
638.9103	-0.0074
639.0975	0.008
639.2848	0.0275
639.472	0.0126
639.6592	-0.0141
639.8464	-0.005
640.0336	0.0024
640.2208	-0.0214
640.4079	-0.0229
640.595	-0.0185
640.7821	0.003
640.9692	0.0001
641.1563	-0.0083
641.3434	0.021
641.5304	0.0221
641.7174	0.0017
641.9044	0.0082
642.0914	0.0089
642.2784	0.0004
642.4653	0.0001
642.6523	0.0085
642.8392	-0.0124
643.0261	0.0072
643.213	0.0017
643.3999	0.0152
643.5867	0.0145
643.7735	-0.0023
643.9604	0.0142
644.1472	-0.0035
644.3339	-0.0146
644.5207	-0.0148
644.7075	0.002
644.8942	0.0022
645.0809	-0.0018
645.2676	-0.0091
645.4543	0.0094
645.6409	0.0226
645.8276	-0.0006
646.0142	0.0012
646.2008	-0.0104
646.3874	-0.0032
646.574	-0.01
646.7605	0.0101
646.9471	-0.0045
647.1336	-0.0319
647.3201	-0.0148
647.5066	0.0037
647.6931	-0.0151
647.8795	0.0172
648.0659	-0.001
648.2524	0.0056
648.4388	-0.0047
648.6252	0.0145
648.8115	-0.0047
648.9979	0.0067
649.1842	-0.0023
649.3705	0.0159
649.5568	-0.0119
649.7431	-0.0029
649.9294	0.001
650.1156	-0.0126
650.3018	-0.0049
650.488	-0.0063
650.6742	-0.0117
650.8604	0.0058
651.0466	-0.0162
651.2327	0.002
651.4188	-0.0026
651.6049	0.0167
651.791	0.0042
651.9771	0.0049
652.1632	0.0071
652.3492	0.0015
652.5352	0.0222
652.7212	0.0124
652.9072	0.0009
653.0932	-0.0069
653.2791	-0.0035
653.465	0.0007
653.651	-0.0007
653.8369	0.0078
654.0227	-0.0104
654.2086	0.0021
654.3944	-0.0038
654.5803	-0.0017
654.7661	0.0016
654.9519	-0.0022
655.1377	-0
655.3234	-0
655.5092	-0
655.6949	-0
655.8806	-0
656.0663	-0
656.2519	-0
656.4376	-0
656.6232	-0
656.8088	-0
656.9945	-0
657.18	-0
657.3656	-0
657.5511	-0
657.7367	-0
657.9222	-0
658.1077	-0
658.2932	-0
658.4786	-0
658.6641	-0
658.8495	-0
659.0349	-0
659.2203	-0
659.4057	-0
659.591	0.0798
659.7764	0.0149
659.9617	0.0007
660.147	-0.0048
660.3323	-0.0088
660.5176	-0.0016
660.7028	-0.0231
660.888	0.0147
661.0733	0.0017
661.2585	-0.0144
661.4436	0.012
661.6288	0.011
661.8139	0.0016
661.9991	-0.0095
662.1842	-0.009
662.3693	-0.0021
662.5544	-0.0079
662.7394	0.0219
662.9245	-0.0004
663.1095	-0.0174
663.2945	-0.0229
663.4795	-0.0001
663.6644	-0.0152
663.8494	0.019
664.0343	-0.0011
664.2193	-0.0153
664.4042	-0.0009
664.589	0.0028
664.7739	0.0006
664.9587	-0.0211
665.1436	-0.0115
665.3284	-0.0056
665.5132	-0.0328
665.698	0.0109
665.8827	0.0072
666.0675	-0.0077
666.2522	0.0017
666.4369	0.0081
666.6216	0.0049
666.8063	-0.0035
666.9909	-0.0065
667.1756	0.0085
667.3602	-0.0178
667.5448	0.0028
667.7294	0.0161
667.9139	-0.0115
668.0985	0.0046
668.283	0.0036
668.4675	0.0129
668.652	0.0189
668.8365	-0.008
669.0209	-0.016
669.2054	0.0014
669.3898	-0.0086
669.5742	0.0131
669.7586	0.008
669.943	0.0166
670.1273	-0.0135
670.3117	-0.0026
670.496	-0.0018
670.6803	0.0037
670.8646	-0.0105
671.0488	0.0157
671.2331	-0.0064
671.4173	0.0088
671.6015	-0.0106
671.7857	-0.0076
671.9699	0.0158
672.1541	0.0069
672.3382	-0.0082
672.5223	0.0022
672.7064	-0.0023
672.8905	-0.0068
673.0746	-0.0024
673.2587	0.0164
673.4427	-0.0025
673.6267	0.0152
673.8107	0.0139
673.9947	0.0129
674.1787	-0.0005
674.3626	0.0078
674.5465	0.0176
674.7304	0.0031
674.9143	-0.0078
675.0982	0.0032
675.2821	-0.0001
675.4659	0.0002
675.6497	0.0111
675.8335	0.0086
676.0173	0.0026
676.2011	0.0098
676.3849	-0.0214
676.5686	0.0231
676.7523	0.0021
676.936	-0.0037
677.1197	-0.0037
677.3034	0.0221
677.487	0.0008
677.6706	0.0145
677.8542	-0.0235
678.0378	0.0075
678.2214	0.0095
678.405	-0.0157
678.5885	0.0181
678.772	0.0264
678.9555	-0.0082
679.139	0.0097
679.3225	0.0014
679.5059	0.007
679.6894	0.0036
679.8728	-0.0218
680.0562	0.0111
680.2395	-0.011
680.4229	-0.0285
680.6062	0.0071
680.7896	-0.0206
680.9729	0.0106
681.1562	-0.0072
681.3394	-0.02
681.5227	-0.0024
681.7059	-0.0075
681.8891	0.0189
682.0723	-0.0124
682.2555	-0.0069
682.4387	0.025
682.6218	0.0068
682.805	0.015
682.9881	0.0333
683.1712	0.0176
683.3542	0.019
683.5373	-0.0201
683.7203	0.0023
683.9034	-0.0095
684.0864	-0.0137
684.2694	0.0107
684.4523	0.0085
684.6353	0.0057
684.8182	-0.006
685.0011	-0.0025
685.184	0.0036
685.3669	0.0146
685.5498	-0.0099
685.7326	-0.0077
685.9154	-0.0091
686.0982	0.0099
686.281	0.0003
686.4638	0.0016
686.6465	-0.0005
686.8293	-0.0157
687.012	0.0177
687.1947	0.0093
687.3774	0.0049
687.56	-0.0187
687.7427	-0.003
687.9253	-0.0284
688.1079	-0.0103
688.2905	-0.0094
688.4731	0.0197
688.6556	0.0118
688.8382	-0.0444
689.0207	0.0126
689.2032	0.0193
689.3857	-0.0098
689.5681	0.0173
689.7506	0.0379
689.933	-0.002
690.1154	0.0313
690.2978	-0.0087
690.4802	0.0336
690.6626	-0.0095
690.8449	0.0092
691.0272	-0.0132
691.2095	-0.0088
691.3918	-0.0042
691.5741	0.0122
691.7563	0.007
691.9386	0.0276
692.1208	-0.0004
692.303	-0.0188
692.4852	0.0042
692.6673	-0.0031
692.8495	-0.0016
693.0316	0.0096
693.2137	0.0073
693.3958	0.0047
693.5778	-0.0146
693.7599	-0.0131
693.9419	0.0002
694.1239	-0.0244
694.3059	0.0069
694.4879	0.0256
694.6699	0.0036
694.8518	0.0001
695.0337	-0.0135
695.2157	0.0208
695.3975	0.0066
695.5794	-0.0331
695.7613	0.0147
695.9431	0.0038
696.1249	0.0207
696.3067	-0.0208
696.4885	0.0149
696.6703	0.0027
696.852	-0.0084
697.0337	0.024
697.2154	0.0048
697.3971	0.0012
697.5788	0.0071
697.7605	0.0006
697.9421	0.0026
698.1237	0.0036
698.3053	-0.0137
698.4869	0.0017
698.6685	-0.0183
698.85	0.0079
699.0315	-0.0063
699.213	0.0051
699.3945	-0.0035
699.576	-0.0069
699.7575	0.012
699.9389	0.001
700.1203	0.0181
700.3017	0.0053
700.4831	0.0124
700.6645	0.0265
700.8458	-0.0037
701.0271	0.0278
701.2084	0.0045
701.3897	0.0134
701.571	-0.0069
701.7523	-0.0033
701.9335	0.0077
702.1147	0.0388
702.2959	-0.0161
702.4771	0.0107
702.6583	-0.0098
702.8394	-0.0323
703.0205	0.0197
703.2016	-0.0216
703.3827	-0.0179
703.5638	0.0067
703.7449	0.016
703.9259	0.0097
704.1069	-0.0103
704.2879	0.0153
704.4689	0.0232
704.6499	0.009
704.8308	0.0002
705.0117	-0.0043
705.1927	0.0308
705.3735	0.008
705.5544	-0.0078
705.7353	-0.0089
705.9161	-0.0065
706.0969	0.0172
706.2777	0.0089
706.4585	0.0001
706.6393	0.0085
706.82	0.0135
707.0007	-0.0149
707.1815	-0.013
707.3621	0.0306
707.5428	0.001
707.7235	-0.0063
707.9041	0.0077
708.0847	0.0012
708.2653	0.0072
708.4459	0.0098
708.6265	-0.0176
708.807	-0.0091
708.9875	-0.0124
709.168	-0.004
709.3485	0.0081
709.529	0.0059
709.7095	-0.0294
709.8899	0.0084
710.0703	0.0067
710.2507	0.0008
710.4311	-0.0087
710.6115	0.0165
710.7918	0.0213
710.9721	0.0132
711.1524	-0.0082
711.3327	-0.0103
711.513	-0.0128
711.6932	-0.0147
711.8735	0.003
712.0537	-0.0083
712.2339	-0.0199
712.4141	0.01
712.5942	-0.0045
712.7744	0.0317
712.9545	0.0131
713.1346	0.0302
713.3147	0.0171
713.4947	-0.0161
713.6748	-0.0015
713.8548	0.0205
714.0348	0.0254
714.2148	0.016
714.3948	0.0312
714.5748	0.0048
714.7547	0.0078
714.9346	0.0328
715.1145	-0.0051
715.2944	-0.0233
715.4743	0.0074
715.6541	0.0037
715.834	0.0211
716.0138	-0.0161
716.1936	-0.0061
716.3733	-0.0213
716.5531	-0.0077
716.7328	0.037
716.9126	-0.0208
717.0923	0.0008
717.2719	0.0066
717.4516	0.0151
717.6312	-0.0229
717.8109	0.0063
717.9905	0.0205
718.1701	0.011
718.3496	0.0014
718.5292	-0.0054
718.7087	0.0051
718.8882	0.0327
719.0677	0.0079
719.2472	-0.0041
719.4267	-0.0162
719.6061	-0.0129
719.7856	0.0151
719.965	-0.0151
720.1443	-0.0326
720.3237	-0.0029
720.5031	0.0161
720.6824	-0.018
720.8617	-0.0138
721.041	0.0311
721.2203	-0.0145
721.3995	0.0052
721.5788	-0.0168
721.758	0.0044
721.9372	0.0137
722.1164	-0.0006
722.2956	-0.014
722.4747	0.0095
722.6538	-0.0115
722.8329	0.0155
723.012	0.0092
723.1911	0.0105
723.3702	0.0226
723.5492	0.0308
723.7282	0.0107
723.9072	0.0006
724.0862	0.0043
724.2652	0.0037
724.4441	-0.0099
724.623	-0.0017
724.8019	0.0056
724.9808	0.0088
725.1597	0.0074
725.3385	-0.0065
725.5174	0.0202
725.6962	0.0084
725.875	0.0112
726.0538	0.0033
726.2325	0.015
726.4112	-0.0112
726.59	-0.0224
726.7687	-0.0027
726.9474	0.0343
727.126	0.0009
727.3047	-0.0386
727.4833	-0.0024
727.6619	-0.0259
727.8405	0.0053
728.0191	0.0247
728.1976	0.0091
728.3762	0.0129
728.5547	-0.0102
728.7332	0.0221
728.9116	-0.0082
729.0901	0.0036
729.2686	0.0008
729.447	0.0027
729.6254	0.0071
729.8038	-0.0201
729.9821	-0.0302
730.1605	-0.0069
730.3388	-0.0079
730.5171	0.0106
730.6954	-0.0212
730.8737	0.0023
731.0519	-0.0016
731.2302	0.0056
731.4084	0.0004
731.5866	0.0077
731.7648	-0.0096
731.9429	0.011
732.1211	-0.0078
732.2992	0.0027
732.4773	-0.0001
732.6554	-0.0203
732.8335	0.0187
733.0115	0.0036
733.1896	-0.0096
733.3676	0.0222
733.5456	-0.0098
733.7235	-0.008
733.9015	0.0038
734.0794	-0.0049
734.2574	-0.039
734.4353	0.0176
734.6131	-0.0032
734.791	-0.0118
734.9689	-0.0021
735.1467	-0.0156
735.3245	0.0026
735.5023	0.0023
735.68	-0.0088
735.8578	0.0102
736.0355	0.0125
736.2132	0.0127
736.3909	0.0031
736.5686	-0.0101
736.7463	-0.0277
736.9239	0.0214
737.1015	0.0031
737.2791	0.0277
737.4567	-0.0097
737.6343	-0.0065
737.8118	0.0278
737.9894	-0.0167
738.1669	0.0028
738.3444	0.0074
738.5218	-0.0122
738.6993	0.0065
738.8767	0.0006
739.0541	0.026
739.2315	-0.0028
739.4089	0.0083
739.5863	0.0014
739.7636	-0.0131
739.9409	0.0124
740.1182	-0.0071
740.2955	0.0237
740.4728	-0.0189
740.65	-0.0113
740.8272	0.0107
741.0044	0.0214
741.1816	0.0097
741.3588	-0.0249
741.5359	-0.0241
741.7131	0.0114
741.8902	-0.0128
742.0673	-0.0192
742.2444	0.0146
742.4214	0.0136
742.5985	-0.0276
742.7755	0.0019
742.9525	-0.02
743.1295	-0.0308
743.3064	-0.0122
743.4834	-0.0066
743.6603	0.0424
743.8372	-0.0054
744.0141	0.0518
744.191	0.0111
744.3678	-0.0412
744.5446	-0.0179
744.7215	-0.0038
744.8982	0.0312
745.075	0.0457
745.2518	0.0178
745.4285	-0.0108
745.6052	-0.0593
745.7819	0.0178
745.9586	0.0098
746.1353	-0.0128
746.3119	-0.0016
746.4885	0.0326
746.6651	0.021
746.8417	0.0015
747.0183	0.0433
747.1948	0.0059
747.3714	-0.0026
747.5479	-0.0048
747.7244	0.0071
747.9008	-0.0396
748.0773	0.0192
748.2537	0.0132
748.4301	-0.0094
748.6065	0.0007
748.7829	-0.0134
748.9593	0.001
749.1356	0.017
749.3119	0.0243
749.4882	0.024
749.6645	0.0093
749.8408	0.0364
750.017	0.0166
750.1933	-0.0299
750.3695	-0.0227
750.5457	0.0029
750.7218	0.004
750.898	-0.0042
751.0741	-0.0014
751.2502	-0.0102
751.4263	0.0024
751.6024	0.01
751.7784	0.0072
751.9545	0.0017
752.1305	-0.0118
752.3065	0.0168
752.4825	0.003
752.6584	0.0053
752.8344	0.002
753.0103	-0.0133
753.1862	0.0052
753.3621	-0.0031
753.5379	0.0012
753.7138	0.0115
753.8896	0.017
754.0654	-0.0174
754.2412	0.0075
754.417	0.0279
754.5927	0.0222
754.7685	-0.0011
754.9442	0.0038
755.1199	-0.0019
755.2956	0.0149
755.4712	0.0128
755.6469	-0.0059
755.8225	-0.0032
755.9981	0.0176
756.1736	0.0018
756.3492	-0.0038
756.5248	-0.0039
756.7003	0.0054
756.8758	-0.0054
757.0513	-0.0161
757.2267	-0.0007
757.4022	-0.0093
757.5776	0.0005
757.753	0.0014
757.9284	0.0042
758.1038	0.0055
758.2791	0.0012
758.4545	-0.0143
758.6298	0.0044
758.8051	0.0039
758.9803	0.0124
759.1556	-0.008
759.3308	0.004
759.506	0.0034
759.6812	0.0027
759.8564	-0.0041
760.0316	0.0019
760.2067	0.0183
760.3819	0.0074
760.557	-0.0053
760.732	-0.0103
760.9071	0.0113
761.0821	-0.0075
761.2572	0.015
761.4322	0.01
761.6072	0.015
761.7821	-0.0386
761.9571	-0.0153
762.132	0.0145
762.3069	0.015
762.4818	0.0342
762.6567	0.0151
762.8316	0.0125
763.0064	0.021
763.1812	-0.0002
763.356	-0.0092
763.5308	0.017
763.7055	-0.0054
763.8803	-0.0166
764.055	-0.0029
764.2297	-0.0117
764.4044	0.0059
764.579	-0.0123
764.7537	0.0011
764.9283	0.0034
765.1029	-0.0037
765.2775	0.0062
765.4521	0.0224
765.6266	-0.0271
765.8011	-0.0052
765.9756	0.0085
766.1501	0.0148
766.3246	0.0136
766.4991	0.0012
766.6735	0.0116
766.8479	-0.0071
767.0223	-0.0008
767.1967	-0.0244
767.371	0.0274
767.5454	0.0313
767.7197	0.0307
767.894	-0.003
768.0683	-0.0174
768.2425	-0.0047
768.4168	0.0185
768.591	0.0058
768.7652	0.0059
768.9394	-0.0139
769.1135	0.002
769.2877	0.0516
769.4618	0.0384
769.6359	-0.0129
769.81	0.0303
769.984	-0.0024
770.1581	0.0055
770.3321	0.022
770.5061	-0.0208
770.6801	-0.0064
770.8541	0.0224
771.028	0.0231
771.202	0.0037
771.3759	0.0163
771.5498	-0.0027
771.7236	0.0129
771.8975	0.0146
772.0713	0.0189
772.2451	-0.0061
772.4189	-0.0174
772.5927	-0.0149
772.7665	0.0043
772.9402	-0.0266
773.1139	-0.0041
773.2876	-0.0316
773.4613	-0.0201
773.635	0.0342
773.8086	0.0175
773.9822	0.0532
774.1558	0.0264
774.3294	-0.0104
774.503	0.0094
774.6765	0.0128
774.8501	-0.0104
775.0236	0.0227
775.1971	-0.0212
775.3705	0.0507
775.544	-0.0422
775.7174	0.0371
775.8908	0.0075
776.0642	0.0121
776.2376	0.0148
776.4109	0.0261
776.5843	0.0166
776.7576	-0.0218
776.9309	0.0361
777.1041	-0.0092
777.2774	-0.0118
777.4506	-0.0021
777.6238	0.012
777.797	0.0456
777.9702	0.0036
778.1434	-0.0125
778.3165	-0.0028
778.4896	-0.0204
778.6627	0.0313
778.8358	0.002
779.0089	-0.0299
779.1819	0.0178
779.3549	0.0162
779.5279	0.001
779.7009	0.063
779.8739	0.0763
780.0468	0.0053
780.2197	0.0236
780.3926	0.017
780.5655	-0.0014
780.7384	-0.0094
780.9112	0.0204
781.0841	-0.0121
781.2569	-0.0065
781.4297	0.0007
781.6024	0.0328
781.7752	0.0528
781.9479	0.049
782.1206	-0.0189
782.2933	0.01
782.466	0.0171
782.6386	0.0032
782.8113	-0.0032
782.9839	-0.0314
783.1565	0.0097
783.329	-0.0145
783.5016	-0.017
783.6741	-0.0117
783.8466	0.0464
784.0191	0.0149
784.1916	-0.0502
784.3641	-0.016
784.5365	-0.0011
784.7089	-0.0364
784.8813	0.034
785.0537	0.0207
785.2261	-0.0113
785.3984	0.0038
785.5707	-0.0134
785.743	0.0502
785.9153	-0.0452
786.0876	-0.0255
786.2598	-0.0362
786.432	0.0336
786.6042	0.0311
786.7764	-0.0075
786.9486	-0.0206
787.1207	0.0135
787.2928	0.059
787.4649	0.0082
787.637	-0.0315
787.8091	0.0056
787.9811	0.0317
788.1532	0.0055
788.3252	0.0073
788.4972	-0.0101
788.6691	0.0164
788.8411	0.0088
789.013	0.0163
789.1849	0.0039
789.3568	-0.0051
789.5287	0.0294
789.7005	-0.0537
789.8723	-0.0346
790.0442	-0.0199
790.2159	0.0185
790.3877	0.0356
790.5595	0.0262
790.7312	-0.0238
790.9029	-0.0136
791.0746	-0.0095
791.2463	-0.0437
791.4179	0.0357
791.5896	0.0025
791.7612	0.0381
791.9328	-0.0511
792.1044	-0.0017
792.2759	-0.02
792.4474	-0.0188
792.619	-0.0618
792.7905	0.0204
792.9619	0.0384
793.1334	0.0105
793.3048	0.0538
793.4762	-0.0038
793.6476	-0.0496
793.819	0.007
793.9904	-0.0307
794.1617	-0.0203
794.333	0.012
794.5043	0.0066
794.6756	-0.0239
794.8469	0.0139
795.0181	-0.0182
795.1893	0.0047
795.3605	0.0521
795.5317	-0.0067
795.7029	0.0746
795.874	-0.0379
796.0452	0.0455
796.2163	0.0297
796.3873	0.1071
796.5584	0.0057
796.7294	0.053
796.9005	0.0007
797.0715	0.0008
797.2425	0.03
797.4134	0.0418
797.5844	-0.0104
797.7553	-0.0975
797.9262	0.0304
798.0971	0.0057
798.2679	-0.0443
798.4388	0.012
798.6096	0.0076
798.7804	0.0031
798.9512	0.0136
799.122	0.0045
799.2927	0.0256
799.4635	-0.0615
799.6342	-0.0053
799.8049	0.0395
799.9755	-0.0737
800.1462	0.0117
800.3168	-0.0395
800.4874	-0.0795
800.658	0.0329
800.8286	-0.0321
800.9991	-0.0039
801.1696	-0.0422
801.3402	-0.0555
801.5106	-0.0882
801.6811	-0.035
801.8516	0.0535
802.022	-0.0472
802.1924	-0.0665
802.3628	-0.0275
802.5332	0.001
802.7035	0.1001
802.8739	0.0482
803.0442	-0.0914
803.2145	-0.0472
803.3847	0.0431
803.555	-0.0159
803.7252	-0.1002
803.8954	-0.0619
804.0656	-0.0599
804.2358	0.0027
804.4059	0.0134
804.5761	-0.0863
804.7462	0.0295
804.9163	0.0152
805.0864	-0.0245
805.2564	-0.0266
805.4264	0.0628
805.5965	-0.0186
805.7665	-0.0655
805.9364	0.045
806.1064	-0.0098
806.2763	0.0005
806.4462	0.0042
806.6161	0.0399
806.786	0.021
806.9559	-0.0072
807.1257	0.0066
807.2955	0.0085
807.4653	0.0251
807.6351	-0.0209
807.8048	-0.0219
807.9746	0.0056
808.1443	-0.0406
808.314	0.0786
808.4837	0.0536
808.6533	0.0233
808.8229	-0.0352
808.9926	0.0317
809.1622	0.0437
809.3317	0.0113
809.5013	-0.0589
809.6708	0.0911
809.8403	0.0241
810.0098	-0.0463
810.1793	-0.1159
810.3488	-0.0198
810.5182	0.0289
810.6876	0.0793
810.857	-0.0451
811.0264	-0.0812
811.1958	0.0782
811.3651	0.0131
811.5344	0.137
811.7037	-0.0149
811.873	0.0375
812.0422	-0.188
812.2115	0.0479
812.3807	-0.1966
812.5499	-0.0898
812.7191	-0.1238
812.8882	-0.0838
813.0574	0.0691
813.2265	0.0854
813.3956	0.081
813.5646	0.078
813.7337	-0.0369
813.9027	-0.0191
814.0718	0.0035
814.2407	0.0073
814.4097	0.0119
814.5787	0.029
814.7476	-0.0275
814.9165	0.0023
815.0854	-0.0103
815.2543	0.101
815.4232	0.0578
815.592	0.0141
815.7608	-0.1726
815.9296	0.0845
816.0984	0.1672
816.2671	-0.3008
816.4359	0.064
816.6046	-0.0223
816.7733	-0.0051
816.942	-0.0346
817.1106	-0.0168
817.2793	-0.0728
817.4479	-0.024
817.6165	0.0568
817.785	0.034
817.9536	-0.0796
818.1221	-0.0366
818.2906	-0.1887
818.4591	-0.0011
818.6276	-0.0363
818.7961	0.0452
818.9645	-0.0354
819.1329	0.0418
819.3013	-0.1003
819.4697	0.1149
819.638	-0.0022
819.8064	-0.0736
819.9747	0.1093
820.143	-0.1308
820.3113	-0.0572
820.4795	0.0414
820.6477	0.105
820.816	0.1054
820.9842	-0.0272
821.1523	0.04
821.3205	-0.0284
821.4886	-0.0761
821.6567	-0.0839
821.8248	0.1129
821.9929	-0.0806
822.1609	0.0869
822.329	0.0724
822.497	-0.0251
822.665	-0.0616
822.833	0.0669
823.0009	0.0161
823.1688	0.2181
823.3367	-0.1657
823.5046	0.1199
823.6725	0.0653
823.8404	0.0171
824.0082	-0.0322
824.176	-0.1273
824.3438	0.2828
824.5116	-0.0802
824.6793	0.0124
824.847	0.0209
825.0147	-0.1248
825.1824	-0.1249
825.3501	0.0232
825.5177	0.0233
825.6854	-0.1043
825.853	0.0124
826.0206	-0.0159
826.1881	0.0905
826.3557	-0.1077
826.5232	0.0712
826.6907	-0.0082
826.8582	-0.0064
827.0257	0.1051
827.1931	0.1109
827.3605	-0.1268
827.528	-0.1035
827.6953	-0.2322
827.8627	-0.0589
828.03	0.0661
828.1974	-0.1282
828.3647	0.0096
828.532	-0.0173
828.6992	0.0494
828.8665	0.0035
829.0337	0.2111
829.2009	-0.0638
829.3681	0.0559
829.5352	-0.309
829.7024	0.2123
829.8695	-0.0584
830.0366	0.0352
830.2037	0.1217
830.3707	0.0371
830.5378	-0.2752
830.7048	-0.1721
830.8718	-0.0392
831.0388	-0.0182
831.2057	-0.0144
831.3727	-0.2778
831.5396	-0.0024
831.7065	-0.8451
831.8734	0.0358
832.0402	0.2548
832.2071	-0.3525
832.3739	-0.2249
832.5407	-1.8148
832.7075	-0.5379
832.8742	1.248
833.041	-0.0215
833.2077	0.9592
833.3744	0.1296
833.541	0.2629
833.7077	-0.1264
833.8743	0.2154
834.0409	0.0968
834.2075	0.093
834.3741	-0.1404
834.5407	-0.1101
834.7072	0.0577
834.8737	0.021
835.0402	0.1086
835.2067	-0.1027
835.3731	-0.0626
835.5395	-0.1447
835.706	0.0372
835.8723	-0.083
836.0387	0.3789
836.2051	0.0381
836.3714	0.0866
836.5377	-0.2176
836.704	-0.073
836.8703	-0.1323
837.0365	0.5611
837.2027	0.0928
837.3689	-0.0457
837.5351	0.3801
837.7013	-0.3478
837.8674	0.7307
838.0335	0.1434
838.1997	-0.2109
838.3657	-0
838.5318	-0.3487
838.6978	-0.1874
838.8639	-0.4306
839.0299	-0.0297
839.1958	-0.0498
839.3618	0.3643
839.5277	0.0032
839.6937	0.0053
839.8596	-0.1405
840.0254	0.2798
840.1913	-0.3953
840.3571	-0.1674
840.523	-0
840.6888	-0.0326
840.8545	-0.509
841.0203	-0.0283
841.186	0.2105
841.3517	-0.3928
841.5174	0.0591
841.6831	0.2426
841.8488	0.0682
842.0144	-0.0505
842.18	0.0852
842.3456	-0.7332
842.5112	-0
842.6767	0.0036
842.8422	-0.069
843.0077	0.2004
843.1732	-0.4032
843.3387	1.4782
843.5042	-0
843.6696	-0.2168
843.835	-0.3067
844.0004	-0.2038
844.1657	0.1648
844.3311	-0
844.4964	-0.111
844.6617	0.1615
844.827	-0
844.9923	0.308
845.1575	-0.1636
845.3227	-0.29
845.4879	-0.4849
845.6531	-0.2772
845.8183	-0.0222
845.9834	-0
846.1485	0.2493
846.3136	-0.0693
846.4787	0.5927
846.6438	-0.1007
846.8088	0.5571
846.9738	-0.421
847.1388	0.1787
847.3038	0.3901
847.4687	-0
847.6337	-0.7084
847.7986	0.0072
847.9635	-0.3605
848.1284	-0
848.2932	0.2666
848.458	-0
848.6228	0.2826
848.7876	-0
848.9524	-0
849.1172	-1.7792
849.2819	0.6264
849.4466	0.1728
849.6113	0.075
849.7759	-0
849.9406	-0.0242
850.1052	-1.0811
850.2698	-0
850.4344	-0.6264
850.599	1.0104
850.7635	0.8538
850.928	0.6678
851.0925	-0.0211
851.257	0.1313
851.4215	-0
851.5859	-0.2373
851.7503	-0.5598
851.9147	-0
852.0791	0.1233
852.2434	0.2661
852.4078	-0
852.5721	0.3968
852.7364	0.5367
852.9007	-0.0129
853.0649	-0
853.2291	-0.0485
853.3934	-0
853.5575	-0.218
853.7217	0.2657
853.8859	0.1744
854.05	-0.519
854.2141	0.3934
854.3782	0.2912
854.5423	0.0125
854.7063	0.1357
854.8703	0.6436
855.0343	-0.1161
855.1983	-0.0396
855.3623	0.4319
855.5262	-0
855.6901	0.1913
855.854	-0.0527
856.0179	-0.3381
856.1818	0.7989
856.3456	0.0798
856.5094	-0
856.6732	0.9468
856.837	-1.3666
857.0008	-0
857.1645	0.6809
857.3282	-0.7059
857.4919	-0.1068
857.6556	-0.3579
857.8192	-0.3941
857.9828	0.4377
858.1465	-0.1648
858.31	-0
858.4736	-0.5611
858.6372	0.0366
858.8007	-0.0954
858.9642	0.7297
859.1277	0.8935
859.2911	-0.4802
859.4546	-0
859.618	-0.1348
859.7814	-0.0323
859.9448	1.1849
860.1081	-0
860.2715	-0.8451
860.4348	0.1444
860.5981	0.3934
860.7614	-0
860.9246	-0.0064
861.0879	-0.1624
861.2511	-0
861.4143	-0.7205
861.5774	-0.2634
861.7406	-0
861.9037	-0
862.0668	-0.5452
862.2299	0.3739
862.393	-0
862.556	-0.1425
862.7191	-0.3881
862.8821	-0.0245
863.0451	0.3177
863.208	-0.5637
863.371	-0.215
863.5339	0.2347
863.6968	-0
863.8597	-0.1313
864.0225	-0.0859
864.1854	0.1298
864.3482	-0.8685
864.511	0.1586
864.6737	-0
864.8365	-0.1046
864.9992	0.1648
865.1619	-0.0399
865.3246	-1.9232
865.4873	-0.5019
865.65	-0.0754
865.8126	0.0803
865.9752	0.1581
866.1378	0.2146
866.3004	-0.2074
866.4629	-1.6668
866.6254	-0.3525
866.7879	-0
866.9504	-0.5611
867.1129	0.1192
867.2753	-0.1955
867.4377	-0.2348
867.6001	-0
867.7625	-0.1108
867.9249	0.3502
868.0872	-0.1782
868.2495	0.2736
868.4118	-0.0905
868.5741	-0
868.7363	-0
868.8986	-0.0712
869.0608	-0.3917
869.223	-0.5113
869.3851	-0
869.5473	-0.2649
869.7094	-0
869.8715	-0.7264
870.0336	-0.0441
870.1957	-0
870.3577	0.1208
870.5197	-0.0479
870.6817	-0.2262
870.8437	-0
871.0057	-0.0273
871.1676	0.1474
871.3295	-0
871.4914	-0
871.6533	-0.1007
871.8151	0.3118
871.977	-0.6003
872.1388	0.5857
872.3006	-0.3785
872.4623	-0.4388
872.6241	0.5939
872.7858	-0.0837
872.9475	-0.0618
873.1092	-0.167
873.2709	1.8606
873.4325	-1.4667
873.5941	-0
873.7557	-0
873.9173	-0.0741
874.0789	-0
874.2404	-0
874.4019	-0.2647
874.5634	-0
874.7249	0.3223
874.8863	-0.4826
875.0478	-0.3683
875.2092	-0
875.3706	0.8627
875.5319	0.0125
875.6933	-0.1175
875.8546	-0.1802
876.0159	0.0707
876.1772	-0.197
876.3385	-0
876.4997	-0.0068
876.6609	-0
876.8221	-0
876.9833	-0
877.1445	0.089
877.3056	-1.0661
877.4667	0.2511
877.6278	1.2074
877.7889	-0.2135
877.9499	0.2323
878.111	-0.6628
878.272	-0.1706
878.433	-0
878.5939	-0.1419
878.7549	-0
878.9158	-0
879.0767	0.1412
879.2376	-0
879.3984	0.6511
879.5593	0.4368
879.7201	-1.558
879.8809	0.3694
880.0417	-0.2495
880.2024	-0.0556
880.3632	-0.4813
880.5239	-0.1349
880.6846	-0.0246
880.8452	0.048
881.0059	-0
881.1665	-0.2942
881.3271	1.0018
881.4877	-0.2136
881.6483	-0.6886
881.8088	-0
881.9693	-0
882.1298	-0
882.2903	-0
