Data from D4ACN5uM460nmA_Absorbance_13-05-42-815.txt Node
Date: Fri Feb 21 13:05:42 GMT 2025
User: LASERRRRR
Spectrometer: FLMT03099
Trigger mode: 0
Integration Time (sec): 1.500000E-2
Scans to average: 1
Electric dark correction enabled: true
Nonlinearity correction enabled: false
Boxcar width: 0
XAxis mode: Wavelengths
Number of Pixels in Spectrum: 3648
>>>>>Begin Spectral Data<<<<<
179.3399	-0.2396
179.5586	-0.2396
179.7771	-0.2396
179.9957	-0.0481
180.2143	-0
180.4329	-0.1163
180.6514	-0.4999
180.8699	0.0081
181.0885	-0
181.307	0.4156
181.5255	0.5231
181.744	0.1831
181.9625	1.8228
182.181	0.3097
182.3994	-0.3762
182.6179	-0.0609
182.8363	-0.0491
183.0547	-0.2066
183.2732	0.2101
183.4916	0.2001
183.71	0.3571
183.9284	-0.0103
184.1467	0.4952
184.3651	0.2978
184.5835	0.2016
184.8018	0.2046
185.0201	0.1084
185.2385	0.2839
185.4568	0.1382
185.6751	0.1217
185.8934	0.112
186.1117	0.0711
186.3299	0.2701
186.5482	0.2684
186.7664	-0.0148
186.9847	-0.0208
187.2029	0.239
187.4211	0.0558
187.6393	0.0592
187.8575	0.325
188.0757	0.1423
188.2939	0.2943
188.512	0.146
188.7302	0.4476
188.9483	0.339
189.1665	0.4546
189.3846	0.3827
189.6027	0.0347
189.8208	0.3252
190.0389	0.2302
190.257	0.1969
190.475	0.1263
190.6931	0.1344
190.9111	-0.0107
191.1292	0.1002
191.3472	0.1134
191.5652	0.279
191.7832	0.2801
192.0012	0.0845
192.2192	0.1894
192.4371	0.2341
192.6551	0.1954
192.873	0.1345
193.091	0.0935
193.3089	0.1716
193.5268	0.3525
193.7447	0.1713
193.9626	0.2557
194.1805	0.1727
194.3984	0.248
194.6162	0.182
194.8341	0.2705
195.0519	0.2874
195.2697	0.2091
195.4875	0.2891
195.7054	0.3144
195.9231	0.2212
196.1409	0.3489
196.3587	0.3529
196.5765	0.3192
196.7942	0.2435
197.012	0.3446
197.2297	0.3342
197.4474	0.3397
197.6651	0.3539
197.8828	0.3224
198.1005	0.4308
198.3182	0.394
198.5358	0.38
198.7535	0.3826
198.9711	0.3968
199.1888	0.4223
199.4064	0.3902
199.624	0.3859
199.8416	0.3488
200.0592	0.4172
200.2767	0.3651
200.4943	0.4635
200.7119	0.3963
200.9294	0.4482
201.1469	0.4169
201.3645	0.4287
201.582	0.3789
201.7995	0.4214
202.017	0.3922
202.2344	0.425
202.4519	0.4293
202.6694	0.3616
202.8868	0.4007
203.1042	0.4132
203.3217	0.4056
203.5391	0.4248
203.7565	0.3947
203.9739	0.3573
204.1913	0.3556
204.4086	0.3358
204.626	0.3688
204.8433	0.4027
205.0607	0.3645
205.278	0.3835
205.4953	0.3407
205.7126	0.3395
205.9299	0.329
206.1472	0.3191
206.3644	0.3398
206.5817	0.3257
206.7989	0.334
207.0162	0.3234
207.2334	0.3175
207.4506	0.3241
207.6678	0.2946
207.885	0.3141
208.1022	0.3087
208.3194	0.2968
208.5365	0.3064
208.7537	0.298
208.9708	0.289
209.1879	0.3068
209.405	0.2796
209.6222	0.2567
209.8392	0.3101
210.0563	0.3018
210.2734	0.2742
210.4905	0.2707
210.7075	0.2623
210.9245	0.2692
211.1416	0.2787
211.3586	0.2663
211.5756	0.252
211.7926	0.2551
212.0096	0.2753
212.2265	0.2598
212.4435	0.2648
212.6604	0.2616
212.8774	0.2621
213.0943	0.2648
213.3112	0.2531
213.5281	0.257
213.745	0.2455
213.9619	0.2595
214.1788	0.2771
214.3956	0.2602
214.6125	0.24
214.8293	0.2624
215.0461	0.2387
215.2629	0.2418
215.4798	0.244
215.6965	0.2522
215.9133	0.2491
216.1301	0.2556
216.3469	0.2472
216.5636	0.2393
216.7803	0.249
216.9971	0.2647
217.2138	0.2522
217.4305	0.2566
217.6472	0.255
217.8639	0.2595
218.0805	0.256
218.2972	0.2563
218.5138	0.2687
218.7305	0.2474
218.9471	0.2524
219.1637	0.2757
219.3803	0.2719
219.5969	0.2443
219.8135	0.2793
220.0301	0.2579
220.2466	0.2721
220.4632	0.2637
220.6797	0.2549
220.8962	0.2573
221.1127	0.2763
221.3292	0.2792
221.5457	0.2735
221.7622	0.2506
221.9787	0.2803
222.1951	0.2807
222.4116	0.2862
222.628	0.2844
222.8444	0.2767
223.0608	0.2831
223.2772	0.2898
223.4936	0.2896
223.71	0.2935
223.9264	0.2885
224.1427	0.2864
224.3591	0.2993
224.5754	0.2718
224.7917	0.3071
225.008	0.3006
225.2243	0.2974
225.4406	0.2938
225.6569	0.3173
225.8732	0.3129
226.0894	0.3123
226.3057	0.3155
226.5219	0.3222
226.7381	0.3248
226.9543	0.3198
227.1705	0.3284
227.3867	0.3278
227.6029	0.3262
227.8191	0.3336
228.0352	0.3416
228.2513	0.3346
228.4675	0.3418
228.6836	0.3384
228.8997	0.3464
229.1158	0.3551
229.3319	0.3665
229.548	0.3621
229.764	0.3649
229.9801	0.3837
230.1961	0.3733
230.4121	0.3727
230.6282	0.3843
230.8442	0.3878
231.0602	0.3987
231.2761	0.3784
231.4921	0.3965
231.7081	0.392
231.924	0.3993
232.14	0.4047
232.3559	0.4175
232.5718	0.4064
232.7877	0.4145
233.0036	0.4073
233.2195	0.4171
233.4353	0.4136
233.6512	0.4184
233.867	0.4287
234.0829	0.417
234.2987	0.4304
234.5145	0.4352
234.7303	0.4347
234.9461	0.438
235.1619	0.4505
235.3776	0.4317
235.5934	0.4311
235.8091	0.4477
236.0249	0.4525
236.2406	0.4357
236.4563	0.4504
236.672	0.4517
236.8877	0.4613
237.1034	0.4445
237.319	0.4529
237.5347	0.4537
237.7503	0.4506
237.966	0.4643
238.1816	0.4524
238.3972	0.463
238.6128	0.4634
238.8284	0.4558
239.0439	0.4594
239.2595	0.4657
239.475	0.4601
239.6906	0.4576
239.9061	0.4579
240.1216	0.4653
240.3371	0.4563
240.5526	0.4616
240.7681	0.459
240.9836	0.4603
241.199	0.4529
241.4145	0.4578
241.6299	0.4575
241.8453	0.4361
242.0607	0.4299
242.2761	0.4361
242.4915	0.4232
242.7069	0.4142
242.9223	0.4114
243.1376	0.4072
243.353	0.3963
243.5683	0.3998
243.7836	0.3886
243.9989	0.3725
244.2142	0.3771
244.4295	0.3644
244.6448	0.3662
244.86	0.3457
245.0753	0.3352
245.2905	0.3372
245.5057	0.3386
245.721	0.3326
245.9362	0.3226
246.1514	0.305
246.3665	0.3088
246.5817	0.296
246.7969	0.2967
247.012	0.2848
247.2271	0.2933
247.4423	0.2825
247.6574	0.2766
247.8725	0.2686
248.0876	0.268
248.3026	0.2647
248.5177	0.2521
248.7328	0.2503
248.9478	0.2568
249.1628	0.2421
249.3779	0.2355
249.5929	0.2411
249.8079	0.2371
250.0228	0.2333
250.2378	0.2288
250.4528	0.2334
250.6677	0.2173
250.8827	0.2144
251.0976	0.2125
251.3125	0.213
251.5274	0.2148
251.7423	0.2092
251.9572	0.2064
252.172	0.2076
252.3869	0.2017
252.6017	0.2058
252.8166	0.1994
253.0314	0.1953
253.2462	0.1973
253.461	0.1937
253.6758	0.1918
253.8906	0.187
254.1053	0.1938
254.3201	0.197
254.5348	0.1812
254.7496	0.1862
254.9643	0.1933
255.179	0.1825
255.3937	0.1887
255.6083	0.1899
255.823	0.1908
256.0377	0.1775
256.2523	0.184
256.467	0.186
256.6816	0.1788
256.8962	0.1823
257.1108	0.1836
257.3254	0.1844
257.54	0.177
257.7545	0.1857
257.9691	0.1781
258.1836	0.1797
258.3981	0.1825
258.6127	0.1749
258.8272	0.184
259.0417	0.1699
259.2561	0.1737
259.4706	0.1752
259.6851	0.1773
259.8995	0.1714
260.114	0.1775
260.3284	0.166
260.5428	0.1719
260.7572	0.1735
260.9716	0.1811
261.186	0.1783
261.4003	0.1732
261.6147	0.1758
261.829	0.1741
262.0433	0.1761
262.2577	0.1776
262.472	0.1751
262.6863	0.1725
262.9005	0.1745
263.1148	0.1799
263.3291	0.1749
263.5433	0.1777
263.7576	0.1754
263.9718	0.1737
264.186	0.1838
264.4002	0.1777
264.6144	0.1854
264.8286	0.1806
265.0427	0.1837
265.2569	0.1883
265.471	0.1827
265.6851	0.1827
265.8993	0.1732
266.1134	0.1734
266.3275	0.1778
266.5415	0.1772
266.7556	0.1828
266.9697	0.1798
267.1837	0.1787
267.3978	0.1781
267.6118	0.1808
267.8258	0.1803
268.0398	0.1788
268.2538	0.1838
268.4677	0.1718
268.6817	0.1715
268.8957	0.1684
269.1096	0.1675
269.3235	0.171
269.5374	0.1699
269.7514	0.1662
269.9652	0.1758
270.1791	0.1647
270.393	0.1732
270.6068	0.172
270.8207	0.1686
271.0345	0.1665
271.2483	0.1637
271.4622	0.1676
271.676	0.1735
271.8897	0.1629
272.1035	0.1735
272.3173	0.1695
272.531	0.164
272.7448	0.1718
272.9585	0.1601
273.1722	0.1646
273.3859	0.1759
273.5996	0.1657
273.8133	0.1734
274.0269	0.1619
274.2406	0.1687
274.4542	0.1671
274.6679	0.166
274.8815	0.1721
275.0951	0.169
275.3087	0.1719
275.5223	0.1715
275.7358	0.1739
275.9494	0.1714
276.1629	0.1723
276.3765	0.175
276.59	0.1685
276.8035	0.1646
277.017	0.1705
277.2305	0.1765
277.444	0.1732
277.6574	0.1772
277.8709	0.18
278.0843	0.1779
278.2978	0.1782
278.5112	0.1771
278.7246	0.1738
278.938	0.1784
279.1513	0.1781
279.3647	0.1756
279.5781	0.1729
279.7914	0.1808
280.0047	0.1786
280.2181	0.1754
280.4314	0.1706
280.6447	0.1833
280.8579	0.1718
281.0712	0.1761
281.2845	0.18
281.4977	0.1785
281.711	0.17
281.9242	0.1739
282.1374	0.1793
282.3506	0.1776
282.5638	0.1756
282.7769	0.1726
282.9901	0.1768
283.2033	0.1769
283.4164	0.1791
283.6295	0.1775
283.8426	0.1724
284.0557	0.1839
284.2688	0.1893
284.4819	0.1809
284.695	0.1872
284.908	0.179
285.1211	0.1803
285.3341	0.1808
285.5471	0.1841
285.7601	0.1873
285.9731	0.183
286.1861	0.1841
286.3991	0.1929
286.612	0.1823
286.825	0.1849
287.0379	0.1907
287.2508	0.1896
287.4637	0.1843
287.6766	0.1848
287.8895	0.1886
288.1024	0.1943
288.3152	0.1885
288.5281	0.185
288.7409	0.1893
288.9538	0.1887
289.1666	0.1883
289.3794	0.1886
289.5922	0.1882
289.8049	0.1877
290.0177	0.1944
290.2304	0.1907
290.4432	0.197
290.6559	0.1863
290.8686	0.1972
291.0813	0.1896
291.294	0.1912
291.5067	0.1877
291.7194	0.1948
291.932	0.19
292.1447	0.1868
292.3573	0.1903
292.5699	0.195
292.7825	0.1901
292.9951	0.1952
293.2077	0.1894
293.4203	0.1915
293.6328	0.1935
293.8454	0.1965
294.0579	0.1893
294.2704	0.1975
294.4829	0.1902
294.6954	0.1921
294.9079	0.1931
295.1204	0.187
295.3328	0.1982
295.5453	0.1897
295.7577	0.1942
295.9701	0.1954
296.1825	0.1944
296.3949	0.1855
296.6073	0.1911
296.8197	0.1915
297.0321	0.1917
297.2444	0.1884
297.4567	0.1947
297.6691	0.1915
297.8814	0.1914
298.0937	0.1954
298.306	0.192
298.5182	0.2015
298.7305	0.1934
298.9428	0.1873
299.155	0.1879
299.3672	0.1957
299.5794	0.1915
299.7916	0.1969
300.0038	0.1975
300.216	0.1903
300.4282	0.1888
300.6403	0.1932
300.8525	0.193
301.0646	0.1947
301.2767	0.1963
301.4888	0.1889
301.7009	0.1969
301.913	0.1943
302.125	0.1906
302.3371	0.1928
302.5491	0.1913
302.7612	0.199
302.9732	0.1929
303.1852	0.1939
303.3972	0.1917
303.6092	0.1976
303.8211	0.1832
304.0331	0.1877
304.245	0.1857
304.457	0.1895
304.6689	0.1861
304.8808	0.1889
305.0927	0.1892
305.3046	0.1906
305.5164	0.1826
305.7283	0.1778
305.9401	0.1736
306.152	0.1799
306.3638	0.1763
306.5756	0.1827
306.7874	0.1696
306.9992	0.1714
307.2109	0.1708
307.4227	0.1705
307.6344	0.1757
307.8462	0.1702
308.0579	0.1699
308.2696	0.1667
308.4813	0.1674
308.693	0.1589
308.9046	0.1624
309.1163	0.1592
309.328	0.1583
309.5396	0.1518
309.7512	0.153
309.9628	0.1547
310.1744	0.1499
310.386	0.149
310.5976	0.1424
310.8091	0.1481
311.0207	0.1461
311.2322	0.1377
311.4437	0.1426
311.6552	0.1428
311.8667	0.1435
312.0782	0.1412
312.2897	0.143
312.5012	0.1346
312.7126	0.1316
312.924	0.1405
313.1355	0.1338
313.3469	0.1331
313.5583	0.1297
313.7696	0.1281
313.981	0.138
314.1924	0.1257
314.4037	0.1261
314.6151	0.1229
314.8264	0.1339
315.0377	0.1297
315.249	0.133
315.4603	0.1222
315.6716	0.1268
315.8828	0.1267
316.0941	0.1264
316.3053	0.1203
316.5165	0.1258
316.7277	0.1187
316.9389	0.1274
317.1501	0.121
317.3613	0.1257
317.5724	0.1208
317.7836	0.1163
317.9947	0.1173
318.2058	0.1176
318.417	0.1188
318.6281	0.1198
318.8391	0.121
319.0502	0.1202
319.2613	0.1157
319.4723	0.1154
319.6834	0.1158
319.8944	0.119
320.1054	0.1215
320.3164	0.1149
320.5274	0.1228
320.7383	0.1212
320.9493	0.1201
321.1602	0.1172
321.3712	0.1242
321.5821	0.1217
321.793	0.1284
322.0039	0.1228
322.2148	0.1233
322.4257	0.1138
322.6365	0.1152
322.8474	0.124
323.0582	0.1233
323.269	0.1227
323.4798	0.1224
323.6906	0.1166
323.9014	0.119
324.1122	0.115
324.3229	0.1246
324.5337	0.1227
324.7444	0.1248
324.9551	0.1244
325.1658	0.1219
325.3765	0.1282
325.5872	0.1229
325.7979	0.1194
326.0085	0.1235
326.2192	0.1218
326.4298	0.118
326.6404	0.1269
326.851	0.1222
327.0616	0.1254
327.2722	0.1249
327.4828	0.127
327.6933	0.1264
327.9039	0.1251
328.1144	0.1257
328.3249	0.1307
328.5354	0.1276
328.7459	0.1234
328.9564	0.1339
329.1669	0.1339
329.3773	0.126
329.5878	0.1286
329.7982	0.1295
330.0086	0.1315
330.219	0.1283
330.4294	0.1277
330.6398	0.1308
330.8502	0.1299
331.0605	0.1294
331.2708	0.128
331.4812	0.1267
331.6915	0.131
331.9018	0.1312
332.1121	0.1329
332.3224	0.1256
332.5326	0.1273
332.7429	0.1307
332.9531	0.1318
333.1633	0.1273
333.3735	0.132
333.5837	0.1324
333.7939	0.134
334.0041	0.1346
334.2143	0.1283
334.4244	0.1439
334.6346	0.1333
334.8447	0.1301
335.0548	0.139
335.2649	0.1376
335.475	0.1351
335.685	0.1329
335.8951	0.1328
336.1051	0.139
336.3152	0.136
336.5252	0.1301
336.7352	0.1333
336.9452	0.1355
337.1552	0.1358
337.3652	0.1323
337.5751	0.1368
337.7851	0.1337
337.995	0.1349
338.2049	0.1346
338.4148	0.1374
338.6247	0.1378
338.8346	0.1364
339.0445	0.1404
339.2543	0.1345
339.4642	0.1397
339.674	0.136
339.8838	0.1402
340.0936	0.138
340.3034	0.1368
340.5132	0.137
340.7229	0.1417
340.9327	0.1479
341.1424	0.1398
341.3522	0.1408
341.5619	0.1482
341.7716	0.1454
341.9813	0.144
342.1909	0.147
342.4006	0.1435
342.6102	0.1502
342.8199	0.1474
343.0295	0.1426
343.2391	0.1424
343.4487	0.1457
343.6583	0.1606
343.8679	0.145
344.0774	0.1477
344.287	0.1454
344.4965	0.1524
344.706	0.1521
344.9155	0.1441
345.125	0.1494
345.3345	0.164
345.544	0.1527
345.7534	0.1553
345.9629	0.1616
346.1723	0.1599
346.3817	0.155
346.5911	0.1587
346.8005	0.1622
347.0099	0.1542
347.2193	0.1591
347.4286	0.1607
347.638	0.1615
347.8473	0.1653
348.0566	0.159
348.2659	0.1641
348.4752	0.1626
348.6845	0.1607
348.8937	0.1616
349.103	0.1665
349.3122	0.1651
349.5214	0.1675
349.7306	0.1734
349.9398	0.1673
350.149	0.1625
350.3582	0.1756
350.5674	0.1673
350.7765	0.1761
350.9856	0.1705
351.1948	0.172
351.4039	0.1716
351.613	0.1733
351.822	0.1814
352.0311	0.1736
352.2402	0.1838
352.4492	0.1778
352.6582	0.1757
352.8672	0.1764
353.0762	0.1786
353.2852	0.1754
353.4942	0.1836
353.7032	0.1713
353.9121	0.1802
354.1211	0.1832
354.33	0.1858
354.5389	0.1812
354.7478	0.1776
354.9567	0.1853
355.1655	0.1834
355.3744	0.1745
355.5833	0.1892
355.7921	0.1932
356.0009	0.1828
356.2097	0.1789
356.4185	0.1837
356.6273	0.1859
356.8361	0.189
357.0448	0.1802
357.2536	0.1945
357.4623	0.1836
357.671	0.1913
357.8797	0.1901
358.0884	0.1854
358.2971	0.197
358.5057	0.1979
358.7144	0.1953
358.923	0.1966
359.1316	0.1994
359.3402	0.1976
359.5488	0.2
359.7574	0.1996
359.966	0.1998
360.1746	0.1956
360.3831	0.204
360.5916	0.2043
360.8002	0.2117
361.0087	0.2074
361.2172	0.2103
361.4256	0.2098
361.6341	0.2109
361.8426	0.2126
362.051	0.2094
362.2594	0.2028
362.4678	0.2103
362.6762	0.2176
362.8846	0.2155
363.093	0.2132
363.3014	0.2197
363.5097	0.2185
363.718	0.2197
363.9264	0.2198
364.1347	0.2178
364.343	0.2185
364.5513	0.2208
364.7595	0.2279
364.9678	0.2195
365.176	0.2289
365.3842	0.2281
365.5925	0.2255
365.8007	0.2296
366.0089	0.2361
366.217	0.2378
366.4252	0.2279
366.6333	0.2341
366.8415	0.2378
367.0496	0.2364
367.2577	0.2414
367.4658	0.2359
367.6739	0.2348
367.882	0.2447
368.09	0.2388
368.2981	0.2507
368.5061	0.2399
368.7141	0.24
368.9221	0.2466
369.1301	0.2524
369.3381	0.2565
369.5461	0.2447
369.754	0.2431
369.962	0.2469
370.1699	0.2576
370.3778	0.2577
370.5857	0.2468
370.7936	0.2491
371.0015	0.2585
371.2093	0.247
371.4172	0.2545
371.625	0.2551
371.8328	0.2428
372.0406	0.2675
372.2484	0.2623
372.4562	0.2652
372.664	0.2675
372.8717	0.2575
373.0795	0.2603
373.2872	0.2681
373.4949	0.2736
373.7026	0.2582
373.9103	0.2655
374.118	0.2679
374.3256	0.2804
374.5333	0.2664
374.7409	0.2671
374.9485	0.2656
375.1561	0.2724
375.3637	0.2672
375.5713	0.2779
375.7789	0.2722
375.9864	0.2768
376.194	0.279
376.4015	0.2727
376.609	0.2803
376.8165	0.2718
377.024	0.2833
377.2315	0.2783
377.4389	0.2788
377.6464	0.2837
377.8538	0.2744
378.0612	0.2853
378.2686	0.2798
378.476	0.2858
378.6834	0.283
378.8908	0.2885
379.0981	0.2855
379.3055	0.2905
379.5128	0.2853
379.7201	0.29
379.9274	0.2967
380.1347	0.2814
380.342	0.2996
380.5492	0.2985
380.7565	0.2923
380.9637	0.2988
381.1709	0.2905
381.3781	0.3042
381.5853	0.2928
381.7925	0.3002
381.9997	0.3039
382.2068	0.3039
382.4139	0.2974
382.6211	0.2998
382.8282	0.3086
383.0353	0.299
383.2424	0.3059
383.4494	0.2975
383.6565	0.3005
383.8635	0.2987
384.0706	0.3127
384.2776	0.3127
384.4846	0.297
384.6916	0.3061
384.8986	0.309
385.1055	0.3114
385.3125	0.3097
385.5194	0.3011
385.7263	0.3018
385.9333	0.301
386.1402	0.3095
386.347	0.298
386.5539	0.3153
386.7608	0.312
386.9676	0.3051
387.1744	0.3092
387.3813	0.3013
387.5881	0.2989
387.7948	0.3162
388.0016	0.3161
388.2084	0.3082
388.4151	0.3045
388.6219	0.2961
388.8286	0.3046
389.0353	0.3049
389.242	0.3067
389.4487	0.304
389.6553	0.2913
389.862	0.2941
390.0686	0.3152
390.2753	0.295
390.4819	0.3009
390.6885	0.2968
390.8951	0.2895
391.1016	0.2937
391.3082	0.2976
391.5147	0.2883
391.7213	0.2887
391.9278	0.2895
392.1343	0.2959
392.3408	0.287
392.5473	0.291
392.7537	0.2886
392.9602	0.2818
393.1666	0.2867
393.373	0.2868
393.5794	0.2859
393.7858	0.2894
393.9922	0.277
394.1986	0.2851
394.4049	0.2701
394.6113	0.2848
394.8176	0.2807
395.0239	0.2796
395.2302	0.2738
395.4365	0.2806
395.6428	0.2754
395.8491	0.274
396.0553	0.2599
396.2615	0.2744
396.4678	0.2806
396.674	0.2696
396.8802	0.2659
397.0863	0.2608
397.2925	0.2614
397.4987	0.2639
397.7048	0.2692
397.9109	0.2573
398.117	0.2607
398.3231	0.2609
398.5292	0.2589
398.7353	0.2654
398.9413	0.2647
399.1474	0.2631
399.3534	0.2665
399.5594	0.2638
399.7654	0.2557
399.9714	0.2692
400.1774	0.2576
400.3833	0.2657
400.5893	0.2608
400.7952	0.2616
401.0011	0.2492
401.207	0.2593
401.4129	0.2597
401.6188	0.2604
401.8247	0.2637
402.0305	0.2566
402.2364	0.2656
402.4422	0.2662
402.648	0.2717
402.8538	0.2514
403.0596	0.2573
403.2654	0.2487
403.4711	0.2553
403.6768	0.2576
403.8826	0.265
404.0883	0.2593
404.294	0.2616
404.4997	0.2674
404.7054	0.2675
404.911	0.2678
405.1167	0.2715
405.3223	0.2518
405.5279	0.2567
405.7335	0.2505
405.9391	0.2499
406.1447	0.2599
406.3502	0.2594
406.5558	0.2626
406.7613	0.2597
406.9668	0.253
407.1724	0.2569
407.3778	0.2632
407.5833	0.2516
407.7888	0.2603
407.9942	0.2598
408.1997	0.2621
408.4051	0.2586
408.6105	0.2501
408.8159	0.2542
409.0213	0.2655
409.2267	0.2669
409.432	0.2579
409.6374	0.2633
409.8427	0.2651
410.048	0.2629
410.2533	0.2611
410.4586	0.2507
410.6639	0.2634
410.8691	0.2457
411.0744	0.2605
411.2796	0.2651
411.4848	0.2579
411.69	0.2442
411.8952	0.2555
412.1004	0.2593
412.3056	0.2575
412.5107	0.2595
412.7158	0.2661
412.921	0.2563
413.1261	0.2587
413.3312	0.2638
413.5362	0.2758
413.7413	0.2556
413.9464	0.2487
414.1514	0.2596
414.3564	0.248
414.5614	0.2543
414.7664	0.2466
414.9714	0.25
415.1764	0.262
415.3813	0.2457
415.5863	0.2486
415.7912	0.2568
415.9961	0.2475
416.201	0.2579
416.4059	0.2573
416.6108	0.2486
416.8156	0.2451
417.0205	0.2506
417.2253	0.2524
417.4301	0.2525
417.6349	0.2517
417.8397	0.2503
418.0445	0.2481
418.2492	0.2492
418.454	0.2461
418.6587	0.2505
418.8634	0.247
419.0681	0.2565
419.2728	0.2506
419.4775	0.2514
419.6822	0.2448
419.8868	0.242
420.0915	0.2422
420.2961	0.2366
420.5007	0.2431
420.7053	0.2327
420.9099	0.2368
421.1144	0.2426
421.319	0.2337
421.5235	0.2232
421.728	0.2419
421.9325	0.233
422.137	0.2402
422.3415	0.2353
422.546	0.2338
422.7504	0.2352
422.9549	0.2417
423.1593	0.2287
423.3637	0.232
423.5681	0.2301
423.7725	0.2267
423.9769	0.2386
424.1812	0.2209
424.3856	0.2246
424.5899	0.2245
424.7942	0.222
424.9985	0.218
425.2028	0.2333
425.4071	0.2185
425.6113	0.2202
425.8156	0.2267
426.0198	0.2119
426.224	0.2268
426.4282	0.2154
426.6324	0.22
426.8366	0.2099
427.0407	0.2196
427.2449	0.2077
427.449	0.2211
427.6531	0.2247
427.8572	0.2112
428.0613	0.2103
428.2654	0.2041
428.4694	0.1953
428.6735	0.1983
428.8775	0.2058
429.0815	0.1978
429.2855	0.1992
429.4895	0.1974
429.6935	0.1909
429.8975	0.1881
430.1014	0.1948
430.3053	0.1965
430.5093	0.1853
430.7132	0.1881
430.9171	0.1885
431.1209	0.193
431.3248	0.1777
431.5286	0.1774
431.7325	0.1933
431.9363	0.1815
432.1401	0.1817
432.3439	0.1819
432.5477	0.1662
432.7514	0.1767
432.9552	0.1661
433.1589	0.1633
433.3627	0.1685
433.5664	0.1628
433.7701	0.1581
433.9737	0.169
434.1774	0.1616
434.3811	0.1541
434.5847	0.1532
434.7883	0.1625
434.9919	0.1494
435.1955	0.1615
435.3991	0.1536
435.6027	0.1464
435.8062	0.1581
436.0098	0.1489
436.2133	0.1487
436.4168	0.1418
436.6203	0.1287
436.8238	0.1358
437.0272	0.14
437.2307	0.1347
437.4341	0.1351
437.6375	0.1376
437.841	0.1222
438.0443	0.1355
438.2477	0.1206
438.4511	0.119
438.6545	0.1284
438.8578	0.1189
439.0611	0.1243
439.2644	0.1179
439.4677	0.1219
439.671	0.1104
439.8743	0.1254
440.0775	0.1159
440.2808	0.109
440.484	0.108
440.6872	0.1093
440.8904	0.0933
441.0936	0.0999
441.2967	0.0926
441.4999	0.1003
441.703	0.0995
441.9062	0.1079
442.1093	0.1051
442.3124	0.1
442.5155	0.0968
442.7185	0.0922
442.9216	0.0917
443.1246	0.0962
443.3276	0.087
443.5307	0.0839
443.7337	0.0807
443.9366	0.0817
444.1396	0.0819
444.3426	0.0812
444.5455	0.083
444.7484	0.0778
444.9513	0.0738
445.1542	0.0817
445.3571	0.0719
445.56	0.0686
445.7628	0.0638
445.9657	0.0674
446.1685	0.0695
446.3713	0.0664
446.5741	0.076
446.7769	0.0746
446.9797	0.0696
447.1824	0.0602
447.3852	0.0485
447.5879	0.0589
447.7906	0.0531
447.9933	0.0566
448.196	0.0544
448.3986	0.0488
448.6013	0.0578
448.8039	0.0643
449.0066	0.0589
449.2092	0.0569
449.4118	0.056
449.6143	0.0534
449.8169	0.0465
450.0195	0.0413
450.222	0.0519
450.4245	0.0525
450.627	0.0471
450.8295	0.0453
451.032	0.0433
451.2345	0.0446
451.4369	0.0438
451.6394	0.045
451.8418	0.0435
452.0442	0.0402
452.2466	0.0357
452.449	0.0444
452.6513	0.0367
452.8537	0.0283
453.056	0.0477
453.2583	0.0344
453.4607	0.0279
453.663	0.0291
453.8652	0.0284
454.0675	0.0403
454.2697	0.0311
454.472	0.0185
454.6742	0.0258
454.8764	0.0407
455.0786	0.0328
455.2808	0.022
455.4829	0.037
455.6851	0.0254
455.8872	0.0234
456.0893	0.0292
456.2915	0.0228
456.4935	0.0447
456.6956	0.0242
456.8977	0.0211
457.0997	0.0261
457.3018	0.0199
457.5038	0.0238
457.7058	0.0279
457.9078	0.0173
458.1098	0.0238
458.3117	0.0303
458.5137	0.0079
458.7156	0.0226
458.9175	0.0245
459.1194	0.0246
459.3213	0.028
459.5232	0.0251
459.725	0.0243
459.9269	0.0165
460.1287	0.0151
460.3305	0.0185
460.5323	0.0195
460.7341	0.0174
460.9359	0.0038
461.1376	0.0121
461.3394	0.0214
461.5411	0.0182
461.7428	0.024
461.9445	0.0166
462.1462	0.0147
462.3479	0.0124
462.5495	0.0237
462.7512	0.0246
462.9528	0.0196
463.1544	0.0101
463.356	0.0083
463.5576	0.018
463.7592	0.0085
463.9607	0.0206
464.1623	0.004
464.3638	0.0036
464.5653	0.0116
464.7668	0.0068
464.9683	0.0075
465.1697	0.0131
465.3712	-0
465.5726	0.0055
465.7741	0.0115
465.9755	0.0104
466.1769	0.0088
466.3782	0.0075
466.5796	0.0093
466.7809	0.0173
466.9823	0.0058
467.1836	0.0157
467.3849	0.0118
467.5862	-0.0018
467.7875	0.0046
467.9887	0.013
468.19	0.0021
468.3912	0.011
468.5924	0.0025
468.7936	0.0022
468.9948	0.0107
469.196	0.0135
469.3972	0.0088
469.5983	0.0063
469.7994	0.0123
470.0006	0.0152
470.2017	0.0063
470.4027	0.0311
470.6038	0.0042
470.8049	0.0084
471.0059	0.0102
471.2069	0.0048
471.408	0.0069
471.6089	0.0085
471.8099	0.017
472.0109	0.0053
472.2119	0.0094
472.4128	0.0046
472.6137	0.0062
472.8146	0.0062
473.0155	0.0158
473.2164	0.012
473.4173	-0.0044
473.6181	-0.0006
473.819	0.0094
474.0198	-0.0017
474.2206	-0.0053
474.4214	0.0069
474.6222	-0.0032
474.8229	0.0015
475.0237	0.0092
475.2244	0.0079
475.4251	0.007
475.6258	-0.0019
475.8265	0.0043
476.0272	0.0021
476.2278	0.007
476.4285	0.0071
476.6291	0.0116
476.8297	0.014
477.0303	0.0097
477.2309	-0.0015
477.4315	0.0152
477.632	-0.0007
477.8326	0.0035
478.0331	0.0132
478.2336	0.0016
478.4341	0.0022
478.6346	0.0083
478.8351	0.0007
479.0355	0.0053
479.236	0.017
479.4364	0.0021
479.6368	0.0035
479.8372	0.0088
480.0376	0.0087
480.2379	0.0134
480.4383	0.0149
480.6386	-0.0074
480.8389	0.0033
481.0392	-0.0019
481.2395	0.0031
481.4398	0.0063
481.6401	0.0084
481.8403	0.0042
482.0405	-0.003
482.2408	0.0142
482.441	0.0093
482.6411	0.0114
482.8413	-0.0043
483.0415	0.0103
483.2416	0.004
483.4417	0.0044
483.6419	0.0043
483.8419	0.0035
484.042	0.0072
484.2421	-0.0019
484.4422	-0.0013
484.6422	0.0053
484.8422	0.0055
485.0422	0.0043
485.2422	0.0032
485.4422	0.0028
485.6422	0.0022
485.8421	0.0016
486.042	0.0052
486.242	-0.0011
486.4419	0.0056
486.6417	-0.0011
486.8416	0.0024
487.0415	0.0003
487.2413	-0.0021
487.4411	0.0028
487.641	-0.0047
487.8408	0.0069
488.0405	0.0062
488.2403	-0.0065
488.4401	0.0051
488.6398	0.0054
488.8395	0.0023
489.0392	0.0126
489.2389	0.0106
489.4386	-0.0003
489.6383	0.0056
489.8379	-0.0023
490.0376	0.0093
490.2372	0.0003
490.4368	0.0005
490.6364	0.0003
490.836	0.0023
491.0355	0.0027
491.2351	0.0045
491.4346	0.0085
491.6341	0.0003
491.8336	-0.0011
492.0331	0.0015
492.2326	0.005
492.432	0.0063
492.6315	0.0049
492.8309	0.0088
493.0303	-0.0019
493.2297	-0.003
493.4291	0.0017
493.6284	0.0128
493.8278	0.0028
494.0271	0.0061
494.2264	-0.0018
494.4257	0.014
494.625	0.0004
494.8243	0.0006
495.0236	0.0112
495.2228	0.0052
495.422	0.0042
495.6213	-0.0011
495.8205	0.0149
496.0196	0.0055
496.2188	0.0038
496.418	0.0001
496.6171	0.0036
496.8162	0.0096
497.0153	0.0089
497.2144	0.0077
497.4135	0.0017
497.6126	0.0075
497.8116	-0.0035
498.0107	0.0009
498.2097	0.0089
498.4087	0.0048
498.6077	-0.0073
498.8067	0.0019
499.0056	-0.0023
499.2046	0.0032
499.4035	-0.0001
499.6024	-0.0071
499.8013	0.0065
500.0002	0.0101
500.199	0.0094
500.3979	-0.002
500.5967	0.0009
500.7956	0.0073
500.9944	0.0018
501.1932	0.0112
501.3919	0.01
501.5907	0.0101
501.7895	-0.0008
501.9882	-0.0038
502.1869	0.0031
502.3856	-0.0006
502.5843	0.0039
502.783	0.0023
502.9816	0.0122
503.1803	0.0031
503.3789	-0.0012
503.5775	0.0065
503.7761	0
503.9747	0.0126
504.1732	-0.0004
504.3718	0.0163
504.5703	0.0041
504.7689	-0.0026
504.9674	0.0031
505.1658	0.0012
505.3643	0.004
505.5628	0.0108
505.7612	0.0096
505.9597	-0.0028
506.1581	0.0026
506.3565	0.0047
506.5549	0.0068
506.7532	-0.0033
506.9516	0.0038
507.1499	0.0057
507.3482	0.0033
507.5465	0.0115
507.7448	0.0044
507.9431	0.0066
508.1414	-0.0049
508.3396	0.0025
508.5379	0.0032
508.7361	-0.0006
508.9343	0.0074
509.1325	0.0111
509.3306	0.0049
509.5288	-0.0033
509.7269	0.0096
509.9251	0.0152
510.1232	0.0031
510.3213	0.004
510.5193	0.0009
510.7174	-0.0031
510.9154	0.0096
511.1135	0.003
511.3115	0.0019
511.5095	0.004
511.7075	0.002
511.9055	0.0045
512.1034	0.0076
512.3014	0.0048
512.4993	0.0029
512.6972	-0
512.8951	0.0062
513.093	0.0027
513.2908	0.0097
513.4887	0.0102
513.6865	0.0011
513.8844	0.012
514.0822	-0.0016
514.2799	-0.0055
514.4777	-0.0002
514.6755	0.0014
514.8732	0.0052
515.0709	0.0098
515.2687	-0.0023
515.4664	0.0081
515.664	0.0121
515.8617	0.0099
516.0594	0.0098
516.257	-0.0027
516.4546	0.0154
516.6522	-0.001
516.8498	0.0003
517.0474	0.0075
517.2449	0.0016
517.4425	-0.0005
517.64	0.0077
517.8375	0.0062
518.035	0.001
518.2325	0.0014
518.43	0.001
518.6274	0.001
518.8249	-0.0008
519.0223	0.0147
519.2197	0.0038
519.4171	-0.0017
519.6145	0.0005
519.8118	-0.012
520.0092	0.0007
520.2065	0.0072
520.4038	0.008
520.6011	0.0128
520.7984	0.0098
520.9956	0.0163
521.1929	0.0111
521.3901	0.0056
521.5874	0.0095
521.7846	-0.0044
521.9818	0.0087
522.1789	-0.0054
522.3761	0.0217
522.5732	0.0093
522.7704	-0.0043
522.9675	-0.0076
523.1646	-0.0029
523.3617	0.0102
523.5587	0.003
523.7558	0.0026
523.9528	0.0073
524.1498	0.0037
524.3468	0.0081
524.5438	0.0027
524.7408	-0.0016
524.9378	0.0051
525.1347	0.0126
525.3316	0.0074
525.5285	0.0192
525.7254	0.0082
525.9223	0.0144
526.1192	0.0066
526.316	0.0164
526.5129	0.0031
526.7097	0.0031
526.9065	0.0073
527.1033	0.0084
527.3	0.0099
527.4968	0.0182
527.6935	-0.0064
527.8903	-0.0017
528.087	0.0033
528.2837	0.0058
528.4804	-0.0032
528.677	0.0181
528.8737	0.0058
529.0703	-0.0069
529.2669	0.0172
529.4635	-0.0008
529.6601	-0.0062
529.8567	-0.0017
530.0532	0.0051
530.2498	-0.0017
530.4463	-0.0124
530.6428	0.0115
530.8393	0.0181
531.0358	0.0047
531.2322	0
531.4287	0.0047
531.6251	-0.0091
531.8215	0.0037
532.0179	0.0023
532.2143	0.0012
532.4107	0.0047
532.607	0.0013
532.8034	0.0032
532.9997	-0.0058
533.196	0.0011
533.3923	0.006
533.5886	0.008
533.7848	-0.0045
533.9811	0.0086
534.1773	0.0016
534.3735	0.0042
534.5697	0.0024
534.7659	0.0014
534.9621	0.0086
535.1582	0.006
535.3544	0.0018
535.5505	0.0006
535.7466	0.0019
535.9427	0.0009
536.1387	0.0007
536.3348	0.0022
536.5308	0.0014
536.7269	0.0063
536.9229	-0.003
537.1189	0.0019
537.3148	0.0049
537.5108	0.0047
537.7068	0.0166
537.9027	-0.0066
538.0986	0.0061
538.2945	0.0026
538.4904	-0
538.6863	0.0034
538.8821	0.0038
539.078	-0.002
539.2738	0.0027
539.4696	-0.0054
539.6654	0.0055
539.8611	0.0071
540.0569	0.0004
540.2526	0.017
540.4484	-0.0044
540.6441	0.014
540.8398	0.0112
541.0355	-0.0028
541.2311	0.0049
541.4268	0.0145
541.6224	0.0094
541.818	0.0056
542.0136	0.0058
542.2092	0.0077
542.4048	0.0037
542.6003	0.002
542.7959	0.0073
542.9914	0.0063
543.1869	0.0068
543.3824	0.0057
543.5779	0.0109
543.7734	0.0115
543.9688	-0.0011
544.1642	-0.0053
544.3596	0.0036
544.555	-0.0035
544.7504	0.0031
544.9458	0.0046
545.1411	0.0003
545.3365	0.0084
545.5318	0.0085
545.7271	0.0061
545.9224	-0.0026
546.1177	0.0046
546.3129	0.0078
546.5081	-0.0075
546.7034	0.0021
546.8986	0.0048
547.0938	0.0064
547.289	0.01
547.4841	0.0095
547.6793	0.0021
547.8744	0.0098
548.0695	0.0018
548.2646	0.0087
548.4597	0
548.6548	0.0161
548.8498	0.0103
549.0448	0.0036
549.2399	0.0034
549.4349	0.001
549.6298	0.0176
549.8248	0.0009
550.0198	0.0073
550.2147	0.0122
550.4096	-0.0085
550.6045	0.0023
550.7994	0.0061
550.9943	-0.0037
551.1892	-0.0043
551.384	-0.0035
551.5788	0.0054
551.7737	0.0046
551.9685	0.0015
552.1632	0.0008
552.358	0.008
552.5528	0.0102
552.7475	0.0019
552.9422	0.0077
553.1369	0.0102
553.3316	0.0095
553.5263	0.0069
553.7209	0.0093
553.9156	0.0022
554.1102	0.0016
554.3048	-0.0041
554.4994	-0.0058
554.694	0.0158
554.8885	0.0082
555.0831	0.0123
555.2776	0.0068
555.4721	0.0069
555.6666	0.0077
555.8611	0.005
556.0555	0.0033
556.25	0.0057
556.4444	0.008
556.6388	-0.004
556.8332	0.0088
557.0276	0.0057
557.222	-0.0038
557.4163	0.0085
557.6107	-0.0038
557.805	0.0005
557.9993	0.0052
558.1936	0.0032
558.3879	0.0094
558.5821	0.001
558.7764	-0.0151
558.9706	-0.0077
559.1648	0.0077
559.359	-0.0022
559.5532	-0.0019
559.7473	-0.0087
559.9415	-0.0019
560.1356	0.0131
560.3297	0.0024
560.5238	0.0123
560.7179	0.0043
560.9119	0.0037
561.106	-0.0011
561.3	0.0076
561.494	-0.0025
561.688	-0.0024
561.882	-0.0004
562.076	-0.0073
562.2699	0.01
562.4639	0.016
562.6578	0.0023
562.8517	0.0039
563.0456	0.0085
563.2395	0.0027
563.4333	0.0101
563.6272	0.0018
563.821	0.0036
564.0148	0.0011
564.2086	0.0031
564.4024	0.0057
564.5961	0.0084
564.7899	0.0161
564.9836	0.0056
565.1773	0.0141
565.371	0.0014
565.5647	-0.0009
565.7584	0.0126
565.952	-0.0049
566.1456	0.0018
566.3393	-0.0011
566.5329	-0.0007
566.7264	0.0071
566.92	0.0004
567.1136	-0.0024
567.3071	-0.0052
567.5006	0.0071
567.6941	-0.0008
567.8876	-0.0024
568.0811	0.0176
568.2745	-0.0039
568.468	-0.0025
568.6614	0.0042
568.8548	-0.0003
569.0482	0.0113
569.2416	0.0083
569.4349	0.005
569.6283	0.0065
569.8216	0.0065
570.0149	0.0038
570.2082	0.0048
570.4015	0.0013
570.5947	0.0062
570.788	0.0079
570.9812	0.0002
571.1744	0.0078
571.3676	0.0035
571.5608	0.0003
571.754	0.0067
571.9471	0.0066
572.1402	0.0073
572.3333	0.0032
572.5264	0.004
572.7195	-0.0004
572.9126	-0.0018
573.1057	0.0026
573.2987	0.0023
573.4917	0.0008
573.6847	0.0002
573.8777	0.0034
574.0707	0.007
574.2636	0.0045
574.4566	0.0014
574.6495	0.0027
574.8424	0.0008
575.0353	0.0067
575.2281	0.0058
575.421	-0.0029
575.6138	0.0047
575.8067	0.0034
575.9995	0.002
576.1923	0.0027
576.385	0.0037
576.5778	0.0051
576.7706	0.0016
576.9633	0.005
577.156	-0.0021
577.3487	0.0037
577.5414	0.0008
577.734	-0.0024
577.9267	0.0042
578.1193	0.0052
578.3119	-0.0006
578.5045	0.0013
578.6971	0.0013
578.8897	0.0006
579.0822	0.0037
579.2747	0.0032
579.4673	0.0024
579.6598	0.0036
579.8522	0.0015
580.0447	0.005
580.2372	0.0053
580.4296	0.0057
580.622	0.0021
580.8144	0.0028
581.0068	0.0017
581.1992	0.0015
581.3915	0.0001
581.5839	0.0017
581.7762	0.002
581.9685	0.0029
582.1608	-0.0008
582.353	-0.0001
582.5453	0.0039
582.7375	0.0019
582.9298	-0.0012
583.122	0.0019
583.3142	0.0087
583.5063	0.0048
583.6985	0.0004
583.8906	-0.0002
584.0827	0.0051
584.2749	-0.0026
584.4669	0.0029
584.659	0.0084
584.8511	0.0065
585.0431	0.0037
585.2352	-0.0007
585.4272	0.0006
585.6192	0.002
585.8111	0.0011
586.0031	-0.002
586.195	0.0024
586.387	-0.0025
586.5789	0.0044
586.7708	0.0063
586.9627	0.0027
587.1545	0.0009
587.3464	-0.0007
587.5382	0.0014
587.73	0.0064
587.9218	0.0002
588.1136	-0.0036
588.3053	0.002
588.4971	-0.0015
588.6888	-0.004
588.8805	0.0086
589.0722	0.0055
589.2639	0.0012
589.4556	0.0038
589.6472	0.008
589.8389	0.0042
590.0305	-0.0009
590.2221	0.0062
590.4137	0.003
590.6052	-0.0023
590.7968	0.006
590.9883	-0.0015
591.1798	0.0063
591.3713	0.0007
591.5628	0.0002
591.7543	0.0017
591.9458	0.004
592.1372	0.0025
592.3286	-0.0008
592.52	0.0029
592.7114	0.0028
592.9028	0.0044
593.0941	0.0028
593.2855	-0.0007
593.4768	0.0052
593.6681	0.0026
593.8594	0.0048
594.0506	0.0074
594.2419	0.0064
594.4331	0
594.6244	-0.0031
594.8156	-0.0025
595.0067	-0.0026
595.1979	-0.0023
595.3891	0.0016
595.5802	0.0082
595.7713	0.0027
595.9624	0.0127
596.1535	0.0057
596.3446	0.0023
596.5357	0.0083
596.7267	0.0028
596.9177	-0.0019
597.1087	0.0029
597.2997	0.0069
597.4907	-0.0048
597.6817	0.0042
597.8726	0.0073
598.0635	-0.0031
598.2544	0.0045
598.4453	-0.0005
598.6362	0.0037
598.827	-0.0015
599.0179	-0.0001
599.2087	0.0108
599.3995	0.0102
599.5903	0.0037
599.7811	0.0064
599.9718	0.0021
600.1626	0
600.3533	-0.0016
600.544	0.0016
600.7347	0.0053
600.9254	0.0075
601.116	0.005
601.3067	-0.0034
601.4973	0.0062
601.6879	0.0041
601.8785	0.0055
602.0691	-0.0013
602.2596	0.0039
602.4502	0.0103
602.6407	0
602.8312	0.0041
603.0217	0.003
603.2122	0.0012
603.4027	0.0043
603.5931	0.0041
603.7835	0.0109
603.9739	0.0017
604.1643	0.0066
604.3547	0.0066
604.5451	0.0043
604.7354	0.0035
604.9257	0.0005
605.116	0.0029
605.3063	0.0056
605.4966	-0.002
605.6869	0.0041
605.8771	0.0026
606.0673	0.0021
606.2575	0.0017
606.4477	0.0081
606.6379	0.0009
606.8281	0.0026
607.0182	0.0011
607.2083	-0
607.3985	0.0017
607.5885	0.0027
607.7786	0.0027
607.9687	0.0012
608.1587	0.0076
608.3488	0.0051
608.5388	-0.0041
608.7288	-0.0007
608.9187	0.0051
609.1087	0.0042
609.2986	0.0085
609.4886	0.0041
609.6785	0.0035
609.8684	-0.0017
610.0582	0.0037
610.2481	-0.0045
610.4379	0.0125
610.6278	0.002
610.8176	0.0118
611.0074	-0.0007
611.1971	0.0049
611.3869	0.0022
611.5766	-0.0042
611.7664	0.0084
611.9561	0.0072
612.1458	0.0086
612.3354	0.0032
612.5251	0.0013
612.7147	0.0037
612.9044	0.0032
613.094	0.0058
613.2836	-0.0022
613.4731	-0.0031
613.6627	0.0118
613.8522	0.0008
614.0417	0.008
614.2313	0.0025
614.4207	0.0027
614.6102	0.0059
614.7997	0.0102
614.9891	0.0082
615.1785	-0.0067
615.3679	0.0074
615.5573	0.005
615.7467	-0.0013
615.9361	0.0041
616.1254	0.0077
616.3147	0.0067
616.504	0.0032
616.6933	0.0062
616.8826	0.0052
617.0718	0.006
617.2611	0.0003
617.4503	-0.0015
617.6395	0.0022
617.8287	0.0069
618.0179	0.0079
618.207	0.0084
618.3961	-0.0076
618.5853	0.0021
618.7744	0.0072
618.9634	0.0124
619.1525	0.002
619.3416	-0.0048
619.5306	0.0074
619.7196	0.0154
619.9086	-0.0038
620.0976	-0.0031
620.2866	0.0131
620.4755	-0.0104
620.6645	0.0068
620.8534	0.0048
621.0423	0.0045
621.2312	-0.0013
621.42	-0.0059
621.6089	-0.0031
621.7977	0.0101
621.9865	-0.0032
622.1753	-0.0033
622.3641	-0.01
622.5529	-0.0047
622.7416	-0.0011
622.9303	0.0027
623.1191	-0.0013
623.3078	-0.0015
623.4964	0.0072
623.6851	0.0043
623.8737	-0.0011
624.0624	-0.0123
624.251	0.0023
624.4396	0.0037
624.6282	0.0094
624.8167	0.0065
625.0053	0.0146
625.1938	0.0036
625.3823	0.008
625.5708	0.0051
625.7593	0.0016
625.9477	0.0118
626.1362	0.0073
626.3246	0.0056
626.513	-0.0035
626.7014	0.0025
626.8898	0.0127
627.0781	-0.0003
627.2665	0.0105
627.4548	0.0006
627.6431	0.0049
627.8314	0.0215
628.0197	0.0138
628.2079	0.0043
628.3962	0.0057
628.5844	-0.0042
628.7726	-0.0046
628.9608	-0.0067
629.1489	0.0051
629.3371	-0.0174
629.5252	0.0045
629.7134	-0.0108
629.9015	0.0132
630.0895	-0.0197
630.2776	0.0004
630.4657	0.0025
630.6537	0.0131
630.8417	0.0068
631.0297	0.0064
631.2177	-0.007
631.4057	0.0125
631.5936	-0.0053
631.7815	0.0103
631.9695	0.0214
632.1574	0.0081
632.3452	0.0123
632.5331	0.0057
632.7209	0.012
632.9088	0.0066
633.0966	0.0195
633.2844	0.0042
633.4722	0.0014
633.6599	0.029
633.8477	0.0056
634.0354	0.0094
634.2231	0.0053
634.4108	0.002
634.5985	-0.0014
634.7861	-0.0046
634.9738	-0.0079
635.1614	-0.0016
635.349	-0.0064
635.5366	0.0087
635.7242	0.0029
635.9117	0.0029
636.0993	0.0114
636.2868	-0.0009
636.4743	0.0032
636.6618	-0.0036
636.8492	0.0015
637.0367	0.0026
637.2241	0.0032
637.4115	0.0278
637.5989	0.0042
637.7863	0.0295
637.9737	-0.006
638.161	0.0095
638.3484	-0.0079
638.5357	-0.0039
638.723	0.0106
638.9103	-0.0191
639.0975	0.0033
639.2848	0.0118
639.472	0.0078
639.6592	-0.0136
639.8464	0.0003
640.0336	0.0066
640.2208	-0.0005
640.4079	-0.0164
640.595	0.0032
640.7821	0.0246
640.9692	-0.0122
641.1563	0.0111
641.3434	0.0083
641.5304	0.0072
641.7174	0.0189
641.9044	-0.0044
642.0914	0.0179
642.2784	0.0085
642.4653	0.0105
642.6523	0.0094
642.8392	0.0104
643.0261	-0.0023
643.213	-0.0025
643.3999	0.0122
643.5867	0.0038
643.7735	-0.0018
643.9604	0.0047
644.1472	0.0008
644.3339	-0.0106
644.5207	-0.0075
644.7075	-0.0001
644.8942	0.0013
645.0809	-0.0111
645.2676	-0.0112
645.4543	-0.0066
645.6409	0.0287
645.8276	0.0084
646.0142	-0.0023
646.2008	0.0115
646.3874	0.0133
646.574	-0.0056
646.7605	-0.0044
646.9471	-0.0051
647.1336	0.0013
647.3201	0.0031
647.5066	0.0047
647.6931	-0.0082
647.8795	0.0164
648.0659	0.0043
648.2524	0.0121
648.4388	0.0002
648.6252	0.0172
648.8115	0.0075
648.9979	0.0293
649.1842	0.0136
649.3705	0.0093
649.5568	-0.0133
649.7431	-0.0074
649.9294	-0.0118
650.1156	-0.0107
650.3018	0.0144
650.488	0.0186
650.6742	0.0083
650.8604	0.0119
651.0466	-0.0091
651.2327	0.0081
651.4188	0.0087
651.6049	0.0192
651.791	0.0073
651.9771	0.0177
652.1632	0.0163
652.3492	0.0036
652.5352	0.0026
652.7212	-0.0061
652.9072	0.0011
653.0932	0.0082
653.2791	0.0153
653.465	0.0102
653.651	0.0086
653.8369	0.0013
654.0227	0.0029
654.2086	0.0082
654.3944	0.0156
654.5803	-0.0026
654.7661	-0.0026
654.9519	-0.0032
655.1377	0.0001
655.3234	0.0001
655.5092	0.0001
655.6949	0.0001
655.8806	0.0001
656.0663	0.0001
656.2519	0.0001
656.4376	0.0001
656.6232	0.0001
656.8088	0.0001
656.9945	0.0001
657.18	0.0001
657.3656	0.0001
657.5511	0.0001
657.7367	0.0001
657.9222	0.0001
658.1077	0.0001
658.2932	0.0001
658.4786	0.0001
658.6641	0.0001
658.8495	0.0001
659.0349	0.0001
659.2203	0.0001
659.4057	0.0001
659.591	0.0754
659.7764	0.0259
659.9617	0.0056
660.147	0.0117
660.3323	0.0009
660.5176	-0.0021
660.7028	-0.0117
660.888	-0.0022
661.0733	0.0089
661.2585	-0.0065
661.4436	0.007
661.6288	0.0078
661.8139	0.0098
661.9991	-0.011
662.1842	-0.0093
662.3693	0.0009
662.5544	-0.0048
662.7394	0.0178
662.9245	0.0098
663.1095	-0.0141
663.2945	0.0001
663.4795	-0.004
663.6644	0.0291
663.8494	0.0101
664.0343	-0.0022
664.2193	0.0009
664.4042	0.0066
664.589	0.0146
664.7739	0.0035
664.9587	-0.0087
665.1436	-0.0148
665.3284	0.0006
665.5132	-0.0242
665.698	-0.0031
665.8827	0.0223
666.0675	-0.019
666.2522	0.0263
666.4369	0.0024
666.6216	0.0227
666.8063	0.0083
666.9909	0.0104
667.1756	0.0142
667.3602	0.0121
667.5448	0.0174
667.7294	0.0141
667.9139	0.02
668.0985	0.0111
668.283	0.02
668.4675	0.0071
668.652	0.0096
668.8365	-0.0196
669.0209	0.0109
669.2054	-0.0018
669.3898	0.0059
669.5742	0.0276
669.7586	0.0111
669.943	0.0023
670.1273	-0.0074
670.3117	0.0239
670.496	0.0073
670.6803	0.0063
670.8646	-0.0032
671.0488	0.0052
671.2331	-0.0142
671.4173	0.0221
671.6015	0.0028
671.7857	0.0046
671.9699	0.005
672.1541	0.0011
672.3382	-0.0034
672.5223	0.006
672.7064	-0.008
672.8905	-0.0034
673.0746	-0.0049
673.2587	0.0528
673.4427	0.0145
673.6267	0.0102
673.8107	0.0241
673.9947	0.0073
674.1787	0.0162
674.3626	0.0161
674.5465	0.003
674.7304	0.0083
674.9143	-0.0106
675.0982	-0.0271
675.2821	0.0077
675.4659	-0.0096
675.6497	0.022
675.8335	-0.0046
676.0173	-0.0066
676.2011	0.0147
676.3849	0.0239
676.5686	0.0238
676.7523	-0.0028
676.936	0.0109
677.1197	-0.0067
677.3034	0.025
677.487	0.0131
677.6706	-0.0188
677.8542	0.0113
678.0378	0.015
678.2214	0.0078
678.405	0.0113
678.5885	0.005
678.772	-0.0023
678.9555	0.0064
679.139	0.0005
679.3225	0.0087
679.5059	-0.0045
679.6894	0.0094
679.8728	-0.004
680.0562	0.0087
680.2395	-0.024
680.4229	0.0049
680.6062	0.0107
680.7896	-0.0016
680.9729	0.0122
681.1562	0.0038
681.3394	-0.006
681.5227	0.0209
681.7059	0.0107
681.8891	-0.0012
682.0723	-0.0049
682.2555	0.0083
682.4387	0.0037
682.6218	0.0189
682.805	-0.0016
682.9881	0.0312
683.1712	0.0141
683.3542	0.022
683.5373	-0.0064
683.7203	0.0045
683.9034	0.0043
684.0864	-0.0125
684.2694	0.0047
684.4523	0.0173
684.6353	0.004
684.8182	-0.0039
685.0011	0.0117
685.184	0.0151
685.3669	0.0249
685.5498	-0.0031
685.7326	0.0016
685.9154	-0.0003
686.0982	0.0033
686.281	-0.0021
686.4638	0.0022
686.6465	0.0167
686.8293	-0.0143
687.012	0.0036
687.1947	0.0056
687.3774	0.0018
687.56	-0.0166
687.7427	0.025
687.9253	-0.006
688.1079	0.0013
688.2905	-0.0097
688.4731	0.0194
688.6556	0.0004
688.8382	-0.0164
689.0207	0.0141
689.2032	0.0066
689.3857	0.0124
689.5681	-0.0092
689.7506	0.0132
689.933	-0.0029
690.1154	0.0013
690.2978	-0.0032
690.4802	0.0312
690.6626	0.009
690.8449	0.0176
691.0272	0.0003
691.2095	-0.0122
691.3918	-0.0016
691.5741	0.0163
691.7563	0.015
691.9386	0.0099
692.1208	0.006
692.303	-0.0071
692.4852	0.0013
692.6673	0.0136
692.8495	-0.0076
693.0316	-0.0091
693.2137	0.029
693.3958	0.0031
693.5778	0.0034
693.7599	-0.0002
693.9419	-0.0019
694.1239	0.0098
694.3059	0.0089
694.4879	0.0148
694.6699	-0.003
694.8518	-0.0042
695.0337	0.0064
695.2157	0.0246
695.3975	-0.0011
695.5794	0.0009
695.7613	-0.005
695.9431	-0.0065
696.1249	-0.0058
696.3067	-0.0105
696.4885	0.0108
696.6703	-0.0009
696.852	-0.014
697.0337	0.0135
697.2154	0.0176
697.3971	0.0029
697.5788	0.0069
697.7605	-0.0066
697.9421	0.0058
698.1237	0.0124
698.3053	-0.0114
698.4869	-0.0078
698.6685	-0.0073
698.85	0.0313
699.0315	-0.0088
699.213	0.0256
699.3945	0.0132
699.576	0.0344
699.7575	0.0299
699.9389	-0.0026
700.1203	-0.0018
700.3017	0.0097
700.4831	0.0333
700.6645	0.007
700.8458	-0.0069
701.0271	0.0344
701.2084	0.0061
701.3897	-0.005
701.571	-0.0073
701.7523	-0.0101
701.9335	-0.0023
702.1147	0.0203
702.2959	-0.0005
702.4771	0.0243
702.6583	-0.0105
702.8394	-0.0295
703.0205	0.02
703.2016	-0.0133
703.3827	-0.0025
703.5638	0.0009
703.7449	0.0093
703.9259	0.0093
704.1069	-0.0175
704.2879	0.0029
704.4689	0.0028
704.6499	0.0025
704.8308	0.025
705.0117	-0.0044
705.1927	0.0107
705.3735	0.0031
705.5544	0.0148
705.7353	0.0108
705.9161	-0.0231
706.0969	0.0016
706.2777	0.0049
706.4585	-0.0165
706.6393	0.0089
706.82	0.0178
707.0007	-0.0003
707.1815	-0.0098
707.3621	0.0209
707.5428	0.0235
707.7235	-0.0116
707.9041	0.0074
708.0847	0.0064
708.2653	0.0214
708.4459	0.0076
708.6265	-0.0211
708.807	0.016
708.9875	0.0057
709.168	0.003
709.3485	-0.0053
709.529	0.0069
709.7095	-0.018
709.8899	0.0041
710.0703	0.0105
710.2507	0.0182
710.4311	-0.0271
710.6115	0.0256
710.7918	0.0254
710.9721	0.0005
711.1524	0.011
711.3327	-0.0335
711.513	0.0022
711.6932	0.0019
711.8735	-0.0085
712.0537	-0.0091
712.2339	0.0289
712.4141	0.0204
712.5942	-0.0131
712.7744	0.0267
712.9545	0.0204
713.1346	0.0236
713.3147	0.0176
713.4947	0.0023
713.6748	0.0185
713.8548	-0.0015
714.0348	0.0192
714.2148	0.0083
714.3948	0.0161
714.5748	0.0098
714.7547	0.0027
714.9346	0.0227
715.1145	0.0058
715.2944	-0.034
715.4743	0.0381
715.6541	-0.0129
715.834	0.0067
716.0138	0.0059
716.1936	-0.0056
716.3733	0.015
716.5531	0.0212
716.7328	0.022
716.9126	0.0119
717.0923	-0.0239
717.2719	0.0136
717.4516	-0.0014
717.6312	0.0045
717.8109	0.0316
717.9905	0.0216
718.1701	0.0079
718.3496	-0.0034
718.5292	0.0058
718.7087	-0.0002
718.8882	0.0212
719.0677	0.0053
719.2472	-0.0134
719.4267	-0.0035
719.6061	-0.0207
719.7856	0.0309
719.965	0.0307
720.1443	-0.019
720.3237	0.0025
720.5031	0.0157
720.6824	0.022
720.8617	-0.0006
721.041	0.0196
721.2203	0.0059
721.3995	-0.0115
721.5788	0.0109
721.758	0.018
721.9372	-0.007
722.1164	-0.0066
722.2956	-0.0085
722.4747	-0.0011
722.6538	0.0118
722.8329	0.0071
723.012	0.0118
723.1911	-0.0209
723.3702	0.0176
723.5492	0.0204
723.7282	0.0006
723.9072	0.0062
724.0862	0.0212
724.2652	-0.0011
724.4441	-0.0015
724.623	0.0002
724.8019	0.0081
724.9808	0.014
725.1597	0.0029
725.3385	-0.0109
725.5174	0.0059
725.6962	0.0218
725.875	0.0018
726.0538	0.0117
726.2325	0.0275
726.4112	-0.0113
726.59	-0.0135
726.7687	-0.0039
726.9474	0.0083
727.126	0.0215
727.3047	-0.0269
727.4833	0.0182
727.6619	-0.002
727.8405	-0.0063
728.0191	0.0078
728.1976	-0.0076
728.3762	0.0162
728.5547	0.0075
728.7332	0.026
728.9116	0.0146
729.0901	0.0084
729.2686	0.0036
729.447	-0.0071
729.6254	-0.0011
729.8038	0.0122
729.9821	-0.0171
730.1605	-0.0234
730.3388	0.0086
730.5171	0.0083
730.6954	-0.0278
730.8737	0.0066
731.0519	0.0081
731.2302	0.013
731.4084	-0.0105
731.5866	0.0068
731.7648	0.0172
731.9429	0.0176
732.1211	0.0019
732.2992	0.0074
732.4773	-0.0066
732.6554	-0.0097
732.8335	0.0151
733.0115	0.0097
733.1896	-0.0172
733.3676	0.0036
733.5456	-0.0116
733.7235	-0.0163
733.9015	0.0073
734.0794	-0.0049
734.2574	-0.0223
734.4353	0.0145
734.6131	0.0224
734.791	-0.0123
734.9689	-0.015
735.1467	-0.0217
735.3245	0.0221
735.5023	-0.0031
735.68	0.007
735.8578	0.0143
736.0355	0.015
736.2132	0.0187
736.3909	0.0063
736.5686	-0.0072
736.7463	-0.0251
736.9239	-0.0004
737.1015	-0.0037
737.2791	0.0081
737.4567	0.0185
737.6343	-0.0197
737.8118	0.0233
737.9894	-0.0096
738.1669	-0.0002
738.3444	0.059
738.5218	-0.0275
738.6993	0.0003
738.8767	0.0039
739.0541	-0.011
739.2315	-0.0007
739.4089	0.016
739.5863	0.015
739.7636	-0.0074
739.9409	-0.0031
740.1182	-0.0142
740.2955	0.018
740.4728	0.0081
740.65	0.003
740.8272	0.0157
741.0044	0.0013
741.1816	0.014
741.3588	-0.0073
741.5359	-0.0048
741.7131	0.0215
741.8902	-0.0015
742.0673	-0.0128
742.2444	0.027
742.4214	0.0124
742.5985	0.012
742.7755	-0.0037
742.9525	-0.0273
743.1295	-0.0068
743.3064	-0.0032
743.4834	0.0027
743.6603	0.0444
743.8372	-0.0294
744.0141	0.0467
744.191	0.0218
744.3678	-0.0368
744.5446	0.0139
744.7215	0.0372
744.8982	-0.0007
745.075	0.04
745.2518	0.0476
745.4285	0.0185
745.6052	-0.0223
745.7819	0.0154
745.9586	-0.0175
746.1353	0.0028
746.3119	0.003
746.4885	0.0272
746.6651	0.0093
746.8417	-0.0176
747.0183	0.019
747.1948	0.0187
747.3714	0.0145
747.5479	0.0387
747.7244	-0.0043
747.9008	-0.0113
748.0773	0.039
748.2537	0.0002
748.4301	0.0335
748.6065	-0.0074
748.7829	-0.0174
748.9593	0.0009
749.1356	0.0187
749.3119	0.002
749.4882	0.0075
749.6645	0.0077
749.8408	0.0135
750.017	0.0081
750.1933	-0.0092
750.3695	0.0326
750.5457	-0.0184
750.7218	-0.0127
750.898	-0.0144
751.0741	0.0101
751.2502	0.0066
751.4263	-0.0114
751.6024	-0.0076
751.7784	-0.014
751.9545	-0.014
752.1305	0.0055
752.3065	-0.0185
752.4825	-0.0113
752.6584	0.0069
752.8344	-0.0006
753.0103	-0.014
753.1862	0.0259
753.3621	-0.0054
753.5379	-0.0058
753.7138	0.0153
753.8896	0.0119
754.0654	0.0005
754.2412	0.0207
754.417	0.0264
754.5927	0.008
754.7685	-0.0043
754.9442	0.0274
755.1199	0.0185
755.2956	0.0217
755.4712	-0.0043
755.6469	0.0036
755.8225	0.0035
755.9981	0.0042
756.1736	-0.0062
756.3492	0.0109
756.5248	0.0012
756.7003	-0.0075
756.8758	0.0089
757.0513	0.0098
757.2267	0.0018
757.4022	-0.0109
757.5776	0.0071
757.753	0.0216
757.9284	0.0003
758.1038	0.033
758.2791	0.0082
758.4545	-0.0316
758.6298	-0.0057
758.8051	0.013
758.9803	0.0071
759.1556	0.0031
759.3308	-0.0093
759.506	0.0072
759.6812	-0.004
759.8564	-0.0084
760.0316	-0.016
760.2067	0.0169
760.3819	-0.0025
760.557	0.0054
760.732	-0.0081
760.9071	0.0122
761.0821	-0.0062
761.2572	0.0065
761.4322	-0.0019
761.6072	-0.0109
761.7821	-0.02
761.9571	-0.0045
762.132	-0.0017
762.3069	0.0354
762.4818	0.0109
762.6567	-0.0135
762.8316	0.0196
763.0064	0.0079
763.1812	0.0076
763.356	-0.0241
763.5308	0.03
763.7055	-0.013
763.8803	-0.0004
764.055	0.0034
764.2297	-0.0152
764.4044	-0.0089
764.579	0.0026
764.7537	0.0015
764.9283	0.0089
765.1029	0.0037
765.2775	-0.0056
765.4521	0.0055
765.6266	-0.0061
765.8011	0.016
765.9756	0.0074
766.1501	-0.0147
766.3246	0.0268
766.4991	0.0065
766.6735	0.0464
766.8479	0.0182
767.0223	0.0063
767.1967	-0.0087
767.371	0.008
767.5454	0.0302
767.7197	0.0342
767.894	-0.0058
768.0683	0.0166
768.2425	-0.0092
768.4168	0.0116
768.591	0.0209
768.7652	-0.0081
768.9394	-0.021
769.1135	-0.021
769.2877	0.0155
769.4618	0.0134
769.6359	-0.0122
769.81	0.0303
769.984	0.0085
770.1581	0.0073
770.3321	0.0116
770.5061	0.0016
770.6801	0.0137
770.8541	0.0078
771.028	0.0241
771.202	0.0166
771.3759	-0.0018
771.5498	0.0074
771.7236	0.0056
771.8975	0.0043
772.0713	-0.0025
772.2451	-0.0022
772.4189	0.0066
772.5927	-0.0184
772.7665	-0.0131
772.9402	0.0362
773.1139	0.0183
773.2876	-0.0003
773.4613	-0.0054
773.635	0.0451
773.8086	0.0048
773.9822	0.0118
774.1558	0.045
774.3294	-0.0078
774.503	-0.0349
774.6765	0.0546
774.8501	-0.0092
775.0236	-0.0025
775.1971	-0.0256
775.3705	-0.0127
775.544	-0.0291
775.7174	0.0119
775.8908	0.0173
776.0642	0.0426
776.2376	-0.0013
776.4109	0.0522
776.5843	-0.0302
776.7576	-0.0105
776.9309	0.0096
777.1041	-0.0136
777.2774	0.002
777.4506	0.0223
777.6238	-0.004
777.797	0.0212
777.9702	0.0102
778.1434	-0.0155
778.3165	0.0153
778.4896	-0.0295
778.6627	-0.0019
778.8358	-0.0061
779.0089	-0.0254
779.1819	0.0389
779.3549	0.0156
779.5279	0.0075
779.7009	0.0719
779.8739	0.0644
780.0468	0.022
780.2197	0.0056
780.3926	-0.0233
780.5655	0.0089
780.7384	0.0044
780.9112	0.0126
781.0841	-0.0272
781.2569	0.0262
781.4297	0.0173
781.6024	0.0193
781.7752	0.0438
781.9479	0.0298
782.1206	-0.0035
782.2933	0.0211
782.466	0.0546
782.6386	-0.0105
782.8113	-0.0003
782.9839	0.0313
783.1565	-0.0003
783.329	-0.0015
783.5016	0.0054
783.6741	-0.0148
783.8466	0.0529
784.0191	0.0271
784.1916	-0.0197
784.3641	0.0014
784.5365	-0.0042
784.7089	-0.0264
784.8813	0.0674
785.0537	0.0242
785.2261	0.0192
785.3984	-0.0079
785.5707	0.0018
785.743	0.0479
785.9153	0.0215
786.0876	-0.0248
786.2598	-0.0165
786.432	-0.0326
786.6042	0.0678
786.7764	-0.0176
786.9486	-0.0266
787.1207	0.0128
787.2928	0.0705
787.4649	-0.0212
787.637	-0.0068
787.8091	0.0044
787.9811	0.0258
788.1532	-0.0009
788.3252	-0.0169
788.4972	0.0119
788.6691	0.0079
788.8411	-0.0057
789.013	0.0301
789.1849	0.0177
789.3568	-0.0012
789.5287	0.0239
789.7005	-0.0376
789.8723	-0.0233
790.0442	-0.0085
790.2159	0.0046
790.3877	0.0308
790.5595	0.0901
790.7312	-0.0267
790.9029	-0.0127
791.0746	-0.0184
791.2463	-0.0479
791.4179	-0.0418
791.5896	0.0216
791.7612	-0.022
791.9328	-0.0093
792.1044	-0.0074
792.2759	-0.0069
792.4474	0.0017
792.619	0.046
792.7905	0.0085
792.9619	0.0615
793.1334	0.0574
793.3048	0.0701
793.4762	-0.003
793.6476	-0.0198
793.819	-0.0037
793.9904	0.0051
794.1617	0.0009
794.333	0.0162
794.5043	0.0373
794.6756	-0.0156
794.8469	0.0045
795.0181	0.0066
795.1893	0.0266
795.3605	0.0412
795.5317	-0.0005
795.7029	-0.0226
795.874	-0.0088
796.0452	0.0223
796.2163	0.0933
796.3873	0.0778
796.5584	-0.0009
796.7294	-0.0226
796.9005	0.0536
797.0715	0.0007
797.2425	0.0422
797.4134	0.0152
797.5844	0.0546
797.7553	-0.0496
797.9262	0.0636
798.0971	0.0384
798.2679	-0.0411
798.4388	0.0945
798.6096	0.1263
798.7804	0.0179
798.9512	-0.0277
799.122	0.0018
799.2927	0.0503
799.4635	-0.0866
799.6342	-0.0174
799.8049	0.0943
799.9755	-0.0441
800.1462	-0.0423
800.3168	0.0032
800.4874	-0.0539
800.658	-0.0257
800.8286	0.0767
800.9991	-0.0102
801.1696	-0.041
801.3402	-0.0813
801.5106	-0.0374
801.6811	-0.0448
801.8516	0.0738
802.022	0.0486
802.1924	-0.0074
802.3628	0.0756
802.5332	0.1002
802.7035	0.0999
802.8739	0.0269
803.0442	0.0503
803.2145	0.0174
803.3847	0.073
803.555	0.0818
803.7252	0.0079
803.8954	0.0023
804.0656	-0.0286
804.2358	-0.0171
804.4059	-0.0146
804.5761	-0.0011
804.7462	-0.0326
804.9163	0.0668
805.0864	-0.0517
805.2564	0.0574
805.4264	-0.001
805.5965	0.002
805.7665	0.0114
805.9364	-0.025
806.1064	0.0017
806.2763	0.0337
806.4462	-0.03
806.6161	0.0389
806.786	0.0157
806.9559	0.0498
807.1257	0.0364
807.2955	-0.0129
807.4653	-0.0317
807.6351	-0.0115
807.8048	0.0187
807.9746	0.0314
808.1443	-0.0008
808.314	0.0088
808.4837	0.0369
808.6533	0.0022
808.8229	0.019
808.9926	0.0258
809.1622	0.0608
809.3317	-0.0647
809.5013	0.1059
809.6708	-0.0612
809.8403	-0.0275
810.0098	-0.0218
810.1793	0.0202
810.3488	-0.0011
810.5182	0.0681
810.6876	-0.0218
810.857	0.0427
811.0264	0.0998
811.1958	0.0803
811.3651	0.0456
811.5344	0.0841
811.7037	0.0057
811.873	0.0302
812.0422	-0.0216
812.2115	0.0556
812.3807	-0.1418
812.5499	-0.0142
812.7191	0.0549
812.8882	-0.032
813.0574	0.0568
813.2265	-0.0176
813.3956	0.0987
813.5646	0.0888
813.7337	-0.0778
813.9027	-0.0212
814.0718	-0.0064
814.2407	0.0665
814.4097	0.0581
814.5787	0.1746
814.7476	0.0246
814.9165	0.0952
815.0854	-0.0104
815.2543	0.001
815.4232	0.0514
815.592	0.1608
815.7608	-0.0023
815.9296	0.0068
816.0984	0.3425
816.2671	-0.0221
816.4359	0.1167
816.6046	0.1081
816.7733	0.0014
816.942	-0.0373
817.1106	0.2127
817.2793	-0.1082
817.4479	-0.0152
817.6165	0.0503
817.785	0.1023
817.9536	-0.1442
818.1221	0.0977
818.2906	-0.1309
818.4591	0.0099
818.6276	0.0671
818.7961	-0.0265
818.9645	-0.0695
819.1329	0.5813
819.3013	-0.0204
819.4697	-0.0139
819.638	0.0299
819.8064	-0.0242
819.9747	0.1006
820.143	-0.0577
820.3113	0.0918
820.4795	0.0533
820.6477	0.0079
820.816	0.0289
820.9842	0.0312
821.1523	0.0347
821.3205	-0.0561
821.4886	-0.0366
821.6567	0.0233
821.8248	0.1061
821.9929	-0.1325
822.1609	0.1162
822.329	0.0617
822.497	0.1781
822.665	-0.081
822.833	-0.0022
823.0009	0.0701
823.1688	0.1125
823.3367	-0.1307
823.5046	0.0689
823.6725	-0.0981
823.8404	-0.0523
824.0082	-0.0639
824.176	-0.0926
824.3438	0.3438
824.5116	-0.0356
824.6793	0.116
824.847	-0.0473
825.0147	0.0023
825.1824	0.1556
825.3501	0.05
825.5177	-0.0418
825.6854	-0.1007
825.853	0.0495
826.0206	-0.0127
826.1881	-0.0812
826.3557	-0.0261
826.5232	0.0445
826.6907	0.0984
826.8582	-0.0273
827.0257	0.1922
827.1931	0.1798
827.3605	-0.127
827.528	-0.1467
827.6953	-0.1327
827.8627	-0.0245
828.03	0.0349
828.1974	-0.1001
828.3647	0.0846
828.532	0.1021
828.6992	0.1404
828.8665	0.04
829.0337	0.1326
829.2009	0.1794
829.3681	0.1219
829.5352	-0.074
829.7024	0.0529
829.8695	0.0331
830.0366	0.0224
830.2037	0.0526
830.3707	0.0402
830.5378	-0.1808
830.7048	-0.2168
830.8718	0.3987
831.0388	0.0242
831.2057	-0.0245
831.3727	-0.1838
831.5396	0.0323
831.7065	-0.8375
831.8734	0.0352
832.0402	0.1453
832.2071	-0
832.3739	-0.0986
832.5407	-0.301
832.7075	-0.343
832.8742	0.6176
833.041	0.0656
833.2077	0.1251
833.3744	0.0824
833.541	0.0565
833.7077	-0.1125
833.8743	-0.0787
834.0409	0.2415
834.2075	0.074
834.3741	-0.2526
834.5407	0.7104
834.7072	0.1264
834.8737	0.1626
835.0402	0.3143
835.2067	-0.0706
835.3731	0.0856
835.5395	0.0053
835.706	-0.1979
835.8723	-0.1025
836.0387	-0.0826
836.2051	-0.0281
836.3714	0.1995
836.5377	0.5024
836.704	0.5972
836.8703	-0.2272
837.0365	-0.4248
837.2027	-0.0901
837.3689	0.425
837.5351	-0.1129
837.7013	0.1319
837.8674	-0
838.0335	-0.1392
838.1997	0.2101
838.3657	-0
838.5318	-0.0811
838.6978	0.2769
838.8639	-0.0134
839.0299	-0.0727
839.1958	0.7411
839.3618	0.7998
839.5277	0.5316
839.6937	-0.0728
839.8596	-0.1488
840.0254	0.3668
840.1913	-0.3268
840.3571	0.5541
840.523	-0
840.6888	0.399
840.8545	-0.1818
841.0203	-0.1061
841.186	0.0183
841.3517	-0.2465
841.5174	0.1375
841.6831	-0.0165
841.8488	-0.0522
842.0144	-0.1003
842.18	0.1945
842.3456	-0.0515
842.5112	-0
842.6767	0.2362
842.8422	-0.1943
843.0077	0.2332
843.1732	-0.2201
843.3387	0.1481
843.5042	-0
843.6696	0.0912
843.835	2.317
844.0004	-0.0535
844.1657	-0
844.3311	0.0118
844.4964	-0.1858
844.6617	0.4926
844.827	0.4284
844.9923	0.3593
845.1575	-0.558
845.3227	0.1829
845.4879	-0.2023
845.6531	0.8221
845.8183	-0.0482
845.9834	-0
846.1485	0.0578
846.3136	-0.0986
846.4787	-0.613
846.6438	2.2911
846.8088	0.2216
846.9738	-0
847.1388	0.3083
847.3038	0.7043
847.4687	0.6626
847.6337	-0.8337
847.7986	0.6302
847.9635	-0.1411
848.1284	-0
848.2932	-0
848.458	-0
848.6228	-0
848.7876	-0
848.9524	-0.2127
849.1172	-1.9431
849.2819	-0
849.4466	0.3474
849.6113	0.2083
849.7759	0.9146
849.9406	-0.2481
850.1052	-0
850.2698	0.9777
850.4344	-0.5997
850.599	0.7094
850.7635	0.4447
850.928	1.2119
851.0925	0.4109
851.257	0.0335
851.4215	0.8657
851.5859	0.0875
851.7503	-0
851.9147	-0.2702
852.0791	-0.1543
852.2434	0.106
852.4078	-0.1308
852.5721	-0
852.7364	0.0488
852.9007	0.0217
853.0649	-0
853.2291	0.706
853.3934	-0
853.5575	-0.2711
853.7217	0.1326
853.8859	-0.4251
854.05	-0.5622
854.2141	-0.0322
854.3782	-0.3337
854.5423	-0.2623
854.7063	0.6611
854.8703	-0.0796
855.0343	-0.1166
855.1983	0.5794
855.3623	-0.0049
855.5262	0.4494
855.6901	0.0212
855.854	1.531
856.0179	-0.2683
856.1818	-0
856.3456	0.7893
856.5094	0.0783
856.6732	-0
856.837	-0.7687
857.0008	-0
857.1645	-0
857.3282	-0.3298
857.4919	0.5937
857.6556	-0.4966
857.8192	0.118
857.9828	0.079
858.1465	0.0612
858.31	-0
858.4736	-0.6141
858.6372	-0.3238
858.8007	0.3876
858.9642	-0.0256
859.1277	0.3205
859.2911	-0.7719
859.4546	-0
859.618	0.4698
859.7814	0.1472
859.9448	-0
860.1081	-0
860.2715	-0
860.4348	0.6141
860.5981	0.4495
860.7614	0.2085
860.9246	-0
861.0879	0.2818
861.2511	-0.1208
861.4143	-0.5474
861.5774	0.156
861.7406	-0.1866
861.9037	-0
862.0668	-0.8971
862.2299	1.3892
862.393	-0
862.556	0.444
862.7191	0.6921
862.8821	0.2502
863.0451	-0.0893
863.208	-0
863.371	-0
863.5339	0.1238
863.6968	0.3997
863.8597	0.0732
864.0225	0.1049
864.1854	-0.4296
864.3482	-1.2882
864.511	-0.2323
864.6737	-0
864.8365	-0.0982
864.9992	-0
865.1619	-0.5078
865.3246	-0
865.4873	-0.301
865.65	0.8075
865.8126	-0
865.9752	-0.1795
866.1378	-0
866.3004	-0.3838
866.4629	-1.6518
866.6254	-0
866.7879	-0.0697
866.9504	-0
867.1129	0.5441
867.2753	-0.203
867.4377	-0.0646
867.6001	0.1592
867.7625	-0.196
867.9249	0.0081
868.0872	-0
868.2495	-0
868.4118	-0.2781
868.5741	0.2204
868.7363	-0
868.8986	-0.7066
869.0608	-0.184
869.223	0.4198
869.3851	-0
869.5473	0.0492
869.7094	0.1868
869.8715	-0
870.0336	0.2365
870.1957	-0
870.3577	1.1252
870.5197	0.0047
870.6817	-0.8459
870.8437	0.6006
871.0057	-0.0872
871.1676	0.4267
871.3295	-0.4253
871.4914	-0.9638
871.6533	-0.0133
871.8151	1.6934
871.977	-0
872.1388	-0.3629
872.3006	-0.583
872.4623	-0
872.6241	2.3757
872.7858	0.5233
872.9475	-0
873.1092	-0.1604
873.2709	-0
873.4325	-1.7924
873.5941	-0.0322
873.7557	0.2624
873.9173	0.3859
874.0789	1.2672
874.2404	-0
874.4019	0.061
874.5634	0.5114
874.7249	2.2492
874.8863	-0.1176
875.0478	-0.4223
875.2092	2.74
875.3706	0.503
875.5319	-0
875.6933	1.1497
875.8546	-0
876.0159	0.4481
876.1772	0.0695
876.3385	-0
876.4997	-0
876.6609	0.5173
876.8221	-0
876.9833	0.0318
877.1445	0.809
877.3056	-0
877.4667	-1.118
877.6278	-0
877.7889	1.4669
877.9499	0.7229
878.111	-0.3945
878.272	-0
878.433	0.1917
878.5939	-0.103
878.7549	-0.0338
878.9158	-0
879.0767	0.17
879.2376	-0
879.3984	0.5331
879.5593	0.685
879.7201	-0.9473
879.8809	-0.0629
880.0417	0.2075
880.2024	0.7654
880.3632	-0.6618
880.5239	0.7094
880.6846	-0
880.8452	-0
881.0059	-0
881.1665	-0.1785
881.3271	0.1847
881.4877	0.4361
881.6483	-1.2774
881.8088	-0
881.9693	-0
882.1298	-0
882.2903	-0
