Data from D4ACN5uM460nmA_Absorbance_13-05-41-195.txt Node
Date: Fri Feb 21 13:05:41 GMT 2025
User: LASERRRRR
Spectrometer: FLMT03099
Trigger mode: 0
Integration Time (sec): 1.500000E-2
Scans to average: 1
Electric dark correction enabled: true
Nonlinearity correction enabled: false
Boxcar width: 0
XAxis mode: Wavelengths
Number of Pixels in Spectrum: 3648
>>>>>Begin Spectral Data<<<<<
179.3399	-0
179.5586	-0
179.7771	-0
179.9957	0.0677
180.2143	-0
180.4329	-0.1622
180.6514	-1.0815
180.8699	0.0281
181.0885	-0.1722
181.307	-0.1466
181.5255	0.4447
181.744	-0.017
181.9625	0.0549
182.181	-0.2259
182.3994	-0.3402
182.6179	-0
182.8363	-0
183.0547	-0.0418
183.2732	0.0096
183.4916	0.0414
183.71	0.1642
183.9284	0.1734
184.1467	0.0711
184.3651	0.1862
184.5835	0.17
184.8018	0.0665
185.0201	0.1619
185.2385	0.0816
185.4568	0.1294
185.6751	0.1744
185.8934	0.112
186.1117	-0.1557
186.3299	0.2228
186.5482	0.2307
186.7664	0.1451
186.9847	-0.0748
187.2029	0.1409
187.4211	-0.0368
187.6393	0.2771
187.8575	0.2267
188.0757	0.1791
188.2939	0.0055
188.512	0.2027
188.7302	-0.0054
188.9483	0.2144
189.1665	1.6714
189.3846	0.0823
189.6027	0.0775
189.8208	0.1575
190.0389	0.1078
190.257	0.0453
190.475	-0.0952
190.6931	0.1114
190.9111	0.046
191.1292	0.1218
191.3472	0.0536
191.5652	0.1575
191.7832	0.109
192.0012	0.0286
192.2192	0.237
192.4371	0.1373
192.6551	0.0894
192.873	0.279
193.091	0.0759
193.3089	0.1376
193.5268	0.1888
193.7447	0.1713
193.9626	0.1041
194.1805	0.2004
194.3984	0.1986
194.6162	0.2087
194.8341	0.2349
195.0519	0.253
195.2697	0.1968
195.4875	0.2851
195.7054	0.318
195.9231	0.2463
196.1409	0.2869
196.3587	0.3183
196.5765	0.3295
196.7942	0.3021
197.012	0.3213
197.2297	0.3502
197.4474	0.4131
197.6651	0.2904
197.8828	0.3253
198.1005	0.3519
198.3182	0.3542
198.5358	0.3617
198.7535	0.3528
198.9711	0.373
199.1888	0.3541
199.4064	0.406
199.624	0.3813
199.8416	0.3547
200.0592	0.3683
200.2767	0.4175
200.4943	0.4728
200.7119	0.3792
200.9294	0.375
201.1469	0.4065
201.3645	0.4267
201.582	0.3646
201.7995	0.4129
202.017	0.4268
202.2344	0.4677
202.4519	0.3589
202.6694	0.3796
202.8868	0.4031
203.1042	0.386
203.3217	0.3594
203.5391	0.3304
203.7565	0.3582
203.9739	0.3832
204.1913	0.3627
204.4086	0.355
204.626	0.3878
204.8433	0.3573
205.0607	0.3503
205.278	0.3435
205.4953	0.3466
205.7126	0.3485
205.9299	0.3403
206.1472	0.3465
206.3644	0.3282
206.5817	0.3282
206.7989	0.3516
207.0162	0.3191
207.2334	0.3338
207.4506	0.3241
207.6678	0.2996
207.885	0.3116
208.1022	0.3308
208.3194	0.3015
208.5365	0.3175
208.7537	0.3021
208.9708	0.3065
209.1879	0.303
209.405	0.2718
209.6222	0.2841
209.8392	0.2852
210.0563	0.2677
210.2734	0.2666
210.4905	0.279
210.7075	0.2688
210.9245	0.267
211.1416	0.2899
211.3586	0.2663
211.5756	0.2412
211.7926	0.26
212.0096	0.279
212.2265	0.2619
212.4435	0.2689
212.6604	0.2625
212.8774	0.2428
213.0943	0.2546
213.3112	0.2643
213.5281	0.2586
213.745	0.2452
213.9619	0.2377
214.1788	0.2644
214.3956	0.2546
214.6125	0.2617
214.8293	0.2427
215.0461	0.252
215.2629	0.2524
215.4798	0.2402
215.6965	0.2622
215.9133	0.2366
216.1301	0.2476
216.3469	0.2468
216.5636	0.2454
216.7803	0.2422
216.9971	0.2562
217.2138	0.2472
217.4305	0.2592
217.6472	0.2462
217.8639	0.264
218.0805	0.275
218.2972	0.2404
218.5138	0.2669
218.7305	0.2589
218.9471	0.2528
219.1637	0.2745
219.3803	0.2539
219.5969	0.2648
219.8135	0.26
220.0301	0.2607
220.2466	0.2661
220.4632	0.2621
220.6797	0.2606
220.8962	0.27
221.1127	0.2614
221.3292	0.2647
221.5457	0.2766
221.7622	0.282
221.9787	0.2828
222.1951	0.2826
222.4116	0.2671
222.628	0.2852
222.8444	0.2791
223.0608	0.2871
223.2772	0.286
223.4936	0.2786
223.71	0.2846
223.9264	0.294
224.1427	0.3106
224.3591	0.2907
224.5754	0.2898
224.7917	0.2856
225.008	0.2983
225.2243	0.3049
225.4406	0.2851
225.6569	0.2919
225.8732	0.3061
226.0894	0.3197
226.3057	0.3082
226.5219	0.3148
226.7381	0.3331
226.9543	0.3052
227.1705	0.3168
227.3867	0.3394
227.6029	0.3211
227.8191	0.3396
228.0352	0.3358
228.2513	0.3638
228.4675	0.3452
228.6836	0.3579
228.8997	0.3486
229.1158	0.3557
229.3319	0.3607
229.548	0.3523
229.764	0.3653
229.9801	0.37
230.1961	0.3738
230.4121	0.3657
230.6282	0.3783
230.8442	0.3823
231.0602	0.3813
231.2761	0.3785
231.4921	0.3791
231.7081	0.3799
231.924	0.4067
232.14	0.4012
232.3559	0.4046
232.5718	0.4155
232.7877	0.4068
233.0036	0.4042
233.2195	0.4044
233.4353	0.4267
233.6512	0.4161
233.867	0.4101
234.0829	0.4295
234.2987	0.4258
234.5145	0.4258
234.7303	0.4312
234.9461	0.4299
235.1619	0.4411
235.3776	0.4345
235.5934	0.4333
235.8091	0.4439
236.0249	0.4396
236.2406	0.4438
236.4563	0.4506
236.672	0.4486
236.8877	0.4524
237.1034	0.4479
237.319	0.4575
237.5347	0.4457
237.7503	0.4543
237.966	0.4618
238.1816	0.4518
238.3972	0.4664
238.6128	0.4632
238.8284	0.4612
239.0439	0.4626
239.2595	0.4733
239.475	0.4615
239.6906	0.4584
239.9061	0.4502
240.1216	0.463
240.3371	0.4534
240.5526	0.4602
240.7681	0.4623
240.9836	0.4548
241.199	0.4535
241.4145	0.4478
241.6299	0.4559
241.8453	0.4349
242.0607	0.4373
242.2761	0.4322
242.4915	0.4293
242.7069	0.4089
242.9223	0.4154
243.1376	0.4067
243.353	0.4067
243.5683	0.3874
243.7836	0.3835
243.9989	0.3741
244.2142	0.3684
244.4295	0.3665
244.6448	0.3568
244.86	0.3431
245.0753	0.3444
245.2905	0.3389
245.5057	0.3285
245.721	0.3297
245.9362	0.317
246.1514	0.3121
246.3665	0.3083
246.5817	0.2973
246.7969	0.2921
247.012	0.2875
247.2271	0.2867
247.4423	0.2803
247.6574	0.281
247.8725	0.2671
248.0876	0.2657
248.3026	0.2657
248.5177	0.2546
248.7328	0.2529
248.9478	0.2467
249.1628	0.2476
249.3779	0.2355
249.5929	0.2413
249.8079	0.233
250.0228	0.2354
250.2378	0.2289
250.4528	0.2272
250.6677	0.2295
250.8827	0.2126
251.0976	0.2101
251.3125	0.2151
251.5274	0.2153
251.7423	0.2041
251.9572	0.2025
252.172	0.2048
252.3869	0.2025
252.6017	0.2
252.8166	0.1957
253.0314	0.1916
253.2462	0.1978
253.461	0.1941
253.6758	0.1891
253.8906	0.1932
254.1053	0.1947
254.3201	0.1937
254.5348	0.1829
254.7496	0.1801
254.9643	0.191
255.179	0.184
255.3937	0.186
255.6083	0.1903
255.823	0.1804
256.0377	0.1873
256.2523	0.1819
256.467	0.1806
256.6816	0.1805
256.8962	0.1818
257.1108	0.1853
257.3254	0.1771
257.54	0.174
257.7545	0.1848
257.9691	0.1799
258.1836	0.1733
258.3981	0.1789
258.6127	0.1707
258.8272	0.1749
259.0417	0.1717
259.2561	0.1745
259.4706	0.1727
259.6851	0.1721
259.8995	0.1768
260.114	0.1755
260.3284	0.1677
260.5428	0.177
260.7572	0.1724
260.9716	0.1831
261.186	0.174
261.4003	0.1709
261.6147	0.1716
261.829	0.1746
262.0433	0.1781
262.2577	0.1772
262.472	0.1747
262.6863	0.1767
262.9005	0.176
263.1148	0.1741
263.3291	0.1746
263.5433	0.1741
263.7576	0.1815
263.9718	0.1729
264.186	0.1738
264.4002	0.1745
264.6144	0.1785
264.8286	0.1763
265.0427	0.179
265.2569	0.1788
265.471	0.1781
265.6851	0.1824
265.8993	0.1733
266.1134	0.1745
266.3275	0.1736
266.5415	0.1782
266.7556	0.1803
266.9697	0.1778
267.1837	0.1743
267.3978	0.1777
267.6118	0.1698
267.8258	0.1766
268.0398	0.178
268.2538	0.1755
268.4677	0.1714
268.6817	0.1723
268.8957	0.1668
269.1096	0.1681
269.3235	0.1695
269.5374	0.1735
269.7514	0.1724
269.9652	0.1677
270.1791	0.1727
270.393	0.1727
270.6068	0.1676
270.8207	0.1671
271.0345	0.1635
271.2483	0.1614
271.4622	0.1581
271.676	0.1644
271.8897	0.1702
272.1035	0.1716
272.3173	0.1632
272.531	0.1692
272.7448	0.1638
272.9585	0.16
273.1722	0.1655
273.3859	0.161
273.5996	0.1607
273.8133	0.1687
274.0269	0.1575
274.2406	0.1637
274.4542	0.1667
274.6679	0.1636
274.8815	0.1762
275.0951	0.1755
275.3087	0.1723
275.5223	0.1649
275.7358	0.1649
275.9494	0.1687
276.1629	0.1687
276.3765	0.1696
276.59	0.1626
276.8035	0.1664
277.017	0.1675
277.2305	0.173
277.444	0.1723
277.6574	0.1691
277.8709	0.1753
278.0843	0.179
278.2978	0.1758
278.5112	0.166
278.7246	0.1645
278.938	0.1699
279.1513	0.173
279.3647	0.1734
279.5781	0.1741
279.7914	0.1682
280.0047	0.1744
280.2181	0.1706
280.4314	0.1774
280.6447	0.181
280.8579	0.1669
281.0712	0.1753
281.2845	0.1771
281.4977	0.1759
281.711	0.1684
281.9242	0.1761
282.1374	0.1781
282.3506	0.1743
282.5638	0.1741
282.7769	0.1727
282.9901	0.1788
283.2033	0.1814
283.4164	0.1753
283.6295	0.1845
283.8426	0.1734
284.0557	0.1841
284.2688	0.1825
284.4819	0.1731
284.695	0.1813
284.908	0.1803
285.1211	0.1869
285.3341	0.1835
285.5471	0.1824
285.7601	0.1838
285.9731	0.1823
286.1861	0.1833
286.3991	0.1907
286.612	0.1857
286.825	0.1866
287.0379	0.1907
287.2508	0.1875
287.4637	0.1921
287.6766	0.1856
287.8895	0.1827
288.1024	0.1894
288.3152	0.1877
288.5281	0.1846
288.7409	0.1885
288.9538	0.1887
289.1666	0.1896
289.3794	0.1923
289.5922	0.1888
289.8049	0.1909
290.0177	0.1939
290.2304	0.187
290.4432	0.1938
290.6559	0.1901
290.8686	0.1926
291.0813	0.1905
291.294	0.1921
291.5067	0.1906
291.7194	0.1923
291.932	0.1914
292.1447	0.1925
292.3573	0.1982
292.5699	0.1962
292.7825	0.1918
292.9951	0.195
293.2077	0.1928
293.4203	0.1917
293.6328	0.1927
293.8454	0.1934
294.0579	0.1884
294.2704	0.193
294.4829	0.1938
294.6954	0.1935
294.9079	0.1868
295.1204	0.1915
295.3328	0.1993
295.5453	0.1871
295.7577	0.1947
295.9701	0.1999
296.1825	0.1962
296.3949	0.1922
296.6073	0.187
296.8197	0.1996
297.0321	0.1998
297.2444	0.1883
297.4567	0.1917
297.6691	0.1948
297.8814	0.1993
298.0937	0.1938
298.306	0.188
298.5182	0.1989
298.7305	0.1869
298.9428	0.1937
299.155	0.1844
299.3672	0.1916
299.5794	0.1962
299.7916	0.1951
300.0038	0.1945
300.216	0.1924
300.4282	0.189
300.6403	0.196
300.8525	0.1898
301.0646	0.1935
301.2767	0.1942
301.4888	0.1912
301.7009	0.19
301.913	0.1969
302.125	0.1937
302.3371	0.189
302.5491	0.1929
302.7612	0.198
302.9732	0.1938
303.1852	0.1893
303.3972	0.1958
303.6092	0.1919
303.8211	0.1969
304.0331	0.1927
304.245	0.189
304.457	0.1928
304.6689	0.1903
304.8808	0.1871
305.0927	0.1927
305.3046	0.1896
305.5164	0.1801
305.7283	0.1845
305.9401	0.1767
306.152	0.1783
306.3638	0.1823
306.5756	0.1847
306.7874	0.1676
306.9992	0.1696
307.2109	0.1712
307.4227	0.1724
307.6344	0.1787
307.8462	0.1635
308.0579	0.1714
308.2696	0.1683
308.4813	0.1671
308.693	0.1685
308.9046	0.1616
309.1163	0.1591
309.328	0.159
309.5396	0.151
309.7512	0.1505
309.9628	0.151
310.1744	0.1469
310.386	0.145
310.5976	0.1399
310.8091	0.1516
311.0207	0.1462
311.2322	0.14
311.4437	0.1392
311.6552	0.1441
311.8667	0.1426
312.0782	0.1348
312.2897	0.1357
312.5012	0.1336
312.7126	0.1349
312.924	0.1368
313.1355	0.1347
313.3469	0.133
313.5583	0.1301
313.7696	0.1277
313.981	0.1378
314.1924	0.1258
314.4037	0.1279
314.6151	0.1296
314.8264	0.1271
315.0377	0.125
315.249	0.1273
315.4603	0.1256
315.6716	0.1247
315.8828	0.1217
316.0941	0.1257
316.3053	0.1154
316.5165	0.1264
316.7277	0.1241
316.9389	0.121
317.1501	0.1216
317.3613	0.1145
317.5724	0.116
317.7836	0.1146
317.9947	0.1239
318.2058	0.1239
318.417	0.119
318.6281	0.109
318.8391	0.1199
319.0502	0.119
319.2613	0.1162
319.4723	0.1175
319.6834	0.1198
319.8944	0.1253
320.1054	0.1214
320.3164	0.1146
320.5274	0.1169
320.7383	0.1205
320.9493	0.115
321.1602	0.1126
321.3712	0.1216
321.5821	0.117
321.793	0.1261
322.0039	0.1197
322.2148	0.1185
322.4257	0.1167
322.6365	0.117
322.8474	0.1181
323.0582	0.1232
323.269	0.1239
323.4798	0.1181
323.6906	0.1153
323.9014	0.1115
324.1122	0.1182
324.3229	0.1246
324.5337	0.1235
324.7444	0.1256
324.9551	0.1207
325.1658	0.1229
325.3765	0.1207
325.5872	0.1224
325.7979	0.1178
326.0085	0.1144
326.2192	0.1147
326.4298	0.1273
326.6404	0.1274
326.851	0.1274
327.0616	0.1234
327.2722	0.125
327.4828	0.1256
327.6933	0.1328
327.9039	0.1211
328.1144	0.1242
328.3249	0.1278
328.5354	0.1256
328.7459	0.1292
328.9564	0.1254
329.1669	0.1279
329.3773	0.1278
329.5878	0.1242
329.7982	0.1271
330.0086	0.1245
330.219	0.1226
330.4294	0.1231
330.6398	0.1288
330.8502	0.13
331.0605	0.1223
331.2708	0.1286
331.4812	0.1266
331.6915	0.1263
331.9018	0.1285
332.1121	0.1308
332.3224	0.126
332.5326	0.1233
332.7429	0.1238
332.9531	0.1314
333.1633	0.1241
333.3735	0.1226
333.5837	0.1308
333.7939	0.1299
334.0041	0.1354
334.2143	0.1296
334.4244	0.1346
334.6346	0.1278
334.8447	0.124
335.0548	0.1368
335.2649	0.1375
335.475	0.1336
335.685	0.1255
335.8951	0.1294
336.1051	0.1344
336.3152	0.1367
336.5252	0.1285
336.7352	0.1349
336.9452	0.139
337.1552	0.1306
337.3652	0.1319
337.5751	0.1321
337.7851	0.1335
337.995	0.1337
338.2049	0.1341
338.4148	0.1399
338.6247	0.132
338.8346	0.1324
339.0445	0.1399
339.2543	0.1355
339.4642	0.1304
339.674	0.1374
339.8838	0.137
340.0936	0.1393
340.3034	0.1357
340.5132	0.1335
340.7229	0.1362
340.9327	0.145
341.1424	0.1377
341.3522	0.1326
341.5619	0.1382
341.7716	0.1496
341.9813	0.1441
342.1909	0.1451
342.4006	0.1427
342.6102	0.1454
342.8199	0.1452
343.0295	0.1414
343.2391	0.144
343.4487	0.1462
343.6583	0.1448
343.8679	0.1381
344.0774	0.1421
344.287	0.1493
344.4965	0.1552
344.706	0.1519
344.9155	0.1467
345.125	0.1539
345.3345	0.1579
345.544	0.1533
345.7534	0.1521
345.9629	0.1489
346.1723	0.1603
346.3817	0.1565
346.5911	0.1566
346.8005	0.16
347.0099	0.152
347.2193	0.1568
347.4286	0.1665
347.638	0.1603
347.8473	0.156
348.0566	0.1583
348.2659	0.156
348.4752	0.1599
348.6845	0.1558
348.8937	0.1633
349.103	0.1609
349.3122	0.1688
349.5214	0.1684
349.7306	0.1751
349.9398	0.1609
350.149	0.1609
350.3582	0.1685
350.5674	0.1678
350.7765	0.1779
350.9856	0.1687
351.1948	0.1718
351.4039	0.174
351.613	0.1687
351.822	0.1767
352.0311	0.1719
352.2402	0.1747
352.4492	0.1716
352.6582	0.1763
352.8672	0.1849
353.0762	0.1778
353.2852	0.1771
353.4942	0.182
353.7032	0.1722
353.9121	0.177
354.1211	0.1854
354.33	0.1832
354.5389	0.177
354.7478	0.1794
354.9567	0.1855
355.1655	0.1824
355.3744	0.1762
355.5833	0.1844
355.7921	0.1872
356.0009	0.1854
356.2097	0.1816
356.4185	0.1841
356.6273	0.1875
356.8361	0.1915
357.0448	0.1811
357.2536	0.1901
357.4623	0.1861
357.671	0.1943
357.8797	0.1957
358.0884	0.1844
358.2971	0.1919
358.5057	0.1906
358.7144	0.1945
358.923	0.2006
359.1316	0.1976
359.3402	0.1968
359.5488	0.1952
359.7574	0.2128
359.966	0.2014
360.1746	0.1935
360.3831	0.2063
360.5916	0.2093
360.8002	0.2074
361.0087	0.2078
361.2172	0.2093
361.4256	0.2162
361.6341	0.2138
361.8426	0.2111
362.051	0.2148
362.2594	0.2159
362.4678	0.2151
362.6762	0.2162
362.8846	0.2146
363.093	0.2232
363.3014	0.2182
363.5097	0.2182
363.718	0.2237
363.9264	0.2283
364.1347	0.227
364.343	0.2306
364.5513	0.2295
364.7595	0.2282
364.9678	0.2256
365.176	0.2298
365.3842	0.2354
365.5925	0.2341
365.8007	0.2366
366.0089	0.2326
366.217	0.2326
366.4252	0.2302
366.6333	0.2336
366.8415	0.2417
367.0496	0.2404
367.2577	0.2449
367.4658	0.2409
367.6739	0.2375
367.882	0.244
368.09	0.2364
368.2981	0.2465
368.5061	0.2423
368.7141	0.2403
368.9221	0.2613
369.1301	0.248
369.3381	0.2603
369.5461	0.2494
369.754	0.2516
369.962	0.2472
370.1699	0.2565
370.3778	0.2615
370.5857	0.2516
370.7936	0.2555
371.0015	0.256
371.2093	0.2528
371.4172	0.2598
371.625	0.2559
371.8328	0.261
372.0406	0.2697
372.2484	0.2649
372.4562	0.269
372.664	0.2617
372.8717	0.2656
373.0795	0.2785
373.2872	0.2719
373.4949	0.2683
373.7026	0.2654
373.9103	0.2664
374.118	0.2723
374.3256	0.2712
374.5333	0.2725
374.7409	0.2775
374.9485	0.2685
375.1561	0.2786
375.3637	0.2748
375.5713	0.2817
375.7789	0.2798
375.9864	0.2781
376.194	0.2875
376.4015	0.2842
376.609	0.2752
376.8165	0.2913
377.024	0.2817
377.2315	0.2796
377.4389	0.2715
377.6464	0.2814
377.8538	0.2882
378.0612	0.2868
378.2686	0.2897
378.476	0.2997
378.6834	0.2968
378.8908	0.2971
379.0981	0.2944
379.3055	0.2876
379.5128	0.2909
379.7201	0.297
379.9274	0.281
380.1347	0.2934
380.342	0.3059
380.5492	0.2926
380.7565	0.299
380.9637	0.3018
381.1709	0.3003
381.3781	0.3022
381.5853	0.2991
381.7925	0.3018
381.9997	0.3053
382.2068	0.3064
382.4139	0.3025
382.6211	0.2924
382.8282	0.3212
383.0353	0.3133
383.2424	0.3051
383.4494	0.301
383.6565	0.3092
383.8635	0.3116
384.0706	0.3195
384.2776	0.301
384.4846	0.3148
384.6916	0.3029
384.8986	0.309
385.1055	0.3131
385.3125	0.3086
385.5194	0.3138
385.7263	0.3118
385.9333	0.3105
386.1402	0.3142
386.347	0.314
386.5539	0.3149
386.7608	0.3097
386.9676	0.2994
387.1744	0.3159
387.3813	0.3117
387.5881	0.3124
387.7948	0.3191
388.0016	0.3322
388.2084	0.3163
388.4151	0.3017
388.6219	0.3064
388.8286	0.3058
389.0353	0.3094
389.242	0.3113
389.4487	0.3062
389.6553	0.2943
389.862	0.2989
390.0686	0.3048
390.2753	0.3032
390.4819	0.3022
390.6885	0.3124
390.8951	0.3135
391.1016	0.3027
391.3082	0.2969
391.5147	0.2978
391.7213	0.301
391.9278	0.2898
392.1343	0.3054
392.3408	0.2981
392.5473	0.2922
392.7537	0.2861
392.9602	0.2813
393.1666	0.293
393.373	0.2871
393.5794	0.2826
393.7858	0.29
393.9922	0.2898
394.1986	0.2767
394.4049	0.2928
394.6113	0.2812
394.8176	0.2752
395.0239	0.2707
395.2302	0.2838
395.4365	0.2763
395.6428	0.2733
395.8491	0.2827
396.0553	0.268
396.2615	0.2779
396.4678	0.2804
396.674	0.2701
396.8802	0.2763
397.0863	0.2697
397.2925	0.2735
397.4987	0.269
397.7048	0.2804
397.9109	0.262
398.117	0.2677
398.3231	0.2625
398.5292	0.2651
398.7353	0.2624
398.9413	0.2665
399.1474	0.2641
399.3534	0.2668
399.5594	0.2652
399.7654	0.2682
399.9714	0.2654
400.1774	0.2622
400.3833	0.2544
400.5893	0.2643
400.7952	0.275
401.0011	0.263
401.207	0.2646
401.4129	0.2591
401.6188	0.2554
401.8247	0.276
402.0305	0.2671
402.2364	0.2632
402.4422	0.2715
402.648	0.2719
402.8538	0.2643
403.0596	0.2614
403.2654	0.2646
403.4711	0.2728
403.6768	0.2581
403.8826	0.2619
404.0883	0.2636
404.294	0.2612
404.4997	0.273
404.7054	0.2726
404.911	0.2569
405.1167	0.2642
405.3223	0.2639
405.5279	0.2652
405.7335	0.2646
405.9391	0.2585
406.1447	0.2699
406.3502	0.2637
406.5558	0.2494
406.7613	0.2658
406.9668	0.267
407.1724	0.2591
407.3778	0.265
407.5833	0.2549
407.7888	0.2747
407.9942	0.2655
408.1997	0.2627
408.4051	0.2695
408.6105	0.2675
408.8159	0.2535
409.0213	0.2686
409.2267	0.2663
409.432	0.2604
409.6374	0.2647
409.8427	0.2735
410.048	0.2621
410.2533	0.2604
410.4586	0.2569
410.6639	0.2709
410.8691	0.2583
411.0744	0.2613
411.2796	0.2573
411.4848	0.2697
411.69	0.2566
411.8952	0.254
412.1004	0.265
412.3056	0.2616
412.5107	0.2536
412.7158	0.274
412.921	0.2657
413.1261	0.259
413.3312	0.2797
413.5362	0.267
413.7413	0.2663
413.9464	0.2611
414.1514	0.2672
414.3564	0.2507
414.5614	0.2573
414.7664	0.2554
414.9714	0.2536
415.1764	0.2536
415.3813	0.2504
415.5863	0.2668
415.7912	0.261
415.9961	0.2579
416.201	0.2747
416.4059	0.2659
416.6108	0.2493
416.8156	0.2607
417.0205	0.2537
417.2253	0.2556
417.4301	0.2536
417.6349	0.2576
417.8397	0.2522
418.0445	0.2536
418.2492	0.2508
418.454	0.2557
418.6587	0.2542
418.8634	0.2457
419.0681	0.2557
419.2728	0.2533
419.4775	0.256
419.6822	0.2541
419.8868	0.2431
420.0915	0.2409
420.2961	0.2407
420.5007	0.2462
420.7053	0.2504
420.9099	0.2584
421.1144	0.2469
421.319	0.2356
421.5235	0.2382
421.728	0.2515
421.9325	0.2482
422.137	0.2403
422.3415	0.238
422.546	0.2313
422.7504	0.2394
422.9549	0.2464
423.1593	0.2247
423.3637	0.2399
423.5681	0.2289
423.7725	0.2361
423.9769	0.2336
424.1812	0.2272
424.3856	0.2411
424.5899	0.2215
424.7942	0.2226
424.9985	0.2302
425.2028	0.2304
425.4071	0.2308
425.6113	0.2338
425.8156	0.2235
426.0198	0.217
426.224	0.2256
426.4282	0.2178
426.6324	0.224
426.8366	0.2134
427.0407	0.2152
427.2449	0.2091
427.449	0.2116
427.6531	0.2327
427.8572	0.2202
428.0613	0.2136
428.2654	0.2075
428.4694	0.1985
428.6735	0.2012
428.8775	0.2122
429.0815	0.2092
429.2855	0.2052
429.4895	0.199
429.6935	0.2011
429.8975	0.1984
430.1014	0.2013
430.3053	0.2099
430.5093	0.1915
430.7132	0.1939
430.9171	0.1876
431.1209	0.1914
431.3248	0.1789
431.5286	0.1865
431.7325	0.1935
431.9363	0.1799
432.1401	0.1788
432.3439	0.1846
432.5477	0.1805
432.7514	0.178
432.9552	0.1665
433.1589	0.1744
433.3627	0.1682
433.5664	0.1642
433.7701	0.1679
433.9737	0.1669
434.1774	0.164
434.3811	0.1569
434.5847	0.1613
434.7883	0.1621
434.9919	0.1583
435.1955	0.156
435.3991	0.1588
435.6027	0.1459
435.8062	0.1639
436.0098	0.1487
436.2133	0.1444
436.4168	0.1479
436.6203	0.1416
436.8238	0.1435
437.0272	0.1341
437.2307	0.1372
437.4341	0.1319
437.6375	0.1385
437.841	0.1228
438.0443	0.1343
438.2477	0.1273
438.4511	0.1215
438.6545	0.127
438.8578	0.1235
439.0611	0.133
439.2644	0.1332
439.4677	0.1287
439.671	0.112
439.8743	0.1159
440.0775	0.1121
440.2808	0.1085
440.484	0.1098
440.6872	0.1097
440.8904	0.0952
441.0936	0.106
441.2967	0.099
441.4999	0.1014
441.703	0.0955
441.9062	0.1082
442.1093	0.1109
442.3124	0.0899
442.5155	0.102
442.7185	0.0774
442.9216	0.0916
443.1246	0.0917
443.3276	0.0947
443.5307	0.0787
443.7337	0.0921
443.9366	0.0809
444.1396	0.0776
444.3426	0.0842
444.5455	0.0834
444.7484	0.0816
444.9513	0.0758
445.1542	0.0828
445.3571	0.0805
445.56	0.0689
445.7628	0.0744
445.9657	0.0773
446.1685	0.0719
446.3713	0.0703
446.5741	0.0773
446.7769	0.0683
446.9797	0.0666
447.1824	0.0692
447.3852	0.0588
447.5879	0.0684
447.7906	0.056
447.9933	0.0624
448.196	0.0582
448.3986	0.0581
448.6013	0.0573
448.8039	0.0589
449.0066	0.0644
449.2092	0.0578
449.4118	0.0548
449.6143	0.0548
449.8169	0.0503
450.0195	0.0496
450.222	0.0487
450.4245	0.0477
450.627	0.0537
450.8295	0.0468
451.032	0.0446
451.2345	0.038
451.4369	0.0447
451.6394	0.0338
451.8418	0.0489
452.0442	0.0367
452.2466	0.0309
452.449	0.043
452.6513	0.0263
452.8537	0.0306
453.056	0.0367
453.2583	0.0263
453.4607	0.028
453.663	0.0399
453.8652	0.0267
454.0675	0.0433
454.2697	0.0283
454.472	0.029
454.6742	0.0347
454.8764	0.0326
455.0786	0.0306
455.2808	0.0234
455.4829	0.0326
455.6851	0.0218
455.8872	0.0169
456.0893	0.0256
456.2915	0.0259
456.4935	0.0242
456.6956	0.0312
456.8977	0.0253
457.0997	0.0313
457.3018	0.0202
457.5038	0.0327
457.7058	0.0245
457.9078	0.0185
458.1098	0.0226
458.3117	0.0247
458.5137	0.014
458.7156	0.0179
458.9175	0.0196
459.1194	0.0199
459.3213	0.0163
459.5232	0.018
459.725	0.0139
459.9269	0.0156
460.1287	0.0082
460.3305	0.0221
460.5323	0.0191
460.7341	0.0159
460.9359	0.012
461.1376	0.0191
461.3394	0.0131
461.5411	0.0116
461.7428	0.0176
461.9445	0.011
462.1462	0.0091
462.3479	0.01
462.5495	0.0211
462.7512	0.0215
462.9528	0.0123
463.1544	0.0216
463.356	0.0086
463.5576	0.0201
463.7592	0.0162
463.9607	0.0181
464.1623	0.0158
464.3638	0.0113
464.5653	0.01
464.7668	0.0207
464.9683	0.0071
465.1697	0.0072
465.3712	0.0046
465.5726	0.0141
465.7741	0.0153
465.9755	0.0084
466.1769	0.0107
466.3782	0.0056
466.5796	0.0163
466.7809	0.0149
466.9823	0.014
467.1836	0.0093
467.3849	0.0025
467.5862	0.0046
467.7875	0.0017
467.9887	0.0115
468.19	0.008
468.3912	0.0095
468.5924	0.0012
468.7936	0.0059
468.9948	0.0039
469.196	0.0146
469.3972	-0.0015
469.5983	0.0016
469.7994	0.0029
470.0006	0.0069
470.2017	0.0105
470.4027	0.013
470.6038	0.0074
470.8049	-0.0003
471.0059	0.0086
471.2069	0.0157
471.408	0.0144
471.6089	0.0133
471.8099	0.0085
472.0109	0.0084
472.2119	0.0163
472.4128	0.003
472.6137	0.0068
472.8146	0.0098
473.0155	0.0125
473.2164	0.0024
473.4173	0.0031
473.6181	0.0057
473.819	0.0113
474.0198	0.0013
474.2206	-0.0028
474.4214	0.0057
474.6222	-0.0025
474.8229	0.0044
475.0237	0.0084
475.2244	0.0137
475.4251	0.0062
475.6258	0.0049
475.8265	0.0122
476.0272	-0.001
476.2278	0.0061
476.4285	-0.0022
476.6291	0.0092
476.8297	0.0033
477.0303	-0.0027
477.2309	0.0016
477.4315	0.0009
477.632	-0.0007
477.8326	0.0082
478.0331	0.0122
478.2336	0.0104
478.4341	0.0038
478.6346	-0.001
478.8351	-0.0004
479.0355	0.0119
479.236	0.0102
479.4364	0.0085
479.6368	0.0076
479.8372	0.0035
480.0376	-0.0003
480.2379	0.0049
480.4383	0.0078
480.6386	0.0004
480.8389	0.0028
481.0392	0.0064
481.2395	0.0104
481.4398	0.0017
481.6401	0.0032
481.8403	0.0034
482.0405	0.004
482.2408	0.0062
482.441	0.0112
482.6411	0.0113
482.8413	0.0017
483.0415	0.0112
483.2416	0
483.4417	0.0066
483.6419	-0.0043
483.8419	0.006
484.042	0.0047
484.2421	-0.0004
484.4422	0.007
484.6422	0.0009
484.8422	0.0026
485.0422	0.0022
485.2422	-0
485.4422	0.0018
485.6422	-0.0002
485.8421	0.0002
486.042	0.0115
486.242	-0.0024
486.4419	0.0066
486.6417	-0.002
486.8416	0.0002
487.0415	0.0024
487.2413	-0.0046
487.4411	0.0029
487.641	0.0059
487.8408	0.0075
488.0405	0.0052
488.2403	0.0022
488.4401	-0.0006
488.6398	-0.0001
488.8395	0.0006
489.0392	0.0026
489.2389	0.0058
489.4386	-0.0054
489.6383	-0.0042
489.8379	0.0001
490.0376	0.0046
490.2372	0.0019
490.4368	0.0019
490.6364	-0.0045
490.836	0.001
491.0355	-0.0076
491.2351	-0.0026
491.4346	0.0038
491.6341	-0
491.8336	0.0031
492.0331	-0
492.2326	0.002
492.432	-0.001
492.6315	0.0084
492.8309	0.0011
493.0303	0.0025
493.2297	0.0067
493.4291	-0
493.6284	0.0089
493.8278	0.0005
494.0271	0.0069
494.2264	0.0007
494.4257	0.0017
494.625	0.0003
494.8243	-0.0008
495.0236	0.0081
495.2228	0.012
495.422	0.0071
495.6213	0.0005
495.8205	0.0056
496.0196	-0.0008
496.2188	0.0025
496.418	0.002
496.6171	-0.0029
496.8162	-0.0008
497.0153	0.0076
497.2144	-0.0003
497.4135	-0.0056
497.6126	0.0032
497.8116	-0.0031
498.0107	-0.0006
498.2097	0.0083
498.4087	-0.001
498.6077	-0.0098
498.8067	0.0033
499.0056	0.0022
499.2046	0.0094
499.4035	0.0062
499.6024	-0.0005
499.8013	0.0147
500.0002	0.0071
500.199	0.012
500.3979	-0.0092
500.5967	-0.0058
500.7956	0.0076
500.9944	0.0009
501.1932	0.0038
501.3919	0.011
501.5907	0.0076
501.7895	-0.005
501.9882	0.0052
502.1869	0.0096
502.3856	0.0023
502.5843	0.0045
502.783	-0.0011
502.9816	0.0093
503.1803	0.0059
503.3789	0.0057
503.5775	-0.0022
503.7761	-0.0034
503.9747	0.0035
504.1732	-0.0029
504.3718	0.0126
504.5703	0.0009
504.7689	-0.0052
504.9674	0.0044
505.1658	0.0002
505.3643	0.0029
505.5628	0.0067
505.7612	0.0013
505.9597	-0.0026
506.1581	0.0036
506.3565	0.0021
506.5549	-0.0086
506.7532	-0.0104
506.9516	0.0006
507.1499	0.0057
507.3482	-0.0057
507.5465	-0.0001
507.7448	0.0043
507.9431	0.007
508.1414	-0.0049
508.3396	0.0013
508.5379	0.0004
508.7361	0.004
508.9343	0.0055
509.1325	0.0121
509.3306	-0.0019
509.5288	-0.0075
509.7269	0.0089
509.9251	0.0049
510.1232	0.0076
510.3213	0.0029
510.5193	0.0035
510.7174	-0.0019
510.9154	0.0065
511.1135	0.0047
511.3115	0.0013
511.5095	-0.0012
511.7075	0.0029
511.9055	0.0068
512.1034	-0.0031
512.3014	0.0048
512.4993	0.0012
512.6972	0.0001
512.8951	0.0041
513.093	0.0031
513.2908	0.0123
513.4887	-0.0015
513.6865	-0.0021
513.8844	0.0093
514.0822	0.0009
514.2799	0.0035
514.4777	0.0011
514.6755	-0.0001
514.8732	0.008
515.0709	0.0073
515.2687	-0.0056
515.4664	0.0134
515.664	0.0009
515.8617	-0.0003
516.0594	0.0108
516.257	-0.006
516.4546	0.0189
516.6522	-0.0003
516.8498	0.0056
517.0474	0.003
517.2449	0.008
517.4425	0.0004
517.64	0.0021
517.8375	0.0045
518.035	-0.0025
518.2325	-0.0019
518.43	-0.0032
518.6274	-0.0016
518.8249	-0.0036
519.0223	0.0154
519.2197	0.0038
519.4171	-0.0011
519.6145	0.0093
519.8118	-0.0074
520.0092	0.0026
520.2065	0.006
520.4038	0.0056
520.6011	0.0002
520.7984	0.0007
520.9956	0.0098
521.1929	0.0075
521.3901	0.0049
521.5874	0.0067
521.7846	-0.0018
521.9818	0.0071
522.1789	-0.0109
522.3761	0.0155
522.5732	0.004
522.7704	-0.0068
522.9675	-0.0004
523.1646	-0.0044
523.3617	0.0089
523.5587	0.0056
523.7558	0.0005
523.9528	0.0007
524.1498	-0.002
524.3468	0.0042
524.5438	0.0025
524.7408	0
524.9378	0
525.1347	0.0039
525.3316	-0.002
525.5285	0.0066
525.7254	0.0017
525.9223	0.0073
526.1192	0.0031
526.316	0.0032
526.5129	0.008
526.7097	-0.0047
526.9065	0.0082
527.1033	-0.0006
527.3	0.0064
527.4968	0.0049
527.6935	-0.0091
527.8903	0.0047
528.087	-0.0032
528.2837	0.0077
528.4804	-0.0035
528.677	0.0116
528.8737	0.0068
529.0703	-0.0055
529.2669	0.0026
529.4635	-0.0099
529.6601	-0.0094
529.8567	-0.0055
530.0532	0.0065
530.2498	-0.0007
530.4463	-0.0102
530.6428	-0.001
530.8393	0.0071
531.0358	0.0075
531.2322	-0.0022
531.4287	0.0014
531.6251	-0.0135
531.8215	-0.0053
532.0179	0.0046
532.2143	0.0124
532.4107	0.0025
532.607	-0.0008
532.8034	-0.0053
532.9997	-0.0035
533.196	0.0019
533.3923	-0.0006
533.5886	0.0041
533.7848	0
533.9811	0.0086
534.1773	0.0058
534.3735	0.0083
534.5697	-0.0007
534.7659	0.0001
534.9621	0.0045
535.1582	-0.0015
535.3544	0.0054
535.5505	-0.0006
535.7466	0.0126
535.9427	0.0015
536.1387	-0.0033
536.3348	0.0086
536.5308	0.0001
536.7269	-0.0015
536.9229	0.0039
537.1189	0.0041
537.3148	-0.0009
537.5108	-0.0004
537.7068	0.0005
537.9027	-0.0068
538.0986	0.0064
538.2945	0.0039
538.4904	-0.0057
538.6863	-0.0004
538.8821	0.0111
539.078	0.0032
539.2738	0.0008
539.4696	-0.0009
539.6654	0.0012
539.8611	0.0062
540.0569	-0.0036
540.2526	0.0072
540.4484	-0.0122
540.6441	-0.0033
540.8398	0.009
541.0355	0.0078
541.2311	-0.0059
541.4268	0.0081
541.6224	0.012
541.818	0.0096
542.0136	-0.0027
542.2092	0.0116
542.4048	0.0067
542.6003	0.0012
542.7959	-0.0012
542.9914	-0.0005
543.1869	0.0079
543.3824	-0.0069
543.5779	0.0124
543.7734	0.0079
543.9688	0.006
544.1642	-0.0041
544.3596	0.0095
544.555	-0.0027
544.7504	0.0155
544.9458	0.0046
545.1411	0.0076
545.3365	-0.0018
545.5318	0.0041
545.7271	0.0035
545.9224	-0.0043
546.1177	0.0031
546.3129	0.0085
546.5081	-0.001
546.7034	0.0021
546.8986	-0.005
547.0938	0.0101
547.289	0.0031
547.4841	0.0109
547.6793	-0.0009
547.8744	0.0062
548.0695	-0.0027
548.2646	0.0057
548.4597	0.0046
548.6548	0.0067
548.8498	0.0011
549.0448	0.0078
549.2399	0.0134
549.4349	-0.0042
549.6298	0.0008
549.8248	-0.002
550.0198	0.009
550.2147	0.0027
550.4096	-0.0003
550.6045	0.0104
550.7994	0.0044
550.9943	0.0207
551.1892	-0.0164
551.384	0.0141
551.5788	0.0097
551.7737	0.0132
551.9685	0.0027
552.1632	-0.0025
552.358	-0.0011
552.5528	0.0149
552.7475	0.0009
552.9422	0.0044
553.1369	0.007
553.3316	0.009
553.5263	0.0011
553.7209	0.0019
553.9156	0.0002
554.1102	0.0006
554.3048	-0.0018
554.4994	-0.0035
554.694	0.0002
554.8885	0.0054
555.0831	0.0083
555.2776	0.0045
555.4721	-0.002
555.6666	-0.0013
555.8611	0.0045
556.0555	0.0034
556.25	0.0068
556.4444	0.0013
556.6388	0.0037
556.8332	0.0006
557.0276	0.0186
557.222	-0.0022
557.4163	0.0014
557.6107	0.0005
557.805	-0.0039
557.9993	-0.0009
558.1936	-0.0056
558.3879	-0.002
558.5821	-0.0021
558.7764	-0.0024
558.9706	0.0013
559.1648	0.0018
559.359	-0.0052
559.5532	0.0013
559.7473	-0.0023
559.9415	0.0108
560.1356	0.0218
560.3297	-0.0046
560.5238	0.0138
560.7179	-0.0068
560.9119	0.0014
561.106	-0.0057
561.3	0.0069
561.494	0.0052
561.688	-0.0032
561.882	-0.0042
562.076	0.0123
562.2699	0.0036
562.4639	0.0172
562.6578	0.0013
562.8517	0.0036
563.0456	-0.0004
563.2395	0.009
563.4333	0.006
563.6272	0.0019
563.821	-0.0011
564.0148	-0.0026
564.2086	0.0006
564.4024	0.0086
564.5961	0.0101
564.7899	0.0118
564.9836	0.0045
565.1773	0.0084
565.371	0.0045
565.5647	0.0049
565.7584	0.0102
565.952	0.0008
566.1456	0
566.3393	0.0046
566.5329	0.0047
566.7264	0.0045
566.92	0.0017
567.1136	-0.0125
567.3071	-0.0032
567.5006	0.0103
567.6941	0.0027
567.8876	0.0025
568.0811	0.016
568.2745	-0.0006
568.468	0.0031
568.6614	0.0039
568.8548	0.0075
569.0482	0.0035
569.2416	-0.0021
569.4349	0.0016
569.6283	0.0006
569.8216	0.0049
570.0149	-0.0008
570.2082	0.0094
570.4015	0.0082
570.5947	0.0016
570.788	0.0067
570.9812	-0.0002
571.1744	0.0059
571.3676	0.0065
571.5608	0.0013
571.754	0.0082
571.9471	0.0068
572.1402	0.0073
572.3333	0.0006
572.5264	0.0037
572.7195	-0.0009
572.9126	0.003
573.1057	0.0016
573.2987	-0.0001
573.4917	0.0048
573.6847	0.0008
573.8777	0.0063
574.0707	0.0025
574.2636	0.0047
574.4566	0.0012
574.6495	0.0013
574.8424	0.0045
575.0353	0.0031
575.2281	0.0043
575.421	-0.0036
575.6138	-0.0007
575.8067	0.0062
575.9995	0.0031
576.1923	0.0068
576.385	0.0053
576.5778	0.007
576.7706	0.0021
576.9633	0.0061
577.156	-0.0034
577.3487	0.0024
577.5414	0.0007
577.734	0.0004
577.9267	0.0049
578.1193	0.0072
578.3119	0.0027
578.5045	-0.0003
578.6971	-0.0009
578.8897	0.0025
579.0822	0.0031
579.2747	0.0043
579.4673	0.0046
579.6598	0.0067
579.8522	-0.0011
580.0447	0.0053
580.2372	0.0054
580.4296	0.0033
580.622	0.0019
580.8144	0.0023
581.0068	0.001
581.1992	0.0017
581.3915	-0
581.5839	0.0042
581.7762	-0.0014
581.9685	-0.0007
582.1608	0.0013
582.353	0.0035
582.5453	0.0014
582.7375	0.0054
582.9298	0.001
583.122	-0.0012
583.3142	0.0064
583.5063	0.0045
583.6985	0.0011
583.8906	0.0015
584.0827	0.0057
584.2749	-0.0006
584.4669	0.0036
584.659	0.0038
584.8511	0.0043
585.0431	0.0022
585.2352	0.0019
585.4272	0.0054
585.6192	0.0038
585.8111	-0.001
586.0031	0.0032
586.195	0.001
586.387	0.0002
586.5789	0.0073
586.7708	0.0024
586.9627	0.0039
587.1545	0.0045
587.3464	0.0035
587.5382	0.0018
587.73	0.0052
587.9218	-0.0006
588.1136	-0.0034
588.3053	0.0003
588.4971	-0.001
588.6888	-0.0004
588.8805	0.0023
589.0722	0.0097
589.2639	0.002
589.4556	0.0072
589.6472	0.0109
589.8389	0.0044
590.0305	0.0015
590.2221	0.008
590.4137	0.005
590.6052	-0.0013
590.7968	0.0044
590.9883	0.0039
591.1798	-0.0059
591.3713	0.0006
591.5628	0.0046
591.7543	0.0061
591.9458	-0.0001
592.1372	0.0032
592.3286	0.0007
592.52	0.0013
592.7114	0.0005
592.9028	0.0054
593.0941	0.0019
593.2855	-0.0013
593.4768	0.0054
593.6681	0.0106
593.8594	0.0101
594.0506	-0.0001
594.2419	0.004
594.4331	0.0006
594.6244	-0.007
594.8156	-0.0013
595.0067	0.0006
595.1979	-0.0009
595.3891	0.0022
595.5802	0.0073
595.7713	0.0015
595.9624	0.0048
596.1535	-0.0014
596.3446	-0.0013
596.5357	0.0073
596.7267	0.0032
596.9177	0.0021
597.1087	-0.0033
597.2997	0.0068
597.4907	0.0002
597.6817	0.0034
597.8726	-0.0015
598.0635	-0.0032
598.2544	0.0068
598.4453	0.0033
598.6362	-0.0002
598.827	-0.0039
599.0179	0.0016
599.2087	0.0044
599.3995	0.011
599.5903	0.0057
599.7811	0.0088
599.9718	-0.0022
600.1626	-0.001
600.3533	-0.0023
600.544	0.0037
600.7347	0.0083
600.9254	0.0056
601.116	0.0081
601.3067	0.0025
601.4973	0.0056
601.6879	0.0032
601.8785	0.0075
602.0691	-0.0025
602.2596	0.0053
602.4502	0.0043
602.6407	0.0018
602.8312	0.0077
603.0217	0.0029
603.2122	0.002
603.4027	-0.0021
603.5931	0.0049
603.7835	0.0056
603.9739	-0.001
604.1643	0.0015
604.3547	0.0016
604.5451	0.0056
604.7354	-0.0011
604.9257	-0.0038
605.116	-0.0028
605.3063	0.005
605.4966	-0.0004
605.6869	0.0135
605.8771	0.0046
606.0673	0.0018
606.2575	-0.0011
606.4477	0.0036
606.6379	-0.0054
606.8281	-0.0025
607.0182	0.0024
607.2083	-0.0001
607.3985	-0.0001
607.5885	0.0003
607.7786	0.0064
607.9687	0.0052
608.1587	0.0121
608.3488	0.0025
608.5388	0.0012
608.7288	-0.001
608.9187	-0.0004
609.1087	0.0029
609.2986	0.0019
609.4886	0.0021
609.6785	0.0017
609.8684	-0.0027
610.0582	-0.0064
610.2481	-0.0026
610.4379	0.0072
610.6278	0.0049
610.8176	0.0097
611.0074	-0.002
611.1971	-0.0013
611.3869	0.0046
611.5766	-0.0025
611.7664	0.0059
611.9561	0.0052
612.1458	0.0062
612.3354	0.0028
612.5251	-0.0042
612.7147	0.003
612.9044	0.0045
613.094	-0.0033
613.2836	0.0039
613.4731	0.0047
613.6627	0.0058
613.8522	0.008
614.0417	0.0052
614.2313	0.0035
614.4207	0.0022
614.6102	0.0059
614.7997	0.0121
614.9891	0.0074
615.1785	-0.0049
615.3679	0.0092
615.5573	-0.0011
615.7467	0.0022
615.9361	-0.0046
616.1254	0.0113
616.3147	0.0027
616.504	0.0031
616.6933	-0
616.8826	-0.0016
617.0718	0.0041
617.2611	-0.0009
617.4503	0.0053
617.6395	0.0046
617.8287	0.0118
618.0179	-0.0047
618.207	0.018
618.3961	0.0017
618.5853	-0.0033
618.7744	0.0119
618.9634	0.0193
619.1525	0.0028
619.3416	-0.0082
619.5306	0.0044
619.7196	0.0058
619.9086	0.0002
620.0976	-0.0046
620.2866	0.0046
620.4755	0.0003
620.6645	0.0151
620.8534	0.008
621.0423	-0.0028
621.2312	0.0001
621.42	0.003
621.6089	0.0034
621.7977	0.0033
621.9865	-0.0026
622.1753	-0.0092
622.3641	-0.0116
622.5529	0.0015
622.7416	-0.0028
622.9303	-0.0074
623.1191	0.0131
623.3078	0.0042
623.4964	-0.0007
623.6851	0.0012
623.8737	-0.0023
624.0624	-0.0073
624.251	-0.0008
624.4396	-0.0004
624.6282	0.0055
624.8167	0.0021
625.0053	0.0106
625.1938	0.0067
625.3823	0.0043
625.5708	-0.0009
625.7593	-0.0026
625.9477	0.0131
626.1362	-0.0013
626.3246	0.0014
626.513	0.0076
626.7014	0.0011
626.8898	0.0173
627.0781	-0.0003
627.2665	0.0031
627.4548	-0.0078
627.6431	0.0052
627.8314	0.0085
628.0197	-0.0003
628.2079	-0.0101
628.3962	0.0079
628.5844	0.0034
628.7726	0.0004
628.9608	0.0044
629.1489	0.0083
629.3371	-0.0061
629.5252	0.0073
629.7134	-0.0036
629.9015	0.0082
630.0895	-0.005
630.2776	0.0026
630.4657	0.0125
630.6537	0.0106
630.8417	-0.0072
631.0297	0.0075
631.2177	0.0036
631.4057	0.0018
631.5936	-0.0061
631.7815	0.0073
631.9695	0.016
632.1574	0.0093
632.3452	0.013
632.5331	-0.0054
632.7209	0.0039
632.9088	-0.0029
633.0966	0.0159
633.2844	0.0011
633.4722	0.0102
633.6599	0.0098
633.8477	0.0081
634.0354	0.0099
634.2231	-0.0121
634.4108	-0.0032
634.5985	0.0042
634.7861	0.0022
634.9738	-0.0031
635.1614	0.009
635.349	0.0025
635.5366	0.004
635.7242	0.0069
635.9117	0.0053
636.0993	0.0023
636.2868	-0.0086
636.4743	0.0053
636.6618	-0.0102
636.8492	0.0086
637.0367	0.0064
637.2241	-0.0041
637.4115	0.0173
637.5989	0.0111
637.7863	0.0257
637.9737	0.0023
638.161	0.0084
638.3484	-0.0134
638.5357	0.0119
638.723	0.0259
638.9103	-0.0157
639.0975	0.0011
639.2848	-0.0006
639.472	0.0084
639.6592	-0.0128
639.8464	-0.0001
640.0336	-0.0091
640.2208	-0.0011
640.4079	-0.0215
640.595	-0.0082
640.7821	0.012
640.9692	-0.0061
641.1563	0.0037
641.3434	0.0125
641.5304	0.0325
641.7174	0.0113
641.9044	-0.011
642.0914	0.0053
642.2784	0.0027
642.4653	-0.0182
642.6523	0.0123
642.8392	-0.0087
643.0261	0.0121
643.213	0.0059
643.3999	0.0172
643.5867	0.0118
643.7735	-0.0064
643.9604	0.0196
644.1472	-0.0008
644.3339	-0.0047
644.5207	-0.0098
644.7075	-0.0035
644.8942	-0.0099
645.0809	0.0034
645.2676	-0.0185
645.4543	0.0057
645.6409	0.0032
645.8276	-0.0021
646.0142	0.0119
646.2008	-0.0018
646.3874	0.0012
646.574	0.0138
646.7605	0.011
646.9471	-0.0026
647.1336	-0.0341
647.3201	0.0151
647.5066	0.0068
647.6931	0.004
647.8795	-0.0044
648.0659	0.0078
648.2524	-0.0056
648.4388	-0.0042
648.6252	0.0113
648.8115	0.0031
648.9979	0.0046
649.1842	-0.0023
649.3705	0.0135
649.5568	-0.0081
649.7431	-0.008
649.9294	-0.0164
650.1156	-0.014
650.3018	0.0023
650.488	-0.0107
650.6742	0.0214
650.8604	0.0111
651.0466	-0.0093
651.2327	0.0003
651.4188	-0.0024
651.6049	0.0106
651.791	-0.0022
651.9771	0.009
652.1632	0.0099
652.3492	-0.0083
652.5352	0.0124
652.7212	-0.0098
652.9072	0.01
653.0932	0.0106
653.2791	-0.0037
653.465	0.0041
653.651	-0.0005
653.8369	-0.0005
654.0227	0.0067
654.2086	0.0055
654.3944	0.0043
654.5803	0.0037
654.7661	0.0057
654.9519	-0.0015
655.1377	-0
655.3234	-0
655.5092	-0
655.6949	-0
655.8806	-0
656.0663	-0
656.2519	-0
656.4376	-0
656.6232	-0
656.8088	-0
656.9945	-0
657.18	-0
657.3656	-0
657.5511	-0
657.7367	-0
657.9222	-0
658.1077	-0
658.2932	-0
658.4786	-0
658.6641	-0
658.8495	-0
659.0349	-0
659.2203	-0
659.4057	-0
659.591	0.0662
659.7764	0.0215
659.9617	0.0002
660.147	-0.0036
660.3323	0.0003
660.5176	-0.004
660.7028	-0.0136
660.888	0.0008
661.0733	0.0159
661.2585	0.0038
661.4436	0.0023
661.6288	0.0214
661.8139	-0.0084
661.9991	-0.0379
662.1842	-0.0169
662.3693	0.0049
662.5544	0.0101
662.7394	0.0089
662.9245	-0.0221
663.1095	-0.0116
663.2945	-0.0219
663.4795	-0.0214
663.6644	0.0089
663.8494	0.0067
664.0343	-0.0077
664.2193	-0.0113
664.4042	0.0006
664.589	-0.0074
664.7739	0.0108
664.9587	-0.007
665.1436	-0.0018
665.3284	0.0077
665.5132	-0.0045
665.698	-0.0138
665.8827	-0.006
666.0675	-0.0169
666.2522	0.002
666.4369	-0.0076
666.6216	-0.0079
666.8063	0.0049
666.9909	-0.0135
667.1756	-0.0164
667.3602	0.0272
667.5448	-0.013
667.7294	0.0211
667.9139	-0.0095
668.0985	0.0066
668.283	-0.0152
668.4675	-0.0031
668.652	0.0202
668.8365	-0.0225
669.0209	0.0073
669.2054	0.0216
669.3898	-0.0099
669.5742	0.0028
669.7586	0.0195
669.943	-0.0056
670.1273	-0.0089
670.3117	0.0262
670.496	0.0043
670.6803	-0.0172
670.8646	-0.0216
671.0488	0.0289
671.2331	-0.0153
671.4173	0.0018
671.6015	0.003
671.7857	0.0054
671.9699	0.0135
672.1541	-0.0065
672.3382	0.0048
672.5223	0.0033
672.7064	-0.0088
672.8905	-0.011
673.0746	0.0009
673.2587	0.019
673.4427	0.0123
673.6267	0.0227
673.8107	0.0154
673.9947	0.0001
674.1787	-0.0038
674.3626	0.0068
674.5465	-0.0008
674.7304	-0.0076
674.9143	-0.0008
675.0982	0.0014
675.2821	-0.0087
675.4659	-0.0242
675.6497	0.0078
675.8335	-0.0055
676.0173	-0.0129
676.2011	-0.0031
676.3849	-0.0166
676.5686	0.0057
676.7523	0.0038
676.936	-0.0101
677.1197	-0.0121
677.3034	0.029
677.487	0.0141
677.6706	0.0032
677.8542	-0.001
678.0378	-0.0088
678.2214	0.0137
678.405	-0.0081
678.5885	0.0014
678.772	0.0186
678.9555	0.0045
679.139	0.0083
679.3225	0.0008
679.5059	-0.0069
679.6894	-0.0088
679.8728	0.0085
680.0562	-0.0102
680.2395	-0.0179
680.4229	-0.0073
680.6062	0.0088
680.7896	-0.0174
680.9729	0.0129
681.1562	-0.0075
681.3394	-0.0228
681.5227	-0.0057
681.7059	0.0031
681.8891	0.0017
682.0723	-0.0127
682.2555	-0.0155
682.4387	-0.0056
682.6218	0.0133
682.805	0.0044
682.9881	0.0132
683.1712	-0.0007
683.3542	0.0217
683.5373	0.0102
683.7203	-0.0052
683.9034	0.0001
684.0864	-0.0087
684.2694	-0.0039
684.4523	0.0128
684.6353	0.0051
684.8182	-0.0032
685.0011	0.0088
685.184	-0.0041
685.3669	0.0052
685.5498	-0.0042
685.7326	-0.0162
685.9154	-0.0214
686.0982	0.0122
686.281	-0.0128
686.4638	-0.0039
686.6465	0.0017
686.8293	-0.0068
687.012	0.0106
687.1947	-0.0014
687.3774	0.0197
687.56	-0.0028
687.7427	-0.002
687.9253	-0.017
688.1079	-0.006
688.2905	-0.0127
688.4731	0.012
688.6556	-0.0002
688.8382	-0.0203
689.0207	-0.0039
689.2032	0.0103
689.3857	-0.0162
689.5681	-0.007
689.7506	0.0238
689.933	0.0197
690.1154	0.0027
690.2978	0.0134
690.4802	0.011
690.6626	-0.0019
690.8449	0.029
691.0272	-0.0092
691.2095	-0.0237
691.3918	-0.001
691.5741	0.0051
691.7563	0.0103
691.9386	0.0143
692.1208	0.006
692.303	0.0041
692.4852	0.0151
692.6673	-0.0062
692.8495	-0.0258
693.0316	0.0093
693.2137	-0.002
693.3958	-0.0086
693.5778	-0.0002
693.7599	0.0068
693.9419	0.0128
694.1239	0.0091
694.3059	0.0145
694.4879	-0.017
694.6699	-0.0013
694.8518	0.0126
695.0337	0.0108
695.2157	0.0175
695.3975	-0.0228
695.5794	-0.0013
695.7613	0.0126
695.9431	-0.0206
696.1249	0.0132
696.3067	-0.0069
696.4885	0.0119
696.6703	0.0049
696.852	-0.0063
697.0337	0.008
697.2154	0.0015
697.3971	0.009
697.5788	0.0082
697.7605	-0.0169
697.9421	0.004
698.1237	0.0266
698.3053	-0.0148
698.4869	0.0079
698.6685	-0.0099
698.85	0.0133
699.0315	-0.0061
699.213	0.0075
699.3945	-0.0009
699.576	0.0182
699.7575	0.0225
699.9389	-0.0215
700.1203	-0.0147
700.3017	0.0109
700.4831	-0.008
700.6645	0.0289
700.8458	-0.0053
701.0271	0.0586
701.2084	-0.0014
701.3897	0.0215
701.571	-0.0058
701.7523	-0.0053
701.9335	-0.0005
702.1147	0.0081
702.2959	-0.0155
702.4771	0.011
702.6583	-0.0193
702.8394	-0.0193
703.0205	0.0287
703.2016	0.002
703.3827	-0.0033
703.5638	-0.0122
703.7449	0.0113
703.9259	0.0027
704.1069	-0.0115
704.2879	0.0081
704.4689	-0.0024
704.6499	0.0089
704.8308	0.0124
705.0117	0.0033
705.1927	0.0097
705.3735	-0.0051
705.5544	0.0056
705.7353	-0.0061
705.9161	-0.0333
706.0969	-0.0033
706.2777	-0.0028
706.4585	0.0051
706.6393	0.005
706.82	0.0039
707.0007	-0.0058
707.1815	-0.0006
707.3621	0.0145
707.5428	0.0028
707.7235	0.0023
707.9041	0.0193
708.0847	-0.0099
708.2653	0.0256
708.4459	-0.0133
708.6265	0.0059
708.807	0.0131
708.9875	0.0005
709.168	0.0134
709.3485	0.0183
709.529	0.0105
709.7095	-0.0151
709.8899	0.009
710.0703	0.0042
710.2507	0.0118
710.4311	-0.0132
710.6115	0.0197
710.7918	0.0034
710.9721	-0.0238
711.1524	-0.0133
711.3327	-0.0038
711.513	0.0115
711.6932	-0.0208
711.8735	0.0094
712.0537	-0.0305
712.2339	-0.0118
712.4141	0.0154
712.5942	-0.0195
712.7744	0.0239
712.9545	0.0098
713.1346	0.0217
713.3147	-0.0126
713.4947	-0.0062
713.6748	0.003
713.8548	0.0033
714.0348	0.0178
714.2148	0.0215
714.3948	0.0097
714.5748	0.0113
714.7547	0.0348
714.9346	0.0156
715.1145	-0.0012
715.2944	-0.0119
715.4743	0.0101
715.6541	-0.0252
715.834	0.0326
716.0138	0.0242
716.1936	0.011
716.3733	-0.0068
716.5531	-0.0198
716.7328	0.0049
716.9126	-0.0112
717.0923	-0.012
717.2719	-0.0101
717.4516	-0.003
717.6312	-0.0127
717.8109	0.0278
717.9905	0.0309
718.1701	0.017
718.3496	-0.0258
718.5292	0.025
718.7087	-0.0058
718.8882	0.0093
719.0677	0.0013
719.2472	-0.0006
719.4267	-0.0043
719.6061	-0.0296
719.7856	0.0246
719.965	0.0121
720.1443	-0.0107
720.3237	0.0085
720.5031	-0.0014
720.6824	0.0204
720.8617	-0.0058
721.041	0.021
721.2203	-0.0246
721.3995	0.0009
721.5788	0.0029
721.758	-0.0181
721.9372	0.0099
722.1164	-0.0171
722.2956	0.0064
722.4747	0.0405
722.6538	0.021
722.8329	0.0369
723.012	0.0202
723.1911	-0.0128
723.3702	0.0074
723.5492	0.001
723.7282	-0.0079
723.9072	0.0049
724.0862	-0.0012
724.2652	-0.0125
724.4441	-0.0186
724.623	0.0043
724.8019	-0.0146
724.9808	0.0088
725.1597	0.007
725.3385	0.0135
725.5174	-0.0032
725.6962	-0.0056
725.875	0.0085
726.0538	-0.0064
726.2325	0.015
726.4112	-0.027
726.59	0.0064
726.7687	-0.0125
726.9474	-0.0035
727.126	0.0172
727.3047	0.0013
727.4833	-0.0069
727.6619	-0.0164
727.8405	-0.014
728.0191	0.0022
728.1976	-0.0206
728.3762	0.0012
728.5547	-0.006
728.7332	0.0166
728.9116	-0.0089
729.0901	0.0181
729.2686	-0.0024
729.447	0.004
729.6254	-0.0017
729.8038	-0.0052
729.9821	-0.0184
730.1605	0.007
730.3388	0.0004
730.5171	0.0076
730.6954	-0.0221
730.8737	-0.0001
731.0519	-0.0012
731.2302	0.0156
731.4084	-0.0111
731.5866	0.0142
731.7648	0.0178
731.9429	0.0019
732.1211	-0.0081
732.2992	0.0077
732.4773	-0.0004
732.6554	-0.0133
732.8335	0.027
733.0115	0.0022
733.1896	-0.0084
733.3676	0.0149
733.5456	-0.0024
733.7235	-0.0017
733.9015	-0.004
734.0794	-0.0137
734.2574	-0.0273
734.4353	0.028
734.6131	-0.0144
734.791	0.0021
734.9689	-0.0027
735.1467	-0.0065
735.3245	-0.0049
735.5023	0.0012
735.68	0.0084
735.8578	0.0044
736.0355	0.0144
736.2132	-0.0142
736.3909	0.0106
736.5686	-0.0002
736.7463	-0.0142
736.9239	0.0156
737.1015	0.0064
737.2791	0.0156
737.4567	0.0102
737.6343	-0.0122
737.8118	0.0361
737.9894	0.0026
738.1669	-0.0045
738.3444	0.0264
738.5218	-0.0088
738.6993	0.0234
738.8767	0.0001
739.0541	-0.0083
739.2315	0.0227
739.4089	0.0134
739.5863	-0.0071
739.7636	-0.0094
739.9409	-0.0056
740.1182	0.0025
740.2955	0.0307
740.4728	-0.0105
740.65	-0.0181
740.8272	0.0046
741.0044	-0.0269
741.1816	0.0102
741.3588	-0.0469
741.5359	-0.0053
741.7131	0.0087
741.8902	0.0136
742.0673	0.006
742.2444	0.0077
742.4214	0.0649
742.5985	0.0052
742.7755	0.0063
742.9525	-0.0223
743.1295	-0.0792
743.3064	0.015
743.4834	0.0123
743.6603	0.0379
743.8372	-0.0385
744.0141	0.03
744.191	-0.0003
744.3678	-0.0336
744.5446	0.0043
744.7215	-0.0077
744.8982	-0.0048
745.075	0.021
745.2518	-0.0043
745.4285	0.0154
745.6052	-0.0352
745.7819	-0.0194
745.9586	-0.0131
746.1353	-0.0109
746.3119	0.0194
746.4885	0.0109
746.6651	0.0102
746.8417	-0.0147
747.0183	0.0181
747.1948	0.0032
747.3714	-0.0086
747.5479	0.022
747.7244	-0.0202
747.9008	0.0087
748.0773	-0.004
748.2537	0.0075
748.4301	0.0031
748.6065	-0.0236
748.7829	-0.0065
748.9593	-0.0067
749.1356	0.0026
749.3119	-0.0052
749.4882	0.0212
749.6645	-0.0029
749.8408	0.0241
750.017	0.0087
750.1933	-0.0197
750.3695	0.0147
750.5457	0.0042
750.7218	-0.0071
750.898	-0.0322
751.0741	0.0017
751.2502	0.0229
751.4263	-0.0114
751.6024	-0.0047
751.7784	-0.0016
751.9545	0.0095
752.1305	0.0167
752.3065	-0.0037
752.4825	-0.0288
752.6584	0.0041
752.8344	-0.0133
753.0103	-0.023
753.1862	0.0262
753.3621	-0.0099
753.5379	-0.0019
753.7138	0.0188
753.8896	0.0133
754.0654	-0.0031
754.2412	0.011
754.417	-0.0082
754.5927	0.0015
754.7685	0.0062
754.9442	-0.0005
755.1199	0.0024
755.2956	-0.0046
755.4712	-0.0043
755.6469	-0.0045
755.8225	0.0021
755.9981	0.0113
756.1736	0.0045
756.3492	-0.0045
756.5248	0.0046
756.7003	-0.0047
756.8758	0.0035
757.0513	-0.0112
757.2267	0.0125
757.4022	-0.0029
757.5776	-0.0017
757.753	0.0133
757.9284	-0.0057
758.1038	0.0063
758.2791	0.0043
758.4545	-0.0028
758.6298	-0.0028
758.8051	0.0253
758.9803	0.0051
759.1556	-0.0017
759.3308	-0.0044
759.506	0.0115
759.6812	0.0005
759.8564	0.0016
760.0316	-0.0066
760.2067	0.0195
760.3819	-0.0083
760.557	0.0003
760.732	-0.0088
760.9071	0.0217
761.0821	-0.019
761.2572	0.0079
761.4322	0.0064
761.6072	0.0094
761.7821	-0.0333
761.9571	0.0275
762.132	0.0106
762.3069	0.0048
762.4818	0.0071
762.6567	0.0046
762.8316	0.031
763.0064	0.0157
763.1812	0.0097
763.356	-0.0154
763.5308	0.0201
763.7055	0.0153
763.8803	-0.0041
764.055	-0.0099
764.2297	-0.0022
764.4044	-0.008
764.579	0.0024
764.7537	-0.0025
764.9283	0.0268
765.1029	-0.0077
765.2775	0.0187
765.4521	0.0092
765.6266	0.0125
765.8011	0.0174
765.9756	0.0034
766.1501	-0.0155
766.3246	0.007
766.4991	-0.0036
766.6735	0.0519
766.8479	0.005
767.0223	0.0192
767.1967	0.0105
767.371	-0.0059
767.5454	0.0262
767.7197	-0.0084
767.894	-0.0102
768.0683	0.0373
768.2425	0.0069
768.4168	0.0182
768.591	-0.002
768.7652	-0.0332
768.9394	-0.0261
769.1135	-0.021
769.2877	0.0238
769.4618	0.0197
769.6359	0.0039
769.81	0.0076
769.984	0.0054
770.1581	0.0085
770.3321	0.0191
770.5061	-0.0023
770.6801	0.0216
770.8541	-0.0009
771.028	0.039
771.202	0.0144
771.3759	0.0044
771.5498	0.0314
771.7236	0.0033
771.8975	0.0002
772.0713	0.0409
772.2451	-0.0354
772.4189	-0.0132
772.5927	-0.0277
772.7665	-0.0155
772.9402	0.0278
773.1139	-0.0265
773.2876	-0.0117
773.4613	-0.0076
773.635	0.0066
773.8086	0.0128
773.9822	0.0015
774.1558	-0.0003
774.3294	0.003
774.503	0.0073
774.6765	0.0492
774.8501	-0.0085
775.0236	0.0146
775.1971	-0.0065
775.3705	0.0019
775.544	-0.0715
775.7174	-0.0029
775.8908	0.02
776.0642	0.0086
776.2376	-0.0054
776.4109	0.0161
776.5843	0.0156
776.7576	0.0106
776.9309	-0.0087
777.1041	-0.0569
777.2774	-0.0175
777.4506	0.0187
777.6238	-0.047
777.797	-0.0032
777.9702	-0.0101
778.1434	-0.0244
778.3165	-0.0536
778.4896	-0.0256
778.6627	0.0284
778.8358	0.0055
779.0089	-0.0151
779.1819	0.0348
779.3549	-0.0084
779.5279	-0.0238
779.7009	0.0099
779.8739	0.0132
780.0468	-0.019
780.2197	0.0063
780.3926	-0.0337
780.5655	0.0214
780.7384	-0.0238
780.9112	0.0328
781.0841	-0.0103
781.2569	0.0153
781.4297	0.0025
781.6024	0.0178
781.7752	0.0284
781.9479	0.0105
782.1206	0.0158
782.2933	0.0031
782.466	0.0232
782.6386	-0.0204
782.8113	0.0055
782.9839	0.0056
783.1565	0.0119
783.329	-0.0117
783.5016	0.0083
783.6741	-0.0332
783.8466	0.0261
784.0191	0.0079
784.1916	-0.06
784.3641	-0.0781
784.5365	0.0452
784.7089	-0.0224
784.8813	0.0522
785.0537	-0.0024
785.2261	0.0177
785.3984	-0.0106
785.5707	-0.0156
785.743	0.0009
785.9153	0.0048
786.0876	-0.0161
786.2598	-0.0115
786.432	-0.0063
786.6042	0.0589
786.7764	-0.0123
786.9486	-0.0113
787.1207	0.0719
787.2928	0.0251
787.4649	0.0127
787.637	-0.0176
787.8091	0.0061
787.9811	0.0322
788.1532	-0.0026
788.3252	0.0144
788.4972	-0.0186
788.6691	0.0133
788.8411	-0.0087
789.013	0.0104
789.1849	0.0082
789.3568	-0.0067
789.5287	0.0208
789.7005	-0.0781
789.8723	-0.0207
790.0442	-0.034
790.2159	-0.0037
790.3877	0.0614
790.5595	0.0015
790.7312	0.0054
790.9029	-0.0087
791.0746	0.0347
791.2463	-0.0469
791.4179	-0.0559
791.5896	-0.0272
791.7612	0.0024
791.9328	-0.0249
792.1044	0.0474
792.2759	-0.0786
792.4474	0.0294
792.619	-0.026
792.7905	0.0167
792.9619	0.0349
793.1334	0.0496
793.3048	0.0388
793.4762	-0.0234
793.6476	-0.0649
793.819	-0.018
793.9904	-0.0222
794.1617	-0.0239
794.333	-0.0089
794.5043	0.0386
794.6756	-0.0112
794.8469	0.0083
795.0181	0.0269
795.1893	0.0009
795.3605	0.0196
795.5317	0.0215
795.7029	-0.0527
795.874	-0.0311
796.0452	0.051
796.2163	0.071
796.3873	0.0765
796.5584	0.0955
796.7294	-0.0379
796.9005	0.0739
797.0715	0.0118
797.2425	0.0693
797.4134	0.0141
797.5844	-0.0032
797.7553	-0.0629
797.9262	0.0429
798.0971	0.043
798.2679	-0.0355
798.4388	0.0177
798.6096	-0.031
798.7804	0.0361
798.9512	0.0824
799.122	-0.0158
799.2927	0.061
799.4635	-0.0485
799.6342	-0.1273
799.8049	0.0287
799.9755	-0.0367
800.1462	0.0376
800.3168	0.0376
800.4874	-0.0825
800.658	-0.0047
800.8286	-0.007
800.9991	0.107
801.1696	-0.0566
801.3402	0.0235
801.5106	-0.1181
801.6811	-0.0975
801.8516	0.0607
802.022	-0.0423
802.1924	-0.0428
802.3628	0.0087
802.5332	0.0952
802.7035	0.1161
802.8739	0.0047
803.0442	0.0064
803.2145	-0.0122
803.3847	0.0022
803.555	0.0913
803.7252	0.0152
803.8954	-0.0774
804.0656	-0.0258
804.2358	-0.0713
804.4059	0.0712
804.5761	0.0104
804.7462	-0.0373
804.9163	0.0723
805.0864	-0.0502
805.2564	-0.0104
805.4264	-0.0042
805.5965	0.0312
805.7665	0.0225
805.9364	0.0313
806.1064	-0.0088
806.2763	0.043
806.4462	0.0164
806.6161	0.0379
806.786	-0.0114
806.9559	0.0033
807.1257	-0.0213
807.2955	-0.0161
807.4653	0.0041
807.6351	0.0579
807.8048	-0.0129
807.9746	0.0314
808.1443	-0.0269
808.314	-0.0178
808.4837	-0.0081
808.6533	0.0022
808.8229	-0.0144
808.9926	0.0316
809.1622	0.0581
809.3317	0.0024
809.5013	-0.0293
809.6708	-0.001
809.8403	0.067
810.0098	0.0152
810.1793	0.1126
810.3488	-0.0987
810.5182	0.0305
810.6876	-0.0381
810.857	0.1
811.0264	-0.1325
811.1958	0.1472
811.3651	-0.0014
811.5344	0.0175
811.7037	0.0299
811.873	0.0618
812.0422	-0.114
812.2115	-0.0758
812.3807	-0.1051
812.5499	-0.0142
812.7191	-0.1454
812.8882	-0.114
813.0574	0.0365
813.2265	0.0411
813.3956	-0.0195
813.5646	-0.034
813.7337	-0.0064
813.9027	-0.0796
814.0718	0.0435
814.2407	0.0915
814.4097	0.0677
814.5787	0.0752
814.7476	-0.045
814.9165	0.037
815.0854	-0.0178
815.2543	-0.0106
815.4232	-0.0137
815.592	0.1029
815.7608	-0.1534
815.9296	-0.0016
816.0984	-0.0259
816.2671	-0.1091
816.4359	0.0637
816.6046	-0.0665
816.7733	0.0373
816.942	-0.0968
817.1106	0.2203
817.2793	-0.0428
817.4479	-0.0152
817.6165	0.0238
817.785	0.0589
817.9536	-0.0942
818.1221	0.0199
818.2906	-0.1756
818.4591	-0.0707
818.6276	0.0503
818.7961	0.0556
818.9645	0.0356
819.1329	0.046
819.3013	-0.0441
819.4697	0.0485
819.638	-0.0158
819.8064	0.0463
819.9747	0.0844
820.143	-0.131
820.3113	0.1915
820.4795	-0.0123
820.6477	0.0421
820.816	-0.0168
820.9842	0.1999
821.1523	0.0686
821.3205	-0.0525
821.4886	-0.125
821.6567	-0.0359
821.8248	0.1691
821.9929	-0.1541
822.1609	-0.0372
822.329	0.136
822.497	0.0161
822.665	0.0178
822.833	-0.1166
823.0009	0.0086
823.1688	0.0465
823.3367	-0.1097
823.5046	0.0039
823.6725	-0.0424
823.8404	-0.0075
824.0082	-0.0846
824.176	-0.0676
824.3438	0.2285
824.5116	-0.0909
824.6793	0.116
824.847	-0.1237
825.0147	-0.0542
825.1824	0.0118
825.3501	0.1039
825.5177	0.0121
825.6854	-0.1124
825.853	0.0193
826.0206	-0.0953
826.1881	0.1324
826.3557	-0.0125
826.5232	-0.0289
826.6907	-0.0459
826.8582	-0.1367
827.0257	0.0965
827.1931	0.1141
827.3605	-0.1327
827.528	-0.0182
827.6953	-0.2499
827.8627	-0.1678
828.03	0.1782
828.1974	-0.0726
828.3647	0.0038
828.532	-0.0831
828.6992	-0.0812
828.8665	-0.1252
829.0337	0.0579
829.2009	-0.2096
829.3681	0.0013
829.5352	-0.2925
829.7024	0.0384
829.8695	-0.0487
830.0366	0.0785
830.2037	0.068
830.3707	-0.0199
830.5378	-0.101
830.7048	-0.1692
830.8718	-0.0316
831.0388	-0.1185
831.2057	0.079
831.3727	-0.3294
831.5396	-0.0613
831.7065	-1.0555
831.8734	0.1008
832.0402	0.0206
832.2071	-0.591
832.3739	-0.3068
832.5407	-0
832.7075	-0.5749
832.8742	0.2297
833.041	-0.0265
833.2077	0.1021
833.3744	-0.0801
833.541	0.2538
833.7077	-0.0505
833.8743	0.0103
834.0409	-0.1121
834.2075	0.0502
834.3741	-0.3045
834.5407	-0.0901
834.7072	-0.0983
834.8737	0.1467
835.0402	0.4386
835.2067	-0.0534
835.3731	-0.0031
835.5395	-0.0508
835.706	-0.2693
835.8723	-0.0834
836.0387	0.9872
836.2051	-0.0281
836.3714	-0.1974
836.5377	0.0197
836.704	0.0205
836.8703	-0.1801
837.0365	-0.8696
837.2027	0.0727
837.3689	-0.0853
837.5351	-0.0434
837.7013	-0.213
837.8674	-0.2877
838.0335	-0.1467
838.1997	-0.1745
838.3657	-0
838.5318	-0.4931
838.6978	-0
838.8639	-0.0766
839.0299	-0.1218
839.1958	-0.0377
839.3618	0.6577
839.5277	-0.0889
839.6937	-0.1816
839.8596	-0.337
840.0254	-0.088
840.1913	-0.3959
840.3571	-0.2309
840.523	-0
840.6888	-0.2012
840.8545	0.3085
841.0203	0.0022
841.186	-0.0327
841.3517	-0.2078
841.5174	-0.0477
841.6831	0.044
841.8488	0.2476
842.0144	-0.197
842.18	0.3848
842.3456	-0.4585
842.5112	-0
842.6767	0.1678
842.8422	-0.1024
843.0077	0.1682
843.1732	-0.436
843.3387	-0.0909
843.5042	-0
843.6696	-0.09
843.835	2.317
844.0004	0.2835
844.1657	-0.8856
844.3311	-0.042
844.4964	-0.792
844.6617	0.13
844.827	-0
844.9923	-0.0308
845.1575	0.5559
845.3227	-0.4076
845.4879	-0.143
845.6531	-0.1161
845.8183	-0.023
845.9834	0.012
846.1485	0.1884
846.3136	-0.3654
846.4787	-0
846.6438	-0.1606
846.8088	0.4584
846.9738	0.1606
847.1388	0.178
847.3038	0.0323
847.4687	1.1522
847.6337	-0.5899
847.7986	0.0206
847.9635	0.0154
848.1284	0.5548
848.2932	0.0622
848.458	-0
848.6228	0.0426
848.7876	-0
848.9524	-0
849.1172	-1.7136
849.2819	-0
849.4466	-0.0954
849.6113	-0.2212
849.7759	-0
849.9406	-0.2481
850.1052	-0.7125
850.2698	0.2062
850.4344	-0
850.599	0.0497
850.7635	0.1833
850.928	0.6273
851.0925	0.1999
851.257	-0.2875
851.4215	0.4003
851.5859	0.1819
851.7503	-0
851.9147	-0.6633
852.0791	0.0492
852.2434	0.3438
852.4078	-0
852.5721	-0.023
852.7364	0.026
852.9007	0.6882
853.0649	-0
853.2291	0.0331
853.3934	-0
853.5575	0.1253
853.7217	0.6072
853.8859	-0.2101
854.05	-0.512
854.2141	0.5665
854.3782	0.0247
854.5423	0.2379
854.7063	0.3857
854.8703	-0.1437
855.0343	-0.1296
855.1983	-0.0191
855.3623	0.2785
855.5262	-0
855.6901	0.0613
855.854	0.0732
856.0179	0.232
856.1818	0.0563
856.3456	0.7485
856.5094	-0.587
856.6732	-0.3833
856.837	-1.1214
857.0008	0.2204
857.1645	-0.173
857.3282	-0.5366
857.4919	-0
857.6556	-0.4466
857.8192	-0.2296
857.9828	-0.4186
858.1465	-0.246
858.31	-0
858.4736	-0
858.6372	0.2619
858.8007	-0.2332
858.9642	0.0141
859.1277	-0
859.2911	-0.6535
859.4546	-0
859.618	0.0939
859.7814	-0
859.9448	-0
860.1081	-0
860.2715	-1.7136
860.4348	-0.0668
860.5981	-0.0951
860.7614	0.0567
860.9246	0.0764
861.0879	0.1524
861.2511	-0.3476
861.4143	-0.7729
861.5774	-0.5293
861.7406	-0.1454
861.9037	-0
862.0668	0.1606
862.2299	0.4082
862.393	-0
862.556	-0
862.7191	1.1257
862.8821	0.2341
863.0451	0.0414
863.208	-0.5041
863.371	-0.74
863.5339	0.1923
863.6968	-0.2619
863.8597	-0.1722
864.0225	-0.5201
864.1854	-0.4296
864.3482	-0.7964
864.511	-0.134
864.6737	-0
864.8365	-0.084
864.9992	-0
865.1619	-0.2571
865.3246	-0
865.4873	-0.7131
865.65	-0
865.8126	0.0481
865.9752	-0.0271
866.1378	-0.1375
866.3004	-0.2613
866.4629	-1.5989
866.6254	-0
866.7879	-0.0513
866.9504	-0
867.1129	0.1567
867.2753	-0.3172
867.4377	-0.2934
867.6001	0.3416
867.7625	-0.0761
867.9249	0.1191
868.0872	-0.1368
868.2495	-0.0476
868.4118	-0
868.5741	-0.5459
868.7363	-0.6926
868.8986	-0.6291
869.0608	0.2346
869.223	-0.4006
869.3851	-0
869.5473	-0.2924
869.7094	-0
869.8715	-1.0386
870.0336	-0.1605
870.1957	-0
870.3577	0.1304
870.5197	0.4055
870.6817	-0.7277
870.8437	-0
871.0057	0.4351
871.1676	0.9402
871.3295	-0.1495
871.4914	-0
871.6533	0.4434
871.8151	0.0686
871.977	-0.533
872.1388	0.0093
872.3006	-0.6867
872.4623	-0.6313
872.6241	-0
872.7858	0.4376
872.9475	0.0736
873.1092	0.026
873.2709	0.088
873.4325	-1.7415
873.5941	-0
873.7557	0.3516
873.9173	-0.0085
874.0789	0.1227
874.2404	-0
874.4019	-0.1403
874.5634	-0
874.7249	0.2364
874.8863	-0
875.0478	-0.2441
875.2092	0.2362
875.3706	0.0051
875.5319	0.1599
875.6933	0.4783
875.8546	-0.4611
876.0159	0.427
876.1772	0.4809
876.3385	0.1335
876.4997	-0
876.6609	-0
876.8221	-0
876.9833	0.4044
877.1445	0.4508
877.3056	-1.158
877.4667	-0
877.6278	-0
877.7889	-0
877.9499	0.3044
878.111	-0.5778
878.272	-0
878.433	-0.4735
878.5939	0.086
878.7549	-0.1259
878.9158	-0
879.0767	0.3348
879.2376	-0.2259
879.3984	1.148
879.5593	0.2661
879.7201	-0.7347
879.8809	-0.5597
880.0417	-0.1411
880.2024	-0
880.3632	-0.5063
880.5239	-0.2179
880.6846	-0.6702
880.8452	0.0493
881.0059	-0.8225
881.1665	0.174
881.3271	-0
881.4877	0.1617
881.6483	-1.0749
881.8088	-0
881.9693	-0
882.1298	-0
882.2903	-0
