Data from D4ACN5uM460nmA_Absorbance_13-05-42-126.txt Node
Date: Fri Feb 21 13:05:42 GMT 2025
User: LASERRRRR
Spectrometer: FLMT03099
Trigger mode: 0
Integration Time (sec): 1.500000E-2
Scans to average: 1
Electric dark correction enabled: true
Nonlinearity correction enabled: false
Boxcar width: 0
XAxis mode: Wavelengths
Number of Pixels in Spectrum: 3648
>>>>>Begin Spectral Data<<<<<
179.3399	-0
179.5586	-0
179.7771	-0
179.9957	-0.2284
180.2143	-0
180.4329	-0.1331
180.6514	-0
180.8699	0.0582
181.0885	0.1226
181.307	0.5578
181.5255	0.2767
181.744	0.9208
181.9625	0.6555
182.181	-0.1494
182.3994	-0.1727
182.6179	-0.2874
182.8363	-0
183.0547	0.1588
183.2732	-0.0453
183.4916	0.1543
183.71	0.1832
183.9284	0.2008
184.1467	0.2086
184.3651	0.049
184.5835	0.1387
184.8018	0.1246
185.0201	-0.0346
185.2385	0.2863
185.4568	0.1401
185.6751	0.2817
185.8934	0.2977
186.1117	-0.0341
186.3299	0.1347
186.5482	0.1936
186.7664	0.0387
186.9847	-0.0233
187.2029	0.2727
187.4211	0.0217
187.6393	0.095
187.8575	0.4897
188.0757	0.7607
188.2939	0.1285
188.512	0.1774
188.7302	0.1742
188.9483	0.324
189.1665	0.4257
189.3846	0.0763
189.6027	-0.0004
189.8208	0.1314
190.0389	0.1312
190.257	0.0687
190.475	0.015
190.6931	0.0957
190.9111	0.012
191.1292	0.0396
191.3472	0.1531
191.5652	0.0528
191.7832	0.0979
192.0012	0.0967
192.2192	0.1262
192.4371	0.1128
192.6551	0.3375
192.873	0.1007
193.091	0.1496
193.3089	0.1181
193.5268	0.2128
193.7447	0.1722
193.9626	0.2214
194.1805	0.2288
194.3984	0.2854
194.6162	0.3366
194.8341	0.3272
195.0519	0.1643
195.2697	0.3215
195.4875	0.3688
195.7054	0.2808
195.9231	0.2218
196.1409	0.3425
196.3587	0.2387
196.5765	0.2859
196.7942	0.2369
197.012	0.3795
197.2297	0.3659
197.4474	0.3655
197.6651	0.3346
197.8828	0.3362
198.1005	0.388
198.3182	0.3486
198.5358	0.383
198.7535	0.4025
198.9711	0.4384
199.1888	0.3108
199.4064	0.3985
199.624	0.3784
199.8416	0.4117
200.0592	0.3905
200.2767	0.3869
200.4943	0.434
200.7119	0.4084
200.9294	0.4164
201.1469	0.4023
201.3645	0.4281
201.582	0.4346
201.7995	0.4314
202.017	0.4035
202.2344	0.3998
202.4519	0.3716
202.6694	0.3945
202.8868	0.3598
203.1042	0.3878
203.3217	0.3942
203.5391	0.4128
203.7565	0.3578
203.9739	0.3747
204.1913	0.3458
204.4086	0.3533
204.626	0.3527
204.8433	0.3423
205.0607	0.3434
205.278	0.3569
205.4953	0.3511
205.7126	0.3471
205.9299	0.3271
206.1472	0.3015
206.3644	0.3339
206.5817	0.3068
206.7989	0.3294
207.0162	0.3314
207.2334	0.3219
207.4506	0.3216
207.6678	0.3161
207.885	0.3046
208.1022	0.3122
208.3194	0.2846
208.5365	0.3078
208.7537	0.2864
208.9708	0.2931
209.1879	0.3116
209.405	0.2849
209.6222	0.2961
209.8392	0.3003
210.0563	0.28
210.2734	0.2664
210.4905	0.2705
210.7075	0.273
210.9245	0.2674
211.1416	0.2661
211.3586	0.2466
211.5756	0.2549
211.7926	0.2678
212.0096	0.2658
212.2265	0.2596
212.4435	0.2867
212.6604	0.2629
212.8774	0.2521
213.0943	0.2709
213.3112	0.2524
213.5281	0.262
213.745	0.2375
213.9619	0.2426
214.1788	0.2517
214.3956	0.2532
214.6125	0.2588
214.8293	0.274
215.0461	0.2509
215.2629	0.2525
215.4798	0.245
215.6965	0.2661
215.9133	0.2426
216.1301	0.2563
216.3469	0.2438
216.5636	0.2511
216.7803	0.2393
216.9971	0.2676
217.2138	0.2602
217.4305	0.2548
217.6472	0.2425
217.8639	0.2538
218.0805	0.2617
218.2972	0.2502
218.5138	0.259
218.7305	0.2539
218.9471	0.2535
219.1637	0.27
219.3803	0.2729
219.5969	0.2611
219.8135	0.2582
220.0301	0.2491
220.2466	0.255
220.4632	0.2513
220.6797	0.2604
220.8962	0.2689
221.1127	0.2604
221.3292	0.2702
221.5457	0.28
221.7622	0.2771
221.9787	0.2761
222.1951	0.2812
222.4116	0.2874
222.628	0.2909
222.8444	0.2684
223.0608	0.2817
223.2772	0.2809
223.4936	0.2766
223.71	0.2897
223.9264	0.2953
224.1427	0.2931
224.3591	0.303
224.5754	0.2934
224.7917	0.2959
225.008	0.3127
225.2243	0.3068
225.4406	0.2949
225.6569	0.3191
225.8732	0.2958
226.0894	0.3046
226.3057	0.3043
226.5219	0.3068
226.7381	0.3199
226.9543	0.327
227.1705	0.3266
227.3867	0.3172
227.6029	0.3372
227.8191	0.3377
228.0352	0.3471
228.2513	0.3527
228.4675	0.3398
228.6836	0.3414
228.8997	0.3397
229.1158	0.3549
229.3319	0.3538
229.548	0.3571
229.764	0.3565
229.9801	0.3679
230.1961	0.3727
230.4121	0.3624
230.6282	0.3897
230.8442	0.3869
231.0602	0.3878
231.2761	0.373
231.4921	0.3824
231.7081	0.3985
231.924	0.4023
232.14	0.4017
232.3559	0.4006
232.5718	0.4032
232.7877	0.408
233.0036	0.4078
233.2195	0.4196
233.4353	0.4191
233.6512	0.4266
233.867	0.4233
234.0829	0.4179
234.2987	0.4213
234.5145	0.4291
234.7303	0.4353
234.9461	0.4352
235.1619	0.4357
235.3776	0.4388
235.5934	0.4345
235.8091	0.4411
236.0249	0.4429
236.2406	0.4366
236.4563	0.4468
236.672	0.4422
236.8877	0.4602
237.1034	0.4442
237.319	0.4527
237.5347	0.452
237.7503	0.447
237.966	0.4562
238.1816	0.4477
238.3972	0.4615
238.6128	0.4671
238.8284	0.47
239.0439	0.4583
239.2595	0.467
239.475	0.4613
239.6906	0.4656
239.9061	0.4593
240.1216	0.4495
240.3371	0.4614
240.5526	0.4609
240.7681	0.4609
240.9836	0.4535
241.199	0.4507
241.4145	0.4472
241.6299	0.4479
241.8453	0.4346
242.0607	0.4414
242.2761	0.4284
242.4915	0.4166
242.7069	0.4134
242.9223	0.4241
243.1376	0.4052
243.353	0.3938
243.5683	0.3968
243.7836	0.3856
243.9989	0.3736
244.2142	0.3677
244.4295	0.3696
244.6448	0.3558
244.86	0.3467
245.0753	0.3434
245.2905	0.3362
245.5057	0.3331
245.721	0.3339
245.9362	0.3265
246.1514	0.3148
246.3665	0.3078
246.5817	0.2993
246.7969	0.2973
247.012	0.2909
247.2271	0.2905
247.4423	0.2818
247.6574	0.2757
247.8725	0.2649
248.0876	0.2663
248.3026	0.261
248.5177	0.258
248.7328	0.2508
248.9478	0.2549
249.1628	0.2479
249.3779	0.235
249.5929	0.2376
249.8079	0.2357
250.0228	0.2314
250.2378	0.2305
250.4528	0.2279
250.6677	0.2171
250.8827	0.2151
251.0976	0.2106
251.3125	0.2147
251.5274	0.2026
251.7423	0.2103
251.9572	0.2055
252.172	0.2041
252.3869	0.207
252.6017	0.1981
252.8166	0.1983
253.0314	0.1991
253.2462	0.1965
253.461	0.198
253.6758	0.1957
253.8906	0.1961
254.1053	0.1934
254.3201	0.1874
254.5348	0.1838
254.7496	0.185
254.9643	0.1891
255.179	0.1787
255.3937	0.1822
255.6083	0.1918
255.823	0.1866
256.0377	0.1853
256.2523	0.1874
256.467	0.182
256.6816	0.1812
256.8962	0.1823
257.1108	0.184
257.3254	0.177
257.54	0.1756
257.7545	0.182
257.9691	0.1768
258.1836	0.1682
258.3981	0.1774
258.6127	0.168
258.8272	0.1827
259.0417	0.1682
259.2561	0.1775
259.4706	0.1789
259.6851	0.1744
259.8995	0.1758
260.114	0.1764
260.3284	0.1722
260.5428	0.1707
260.7572	0.1707
260.9716	0.1794
261.186	0.1758
261.4003	0.1662
261.6147	0.1722
261.829	0.1787
262.0433	0.1745
262.2577	0.1748
262.472	0.1778
262.6863	0.1806
262.9005	0.1791
263.1148	0.1731
263.3291	0.1715
263.5433	0.1788
263.7576	0.1788
263.9718	0.1745
264.186	0.1813
264.4002	0.179
264.6144	0.179
264.8286	0.1793
265.0427	0.1825
265.2569	0.1831
265.471	0.1757
265.6851	0.1785
265.8993	0.1736
266.1134	0.179
266.3275	0.1737
266.5415	0.1744
266.7556	0.1807
266.9697	0.1782
267.1837	0.1803
267.3978	0.1821
267.6118	0.1667
267.8258	0.1788
268.0398	0.1836
268.2538	0.1746
268.4677	0.172
268.6817	0.1791
268.8957	0.1684
269.1096	0.173
269.3235	0.17
269.5374	0.1705
269.7514	0.1725
269.9652	0.1674
270.1791	0.1639
270.393	0.1709
270.6068	0.1704
270.8207	0.1654
271.0345	0.1668
271.2483	0.1686
271.4622	0.1649
271.676	0.165
271.8897	0.1679
272.1035	0.1728
272.3173	0.1673
272.531	0.1701
272.7448	0.1645
272.9585	0.163
273.1722	0.1609
273.3859	0.1654
273.5996	0.1673
273.8133	0.1728
274.0269	0.162
274.2406	0.1666
274.4542	0.1672
274.6679	0.1685
274.8815	0.1711
275.0951	0.1712
275.3087	0.1773
275.5223	0.1669
275.7358	0.1764
275.9494	0.1699
276.1629	0.1779
276.3765	0.1689
276.59	0.1616
276.8035	0.1643
277.017	0.1723
277.2305	0.1739
277.444	0.1768
277.6574	0.1672
277.8709	0.1796
278.0843	0.1744
278.2978	0.1779
278.5112	0.1732
278.7246	0.1715
278.938	0.1733
279.1513	0.1796
279.3647	0.1786
279.5781	0.175
279.7914	0.1727
280.0047	0.1757
280.2181	0.1746
280.4314	0.1761
280.6447	0.1756
280.8579	0.1725
281.0712	0.1736
281.2845	0.1777
281.4977	0.1802
281.711	0.1787
281.9242	0.1759
282.1374	0.1765
282.3506	0.1791
282.5638	0.1735
282.7769	0.1753
282.9901	0.1819
283.2033	0.1857
283.4164	0.1769
283.6295	0.1785
283.8426	0.174
284.0557	0.1819
284.2688	0.1853
284.4819	0.1785
284.695	0.1864
284.908	0.1784
285.1211	0.1855
285.3341	0.18
285.5471	0.1833
285.7601	0.1827
285.9731	0.1856
286.1861	0.1836
286.3991	0.1902
286.612	0.1885
286.825	0.1861
287.0379	0.1814
287.2508	0.1892
287.4637	0.1876
287.6766	0.188
287.8895	0.1878
288.1024	0.1924
288.3152	0.1887
288.5281	0.1838
288.7409	0.1892
288.9538	0.1849
289.1666	0.1896
289.3794	0.1897
289.5922	0.1907
289.8049	0.1962
290.0177	0.1904
290.2304	0.1896
290.4432	0.1923
290.6559	0.1949
290.8686	0.1921
291.0813	0.1927
291.294	0.1909
291.5067	0.1895
291.7194	0.1935
291.932	0.1921
292.1447	0.1989
292.3573	0.1932
292.5699	0.1952
292.7825	0.1862
292.9951	0.193
293.2077	0.1876
293.4203	0.1946
293.6328	0.1924
293.8454	0.1959
294.0579	0.1885
294.2704	0.1977
294.4829	0.1927
294.6954	0.1921
294.9079	0.1878
295.1204	0.1854
295.3328	0.1964
295.5453	0.194
295.7577	0.189
295.9701	0.1955
296.1825	0.1945
296.3949	0.1876
296.6073	0.1906
296.8197	0.1976
297.0321	0.1938
297.2444	0.1888
297.4567	0.2024
297.6691	0.194
297.8814	0.1961
298.0937	0.1915
298.306	0.1894
298.5182	0.1966
298.7305	0.1966
298.9428	0.1928
299.155	0.1889
299.3672	0.1924
299.5794	0.1907
299.7916	0.1967
300.0038	0.1911
300.216	0.1916
300.4282	0.1943
300.6403	0.1943
300.8525	0.1933
301.0646	0.1977
301.2767	0.1955
301.4888	0.1967
301.7009	0.1936
301.913	0.1929
302.125	0.1891
302.3371	0.1865
302.5491	0.192
302.7612	0.2001
302.9732	0.1942
303.1852	0.1967
303.3972	0.191
303.6092	0.1922
303.8211	0.1941
304.0331	0.1886
304.245	0.1916
304.457	0.1905
304.6689	0.1874
304.8808	0.1872
305.0927	0.1886
305.3046	0.1832
305.5164	0.183
305.7283	0.1838
305.9401	0.1716
306.152	0.1832
306.3638	0.1803
306.5756	0.1813
306.7874	0.1715
306.9992	0.1745
307.2109	0.1665
307.4227	0.1681
307.6344	0.1709
307.8462	0.1677
308.0579	0.173
308.2696	0.1623
308.4813	0.1649
308.693	0.1605
308.9046	0.1627
309.1163	0.1555
309.328	0.1566
309.5396	0.1526
309.7512	0.1519
309.9628	0.1508
310.1744	0.1501
310.386	0.1493
310.5976	0.1492
310.8091	0.1476
311.0207	0.1445
311.2322	0.1481
311.4437	0.1447
311.6552	0.1433
311.8667	0.1468
312.0782	0.1353
312.2897	0.1397
312.5012	0.1359
312.7126	0.1307
312.924	0.1368
313.1355	0.1347
313.3469	0.1276
313.5583	0.1314
313.7696	0.1288
313.981	0.1303
314.1924	0.1252
314.4037	0.1302
314.6151	0.1308
314.8264	0.1303
315.0377	0.1265
315.249	0.1303
315.4603	0.1223
315.6716	0.1235
315.8828	0.1211
316.0941	0.1232
316.3053	0.1227
316.5165	0.1294
316.7277	0.1205
316.9389	0.1251
317.1501	0.1236
317.3613	0.1162
317.5724	0.1209
317.7836	0.116
317.9947	0.1231
318.2058	0.117
318.417	0.1177
318.6281	0.1184
318.8391	0.1164
319.0502	0.119
319.2613	0.1131
319.4723	0.1179
319.6834	0.1169
319.8944	0.1202
320.1054	0.1215
320.3164	0.1145
320.5274	0.1212
320.7383	0.1189
320.9493	0.1202
321.1602	0.1124
321.3712	0.1155
321.5821	0.1183
321.793	0.1232
322.0039	0.1198
322.2148	0.1204
322.4257	0.121
322.6365	0.113
322.8474	0.1202
323.0582	0.1202
323.269	0.1254
323.4798	0.1223
323.6906	0.1192
323.9014	0.1151
324.1122	0.1188
324.3229	0.1244
324.5337	0.1228
324.7444	0.1302
324.9551	0.1245
325.1658	0.1148
325.3765	0.1217
325.5872	0.1207
325.7979	0.1199
326.0085	0.124
326.2192	0.1236
326.4298	0.1246
326.6404	0.1251
326.851	0.1221
327.0616	0.1262
327.2722	0.1238
327.4828	0.1284
327.6933	0.1313
327.9039	0.1243
328.1144	0.129
328.3249	0.1223
328.5354	0.1289
328.7459	0.1283
328.9564	0.1297
329.1669	0.13
329.3773	0.1248
329.5878	0.1298
329.7982	0.1278
330.0086	0.1257
330.219	0.1275
330.4294	0.1291
330.6398	0.1279
330.8502	0.1338
331.0605	0.1328
331.2708	0.124
331.4812	0.1253
331.6915	0.1292
331.9018	0.1279
332.1121	0.1362
332.3224	0.1306
332.5326	0.1292
332.7429	0.1311
332.9531	0.1338
333.1633	0.1209
333.3735	0.133
333.5837	0.1287
333.7939	0.1327
334.0041	0.137
334.2143	0.1274
334.4244	0.1327
334.6346	0.1272
334.8447	0.1306
335.0548	0.1375
335.2649	0.1296
335.475	0.1356
335.685	0.1344
335.8951	0.1333
336.1051	0.1391
336.3152	0.1398
336.5252	0.125
336.7352	0.1355
336.9452	0.1356
337.1552	0.1368
337.3652	0.1305
337.5751	0.1335
337.7851	0.1372
337.995	0.14
338.2049	0.1333
338.4148	0.1372
338.6247	0.1379
338.8346	0.133
339.0445	0.1337
339.2543	0.1345
339.4642	0.136
339.674	0.1329
339.8838	0.1401
340.0936	0.1423
340.3034	0.1325
340.5132	0.132
340.7229	0.1363
340.9327	0.1445
341.1424	0.1455
341.3522	0.135
341.5619	0.1502
341.7716	0.1484
341.9813	0.1446
342.1909	0.1489
342.4006	0.1458
342.6102	0.1439
342.8199	0.1472
343.0295	0.1417
343.2391	0.1466
343.4487	0.1487
343.6583	0.1521
343.8679	0.1489
344.0774	0.1532
344.287	0.1519
344.4965	0.1514
344.706	0.159
344.9155	0.1509
345.125	0.1491
345.3345	0.1579
345.544	0.1574
345.7534	0.1619
345.9629	0.1591
346.1723	0.1623
346.3817	0.159
346.5911	0.156
346.8005	0.1624
347.0099	0.1566
347.2193	0.1627
347.4286	0.1666
347.638	0.1567
347.8473	0.1651
348.0566	0.1602
348.2659	0.1596
348.4752	0.162
348.6845	0.1603
348.8937	0.1652
349.103	0.1628
349.3122	0.1732
349.5214	0.1646
349.7306	0.1642
349.9398	0.1651
350.149	0.1587
350.3582	0.1641
350.5674	0.1717
350.7765	0.1755
350.9856	0.1682
351.1948	0.1715
351.4039	0.1756
351.613	0.1699
351.822	0.1823
352.0311	0.1721
352.2402	0.1769
352.4492	0.1768
352.6582	0.1757
352.8672	0.1759
353.0762	0.1795
353.2852	0.1778
353.4942	0.1827
353.7032	0.179
353.9121	0.1773
354.1211	0.1841
354.33	0.1866
354.5389	0.1803
354.7478	0.1805
354.9567	0.1864
355.1655	0.1858
355.3744	0.1826
355.5833	0.1865
355.7921	0.1834
356.0009	0.1881
356.2097	0.1759
356.4185	0.1842
356.6273	0.1854
356.8361	0.1849
357.0448	0.1816
357.2536	0.1877
357.4623	0.1864
357.671	0.1926
357.8797	0.1939
358.0884	0.1925
358.2971	0.1952
358.5057	0.1973
358.7144	0.1997
358.923	0.1993
359.1316	0.1941
359.3402	0.1926
359.5488	0.1921
359.7574	0.207
359.966	0.1993
360.1746	0.1966
360.3831	0.2081
360.5916	0.2067
360.8002	0.2115
361.0087	0.206
361.2172	0.2072
361.4256	0.2106
361.6341	0.2144
361.8426	0.2146
362.051	0.2091
362.2594	0.2091
362.4678	0.2083
362.6762	0.2208
362.8846	0.2082
363.093	0.2176
363.3014	0.2214
363.5097	0.2187
363.718	0.2286
363.9264	0.2235
364.1347	0.228
364.343	0.2174
364.5513	0.2234
364.7595	0.2316
364.9678	0.2187
365.176	0.228
365.3842	0.2352
365.5925	0.2319
365.8007	0.2319
366.0089	0.2378
366.217	0.2301
366.4252	0.2304
366.6333	0.2309
366.8415	0.2408
367.0496	0.233
367.2577	0.2376
367.4658	0.2392
367.6739	0.2358
367.882	0.2369
368.09	0.2376
368.2981	0.2472
368.5061	0.2432
368.7141	0.2389
368.9221	0.2531
369.1301	0.252
369.3381	0.2508
369.5461	0.25
369.754	0.242
369.962	0.2435
370.1699	0.2597
370.3778	0.2655
370.5857	0.2581
370.7936	0.257
371.0015	0.2526
371.2093	0.2503
371.4172	0.2581
371.625	0.2634
371.8328	0.2557
372.0406	0.2625
372.2484	0.2565
372.4562	0.2651
372.664	0.2665
372.8717	0.2659
373.0795	0.2723
373.2872	0.2684
373.4949	0.2692
373.7026	0.2672
373.9103	0.2595
374.118	0.2601
374.3256	0.268
374.5333	0.272
374.7409	0.2726
374.9485	0.2666
375.1561	0.2786
375.3637	0.2699
375.5713	0.2707
375.7789	0.279
375.9864	0.2733
376.194	0.2889
376.4015	0.2814
376.609	0.2801
376.8165	0.285
377.024	0.2758
377.2315	0.2771
377.4389	0.2772
377.6464	0.2827
377.8538	0.2877
378.0612	0.2839
378.2686	0.2808
378.476	0.2921
378.6834	0.2922
378.8908	0.2887
379.0981	0.2848
379.3055	0.292
379.5128	0.2859
379.7201	0.2954
379.9274	0.2919
380.1347	0.291
380.342	0.3014
380.5492	0.2989
380.7565	0.2928
380.9637	0.2948
381.1709	0.3015
381.3781	0.3044
381.5853	0.2931
381.7925	0.3059
381.9997	0.3114
382.2068	0.3036
382.4139	0.2955
382.6211	0.3109
382.8282	0.309
383.0353	0.309
383.2424	0.3065
383.4494	0.3035
383.6565	0.3063
383.8635	0.3
384.0706	0.308
384.2776	0.3067
384.4846	0.3084
384.6916	0.3053
384.8986	0.3079
385.1055	0.3072
385.3125	0.3031
385.5194	0.3112
385.7263	0.3041
385.9333	0.3104
386.1402	0.3077
386.347	0.303
386.5539	0.3005
386.7608	0.2996
386.9676	0.3044
387.1744	0.3087
387.3813	0.314
387.5881	0.3037
387.7948	0.3189
388.0016	0.3148
388.2084	0.3088
388.4151	0.3022
388.6219	0.3047
388.8286	0.3052
389.0353	0.3104
389.242	0.3161
389.4487	0.3104
389.6553	0.2968
389.862	0.2984
390.0686	0.3023
390.2753	0.3056
390.4819	0.3104
390.6885	0.2984
390.8951	0.3085
391.1016	0.2957
391.3082	0.2979
391.5147	0.2945
391.7213	0.2953
391.9278	0.2797
392.1343	0.3038
392.3408	0.3009
392.5473	0.2913
392.7537	0.2932
392.9602	0.2876
393.1666	0.2824
393.373	0.2785
393.5794	0.2829
393.7858	0.2898
393.9922	0.2825
394.1986	0.2745
394.4049	0.276
394.6113	0.2803
394.8176	0.2817
395.0239	0.2768
395.2302	0.2736
395.4365	0.2665
395.6428	0.2773
395.8491	0.2741
396.0553	0.2575
396.2615	0.2727
396.4678	0.2715
396.674	0.2715
396.8802	0.2674
397.0863	0.2644
397.2925	0.2619
397.4987	0.268
397.7048	0.2763
397.9109	0.2647
398.117	0.2598
398.3231	0.2683
398.5292	0.2546
398.7353	0.2562
398.9413	0.2687
399.1474	0.2589
399.3534	0.2672
399.5594	0.2706
399.7654	0.2492
399.9714	0.2655
400.1774	0.2613
400.3833	0.2589
400.5893	0.2612
400.7952	0.2671
401.0011	0.2549
401.207	0.2669
401.4129	0.2636
401.6188	0.2667
401.8247	0.2686
402.0305	0.2592
402.2364	0.2677
402.4422	0.2651
402.648	0.2605
402.8538	0.2618
403.0596	0.2641
403.2654	0.263
403.4711	0.2653
403.6768	0.2622
403.8826	0.2717
404.0883	0.2616
404.294	0.2608
404.4997	0.2609
404.7054	0.2692
404.911	0.2492
405.1167	0.2627
405.3223	0.2553
405.5279	0.2581
405.7335	0.2634
405.9391	0.2583
406.1447	0.2701
406.3502	0.2588
406.5558	0.255
406.7613	0.2669
406.9668	0.2572
407.1724	0.2638
407.3778	0.2673
407.5833	0.2524
407.7888	0.2671
407.9942	0.2555
408.1997	0.2566
408.4051	0.2493
408.6105	0.2678
408.8159	0.2631
409.0213	0.2691
409.2267	0.2568
409.432	0.2554
409.6374	0.2567
409.8427	0.2776
410.048	0.2681
410.2533	0.2605
410.4586	0.2448
410.6639	0.2532
410.8691	0.2594
411.0744	0.2616
411.2796	0.2608
411.4848	0.2604
411.69	0.2592
411.8952	0.2714
412.1004	0.2654
412.3056	0.2517
412.5107	0.26
412.7158	0.2628
412.921	0.2568
413.1261	0.2552
413.3312	0.2612
413.5362	0.2744
413.7413	0.2662
413.9464	0.2405
414.1514	0.2615
414.3564	0.251
414.5614	0.2545
414.7664	0.2621
414.9714	0.2499
415.1764	0.2646
415.3813	0.2618
415.5863	0.2725
415.7912	0.2481
415.9961	0.2432
416.201	0.259
416.4059	0.252
416.6108	0.2575
416.8156	0.2503
417.0205	0.249
417.2253	0.2507
417.4301	0.2524
417.6349	0.246
417.8397	0.2492
418.0445	0.2548
418.2492	0.2557
418.454	0.2494
418.6587	0.2506
418.8634	0.2578
419.0681	0.2532
419.2728	0.2474
419.4775	0.2631
419.6822	0.2496
419.8868	0.2415
420.0915	0.2485
420.2961	0.2465
420.5007	0.2478
420.7053	0.2392
420.9099	0.2481
421.1144	0.2368
421.319	0.2302
421.5235	0.2412
421.728	0.2517
421.9325	0.2458
422.137	0.2352
422.3415	0.2376
422.546	0.2403
422.7504	0.2354
422.9549	0.2429
423.1593	0.2272
423.3637	0.2298
423.5681	0.2281
423.7725	0.2326
423.9769	0.2417
424.1812	0.2206
424.3856	0.2258
424.5899	0.2294
424.7942	0.2312
424.9985	0.2231
425.2028	0.2322
425.4071	0.2263
425.6113	0.2269
425.8156	0.2178
426.0198	0.2273
426.224	0.2211
426.4282	0.2162
426.6324	0.221
426.8366	0.2035
427.0407	0.2156
427.2449	0.2106
427.449	0.2112
427.6531	0.2249
427.8572	0.2226
428.0613	0.2213
428.2654	0.2175
428.4694	0.2046
428.6735	0.1924
428.8775	0.2049
429.0815	0.2042
429.2855	0.1987
429.4895	0.2041
429.6935	0.2024
429.8975	0.1964
430.1014	0.1944
430.3053	0.1912
430.5093	0.1955
430.7132	0.19
430.9171	0.1883
431.1209	0.1971
431.3248	0.1795
431.5286	0.1784
431.7325	0.1828
431.9363	0.1825
432.1401	0.1706
432.3439	0.1841
432.5477	0.1711
432.7514	0.1763
432.9552	0.1679
433.1589	0.1677
433.3627	0.1639
433.5664	0.1711
433.7701	0.1667
433.9737	0.161
434.1774	0.1622
434.3811	0.1587
434.5847	0.1568
434.7883	0.16
434.9919	0.1473
435.1955	0.1579
435.3991	0.1579
435.6027	0.1482
435.8062	0.1648
436.0098	0.1403
436.2133	0.1424
436.4168	0.1412
436.6203	0.1425
436.8238	0.1306
437.0272	0.1389
437.2307	0.1324
437.4341	0.1403
437.6375	0.1386
437.841	0.1274
438.0443	0.1261
438.2477	0.1226
438.4511	0.1157
438.6545	0.1271
438.8578	0.1234
439.0611	0.1269
439.2644	0.1217
439.4677	0.1183
439.671	0.1093
439.8743	0.1192
440.0775	0.1175
440.2808	0.1052
440.484	0.1135
440.6872	0.1058
440.8904	0.0995
441.0936	0.1039
441.2967	0.0956
441.4999	0.0972
441.703	0.1014
441.9062	0.1016
442.1093	0.1017
442.3124	0.0936
442.5155	0.0967
442.7185	0.0883
442.9216	0.0878
443.1246	0.096
443.3276	0.0911
443.5307	0.0802
443.7337	0.0926
443.9366	0.0847
444.1396	0.0859
444.3426	0.0793
444.5455	0.0867
444.7484	0.0805
444.9513	0.081
445.1542	0.0784
445.3571	0.0824
445.56	0.0728
445.7628	0.0782
445.9657	0.0712
446.1685	0.0781
446.3713	0.0702
446.5741	0.0706
446.7769	0.0748
446.9797	0.0667
447.1824	0.0701
447.3852	0.0511
447.5879	0.0693
447.7906	0.0589
447.9933	0.0588
448.196	0.0583
448.3986	0.0546
448.6013	0.0495
448.8039	0.0613
449.0066	0.0605
449.2092	0.0653
449.4118	0.0615
449.6143	0.0522
449.8169	0.046
450.0195	0.0513
450.222	0.0504
450.4245	0.0513
450.627	0.0466
450.8295	0.044
451.032	0.0519
451.2345	0.0378
451.4369	0.0478
451.6394	0.039
451.8418	0.0441
452.0442	0.0452
452.2466	0.029
452.449	0.0402
452.6513	0.0349
452.8537	0.0345
453.056	0.0401
453.2583	0.0305
453.4607	0.0329
453.663	0.0399
453.8652	0.0244
454.0675	0.04
454.2697	0.0285
454.472	0.0307
454.6742	0.0349
454.8764	0.0379
455.0786	0.023
455.2808	0.0294
455.4829	0.0276
455.6851	0.0239
455.8872	0.0182
456.0893	0.0303
456.2915	0.0255
456.4935	0.0395
456.6956	0.0216
456.8977	0.0272
457.0997	0.0238
457.3018	0.0269
457.5038	0.0348
457.7058	0.0275
457.9078	0.02
458.1098	0.025
458.3117	0.0351
458.5137	0.0078
458.7156	0.0215
458.9175	0.0285
459.1194	0.0224
459.3213	0.0079
459.5232	0.0258
459.725	0.0196
459.9269	0.0184
460.1287	0.0196
460.3305	0.0263
460.5323	0.0154
460.7341	0.0182
460.9359	0.0072
461.1376	0.0232
461.3394	0.0195
461.5411	0.0192
461.7428	0.0129
461.9445	0.0169
462.1462	0.0106
462.3479	0.0156
462.5495	0.0271
462.7512	0.0272
462.9528	0.0164
463.1544	0.0179
463.356	0.0108
463.5576	0.0221
463.7592	0.0137
463.9607	0.0096
464.1623	0.0118
464.3638	0.0059
464.5653	0.0121
464.7668	0.0157
464.9683	0.0145
465.1697	0.0158
465.3712	0.0158
465.5726	0.001
465.7741	0.0198
465.9755	0.0084
466.1769	0.0121
466.3782	0.0102
466.5796	0.0166
466.7809	0.0148
466.9823	0.0072
467.1836	0.0048
467.3849	0.01
467.5862	0.0054
467.7875	-0.0013
467.9887	0.0145
468.19	0.0053
468.3912	0.0126
468.5924	0.0006
468.7936	0.0074
468.9948	0.0028
469.196	0.0084
469.3972	0.0013
469.5983	0.0004
469.7994	0.0105
470.0006	0.0077
470.2017	-0.0005
470.4027	0.0159
470.6038	0.0065
470.8049	0.0091
471.0059	0.0095
471.2069	0.0092
471.408	0.0082
471.6089	0.0125
471.8099	0.0084
472.0109	0.0076
472.2119	0.0186
472.4128	0.0012
472.6137	0.0054
472.8146	0.0047
473.0155	0.007
473.2164	0.0078
473.4173	0.0002
473.6181	-0.0029
473.819	0.0003
474.0198	0.0077
474.2206	0.0074
474.4214	0.009
474.6222	0.0013
474.8229	0.0023
475.0237	0.0133
475.2244	0.0086
475.4251	0.007
475.6258	0.003
475.8265	0.015
476.0272	0.0011
476.2278	0.0071
476.4285	0.0047
476.6291	0.0052
476.8297	0.0158
477.0303	0.0034
477.2309	0.0021
477.4315	0.0144
477.632	-0.0022
477.8326	0.0052
478.0331	0.0057
478.2336	-0.0029
478.4341	0.0074
478.6346	0.0001
478.8351	0.0011
479.0355	0.0071
479.236	0.0115
479.4364	0.0054
479.6368	0.0034
479.8372	0.0084
480.0376	0.0052
480.2379	0.0071
480.4383	0.0107
480.6386	-0.0024
480.8389	0.0023
481.0392	0.0039
481.2395	0.0061
481.4398	0.003
481.6401	0.005
481.8403	-0.0011
482.0405	0.0061
482.2408	0.0072
482.441	0.0057
482.6411	-0.0016
482.8413	0.0012
483.0415	0.0036
483.2416	-0.0037
483.4417	0.0018
483.6419	-0.0005
483.8419	0.0055
484.042	0.002
484.2421	-0.0055
484.4422	0.0094
484.6422	0.003
484.8422	0.0088
485.0422	0.0086
485.2422	0.0019
485.4422	0.0005
485.6422	-0.0001
485.8421	0.0022
486.042	0.0103
486.242	0.0033
486.4419	0.0059
486.6417	-0.0027
486.8416	0.0073
487.0415	0.0021
487.2413	0.0005
487.4411	-0.0013
487.641	0.0043
487.8408	0.0083
488.0405	0.0065
488.2403	-0.001
488.4401	0.0047
488.6398	0.0122
488.8395	0.0057
489.0392	0.0129
489.2389	0.0032
489.4386	0.0004
489.6383	0.0098
489.8379	0.0012
490.0376	0.0046
490.2372	-0.0041
490.4368	-0.0057
490.6364	-0.0069
490.836	-0.0023
491.0355	-0.0051
491.2351	0.0089
491.4346	0.007
491.6341	0.01
491.8336	0.0119
492.0331	0.0028
492.2326	0.0078
492.432	0.0096
492.6315	0.0123
492.8309	0.013
493.0303	0.0069
493.2297	0.0052
493.4291	0.0069
493.6284	0.0087
493.8278	0.001
494.0271	0.0061
494.2264	0.0002
494.4257	0.0066
494.625	-0.0033
494.8243	0.0052
495.0236	0.003
495.2228	0.0128
495.422	0.002
495.6213	0.0057
495.8205	0.0045
496.0196	0.0089
496.2188	0.0035
496.418	0.0036
496.6171	-0.0046
496.8162	0.0048
497.0153	0.0067
497.2144	-0.0008
497.4135	0.0072
497.6126	0.0104
497.8116	0.0023
498.0107	0.0058
498.2097	0.0062
498.4087	-0.0004
498.6077	0.0015
498.8067	0.005
499.0056	0.0093
499.2046	0.0019
499.4035	0.007
499.6024	-0.0107
499.8013	0.0023
500.0002	0.0093
500.199	0.0132
500.3979	-0.0041
500.5967	0.0006
500.7956	0.0104
500.9944	-0.0044
501.1932	0.0064
501.3919	0.0073
501.5907	0.0087
501.7895	0.0011
501.9882	-0.0035
502.1869	0.0129
502.3856	-0.0018
502.5843	0.0059
502.783	0.0013
502.9816	0.007
503.1803	-0.0008
503.3789	0.0098
503.5775	0.0008
503.7761	-0.0056
503.9747	0.0133
504.1732	-0.0003
504.3718	0.0073
504.5703	0.0051
504.7689	0.0026
504.9674	0.0041
505.1658	0.0004
505.3643	0.0097
505.5628	0.0131
505.7612	0.0086
505.9597	-0.0017
506.1581	0.0082
506.3565	0.0024
506.5549	0.0004
506.7532	-0.0017
506.9516	0.0011
507.1499	-0.0017
507.3482	0.0035
507.5465	0.0055
507.7448	-0.0029
507.9431	0.0111
508.1414	-0.0015
508.3396	0.0019
508.5379	0.006
508.7361	0.0061
508.9343	0.0037
509.1325	0.0097
509.3306	0.0007
509.5288	-0.005
509.7269	0.0095
509.9251	0.0066
510.1232	0.0004
510.3213	-0.0009
510.5193	-0.0018
510.7174	0.0107
510.9154	0.0095
511.1135	0.0062
511.3115	-0.0026
511.5095	0.01
511.7075	0.0054
511.9055	0.0044
512.1034	0.0017
512.3014	0.0071
512.4993	0.0064
512.6972	0.0052
512.8951	-0.0011
513.093	0.0018
513.2908	0.0134
513.4887	0.003
513.6865	0.0056
513.8844	0.0048
514.0822	-0.001
514.2799	-0.0022
514.4777	-0.001
514.6755	0.0027
514.8732	0.0046
515.0709	0.0024
515.2687	0.0048
515.4664	0.0125
515.664	0.0068
515.8617	0.011
516.0594	0.0039
516.257	0.0025
516.4546	0.011
516.6522	0.0027
516.8498	-0.001
517.0474	0.0174
517.2449	0.0069
517.4425	-0.0043
517.64	0.0075
517.8375	0.008
518.035	-0.0029
518.2325	0.0012
518.43	-0.0023
518.6274	-0.0033
518.8249	0.0016
519.0223	0.0098
519.2197	0.0027
519.4171	-0.0046
519.6145	0.0061
519.8118	-0.0012
520.0092	-0.0053
520.2065	0.0133
520.4038	-0.0007
520.6011	0.0043
520.7984	0.0147
520.9956	0.0057
521.1929	0.0086
521.3901	0.0045
521.5874	0.0012
521.7846	-0.003
521.9818	0.0053
522.1789	-0.0033
522.3761	0.0202
522.5732	0.0007
522.7704	0.0037
522.9675	0.0031
523.1646	-0.0098
523.3617	0.0075
523.5587	0.0028
523.7558	0.0071
523.9528	0.0102
524.1498	-0.0024
524.3468	0.0153
524.5438	0.0013
524.7408	0.0012
524.9378	0.0163
525.1347	0.0118
525.3316	0.0041
525.5285	-0.0009
525.7254	0.0046
525.9223	0.0149
526.1192	-0.0065
526.316	0.0082
526.5129	0.0055
526.7097	0.0023
526.9065	0.0132
527.1033	0.0023
527.3	0.0041
527.4968	0.0016
527.6935	-0
527.8903	0.0047
528.087	-0.003
528.2837	0.0136
528.4804	0.0053
528.677	0.0001
528.8737	-0.0003
529.0703	0.0099
529.2669	-0.0009
529.4635	0.0011
529.6601	0.0005
529.8567	0.0058
530.0532	-0.001
530.2498	0.0036
530.4463	-0.004
530.6428	0.0074
530.8393	0.0203
531.0358	0.0091
531.2322	0.0046
531.4287	0.0128
531.6251	-0.0085
531.8215	-0.0051
532.0179	0.0113
532.2143	0.0064
532.4107	-0.0012
532.607	0.0057
532.8034	0.0029
532.9997	0.0012
533.196	-0.0092
533.3923	0.0139
533.5886	-0.0008
533.7848	0.0028
533.9811	-0.001
534.1773	0.0031
534.3735	0.0072
534.5697	0.0103
534.7659	0.0056
534.9621	0.0082
535.1582	0.0062
535.3544	0.0094
535.5505	0.0057
535.7466	0.0072
535.9427	0.0088
536.1387	-0.0009
536.3348	0.0041
536.5308	0.0084
536.7269	-0.0076
536.9229	0.0054
537.1189	0.004
537.3148	0.0095
537.5108	0.0053
537.7068	0.0088
537.9027	-0.0077
538.0986	0.0068
538.2945	-0.0072
538.4904	-0.007
538.6863	-0.001
538.8821	0.0091
539.078	0.0042
539.2738	0.0039
539.4696	-0.0044
539.6654	0.0034
539.8611	0.0037
540.0569	-0.0004
540.2526	0.0159
540.4484	-0.0039
540.6441	-0.0071
540.8398	0.0123
541.0355	-0.0016
541.2311	0.0072
541.4268	0.0116
541.6224	0.014
541.818	0.0117
542.0136	0.0157
542.2092	0.0166
542.4048	0.0088
542.6003	-0.0059
542.7959	0.0077
542.9914	0.0119
543.1869	-0.0039
543.3824	0.0016
543.5779	0.0158
543.7734	0.0103
543.9688	0.0034
544.1642	0.0037
544.3596	0.008
544.555	0.0065
544.7504	0.0126
544.9458	0.0119
545.1411	0.004
545.3365	0.0127
545.5318	0.0089
545.7271	0.0105
545.9224	-0.0012
546.1177	0.0074
546.3129	0.0181
546.5081	-0.0057
546.7034	0.0002
546.8986	0.0033
547.0938	0.0034
547.289	0.0074
547.4841	0.0069
547.6793	0.0029
547.8744	0.0078
548.0695	0.0067
548.2646	0.0013
548.4597	-0.0074
548.6548	0.0136
548.8498	0.0101
549.0448	0.001
549.2399	0.0083
549.4349	-0.0035
549.6298	0.0059
549.8248	-0.0015
550.0198	0.0101
550.2147	0.0095
550.4096	0.0014
550.6045	-0.0016
550.7994	0.0038
550.9943	0.0099
551.1892	-0.0111
551.384	0.0025
551.5788	0.0019
551.7737	0.0072
551.9685	-0.0017
552.1632	-0.0018
552.358	0.0074
552.5528	-0.004
552.7475	0.0009
552.9422	0.0103
553.1369	0.0015
553.3316	0.0087
553.5263	0.0077
553.7209	0.0067
553.9156	-0.0011
554.1102	0.0031
554.3048	0.0004
554.4994	0.0063
554.694	0.0037
554.8885	0.0013
555.0831	0.0013
555.2776	0.0088
555.4721	-0
555.6666	0.0039
555.8611	0.0046
556.0555	-0.004
556.25	0.0201
556.4444	0.0052
556.6388	-0.003
556.8332	0.006
557.0276	0.0107
557.222	-0.0002
557.4163	0.0012
557.6107	0.0061
557.805	0.0046
557.9993	0.0003
558.1936	-0.0034
558.3879	0.002
558.5821	-0.0006
558.7764	-0.0005
558.9706	0.0002
559.1648	0.0054
559.359	0.0005
559.5532	-0.0033
559.7473	0.0022
559.9415	0.0049
560.1356	0.0105
560.3297	-0.0045
560.5238	0.0044
560.7179	-0.0009
560.9119	-0.0005
561.106	-0.008
561.3	0.0075
561.494	-0.0087
561.688	-0.0002
561.882	0.0007
562.076	0.0003
562.2699	0.009
562.4639	0.0092
562.6578	0.0088
562.8517	0.0108
563.0456	-0.0004
563.2395	-0.0006
563.4333	0.0077
563.6272	0.0115
563.821	0.0062
564.0148	0.0055
564.2086	0.002
564.4024	0.0117
564.5961	0.0036
564.7899	0.0041
564.9836	0.001
565.1773	0.0055
565.371	0.0005
565.5647	0.0028
565.7584	0.0102
565.952	0.0037
566.1456	-0.0018
566.3393	0.0075
566.5329	-0.0015
566.7264	-0.0002
566.92	0.0018
567.1136	-0.0051
567.3071	-0.0048
567.5006	0.007
567.6941	0.0005
567.8876	0.0016
568.0811	0.014
568.2745	-0.0093
568.468	0.0056
568.6614	0.0077
568.8548	0.009
569.0482	0.0026
569.2416	0.0045
569.4349	-0.0002
569.6283	0.001
569.8216	0.002
570.0149	0.0012
570.2082	0.003
570.4015	0.0045
570.5947	0.0034
570.788	0.0003
570.9812	-0.0024
571.1744	0.0058
571.3676	0.0016
571.5608	0.0023
571.754	0.0089
571.9471	0.006
572.1402	-0.0005
572.3333	0.0005
572.5264	0.0007
572.7195	-0.0012
572.9126	0.0008
573.1057	0.0034
573.2987	0.0004
573.4917	-0.0004
573.6847	-0.0001
573.8777	0.0031
574.0707	0.0019
574.2636	0.005
574.4566	0.0015
574.6495	0.0014
574.8424	0
575.0353	0.0039
575.2281	0.0092
575.421	0.0035
575.6138	0.0014
575.8067	0.0034
575.9995	0.0024
576.1923	0.0043
576.385	-0.0009
576.5778	0.0102
576.7706	0.0057
576.9633	0.0079
577.156	-0.0002
577.3487	0.0044
577.5414	0.0016
577.734	-0.0014
577.9267	0.0044
578.1193	0.007
578.3119	-0.0006
578.5045	0.0018
578.6971	-0.0033
578.8897	-0.0026
579.0822	0.007
579.2747	0.0041
579.4673	0.004
579.6598	0.0048
579.8522	0.0015
580.0447	0.0067
580.2372	0.0067
580.4296	0.0075
580.622	-0.0003
580.8144	0.0021
581.0068	0.0044
581.1992	0.0037
581.3915	0.0001
581.5839	0.0058
581.7762	0.0008
581.9685	0.0046
582.1608	0.0024
582.353	0.0004
582.5453	0.0037
582.7375	0.0056
582.9298	-0.0016
583.122	0.0033
583.3142	0.0041
583.5063	0.0018
583.6985	0.0007
583.8906	0.0004
584.0827	0.0073
584.2749	-0.0006
584.4669	0.0009
584.659	0.0025
584.8511	0.0057
585.0431	0.0039
585.2352	0.0015
585.4272	0.0068
585.6192	0.0022
585.8111	0.003
586.0031	0.0002
586.195	0.0011
586.387	0.0006
586.5789	0.0018
586.7708	0.0091
586.9627	0.0019
587.1545	0.0027
587.3464	-0.0008
587.5382	-0.0008
587.73	0.0063
587.9218	-0.0006
588.1136	-0.0011
588.3053	0.0012
588.4971	0.0006
588.6888	0.003
588.8805	0.0001
589.0722	0.0058
589.2639	0.0024
589.4556	0.0075
589.6472	0.0039
589.8389	0.0047
590.0305	-0.0048
590.2221	0.0039
590.4137	0.0009
590.6052	-0.0039
590.7968	0.0044
590.9883	0.0053
591.1798	0.0029
591.3713	0.0023
591.5628	-0.001
591.7543	0.0022
591.9458	0.0009
592.1372	0.0071
592.3286	-0.0005
592.52	0.0035
592.7114	0.0008
592.9028	0.0099
593.0941	-0.0009
593.2855	0.0025
593.4768	0.0063
593.6681	0.004
593.8594	0.0059
594.0506	-0
594.2419	0.0008
594.4331	0
594.6244	-0.0021
594.8156	0.0064
595.0067	0.0013
595.1979	0.0024
595.3891	0.0051
595.5802	0.0055
595.7713	0.0054
595.9624	0.0053
596.1535	0.0052
596.3446	-0.0025
596.5357	0.0055
596.7267	-0.0017
596.9177	-0.0051
597.1087	-0.0032
597.2997	0.0027
597.4907	0.0059
597.6817	0.0052
597.8726	0.0027
598.0635	-0.0005
598.2544	0.0064
598.4453	0.0004
598.6362	0.0019
598.827	0.0048
599.0179	0.0035
599.2087	0.0074
599.3995	0.0108
599.5903	0.0076
599.7811	0.0081
599.9718	0.0032
600.1626	0.0002
600.3533	0.0007
600.544	-0.0006
600.7347	0.0046
600.9254	0.0061
601.116	0.003
601.3067	0.0035
601.4973	0.0112
601.6879	0.0055
601.8785	0.0045
602.0691	-0.0012
602.2596	0.0068
602.4502	0.0008
602.6407	0.0042
602.8312	0.0083
603.0217	0.0034
603.2122	0.0035
603.4027	0.0042
603.5931	0.0009
603.7835	0.0062
603.9739	0.0042
604.1643	0.0061
604.3547	0.006
604.5451	0.0037
604.7354	-0.0008
604.9257	0.0036
605.116	-0.0021
605.3063	0.0018
605.4966	0.0028
605.6869	0.0074
605.8771	0.0039
606.0673	0.0027
606.2575	-0.0026
606.4477	0.0073
606.6379	0.0026
606.8281	-0.0052
607.0182	-0.0026
607.2083	0.0074
607.3985	0.0034
607.5885	-0.0039
607.7786	0.0006
607.9687	0.0027
608.1587	0.0015
608.3488	0.0019
608.5388	-0.0016
608.7288	-0.0109
608.9187	0.0016
609.1087	0.0074
609.2986	0.0099
609.4886	-0.0015
609.6785	0.0034
609.8684	-0.0001
610.0582	-0.0065
610.2481	-0.0034
610.4379	0.0052
610.6278	0.0042
610.8176	0.0074
611.0074	0.0003
611.1971	0.0012
611.3869	0.0033
611.5766	-0.0013
611.7664	0.0095
611.9561	0.0029
612.1458	0.0024
612.3354	0.0041
612.5251	0.0057
612.7147	0.0089
612.9044	-0.0016
613.094	0.0071
613.2836	-0.0004
613.4731	0.0054
613.6627	0.0087
613.8522	0.0069
614.0417	0.0157
614.2313	0.0073
614.4207	-0.0013
614.6102	0.0066
614.7997	0.0081
614.9891	0.0115
615.1785	-0.0048
615.3679	0.0009
615.5573	0.0092
615.7467	-0.0075
615.9361	-0.0037
616.1254	0.0027
616.3147	0.0026
616.504	-0.0008
616.6933	0.009
616.8826	0.0018
617.0718	0.0029
617.2611	-0.0004
617.4503	0.0047
617.6395	0.0065
617.8287	0.0034
618.0179	0.0123
618.207	0.0102
618.3961	-0.0019
618.5853	-0.0005
618.7744	0.0075
618.9634	0.0084
619.1525	-0.0033
619.3416	0.0004
619.5306	0.0023
619.7196	0.0112
619.9086	-0.0045
620.0976	-0.0171
620.2866	0.017
620.4755	-0.0045
620.6645	0.0118
620.8534	0.0042
621.0423	-0.0025
621.2312	-0.0021
621.42	-0.0003
621.6089	0.0078
621.7977	0.0103
621.9865	-0.0018
622.1753	0.0011
622.3641	-0.0086
622.5529	-0.0041
622.7416	0.0055
622.9303	-0.0014
623.1191	0.001
623.3078	-0.003
623.4964	0.002
623.6851	0.0086
623.8737	0.0016
624.0624	-0.0082
624.251	0.0037
624.4396	0.0023
624.6282	0.0067
624.8167	-0.0064
625.0053	0.002
625.1938	-0.0004
625.3823	0.005
625.5708	0.001
625.7593	-0.0091
625.9477	0.0139
626.1362	-0.0016
626.3246	0.0018
626.513	0.008
626.7014	0.0033
626.8898	0.0117
627.0781	0.0006
627.2665	-0.0016
627.4548	-0.0036
627.6431	-0.0035
627.8314	0.0068
628.0197	0.0123
628.2079	0.0048
628.3962	0.0166
628.5844	0.0021
628.7726	-0.0017
628.9608	0.0072
629.1489	0.0036
629.3371	-0.011
629.5252	-0.0031
629.7134	0.0028
629.9015	0.0089
630.0895	-0.0125
630.2776	0.0056
630.4657	0.0156
630.6537	0.0117
630.8417	-0.007
631.0297	-0.0035
631.2177	0.0046
631.4057	0.0021
631.5936	-0.0106
631.7815	-0.0114
631.9695	0.0127
632.1574	0.0041
632.3452	0.0077
632.5331	0.0009
632.7209	0.012
632.9088	0.0003
633.0966	0.0181
633.2844	0.0032
633.4722	0.0092
633.6599	0.0099
633.8477	0.0069
634.0354	0.0086
634.2231	0.0043
634.4108	0.01
634.5985	0.0053
634.7861	-0.0047
634.9738	0.0037
635.1614	-0.0092
635.349	0.0008
635.5366	0.0093
635.7242	0.0091
635.9117	0.0029
636.0993	0.0144
636.2868	-0.0075
636.4743	0.0004
636.6618	0.0073
636.8492	0.0072
637.0367	0.0048
637.2241	-0.0051
637.4115	0.0195
637.5989	-0.0036
637.7863	0.0071
637.9737	0.0042
638.161	0.0129
638.3484	-0.0121
638.5357	0.0054
638.723	0.0008
638.9103	-0.0004
639.0975	0.0068
639.2848	0.0202
639.472	0.0075
639.6592	-0.0088
639.8464	-0.0109
640.0336	0.0103
640.2208	-0.0066
640.4079	-0.0089
640.595	-0.0037
640.7821	0.0127
640.9692	0.0062
641.1563	0.0012
641.3434	0.0208
641.5304	0.0144
641.7174	0.0276
641.9044	-0.0056
642.0914	0.0186
642.2784	0.0021
642.4653	-0.0139
642.6523	0.0302
642.8392	0.0058
643.0261	-0.0046
643.213	0.0028
643.3999	-0.0099
643.5867	0.0014
643.7735	-0.0119
643.9604	0.0188
644.1472	0.0087
644.3339	0.0004
644.5207	0.0014
644.7075	0.0043
644.8942	-0.0084
645.0809	0.0148
645.2676	0.0083
645.4543	-0.0044
645.6409	0.0293
645.8276	0.0051
646.0142	-0.0022
646.2008	-0
646.3874	-0.0258
646.574	-0.0174
646.7605	0.016
646.9471	-0.0036
647.1336	-0.0332
647.3201	0.0131
647.5066	0.0084
647.6931	-0.0067
647.8795	-0.0061
648.0659	0.0027
648.2524	0.0115
648.4388	0.0072
648.6252	0.008
648.8115	0.0037
648.9979	0.002
649.1842	0.0031
649.3705	0.0048
649.5568	-0.0081
649.7431	0.0117
649.9294	-0.0034
650.1156	-0.0097
650.3018	0.0078
650.488	0.0097
650.6742	0.0009
650.8604	0.0074
651.0466	-0.0085
651.2327	-0.0105
651.4188	-0.0021
651.6049	0.0105
651.791	0.0137
651.9771	0.0104
652.1632	0.007
652.3492	0.0165
652.5352	0.0172
652.7212	-0.0082
652.9072	0.002
653.0932	0.011
653.2791	0.0067
653.465	-0.0013
653.651	0.002
653.8369	0.0071
654.0227	-0.0019
654.2086	0.0101
654.3944	-0.0007
654.5803	-0.008
654.7661	0.0039
654.9519	-0.005
655.1377	0.0001
655.3234	0.0001
655.5092	0.0001
655.6949	0.0001
655.8806	0.0001
656.0663	0.0001
656.2519	0.0001
656.4376	0.0001
656.6232	0.0001
656.8088	0.0001
656.9945	0.0001
657.18	0.0001
657.3656	0.0001
657.5511	0.0001
657.7367	0.0001
657.9222	0.0001
658.1077	0.0001
658.2932	0.0001
658.4786	0.0001
658.6641	0.0001
658.8495	0.0001
659.0349	0.0001
659.2203	0.0001
659.4057	0.0001
659.591	0.0624
659.7764	0.0259
659.9617	-0.002
660.147	-0.0126
660.3323	0.0035
660.5176	-0.0091
660.7028	-0.0089
660.888	-0.0052
661.0733	0.0229
661.2585	0.0029
661.4436	0.0034
661.6288	0.0233
661.8139	-0.0043
661.9991	-0.0127
662.1842	-0.004
662.3693	-0.005
662.5544	0.0172
662.7394	0.0031
662.9245	-0.0006
663.1095	-0.0079
663.2945	0.0014
663.4795	-0.0089
663.6644	0.0013
663.8494	0.0142
664.0343	0.0033
664.2193	-0.0066
664.4042	0.0109
664.589	0.0009
664.7739	0.022
664.9587	-0.0081
665.1436	0.0024
665.3284	0.0025
665.5132	-0.0266
665.698	0.0068
665.8827	0.0157
666.0675	-0.0131
666.2522	0.0164
666.4369	-0.0049
666.6216	-0.0031
666.8063	0.0106
666.9909	0.015
667.1756	0.0226
667.3602	-0.0171
667.5448	0.0292
667.7294	0.0165
667.9139	-0.0187
668.0985	0.0013
668.283	-0.0061
668.4675	0.0293
668.652	0.0094
668.8365	-0.0102
669.0209	-0.0049
669.2054	0.0208
669.3898	0.0025
669.5742	0.0187
669.7586	0.0269
669.943	0.0164
670.1273	-0.0029
670.3117	0.0352
670.496	0.0071
670.6803	0.0092
670.8646	-0.0265
671.0488	0.0178
671.2331	-0.0052
671.4173	0.0083
671.6015	-0.0012
671.7857	0.0073
671.9699	0.0026
672.1541	-0.0033
672.3382	-0.0196
672.5223	-0.0063
672.7064	0.0104
672.8905	-0.0063
673.0746	0.0048
673.2587	0.0165
673.4427	0.0301
673.6267	0.0122
673.8107	0.0265
673.9947	0.0014
674.1787	0.0132
674.3626	0.0205
674.5465	0.0325
674.7304	-0.0071
674.9143	-0.017
675.0982	0.0102
675.2821	0.009
675.4659	-0.0047
675.6497	0.0179
675.8335	-0.0066
676.0173	0.0118
676.2011	-0.0101
676.3849	0.0079
676.5686	0.0134
676.7523	0.0006
676.936	-0.0018
677.1197	-0.0071
677.3034	0.0244
677.487	0.0065
677.6706	0.0031
677.8542	0.0036
678.0378	0.0042
678.2214	0.0117
678.405	0.0011
678.5885	-0.0097
678.772	0.0147
678.9555	0.0016
679.139	0.0125
679.3225	0.0043
679.5059	-0.0033
679.6894	0.0146
679.8728	-0.0027
680.0562	-0.0019
680.2395	-0.0149
680.4229	-0.0135
680.6062	0.0149
680.7896	-0.0187
680.9729	0.0355
681.1562	-0.0072
681.3394	-0.0094
681.5227	0.0037
681.7059	0.0177
681.8891	0.014
682.0723	-0.0128
682.2555	0.0171
682.4387	0.0167
682.6218	0.0012
682.805	0.0262
682.9881	0.0262
683.1712	0.0193
683.3542	0.0158
683.5373	-0.0233
683.7203	0.0029
683.9034	0.0076
684.0864	-0.0037
684.2694	-0.003
684.4523	0.0073
684.6353	0.0082
684.8182	-0.01
685.0011	0.017
685.184	-0.0017
685.3669	0.0107
685.5498	-0.0016
685.7326	0.0005
685.9154	-0.0008
686.0982	0.0028
686.281	-0.0167
686.4638	0.0129
686.6465	-0.0004
686.8293	-0.0073
687.012	0.0316
687.1947	0.0059
687.3774	0.0028
687.56	-0.0044
687.7427	0.0002
687.9253	-0.0217
688.1079	-0.0216
688.2905	-0.0114
688.4731	0.0133
688.6556	0.0067
688.8382	-0.0199
689.0207	0.0015
689.2032	0.0253
689.3857	-0.0022
689.5681	0.0058
689.7506	0.025
689.933	0.0037
690.1154	0.0141
690.2978	0.0161
690.4802	0.0288
690.6626	0.018
690.8449	0.0142
691.0272	-0.0023
691.2095	-0.0044
691.3918	0.0026
691.5741	0.0013
691.7563	0.0043
691.9386	0.0102
692.1208	0.0197
692.303	0.0032
692.4852	0.0095
692.6673	0.0011
692.8495	-0.0161
693.0316	0.0033
693.2137	0.0024
693.3958	-0.004
693.5778	-0.0056
693.7599	0.0009
693.9419	-0.0443
694.1239	0.0174
694.3059	0.0123
694.4879	0.0091
694.6699	0.0111
694.8518	0.001
695.0337	0.0098
695.2157	0.0173
695.3975	0.0073
695.5794	-0.0236
695.7613	0.0067
695.9431	-0.0167
696.1249	0.0053
696.3067	-0.0114
696.4885	0.0015
696.6703	-0.0016
696.852	-0.0201
697.0337	0.0225
697.2154	0.0097
697.3971	0.0104
697.5788	-0.0012
697.7605	-0.0074
697.9421	0.0111
698.1237	0.0173
698.3053	-0.0097
698.4869	0.0045
698.6685	0.0008
698.85	0.0238
699.0315	-0.012
699.213	0.0248
699.3945	0.0003
699.576	0.029
699.7575	0.0106
699.9389	-0.0055
700.1203	0.0064
700.3017	-0.002
700.4831	0.0083
700.6645	0.0148
700.8458	0.0055
701.0271	0.0104
701.2084	-0.0028
701.3897	0.0268
701.571	-0.0182
701.7523	0.0262
701.9335	0.0078
702.1147	0.0247
702.2959	-0.0163
702.4771	0.0219
702.6583	0.0057
702.8394	-0.0117
703.0205	0.0202
703.2016	-0.0128
703.3827	-0.0316
703.5638	-0.02
703.7449	-0.0001
703.9259	0.0173
704.1069	-0.0062
704.2879	0.0167
704.4689	-0.0062
704.6499	0.0286
704.8308	-0.0033
705.0117	0.0087
705.1927	0.0221
705.3735	0.0028
705.5544	0.0017
705.7353	-0.0104
705.9161	-0.0342
706.0969	-0.0021
706.2777	-0.0027
706.4585	-0.0027
706.6393	0.0204
706.82	0.0116
707.0007	-0.0142
707.1815	-0.0138
707.3621	0.023
707.5428	0.0298
707.7235	-0.0093
707.9041	0.0168
708.0847	-0.0055
708.2653	0.0164
708.4459	-0.0086
708.6265	-0.0054
708.807	0.008
708.9875	0.0274
709.168	0.0067
709.3485	0.001
709.529	0.0074
709.7095	-0.0146
709.8899	-0.0081
710.0703	0.0116
710.2507	-0.0245
710.4311	-0.0343
710.6115	0.031
710.7918	-0.0004
710.9721	0.0031
711.1524	0.0089
711.3327	0.0003
711.513	-0.0032
711.6932	0.0296
711.8735	0.0262
712.0537	-0.0013
712.2339	-0.0017
712.4141	0.0257
712.5942	-0.0091
712.7744	0.0049
712.9545	0.0269
713.1346	0.0339
713.3147	0.0143
713.4947	-0.0099
713.6748	0.0101
713.8548	0.0245
714.0348	0.0174
714.2148	0.0158
714.3948	0.0136
714.5748	0.0226
714.7547	-0.0044
714.9346	0.0367
715.1145	0.0049
715.2944	-0.0023
715.4743	0.0181
715.6541	-0.0026
715.834	0.03
716.0138	-0.0006
716.1936	0.001
716.3733	-0.0056
716.5531	-0.018
716.7328	0.0088
716.9126	0.021
717.0923	-0.0033
717.2719	-0.0165
717.4516	0.0379
717.6312	-0.0044
717.8109	0.0257
717.9905	-0.0118
718.1701	0.0103
718.3496	-0.0174
718.5292	-0.0156
718.7087	0.0167
718.8882	0.0193
719.0677	0.001
719.2472	-0.0205
719.4267	-0.0008
719.6061	-0.0197
719.7856	0.0181
719.965	0.0162
720.1443	-0.0132
720.3237	-0.0009
720.5031	-0.0042
720.6824	0.0041
720.8617	0.0075
721.041	0.0268
721.2203	0.0016
721.3995	-0.011
721.5788	0.0083
721.758	0.0045
721.9372	-0.0205
722.1164	-0.0198
722.2956	-0.0005
722.4747	0.0205
722.6538	0.0026
722.8329	0.0306
723.012	0.0098
723.1911	0.0033
723.3702	0.0504
723.5492	0.0246
723.7282	0.0064
723.9072	0.0094
724.0862	0.0076
724.2652	-0.009
724.4441	0.0102
724.623	0.0258
724.8019	0.01
724.9808	-0.0072
725.1597	-0.0024
725.3385	-0.0017
725.5174	0.0037
725.6962	0.017
725.875	0.0029
726.0538	-0.0042
726.2325	0.01
726.4112	-0.0148
726.59	-0.002
726.7687	0.0066
726.9474	0.0262
727.126	0.0314
727.3047	0.0131
727.4833	0.0251
727.6619	-0.0131
727.8405	-0.0001
728.0191	0.0066
728.1976	0.0107
728.3762	-0.0047
728.5547	-0.0234
728.7332	0.0115
728.9116	-0.0074
729.0901	0.0025
729.2686	0.0003
729.447	-0.0235
729.6254	0.005
729.8038	-0.0032
729.9821	-0.02
730.1605	0.0066
730.3388	0.0124
730.5171	0.0188
730.6954	-0.005
730.8737	-0.0008
731.0519	0.0012
731.2302	0.0101
731.4084	-0.0077
731.5866	-0.0157
731.7648	0.0069
731.9429	0.0262
732.1211	-0.0097
732.2992	-0.0078
732.4773	0.0014
732.6554	0.0025
732.8335	-0.005
733.0115	0.0031
733.1896	-0.0209
733.3676	0.0143
733.5456	-0.0113
733.7235	0.006
733.9015	-0.0011
734.0794	0.0067
734.2574	-0.0048
734.4353	0.0203
734.6131	0.0042
734.791	0.0142
734.9689	0.0017
735.1467	-0.0118
735.3245	0.0072
735.5023	0.0098
735.68	-0.0038
735.8578	0.0026
736.0355	-0.0032
736.2132	0.0053
736.3909	0.0271
736.5686	0.0027
736.7463	-0.0089
736.9239	0.0172
737.1015	-0.0114
737.2791	0.0271
737.4567	0.0288
737.6343	-0.0075
737.8118	0.0324
737.9894	0.0197
738.1669	0.0142
738.3444	0.0305
738.5218	-0.0075
738.6993	0.0017
738.8767	-0
739.0541	-0.0045
739.2315	0.0153
739.4089	0.0324
739.5863	0.0079
739.7636	-0.0045
739.9409	-0.0051
740.1182	-0.0031
740.2955	0.0301
740.4728	0.0034
740.65	-0.012
740.8272	0.0149
741.0044	-0.0371
741.1816	0.0078
741.3588	-0.0359
741.5359	-0.0291
741.7131	0.0053
741.8902	0.0037
742.0673	-0.0238
742.2444	0.0159
742.4214	0.0126
742.5985	0.0037
742.7755	0.0198
742.9525	-0.0448
743.1295	0.0101
743.3064	-0.0435
743.4834	-0.0026
743.6603	0.0672
743.8372	-0.0204
744.0141	0.0178
744.191	-0.0001
744.3678	-0.0097
744.5446	0.0221
744.7215	0.0039
744.8982	0.0013
745.075	0.068
745.2518	0.0208
745.4285	0.0269
745.6052	-0.0035
745.7819	-0.0093
745.9586	-0.0005
746.1353	-0.0315
746.3119	0.0094
746.4885	0.0351
746.6651	-0.0022
746.8417	0.0246
747.0183	0.0236
747.1948	0.0004
747.3714	0.0147
747.5479	0.0122
747.7244	-0.0046
747.9008	-0.0218
748.0773	0.0106
748.2537	0.0237
748.4301	0.0213
748.6065	-0.0173
748.7829	-0.0272
748.9593	-0.0012
749.1356	0.0069
749.3119	0.0109
749.4882	0.0192
749.6645	-0.0051
749.8408	-0.0036
750.017	0.0164
750.1933	-0.018
750.3695	0.0129
750.5457	-0.0124
750.7218	-0.0123
750.898	-0.0057
751.0741	0.0122
751.2502	-0.0043
751.4263	0.0009
751.6024	-0.0112
751.7784	0.0052
751.9545	-0.0066
752.1305	-0.0001
752.3065	0.0074
752.4825	-0.0238
752.6584	0.0154
752.8344	-0.0052
753.0103	-0.0222
753.1862	0.0086
753.3621	0.0003
753.5379	-0.0289
753.7138	0.0054
753.8896	-0.0053
754.0654	-0.0055
754.2412	-0.0025
754.417	0.0047
754.5927	-0.0018
754.7685	0.0063
754.9442	0.0101
755.1199	0.0067
755.2956	0.0138
755.4712	0.0032
755.6469	-0.0032
755.8225	0.0013
755.9981	0.008
756.1736	-0.0015
756.3492	0.0031
756.5248	0.0029
756.7003	0.0091
756.8758	0.0099
757.0513	-0.0012
757.2267	0.0131
757.4022	-0.004
757.5776	0.0078
757.753	0.0148
757.9284	0.0097
758.1038	0.0353
758.2791	0.0019
758.4545	-0.022
758.6298	-0.0061
758.8051	0.017
758.9803	-0.0043
759.1556	-0.0073
759.3308	-0.0059
759.506	0.0147
759.6812	-0.0032
759.8564	-0.0108
760.0316	-0.0071
760.2067	0.0184
760.3819	0.0036
760.557	-0.0032
760.732	0.0052
760.9071	0.0087
761.0821	-0.0172
761.2572	0.0044
761.4322	0.0092
761.6072	0.0134
761.7821	-0.0421
761.9571	0.0108
762.132	0.0072
762.3069	-0.0085
762.4818	0.0356
762.6567	0.0073
762.8316	0.0076
763.0064	0.018
763.1812	-0.0053
763.356	-0.024
763.5308	-0.0021
763.7055	-0.0038
763.8803	0.0008
764.055	0.0012
764.2297	-0.0185
764.4044	-0.0014
764.579	-0.0066
764.7537	0.0007
764.9283	-0.0022
765.1029	-0.0033
765.2775	0.0015
765.4521	0.0025
765.6266	0.01
765.8011	-0.0091
765.9756	-0.0015
766.1501	-0.0068
766.3246	0.0082
766.4991	0.015
766.6735	0.0219
766.8479	-0.0224
767.0223	0.0229
767.1967	0.0079
767.371	0.0342
767.5454	0.0489
767.7197	0.0384
767.894	-0.0017
768.0683	0.0065
768.2425	0.0109
768.4168	0.0169
768.591	0.0174
768.7652	-0.0094
768.9394	-0.005
769.1135	-0.0048
769.2877	-0.0001
769.4618	0.0494
769.6359	0.0165
769.81	-0.0046
769.984	-0.0097
770.1581	0.0258
770.3321	0.0265
770.5061	-0.0079
770.6801	0.0063
770.8541	0.019
771.028	0.042
771.202	0.0249
771.3759	0.0038
771.5498	0.0088
771.7236	0.0008
771.8975	0.0181
772.0713	0.0101
772.2451	-0.0356
772.4189	0.0083
772.5927	-0.027
772.7665	-0.0001
772.9402	0.0258
773.1139	0.0094
773.2876	0.006
773.4613	-0.0012
773.635	0.0165
773.8086	0.0296
773.9822	0.0084
774.1558	0.0034
774.3294	-0.0042
774.503	0.0083
774.6765	0.0033
774.8501	-0.0266
775.0236	0.0171
775.1971	0.0076
775.3705	0.0085
775.544	-0.0252
775.7174	0.0208
775.8908	-0.0045
776.0642	0.0634
776.2376	0.0381
776.4109	-0.0019
776.5843	-0.0483
776.7576	0.0287
776.9309	0.0108
777.1041	-0.0201
777.2774	-0.0132
777.4506	-0.0052
777.6238	-0.0621
777.797	0.0335
777.9702	0.0085
778.1434	0.0286
778.3165	-0.0194
778.4896	-0.0377
778.6627	0.0214
778.8358	0.0057
779.0089	-0.0229
779.1819	0.0398
779.3549	-0.003
779.5279	0.0084
779.7009	0.0567
779.8739	0.0879
780.0468	-0.0008
780.2197	0.0006
780.3926	-0.0377
780.5655	-0.0052
780.7384	-0.0067
780.9112	0.0118
781.0841	0.0107
781.2569	0.0123
781.4297	0.0022
781.6024	0.0036
781.7752	0.0266
781.9479	0.0563
782.1206	0.0042
782.2933	0.0161
782.466	0.0302
782.6386	-0.0245
782.8113	-0.0036
782.9839	-0.0042
783.1565	0.0027
783.329	0.0046
783.5016	0.0227
783.6741	0.0085
783.8466	0.0519
784.0191	0.0006
784.1916	-0.0269
784.3641	-0.0434
784.5365	0.0185
784.7089	-0.0361
784.8813	0.0548
785.0537	0.0385
785.2261	-0.0147
785.3984	0.0047
785.5707	0.0014
785.743	0.0344
785.9153	0.0258
786.0876	-0.0143
786.2598	-0.0162
786.432	0.0014
786.6042	0.0265
786.7764	-0.0294
786.9486	-0.0063
787.1207	0.0386
787.2928	0.045
787.4649	-0.039
787.637	0.0155
787.8091	0.013
787.9811	0.0854
788.1532	-0.0024
788.3252	-0.0189
788.4972	0.0122
788.6691	-0.0036
788.8411	-0.012
789.013	0.0068
789.1849	-0.0256
789.3568	-0.011
789.5287	0.0773
789.7005	0.0123
789.8723	-0.0283
790.0442	-0.04
790.2159	0.0364
790.3877	0.0302
790.5595	0.0694
790.7312	0.0028
790.9029	-0.0337
791.0746	0.0401
791.2463	-0.0401
791.4179	-0.0443
791.5896	0.022
791.7612	-0.0235
791.9328	0.0202
792.1044	0.0244
792.2759	-0.0482
792.4474	0.0092
792.619	0.0101
792.7905	0.0055
792.9619	0.0754
793.1334	0.0201
793.3048	0.0875
793.4762	0.0083
793.6476	-0.021
793.819	0.0134
793.9904	-0.0288
794.1617	-0.0124
794.333	-0.0081
794.5043	0.0121
794.6756	-0.0075
794.8469	0.0502
795.0181	0.0031
795.1893	-0.0001
795.3605	0.0422
795.5317	0.0177
795.7029	0.0083
795.874	0.0238
796.0452	0.007
796.2163	0.0383
796.3873	0.073
796.5584	0.1004
796.7294	0.0012
796.9005	-0.0132
797.0715	-0.0307
797.2425	0.0861
797.4134	0.0955
797.5844	0.0538
797.7553	-0.0559
797.9262	0.0675
798.0971	0.0389
798.2679	-0.0074
798.4388	0.0666
798.6096	-0.0292
798.7804	0.03
798.9512	0.0152
799.122	-0.0128
799.2927	0.1142
799.4635	-0.0399
799.6342	-0.0508
799.8049	0.0214
799.9755	-0.0579
800.1462	0.0011
800.3168	0.1014
800.4874	-0.0422
800.658	0.1522
800.8286	0.022
800.9991	0.0531
801.1696	-0.0338
801.3402	-0.0756
801.5106	-0.0665
801.6811	-0.0691
801.8516	0.0278
802.022	0.0131
802.1924	-0.0246
802.3628	0.0407
802.5332	0.1194
802.7035	-0.0034
802.8739	-0.0411
803.0442	-0.0095
803.2145	-0.0147
803.3847	0.0075
803.555	0.0406
803.7252	0.0525
803.8954	0.0268
804.0656	-0.0122
804.2358	-0.0129
804.4059	0.0558
804.5761	0.0016
804.7462	-0.0414
804.9163	0.0585
805.0864	-0.0417
805.2564	-0.0764
805.4264	-0.0259
805.5965	0.0568
805.7665	-0.0137
805.9364	-0.0637
806.1064	-0.0498
806.2763	0.0201
806.4462	0.055
806.6161	0.0599
806.786	-0.0032
806.9559	-0.0329
807.1257	-0.0012
807.2955	0.0009
807.4653	-0.0245
807.6351	0.0934
807.8048	-0.0267
807.9746	-0.0763
808.1443	-0.0056
808.314	0.0153
808.4837	0.0878
808.6533	-0.029
808.8229	-0.003
808.9926	0.1019
809.1622	-0.0083
809.3317	-0.0318
809.5013	0.0359
809.6708	-0.0166
809.8403	0.0351
810.0098	-0.0073
810.1793	0.0039
810.3488	-0.039
810.5182	0.0227
810.6876	-0.0284
810.857	-0.0113
811.0264	-0.099
811.1958	0.1995
811.3651	0.0389
811.5344	0.0493
811.7037	-0.0096
811.873	0.0549
812.0422	-0.0148
812.2115	-0.0296
812.3807	-0.1812
812.5499	-0.0517
812.7191	-0.1003
812.8882	-0.059
813.0574	0.0763
813.2265	0.0276
813.3956	-0.0106
813.5646	0.0682
813.7337	-0.0263
813.9027	-0.0924
814.0718	-0.0222
814.2407	-0.0191
814.4097	0.0357
814.5787	0.0334
814.7476	0.0056
814.9165	0.0167
815.0854	0.0016
815.2543	0.0261
815.4232	0.067
815.592	0.1587
815.7608	-0.101
815.9296	-0.0088
816.0984	0.169
816.2671	-0.1839
816.4359	0.2185
816.6046	0.0343
816.7733	-0.0272
816.942	-0.0579
817.1106	0.0557
817.2793	-0.1139
817.4479	-0.0429
817.6165	0.0838
817.785	-0.0223
817.9536	-0.0934
818.1221	0.0988
818.2906	-0.0006
818.4591	-0.0545
818.6276	0.0858
818.7961	-0.057
818.9645	0.0285
819.1329	0.012
819.3013	-0.0371
819.4697	0.1173
819.638	0.0832
819.8064	-0.0699
819.9747	0.2047
820.143	-0.0632
820.3113	0.1093
820.4795	-0.0468
820.6477	0.0356
820.816	0.0839
820.9842	0.0753
821.1523	0.2489
821.3205	0.1095
821.4886	0.0636
821.6567	0.0294
821.8248	0.1433
821.9929	-0.1916
822.1609	0.0453
822.329	0.0951
822.497	0.0381
822.665	-0.0905
822.833	0.0684
823.0009	0.0029
823.1688	0.0438
823.3367	0.0335
823.5046	0.1284
823.6725	-0.0038
823.8404	0.0393
824.0082	-0.0656
824.176	-0.1147
824.3438	0.3619
824.5116	0.0225
824.6793	0.0545
824.847	0.0417
825.0147	-0.0803
825.1824	0.0423
825.3501	0.1684
825.5177	-0.021
825.6854	-0.2605
825.853	0.0245
826.0206	-0.0042
826.1881	0.1104
826.3557	0.1211
826.5232	0.2595
826.6907	0.0338
826.8582	-0.0453
827.0257	0.0665
827.1931	0.134
827.3605	-0.0993
827.528	0.0663
827.6953	-0.1971
827.8627	-0.1113
828.03	0.14
828.1974	-0.0599
828.3647	0.0794
828.532	0.0225
828.6992	0.0257
828.8665	-0.3066
829.0337	0.0863
829.2009	-0.0593
829.3681	-0.04
829.5352	-0.2993
829.7024	0.07
829.8695	0.0646
830.0366	0.1489
830.2037	0.18
830.3707	0.2249
830.5378	-0.0766
830.7048	-0.1583
830.8718	0.3716
831.0388	-0.0114
831.2057	0.0723
831.3727	-0.5055
831.5396	0.1759
831.7065	-0.5309
831.8734	0.6452
832.0402	0.4033
832.2071	-0.2931
832.3739	-0.2559
832.5407	-1.3396
832.7075	-0.482
832.8742	0.0231
833.041	-0.0105
833.2077	0.2461
833.3744	-0.0578
833.541	0.0431
833.7077	-0.07
833.8743	0.1136
834.0409	0.0098
834.2075	0.2412
834.3741	-0.243
834.5407	0.6058
834.7072	0.0456
834.8737	0.2422
835.0402	0.6234
835.2067	0.0405
835.3731	-0.142
835.5395	-0.0115
835.706	-0.0017
835.8723	-0.051
836.0387	-0.1735
836.2051	0.0501
836.3714	0.1932
836.5377	0.1377
836.704	0.4271
836.8703	-0.2023
837.0365	-0.6971
837.2027	0.0581
837.3689	0.0766
837.5351	0.0661
837.7013	-0.1513
837.8674	-0
838.0335	-0.0768
838.1997	-0.397
838.3657	-0
838.5318	-0.4412
838.6978	-0
838.8639	-0.1417
839.0299	0.1724
839.1958	0.2218
839.3618	0.196
839.5277	0.0386
839.6937	0.0306
839.8596	-0.3198
840.0254	-0.0638
840.1913	-0
840.3571	-0.2401
840.523	-0.4771
840.6888	-0.1043
840.8545	-0.1317
841.0203	0.2706
841.186	0.2145
841.3517	-0.3219
841.5174	0.2289
841.6831	0.0055
841.8488	0.1132
842.0144	0.0498
842.18	0.573
842.3456	-0.5103
842.5112	-0
842.6767	-0.0486
842.8422	0.1658
843.0077	0.0494
843.1732	-0.3469
843.3387	-0.0639
843.5042	0.5305
843.6696	0.2321
843.835	-0.2587
844.0004	-0.093
844.1657	-0.7424
844.3311	0.2037
844.4964	0.3596
844.6617	0.1869
844.827	-0
844.9923	0.1343
845.1575	-0.2461
845.3227	-0.2865
845.4879	-0.0201
845.6531	0.0267
845.8183	0.2501
845.9834	-0.0357
846.1485	0.2912
846.3136	0.0097
846.4787	-0
846.6438	-0.2486
846.8088	0.501
846.9738	-0
847.1388	0.4849
847.3038	0.1387
847.4687	1.2238
847.6337	-0.2924
847.7986	0.5962
847.9635	0.2148
848.1284	-0
848.2932	0.1456
848.458	-0
848.6228	0.5743
848.7876	-0
848.9524	0.063
849.1172	-2.0104
849.2819	-0
849.4466	0.9128
849.6113	0.1881
849.7759	0.2218
849.9406	0.3019
850.1052	-0
850.2698	0.7291
850.4344	-0.8081
850.599	1.0601
850.7635	1.2647
850.928	0.0617
851.0925	0.1594
851.257	0.524
851.4215	-0
851.5859	-0.0829
851.7503	-0
851.9147	0.5898
852.0791	-0.2031
852.2434	0.085
852.4078	-0
852.5721	1.1034
852.7364	0.6299
852.9007	-0.0662
853.0649	-0
853.2291	1.2289
853.3934	-0
853.5575	-0.0133
853.7217	0.3015
853.8859	-0
854.05	-0.7315
854.2141	0.7437
854.3782	-0.1203
854.5423	-0.3542
854.7063	0.1947
854.8703	-0.1133
855.0343	-0.1867
855.1983	-0.0894
855.3623	-0.0179
855.5262	-0
855.6901	1.9798
855.854	0.197
856.0179	0.0299
856.1818	-0
856.3456	0.1457
856.5094	-0
856.6732	0.0395
856.837	-0.9814
857.0008	-0.7453
857.1645	-0.0456
857.3282	-0.4131
857.4919	0.6394
857.6556	-0.0924
857.8192	0.0958
857.9828	-0.3809
858.1465	0.4947
858.31	0.568
858.4736	-0.3487
858.6372	1.0261
858.8007	-0.0921
858.9642	0.2086
859.1277	1.8346
859.2911	-0.183
859.4546	-0
859.618	0.6235
859.7814	-0.0965
859.9448	-0
860.1081	-0
860.2715	-0
860.4348	0.9521
860.5981	0.2218
860.7614	-0
860.9246	0.0675
861.0879	0.0211
861.2511	-0
861.4143	-0.9595
861.5774	0.1934
861.7406	-0.0932
861.9037	-0
862.0668	-0.4771
862.2299	-0
862.393	0.1271
862.556	-0
862.7191	0.0239
862.8821	0.0085
863.0451	0.1993
863.208	-0
863.371	-0.7453
863.5339	0.5088
863.6968	0.3843
863.8597	-0.4677
864.0225	0.5538
864.1854	-0.4602
864.3482	-0
864.511	-0.113
864.6737	0.1615
864.8365	0.5898
864.9992	-0
865.1619	0.516
865.3246	-2.0162
865.4873	-0.3931
865.65	0.8378
865.8126	0.2174
865.9752	-0.1976
866.1378	-0.2693
866.3004	-0.2743
866.4629	-1.7993
866.6254	-0
866.7879	1.4385
866.9504	-0
867.1129	-0.1532
867.2753	-0.2269
867.4377	0.4671
867.6001	-0
867.7625	0.0566
867.9249	-0
868.0872	0.2873
868.2495	1.7225
868.4118	0.4923
868.5741	0.174
868.7363	-0.5545
868.8986	-0
869.0608	-0
869.223	-0.184
869.3851	0.0099
869.5473	-0.0264
869.7094	0.5216
869.8715	-0.2054
870.0336	0.1869
870.1957	-0.8855
870.3577	0.4279
870.5197	-0.0129
870.6817	-0.9199
870.8437	0.3206
871.0057	0.9097
871.1676	0.217
871.3295	0.89
871.4914	-0
871.6533	-0
871.8151	0.317
871.977	-0.266
872.1388	-0.5326
872.3006	-0.6386
872.4623	-0.3199
872.6241	0.0692
872.7858	-0.0024
872.9475	-0
873.1092	0.042
873.2709	0.3544
873.4325	-1.5511
873.5941	-0
873.7557	-0
873.9173	0.529
874.0789	0.0215
874.2404	-0
874.4019	-0.097
874.5634	-0
874.7249	-0
874.8863	-0.3417
875.0478	-0.1838
875.2092	-0
875.3706	0.2834
875.5319	0.0478
875.6933	-0
875.8546	1.2888
876.0159	0.3957
876.1772	-0
876.3385	-0
876.4997	1.0601
876.6609	0.1753
876.8221	-0
876.9833	-0.0686
877.1445	0.1207
877.3056	-0.6933
877.4667	-0.3829
877.6278	1.2831
877.7889	0.0213
877.9499	0.3747
878.111	-0.2635
878.272	-0.3606
878.433	-0
878.5939	-0
878.7549	-0
878.9158	0.7024
879.0767	-0
879.2376	-0.2172
879.3984	-0
879.5593	1.3969
879.7201	-0.9938
879.8809	0.543
880.0417	-0.3636
880.2024	-0.2297
880.3632	-0.7671
880.5239	-0.2389
880.6846	-0.2636
880.8452	-0.2771
881.0059	-0
881.1665	0.0654
881.3271	0.4675
881.4877	0.1184
881.6483	-1.3436
881.8088	-0
881.9693	-0
882.1298	-0
882.2903	-0
