Data from D4ACN5uM460nmA_Absorbance_13-05-42-200.txt Node
Date: Fri Feb 21 13:05:42 GMT 2025
User: LASERRRRR
Spectrometer: FLMT03099
Trigger mode: 0
Integration Time (sec): 1.500000E-2
Scans to average: 1
Electric dark correction enabled: true
Nonlinearity correction enabled: false
Boxcar width: 0
XAxis mode: Wavelengths
Number of Pixels in Spectrum: 3648
>>>>>Begin Spectral Data<<<<<
179.3399	-0.3506
179.5586	-0.3506
179.7771	-0.3506
179.9957	-0.033
180.2143	-0
180.4329	0.836
180.6514	-0
180.8699	-0
181.0885	-0
181.307	-0.1481
181.5255	0.704
181.744	-0
181.9625	0.1754
182.181	-0.6326
182.3994	-0.7157
182.6179	0.1957
182.8363	1.0331
183.0547	0.3288
183.2732	0.0063
183.4916	0.3872
183.71	0.0986
183.9284	0.1866
184.1467	0.4013
184.3651	0.2215
184.5835	0.3093
184.8018	0.2056
185.0201	0.1572
185.2385	0.3216
185.4568	0.2067
185.6751	0.1567
185.8934	0.3031
186.1117	-0.0993
186.3299	0.1217
186.5482	0.1723
186.7664	0.0562
186.9847	0.3801
187.2029	0.108
187.4211	-0.0429
187.6393	0.2603
187.8575	0.0935
188.0757	1.4756
188.2939	0.2002
188.512	0.2035
188.7302	-0.0679
188.9483	0.5024
189.1665	0.5487
189.3846	0.4162
189.6027	0.2216
189.8208	0.297
190.0389	0.1084
190.257	0.263
190.475	-0.0167
190.6931	0.0861
190.9111	0.1288
191.1292	0.2953
191.3472	0.245
191.5652	0.2261
191.7832	0.4043
192.0012	0.1785
192.2192	0.2616
192.4371	0.1073
192.6551	0.1395
192.873	0.1277
193.091	0.1123
193.3089	0.2552
193.5268	0.242
193.7447	0.2248
193.9626	0.2432
194.1805	0.3203
194.3984	0.2068
194.6162	0.2312
194.8341	0.2913
195.0519	0.2835
195.2697	0.2059
195.4875	0.3037
195.7054	0.2854
195.9231	0.1992
196.1409	0.2795
196.3587	0.2684
196.5765	0.3036
196.7942	0.3549
197.012	0.3727
197.2297	0.3259
197.4474	0.3967
197.6651	0.2794
197.8828	0.3636
198.1005	0.428
198.3182	0.3364
198.5358	0.3954
198.7535	0.3863
198.9711	0.364
199.1888	0.3624
199.4064	0.442
199.624	0.3626
199.8416	0.3775
200.0592	0.3812
200.2767	0.4188
200.4943	0.4253
200.7119	0.3935
200.9294	0.3947
201.1469	0.4067
201.3645	0.4548
201.582	0.4024
201.7995	0.4215
202.017	0.4089
202.2344	0.3948
202.4519	0.4063
202.6694	0.4084
202.8868	0.3722
203.1042	0.4382
203.3217	0.42
203.5391	0.4112
203.7565	0.3544
203.9739	0.3909
204.1913	0.3564
204.4086	0.3551
204.626	0.3931
204.8433	0.3921
205.0607	0.3715
205.278	0.339
205.4953	0.3494
205.7126	0.348
205.9299	0.3564
206.1472	0.3257
206.3644	0.3343
206.5817	0.3458
206.7989	0.3326
207.0162	0.3298
207.2334	0.3304
207.4506	0.3095
207.6678	0.3168
207.885	0.3099
208.1022	0.3121
208.3194	0.2673
208.5365	0.3056
208.7537	0.2977
208.9708	0.3017
209.1879	0.3143
209.405	0.3042
209.6222	0.2809
209.8392	0.3135
210.0563	0.2614
210.2734	0.282
210.4905	0.2834
210.7075	0.2779
210.9245	0.2709
211.1416	0.2735
211.3586	0.2516
211.5756	0.2418
211.7926	0.2627
212.0096	0.263
212.2265	0.2572
212.4435	0.283
212.6604	0.2404
212.8774	0.2507
213.0943	0.2473
213.3112	0.2548
213.5281	0.2568
213.745	0.2403
213.9619	0.2453
214.1788	0.263
214.3956	0.2527
214.6125	0.2481
214.8293	0.2466
215.0461	0.2526
215.2629	0.263
215.4798	0.2627
215.6965	0.2629
215.9133	0.2535
216.1301	0.2386
216.3469	0.2627
216.5636	0.2511
216.7803	0.249
216.9971	0.2569
217.2138	0.2585
217.4305	0.2481
217.6472	0.237
217.8639	0.2546
218.0805	0.2516
218.2972	0.2404
218.5138	0.2643
218.7305	0.2663
218.9471	0.2447
219.1637	0.262
219.3803	0.2541
219.5969	0.2542
219.8135	0.2613
220.0301	0.2502
220.2466	0.2525
220.4632	0.245
220.6797	0.2638
220.8962	0.2524
221.1127	0.27
221.3292	0.2626
221.5457	0.2858
221.7622	0.2735
221.9787	0.2909
222.1951	0.2676
222.4116	0.2637
222.628	0.2964
222.8444	0.2836
223.0608	0.278
223.2772	0.2861
223.4936	0.2843
223.71	0.294
223.9264	0.307
224.1427	0.293
224.3591	0.2913
224.5754	0.2955
224.7917	0.3012
225.008	0.2978
225.2243	0.295
225.4406	0.3059
225.6569	0.3075
225.8732	0.3077
226.0894	0.3047
226.3057	0.3053
226.5219	0.3122
226.7381	0.3277
226.9543	0.3071
227.1705	0.315
227.3867	0.3227
227.6029	0.3228
227.8191	0.3303
228.0352	0.3412
228.2513	0.3623
228.4675	0.3498
228.6836	0.3429
228.8997	0.3408
229.1158	0.3583
229.3319	0.3573
229.548	0.3633
229.764	0.3614
229.9801	0.3707
230.1961	0.3782
230.4121	0.3696
230.6282	0.3897
230.8442	0.3868
231.0602	0.3852
231.2761	0.3822
231.4921	0.3917
231.7081	0.3926
231.924	0.4045
232.14	0.402
232.3559	0.4034
232.5718	0.4146
232.7877	0.411
233.0036	0.4097
233.2195	0.415
233.4353	0.4157
233.6512	0.4186
233.867	0.4183
234.0829	0.4187
234.2987	0.4241
234.5145	0.4261
234.7303	0.4447
234.9461	0.4314
235.1619	0.4275
235.3776	0.4316
235.5934	0.4317
235.8091	0.4422
236.0249	0.4479
236.2406	0.4468
236.4563	0.4572
236.672	0.4442
236.8877	0.4541
237.1034	0.4486
237.319	0.4471
237.5347	0.4495
237.7503	0.4585
237.966	0.4761
238.1816	0.4531
238.3972	0.4576
238.6128	0.4595
238.8284	0.4649
239.0439	0.4625
239.2595	0.4637
239.475	0.449
239.6906	0.47
239.9061	0.4589
240.1216	0.461
240.3371	0.4596
240.5526	0.4536
240.7681	0.4555
240.9836	0.468
241.199	0.4443
241.4145	0.4402
241.6299	0.4404
241.8453	0.4316
242.0607	0.4398
242.2761	0.4402
242.4915	0.4201
242.7069	0.4168
242.9223	0.4146
243.1376	0.4108
243.353	0.395
243.5683	0.3999
243.7836	0.3851
243.9989	0.3746
244.2142	0.3648
244.4295	0.3626
244.6448	0.3653
244.86	0.3493
245.0753	0.3403
245.2905	0.3352
245.5057	0.3291
245.721	0.326
245.9362	0.3225
246.1514	0.3124
246.3665	0.3092
246.5817	0.2936
246.7969	0.2943
247.012	0.2883
247.2271	0.2866
247.4423	0.283
247.6574	0.2815
247.8725	0.2679
248.0876	0.2656
248.3026	0.2596
248.5177	0.2474
248.7328	0.2526
248.9478	0.2471
249.1628	0.2483
249.3779	0.2393
249.5929	0.235
249.8079	0.2305
250.0228	0.2305
250.2378	0.2312
250.4528	0.2218
250.6677	0.2202
250.8827	0.2124
251.0976	0.213
251.3125	0.2148
251.5274	0.2085
251.7423	0.1985
251.9572	0.2035
252.172	0.2068
252.3869	0.2049
252.6017	0.2047
252.8166	0.2022
253.0314	0.1918
253.2462	0.1958
253.461	0.188
253.6758	0.1931
253.8906	0.1947
254.1053	0.1893
254.3201	0.1932
254.5348	0.1885
254.7496	0.1844
254.9643	0.1892
255.179	0.1887
255.3937	0.1883
255.6083	0.1854
255.823	0.1873
256.0377	0.184
256.2523	0.1806
256.467	0.1844
256.6816	0.1788
256.8962	0.1855
257.1108	0.1806
257.3254	0.176
257.54	0.1814
257.7545	0.1822
257.9691	0.1774
258.1836	0.1735
258.3981	0.1798
258.6127	0.1705
258.8272	0.1823
259.0417	0.1791
259.2561	0.1761
259.4706	0.1738
259.6851	0.1808
259.8995	0.1732
260.114	0.1755
260.3284	0.1777
260.5428	0.1732
260.7572	0.1701
260.9716	0.1826
261.186	0.1716
261.4003	0.1721
261.6147	0.1668
261.829	0.1734
262.0433	0.1725
262.2577	0.1816
262.472	0.1699
262.6863	0.1805
262.9005	0.1779
263.1148	0.1762
263.3291	0.1756
263.5433	0.176
263.7576	0.1747
263.9718	0.1764
264.186	0.1756
264.4002	0.1749
264.6144	0.1802
264.8286	0.1763
265.0427	0.1812
265.2569	0.1747
265.471	0.1798
265.6851	0.1752
265.8993	0.1737
266.1134	0.1823
266.3275	0.1829
266.5415	0.1739
266.7556	0.1749
266.9697	0.1802
267.1837	0.1766
267.3978	0.1786
267.6118	0.1748
267.8258	0.1807
268.0398	0.1786
268.2538	0.1789
268.4677	0.1735
268.6817	0.1766
268.8957	0.1663
269.1096	0.1708
269.3235	0.1741
269.5374	0.1782
269.7514	0.1724
269.9652	0.1688
270.1791	0.1651
270.393	0.1737
270.6068	0.1713
270.8207	0.1684
271.0345	0.1713
271.2483	0.1648
271.4622	0.1639
271.676	0.1653
271.8897	0.1656
272.1035	0.1737
272.3173	0.1656
272.531	0.1661
272.7448	0.1659
272.9585	0.168
273.1722	0.1673
273.3859	0.1732
273.5996	0.1716
273.8133	0.1666
274.0269	0.161
274.2406	0.1684
274.4542	0.1669
274.6679	0.1686
274.8815	0.1743
275.0951	0.1724
275.3087	0.1663
275.5223	0.1643
275.7358	0.1712
275.9494	0.1709
276.1629	0.1698
276.3765	0.1695
276.59	0.1661
276.8035	0.1692
277.017	0.1748
277.2305	0.1728
277.444	0.1709
277.6574	0.176
277.8709	0.1782
278.0843	0.1721
278.2978	0.1745
278.5112	0.1736
278.7246	0.1715
278.938	0.1753
279.1513	0.1774
279.3647	0.1747
279.5781	0.175
279.7914	0.1701
280.0047	0.1779
280.2181	0.1693
280.4314	0.1811
280.6447	0.1788
280.8579	0.1706
281.0712	0.175
281.2845	0.1739
281.4977	0.1735
281.711	0.1733
281.9242	0.1769
282.1374	0.177
282.3506	0.1758
282.5638	0.181
282.7769	0.1722
282.9901	0.1824
283.2033	0.1852
283.4164	0.1761
283.6295	0.177
283.8426	0.1759
284.0557	0.1876
284.2688	0.1778
284.4819	0.1753
284.695	0.1805
284.908	0.1796
285.1211	0.184
285.3341	0.1805
285.5471	0.1894
285.7601	0.1834
285.9731	0.1854
286.1861	0.1889
286.3991	0.1863
286.612	0.1891
286.825	0.1854
287.0379	0.1884
287.2508	0.1888
287.4637	0.1893
287.6766	0.1882
287.8895	0.185
288.1024	0.1907
288.3152	0.191
288.5281	0.1798
288.7409	0.1929
288.9538	0.1868
289.1666	0.1881
289.3794	0.1877
289.5922	0.1821
289.8049	0.1913
290.0177	0.1945
290.2304	0.1886
290.4432	0.195
290.6559	0.1887
290.8686	0.1932
291.0813	0.1916
291.294	0.1983
291.5067	0.1867
291.7194	0.1967
291.932	0.1881
292.1447	0.188
292.3573	0.1968
292.5699	0.1943
292.7825	0.188
292.9951	0.1893
293.2077	0.1914
293.4203	0.1879
293.6328	0.1936
293.8454	0.1899
294.0579	0.1917
294.2704	0.1953
294.4829	0.1878
294.6954	0.1979
294.9079	0.1943
295.1204	0.1949
295.3328	0.1944
295.5453	0.1971
295.7577	0.1961
295.9701	0.197
296.1825	0.1939
296.3949	0.1845
296.6073	0.1885
296.8197	0.1938
297.0321	0.1911
297.2444	0.1904
297.4567	0.1949
297.6691	0.1885
297.8814	0.1957
298.0937	0.1998
298.306	0.1905
298.5182	0.1982
298.7305	0.1908
298.9428	0.1851
299.155	0.1884
299.3672	0.1876
299.5794	0.199
299.7916	0.1901
300.0038	0.1942
300.216	0.1937
300.4282	0.194
300.6403	0.1934
300.8525	0.1926
301.0646	0.1962
301.2767	0.1896
301.4888	0.1931
301.7009	0.1962
301.913	0.1948
302.125	0.1917
302.3371	0.1931
302.5491	0.1946
302.7612	0.2
302.9732	0.1929
303.1852	0.1935
303.3972	0.1929
303.6092	0.1899
303.8211	0.1864
304.0331	0.192
304.245	0.188
304.457	0.1809
304.6689	0.1878
304.8808	0.1846
305.0927	0.1905
305.3046	0.1851
305.5164	0.1855
305.7283	0.1897
305.9401	0.1758
306.152	0.1802
306.3638	0.181
306.5756	0.1803
306.7874	0.1756
306.9992	0.1708
307.2109	0.1724
307.4227	0.1672
307.6344	0.1724
307.8462	0.1685
308.0579	0.1665
308.2696	0.1742
308.4813	0.163
308.693	0.1593
308.9046	0.1615
309.1163	0.1608
309.328	0.1577
309.5396	0.1549
309.7512	0.1589
309.9628	0.1548
310.1744	0.1505
310.386	0.1507
310.5976	0.1446
310.8091	0.1485
311.0207	0.1489
311.2322	0.1422
311.4437	0.1449
311.6552	0.1416
311.8667	0.1435
312.0782	0.1431
312.2897	0.14
312.5012	0.1392
312.7126	0.1299
312.924	0.1326
313.1355	0.1359
313.3469	0.1363
313.5583	0.1311
313.7696	0.1257
313.981	0.1347
314.1924	0.1268
314.4037	0.1239
314.6151	0.1242
314.8264	0.1323
315.0377	0.1297
315.249	0.1281
315.4603	0.1239
315.6716	0.1307
315.8828	0.119
316.0941	0.1255
316.3053	0.1175
316.5165	0.1244
316.7277	0.1181
316.9389	0.1236
317.1501	0.1278
317.3613	0.1229
317.5724	0.1209
317.7836	0.112
317.9947	0.1235
318.2058	0.1178
318.417	0.1174
318.6281	0.1193
318.8391	0.1231
319.0502	0.1178
319.2613	0.1196
319.4723	0.1162
319.6834	0.1237
319.8944	0.1185
320.1054	0.1195
320.3164	0.1199
320.5274	0.118
320.7383	0.1141
320.9493	0.122
321.1602	0.1176
321.3712	0.1223
321.5821	0.1206
321.793	0.1267
322.0039	0.1226
322.2148	0.1176
322.4257	0.1169
322.6365	0.115
322.8474	0.1188
323.0582	0.125
323.269	0.1216
323.4798	0.1225
323.6906	0.116
323.9014	0.1169
324.1122	0.1203
324.3229	0.1183
324.5337	0.1201
324.7444	0.1267
324.9551	0.1219
325.1658	0.1206
325.3765	0.1221
325.5872	0.1242
325.7979	0.1195
326.0085	0.1248
326.2192	0.1252
326.4298	0.1214
326.6404	0.1314
326.851	0.115
327.0616	0.1242
327.2722	0.1291
327.4828	0.129
327.6933	0.1295
327.9039	0.1228
328.1144	0.1293
328.3249	0.127
328.5354	0.1302
328.7459	0.1278
328.9564	0.1289
329.1669	0.1284
329.3773	0.1336
329.5878	0.1323
329.7982	0.1279
330.0086	0.1258
330.219	0.1256
330.4294	0.1279
330.6398	0.132
330.8502	0.1319
331.0605	0.1333
331.2708	0.129
331.4812	0.1311
331.6915	0.1318
331.9018	0.1233
332.1121	0.1351
332.3224	0.1335
332.5326	0.1307
332.7429	0.1264
332.9531	0.1319
333.1633	0.1259
333.3735	0.1252
333.5837	0.1276
333.7939	0.1309
334.0041	0.1365
334.2143	0.1234
334.4244	0.1408
334.6346	0.1309
334.8447	0.1316
335.0548	0.1397
335.2649	0.1338
335.475	0.1408
335.685	0.133
335.8951	0.1337
336.1051	0.1375
336.3152	0.1378
336.5252	0.1337
336.7352	0.1327
336.9452	0.1344
337.1552	0.1422
337.3652	0.1293
337.5751	0.1345
337.7851	0.1353
337.995	0.1372
338.2049	0.1345
338.4148	0.1338
338.6247	0.1355
338.8346	0.1353
339.0445	0.135
339.2543	0.1318
339.4642	0.1348
339.674	0.1384
339.8838	0.1425
340.0936	0.1425
340.3034	0.1364
340.5132	0.1315
340.7229	0.1453
340.9327	0.146
341.1424	0.1364
341.3522	0.1438
341.5619	0.1456
341.7716	0.1412
341.9813	0.1444
342.1909	0.1433
342.4006	0.1459
342.6102	0.1437
342.8199	0.1512
343.0295	0.1462
343.2391	0.145
343.4487	0.1443
343.6583	0.148
343.8679	0.1386
344.0774	0.1438
344.287	0.1514
344.4965	0.1504
344.706	0.1475
344.9155	0.1481
345.125	0.1503
345.3345	0.1568
345.544	0.1566
345.7534	0.1498
345.9629	0.1571
346.1723	0.1592
346.3817	0.1534
346.5911	0.1651
346.8005	0.1617
347.0099	0.1555
347.2193	0.1631
347.4286	0.1612
347.638	0.1612
347.8473	0.1666
348.0566	0.1613
348.2659	0.1582
348.4752	0.1629
348.6845	0.1673
348.8937	0.1588
349.103	0.16
349.3122	0.1668
349.5214	0.1729
349.7306	0.1746
349.9398	0.1659
350.149	0.1622
350.3582	0.1688
350.5674	0.1692
350.7765	0.1738
350.9856	0.1658
351.1948	0.1747
351.4039	0.1781
351.613	0.1683
351.822	0.1744
352.0311	0.1667
352.2402	0.1746
352.4492	0.1763
352.6582	0.1701
352.8672	0.1745
353.0762	0.1758
353.2852	0.1784
353.4942	0.1867
353.7032	0.1805
353.9121	0.1806
354.1211	0.1748
354.33	0.1834
354.5389	0.18
354.7478	0.1764
354.9567	0.1858
355.1655	0.1773
355.3744	0.1792
355.5833	0.1803
355.7921	0.1896
356.0009	0.1797
356.2097	0.1817
356.4185	0.1927
356.6273	0.1864
356.8361	0.1847
357.0448	0.1836
357.2536	0.1871
357.4623	0.1875
357.671	0.1889
357.8797	0.1885
358.0884	0.1862
358.2971	0.199
358.5057	0.1959
358.7144	0.1882
358.923	0.2006
359.1316	0.1927
359.3402	0.198
359.5488	0.1992
359.7574	0.2056
359.966	0.2018
360.1746	0.2004
360.3831	0.2096
360.5916	0.2068
360.8002	0.2081
361.0087	0.2096
361.2172	0.2063
361.4256	0.2071
361.6341	0.2117
361.8426	0.2076
362.051	0.2084
362.2594	0.2042
362.4678	0.2105
362.6762	0.2229
362.8846	0.2144
363.093	0.2217
363.3014	0.2208
363.5097	0.2145
363.718	0.2218
363.9264	0.2244
364.1347	0.2227
364.343	0.2206
364.5513	0.2261
364.7595	0.2283
364.9678	0.2137
365.176	0.2335
365.3842	0.2299
365.5925	0.2289
365.8007	0.2332
366.0089	0.2404
366.217	0.2378
366.4252	0.2295
366.6333	0.2356
366.8415	0.2446
367.0496	0.2301
367.2577	0.2372
367.4658	0.234
367.6739	0.2403
367.882	0.2412
368.09	0.2424
368.2981	0.2461
368.5061	0.2456
368.7141	0.2437
368.9221	0.2546
369.1301	0.2436
369.3381	0.2573
369.5461	0.2502
369.754	0.2512
369.962	0.2549
370.1699	0.2478
370.3778	0.2638
370.5857	0.2462
370.7936	0.2509
371.0015	0.253
371.2093	0.2482
371.4172	0.2595
371.625	0.2556
371.8328	0.2588
372.0406	0.2653
372.2484	0.2563
372.4562	0.2546
372.664	0.2642
372.8717	0.2692
373.0795	0.2616
373.2872	0.272
373.4949	0.2676
373.7026	0.2715
373.9103	0.2621
374.118	0.2717
374.3256	0.2758
374.5333	0.2722
374.7409	0.2659
374.9485	0.2636
375.1561	0.2695
375.3637	0.2719
375.5713	0.2782
375.7789	0.2769
375.9864	0.2692
376.194	0.2818
376.4015	0.2803
376.609	0.2806
376.8165	0.2807
377.024	0.2776
377.2315	0.2809
377.4389	0.2734
377.6464	0.2862
377.8538	0.2879
378.0612	0.2816
378.2686	0.2878
378.476	0.2942
378.6834	0.2943
378.8908	0.294
379.0981	0.2876
379.3055	0.297
379.5128	0.2798
379.7201	0.2921
379.9274	0.2927
380.1347	0.2915
380.342	0.2934
380.5492	0.2921
380.7565	0.2977
380.9637	0.2992
381.1709	0.2971
381.3781	0.2998
381.5853	0.3049
381.7925	0.3001
381.9997	0.3001
382.2068	0.2965
382.4139	0.2969
382.6211	0.3064
382.8282	0.3092
383.0353	0.3118
383.2424	0.2944
383.4494	0.3049
383.6565	0.3027
383.8635	0.3108
384.0706	0.304
384.2776	0.3
384.4846	0.3138
384.6916	0.2971
384.8986	0.3068
385.1055	0.3104
385.3125	0.3112
385.5194	0.3094
385.7263	0.3073
385.9333	0.3041
386.1402	0.3038
386.347	0.3059
386.5539	0.3105
386.7608	0.309
386.9676	0.3131
387.1744	0.3143
387.3813	0.3137
387.5881	0.3052
387.7948	0.3135
388.0016	0.318
388.2084	0.3099
388.4151	0.3076
388.6219	0.3085
388.8286	0.309
389.0353	0.3079
389.242	0.308
389.4487	0.2954
389.6553	0.2924
389.862	0.2962
390.0686	0.3151
390.2753	0.3157
390.4819	0.3008
390.6885	0.3037
390.8951	0.298
391.1016	0.2983
391.3082	0.3024
391.5147	0.2929
391.7213	0.2937
391.9278	0.2888
392.1343	0.2945
392.3408	0.2936
392.5473	0.2836
392.7537	0.2839
392.9602	0.2894
393.1666	0.28
393.373	0.2832
393.5794	0.2837
393.7858	0.2763
393.9922	0.2828
394.1986	0.2779
394.4049	0.2852
394.6113	0.2775
394.8176	0.2724
395.0239	0.274
395.2302	0.2717
395.4365	0.2811
395.6428	0.2727
395.8491	0.2709
396.0553	0.2726
396.2615	0.2761
396.4678	0.2726
396.674	0.2713
396.8802	0.263
397.0863	0.2596
397.2925	0.2721
397.4987	0.2615
397.7048	0.2713
397.9109	0.268
398.117	0.261
398.3231	0.2622
398.5292	0.2468
398.7353	0.258
398.9413	0.2652
399.1474	0.2597
399.3534	0.2675
399.5594	0.266
399.7654	0.2534
399.9714	0.2658
400.1774	0.261
400.3833	0.2661
400.5893	0.2541
400.7952	0.2606
401.0011	0.2634
401.207	0.2723
401.4129	0.2575
401.6188	0.2628
401.8247	0.2694
402.0305	0.2567
402.2364	0.2557
402.4422	0.265
402.648	0.2572
402.8538	0.2605
403.0596	0.2603
403.2654	0.2602
403.4711	0.259
403.6768	0.2533
403.8826	0.2708
404.0883	0.2665
404.294	0.2635
404.4997	0.2647
404.7054	0.2669
404.911	0.2565
405.1167	0.2626
405.3223	0.2629
405.5279	0.2643
405.7335	0.2653
405.9391	0.2571
406.1447	0.2606
406.3502	0.2512
406.5558	0.2584
406.7613	0.2642
406.9668	0.2475
407.1724	0.2642
407.3778	0.2675
407.5833	0.2557
407.7888	0.2633
407.9942	0.2551
408.1997	0.2582
408.4051	0.2592
408.6105	0.2557
408.8159	0.2538
409.0213	0.2639
409.2267	0.2636
409.432	0.2541
409.6374	0.2549
409.8427	0.2553
410.048	0.263
410.2533	0.2726
410.4586	0.248
410.6639	0.2668
410.8691	0.2474
411.0744	0.2591
411.2796	0.2622
411.4848	0.2669
411.69	0.2512
411.8952	0.2581
412.1004	0.2606
412.3056	0.2526
412.5107	0.2658
412.7158	0.2685
412.921	0.2665
413.1261	0.2575
413.3312	0.2577
413.5362	0.2616
413.7413	0.2657
413.9464	0.2501
414.1514	0.2585
414.3564	0.2526
414.5614	0.2561
414.7664	0.252
414.9714	0.2519
415.1764	0.2554
415.3813	0.2476
415.5863	0.2526
415.7912	0.2556
415.9961	0.2487
416.201	0.265
416.4059	0.2524
416.6108	0.2505
416.8156	0.2567
417.0205	0.2612
417.2253	0.2534
417.4301	0.2562
417.6349	0.2474
417.8397	0.2554
418.0445	0.2536
418.2492	0.2543
418.454	0.2487
418.6587	0.2455
418.8634	0.2472
419.0681	0.2558
419.2728	0.2428
419.4775	0.2573
419.6822	0.2404
419.8868	0.25
420.0915	0.2402
420.2961	0.2313
420.5007	0.2529
420.7053	0.2379
420.9099	0.239
421.1144	0.2412
421.319	0.2455
421.5235	0.2278
421.728	0.2407
421.9325	0.2342
422.137	0.239
422.3415	0.2431
422.546	0.2321
422.7504	0.233
422.9549	0.2392
423.1593	0.2266
423.3637	0.2254
423.5681	0.2295
423.7725	0.2317
423.9769	0.2347
424.1812	0.2271
424.3856	0.224
424.5899	0.2258
424.7942	0.2278
424.9985	0.2233
425.2028	0.2282
425.4071	0.2223
425.6113	0.2215
425.8156	0.2232
426.0198	0.2274
426.224	0.2186
426.4282	0.2071
426.6324	0.218
426.8366	0.2193
427.0407	0.2161
427.2449	0.2128
427.449	0.2114
427.6531	0.225
427.8572	0.208
428.0613	0.2096
428.2654	0.2054
428.4694	0.2021
428.6735	0.1957
428.8775	0.207
429.0815	0.1998
429.2855	0.2013
429.4895	0.1912
429.6935	0.2006
429.8975	0.1863
430.1014	0.2012
430.3053	0.1944
430.5093	0.1915
430.7132	0.1925
430.9171	0.2007
431.1209	0.1969
431.3248	0.1763
431.5286	0.1754
431.7325	0.1847
431.9363	0.1833
432.1401	0.1769
432.3439	0.1831
432.5477	0.1671
432.7514	0.1698
432.9552	0.1665
433.1589	0.1707
433.3627	0.1687
433.5664	0.1592
433.7701	0.1669
433.9737	0.1689
434.1774	0.1605
434.3811	0.162
434.5847	0.1604
434.7883	0.1583
434.9919	0.1473
435.1955	0.1496
435.3991	0.163
435.6027	0.1436
435.8062	0.1642
436.0098	0.1451
436.2133	0.1412
436.4168	0.1473
436.6203	0.1382
436.8238	0.1345
437.0272	0.1333
437.2307	0.1342
437.4341	0.1379
437.6375	0.1318
437.841	0.1246
438.0443	0.1326
438.2477	0.1265
438.4511	0.1243
438.6545	0.1285
438.8578	0.1189
439.0611	0.1257
439.2644	0.1203
439.4677	0.1151
439.671	0.114
439.8743	0.1204
440.0775	0.1054
440.2808	0.1098
440.484	0.1045
440.6872	0.1116
440.8904	0.0958
441.0936	0.0958
441.2967	0.0938
441.4999	0.0908
441.703	0.1001
441.9062	0.0978
442.1093	0.1055
442.3124	0.0899
442.5155	0.0986
442.7185	0.0897
442.9216	0.0958
443.1246	0.0891
443.3276	0.0874
443.5307	0.0806
443.7337	0.0845
443.9366	0.0837
444.1396	0.0765
444.3426	0.0823
444.5455	0.082
444.7484	0.0758
444.9513	0.0677
445.1542	0.0827
445.3571	0.0791
445.56	0.0707
445.7628	0.0687
445.9657	0.0705
446.1685	0.0706
446.3713	0.0841
446.5741	0.0808
446.7769	0.0686
446.9797	0.069
447.1824	0.0637
447.3852	0.0578
447.5879	0.0567
447.7906	0.0538
447.9933	0.0609
448.196	0.0508
448.3986	0.055
448.6013	0.0532
448.8039	0.0572
449.0066	0.0627
449.2092	0.0608
449.4118	0.0518
449.6143	0.0557
449.8169	0.049
450.0195	0.0554
450.222	0.0497
450.4245	0.0482
450.627	0.0429
450.8295	0.0452
451.032	0.0476
451.2345	0.0447
451.4369	0.0512
451.6394	0.044
451.8418	0.037
452.0442	0.0402
452.2466	0.0292
452.449	0.0443
452.6513	0.0318
452.8537	0.0359
453.056	0.0296
453.2583	0.0333
453.4607	0.0258
453.663	0.0385
453.8652	0.0253
454.0675	0.0382
454.2697	0.0353
454.472	0.0267
454.6742	0.0356
454.8764	0.0315
455.0786	0.0277
455.2808	0.0294
455.4829	0.0316
455.6851	0.0313
455.8872	0.0213
456.0893	0.0259
456.2915	0.016
456.4935	0.027
456.6956	0.0251
456.8977	0.0185
457.0997	0.0352
457.3018	0.0169
457.5038	0.0328
457.7058	0.0353
457.9078	0.0325
458.1098	0.026
458.3117	0.037
458.5137	0.0182
458.7156	0.0278
458.9175	0.0194
459.1194	0.0118
459.3213	0.0193
459.5232	0.0251
459.725	0.0161
459.9269	0.0196
460.1287	0.0194
460.3305	0.0211
460.5323	0.0219
460.7341	0.012
460.9359	0.0072
461.1376	0.0181
461.3394	0.0148
461.5411	0.0162
461.7428	0.0103
461.9445	0.0077
462.1462	0.019
462.3479	0.0128
462.5495	0.0133
462.7512	0.0187
462.9528	0.01
463.1544	0.0183
463.356	-0.0073
463.5576	0.0248
463.7592	0.0161
463.9607	0.0022
464.1623	0.0032
464.3638	0.0113
464.5653	0.0122
464.7668	0.0103
464.9683	0.015
465.1697	0.0085
465.3712	0.0033
465.5726	0.0133
465.7741	0.0158
465.9755	0.0145
466.1769	0.0013
466.3782	0.0013
466.5796	0.0152
466.7809	0.0177
466.9823	0.0054
467.1836	0.0158
467.3849	0.0118
467.5862	-0.0009
467.7875	-0
467.9887	0.0061
468.19	0.0094
468.3912	0.0084
468.5924	0.0035
468.7936	-0.0023
468.9948	0.0049
469.196	0.0065
469.3972	-0.0021
469.5983	0.0109
469.7994	0.0109
470.0006	0.0071
470.2017	0.0051
470.4027	0.013
470.6038	0.005
470.8049	0.0043
471.0059	0.0169
471.2069	0.0048
471.408	0.0055
471.6089	0.0116
471.8099	0.0086
472.0109	0.0053
472.2119	0.0193
472.4128	0.0091
472.6137	0.0086
472.8146	0.0099
473.0155	0.0159
473.2164	0.0114
473.4173	0.0069
473.6181	0.0086
473.819	0.0025
474.0198	0.0003
474.2206	0.0085
474.4214	0.0074
474.6222	-0.0052
474.8229	0.0054
475.0237	0.0003
475.2244	0.0058
475.4251	-0.0001
475.6258	0.0039
475.8265	0.0104
476.0272	0.0035
476.2278	0.0023
476.4285	0.0098
476.6291	-0.0021
476.8297	0.0058
477.0303	0.0007
477.2309	0.0057
477.4315	0.0016
477.632	-0.0009
477.8326	0.0079
478.0331	0.0148
478.2336	0.0013
478.4341	0.0058
478.6346	0.0005
478.8351	0.0045
479.0355	0.0136
479.236	0.0042
479.4364	0.0005
479.6368	0.0052
479.8372	0.0073
480.0376	0.0046
480.2379	0.0069
480.4383	0.0015
480.6386	-0.0042
480.8389	-0.0037
481.0392	0.0025
481.2395	0.0027
481.4398	0.005
481.6401	0.0034
481.8403	0.0009
482.0405	0.0062
482.2408	0.005
482.441	0.0075
482.6411	0.0031
482.8413	-0.0013
483.0415	0.0122
483.2416	0.0124
483.4417	0.0079
483.6419	-0.0076
483.8419	0.0067
484.042	0.0051
484.2421	-0.0054
484.4422	0.002
484.6422	0.0033
484.8422	0.007
485.0422	0.0009
485.2422	0.0026
485.4422	0.0055
485.6422	0.0016
485.8421	-0.001
486.042	0.0097
486.242	-0.0054
486.4419	0.0045
486.6417	-0.0001
486.8416	0.0013
487.0415	0.001
487.2413	-0.0022
487.4411	0.0058
487.641	0.0012
487.8408	0.0026
488.0405	0.0113
488.2403	0.0068
488.4401	0.0042
488.6398	0.006
488.8395	0.0073
489.0392	0.0038
489.2389	0.0067
489.4386	-0.0012
489.6383	0.0044
489.8379	-0.0026
490.0376	0.0074
490.2372	-0.0019
490.4368	-0.0044
490.6364	-0.0077
490.836	0.0028
491.0355	-0.0022
491.2351	-0.0038
491.4346	-0.0004
491.6341	-0
491.8336	0.0016
492.0331	0.0032
492.2326	0.0042
492.432	-0.002
492.6315	0.0134
492.8309	0.0004
493.0303	0.0054
493.2297	0.0008
493.4291	-0.0013
493.6284	0.0137
493.8278	0.0007
494.0271	0.0056
494.2264	-0.0006
494.4257	0.004
494.625	0.0077
494.8243	-0.0025
495.0236	0.0121
495.2228	0.0094
495.422	0.0053
495.6213	0.0069
495.8205	0.0087
496.0196	0.0027
496.2188	0.0018
496.418	0.0031
496.6171	-0.0051
496.8162	0.0074
497.0153	0.006
497.2144	0.0013
497.4135	0.0037
497.6126	0.0003
497.8116	0.0051
498.0107	0.0045
498.2097	0.0037
498.4087	0.0021
498.6077	-0.0023
498.8067	0.0049
499.0056	-0.0031
499.2046	0.0047
499.4035	0.0104
499.6024	-0.0007
499.8013	0.0137
500.0002	0.0065
500.199	0.0122
500.3979	-0.0054
500.5967	-0.0049
500.7956	0.0047
500.9944	-0.0012
501.1932	0.0087
501.3919	0.0012
501.5907	0.0107
501.7895	0.0068
501.9882	0.0078
502.1869	0.0083
502.3856	0.0045
502.5843	0.002
502.783	0.0009
502.9816	0.0116
503.1803	0.0024
503.3789	0.0012
503.5775	0.0033
503.7761	-0.0002
503.9747	0.0098
504.1732	-0.0053
504.3718	0.0128
504.5703	-0.0016
504.7689	0.0036
504.9674	-0.0018
505.1658	-0.0043
505.3643	0.007
505.5628	0.0071
505.7612	0.0097
505.9597	-0.0025
506.1581	-0.009
506.3565	0.0017
506.5549	0.007
506.7532	-0.0014
506.9516	0.0013
507.1499	0
507.3482	0.0004
507.5465	0.0004
507.7448	-0.002
507.9431	0.006
508.1414	-0.0052
508.3396	0.0038
508.5379	0.0089
508.7361	0.0033
508.9343	0.0135
509.1325	0.0061
509.3306	0.0019
509.5288	-0.0104
509.7269	0.002
509.9251	0.0099
510.1232	0.0115
510.3213	0.0054
510.5193	-0.0032
510.7174	-0.006
510.9154	0.0083
511.1135	-0.0015
511.3115	0.0029
511.5095	0.004
511.7075	0.0035
511.9055	0.0099
512.1034	-0.0023
512.3014	0.0065
512.4993	0.0066
512.6972	-0.0071
512.8951	0.0029
513.093	-0.0039
513.2908	0.0068
513.4887	0.0105
513.6865	0.0103
513.8844	0.0052
514.0822	0.0045
514.2799	-0.0075
514.4777	-0.0007
514.6755	-0.0028
514.8732	-0.0016
515.0709	0.0023
515.2687	0.0068
515.4664	0.0128
515.664	0.0102
515.8617	0.0038
516.0594	0.0051
516.257	0.0108
516.4546	0.0215
516.6522	-0.0003
516.8498	0.0017
517.0474	0.0057
517.2449	0.0027
517.4425	0.0066
517.64	0.0015
517.8375	0.0166
518.035	-0.0038
518.2325	-0.0028
518.43	-0.0033
518.6274	-0.0007
518.8249	0.0049
519.0223	0.0162
519.2197	0.0016
519.4171	-0.0078
519.6145	0.0024
519.8118	-0.0078
520.0092	-0.0031
520.2065	0.0087
520.4038	-0.0051
520.6011	0.0079
520.7984	0.0054
520.9956	-0.0028
521.1929	0.0066
521.3901	0.0045
521.5874	0.0043
521.7846	-0.0051
521.9818	-0.0004
522.1789	-0.0094
522.3761	0.0089
522.5732	0.0001
522.7704	-0.0063
522.9675	-0.0074
523.1646	-0.0086
523.3617	0.0073
523.5587	-0.0057
523.7558	0.0047
523.9528	0.0211
524.1498	-0.0057
524.3468	0.0098
524.5438	0.0086
524.7408	-0.0065
524.9378	0.0031
525.1347	0.0092
525.3316	-0.0004
525.5285	0.0009
525.7254	0.009
525.9223	0.0153
526.1192	0.0146
526.316	0.0147
526.5129	0.0049
526.7097	0.0018
526.9065	0.0078
527.1033	-0.0007
527.3	0.0059
527.4968	0.0043
527.6935	-0.0011
527.8903	-0.0028
528.087	-0.0066
528.2837	0.0106
528.4804	0.0021
528.677	0.0023
528.8737	-0.0069
529.0703	0.0055
529.2669	0.0024
529.4635	-0.0007
529.6601	0.0097
529.8567	-0.0006
530.0532	0.006
530.2498	-0.0014
530.4463	-0.0073
530.6428	0.0045
530.8393	0.0052
531.0358	-0.005
531.2322	-0.0001
531.4287	0.004
531.6251	-0.0056
531.8215	0.002
532.0179	-0.0014
532.2143	0.0103
532.4107	0.0145
532.607	0.0028
532.8034	-0.0039
532.9997	0.0062
533.196	-0.0061
533.3923	0.0098
533.5886	0.0032
533.7848	0.0068
533.9811	0.0083
534.1773	0.0021
534.3735	0.0013
534.5697	-0.0021
534.7659	0.0054
534.9621	0.0061
535.1582	-0.0001
535.3544	-0.0023
535.5505	0.0059
535.7466	0.0094
535.9427	0.0008
536.1387	-0.003
536.3348	0.0081
536.5308	-0.0083
536.7269	-0.0116
536.9229	0.0069
537.1189	0.0079
537.3148	-0.0022
537.5108	0.006
537.7068	0.0089
537.9027	-0.0099
538.0986	0.0121
538.2945	-0.0015
538.4904	-0.0042
538.6863	0.006
538.8821	0.0125
539.078	0.0079
539.2738	0.0033
539.4696	-0.0011
539.6654	-0.0063
539.8611	-0.0005
540.0569	0.0025
540.2526	0.0093
540.4484	-0.008
540.6441	-0.0004
540.8398	0.0098
541.0355	-0.0063
541.2311	-0.0025
541.4268	0.0092
541.6224	0.004
541.818	0.0127
542.0136	0.0102
542.2092	0.0038
542.4048	0.0001
542.6003	-0.0009
542.7959	0.0128
542.9914	0.0042
543.1869	0.0102
543.3824	0.0033
543.5779	0.0104
543.7734	0.009
543.9688	-0.0014
544.1642	-0.0022
544.3596	0.0041
544.555	-0.0009
544.7504	0.0053
544.9458	0.0056
545.1411	0.0023
545.3365	0.0084
545.5318	-0.0005
545.7271	0.0067
545.9224	-0.0007
546.1177	0.0073
546.3129	0.0112
546.5081	0.0003
546.7034	0.0051
546.8986	0.0061
547.0938	0.0057
547.289	0.0127
547.4841	0.004
547.6793	0.0008
547.8744	0.006
548.0695	-0.0074
548.2646	0.004
548.4597	-0.0038
548.6548	0.0086
548.8498	0.0045
549.0448	0.0001
549.2399	0.0081
549.4349	0.0065
549.6298	0.0038
549.8248	-0.0043
550.0198	0.0068
550.2147	0.0088
550.4096	-0.0015
550.6045	0.0005
550.7994	0.0065
550.9943	0.0108
551.1892	-0.0181
551.384	0.0045
551.5788	0.0009
551.7737	0.0041
551.9685	0.0065
552.1632	-0.0018
552.358	-0.0014
552.5528	0.0032
552.7475	0.0012
552.9422	0.0054
553.1369	0.0099
553.3316	0.0054
553.5263	0.0117
553.7209	0.0012
553.9156	0.0118
554.1102	0.0012
554.3048	0.0025
554.4994	0.0019
554.694	0.0009
554.8885	0.0008
555.0831	0.0119
555.2776	-0.0008
555.4721	-0.0016
555.6666	0.0005
555.8611	-0.0008
556.0555	0.0047
556.25	0.0089
556.4444	-0.0109
556.6388	0.0091
556.8332	0.0098
557.0276	0.002
557.222	0.0039
557.4163	0.0073
557.6107	-0.0113
557.805	0.008
557.9993	0.0072
558.1936	-0.0072
558.3879	0.0079
558.5821	-0.0085
558.7764	0.0073
558.9706	-0.0011
559.1648	-0.003
559.359	-0.0099
559.5532	-0.0045
559.7473	0.0012
559.9415	0.0026
560.1356	0.013
560.3297	-0.0086
560.5238	0.0124
560.7179	-0.0073
560.9119	-0.0028
561.106	-0.0014
561.3	0.0028
561.494	-0.004
561.688	0.0022
561.882	-0.0018
562.076	0.0011
562.2699	0.0112
562.4639	0.016
562.6578	0.0125
562.8517	-0.0015
563.0456	0.0032
563.2395	0.0045
563.4333	0.0033
563.6272	0.0005
563.821	0.0033
564.0148	0.0036
564.2086	-0.0025
564.4024	0.0137
564.5961	-0
564.7899	0.0117
564.9836	0.0083
565.1773	0.0114
565.371	0.0096
565.5647	0.0019
565.7584	0.0153
565.952	0.0071
566.1456	0.0083
566.3393	0.0054
566.5329	0.0082
566.7264	0.0062
566.92	-0.0006
567.1136	-0.0036
567.3071	-0.003
567.5006	0.0101
567.6941	-0.0017
567.8876	-0.0016
568.0811	0.0125
568.2745	0.0021
568.468	0.0052
568.6614	0.004
568.8548	0.0036
569.0482	0.006
569.2416	0.0038
569.4349	0.0034
569.6283	0.0016
569.8216	0.004
570.0149	-0.0038
570.2082	0.008
570.4015	0.0013
570.5947	0.0004
570.788	0.0042
570.9812	-0.0002
571.1744	0.002
571.3676	0.0055
571.5608	0.0003
571.754	0.0068
571.9471	0.0085
572.1402	0.0052
572.3333	0.0031
572.5264	0.0026
572.7195	-0.0007
572.9126	0.002
573.1057	0.0014
573.2987	-0.0005
573.4917	0.0013
573.6847	-0.0012
573.8777	0.0043
574.0707	0.0029
574.2636	0.0013
574.4566	-0.0021
574.6495	0.0002
574.8424	0.0021
575.0353	0.0015
575.2281	0.0048
575.421	-0.0039
575.6138	0.0023
575.8067	0.0018
575.9995	0.002
576.1923	0.0041
576.385	0.0064
576.5778	0.0063
576.7706	0.0031
576.9633	0.0028
577.156	-0.0031
577.3487	0.0023
577.5414	-0.0008
577.734	0.0013
577.9267	0.0023
578.1193	0.0047
578.3119	-0.0003
578.5045	-0.0009
578.6971	0.0006
578.8897	0.0003
579.0822	0.007
579.2747	0.0022
579.4673	-0.0009
579.6598	0.0047
579.8522	-0.001
580.0447	0.0054
580.2372	0.007
580.4296	0.0042
580.622	0.0018
580.8144	0.0037
581.0068	0.0012
581.1992	0.0014
581.3915	0.0002
581.5839	0.0004
581.7762	0.0024
581.9685	0.002
582.1608	0.0033
582.353	-0.0001
582.5453	0.0032
582.7375	0.0051
582.9298	-0.0006
583.122	0.0005
583.3142	0.0049
583.5063	0.0004
583.6985	-0.0025
583.8906	0.0027
584.0827	0.0045
584.2749	-0.0013
584.4669	0.0019
584.659	0.0042
584.8511	0.0066
585.0431	0.005
585.2352	0.0014
585.4272	0.0038
585.6192	0.0049
585.8111	0.003
586.0031	-0.0007
586.195	0.0004
586.387	0.0024
586.5789	0.0054
586.7708	0.0066
586.9627	0.0015
587.1545	0.005
587.3464	0.0024
587.5382	-0.0001
587.73	0.0092
587.9218	-0.0017
588.1136	-0.0008
588.3053	0.0052
588.4971	0.0032
588.6888	-0.0005
588.8805	0.0008
589.0722	0.0111
589.2639	0.0007
589.4556	0.0047
589.6472	0.0087
589.8389	-0.0004
590.0305	-0.0014
590.2221	0.0059
590.4137	0.0025
590.6052	0.0004
590.7968	0.0027
590.9883	0.0024
591.1798	0.0005
591.3713	0.0008
591.5628	-0.0019
591.7543	-0.0022
591.9458	-0.0038
592.1372	0.0041
592.3286	0.0031
592.52	0.0062
592.7114	-0.0036
592.9028	0.0085
593.0941	0.0026
593.2855	0
593.4768	0.0067
593.6681	0.0076
593.8594	0.0049
594.0506	0.0014
594.2419	-0.0011
594.4331	0.004
594.6244	0.0006
594.8156	-0.0027
595.0067	0
595.1979	-0.0007
595.3891	0.0065
595.5802	0.003
595.7713	0.0092
595.9624	0.0115
596.1535	-0.002
596.3446	-0.0018
596.5357	0.0062
596.7267	-0.0027
596.9177	-0.0007
597.1087	-0.007
597.2997	0.0025
597.4907	-0.0007
597.6817	0.0019
597.8726	0.0061
598.0635	0.0018
598.2544	0.0051
598.4453	0.0037
598.6362	0.0043
598.827	0.0013
599.0179	0.0026
599.2087	0.0036
599.3995	0.0042
599.5903	0.0047
599.7811	0.0068
599.9718	0.0025
600.1626	0.0025
600.3533	-0.0003
600.544	0.0062
600.7347	0.0054
600.9254	0.0072
601.116	0.0041
601.3067	0.0016
601.4973	0.0074
601.6879	0.0025
601.8785	0.0046
602.0691	0.0027
602.2596	0.0016
602.4502	0.0016
602.6407	0.0036
602.8312	0.0046
603.0217	-0.0024
603.2122	-0.0006
603.4027	0.0017
603.5931	0.0003
603.7835	0.0022
603.9739	-0.0008
604.1643	0.0075
604.3547	0.009
604.5451	0.0052
604.7354	-0.0017
604.9257	0.0051
605.116	-0.0026
605.3063	0.005
605.4966	-0.0002
605.6869	0.0073
605.8771	0.004
606.0673	-0.0026
606.2575	-0.0013
606.4477	0.0059
606.6379	-0.0019
606.8281	0.0022
607.0182	0.0042
607.2083	-0.0014
607.3985	-0.0002
607.5885	-0.0022
607.7786	0.0012
607.9687	0.0063
608.1587	0.0072
608.3488	0.0027
608.5388	-0.0045
608.7288	-0.0026
608.9187	-0.0001
609.1087	0.0057
609.2986	0.0088
609.4886	-0.0023
609.6785	0.006
609.8684	-0.0047
610.0582	-0.0006
610.2481	-0.0057
610.4379	0.0048
610.6278	0.0003
610.8176	0.0069
611.0074	0.0057
611.1971	0.0019
611.3869	0.0101
611.5766	-0.0065
611.7664	0.0067
611.9561	-0.0026
612.1458	0.0035
612.3354	0.0012
612.5251	-0.0017
612.7147	0.0019
612.9044	-0.0053
613.094	0.0065
613.2836	0.0022
613.4731	-0.0041
613.6627	0.0051
613.8522	0.0135
614.0417	0.0057
614.2313	0.0026
614.4207	0.0037
614.6102	0.0088
614.7997	0.0121
614.9891	0.0049
615.1785	-0.0037
615.3679	0.0097
615.5573	0.005
615.7467	0.0019
615.9361	0.0102
616.1254	0.0076
616.3147	0.0029
616.504	-0.0004
616.6933	0.0052
616.8826	-0.0023
617.0718	0.0058
617.2611	0.0007
617.4503	-0.0026
617.6395	-0.0058
617.8287	0.0096
618.0179	-0.0015
618.207	0.0098
618.3961	0.0003
618.5853	-0.0036
618.7744	0.0023
618.9634	-0.0028
619.1525	-0.0032
619.3416	0.0023
619.5306	0.0082
619.7196	0.0067
619.9086	0.0045
620.0976	-0
620.2866	0.0094
620.4755	-0.0045
620.6645	0.0078
620.8534	0.0026
621.0423	0.004
621.2312	0.0064
621.42	0.0095
621.6089	-0.002
621.7977	0.008
621.9865	-0.0028
622.1753	-0.0086
622.3641	-0.0009
622.5529	-0.0042
622.7416	-0.0061
622.9303	-0.0076
623.1191	0.0033
623.3078	-0.0003
623.4964	0.0025
623.6851	0.0174
623.8737	-0.0033
624.0624	-0.0139
624.251	0.0042
624.4396	0.0009
624.6282	0.0114
624.8167	-0.0036
625.0053	0.0074
625.1938	-0.0013
625.3823	0.0033
625.5708	-0.0033
625.7593	-0.0118
625.9477	0.0132
626.1362	-0.001
626.3246	-0.001
626.513	0.0046
626.7014	0.0153
626.8898	0.0147
627.0781	0.0085
627.2665	0.0119
627.4548	-0.0059
627.6431	0.0091
627.8314	0.006
628.0197	0.0046
628.2079	0.0068
628.3962	-0.0049
628.5844	-0.0049
628.7726	-0.0002
628.9608	-0.005
629.1489	0.0015
629.3371	-0.0046
629.5252	0.0042
629.7134	-0.0078
629.9015	0.0104
630.0895	-0.0095
630.2776	0.0036
630.4657	0.0047
630.6537	0.0095
630.8417	-0.013
631.0297	-0.0044
631.2177	0.0098
631.4057	0.004
631.5936	-0.0044
631.7815	0.0162
631.9695	0.0125
632.1574	0.0027
632.3452	0.0091
632.5331	0.0074
632.7209	0.0089
632.9088	0.0011
633.0966	0.0127
633.2844	0.001
633.4722	0.0018
633.6599	0.0151
633.8477	-0.0091
634.0354	0.014
634.2231	-0.0099
634.4108	0.008
634.5985	0.0085
634.7861	-0.0035
634.9738	-0.0003
635.1614	0.0087
635.349	0.0066
635.5366	0.0097
635.7242	-0.0004
635.9117	0.0039
636.0993	0.0089
636.2868	-0.0072
636.4743	0.0149
636.6618	-0.0027
636.8492	0.0086
637.0367	-0.0182
637.2241	-0.0054
637.4115	0.0205
637.5989	-0.0089
637.7863	0.0064
637.9737	-0.0007
638.161	0.003
638.3484	-0.0131
638.5357	-0.0151
638.723	0.0009
638.9103	-0.0155
639.0975	0.0006
639.2848	0.0012
639.472	0.0182
639.6592	-0.0182
639.8464	-0.0054
640.0336	-0.0076
640.2208	-0.0086
640.4079	0.0015
640.595	0.0088
640.7821	0.0226
640.9692	-0.0131
641.1563	-0.0106
641.3434	0.0046
641.5304	0.0181
641.7174	0.0215
641.9044	0.0049
642.0914	0.0083
642.2784	-0.0039
642.4653	-0.0084
642.6523	0.0025
642.8392	-0.0071
643.0261	0.0014
643.213	-0.0062
643.3999	0.0069
643.5867	0.0164
643.7735	0.0204
643.9604	0.0161
644.1472	0.014
644.3339	-0.0054
644.5207	0.0058
644.7075	-0.0039
644.8942	0.0037
645.0809	0.0087
645.2676	-0.0236
645.4543	-0.0061
645.6409	0.0128
645.8276	0.019
646.0142	0.0002
646.2008	0.0079
646.3874	0.0083
646.574	0.0117
646.7605	0.0064
646.9471	0.0052
647.1336	-0.0209
647.3201	0.0056
647.5066	0.0237
647.6931	-0.0078
647.8795	-0.0001
648.0659	-0.0039
648.2524	0.0121
648.4388	0.0087
648.6252	0.0196
648.8115	0.0026
648.9979	0.0102
649.1842	0.0134
649.3705	0.0036
649.5568	0.0048
649.7431	-0.0084
649.9294	0.0038
650.1156	-0.0061
650.3018	0.006
650.488	0.0079
650.6742	0.0141
650.8604	0.0026
651.0466	-0.0025
651.2327	-0.0008
651.4188	0.0038
651.6049	0.0071
651.791	-0.0154
651.9771	-0.005
652.1632	0.0045
652.3492	0.0052
652.5352	0.0076
652.7212	-0.0086
652.9072	-0.0031
653.0932	0.0038
653.2791	0.0219
653.465	0.0035
653.651	-0.0036
653.8369	-0.0073
654.0227	-0.0196
654.2086	0.015
654.3944	0.0036
654.5803	-0.0009
654.7661	0.0022
654.9519	-0.0013
655.1377	0.0002
655.3234	0.0002
655.5092	0.0002
655.6949	0.0002
655.8806	0.0002
656.0663	0.0002
656.2519	0.0002
656.4376	0.0002
656.6232	0.0002
656.8088	0.0002
656.9945	0.0002
657.18	0.0002
657.3656	0.0002
657.5511	0.0002
657.7367	0.0002
657.9222	0.0002
658.1077	0.0002
658.2932	0.0002
658.4786	0.0002
658.6641	0.0002
658.8495	0.0002
659.0349	0.0002
659.2203	0.0002
659.4057	0.0002
659.591	0.1025
659.7764	0.0173
659.9617	0.0107
660.147	-0.0023
660.3323	-0.004
660.5176	0.0211
660.7028	-0.0275
660.888	0.0045
661.0733	0.005
661.2585	-0.0043
661.4436	0.0117
661.6288	0.0152
661.8139	-0.0041
661.9991	-0.025
662.1842	-0.0166
662.3693	0.0017
662.5544	0.0083
662.7394	0.0143
662.9245	-0.0085
663.1095	-0.0203
663.2945	-0.0046
663.4795	-0.0114
663.6644	0.0007
663.8494	-0.003
664.0343	0.0181
664.2193	0.0192
664.4042	-0.0004
664.589	-0.0021
664.7739	0.0116
664.9587	-0.0111
665.1436	-0.005
665.3284	0.0034
665.5132	-0.0246
665.698	0.0059
665.8827	0.0277
666.0675	-0.011
666.2522	0.0163
666.4369	-0.0034
666.6216	0.0077
666.8063	-0.0052
666.9909	-0.0176
667.1756	-0.006
667.3602	-0.0197
667.5448	0.0044
667.7294	-0.0011
667.9139	-0.0111
668.0985	0.0239
668.283	-0.0001
668.4675	0.0198
668.652	0.0199
668.8365	0.0005
669.0209	0.0106
669.2054	0.0015
669.3898	-0.0089
669.5742	0.0085
669.7586	0.0186
669.943	0.035
670.1273	-0.0017
670.3117	0.0057
670.496	0.0119
670.6803	0.0115
670.8646	-0.0263
671.0488	0.0198
671.2331	-0.025
671.4173	0.015
671.6015	0.0061
671.7857	0.0093
671.9699	0.0095
672.1541	-0.0098
672.3382	0.008
672.5223	0.0061
672.7064	0.0072
672.8905	-0.0038
673.0746	0.0078
673.2587	0.0053
673.4427	0.0012
673.6267	0.0155
673.8107	0.0148
673.9947	0.0276
674.1787	-0.0041
674.3626	-0.0054
674.5465	0.019
674.7304	-0.0011
674.9143	-0.004
675.0982	0.0105
675.2821	0.0005
675.4659	0.003
675.6497	-0.0022
675.8335	0.008
676.0173	-0.0104
676.2011	0.0104
676.3849	0.0117
676.5686	-0.0037
676.7523	-0.0001
676.936	0.0046
677.1197	0.0032
677.3034	0.0221
677.487	0.0067
677.6706	-0.0012
677.8542	-0.007
678.0378	0.0056
678.2214	-0.0202
678.405	0.008
678.5885	-0.0058
678.772	0.0023
678.9555	-0.0001
679.139	-0.0051
679.3225	-0.0012
679.5059	-0.0075
679.6894	0.0042
679.8728	-0.0058
680.0562	0.0092
680.2395	-0.0078
680.4229	-0.0043
680.6062	-0.0038
680.7896	-0.0159
680.9729	0.0198
681.1562	-0.0015
681.3394	0.0081
681.5227	-0.0084
681.7059	-0.0147
681.8891	0.0012
682.0723	-0.0036
682.2555	-0.0011
682.4387	-0.0119
682.6218	0.0229
682.805	0.0201
682.9881	0.0124
683.1712	0.0012
683.3542	0.0192
683.5373	0.0004
683.7203	0.0123
683.9034	-0.0073
684.0864	-0.0197
684.2694	0.0063
684.4523	-0.0016
684.6353	-0.0153
684.8182	0.0043
685.0011	0.0183
685.184	0.0149
685.3669	0.0182
685.5498	-0.007
685.7326	-0.004
685.9154	-0.0149
686.0982	0.0184
686.281	-0.0036
686.4638	0.0265
686.6465	0.0129
686.8293	-0.0073
687.012	0.0048
687.1947	-0.0053
687.3774	0.0108
687.56	-0.009
687.7427	-0.0138
687.9253	-0.0262
688.1079	0.0034
688.2905	0.0023
688.4731	0.0062
688.6556	0.0027
688.8382	-0.0089
689.0207	0.0119
689.2032	0.0094
689.3857	-0.0182
689.5681	0.0099
689.7506	0.0314
689.933	-0.0093
690.1154	0.0088
690.2978	-0.0084
690.4802	0.0071
690.6626	0.004
690.8449	0.0118
691.0272	-0.0144
691.2095	-0.0197
691.3918	-0.0066
691.5741	-0.0063
691.7563	0.0084
691.9386	0.0172
692.1208	0.0118
692.303	-0.0021
692.4852	0.0063
692.6673	-0.0086
692.8495	0.0019
693.0316	0.0047
693.2137	0.0123
693.3958	-0.0006
693.5778	0.0148
693.7599	0.0125
693.9419	-0.0293
694.1239	-0.0103
694.3059	0.0122
694.4879	0.0116
694.6699	-0.0024
694.8518	0.0182
695.0337	0.0062
695.2157	0.0117
695.3975	-0.008
695.5794	0.0138
695.7613	0.0135
695.9431	-0.032
696.1249	0.0122
696.3067	0.0067
696.4885	0.0181
696.6703	-0.0037
696.852	-0.0108
697.0337	0.0047
697.2154	0.0001
697.3971	0.0045
697.5788	-0.0017
697.7605	0.0033
697.9421	0.0123
698.1237	0.0122
698.3053	-0.015
698.4869	0.0044
698.6685	-0.0197
698.85	0.032
699.0315	-0.0029
699.213	0.0116
699.3945	-0.0012
699.576	0.0133
699.7575	0.0331
699.9389	-0.0117
700.1203	0.0107
700.3017	0.017
700.4831	0.0151
700.6645	0.0269
700.8458	0.0022
701.0271	0.0291
701.2084	-0.0048
701.3897	-0.0166
701.571	-0.0002
701.7523	0.0054
701.9335	0.0163
702.1147	0.0157
702.2959	-0.002
702.4771	-0.0078
702.6583	-0.0061
702.8394	-0.0462
703.0205	0.0088
703.2016	0.01
703.3827	-0.0212
703.5638	0.0033
703.7449	0.0149
703.9259	0.0228
704.1069	-0.0463
704.2879	0.019
704.4689	0.0173
704.6499	0.0146
704.8308	0.0063
705.0117	-0.0028
705.1927	-0.0007
705.3735	0.0017
705.5544	0.0149
705.7353	-0.0048
705.9161	-0.0311
706.0969	0.0074
706.2777	0.0302
706.4585	0.0098
706.6393	0.0096
706.82	-0.002
707.0007	0.0127
707.1815	-0.0031
707.3621	0.0349
707.5428	0.0079
707.7235	0.0196
707.9041	-0.0009
708.0847	-0.005
708.2653	0.0214
708.4459	-0.0187
708.6265	-0.0107
708.807	0.0016
708.9875	0.0017
709.168	-0.0229
709.3485	0.0314
709.529	0.0023
709.7095	0.005
709.8899	0.0015
710.0703	0.0189
710.2507	-0.0127
710.4311	-0.0332
710.6115	0.0118
710.7918	0.0203
710.9721	-0.0029
711.1524	-0.0168
711.3327	-0.006
711.513	-0.0127
711.6932	-0.0106
711.8735	0.0075
712.0537	0.006
712.2339	-0.0187
712.4141	0.0097
712.5942	-0.0277
712.7744	0.0215
712.9545	0.0063
713.1346	0.026
713.3147	0.0013
713.4947	-0.0155
713.6748	0.0205
713.8548	0.0109
714.0348	0.0162
714.2148	0.0013
714.3948	0.0027
714.5748	0.0167
714.7547	0.0097
714.9346	0.0174
715.1145	-0.0031
715.2944	-0.0186
715.4743	0.0117
715.6541	-0.0145
715.834	0.045
716.0138	0.0438
716.1936	0.01
716.3733	-0.0159
716.5531	0.0118
716.7328	-0.0184
716.9126	0.0146
717.0923	-0.0109
717.2719	0.0127
717.4516	-0.0033
717.6312	-0.0195
717.8109	0.0132
717.9905	-0.0001
718.1701	0.0255
718.3496	-0.0194
718.5292	-0.0113
718.7087	-0.0094
718.8882	0.0032
719.0677	0.0189
719.2472	0.0009
719.4267	-0.0108
719.6061	-0.0194
719.7856	0.0123
719.965	-0.0019
720.1443	-0.0193
720.3237	0.0014
720.5031	-0.0096
720.6824	0.0029
720.8617	0.0205
721.041	0.0016
721.2203	-0.0125
721.3995	-0.0024
721.5788	-0.0106
721.758	-0.0133
721.9372	0.0067
722.1164	-0.0141
722.2956	-0.008
722.4747	0.01
722.6538	0.0096
722.8329	0.0196
723.012	-0.0136
723.1911	-0.0355
723.3702	0.0038
723.5492	0.0137
723.7282	0.0089
723.9072	0.0154
724.0862	0.0111
724.2652	-0.0044
724.4441	-0.0185
724.623	0.0093
724.8019	-0.0131
724.9808	0.019
725.1597	0.0179
725.3385	-0.0038
725.5174	0.0182
725.6962	-0.0042
725.875	0.0112
726.0538	0.0009
726.2325	0.0157
726.4112	-0.0035
726.59	-0.0241
726.7687	-0.0075
726.9474	0.0055
727.126	0.0395
727.3047	-0.0087
727.4833	0.0109
727.6619	-0.0125
727.8405	-0.0153
728.0191	-0.0015
728.1976	0.0055
728.3762	0.0016
728.5547	0.0226
728.7332	0.0196
728.9116	0.0171
729.0901	0.0251
729.2686	0.0059
729.447	-0.0166
729.6254	0.0123
729.8038	0.0291
729.9821	-0.0092
730.1605	0.0122
730.3388	-0.0053
730.5171	0.0109
730.6954	-0.0233
730.8737	0.0326
731.0519	-0.0143
731.2302	0.0017
731.4084	0.0015
731.5866	-0.0047
731.7648	-0.0096
731.9429	0.0299
732.1211	-0.0048
732.2992	0.0031
732.4773	-0.0018
732.6554	-0.017
732.8335	0.0193
733.0115	0.0116
733.1896	-0.007
733.3676	0.0108
733.5456	0.0086
733.7235	0.0026
733.9015	0.0054
734.0794	-0.0069
734.2574	-0.0376
734.4353	0.011
734.6131	-0.0136
734.791	0.0019
734.9689	-0.0223
735.1467	-0.0045
735.3245	0.0018
735.5023	0.012
735.68	-0.0001
735.8578	0.0094
736.0355	-0.0051
736.2132	-0.0022
736.3909	0.0055
736.5686	0.0032
736.7463	-0.0112
736.9239	0.0235
737.1015	-0.0077
737.2791	-0.003
737.4567	0.0009
737.6343	0.0038
737.8118	0.0006
737.9894	-0.0026
738.1669	0.0019
738.3444	0.0068
738.5218	-0.0239
738.6993	0.008
738.8767	0.0072
739.0541	0.0064
739.2315	0.0109
739.4089	0.0184
739.5863	0.0046
739.7636	-0.0012
739.9409	-0.0116
740.1182	-0.0104
740.2955	0.0104
740.4728	-0.0155
740.65	-0.026
740.8272	-0.0104
741.0044	-0.0163
741.1816	0.0266
741.3588	-0.0468
741.5359	-0.0217
741.7131	0.016
741.8902	0.0094
742.0673	-0.0289
742.2444	0.02
742.4214	0.0328
742.5985	0.0015
742.7755	-0.0221
742.9525	-0.0339
743.1295	-0.0232
743.3064	0.0022
743.4834	-0.0071
743.6603	0.0168
743.8372	-0.0418
744.0141	0.0528
744.191	0.0088
744.3678	-0.0443
744.5446	0.0159
744.7215	-0.0085
744.8982	0.0195
745.075	0.049
745.2518	0.0122
745.4285	0.0272
745.6052	-0.0409
745.7819	0.0223
745.9586	-0.0095
746.1353	-0.0326
746.3119	0.0064
746.4885	0.0096
746.6651	0.0112
746.8417	0.0109
747.0183	0.0117
747.1948	0.0284
747.3714	0.017
747.5479	0.0168
747.7244	-0.0047
747.9008	-0.0058
748.0773	0.0605
748.2537	0.0155
748.4301	0.0283
748.6065	-0.0024
748.7829	-0.0076
748.9593	-0.0159
749.1356	-0.01
749.3119	0.0111
749.4882	0.0094
749.6645	0.0149
749.8408	0.0053
750.017	0.0147
750.1933	-0.0174
750.3695	0.0202
750.5457	-0.0229
750.7218	0.0131
750.898	-0.0121
751.0741	0.0053
751.2502	0.0114
751.4263	-0.0288
751.6024	0.0214
751.7784	-0.0068
751.9545	-0.0107
752.1305	0.0002
752.3065	0.0022
752.4825	0.0034
752.6584	0.0178
752.8344	0.0035
753.0103	-0.0112
753.1862	-0.0008
753.3621	-0.0283
753.5379	-0.0339
753.7138	0.0242
753.8896	0.0009
754.0654	-0.0291
754.2412	-0.0036
754.417	0.0121
754.5927	0.0165
754.7685	0.0075
754.9442	0.022
755.1199	0.0096
755.2956	-0.0004
755.4712	0.0086
755.6469	0.0178
755.8225	-0.0117
755.9981	0.0201
756.1736	0.0048
756.3492	0.0095
756.5248	0.0167
756.7003	-0.0086
756.8758	-0.0058
757.0513	0.0015
757.2267	-0.0016
757.4022	-0.0135
757.5776	0.0057
757.753	0.0018
757.9284	0.0057
758.1038	-0.0044
758.2791	0.001
758.4545	-0.0212
758.6298	0.0066
758.8051	-0.0075
758.9803	0.0129
759.1556	-0.0087
759.3308	0.0051
759.506	-0.0008
759.6812	0.0077
759.8564	0.001
760.0316	-0.0106
760.2067	0.0172
760.3819	-0.0087
760.557	0.0084
760.732	0.0024
760.9071	0.0294
761.0821	-0.0197
761.2572	-0.0292
761.4322	0.007
761.6072	0.0116
761.7821	-0.0369
761.9571	0.0052
762.132	0.0099
762.3069	0.027
762.4818	0.0165
762.6567	0.0076
762.8316	0.0314
763.0064	0.0189
763.1812	-0.0254
763.356	-0.0273
763.5308	0.0186
763.7055	-0.0004
763.8803	-0.004
764.055	0.0032
764.2297	-0.0174
764.4044	-0.0051
764.579	0.0036
764.7537	0.0123
764.9283	0.0044
765.1029	0.0053
765.2775	0.0107
765.4521	0.0036
765.6266	-0.0008
765.8011	0.0164
765.9756	0.0024
766.1501	-0.0122
766.3246	0.0169
766.4991	0.0075
766.6735	0.0295
766.8479	-0.0118
767.0223	0.0176
767.1967	-0.0019
767.371	0.0176
767.5454	0.0209
767.7197	0.0374
767.894	0.01
768.0683	0.0216
768.2425	0.0192
768.4168	-0.0107
768.591	-0.0015
768.7652	-0.0139
768.9394	-0.0287
769.1135	-0.0062
769.2877	-0.0023
769.4618	0.0275
769.6359	0.0108
769.81	0.0144
769.984	0.0051
770.1581	0.0253
770.3321	0.0195
770.5061	0.0031
770.6801	-0.0067
770.8541	-0.0046
771.028	0.0531
771.202	0.0051
771.3759	0.0104
771.5498	0.0113
771.7236	-0.0143
771.8975	0.0194
772.0713	0.0035
772.2451	-0.0384
772.4189	0.0047
772.5927	-0.0442
772.7665	0.0043
772.9402	0.0174
773.1139	-0.0254
773.2876	-0.0095
773.4613	0.0015
773.635	0.0308
773.8086	0.0367
773.9822	0.0052
774.1558	0.0295
774.3294	-0.0317
774.503	-0.0132
774.6765	0.0192
774.8501	-0.0117
775.0236	0.0025
775.1971	-0.0234
775.3705	0.0228
775.544	-0.0299
775.7174	0.0214
775.8908	0.0456
776.0642	0.0699
776.2376	0.0499
776.4109	0.0039
776.5843	-0.0193
776.7576	-0.0104
776.9309	-0.0262
777.1041	0.0434
777.2774	0.0089
777.4506	-0.013
777.6238	-0.0065
777.797	-0.0148
777.9702	0.0253
778.1434	0.0022
778.3165	-0.0306
778.4896	0.0101
778.6627	0.0325
778.8358	-0.0368
779.0089	-0.0414
779.1819	0.0326
779.3549	0.0157
779.5279	-0.0267
779.7009	0.0494
779.8739	0.0433
780.0468	-0.0394
780.2197	0.0244
780.3926	-0.0378
780.5655	0.009
780.7384	0.0396
780.9112	0.0017
781.0841	-0.0192
781.2569	0.0306
781.4297	-0.0149
781.6024	-0.0052
781.7752	0.0413
781.9479	0.0612
782.1206	-0.0213
782.2933	-0.0136
782.466	0.0067
782.6386	-0.0354
782.8113	0.0056
782.9839	0.0165
783.1565	0.0377
783.329	-0.002
783.5016	-0.0036
783.6741	0.0447
783.8466	0.0098
784.0191	0.0405
784.1916	-0.0181
784.3641	-0.0244
784.5365	0.0403
784.7089	-0.0223
784.8813	0.0554
785.0537	0.0258
785.2261	-0.0033
785.3984	0.0282
785.5707	0.0019
785.743	0.0257
785.9153	-0.0127
786.0876	-0.029
786.2598	-0.025
786.432	0.0042
786.6042	0.0215
786.7764	0.0029
786.9486	-0.0119
787.1207	0.0384
787.2928	0.0275
787.4649	-0.0485
787.637	0.0003
787.8091	0.0263
787.9811	0.0294
788.1532	0.0038
788.3252	-0.0123
788.4972	-0.0148
788.6691	-0.0157
788.8411	-0.008
789.013	0.0099
789.1849	-0.0291
789.3568	-0.0074
789.5287	0.0506
789.7005	-0.0152
789.8723	-0.016
790.0442	-0.0093
790.2159	-0.0186
790.3877	0.0262
790.5595	0.0655
790.7312	-0.0199
790.9029	0.0099
791.0746	0.0252
791.2463	-0.0329
791.4179	0.0754
791.5896	0.0562
791.7612	-0.0004
791.9328	0.0083
792.1044	-0.0005
792.2759	-0.0269
792.4474	0.0473
792.619	0.0099
792.7905	0.0157
792.9619	0.0738
793.1334	0.0509
793.3048	0.0436
793.4762	0.0212
793.6476	-0.0301
793.819	-0.0217
793.9904	-0.0104
794.1617	-0.0058
794.333	-0.002
794.5043	-0.002
794.6756	0.0138
794.8469	0.0022
795.0181	0.0112
795.1893	0.0234
795.3605	0.044
795.5317	-0.0205
795.7029	-0.0184
795.874	-0.005
796.0452	0.013
796.2163	0.005
796.3873	0.0494
796.5584	0.0631
796.7294	0.0703
796.9005	0.0312
797.0715	-0.0525
797.2425	0.0325
797.4134	0.0442
797.5844	0.0146
797.7553	-0.0166
797.9262	0.0879
798.0971	-0.0056
798.2679	0.0031
798.4388	0.047
798.6096	-0.014
798.7804	0.0297
798.9512	0.0757
799.122	0.0098
799.2927	0.0372
799.4635	-0.0036
799.6342	-0.0645
799.8049	0.052
799.9755	-0.0259
800.1462	0.0218
800.3168	0.0279
800.4874	-0.0689
800.658	0.1242
800.8286	0.0135
800.9991	0.0105
801.1696	0.0373
801.3402	0.0412
801.5106	-0.0846
801.6811	-0.0095
801.8516	0.0537
802.022	-0.0137
802.1924	-0.0555
802.3628	0.0275
802.5332	0.0503
802.7035	0.0304
802.8739	0.0506
803.0442	-0.0296
803.2145	-0.0214
803.3847	0.0554
803.555	0.0666
803.7252	0.0155
803.8954	0.0093
804.0656	-0.0036
804.2358	0.0047
804.4059	0.1176
804.5761	-0.0211
804.7462	0.0241
804.9163	0.0422
805.0864	0.0206
805.2564	0.0146
805.4264	0.0043
805.5965	0.033
805.7665	-0.0126
805.9364	-0.0476
806.1064	-0.0131
806.2763	0.0474
806.4462	0.0718
806.6161	0.0249
806.786	0.0295
806.9559	0.0124
807.1257	-0.0124
807.2955	-0.0192
807.4653	0.0079
807.6351	0.061
807.8048	0.0147
807.9746	-0.0018
808.1443	-0.086
808.314	0.0437
808.4837	0.0412
808.6533	0.056
808.8229	0.0618
808.9926	-0.0046
809.1622	0.0387
809.3317	0.0132
809.5013	-0.0169
809.6708	0.1528
809.8403	-0.0087
810.0098	-0.006
810.1793	0.1382
810.3488	0.0109
810.5182	0.1329
810.6876	0.0439
810.857	0.1117
811.0264	-0.0325
811.1958	0.0807
811.3651	-0.0456
811.5344	0.1022
811.7037	0.0508
811.873	0.0525
812.0422	0.0416
812.2115	0.0379
812.3807	-0.1222
812.5499	0.0228
812.7191	0.1004
812.8882	-0.0569
813.0574	0.0633
813.2265	0.0183
813.3956	-0.0192
813.5646	0.118
813.7337	-0.0623
813.9027	-0.0286
814.0718	0.0532
814.2407	0.1163
814.4097	0.025
814.5787	0.0609
814.7476	0.0551
814.9165	-0.0184
815.0854	-0.0229
815.2543	0.0061
815.4232	0.1139
815.592	0.2036
815.7608	-0.0755
815.9296	0.0584
816.0984	0.1999
816.2671	-0.0932
816.4359	0.0066
816.6046	0.1809
816.7733	0.1201
816.942	-0.0608
817.1106	0.1348
817.2793	-0.0236
817.4479	0.0843
817.6165	0.0464
817.785	0.1263
817.9536	-0.0303
818.1221	0.0779
818.2906	0.037
818.4591	0.0149
818.6276	0.0941
818.7961	0.035
818.9645	0.0588
819.1329	0.2229
819.3013	0.106
819.4697	-0.013
819.638	-0.0107
819.8064	-0.0142
819.9747	-0.0236
820.143	-0.0394
820.3113	0.081
820.4795	0.0824
820.6477	0.1452
820.816	0.0342
820.9842	0.1108
821.1523	-0.0235
821.3205	0.0416
821.4886	-0.0437
821.6567	-0.0993
821.8248	0.2614
821.9929	-0.0274
822.1609	0.0872
822.329	0.0797
822.497	0.0321
822.665	-0.0557
822.833	-0.0577
823.0009	-0.0664
823.1688	0.2187
823.3367	-0.2119
823.5046	0.1577
823.6725	-0.0205
823.8404	-0.0342
824.0082	0.0626
824.176	0.7613
824.3438	0.0906
824.5116	0.0458
824.6793	0.1736
824.847	0.4255
825.0147	-0.1078
825.1824	0.1373
825.3501	0.0029
825.5177	0.0163
825.6854	-0.1156
825.853	-0.0316
826.0206	-0.1517
826.1881	0.1483
826.3557	-0.0188
826.5232	0.2678
826.6907	0.0815
826.8582	0.1037
827.0257	0.214
827.1931	0.1041
827.3605	0.0383
827.528	-0.2017
827.6953	-0.2408
827.8627	0.0341
828.03	0.1289
828.1974	-0.0577
828.3647	0.0951
828.532	0.1279
828.6992	0.2179
828.8665	-0.1296
829.0337	0.0098
829.2009	-0.0532
829.3681	-0.0821
829.5352	-0.256
829.7024	0.2348
829.8695	-0.0515
830.0366	0.2714
830.2037	0.1402
830.3707	-0.0134
830.5378	-0.1654
830.7048	-0.0065
830.8718	0.2865
831.0388	0.0603
831.2057	-0.041
831.3727	-0.1522
831.5396	0.1327
831.7065	-0.6387
831.8734	-0.0026
832.0402	0.3288
832.2071	0.1096
832.3739	0.0187
832.5407	-1.5128
832.7075	0.0731
832.8742	0.6231
833.041	0.5856
833.2077	0.6363
833.3744	-0.0368
833.541	0.0027
833.7077	0.0432
833.8743	0.1461
834.0409	0.023
834.2075	0.0776
834.3741	-0.2712
834.5407	0.1309
834.7072	0.3115
834.8737	0.0213
835.0402	0.0597
835.2067	0.0844
835.3731	-0.0232
835.5395	0.0329
835.706	0.0978
835.8723	0.0035
836.0387	-0
836.2051	0.5529
836.3714	-0.06
836.5377	-0.2361
836.704	0.2245
836.8703	-0.1262
837.0365	-0.5973
837.2027	-0.0623
837.3689	-0.0267
837.5351	0.1063
837.7013	-0.0509
837.8674	0.7426
838.0335	-0.1571
838.1997	-0.0878
838.3657	0.1996
838.5318	0.4008
838.6978	-0
838.8639	-0.3107
839.0299	-0.0479
839.1958	0.4076
839.3618	-0.1205
839.5277	-0.185
839.6937	0.1004
839.8596	0.3531
840.0254	0.0593
840.1913	0.4876
840.3571	0.7942
840.523	-0
840.6888	0.2359
840.8545	-0
841.0203	0.204
841.186	-0.0104
841.3517	-0.1311
841.5174	0.0304
841.6831	0.2919
841.8488	0.6333
842.0144	0.3704
842.18	0.2341
842.3456	-0.6561
842.5112	-0
842.6767	0.1103
842.8422	0.0161
843.0077	0.4609
843.1732	-0.32
843.3387	0.0506
843.5042	-0
843.6696	-0.2341
843.835	-0.0409
844.0004	-0.1489
844.1657	-0
844.3311	-0
844.4964	-0
844.6617	1.298
844.827	-0
844.9923	0.4337
845.1575	-0
845.3227	-0.0972
845.4879	-0.4545
845.6531	0.1861
845.8183	0.1589
845.9834	0.5526
846.1485	0.445
846.3136	0.6719
846.4787	0.1544
846.6438	0.2342
846.8088	0.1769
846.9738	-0
847.1388	0.1882
847.3038	0.1984
847.4687	-0
847.6337	-0.7313
847.7986	0.0875
847.9635	-0.0818
848.1284	0.7103
848.2932	0.1539
848.458	-0
848.6228	-0.0049
848.7876	-0
848.9524	-0
849.1172	-0
849.2819	-0
849.4466	1.3777
849.6113	0.5529
849.7759	-0.4656
849.9406	0.1342
850.1052	-0
850.2698	0.1618
850.4344	-0
850.599	-0
850.7635	0.0705
850.928	0.8674
851.0925	1.957
851.257	0.1151
851.4215	-0
851.5859	0.5923
851.7503	-0
851.9147	-0.1979
852.0791	1.005
852.2434	0.2213
852.4078	-0
852.5721	0.2003
852.7364	0.4728
852.9007	0.2329
853.0649	-0
853.2291	0.6682
853.3934	-0
853.5575	0.3197
853.7217	0.0637
853.8859	-0
854.05	-0.4081
854.2141	-0.0102
854.3782	0.1527
854.5423	-0
854.7063	0.4378
854.8703	0.1692
855.0343	-0.2045
855.1983	0.3131
855.3623	-0.1683
855.5262	-0.2761
855.6901	0.5124
855.854	-0
856.0179	0.7417
856.1818	-0
856.3456	0.566
856.5094	-0.6998
856.6732	0.1364
856.837	-1.0192
857.0008	-0.6684
857.1645	-0.1995
857.3282	-0.4382
857.4919	-0.0332
857.6556	-0.2021
857.8192	-0.0746
857.9828	0.0066
858.1465	-0
858.31	-0
858.4736	-0.5621
858.6372	-0.178
858.8007	0.0617
858.9642	0.6743
859.1277	-0
859.2911	-0.5632
859.4546	-0
859.618	0.0758
859.7814	0.5892
859.9448	-0.2988
860.1081	0.0137
860.2715	-0
860.4348	-0.146
860.5981	0.3949
860.7614	-0
860.9246	0.623
861.0879	0.8874
861.2511	-0
861.4143	-0
861.5774	-0.1534
861.7406	0.0119
861.9037	-0.7848
862.0668	-0.7005
862.2299	-0.0063
862.393	-0
862.556	-0
862.7191	-0.2545
862.8821	0.1696
863.0451	0.7299
863.208	-0
863.371	-0.2424
863.5339	0.8188
863.6968	-0
863.8597	-0
864.0225	-0
864.1854	-0.5915
864.3482	-0
864.511	-0.0048
864.6737	0.2246
864.8365	-0.0371
864.9992	-0
865.1619	0.0166
865.3246	-1.7952
865.4873	-0
865.65	0.4836
865.8126	0.814
865.9752	-0.2528
866.1378	-0.1052
866.3004	-0.1459
866.4629	-1.9584
866.6254	-0.5272
866.7879	-0.2663
866.9504	0.4157
867.1129	-0.1372
867.2753	-0.3001
867.4377	0.009
867.6001	0.0221
867.7625	-0.337
867.9249	-0
868.0872	-0
868.2495	-0
868.4118	0.4431
868.5741	-0
868.7363	-0.7217
868.8986	-0.6189
869.0608	-0
869.223	-0.3584
869.3851	-0.2759
869.5473	0.3061
869.7094	-0
869.8715	-0
870.0336	0.2574
870.1957	-1.0105
870.3577	-0
870.5197	-0.1618
870.6817	-0
870.8437	0.2445
871.0057	0.4103
871.1676	0.3346
871.3295	-0
871.4914	-0
871.6533	-0
871.8151	1.4593
871.977	-0.2387
872.1388	-0.2522
872.3006	-0.2426
872.4623	-0.5038
872.6241	-0
872.7858	-0
872.9475	0.3225
873.1092	0.3636
873.2709	0.4974
873.4325	-1.9062
873.5941	-0.7434
873.7557	-0
873.9173	-0
874.0789	0.6538
874.2404	-0
874.4019	0.5486
874.5634	0.9825
874.7249	-0
874.8863	0.0649
875.0478	-0.2194
875.2092	-0
875.3706	0.2112
875.5319	-0
875.6933	-0.0586
875.8546	-0
876.0159	0.2086
876.1772	-0
876.3385	-0
876.4997	-0
876.6609	0.0302
876.8221	0.2278
876.9833	0.4475
877.1445	0.5252
877.3056	-1.0192
877.4667	-0.8466
877.6278	-0
877.7889	-0.2144
877.9499	1.0359
878.111	-0
878.272	0.2384
878.433	-0.0746
878.5939	0.4364
878.7549	13.9454
878.9158	-0
879.0767	-0
879.2376	-0
879.3984	-0
879.5593	1.5352
879.7201	-1.8469
879.8809	-0
880.0417	-0.1077
880.2024	0.6775
880.3632	0.2857
880.5239	0.0081
880.6846	-0.2125
880.8452	-0.0323
881.0059	-0
881.1665	0.5389
881.3271	0.2424
881.4877	0.4401
881.6483	-0.803
881.8088	-0
881.9693	-0.6269
882.1298	-0.6269
882.2903	-0.6269
