Data from D4ACN5uM460nmA_Absorbance_13-05-41-330.txt Node
Date: Fri Feb 21 13:05:41 GMT 2025
User: LASERRRRR
Spectrometer: FLMT03099
Trigger mode: 0
Integration Time (sec): 1.500000E-2
Scans to average: 1
Electric dark correction enabled: true
Nonlinearity correction enabled: false
Boxcar width: 0
XAxis mode: Wavelengths
Number of Pixels in Spectrum: 3648
>>>>>Begin Spectral Data<<<<<
179.3399	-0.6387
179.5586	-0.6387
179.7771	-0.6387
179.9957	-0.0943
180.2143	-0.7112
180.4329	0.6599
180.6514	-0
180.8699	1.3538
181.0885	-0
181.307	0.0054
181.5255	0.1599
181.744	-0
181.9625	1.0447
182.181	-0.1555
182.3994	-0.4525
182.6179	-0.0261
182.8363	-0
183.0547	0.1527
183.2732	0.0394
183.4916	0.2603
183.71	0.2284
183.9284	0.5546
184.1467	0.9242
184.3651	0.1376
184.5835	0.1986
184.8018	0.0898
185.0201	0.2878
185.2385	0.3152
185.4568	0.2173
185.6751	0.1903
185.8934	0.3254
186.1117	-0.0459
186.3299	0.2493
186.5482	0.0899
186.7664	0.2671
186.9847	0.0317
187.2029	0.534
187.4211	0.3218
187.6393	0.1623
187.8575	0.3854
188.0757	0.4866
188.2939	0.0386
188.512	0.1508
188.7302	0.1939
188.9483	0.1017
189.1665	0.6535
189.3846	0.3688
189.6027	0.2041
189.8208	0.1792
190.0389	0.1494
190.257	0.1637
190.475	-0.0241
190.6931	0.2794
190.9111	0.0562
191.1292	0.1068
191.3472	0.0901
191.5652	1.0334
191.7832	0.3
192.0012	0.2136
192.2192	0.1376
192.4371	0.1222
192.6551	0.1877
192.873	0.2199
193.091	0.1266
193.3089	0.1848
193.5268	0.3389
193.7447	0.268
193.9626	0.1995
194.1805	0.2646
194.3984	0.223
194.6162	0.3079
194.8341	0.3181
195.0519	0.2142
195.2697	0.3255
195.4875	0.2403
195.7054	0.3238
195.9231	0.178
196.1409	0.351
196.3587	0.3055
196.5765	0.3482
196.7942	0.2893
197.012	0.3201
197.2297	0.3121
197.4474	0.3501
197.6651	0.3033
197.8828	0.3434
198.1005	0.3676
198.3182	0.4093
198.5358	0.3619
198.7535	0.416
198.9711	0.3528
199.1888	0.3385
199.4064	0.4142
199.624	0.4097
199.8416	0.4092
200.0592	0.3812
200.2767	0.3897
200.4943	0.4502
200.7119	0.4003
200.9294	0.4192
201.1469	0.4114
201.3645	0.4327
201.582	0.3889
201.7995	0.3992
202.017	0.413
202.2344	0.4085
202.4519	0.4087
202.6694	0.4066
202.8868	0.3813
203.1042	0.4811
203.3217	0.4223
203.5391	0.3851
203.7565	0.3742
203.9739	0.3792
204.1913	0.3463
204.4086	0.3538
204.626	0.3872
204.8433	0.3632
205.0607	0.3487
205.278	0.3338
205.4953	0.3682
205.7126	0.3631
205.9299	0.3368
206.1472	0.3319
206.3644	0.3593
206.5817	0.3324
206.7989	0.3279
207.0162	0.3279
207.2334	0.3401
207.4506	0.3104
207.6678	0.3048
207.885	0.2921
208.1022	0.3322
208.3194	0.2871
208.5365	0.3211
208.7537	0.308
208.9708	0.2926
209.1879	0.31
209.405	0.3185
209.6222	0.2945
209.8392	0.3306
210.0563	0.2726
210.2734	0.2683
210.4905	0.2851
210.7075	0.2796
210.9245	0.2559
211.1416	0.2701
211.3586	0.2557
211.5756	0.2487
211.7926	0.2583
212.0096	0.276
212.2265	0.2429
212.4435	0.2778
212.6604	0.257
212.8774	0.2572
213.0943	0.2587
213.3112	0.243
213.5281	0.2622
213.745	0.2479
213.9619	0.2412
214.1788	0.2808
214.3956	0.259
214.6125	0.2823
214.8293	0.2497
215.0461	0.2494
215.2629	0.2672
215.4798	0.2434
215.6965	0.2507
215.9133	0.2473
216.1301	0.2394
216.3469	0.2598
216.5636	0.2496
216.7803	0.2486
216.9971	0.2596
217.2138	0.2506
217.4305	0.2629
217.6472	0.2403
217.8639	0.2526
218.0805	0.2688
218.2972	0.2576
218.5138	0.2544
218.7305	0.2595
218.9471	0.2443
219.1637	0.2759
219.3803	0.2495
219.5969	0.2456
219.8135	0.2661
220.0301	0.2635
220.2466	0.2568
220.4632	0.2602
220.6797	0.2554
220.8962	0.2716
221.1127	0.2702
221.3292	0.2694
221.5457	0.2897
221.7622	0.2658
221.9787	0.2875
222.1951	0.2839
222.4116	0.2789
222.628	0.2929
222.8444	0.2769
223.0608	0.2841
223.2772	0.283
223.4936	0.2761
223.71	0.2873
223.9264	0.2908
224.1427	0.2927
224.3591	0.2902
224.5754	0.3006
224.7917	0.2931
225.008	0.2942
225.2243	0.3029
225.4406	0.2963
225.6569	0.3037
225.8732	0.3274
226.0894	0.3247
226.3057	0.3102
226.5219	0.332
226.7381	0.3291
226.9543	0.3206
227.1705	0.3249
227.3867	0.3301
227.6029	0.3343
227.8191	0.3438
228.0352	0.3482
228.2513	0.3576
228.4675	0.358
228.6836	0.3495
228.8997	0.3451
229.1158	0.3592
229.3319	0.3547
229.548	0.3554
229.764	0.356
229.9801	0.3779
230.1961	0.3683
230.4121	0.377
230.6282	0.3905
230.8442	0.3985
231.0602	0.3916
231.2761	0.3882
231.4921	0.392
231.7081	0.3949
231.924	0.3927
232.14	0.4009
232.3559	0.4
232.5718	0.4126
232.7877	0.417
233.0036	0.4063
233.2195	0.4113
233.4353	0.4216
233.6512	0.414
233.867	0.4256
234.0829	0.4275
234.2987	0.4212
234.5145	0.4336
234.7303	0.4324
234.9461	0.4352
235.1619	0.4448
235.3776	0.4379
235.5934	0.43
235.8091	0.4435
236.0249	0.448
236.2406	0.4433
236.4563	0.4514
236.672	0.4437
236.8877	0.4441
237.1034	0.4458
237.319	0.4534
237.5347	0.4518
237.7503	0.4476
237.966	0.4553
238.1816	0.4613
238.3972	0.4567
238.6128	0.4676
238.8284	0.4482
239.0439	0.4604
239.2595	0.4619
239.475	0.4532
239.6906	0.4636
239.9061	0.4558
240.1216	0.4654
240.3371	0.4589
240.5526	0.4623
240.7681	0.4569
240.9836	0.4483
241.199	0.4632
241.4145	0.4454
241.6299	0.4459
241.8453	0.436
242.0607	0.4386
242.2761	0.43
242.4915	0.419
242.7069	0.4183
242.9223	0.4139
243.1376	0.4058
243.353	0.4
243.5683	0.3942
243.7836	0.38
243.9989	0.3695
244.2142	0.3745
244.4295	0.3635
244.6448	0.3669
244.86	0.3498
245.0753	0.3329
245.2905	0.3386
245.5057	0.3264
245.721	0.33
245.9362	0.3251
246.1514	0.313
246.3665	0.3069
246.5817	0.2969
246.7969	0.2942
247.012	0.2854
247.2271	0.2934
247.4423	0.284
247.6574	0.2801
247.8725	0.2728
248.0876	0.2673
248.3026	0.2691
248.5177	0.2552
248.7328	0.2544
248.9478	0.2499
249.1628	0.2488
249.3779	0.2417
249.5929	0.2349
249.8079	0.2333
250.0228	0.2278
250.2378	0.2278
250.4528	0.2279
250.6677	0.2226
250.8827	0.2096
251.0976	0.2104
251.3125	0.2151
251.5274	0.2065
251.7423	0.2
251.9572	0.2035
252.172	0.2045
252.3869	0.2104
252.6017	0.201
252.8166	0.1971
253.0314	0.2013
253.2462	0.1988
253.461	0.1973
253.6758	0.1962
253.8906	0.1884
254.1053	0.1913
254.3201	0.1933
254.5348	0.179
254.7496	0.18
254.9643	0.1855
255.179	0.1844
255.3937	0.1842
255.6083	0.1897
255.823	0.1847
256.0377	0.1794
256.2523	0.1862
256.467	0.1849
256.6816	0.18
256.8962	0.1841
257.1108	0.1779
257.3254	0.1793
257.54	0.1792
257.7545	0.1817
257.9691	0.1809
258.1836	0.1754
258.3981	0.1786
258.6127	0.1729
258.8272	0.1778
259.0417	0.1673
259.2561	0.1797
259.4706	0.1751
259.6851	0.1739
259.8995	0.177
260.114	0.1747
260.3284	0.1701
260.5428	0.174
260.7572	0.1719
260.9716	0.1847
261.186	0.1648
261.4003	0.1761
261.6147	0.1688
261.829	0.175
262.0433	0.1786
262.2577	0.1715
262.472	0.1731
262.6863	0.1803
262.9005	0.1772
263.1148	0.1769
263.3291	0.181
263.5433	0.1804
263.7576	0.1779
263.9718	0.1736
264.186	0.1791
264.4002	0.1804
264.6144	0.1829
264.8286	0.1778
265.0427	0.1865
265.2569	0.1779
265.471	0.1735
265.6851	0.183
265.8993	0.1717
266.1134	0.1794
266.3275	0.1743
266.5415	0.1791
266.7556	0.1723
266.9697	0.1789
267.1837	0.1795
267.3978	0.173
267.6118	0.1741
267.8258	0.1796
268.0398	0.1782
268.2538	0.1791
268.4677	0.1725
268.6817	0.1747
268.8957	0.1673
269.1096	0.168
269.3235	0.1666
269.5374	0.1795
269.7514	0.1704
269.9652	0.1698
270.1791	0.1682
270.393	0.1742
270.6068	0.1685
270.8207	0.1654
271.0345	0.1653
271.2483	0.1642
271.4622	0.1701
271.676	0.165
271.8897	0.1681
272.1035	0.1778
272.3173	0.1656
272.531	0.1646
272.7448	0.1617
272.9585	0.1592
273.1722	0.1647
273.3859	0.1657
273.5996	0.1631
273.8133	0.1688
274.0269	0.1589
274.2406	0.1627
274.4542	0.1638
274.6679	0.1685
274.8815	0.1701
275.0951	0.1719
275.3087	0.1708
275.5223	0.1627
275.7358	0.1696
275.9494	0.1699
276.1629	0.175
276.3765	0.1661
276.59	0.1638
276.8035	0.1644
277.017	0.1717
277.2305	0.1703
277.444	0.1717
277.6574	0.1699
277.8709	0.178
278.0843	0.1746
278.2978	0.1757
278.5112	0.1764
278.7246	0.1721
278.938	0.1777
279.1513	0.1719
279.3647	0.1689
279.5781	0.172
279.7914	0.1717
280.0047	0.1715
280.2181	0.1739
280.4314	0.1705
280.6447	0.1762
280.8579	0.1706
281.0712	0.1745
281.2845	0.1768
281.4977	0.1791
281.711	0.1744
281.9242	0.1778
282.1374	0.1762
282.3506	0.1757
282.5638	0.1794
282.7769	0.175
282.9901	0.175
283.2033	0.1823
283.4164	0.1787
283.6295	0.1807
283.8426	0.1776
284.0557	0.1783
284.2688	0.1783
284.4819	0.1784
284.695	0.1863
284.908	0.1789
285.1211	0.1811
285.3341	0.1795
285.5471	0.1872
285.7601	0.1829
285.9731	0.186
286.1861	0.1896
286.3991	0.1894
286.612	0.1838
286.825	0.1884
287.0379	0.1876
287.2508	0.1875
287.4637	0.1903
287.6766	0.1902
287.8895	0.1878
288.1024	0.1865
288.3152	0.185
288.5281	0.1861
288.7409	0.1947
288.9538	0.1908
289.1666	0.1844
289.3794	0.1907
289.5922	0.1911
289.8049	0.1945
290.0177	0.1906
290.2304	0.1984
290.4432	0.1956
290.6559	0.1992
290.8686	0.1936
291.0813	0.1961
291.294	0.1922
291.5067	0.1928
291.7194	0.192
291.932	0.1941
292.1447	0.1942
292.3573	0.1961
292.5699	0.1947
292.7825	0.1916
292.9951	0.1904
293.2077	0.1913
293.4203	0.1907
293.6328	0.1883
293.8454	0.1957
294.0579	0.1876
294.2704	0.2
294.4829	0.1927
294.6954	0.1967
294.9079	0.1965
295.1204	0.1935
295.3328	0.1988
295.5453	0.1942
295.7577	0.1927
295.9701	0.1942
296.1825	0.1979
296.3949	0.1909
296.6073	0.1907
296.8197	0.1947
297.0321	0.1937
297.2444	0.189
297.4567	0.1985
297.6691	0.1938
297.8814	0.1948
298.0937	0.1912
298.306	0.1893
298.5182	0.1965
298.7305	0.1937
298.9428	0.1928
299.155	0.1886
299.3672	0.1898
299.5794	0.1962
299.7916	0.1891
300.0038	0.1914
300.216	0.1923
300.4282	0.1898
300.6403	0.1995
300.8525	0.1964
301.0646	0.1938
301.2767	0.1952
301.4888	0.1942
301.7009	0.1965
301.913	0.1944
302.125	0.193
302.3371	0.1904
302.5491	0.1949
302.7612	0.204
302.9732	0.1981
303.1852	0.1987
303.3972	0.1964
303.6092	0.1963
303.8211	0.1918
304.0331	0.1888
304.245	0.188
304.457	0.1895
304.6689	0.19
304.8808	0.1869
305.0927	0.1931
305.3046	0.1884
305.5164	0.1822
305.7283	0.1814
305.9401	0.1754
306.152	0.1819
306.3638	0.1806
306.5756	0.1848
306.7874	0.1729
306.9992	0.1806
307.2109	0.1743
307.4227	0.1701
307.6344	0.1724
307.8462	0.1673
308.0579	0.1734
308.2696	0.1657
308.4813	0.1667
308.693	0.1639
308.9046	0.163
309.1163	0.1611
309.328	0.1549
309.5396	0.1517
309.7512	0.1527
309.9628	0.1539
310.1744	0.1459
310.386	0.1454
310.5976	0.1422
310.8091	0.1496
311.0207	0.1488
311.2322	0.1409
311.4437	0.1416
311.6552	0.1457
311.8667	0.1477
312.0782	0.1406
312.2897	0.1422
312.5012	0.1371
312.7126	0.137
312.924	0.1394
313.1355	0.1284
313.3469	0.1321
313.5583	0.1309
313.7696	0.1282
313.981	0.1355
314.1924	0.1298
314.4037	0.1263
314.6151	0.1241
314.8264	0.1316
315.0377	0.1269
315.249	0.1265
315.4603	0.1173
315.6716	0.1232
315.8828	0.1265
316.0941	0.1299
316.3053	0.1192
316.5165	0.1246
316.7277	0.1238
316.9389	0.1177
317.1501	0.1264
317.3613	0.1227
317.5724	0.1245
317.7836	0.112
317.9947	0.1227
318.2058	0.1191
318.417	0.1153
318.6281	0.1159
318.8391	0.1194
319.0502	0.1232
319.2613	0.1193
319.4723	0.1185
319.6834	0.1223
319.8944	0.1188
320.1054	0.1171
320.3164	0.1166
320.5274	0.1187
320.7383	0.1209
320.9493	0.1224
321.1602	0.1171
321.3712	0.1232
321.5821	0.1154
321.793	0.124
322.0039	0.1163
322.2148	0.1199
322.4257	0.114
322.6365	0.1164
322.8474	0.1188
323.0582	0.1234
323.269	0.1191
323.4798	0.121
323.6906	0.1189
323.9014	0.1178
324.1122	0.1202
324.3229	0.1178
324.5337	0.1216
324.7444	0.1213
324.9551	0.1189
325.1658	0.1246
325.3765	0.1224
325.5872	0.126
325.7979	0.1265
326.0085	0.1234
326.2192	0.1238
326.4298	0.1262
326.6404	0.1318
326.851	0.1196
327.0616	0.126
327.2722	0.1252
327.4828	0.1267
327.6933	0.13
327.9039	0.1295
328.1144	0.1271
328.3249	0.1256
328.5354	0.1263
328.7459	0.1278
328.9564	0.1264
329.1669	0.1266
329.3773	0.1228
329.5878	0.1235
329.7982	0.1247
330.0086	0.1256
330.219	0.1263
330.4294	0.13
330.6398	0.1235
330.8502	0.1352
331.0605	0.126
331.2708	0.1238
331.4812	0.1257
331.6915	0.1259
331.9018	0.1277
332.1121	0.1321
332.3224	0.1288
332.5326	0.1245
332.7429	0.1263
332.9531	0.1303
333.1633	0.1274
333.3735	0.1235
333.5837	0.1314
333.7939	0.1332
334.0041	0.134
334.2143	0.1295
334.4244	0.1397
334.6346	0.1262
334.8447	0.1296
335.0548	0.1382
335.2649	0.1314
335.475	0.1328
335.685	0.1352
335.8951	0.1239
336.1051	0.1383
336.3152	0.1365
336.5252	0.1369
336.7352	0.1294
336.9452	0.1323
337.1552	0.1414
337.3652	0.1273
337.5751	0.1318
337.7851	0.1397
337.995	0.1385
338.2049	0.1356
338.4148	0.1368
338.6247	0.1366
338.8346	0.1379
339.0445	0.1429
339.2543	0.1337
339.4642	0.1347
339.674	0.1361
339.8838	0.1388
340.0936	0.1415
340.3034	0.1304
340.5132	0.1376
340.7229	0.1397
340.9327	0.1495
341.1424	0.1366
341.3522	0.1343
341.5619	0.1475
341.7716	0.1472
341.9813	0.1458
342.1909	0.1432
342.4006	0.1421
342.6102	0.1462
342.8199	0.1494
343.0295	0.1423
343.2391	0.1463
343.4487	0.1494
343.6583	0.156
343.8679	0.1448
344.0774	0.1418
344.287	0.1454
344.4965	0.1453
344.706	0.1469
344.9155	0.1499
345.125	0.1478
345.3345	0.1645
345.544	0.1508
345.7534	0.1524
345.9629	0.1575
346.1723	0.1584
346.3817	0.1526
346.5911	0.1519
346.8005	0.1592
347.0099	0.1553
347.2193	0.1643
347.4286	0.1694
347.638	0.1583
347.8473	0.1615
348.0566	0.1614
348.2659	0.1607
348.4752	0.1644
348.6845	0.1667
348.8937	0.1656
349.103	0.1673
349.3122	0.1669
349.5214	0.1716
349.7306	0.1685
349.9398	0.1669
350.149	0.1615
350.3582	0.1717
350.5674	0.1693
350.7765	0.1721
350.9856	0.1693
351.1948	0.1719
351.4039	0.1708
351.613	0.1657
351.822	0.1791
352.0311	0.1736
352.2402	0.1714
352.4492	0.1752
352.6582	0.1865
352.8672	0.1719
353.0762	0.1798
353.2852	0.1744
353.4942	0.1852
353.7032	0.1783
353.9121	0.177
354.1211	0.1875
354.33	0.1845
354.5389	0.1823
354.7478	0.1827
354.9567	0.1858
355.1655	0.1854
355.3744	0.1823
355.5833	0.186
355.7921	0.1968
356.0009	0.1873
356.2097	0.1829
356.4185	0.1863
356.6273	0.1871
356.8361	0.1883
357.0448	0.1884
357.2536	0.1858
357.4623	0.1852
357.671	0.1879
357.8797	0.1925
358.0884	0.1969
358.2971	0.195
358.5057	0.2017
358.7144	0.2033
358.923	0.2031
359.1316	0.2001
359.3402	0.2025
359.5488	0.1999
359.7574	0.2036
359.966	0.1959
360.1746	0.2037
360.3831	0.2105
360.5916	0.207
360.8002	0.2107
361.0087	0.2078
361.2172	0.2141
361.4256	0.2162
361.6341	0.2168
361.8426	0.2128
362.051	0.2159
362.2594	0.2132
362.4678	0.2102
362.6762	0.217
362.8846	0.222
363.093	0.2218
363.3014	0.2225
363.5097	0.2161
363.718	0.2271
363.9264	0.2208
364.1347	0.2237
364.343	0.234
364.5513	0.2307
364.7595	0.2291
364.9678	0.2304
365.176	0.2274
365.3842	0.2384
365.5925	0.2297
365.8007	0.2342
366.0089	0.2368
366.217	0.2281
366.4252	0.2341
366.6333	0.2464
366.8415	0.2361
367.0496	0.2383
367.2577	0.2372
367.4658	0.2349
367.6739	0.2363
367.882	0.2485
368.09	0.2358
368.2981	0.246
368.5061	0.2415
368.7141	0.244
368.9221	0.2588
369.1301	0.2501
369.3381	0.253
369.5461	0.2608
369.754	0.2566
369.962	0.2495
370.1699	0.2616
370.3778	0.2645
370.5857	0.2552
370.7936	0.2655
371.0015	0.258
371.2093	0.2502
371.4172	0.2604
371.625	0.2639
371.8328	0.2522
372.0406	0.2676
372.2484	0.256
372.4562	0.2687
372.664	0.2655
372.8717	0.2636
373.0795	0.2713
373.2872	0.27
373.4949	0.271
373.7026	0.2697
373.9103	0.2615
374.118	0.2724
374.3256	0.2714
374.5333	0.2681
374.7409	0.2797
374.9485	0.2778
375.1561	0.27
375.3637	0.2812
375.5713	0.2889
375.7789	0.2705
375.9864	0.2743
376.194	0.2927
376.4015	0.2836
376.609	0.2858
376.8165	0.2892
377.024	0.2789
377.2315	0.2846
377.4389	0.2811
377.6464	0.2895
377.8538	0.2899
378.0612	0.2874
378.2686	0.2899
378.476	0.2951
378.6834	0.2858
378.8908	0.2984
379.0981	0.2986
379.3055	0.2956
379.5128	0.2955
379.7201	0.2913
379.9274	0.2983
380.1347	0.3
380.342	0.3033
380.5492	0.2934
380.7565	0.3017
380.9637	0.3087
381.1709	0.2965
381.3781	0.3001
381.5853	0.2971
381.7925	0.3007
381.9997	0.3039
382.2068	0.3042
382.4139	0.3038
382.6211	0.3051
382.8282	0.3104
383.0353	0.3193
383.2424	0.3013
383.4494	0.3106
383.6565	0.3047
383.8635	0.3129
384.0706	0.3194
384.2776	0.3106
384.4846	0.308
384.6916	0.3043
384.8986	0.313
385.1055	0.321
385.3125	0.3114
385.5194	0.3255
385.7263	0.3091
385.9333	0.3164
386.1402	0.3076
386.347	0.3124
386.5539	0.3092
386.7608	0.3195
386.9676	0.3027
387.1744	0.3102
387.3813	0.3124
387.5881	0.306
387.7948	0.3237
388.0016	0.3205
388.2084	0.307
388.4151	0.3139
388.6219	0.3037
388.8286	0.3129
389.0353	0.3157
389.242	0.308
389.4487	0.3004
389.6553	0.2937
389.862	0.3042
390.0686	0.3151
390.2753	0.3053
390.4819	0.3176
390.6885	0.309
390.8951	0.2985
391.1016	0.2997
391.3082	0.2996
391.5147	0.2918
391.7213	0.3088
391.9278	0.2897
392.1343	0.2967
392.3408	0.2999
392.5473	0.2906
392.7537	0.3051
392.9602	0.2909
393.1666	0.2867
393.373	0.2804
393.5794	0.2959
393.7858	0.293
393.9922	0.2824
394.1986	0.281
394.4049	0.2831
394.6113	0.2841
394.8176	0.2908
395.0239	0.2772
395.2302	0.2757
395.4365	0.2798
395.6428	0.2811
395.8491	0.2796
396.0553	0.2716
396.2615	0.2758
396.4678	0.2877
396.674	0.2653
396.8802	0.2638
397.0863	0.262
397.2925	0.2678
397.4987	0.2651
397.7048	0.2806
397.9109	0.2609
398.117	0.2582
398.3231	0.2636
398.5292	0.2642
398.7353	0.2608
398.9413	0.2704
399.1474	0.2749
399.3534	0.2738
399.5594	0.2682
399.7654	0.2644
399.9714	0.2681
400.1774	0.2664
400.3833	0.2562
400.5893	0.2703
400.7952	0.2727
401.0011	0.2639
401.207	0.2643
401.4129	0.274
401.6188	0.2669
401.8247	0.2719
402.0305	0.2634
402.2364	0.2688
402.4422	0.2636
402.648	0.2661
402.8538	0.2629
403.0596	0.2527
403.2654	0.2674
403.4711	0.2552
403.6768	0.2557
403.8826	0.2693
404.0883	0.2673
404.294	0.2675
404.4997	0.2668
404.7054	0.2644
404.911	0.2669
405.1167	0.2679
405.3223	0.2554
405.5279	0.2599
405.7335	0.2645
405.9391	0.2607
406.1447	0.2678
406.3502	0.2645
406.5558	0.2648
406.7613	0.2644
406.9668	0.2651
407.1724	0.259
407.3778	0.2644
407.5833	0.2529
407.7888	0.2694
407.9942	0.2635
408.1997	0.265
408.4051	0.2665
408.6105	0.2657
408.8159	0.2596
409.0213	0.2705
409.2267	0.2717
409.432	0.253
409.6374	0.2803
409.8427	0.2726
410.048	0.2746
410.2533	0.2583
410.4586	0.2539
410.6639	0.2714
410.8691	0.2538
411.0744	0.2655
411.2796	0.2615
411.4848	0.2669
411.69	0.2571
411.8952	0.2593
412.1004	0.2581
412.3056	0.2649
412.5107	0.2578
412.7158	0.2752
412.921	0.2643
413.1261	0.251
413.3312	0.2549
413.5362	0.2751
413.7413	0.2677
413.9464	0.253
414.1514	0.2599
414.3564	0.2674
414.5614	0.2492
414.7664	0.2522
414.9714	0.2507
415.1764	0.2648
415.3813	0.2607
415.5863	0.2635
415.7912	0.2557
415.9961	0.261
416.201	0.2615
416.4059	0.2617
416.6108	0.2539
416.8156	0.252
417.0205	0.2555
417.2253	0.2547
417.4301	0.2649
417.6349	0.2424
417.8397	0.2573
418.0445	0.2525
418.2492	0.2567
418.454	0.2658
418.6587	0.2572
418.8634	0.251
419.0681	0.2534
419.2728	0.2466
419.4775	0.2668
419.6822	0.2588
419.8868	0.2483
420.0915	0.2486
420.2961	0.25
420.5007	0.2583
420.7053	0.2453
420.9099	0.2487
421.1144	0.2406
421.319	0.2346
421.5235	0.2342
421.728	0.2508
421.9325	0.2385
422.137	0.247
422.3415	0.2327
422.546	0.2351
422.7504	0.2338
422.9549	0.2419
423.1593	0.2352
423.3637	0.2357
423.5681	0.2395
423.7725	0.2363
423.9769	0.2448
424.1812	0.2283
424.3856	0.2299
424.5899	0.2236
424.7942	0.2308
424.9985	0.2298
425.2028	0.2375
425.4071	0.2363
425.6113	0.2284
425.8156	0.217
426.0198	0.2251
426.224	0.2321
426.4282	0.2128
426.6324	0.2172
426.8366	0.2094
427.0407	0.2181
427.2449	0.2131
427.449	0.2124
427.6531	0.2209
427.8572	0.2191
428.0613	0.2165
428.2654	0.2139
428.4694	0.2033
428.6735	0.2029
428.8775	0.203
429.0815	0.2047
429.2855	0.1994
429.4895	0.2008
429.6935	0.204
429.8975	0.2016
430.1014	0.1986
430.3053	0.2029
430.5093	0.189
430.7132	0.1925
430.9171	0.1968
431.1209	0.2004
431.3248	0.1785
431.5286	0.1848
431.7325	0.1838
431.9363	0.1792
432.1401	0.1808
432.3439	0.1836
432.5477	0.1737
432.7514	0.1704
432.9552	0.1725
433.1589	0.1666
433.3627	0.176
433.5664	0.1614
433.7701	0.1725
433.9737	0.1744
434.1774	0.174
434.3811	0.162
434.5847	0.1595
434.7883	0.1625
434.9919	0.1613
435.1955	0.1553
435.3991	0.154
435.6027	0.1556
435.8062	0.1597
436.0098	0.1506
436.2133	0.1533
436.4168	0.1374
436.6203	0.1411
436.8238	0.1428
437.0272	0.1455
437.2307	0.1344
437.4341	0.1429
437.6375	0.138
437.841	0.1339
438.0443	0.1475
438.2477	0.1246
438.4511	0.1264
438.6545	0.1218
438.8578	0.122
439.0611	0.1325
439.2644	0.1283
439.4677	0.1185
439.671	0.1166
439.8743	0.1159
440.0775	0.1154
440.2808	0.1092
440.484	0.1117
440.6872	0.107
440.8904	0.0969
441.0936	0.109
441.2967	0.0947
441.4999	0.0929
441.703	0.0916
441.9062	0.1076
442.1093	0.1121
442.3124	0.1025
442.5155	0.102
442.7185	0.0884
442.9216	0.0929
443.1246	0.0965
443.3276	0.09
443.5307	0.0829
443.7337	0.0938
443.9366	0.086
444.1396	0.0774
444.3426	0.0898
444.5455	0.087
444.7484	0.0782
444.9513	0.073
445.1542	0.0832
445.3571	0.0737
445.56	0.0675
445.7628	0.0762
445.9657	0.0741
446.1685	0.0788
446.3713	0.0774
446.5741	0.0707
446.7769	0.0734
446.9797	0.0708
447.1824	0.0615
447.3852	0.0494
447.5879	0.056
447.7906	0.0503
447.9933	0.0608
448.196	0.0598
448.3986	0.053
448.6013	0.0494
448.8039	0.0574
449.0066	0.0623
449.2092	0.0624
449.4118	0.0619
449.6143	0.0636
449.8169	0.0535
450.0195	0.0513
450.222	0.0578
450.4245	0.056
450.627	0.0523
450.8295	0.051
451.032	0.0499
451.2345	0.0408
451.4369	0.0466
451.6394	0.0472
451.8418	0.0446
452.0442	0.0444
452.2466	0.0377
452.449	0.0364
452.6513	0.0394
452.8537	0.032
453.056	0.0321
453.2583	0.0351
453.4607	0.0388
453.663	0.0317
453.8652	0.018
454.0675	0.0352
454.2697	0.0319
454.472	0.0276
454.6742	0.0347
454.8764	0.0372
455.0786	0.0285
455.2808	0.0284
455.4829	0.0284
455.6851	0.0324
455.8872	0.0199
456.0893	0.0273
456.2915	0.0272
456.4935	0.0339
456.6956	0.0266
456.8977	0.0235
457.0997	0.0343
457.3018	0.0206
457.5038	0.0281
457.7058	0.0287
457.9078	0.022
458.1098	0.025
458.3117	0.0303
458.5137	0.0145
458.7156	0.0213
458.9175	0.0242
459.1194	0.0097
459.3213	0.0167
459.5232	0.0192
459.725	0.0249
459.9269	0.0182
460.1287	0.0142
460.3305	0.0217
460.5323	0.0247
460.7341	0.0169
460.9359	0.0123
461.1376	0.0154
461.3394	0.0206
461.5411	0.0156
461.7428	0.0125
461.9445	0.0204
462.1462	0.015
462.3479	0.0137
462.5495	0.0176
462.7512	0.0179
462.9528	0.017
463.1544	0.0139
463.356	0.007
463.5576	0.0204
463.7592	0.0066
463.9607	0.0058
464.1623	0.0109
464.3638	0.0004
464.5653	0.0131
464.7668	0.0183
464.9683	0.0125
465.1697	0.0118
465.3712	0.0007
465.5726	0.0107
465.7741	0.0145
465.9755	0.0125
466.1769	0.0117
466.3782	0.0029
466.5796	0.0125
466.7809	0.0125
466.9823	0.0066
467.1836	0.0134
467.3849	0.0173
467.5862	0.0067
467.7875	0.0085
467.9887	0.0123
468.19	0.0095
468.3912	0.0123
468.5924	-0.0012
468.7936	0.0125
468.9948	0.0007
469.196	0.013
469.3972	0.0042
469.5983	0.0016
469.7994	0.0117
470.0006	0.0057
470.2017	0.0146
470.4027	0.0196
470.6038	0.002
470.8049	0.0058
471.0059	0.0094
471.2069	0.0156
471.408	0.0155
471.6089	0.0185
471.8099	0.0072
472.0109	0.0045
472.2119	0.0193
472.4128	-0.0009
472.6137	0.0113
472.8146	0.0031
473.0155	0.0099
473.2164	0.0009
473.4173	-0.004
473.6181	0.0015
473.819	0.0105
474.0198	-0.0003
474.2206	-0.0023
474.4214	0.0174
474.6222	-0.0002
474.8229	0.0025
475.0237	0.0107
475.2244	0.0084
475.4251	0.0074
475.6258	0.0021
475.8265	0.0087
476.0272	-0.0018
476.2278	0.0068
476.4285	0.0136
476.6291	-0.0031
476.8297	0.0059
477.0303	-0.0046
477.2309	0.0095
477.4315	0.013
477.632	0.0015
477.8326	0.0008
478.0331	0.0124
478.2336	0.007
478.4341	0.0113
478.6346	0.0015
478.8351	0.0023
479.0355	0.0064
479.236	0.0099
479.4364	0.0104
479.6368	0.0057
479.8372	0.006
480.0376	0.0109
480.2379	0.0056
480.4383	0.0063
480.6386	-0.0017
480.8389	0.0026
481.0392	0.0026
481.2395	0.0077
481.4398	0.0061
481.6401	-0.0016
481.8403	-0.0016
482.0405	0.0051
482.2408	0.0064
482.441	0.0079
482.6411	0.002
482.8413	0.0031
483.0415	0.0118
483.2416	0.0028
483.4417	0.0113
483.6419	-0.0038
483.8419	0.0026
484.042	0.0089
484.2421	0.0015
484.4422	0.0055
484.6422	0.0029
484.8422	0.0059
485.0422	0.0022
485.2422	0.0013
485.4422	0.0036
485.6422	0.0037
485.8421	0.0026
486.042	0.0099
486.242	-0.0029
486.4419	0.008
486.6417	0.0029
486.8416	0.0036
487.0415	0.0032
487.2413	-0.0028
487.4411	0.0042
487.641	-0.0033
487.8408	0.0019
488.0405	0.0142
488.2403	-0.0083
488.4401	0.0034
488.6398	0.0089
488.8395	-0.0034
489.0392	0.0006
489.2389	0.006
489.4386	-0.0059
489.6383	0.0135
489.8379	0.0049
490.0376	0.008
490.2372	0.0013
490.4368	0.0067
490.6364	0.0018
490.836	-0.0016
491.0355	-0.0018
491.2351	-0.0045
491.4346	0.0003
491.6341	-0.0046
491.8336	0.0036
492.0331	0.0041
492.2326	0.0024
492.432	0.0003
492.6315	0.0107
492.8309	0.0018
493.0303	-0.0026
493.2297	0.0077
493.4291	0.0104
493.6284	0.0075
493.8278	0.0018
494.0271	0.0069
494.2264	-0.0038
494.4257	0.0064
494.625	0.0067
494.8243	0.0026
495.0236	0.0068
495.2228	0.0076
495.422	0.001
495.6213	0.0048
495.8205	0.0132
496.0196	-0.0015
496.2188	0.0072
496.418	0.0092
496.6171	-0.0024
496.8162	0.0083
497.0153	0.0065
497.2144	0.0005
497.4135	-0.0016
497.6126	0.0025
497.8116	0.0045
498.0107	0.0106
498.2097	0.0023
498.4087	-0.0013
498.6077	-0.006
498.8067	0.0039
499.0056	0.0014
499.2046	0.0084
499.4035	0.0021
499.6024	-0.0079
499.8013	0.0042
500.0002	0.0091
500.199	0.0056
500.3979	-0.0036
500.5967	0.0006
500.7956	0.0073
500.9944	0.0021
501.1932	0.0051
501.3919	0.0048
501.5907	0.0112
501.7895	-0.0009
501.9882	-0.002
502.1869	0.0127
502.3856	0.0053
502.5843	0.0066
502.783	0.0018
502.9816	0.0049
503.1803	0.0035
503.3789	0.0083
503.5775	0.0051
503.7761	-0
503.9747	0.0121
504.1732	-0.0059
504.3718	0.0151
504.5703	-0.0005
504.7689	-0.0014
504.9674	0.004
505.1658	-0.0009
505.3643	0.0113
505.5628	0.0166
505.7612	0.0098
505.9597	-0.0042
506.1581	0.0007
506.3565	-0.0025
506.5549	0.0049
506.7532	0.0023
506.9516	0.0052
507.1499	0.0033
507.3482	0.0045
507.5465	0.0087
507.7448	0.0061
507.9431	0.0084
508.1414	-0.0008
508.3396	0.0067
508.5379	-0.0019
508.7361	0.0083
508.9343	0.0096
509.1325	0.0116
509.3306	-0.0004
509.5288	-0.0076
509.7269	0.0151
509.9251	0.0042
510.1232	0.0097
510.3213	0.0122
510.5193	0.0065
510.7174	0.001
510.9154	0.004
511.1135	0.0004
511.3115	-0.0066
511.5095	0.0014
511.7075	-0.001
511.9055	0.0117
512.1034	0.0011
512.3014	0.0075
512.4993	0.0094
512.6972	-0
512.8951	-0
513.093	0.0101
513.2908	0.0128
513.4887	0.0073
513.6865	0.0052
513.8844	0.0125
514.0822	0.012
514.2799	-0.0025
514.4777	-0.0021
514.6755	0.0087
514.8732	0.006
515.0709	-0.0018
515.2687	0.0067
515.4664	0.011
515.664	0.0074
515.8617	0.0088
516.0594	0.009
516.257	0.0031
516.4546	0.0136
516.6522	0.0034
516.8498	0.0008
517.0474	0.0049
517.2449	0.0072
517.4425	-0.0008
517.64	0.0103
517.8375	0.0027
518.035	-0.0062
518.2325	-0.0097
518.43	0.0072
518.6274	0.0093
518.8249	0.0021
519.0223	0.0108
519.2197	0.0012
519.4171	-0.0042
519.6145	0.0061
519.8118	-0.0034
520.0092	0.0031
520.2065	0.0157
520.4038	-0.0087
520.6011	0.0127
520.7984	0.0079
520.9956	0.0057
521.1929	0.0068
521.3901	0.0101
521.5874	0.0102
521.7846	-0.0078
521.9818	0.0131
522.1789	-0.0008
522.3761	0.0201
522.5732	0.0043
522.7704	-0.0212
522.9675	-0.0086
523.1646	-0.0022
523.3617	0.0144
523.5587	-0.0005
523.7558	0.0054
523.9528	0.0186
524.1498	0.0024
524.3468	0.0047
524.5438	0.0048
524.7408	0.0033
524.9378	-0.0012
525.1347	0.0124
525.3316	0.0084
525.5285	0.0045
525.7254	0.0117
525.9223	0.011
526.1192	0.0114
526.316	0.018
526.5129	0.0009
526.7097	-0.0023
526.9065	0.0156
527.1033	0.0048
527.3	0.0025
527.4968	0.0145
527.6935	-0.0064
527.8903	-0.0011
528.087	0.0074
528.2837	0.0098
528.4804	0.005
528.677	0.0108
528.8737	0.0053
529.0703	0.0017
529.2669	0.014
529.4635	0.0085
529.6601	-0.0088
529.8567	0.0022
530.0532	0.0017
530.2498	0.0164
530.4463	-0.0033
530.6428	0.0041
530.8393	0.0158
531.0358	0.008
531.2322	0.001
531.4287	0.0015
531.6251	-0.0079
531.8215	0.0058
532.0179	0.0102
532.2143	0.006
532.4107	0.0139
532.607	-0.0052
532.8034	0.0034
532.9997	0.0028
533.196	-0.0036
533.3923	0.008
533.5886	0.0074
533.7848	0.0044
533.9811	0.0087
534.1773	0.0044
534.3735	0.0028
534.5697	0.0061
534.7659	0.009
534.9621	0.0025
535.1582	-0.0007
535.3544	0.0058
535.5505	0.0039
535.7466	-0.0024
535.9427	-0.0037
536.1387	0.0063
536.3348	0.0029
536.5308	0.0042
536.7269	0.0059
536.9229	0.0069
537.1189	0.0136
537.3148	0.0066
537.5108	0.0065
537.7068	0.0126
537.9027	-0.0117
538.0986	0.0068
538.2945	-0.0063
538.4904	0.0037
538.6863	0.0059
538.8821	0.0132
539.078	-0.0017
539.2738	0.0052
539.4696	-0.0062
539.6654	0.003
539.8611	0.0055
540.0569	0.0001
540.2526	0.0069
540.4484	-0.009
540.6441	0.0057
540.8398	0.0125
541.0355	0.0063
541.2311	0.0004
541.4268	0.0149
541.6224	0.0119
541.818	0.0009
542.0136	0.007
542.2092	0.011
542.4048	0.0049
542.6003	0.004
542.7959	-0.0009
542.9914	0.0069
543.1869	0.0012
543.3824	0.0035
543.5779	0.007
543.7734	0.0204
543.9688	0.0102
544.1642	0.0073
544.3596	0.013
544.555	0.0045
544.7504	0.0091
544.9458	0.0084
545.1411	-0.0023
545.3365	0.0063
545.5318	0.0042
545.7271	0.0084
545.9224	-0.0047
546.1177	0.011
546.3129	0.0006
546.5081	-0.0048
546.7034	0.0116
546.8986	0.0072
547.0938	0.0096
547.289	0.0045
547.4841	0.0062
547.6793	-0.0019
547.8744	0.0101
548.0695	0.0028
548.2646	0.0021
548.4597	-0.0056
548.6548	0.0162
548.8498	0.005
549.0448	-0.0009
549.2399	0.0245
549.4349	0.01
549.6298	0.016
549.8248	0.0054
550.0198	0.0105
550.2147	0.0076
550.4096	-0.0066
550.6045	0.0078
550.7994	-0.0039
550.9943	0.0093
551.1892	-0.0081
551.384	0.0118
551.5788	0
551.7737	0.0099
551.9685	0.003
552.1632	0.0057
552.358	0.0009
552.5528	0.005
552.7475	-0.0014
552.9422	0.0063
553.1369	0.0037
553.3316	0.0075
553.5263	0.0039
553.7209	0.0025
553.9156	0.0005
554.1102	0.0048
554.3048	-0.0032
554.4994	0.003
554.694	0.0115
554.8885	0.0053
555.0831	0.0038
555.2776	0.0034
555.4721	0.0068
555.6666	0.0017
555.8611	0.0049
556.0555	-0.0021
556.25	0.008
556.4444	0.0055
556.6388	-0.0005
556.8332	0.0112
557.0276	0.0089
557.222	0.0015
557.4163	0.0006
557.6107	0.0017
557.805	0.0007
557.9993	0.0073
558.1936	0.0007
558.3879	-0.0012
558.5821	-0.0067
558.7764	-0.0117
558.9706	0.0033
559.1648	0.0143
559.359	-0.0031
559.5532	0.0047
559.7473	-0.0063
559.9415	0.0055
560.1356	0.0119
560.3297	-0.0069
560.5238	0.0055
560.7179	-0.0052
560.9119	0.0081
561.106	-0.0001
561.3	-0.0003
561.494	-0.0058
561.688	0.002
561.882	0.004
562.076	0.0027
562.2699	0.0142
562.4639	0.0057
562.6578	0.0111
562.8517	0.0068
563.0456	0.0105
563.2395	0.0038
563.4333	0.0101
563.6272	0.0043
563.821	0.0072
564.0148	0.0055
564.2086	0.0027
564.4024	0.0034
564.5961	0.0023
564.7899	0.0167
564.9836	-0.0047
565.1773	0.0031
565.371	-0.0021
565.5647	0.0036
565.7584	0.0098
565.952	-0.0017
566.1456	0.0097
566.3393	0.0072
566.5329	0.0006
566.7264	0.0023
566.92	0.001
567.1136	0.0029
567.3071	-0.0012
567.5006	0.0032
567.6941	0.0026
567.8876	0.0038
568.0811	0.0162
568.2745	-0.0061
568.468	0.0047
568.6614	0.0076
568.8548	0.007
569.0482	0.0021
569.2416	0.0043
569.4349	-0.0004
569.6283	0.0057
569.8216	0.0002
570.0149	-0.0012
570.2082	0.0098
570.4015	0.0037
570.5947	0.0041
570.788	0.0057
570.9812	-0.0031
571.1744	0.0023
571.3676	-0.0016
571.5608	0.0002
571.754	0.009
571.9471	0.0114
572.1402	0.0066
572.3333	0.0049
572.5264	0.006
572.7195	-0.0007
572.9126	0.0033
573.1057	0.0052
573.2987	0.0009
573.4917	0.0028
573.6847	0.0009
573.8777	0.0067
574.0707	0.0042
574.2636	0.0022
574.4566	0.0006
574.6495	-0.0002
574.8424	0.0063
575.0353	0.0077
575.2281	0.0071
575.421	0.0005
575.6138	0.0018
575.8067	0.007
575.9995	0.0047
576.1923	0.006
576.385	0.0045
576.5778	0.0076
576.7706	0.0067
576.9633	0.0052
577.156	-0.0003
577.3487	0.0018
577.5414	0.0013
577.734	0.0013
577.9267	0.0033
578.1193	0.0053
578.3119	-0.0028
578.5045	0.0034
578.6971	0.0003
578.8897	-0.0039
579.0822	0.0078
579.2747	0.0005
579.4673	0.0032
579.6598	0.0053
579.8522	0.0032
580.0447	0.005
580.2372	0.0082
580.4296	0.0096
580.622	0.0043
580.8144	0.0007
581.0068	0.0019
581.1992	0.0038
581.3915	0.0002
581.5839	0.003
581.7762	0.0025
581.9685	0.0051
582.1608	0.0039
582.353	0.0037
582.5453	0.0037
582.7375	0.0049
582.9298	-0.0006
583.122	-0.0023
583.3142	0.0083
583.5063	-0.0001
583.6985	0.0034
583.8906	0.0015
584.0827	0.0075
584.2749	-0.0033
584.4669	-0.001
584.659	0.0056
584.8511	0.0062
585.0431	0.0047
585.2352	0.0026
585.4272	0.0022
585.6192	0.0055
585.8111	-0.0008
586.0031	0.0025
586.195	0.0051
586.387	-0.0022
586.5789	0.0061
586.7708	0.0048
586.9627	0.0024
587.1545	0.001
587.3464	0.0022
587.5382	-0.0006
587.73	0.0051
587.9218	0.0033
588.1136	-0.0022
588.3053	0.0012
588.4971	0.0049
588.6888	-0.0008
588.8805	-0.0002
589.0722	0.0092
589.2639	0.005
589.4556	0.0064
589.6472	0.0064
589.8389	0.0016
590.0305	0.0017
590.2221	0.0093
590.4137	0.0014
590.6052	0.0024
590.7968	0.004
590.9883	0.0051
591.1798	-0.0018
591.3713	0.0014
591.5628	0.0012
591.7543	-0.0017
591.9458	0.0012
592.1372	-0
592.3286	-0.002
592.52	0.0005
592.7114	0.0038
592.9028	0.0037
593.0941	0.001
593.2855	0.0009
593.4768	0.0121
593.6681	0.0053
593.8594	0.01
594.0506	0.0025
594.2419	0.0025
594.4331	0.0009
594.6244	-0.0011
594.8156	0.0039
595.0067	-0.0025
595.1979	-0.0016
595.3891	0.0028
595.5802	0.009
595.7713	0.0065
595.9624	0.011
596.1535	0.0064
596.3446	0.002
596.5357	0.0096
596.7267	-0.0011
596.9177	0.0051
597.1087	0.0014
597.2997	0.0031
597.4907	-0.0017
597.6817	0.003
597.8726	0.0053
598.0635	0.0033
598.2544	0.0052
598.4453	-0.0005
598.6362	0.005
598.827	-0.001
599.0179	-0.0011
599.2087	0.0101
599.3995	0.0011
599.5903	0.0078
599.7811	0.0095
599.9718	-0.0022
600.1626	0.004
600.3533	-0.0008
600.544	0.0044
600.7347	0.0038
600.9254	0.0063
601.116	0.0019
601.3067	-0.0008
601.4973	0.0024
601.6879	0.0003
601.8785	0.0123
602.0691	0.0016
602.2596	0.0044
602.4502	0.0042
602.6407	0.006
602.8312	0.004
603.0217	0.0018
603.2122	0.006
603.4027	0.0101
603.5931	0.0003
603.7835	0.0065
603.9739	-0.0083
604.1643	0.0009
604.3547	0.0054
604.5451	0.0046
604.7354	-0.0008
604.9257	0.0038
605.116	-0.0032
605.3063	0.0076
605.4966	-0.0006
605.6869	0.0094
605.8771	-0.0048
606.0673	0.0026
606.2575	0.007
606.4477	0.0067
606.6379	0.0013
606.8281	0.0012
607.0182	-0.0027
607.2083	0.0006
607.3985	-0.0007
607.5885	0.0056
607.7786	0.0047
607.9687	0.0035
608.1587	0.0006
608.3488	0.0006
608.5388	-0.0044
608.7288	-0.0034
608.9187	0.0004
609.1087	0.0082
609.2986	0.0008
609.4886	-0.0004
609.6785	0.003
609.8684	0.0036
610.0582	-0.0027
610.2481	-0.0066
610.4379	0.0053
610.6278	-0.0023
610.8176	0.0094
611.0074	0.0059
611.1971	0.003
611.3869	0.0072
611.5766	-0.0072
611.7664	0.0086
611.9561	0.006
612.1458	0.0072
612.3354	0.0082
612.5251	-0.0021
612.7147	0.0026
612.9044	-0.005
613.094	0.0034
613.2836	0.01
613.4731	0.002
613.6627	0.0071
613.8522	0.0051
614.0417	0.0084
614.2313	0.0085
614.4207	0.0046
614.6102	0.0058
614.7997	0.0058
614.9891	0.0059
615.1785	-0.0027
615.3679	0.0038
615.5573	-0.0045
615.7467	-0.0027
615.9361	0.0056
616.1254	0.0083
616.3147	0.0035
616.504	0.0027
616.6933	0.0067
616.8826	0.0043
617.0718	0.0064
617.2611	0.0037
617.4503	0.0006
617.6395	0.0016
617.8287	0.0017
618.0179	0.0054
618.207	0.0058
618.3961	0.0045
618.5853	-0.0014
618.7744	0.0084
618.9634	0.0085
619.1525	0.0063
619.3416	-0.0029
619.5306	0.0101
619.7196	0.0094
619.9086	0.0101
620.0976	0.0019
620.2866	0.01
620.4755	-0.0078
620.6645	0.0126
620.8534	0.0076
621.0423	0.0007
621.2312	0.0023
621.42	0.0005
621.6089	-0.0017
621.7977	0.0095
621.9865	0.0009
622.1753	-0.0052
622.3641	-0.0028
622.5529	0.001
622.7416	0.0047
622.9303	-0.0079
623.1191	-0.0037
623.3078	0.0073
623.4964	0.0047
623.6851	-0.0032
623.8737	0.0004
624.0624	-0.0122
624.251	0.0069
624.4396	0.0052
624.6282	0.0077
624.8167	-0.001
625.0053	0.0172
625.1938	-0.001
625.3823	0.0096
625.5708	-0.0049
625.7593	0.0038
625.9477	0.0107
626.1362	0.0015
626.3246	0.0084
626.513	0.007
626.7014	0.0057
626.8898	0.0117
627.0781	0.0031
627.2665	0.0016
627.4548	-0.0038
627.6431	0.0114
627.8314	0.0135
628.0197	0.0118
628.2079	0.0032
628.3962	0.0054
628.5844	0.006
628.7726	-0.0064
628.9608	0.011
629.1489	0.0062
629.3371	-0.0052
629.5252	0.0184
629.7134	0.0011
629.9015	0.0094
630.0895	-0.0015
630.2776	0.0069
630.4657	0.02
630.6537	0.0176
630.8417	-0.0057
631.0297	-0.0004
631.2177	-0.0076
631.4057	0.001
631.5936	-0.0005
631.7815	0.0018
631.9695	0.0148
632.1574	0.0058
632.3452	0.0051
632.5331	0.0115
632.7209	0.0028
632.9088	-0.008
633.0966	0.0285
633.2844	0.0023
633.4722	0.0254
633.6599	0.0231
633.8477	0.0192
634.0354	0.0122
634.2231	-0.0192
634.4108	0.002
634.5985	0.0173
634.7861	0.0025
634.9738	-0.0022
635.1614	0.0058
635.349	0.0093
635.5366	0.0007
635.7242	0.005
635.9117	0.0083
636.0993	0.0123
636.2868	-0.0036
636.4743	0.0023
636.6618	0.0021
636.8492	0.0028
637.0367	0.0013
637.2241	0.0093
637.4115	0.0184
637.5989	0.0163
637.7863	0.0219
637.9737	0.0093
638.161	-0.0023
638.3484	0.0006
638.5357	0.0089
638.723	-0.0041
638.9103	-0.0141
639.0975	-0.004
639.2848	0.0187
639.472	0.0167
639.6592	-0.0071
639.8464	0.0007
640.0336	0.033
640.2208	0.013
640.4079	-0.0088
640.595	-0.0068
640.7821	0.0214
640.9692	-0.0052
641.1563	0.0003
641.3434	0.0125
641.5304	0.0175
641.7174	0.026
641.9044	-0.008
642.0914	0.0222
642.2784	0.0139
642.4653	0.0176
642.6523	0.017
642.8392	0.0062
643.0261	0.0212
643.213	0.0084
643.3999	0.022
643.5867	0.0067
643.7735	-0.0013
643.9604	0.0079
644.1472	0.0209
644.3339	0.0038
644.5207	-0.0096
644.7075	0.0001
644.8942	0.0125
645.0809	-0.0015
645.2676	-0.0037
645.4543	0.0092
645.6409	0.0308
645.8276	-0.004
646.0142	0.008
646.2008	-0.0026
646.3874	-0.0089
646.574	-0.0044
646.7605	-0.0049
646.9471	0.01
647.1336	-0.0111
647.3201	0.0187
647.5066	0.0204
647.6931	-0.0094
647.8795	0.0099
648.0659	-0.0062
648.2524	0.0127
648.4388	-0.0004
648.6252	0.0098
648.8115	0.0068
648.9979	0.0074
649.1842	-0.0023
649.3705	0.0225
649.5568	-0.0043
649.7431	-0.0069
649.9294	0.0112
650.1156	-0.014
650.3018	0.0271
650.488	0.0004
650.6742	0.0166
650.8604	0.0139
651.0466	0.0093
651.2327	0.0123
651.4188	0.0108
651.6049	0.0231
651.791	0.0156
651.9771	0.0053
652.1632	0.0005
652.3492	0.0052
652.5352	0.009
652.7212	0.0086
652.9072	0.0048
653.0932	0.0175
653.2791	0.0087
653.465	0.0077
653.651	-0.0003
653.8369	0.011
654.0227	-0.0033
654.2086	0.0054
654.3944	0.0033
654.5803	0.0014
654.7661	0.0017
654.9519	-0.0011
655.1377	0.0002
655.3234	0.0002
655.5092	0.0002
655.6949	0.0002
655.8806	0.0002
656.0663	0.0002
656.2519	0.0002
656.4376	0.0002
656.6232	0.0002
656.8088	0.0002
656.9945	0.0002
657.18	0.0002
657.3656	0.0002
657.5511	0.0002
657.7367	0.0002
657.9222	0.0002
658.1077	0.0002
658.2932	0.0002
658.4786	0.0002
658.6641	0.0002
658.8495	0.0002
659.0349	0.0002
659.2203	0.0002
659.4057	0.0002
659.591	0.0905
659.7764	0.0257
659.9617	-0.0071
660.147	0.0014
660.3323	0.0001
660.5176	0.0147
660.7028	-0.0066
660.888	0.0079
661.0733	0.0145
661.2585	-0.005
661.4436	0.0137
661.6288	0.0179
661.8139	-0.0066
661.9991	-0.006
662.1842	0.0055
662.3693	0.0134
662.5544	0.0163
662.7394	0.0214
662.9245	-0.0018
663.1095	-0.027
663.2945	-0.0099
663.4795	0.0059
663.6644	0.0028
663.8494	0.0125
664.0343	0.016
664.2193	-0.0248
664.4042	0.0135
664.589	0.0156
664.7739	0.0141
664.9587	0.0084
665.1436	-0.0266
665.3284	0.0129
665.5132	-0.0184
665.698	-0.0085
665.8827	0.0124
666.0675	-0.0207
666.2522	0.016
666.4369	0.0028
666.6216	0.0239
666.8063	0.0022
666.9909	0.0002
667.1756	0.0072
667.3602	-0.0197
667.5448	0.0151
667.7294	0.006
667.9139	-0.0234
668.0985	0.0101
668.283	-0.0001
668.4675	0.0349
668.652	0.0414
668.8365	-0.0209
669.0209	0.0264
669.2054	0.0177
669.3898	0.0069
669.5742	0.0296
669.7586	0.0111
669.943	-0.0029
670.1273	-0.007
670.3117	0.0122
670.496	0.0267
670.6803	0.0094
670.8646	0.0122
671.0488	0.0231
671.2331	0.0027
671.4173	0.0045
671.6015	-0.0013
671.7857	0.0112
671.9699	0.0148
672.1541	-0.0058
672.3382	0.0075
672.5223	0.0086
672.7064	0.0023
672.8905	-0.025
673.0746	-0.0111
673.2587	0.0297
673.4427	0.0218
673.6267	0.0094
673.8107	0.0197
673.9947	0.0177
674.1787	-0.0028
674.3626	-0.014
674.5465	0.0307
674.7304	0.0077
674.9143	0.0189
675.0982	0.0089
675.2821	-0.0123
675.4659	-0.0056
675.6497	0.0205
675.8335	0.0096
676.0173	-0.017
676.2011	0.0184
676.3849	-0.0187
676.5686	0.0201
676.7523	-0.021
676.936	-0.0149
677.1197	-0.0009
677.3034	0.0396
677.487	0.0122
677.6706	0.0006
677.8542	-0.0116
678.0378	-0.012
678.2214	0.0083
678.405	-0.0117
678.5885	0.0042
678.772	0.0115
678.9555	-0.0057
679.139	0.0139
679.3225	-0.0048
679.5059	-0.0035
679.6894	0.0084
679.8728	-0.0003
680.0562	0.0138
680.2395	-0.0108
680.4229	0.0135
680.6062	-0.0082
680.7896	-0.0121
680.9729	0.0065
681.1562	-0.0191
681.3394	0.0109
681.5227	0.0006
681.7059	0.0104
681.8891	0.0055
682.0723	-0.0109
682.2555	-0.0042
682.4387	0.0261
682.6218	0.0114
682.805	0.0094
682.9881	0.0168
683.1712	0.0014
683.3542	0.0082
683.5373	-0.0068
683.7203	-0.0021
683.9034	-0.011
684.0864	0.0066
684.2694	-0.0171
684.4523	0.0078
684.6353	0.0038
684.8182	0.001
685.0011	0.0063
685.184	-0.0025
685.3669	0.0244
685.5498	-0.0228
685.7326	-0.006
685.9154	-0.0038
686.0982	0.0136
686.281	-0.011
686.4638	0.0058
686.6465	0.0084
686.8293	-0.0149
687.012	0.0146
687.1947	0.0008
687.3774	0.0084
687.56	-0.0071
687.7427	-0.0097
687.9253	-0.0019
688.1079	-0.0091
688.2905	-0.004
688.4731	0.0273
688.6556	0.0041
688.8382	-0.0213
689.0207	0.0121
689.2032	0.0063
689.3857	-0.0095
689.5681	0.0102
689.7506	0.0255
689.933	0.007
690.1154	0.0022
690.2978	0.0041
690.4802	0.0272
690.6626	0.0083
690.8449	0.0211
691.0272	-0.0081
691.2095	-0.0124
691.3918	0.0116
691.5741	0.0182
691.7563	0.0029
691.9386	0.013
692.1208	0.0098
692.303	-0.0051
692.4852	0.0321
692.6673	0.0122
692.8495	-0.0066
693.0316	-0.0051
693.2137	0.0035
693.3958	0.0004
693.5778	0.0139
693.7599	0.0022
693.9419	-0.0155
694.1239	0.0177
694.3059	0.0175
694.4879	0.0094
694.6699	-0.0071
694.8518	0.0102
695.0337	0.0048
695.2157	0.0039
695.3975	0.0089
695.5794	-0.0115
695.7613	-0.0072
695.9431	-0.0156
696.1249	0.0055
696.3067	-0.0081
696.4885	0.0061
696.6703	0.0159
696.852	-0.0097
697.0337	0.0156
697.2154	0.0202
697.3971	0.0111
697.5788	0.0238
697.7605	0.0013
697.9421	0.0254
698.1237	0.0094
698.3053	-0.0056
698.4869	0.0039
698.6685	-0.0107
698.85	0.0255
699.0315	-0.0094
699.213	0.0332
699.3945	-0.0055
699.576	0.0133
699.7575	0.005
699.9389	0.0069
700.1203	0.0124
700.3017	0.0203
700.4831	0.019
700.6645	0.0269
700.8458	-0.0002
701.0271	0.0424
701.2084	-0.0314
701.3897	-0.0134
701.571	-0.0024
701.7523	0.0407
701.9335	0.0214
702.1147	0.013
702.2959	-0.0077
702.4771	0.0053
702.6583	-0.0001
702.8394	-0.0058
703.0205	0.0288
703.2016	-0.0069
703.3827	-0.0153
703.5638	0.0079
703.7449	0.0252
703.9259	0.0101
704.1069	0.0157
704.2879	0.0026
704.4689	0.0025
704.6499	-0.007
704.8308	0.034
705.0117	-0.0133
705.1927	0.0298
705.3735	0.0164
705.5544	0.0061
705.7353	-0.006
705.9161	-0.0325
706.0969	0.0223
706.2777	0.016
706.4585	0.0105
706.6393	0.0038
706.82	0.0096
707.0007	0.0041
707.1815	0.0198
707.3621	0.02
707.5428	0.0022
707.7235	0.0009
707.9041	0.014
708.0847	0.0002
708.2653	0.0248
708.4459	-0.0013
708.6265	0.007
708.807	0.0054
708.9875	0.017
709.168	0.0164
709.3485	0.0169
709.529	0.015
709.7095	-0.0193
709.8899	0.0275
710.0703	0.0374
710.2507	-0.0038
710.4311	-0.0182
710.6115	0.0214
710.7918	0.0186
710.9721	-0.0019
711.1524	-0.01
711.3327	0.0034
711.513	-0.0069
711.6932	-0.0131
711.8735	0.014
712.0537	0.0052
712.2339	-0.0018
712.4141	0.0244
712.5942	0.0124
712.7744	0.0257
712.9545	0.0248
713.1346	0.0273
713.3147	0.0221
713.4947	-0.0083
713.6748	0.0218
713.8548	0.0093
714.0348	-0.0022
714.2148	0.0138
714.3948	0.0068
714.5748	0.0134
714.7547	0.012
714.9346	0.0153
715.1145	-0.0025
715.2944	-0.002
715.4743	0.0328
715.6541	-0.0137
715.834	0.0407
716.0138	0.0324
716.1936	-0.0154
716.3733	0.0125
716.5531	0.0025
716.7328	0.0421
716.9126	-0.0032
717.0923	-0.0238
717.2719	0.0274
717.4516	0.0259
717.6312	0.007
717.8109	0.0294
717.9905	0.0013
718.1701	0.0133
718.3496	-0.0227
718.5292	-0.015
718.7087	0.0017
718.8882	0.0252
719.0677	-0.0163
719.2472	-0.0077
719.4267	0.0254
719.6061	0.0054
719.7856	0.0297
719.965	0.0118
720.1443	0.0057
720.3237	-0.0006
720.5031	-0.0081
720.6824	0.0244
720.8617	0.0353
721.041	0.0312
721.2203	-0.0086
721.3995	-0.0032
721.5788	-0.006
721.758	0.0053
721.9372	0.0071
722.1164	-0.0053
722.2956	0.0082
722.4747	0.006
722.6538	-0.017
722.8329	0.0365
723.012	0.0054
723.1911	-0.001
723.3702	0.0303
723.5492	0.0033
723.7282	0.0129
723.9072	0.0176
724.0862	0.0016
724.2652	0.0421
724.4441	0.0068
724.623	0.0089
724.8019	-0.0037
724.9808	-0.0039
725.1597	0.0123
725.3385	0.0231
725.5174	0.0289
725.6962	0.0151
725.875	0.016
726.0538	0.0208
726.2325	0.0092
726.4112	-0.0156
726.59	-0.0172
726.7687	0.0044
726.9474	0.0427
727.126	0.0212
727.3047	-0.0072
727.4833	0.029
727.6619	-0.0149
727.8405	0.0092
728.0191	0.0089
728.1976	0.0179
728.3762	-0.003
728.5547	0.005
728.7332	-0.0008
728.9116	0.025
729.0901	-0.0168
729.2686	0.0084
729.447	-0.0169
729.6254	-0.002
729.8038	-0.014
729.9821	0.0126
730.1605	0.0004
730.3388	-0.0084
730.5171	0.0134
730.6954	0.0061
730.8737	0.0088
731.0519	0.0186
731.2302	0.0127
731.4084	0.0066
731.5866	0.0066
731.7648	-0.0093
731.9429	0.0185
732.1211	-0.0007
732.2992	0.0089
732.4773	0.0096
732.6554	-0.0173
732.8335	0.0265
733.0115	-0.0027
733.1896	-0.0052
733.3676	0.0113
733.5456	0.0049
733.7235	0.0017
733.9015	0.0034
734.0794	-0.0006
734.2574	-0.0151
734.4353	0.0234
734.6131	-0.0076
734.791	0.0081
734.9689	-0.0212
735.1467	-0.0206
735.3245	0.0105
735.5023	0.0173
735.68	-0.0082
735.8578	0.0099
736.0355	0.017
736.2132	0.002
736.3909	0.0197
736.5686	-0.0114
736.7463	-0.0201
736.9239	0.0128
737.1015	0.0067
737.2791	0.0075
737.4567	0.0168
737.6343	-0.018
737.8118	0.0048
737.9894	0.0076
738.1669	-0.0005
738.3444	0.0156
738.5218	-0.0039
738.6993	-0.0064
738.8767	0.0014
739.0541	-0.0165
739.2315	-0.0048
739.4089	0.0455
739.5863	0.0024
739.7636	-0.0056
739.9409	0.0101
740.1182	0.0139
740.2955	0.0304
740.4728	-0.0184
740.65	-0.0016
740.8272	0.0023
741.0044	0.022
741.1816	0.0108
741.3588	0.0163
741.5359	0.0038
741.7131	-0.0225
741.8902	-0.0076
742.0673	-0.001
742.2444	0.0412
742.4214	0.0211
742.5985	-0.0064
742.7755	-0.001
742.9525	-0.0317
743.1295	0.0069
743.3064	-0.0026
743.4834	0.0206
743.6603	0.0201
743.8372	-0.013
744.0141	0.0443
744.191	-0.003
744.3678	-0.0113
744.5446	-0.0042
744.7215	0.002
744.8982	-0.0066
745.075	0.049
745.2518	0.0021
745.4285	0.0501
745.6052	-0.0065
745.7819	0.0159
745.9586	0.0016
746.1353	-0.0022
746.3119	0.0264
746.4885	0.0254
746.6651	0.0112
746.8417	0.0227
747.0183	0.0556
747.1948	-0.0049
747.3714	0.005
747.5479	0.0183
747.7244	0.0112
747.9008	-0.0139
748.0773	0.0636
748.2537	0.0259
748.4301	0.0101
748.6065	0.0122
748.7829	-0.0319
748.9593	0.0103
749.1356	-0.0042
749.3119	0.0151
749.4882	0.0287
749.6645	-0.001
749.8408	0.037
750.017	-0.0004
750.1933	-0.0229
750.3695	0.0008
750.5457	-0.0095
750.7218	-0.0065
750.898	0.0059
751.0741	-0.0087
751.2502	0.013
751.4263	-0.0073
751.6024	0.0241
751.7784	0.0214
751.9545	0.0006
752.1305	0.0044
752.3065	0.0069
752.4825	0.0249
752.6584	-0.0037
752.8344	0.0021
753.0103	-0.0019
753.1862	0.0134
753.3621	0.0125
753.5379	-0.0207
753.7138	0.0221
753.8896	0.0141
754.0654	0.0013
754.2412	0.0381
754.417	0.0049
754.5927	0.0154
754.7685	0.013
754.9442	0.015
755.1199	0.014
755.2956	0.014
755.4712	0.0059
755.6469	0.0068
755.8225	0.0007
755.9981	0.011
756.1736	0.0169
756.3492	0.0036
756.5248	0.0056
756.7003	-0.0023
756.8758	0.0098
757.0513	0.0025
757.2267	0.0003
757.4022	-0.0017
757.5776	0.008
757.753	0.0273
757.9284	0.0134
758.1038	0.0251
758.2791	-0.0015
758.4545	0.0136
758.6298	0.0077
758.8051	-0.0016
758.9803	0.0127
759.1556	0.0031
759.3308	-0.0017
759.506	-0.0152
759.6812	0.0064
759.8564	0.0107
760.0316	-0.007
760.2067	0.0136
760.3819	0.0019
760.557	-0.0034
760.732	0.0065
760.9071	0.023
761.0821	-0.0172
761.2572	0.0145
761.4322	0.0302
761.6072	0.0081
761.7821	-0.007
761.9571	0.0241
762.132	0.0261
762.3069	0.0278
762.4818	0.0318
762.6567	-0.0184
762.8316	0.0089
763.0064	0.0172
763.1812	0.0138
763.356	-0.0075
763.5308	0.024
763.7055	-0.0051
763.8803	-0.0018
764.055	-0.0026
764.2297	0.0049
764.4044	0.0043
764.579	0.0094
764.7537	0.0084
764.9283	-0.001
765.1029	0.0063
765.2775	0.032
765.4521	0.009
765.6266	0.0077
765.8011	0.0112
765.9756	0.0017
766.1501	0.0088
766.3246	0.0235
766.4991	0.0358
766.6735	0.0342
766.8479	-0.0087
767.0223	0.0279
767.1967	0.0212
767.371	0.028
767.5454	0.0078
767.7197	0.0171
767.894	0.0055
768.0683	0.0156
768.2425	0.0141
768.4168	0.0002
768.591	0.0066
768.7652	-0.0039
768.9394	-0.0131
769.1135	-0.0315
769.2877	0.0301
769.4618	0.0047
769.6359	0.0168
769.81	0.0187
769.984	-0.0142
770.1581	-0.0061
770.3321	0.0149
770.5061	0.0038
770.6801	0.0002
770.8541	0.011
771.028	0.0235
771.202	0.0315
771.3759	0.0088
771.5498	0.0248
771.7236	0.0102
771.8975	0.028
772.0713	0.0385
772.2451	-0.0179
772.4189	0.0146
772.5927	-0.0376
772.7665	-0.0017
772.9402	0.0245
773.1139	0.0031
773.2876	0.012
773.4613	0.0442
773.635	0.0331
773.8086	0.0301
773.9822	0.0107
774.1558	0.042
774.3294	0.0478
774.503	0.0046
774.6765	0.0388
774.8501	0.0052
775.0236	0.0378
775.1971	0.002
775.3705	0.0083
775.544	-0.0042
775.7174	0.0452
775.8908	-0.0099
776.0642	0.0046
776.2376	0.0201
776.4109	0.0162
776.5843	-0.0142
776.7576	0.0555
776.9309	0.049
777.1041	-0.0303
777.2774	-0.0158
777.4506	0.065
777.6238	0.0438
777.797	0.0433
777.9702	0.026
778.1434	0.0041
778.3165	-0.0058
778.4896	-0.0345
778.6627	0.0319
778.8358	-0.0178
779.0089	-0.0575
779.1819	0.0303
779.3549	0.0223
779.5279	-0.0016
779.7009	0.0943
779.8739	0.0951
780.0468	0.0018
780.2197	-0.0003
780.3926	0.0351
780.5655	0.0257
780.7384	-0.0028
780.9112	0.0385
781.0841	0.034
781.2569	0.0066
781.4297	0.0058
781.6024	0.0137
781.7752	0.028
781.9479	0.0573
782.1206	-0.0117
782.2933	0.0136
782.466	0.0116
782.6386	-0.0115
782.8113	0.0121
782.9839	-0.0002
783.1565	0.0407
783.329	-0.0128
783.5016	0.0286
783.6741	-0.0286
783.8466	0.0577
784.0191	0.0221
784.1916	-0.005
784.3641	-0.0092
784.5365	0.0035
784.7089	-0.0439
784.8813	0.0738
785.0537	0.0179
785.2261	-0.0276
785.3984	0.0004
785.5707	-0.0069
785.743	0.0444
785.9153	0.0163
786.0876	-0.0064
786.2598	-0.0128
786.432	-0.0206
786.6042	0.0748
786.7764	0.0029
786.9486	-0.0078
787.1207	0.0542
787.2928	0.037
787.4649	0.0056
787.637	-0.017
787.8091	-0.0291
787.9811	0.0637
788.1532	0.033
788.3252	0.0121
788.4972	-0.0051
788.6691	0.0009
788.8411	-0.0162
789.013	-0.0083
789.1849	-0.0142
789.3568	-0.0196
789.5287	0.0666
789.7005	-0.0375
789.8723	0.012
790.0442	0.021
790.2159	0.0037
790.3877	0.03
790.5595	0.0752
790.7312	0.0066
790.9029	-0.0543
791.0746	-0.0039
791.2463	-0.0074
791.4179	0.0347
791.5896	0.0136
791.7612	0.0426
791.9328	-0.042
792.1044	-0.0248
792.2759	0.0289
792.4474	0.0333
792.619	-0.0226
792.7905	0.035
792.9619	0.0476
793.1334	0.041
793.3048	0.0089
793.4762	-0.0062
793.6476	-0.0424
793.819	-0.0075
793.9904	0.0318
794.1617	-0.0428
794.333	0.0127
794.5043	0.0179
794.6756	0.0241
794.8469	0.0487
795.0181	0.0016
795.1893	0.0188
795.3605	0.0229
795.5317	0.02
795.7029	-0.0193
795.874	0.0366
796.0452	0.0771
796.2163	0.0392
796.3873	0.037
796.5584	0.0449
796.7294	0.0024
796.9005	0.0656
797.0715	-0.0383
797.2425	0.0942
797.4134	0.0991
797.5844	0.041
797.7553	-0.1054
797.9262	0.1109
798.0971	0.0375
798.2679	0.0348
798.4388	0.0483
798.6096	0.0453
798.7804	0.0853
798.9512	0.0397
799.122	0.0191
799.2927	0.0722
799.4635	-0.0334
799.6342	0.0071
799.8049	0.0396
799.9755	-0.0525
800.1462	0.0276
800.3168	0.0393
800.4874	-0.1022
800.658	0.1753
800.8286	0.1238
800.9991	-0.0206
801.1696	0.0142
801.3402	-0.086
801.5106	-0.039
801.6811	0.056
801.8516	0.1621
802.022	0.0068
802.1924	0.0405
802.3628	0.0213
802.5332	0.0369
802.7035	0.0057
802.8739	0.0377
803.0442	-0.0008
803.2145	0.0297
803.3847	0.0119
803.555	0.0621
803.7252	0.0267
803.8954	-0.0986
804.0656	-0.0096
804.2358	-0.0272
804.4059	0.0998
804.5761	0.0408
804.7462	0.0027
804.9163	0.0745
805.0864	-0.0453
805.2564	0.0185
805.4264	-0.0104
805.5965	0.0469
805.7665	0.0101
805.9364	-0.0114
806.1064	0.0066
806.2763	0.0474
806.4462	0.0214
806.6161	0.0477
806.786	0.0285
806.9559	0.0195
807.1257	0.0257
807.2955	-0.0016
807.4653	0.0177
807.6351	0.0131
807.8048	-0.0333
807.9746	-0.0079
808.1443	-0.028
808.314	0.0915
808.4837	0.0264
808.6533	-0.0366
808.8229	0.0163
808.9926	0.0189
809.1622	0.0706
809.3317	0.0295
809.5013	0.0085
809.6708	0.0356
809.8403	0.1089
810.0098	0.0229
810.1793	0.0339
810.3488	0.0394
810.5182	0.1286
810.6876	0.0547
810.857	0.0383
811.0264	-0.0085
811.1958	0.1293
811.3651	0.0703
811.5344	0.0074
811.7037	-0.0169
811.873	0.1401
812.0422	-0.061
812.2115	0.1373
812.3807	-0.1598
812.5499	0.0629
812.7191	0.0282
812.8882	-0.043
813.0574	-0.0479
813.2265	0.0924
813.3956	-0.0231
813.5646	0.1331
813.7337	0.0606
813.9027	-0.011
814.0718	0.0255
814.2407	0.0207
814.4097	0.0794
814.5787	0.0509
814.7476	0.0187
814.9165	0.0541
815.0854	0.0367
815.2543	-0.0259
815.4232	0.1163
815.592	0.0467
815.7608	-0.0327
815.9296	0.0916
816.0984	0.0313
816.2671	-0.2207
816.4359	0.0822
816.6046	0.1541
816.7733	-0.1044
816.942	0.0438
817.1106	0.0448
817.2793	-0.0069
817.4479	0.0256
817.6165	0.003
817.785	0.1085
817.9536	-0.0898
818.1221	0.0563
818.2906	-0.0305
818.4591	0.066
818.6276	0.0535
818.7961	-0.066
818.9645	0.1016
819.1329	0.2371
819.3013	0.0148
819.4697	-0.0183
819.638	0.0164
819.8064	0.0656
819.9747	0.1682
820.143	-0.1064
820.3113	0.0964
820.4795	0.0727
820.6477	0.1786
820.816	0.2239
820.9842	0.1663
821.1523	-0.0033
821.3205	0.0177
821.4886	-0.007
821.6567	-0.0198
821.8248	0.167
821.9929	-0.0879
822.1609	0.0444
822.329	0.0325
822.497	0.0064
822.665	-0.0669
822.833	0.0255
823.0009	0.0963
823.1688	0.0025
823.3367	-0.1729
823.5046	0.1616
823.6725	-0.0328
823.8404	0.131
824.0082	0.0626
824.176	-0.0021
824.3438	0.345
824.5116	-0.0013
824.6793	0.0727
824.847	0.4924
825.0147	0.1605
825.1824	0.0302
825.3501	0.0029
825.5177	0.0163
825.6854	-0.1897
825.853	-0.0806
826.0206	-0.071
826.1881	0.1092
826.3557	0.1746
826.5232	0.2583
826.6907	0.0435
826.8582	-0.1038
827.0257	0.1055
827.1931	-0.0039
827.3605	0.0425
827.528	-0.1113
827.6953	0.0133
827.8627	0.1208
828.03	0.1189
828.1974	0.1348
828.3647	0.0413
828.532	0.0869
828.6992	-0.0567
828.8665	-0.244
829.0337	0.1284
829.2009	-0.1295
829.3681	-0.026
829.5352	-0.2513
829.7024	0.0439
829.8695	0.0463
830.0366	0.169
830.2037	0.0654
830.3707	0.0407
830.5378	0.0088
830.7048	-0.1116
830.8718	0.2865
831.0388	0.1054
831.2057	0.7461
831.3727	-0.1917
831.5396	0.1262
831.7065	-0.8683
831.8734	0.6964
832.0402	0.1779
832.2071	-0.2979
832.3739	0.4958
832.5407	-0
832.7075	-0.2011
832.8742	0.3568
833.041	0.2572
833.2077	0.287
833.3744	0.0592
833.541	0.0904
833.7077	-0.1213
833.8743	0.3432
834.0409	-0.0048
834.2075	0.103
834.3741	-0.3109
834.5407	-0.0275
834.7072	0.2649
834.8737	0.0538
835.0402	0.3955
835.2067	-0.1126
835.3731	0.0737
835.5395	0.1066
835.706	0.2675
835.8723	0.1109
836.0387	0.1101
836.2051	0.1976
836.3714	0.5481
836.5377	0.3568
836.704	0.1675
836.8703	-0.1373
837.0365	-0.6642
837.2027	-0.0623
837.3689	0.3526
837.5351	0.2913
837.7013	-0.0682
837.8674	-0
838.0335	-0.1153
838.1997	-0.1654
838.3657	-0
838.5318	-0
838.6978	-0
838.8639	-0.236
839.0299	0.312
839.1958	0.1066
839.3618	0.3089
839.5277	0.146
839.6937	-0.2732
839.8596	-0.3312
840.0254	0.0997
840.1913	-0.3083
840.3571	0.0265
840.523	-1.8987
840.6888	0.1244
840.8545	-0.2511
841.0203	0.2395
841.186	-0
841.3517	-0.1643
841.5174	0.519
841.6831	0.782
841.8488	-0.0656
842.0144	-0.0912
842.18	0.134
842.3456	-0.4684
842.5112	-0
842.6767	0.1591
842.8422	0.3383
843.0077	-0
843.1732	-0.3299
843.3387	13.8655
843.5042	-0
843.6696	0.31
843.835	-0.1424
844.0004	-0.2281
844.1657	-0.4025
844.3311	0.3476
844.4964	-0.8067
844.6617	0.0591
844.827	0.1566
844.9923	0.6098
845.1575	0.491
845.3227	-0.143
845.4879	-0.2906
845.6531	0.2625
845.8183	0.044
845.9834	-0
846.1485	0.8807
846.3136	0.16
846.4787	-0.3404
846.6438	0.0658
846.8088	-0
846.9738	-0
847.1388	0.3599
847.3038	1.0113
847.4687	-0
847.6337	-0.6829
847.7986	0.0084
847.9635	-0.2781
848.1284	-0
848.2932	0.3647
848.458	-0
848.6228	0.3328
848.7876	-0
848.9524	0.133
849.1172	-0
849.2819	-0
849.4466	0.1305
849.6113	0.6151
849.7759	-0
849.9406	0.0265
850.1052	-0
850.2698	-0
850.4344	-0.7636
850.599	0.3855
850.7635	1.005
850.928	0.6333
851.0925	0.4007
851.257	0.6099
851.4215	-0
851.5859	0.0256
851.7503	-0
851.9147	0.0177
852.0791	-0.1022
852.2434	0.1606
852.4078	-0
852.5721	-0
852.7364	0.0749
852.9007	-0.1242
853.0649	-0
853.2291	0.3065
853.3934	0.2124
853.5575	-0
853.7217	0.3984
853.8859	-0.1215
854.05	-0.1166
854.2141	0.93
854.3782	-0.0692
854.5423	-0.26
854.7063	0.2058
854.8703	0.0527
855.0343	-0.0442
855.1983	0.1268
855.3623	0.181
855.5262	-0.2618
855.6901	0.9006
855.854	0.0606
856.0179	-0.0645
856.1818	-0
856.3456	0.163
856.5094	-0
856.6732	-0.0185
856.837	-0
857.0008	-0.3451
857.1645	-0
857.3282	-0.4159
857.4919	0.2536
857.6556	-0
857.8192	-0.0837
857.9828	-0.2461
858.1465	-0.0179
858.31	0.6861
858.4736	-0.9218
858.6372	-0.5634
858.8007	0.2378
858.9642	0.4471
859.1277	1.1534
859.2911	-0.4508
859.4546	-0
859.618	0.0663
859.7814	-0.1889
859.9448	-0
860.1081	0.0485
860.2715	-1.632
860.4348	1.049
860.5981	1.7751
860.7614	-0.3986
860.9246	0.2251
861.0879	0.2062
861.2511	-0.6973
861.4143	-0
861.5774	0.2145
861.7406	0.431
861.9037	-0
862.0668	-0
862.2299	0.5019
862.393	-0.1649
862.556	-0
862.7191	0.8916
862.8821	0.3324
863.0451	-0.2103
863.208	-0.4565
863.371	-0.3216
863.5339	0.3665
863.6968	0.2659
863.8597	-0
864.0225	-0
864.1854	0.0105
864.3482	0.1112
864.511	-0
864.6737	-0
864.8365	0.1768
864.9992	-0
865.1619	-0.3514
865.3246	-1.7226
865.4873	-0
865.65	0.2965
865.8126	0.814
865.9752	0.1865
866.1378	-0.1052
866.3004	-0.4072
866.4629	-0
866.6254	-0
866.7879	-0
866.9504	-0.2375
867.1129	-0.2511
867.2753	-0.0652
867.4377	-0.2515
867.6001	-0.9261
867.7625	-0.1268
867.9249	0.1777
868.0872	0.3422
868.2495	0.5183
868.4118	-0
868.5741	-0
868.7363	-0
868.8986	-0
869.0608	13.3771
869.223	-0.3294
869.3851	-0
869.5473	0.3616
869.7094	0.3966
869.8715	-0.4457
870.0336	0.0683
870.1957	-0.9435
870.3577	-0
870.5197	0.1714
870.6817	-0.9058
870.8437	-0.4419
871.0057	0.095
871.1676	-0
871.3295	-0.3294
871.4914	-0
871.6533	-0.6505
871.8151	0.3289
871.977	0.1927
872.1388	-0
872.3006	-0
872.4623	0.2164
872.6241	0.8985
872.7858	0.6404
872.9475	0.6904
873.1092	0.3636
873.2709	0.3902
873.4325	-1.5563
873.5941	-0.6812
873.7557	-0
873.9173	0.4297
874.0789	0.0354
874.2404	-0
874.4019	-0.0032
874.5634	-0
874.7249	-0
874.8863	0.542
875.0478	-0.1591
875.2092	0.6831
875.3706	0.4473
875.5319	-0
875.6933	-0
875.8546	-0.4272
876.0159	0.2212
876.1772	-0.1946
876.3385	0.1895
876.4997	-0
876.6609	-0
876.8221	-0
876.9833	-0.1935
877.1445	0.4874
877.3056	-0.5421
877.4667	-0.4664
877.6278	-0
877.7889	0.3085
877.9499	0.098
878.111	-0.4043
878.272	-0.3514
878.433	0.0302
878.5939	0.0482
878.7549	-0
878.9158	-0.1606
879.0767	-0.2215
879.2376	-0
879.3984	0.4456
879.5593	0.1928
879.7201	-0.2341
879.8809	-0
880.0417	-0.4708
880.2024	0.8993
880.3632	-0.3833
880.5239	0.1015
880.6846	-0.4281
880.8452	-0.2084
881.0059	-0
881.1665	0.1587
881.3271	0.9288
881.4877	0.3151
881.6483	-1.3401
881.8088	-0
881.9693	-1.1498
882.1298	-1.1498
882.2903	-1.1498
