Data from D4ACN5uM460nmA_Absorbance_13-05-42-410.txt Node
Date: Fri Feb 21 13:05:42 GMT 2025
User: LASERRRRR
Spectrometer: FLMT03099
Trigger mode: 0
Integration Time (sec): 1.500000E-2
Scans to average: 1
Electric dark correction enabled: true
Nonlinearity correction enabled: false
Boxcar width: 0
XAxis mode: Wavelengths
Number of Pixels in Spectrum: 3648
>>>>>Begin Spectral Data<<<<<
179.3399	0.2187
179.5586	0.2187
179.7771	0.2187
179.9957	-0.1438
180.2143	-0
180.4329	-0.1996
180.6514	-0
180.8699	0.9416
181.0885	-0.248
181.307	-0.2426
181.5255	-0.0168
181.744	-0.3874
181.9625	1.0985
182.181	-0.1453
182.3994	-0.6528
182.6179	-0
182.8363	0.7798
183.0547	-0.2004
183.2732	-0
183.4916	0.1505
183.71	0.3883
183.9284	0.2216
184.1467	-0.141
184.3651	0.152
184.5835	0.1686
184.8018	0.0691
185.0201	0.1596
185.2385	0.2699
185.4568	0.236
185.6751	0.188
185.8934	0.1101
186.1117	-0.21
186.3299	0.0891
186.5482	0.174
186.7664	0.1426
186.9847	0.019
187.2029	0.1443
187.4211	0.0883
187.6393	0.2513
187.8575	0.1769
188.0757	0.3568
188.2939	0.0897
188.512	0.4595
188.7302	0.2537
188.9483	0.273
189.1665	0.4042
189.3846	0.2049
189.6027	0.2513
189.8208	0.2123
190.0389	0.1135
190.257	0.1086
190.475	0.0849
190.6931	0.1007
190.9111	0.0085
191.1292	0.1301
191.3472	0.1121
191.5652	0.0611
191.7832	0.1717
192.0012	0.1113
192.2192	0.2551
192.4371	0.0914
192.6551	0.1081
192.873	0.2095
193.091	0.2409
193.3089	0.1705
193.5268	0.1805
193.7447	0.1795
193.9626	0.1867
194.1805	0.2205
194.3984	0.192
194.6162	0.1887
194.8341	0.2573
195.0519	0.2185
195.2697	0.4087
195.4875	0.3004
195.7054	0.2585
195.9231	0.1731
196.1409	0.3103
196.3587	0.3014
196.5765	0.3027
196.7942	0.3131
197.012	0.3165
197.2297	0.2579
197.4474	0.4459
197.6651	0.2936
197.8828	0.3335
198.1005	0.4123
198.3182	0.4154
198.5358	0.4117
198.7535	0.3579
198.9711	0.3854
199.1888	0.3808
199.4064	0.3931
199.624	0.4139
199.8416	0.3553
200.0592	0.35
200.2767	0.3982
200.4943	0.4289
200.7119	0.4197
200.9294	0.4575
201.1469	0.4262
201.3645	0.5101
201.582	0.4302
201.7995	0.381
202.017	0.3812
202.2344	0.3983
202.4519	0.3703
202.6694	0.3852
202.8868	0.3733
203.1042	0.3915
203.3217	0.4553
203.5391	0.3935
203.7565	0.3684
203.9739	0.3836
204.1913	0.3624
204.4086	0.3617
204.626	0.3786
204.8433	0.3525
205.0607	0.3718
205.278	0.3306
205.4953	0.3228
205.7126	0.3595
205.9299	0.3443
206.1472	0.2963
206.3644	0.3176
206.5817	0.326
206.7989	0.3319
207.0162	0.3276
207.2334	0.3456
207.4506	0.2984
207.6678	0.321
207.885	0.2931
208.1022	0.311
208.3194	0.3183
208.5365	0.3139
208.7537	0.2917
208.9708	0.3178
209.1879	0.2889
209.405	0.3005
209.6222	0.2958
209.8392	0.2982
210.0563	0.2815
210.2734	0.3016
210.4905	0.2785
210.7075	0.2842
210.9245	0.2662
211.1416	0.2708
211.3586	0.2411
211.5756	0.2498
211.7926	0.2608
212.0096	0.2499
212.2265	0.2558
212.4435	0.2664
212.6604	0.2453
212.8774	0.2553
213.0943	0.2533
213.3112	0.2576
213.5281	0.2553
213.745	0.2584
213.9619	0.2413
214.1788	0.2543
214.3956	0.2689
214.6125	0.2399
214.8293	0.2593
215.0461	0.2527
215.2629	0.2537
215.4798	0.2618
215.6965	0.2503
215.9133	0.2421
216.1301	0.2426
216.3469	0.2544
216.5636	0.2456
216.7803	0.2445
216.9971	0.2463
217.2138	0.2515
217.4305	0.26
217.6472	0.2323
217.8639	0.2402
218.0805	0.2632
218.2972	0.2394
218.5138	0.2592
218.7305	0.253
218.9471	0.2351
219.1637	0.2687
219.3803	0.2627
219.5969	0.2641
219.8135	0.274
220.0301	0.267
220.2466	0.2638
220.4632	0.2752
220.6797	0.2617
220.8962	0.2626
221.1127	0.2616
221.3292	0.26
221.5457	0.285
221.7622	0.2664
221.9787	0.2892
222.1951	0.2795
222.4116	0.2847
222.628	0.2831
222.8444	0.2804
223.0608	0.2732
223.2772	0.288
223.4936	0.2759
223.71	0.2742
223.9264	0.2835
224.1427	0.2898
224.3591	0.2832
224.5754	0.2871
224.7917	0.2967
225.008	0.3029
225.2243	0.2991
225.4406	0.3015
225.6569	0.3083
225.8732	0.3102
226.0894	0.3163
226.3057	0.3052
226.5219	0.3098
226.7381	0.3177
226.9543	0.3205
227.1705	0.3231
227.3867	0.3238
227.6029	0.3216
227.8191	0.3401
228.0352	0.3506
228.2513	0.3537
228.4675	0.3427
228.6836	0.3396
228.8997	0.3549
229.1158	0.3618
229.3319	0.3608
229.548	0.3631
229.764	0.3583
229.9801	0.3677
230.1961	0.3676
230.4121	0.3656
230.6282	0.3778
230.8442	0.3774
231.0602	0.3879
231.2761	0.3831
231.4921	0.3929
231.7081	0.3905
231.924	0.405
232.14	0.4074
232.3559	0.4043
232.5718	0.4143
232.7877	0.4004
233.0036	0.4036
233.2195	0.4266
233.4353	0.4197
233.6512	0.4161
233.867	0.4148
234.0829	0.4218
234.2987	0.4197
234.5145	0.4274
234.7303	0.4351
234.9461	0.4277
235.1619	0.4399
235.3776	0.4439
235.5934	0.438
235.8091	0.4382
236.0249	0.4431
236.2406	0.4375
236.4563	0.4458
236.672	0.4425
236.8877	0.4606
237.1034	0.4475
237.319	0.4566
237.5347	0.4488
237.7503	0.4396
237.966	0.4575
238.1816	0.4509
238.3972	0.4648
238.6128	0.4704
238.8284	0.4718
239.0439	0.4633
239.2595	0.4618
239.475	0.4624
239.6906	0.4569
239.9061	0.459
240.1216	0.4653
240.3371	0.4609
240.5526	0.4614
240.7681	0.4626
240.9836	0.4515
241.199	0.4525
241.4145	0.4473
241.6299	0.4485
241.8453	0.4363
242.0607	0.4281
242.2761	0.4318
242.4915	0.4188
242.7069	0.4158
242.9223	0.4201
243.1376	0.406
243.353	0.3962
243.5683	0.3919
243.7836	0.3879
243.9989	0.37
244.2142	0.3661
244.4295	0.3635
244.6448	0.3603
244.86	0.3505
245.0753	0.3395
245.2905	0.3404
245.5057	0.329
245.721	0.3336
245.9362	0.3242
246.1514	0.3159
246.3665	0.3068
246.5817	0.2943
246.7969	0.2923
247.012	0.294
247.2271	0.297
247.4423	0.2808
247.6574	0.2877
247.8725	0.2688
248.0876	0.2655
248.3026	0.2634
248.5177	0.2558
248.7328	0.2466
248.9478	0.2453
249.1628	0.2458
249.3779	0.24
249.5929	0.2331
249.8079	0.2321
250.0228	0.2338
250.2378	0.2272
250.4528	0.2298
250.6677	0.2158
250.8827	0.2094
251.0976	0.2168
251.3125	0.2147
251.5274	0.2051
251.7423	0.2041
251.9572	0.2067
252.172	0.2069
252.3869	0.2086
252.6017	0.2002
252.8166	0.1935
253.0314	0.1949
253.2462	0.1976
253.461	0.1923
253.6758	0.1909
253.8906	0.1914
254.1053	0.1949
254.3201	0.1913
254.5348	0.1886
254.7496	0.1834
254.9643	0.1897
255.179	0.1867
255.3937	0.1876
255.6083	0.1868
255.823	0.1815
256.0377	0.1813
256.2523	0.1853
256.467	0.1835
256.6816	0.1839
256.8962	0.1869
257.1108	0.1816
257.3254	0.1842
257.54	0.176
257.7545	0.1838
257.9691	0.1827
258.1836	0.1712
258.3981	0.179
258.6127	0.1692
258.8272	0.1811
259.0417	0.1664
259.2561	0.1742
259.4706	0.1753
259.6851	0.1772
259.8995	0.176
260.114	0.1783
260.3284	0.1725
260.5428	0.1757
260.7572	0.1752
260.9716	0.1795
261.186	0.1725
261.4003	0.1693
261.6147	0.1805
261.829	0.1746
262.0433	0.173
262.2577	0.1733
262.472	0.1756
262.6863	0.1735
262.9005	0.1754
263.1148	0.1744
263.3291	0.1724
263.5433	0.1788
263.7576	0.1743
263.9718	0.178
264.186	0.1729
264.4002	0.1749
264.6144	0.1823
264.8286	0.1753
265.0427	0.173
265.2569	0.1765
265.471	0.18
265.6851	0.1767
265.8993	0.1748
266.1134	0.1722
266.3275	0.1737
266.5415	0.179
266.7556	0.1821
266.9697	0.1793
267.1837	0.1739
267.3978	0.179
267.6118	0.1743
267.8258	0.1809
268.0398	0.1779
268.2538	0.1726
268.4677	0.1706
268.6817	0.1807
268.8957	0.164
269.1096	0.1679
269.3235	0.1719
269.5374	0.1751
269.7514	0.175
269.9652	0.1736
270.1791	0.1708
270.393	0.1703
270.6068	0.1722
270.8207	0.1656
271.0345	0.1694
271.2483	0.164
271.4622	0.1729
271.676	0.1715
271.8897	0.1712
272.1035	0.1747
272.3173	0.1668
272.531	0.17
272.7448	0.1649
272.9585	0.1649
273.1722	0.1615
273.3859	0.1663
273.5996	0.1699
273.8133	0.1707
274.0269	0.1652
274.2406	0.1697
274.4542	0.1653
274.6679	0.1697
274.8815	0.1739
275.0951	0.1731
275.3087	0.1731
275.5223	0.1707
275.7358	0.1721
275.9494	0.1689
276.1629	0.1717
276.3765	0.1754
276.59	0.1695
276.8035	0.1695
277.017	0.1717
277.2305	0.1769
277.444	0.1744
277.6574	0.1716
277.8709	0.1761
278.0843	0.1773
278.2978	0.1743
278.5112	0.1737
278.7246	0.1697
278.938	0.1766
279.1513	0.1772
279.3647	0.1716
279.5781	0.1762
279.7914	0.175
280.0047	0.1777
280.2181	0.174
280.4314	0.174
280.6447	0.1813
280.8579	0.1752
281.0712	0.1777
281.2845	0.1769
281.4977	0.1756
281.711	0.1704
281.9242	0.1769
282.1374	0.1786
282.3506	0.1798
282.5638	0.1794
282.7769	0.175
282.9901	0.182
283.2033	0.1805
283.4164	0.1779
283.6295	0.1771
283.8426	0.1791
284.0557	0.1797
284.2688	0.1822
284.4819	0.1793
284.695	0.1817
284.908	0.1767
285.1211	0.1841
285.3341	0.1781
285.5471	0.1861
285.7601	0.1805
285.9731	0.1834
286.1861	0.1839
286.3991	0.1939
286.612	0.1862
286.825	0.1877
287.0379	0.1864
287.2508	0.1863
287.4637	0.1942
287.6766	0.1867
287.8895	0.1845
288.1024	0.1908
288.3152	0.1919
288.5281	0.1868
288.7409	0.1947
288.9538	0.1911
289.1666	0.19
289.3794	0.192
289.5922	0.186
289.8049	0.1887
290.0177	0.1898
290.2304	0.1868
290.4432	0.1947
290.6559	0.1893
290.8686	0.191
291.0813	0.1915
291.294	0.1873
291.5067	0.1845
291.7194	0.1889
291.932	0.1889
292.1447	0.1933
292.3573	0.1925
292.5699	0.1968
292.7825	0.1883
292.9951	0.1874
293.2077	0.1916
293.4203	0.1924
293.6328	0.1856
293.8454	0.1902
294.0579	0.1874
294.2704	0.2003
294.4829	0.1899
294.6954	0.1917
294.9079	0.1939
295.1204	0.1865
295.3328	0.1963
295.5453	0.1955
295.7577	0.1958
295.9701	0.19
296.1825	0.194
296.3949	0.1859
296.6073	0.1885
296.8197	0.1962
297.0321	0.1972
297.2444	0.1888
297.4567	0.1943
297.6691	0.193
297.8814	0.1944
298.0937	0.1908
298.306	0.186
298.5182	0.1956
298.7305	0.195
298.9428	0.1961
299.155	0.1852
299.3672	0.1909
299.5794	0.1952
299.7916	0.1932
300.0038	0.1872
300.216	0.192
300.4282	0.1932
300.6403	0.1985
300.8525	0.191
301.0646	0.196
301.2767	0.1896
301.4888	0.1943
301.7009	0.1955
301.913	0.1956
302.125	0.1898
302.3371	0.1909
302.5491	0.191
302.7612	0.197
302.9732	0.1918
303.1852	0.1942
303.3972	0.197
303.6092	0.1909
303.8211	0.1883
304.0331	0.1834
304.245	0.1893
304.457	0.1935
304.6689	0.1866
304.8808	0.1867
305.0927	0.1974
305.3046	0.1853
305.5164	0.1893
305.7283	0.1835
305.9401	0.1768
306.152	0.1784
306.3638	0.1815
306.5756	0.1837
306.7874	0.1738
306.9992	0.1757
307.2109	0.1711
307.4227	0.168
307.6344	0.1732
307.8462	0.1658
308.0579	0.1721
308.2696	0.1673
308.4813	0.1636
308.693	0.1568
308.9046	0.164
309.1163	0.1575
309.328	0.1583
309.5396	0.1509
309.7512	0.1516
309.9628	0.1536
310.1744	0.149
310.386	0.1453
310.5976	0.1448
310.8091	0.1469
311.0207	0.1475
311.2322	0.1416
311.4437	0.1422
311.6552	0.151
311.8667	0.1452
312.0782	0.1372
312.2897	0.1379
312.5012	0.1373
312.7126	0.1351
312.924	0.1352
313.1355	0.1317
313.3469	0.1356
313.5583	0.1341
313.7696	0.1293
313.981	0.1343
314.1924	0.1224
314.4037	0.1276
314.6151	0.1273
314.8264	0.1299
315.0377	0.1261
315.249	0.1299
315.4603	0.1255
315.6716	0.1288
315.8828	0.1275
316.0941	0.1281
316.3053	0.1202
316.5165	0.1202
316.7277	0.118
316.9389	0.1258
317.1501	0.1236
317.3613	0.1184
317.5724	0.1171
317.7836	0.1131
317.9947	0.1172
318.2058	0.1222
318.417	0.1181
318.6281	0.115
318.8391	0.1206
319.0502	0.1205
319.2613	0.118
319.4723	0.1172
319.6834	0.1242
319.8944	0.1217
320.1054	0.1209
320.3164	0.118
320.5274	0.1134
320.7383	0.1186
320.9493	0.1187
321.1602	0.1171
321.3712	0.1165
321.5821	0.1203
321.793	0.1233
322.0039	0.123
322.2148	0.1222
322.4257	0.1127
322.6365	0.1209
322.8474	0.1218
323.0582	0.1204
323.269	0.1231
323.4798	0.12
323.6906	0.1161
323.9014	0.1181
324.1122	0.117
324.3229	0.1223
324.5337	0.123
324.7444	0.1186
324.9551	0.1235
325.1658	0.1178
325.3765	0.1236
325.5872	0.1195
325.7979	0.1213
326.0085	0.1261
326.2192	0.1203
326.4298	0.1252
326.6404	0.1288
326.851	0.1224
327.0616	0.1244
327.2722	0.1241
327.4828	0.1226
327.6933	0.1279
327.9039	0.1221
328.1144	0.1226
328.3249	0.1295
328.5354	0.1278
328.7459	0.1284
328.9564	0.1321
329.1669	0.1306
329.3773	0.1274
329.5878	0.1218
329.7982	0.1282
330.0086	0.1273
330.219	0.1235
330.4294	0.1237
330.6398	0.1305
330.8502	0.1317
331.0605	0.1273
331.2708	0.1284
331.4812	0.126
331.6915	0.1302
331.9018	0.1278
332.1121	0.134
332.3224	0.131
332.5326	0.1206
332.7429	0.1299
332.9531	0.1318
333.1633	0.1239
333.3735	0.1258
333.5837	0.1267
333.7939	0.1313
334.0041	0.1362
334.2143	0.1338
334.4244	0.1405
334.6346	0.1289
334.8447	0.1331
335.0548	0.1341
335.2649	0.1386
335.475	0.1377
335.685	0.1325
335.8951	0.1341
336.1051	0.1376
336.3152	0.1414
336.5252	0.139
336.7352	0.1317
336.9452	0.1337
337.1552	0.1321
337.3652	0.1281
337.5751	0.136
337.7851	0.1348
337.995	0.1368
338.2049	0.1363
338.4148	0.1365
338.6247	0.1439
338.8346	0.1372
339.0445	0.1396
339.2543	0.1378
339.4642	0.1362
339.674	0.1323
339.8838	0.1387
340.0936	0.1392
340.3034	0.1365
340.5132	0.1346
340.7229	0.1412
340.9327	0.1421
341.1424	0.1421
341.3522	0.1389
341.5619	0.1413
341.7716	0.1428
341.9813	0.1437
342.1909	0.1453
342.4006	0.141
342.6102	0.1433
342.8199	0.1424
343.0295	0.1397
343.2391	0.1464
343.4487	0.1552
343.6583	0.1484
343.8679	0.1413
344.0774	0.1468
344.287	0.1539
344.4965	0.1519
344.706	0.1524
344.9155	0.1507
345.125	0.1552
345.3345	0.1558
345.544	0.1542
345.7534	0.1481
345.9629	0.1572
346.1723	0.1584
346.3817	0.1562
346.5911	0.16
346.8005	0.1579
347.0099	0.163
347.2193	0.1634
347.4286	0.1648
347.638	0.1607
347.8473	0.1677
348.0566	0.1596
348.2659	0.1655
348.4752	0.163
348.6845	0.1617
348.8937	0.1658
349.103	0.1627
349.3122	0.1662
349.5214	0.1701
349.7306	0.1723
349.9398	0.1691
350.149	0.1676
350.3582	0.1701
350.5674	0.1699
350.7765	0.1697
350.9856	0.1693
351.1948	0.171
351.4039	0.1715
351.613	0.1724
351.822	0.1732
352.0311	0.1728
352.2402	0.1811
352.4492	0.1711
352.6582	0.1731
352.8672	0.1767
353.0762	0.1849
353.2852	0.1757
353.4942	0.1869
353.7032	0.1782
353.9121	0.1788
354.1211	0.1882
354.33	0.1839
354.5389	0.1831
354.7478	0.1758
354.9567	0.1859
355.1655	0.1821
355.3744	0.1793
355.5833	0.1778
355.7921	0.1863
356.0009	0.1836
356.2097	0.1838
356.4185	0.1855
356.6273	0.1851
356.8361	0.1954
357.0448	0.1914
357.2536	0.1858
357.4623	0.1922
357.671	0.1879
357.8797	0.1947
358.0884	0.1843
358.2971	0.1916
358.5057	0.2027
358.7144	0.1924
358.923	0.2009
359.1316	0.1977
359.3402	0.2006
359.5488	0.1984
359.7574	0.2015
359.966	0.1924
360.1746	0.2008
360.3831	0.2102
360.5916	0.2108
360.8002	0.2038
361.0087	0.206
361.2172	0.2073
361.4256	0.2053
361.6341	0.2139
361.8426	0.2088
362.051	0.217
362.2594	0.2096
362.4678	0.2166
362.6762	0.213
362.8846	0.2212
363.093	0.2122
363.3014	0.2211
363.5097	0.2238
363.718	0.2272
363.9264	0.2223
364.1347	0.2311
364.343	0.2163
364.5513	0.2201
364.7595	0.2285
364.9678	0.2232
365.176	0.2275
365.3842	0.2327
365.5925	0.2263
365.8007	0.2316
366.0089	0.2291
366.217	0.2303
366.4252	0.2353
366.6333	0.239
366.8415	0.232
367.0496	0.2366
367.2577	0.2416
367.4658	0.243
367.6739	0.2345
367.882	0.2435
368.09	0.2386
368.2981	0.247
368.5061	0.2398
368.7141	0.239
368.9221	0.2552
369.1301	0.2482
369.3381	0.2601
369.5461	0.2496
369.754	0.2511
369.962	0.2539
370.1699	0.2493
370.3778	0.2682
370.5857	0.2481
370.7936	0.2567
371.0015	0.2493
371.2093	0.252
371.4172	0.2541
371.625	0.2577
371.8328	0.2496
372.0406	0.2577
372.2484	0.2645
372.4562	0.2631
372.664	0.2615
372.8717	0.2514
373.0795	0.2732
373.2872	0.2775
373.4949	0.2686
373.7026	0.2577
373.9103	0.258
374.118	0.2685
374.3256	0.268
374.5333	0.263
374.7409	0.264
374.9485	0.2638
375.1561	0.2753
375.3637	0.27
375.5713	0.2781
375.7789	0.2698
375.9864	0.2651
376.194	0.282
376.4015	0.2699
376.609	0.2773
376.8165	0.2801
377.024	0.2862
377.2315	0.2761
377.4389	0.2735
377.6464	0.2843
377.8538	0.287
378.0612	0.2838
378.2686	0.2818
378.476	0.2954
378.6834	0.2814
378.8908	0.283
379.0981	0.2975
379.3055	0.3002
379.5128	0.2858
379.7201	0.2945
379.9274	0.2919
380.1347	0.289
380.342	0.2941
380.5492	0.2948
380.7565	0.2967
380.9637	0.2951
381.1709	0.296
381.3781	0.2969
381.5853	0.2962
381.7925	0.2899
381.9997	0.2996
382.2068	0.2943
382.4139	0.2911
382.6211	0.3024
382.8282	0.311
383.0353	0.3146
383.2424	0.3085
383.4494	0.3129
383.6565	0.2931
383.8635	0.3093
384.0706	0.3046
384.2776	0.3037
384.4846	0.3122
384.6916	0.3057
384.8986	0.3136
385.1055	0.3132
385.3125	0.3145
385.5194	0.317
385.7263	0.3014
385.9333	0.3156
386.1402	0.3115
386.347	0.3113
386.5539	0.3071
386.7608	0.3068
386.9676	0.3038
387.1744	0.3069
387.3813	0.3028
387.5881	0.2994
387.7948	0.3198
388.0016	0.3095
388.2084	0.3024
388.4151	0.302
388.6219	0.3023
388.8286	0.312
389.0353	0.313
389.242	0.3044
389.4487	0.3024
389.6553	0.2939
389.862	0.2928
390.0686	0.2963
390.2753	0.3025
390.4819	0.302
390.6885	0.2879
390.8951	0.3054
391.1016	0.3045
391.3082	0.3004
391.5147	0.292
391.7213	0.2944
391.9278	0.291
392.1343	0.3005
392.3408	0.2914
392.5473	0.2911
392.7537	0.2806
392.9602	0.2922
393.1666	0.2885
393.373	0.2726
393.5794	0.2798
393.7858	0.289
393.9922	0.2775
394.1986	0.2708
394.4049	0.282
394.6113	0.2795
394.8176	0.2829
395.0239	0.2758
395.2302	0.2781
395.4365	0.282
395.6428	0.2765
395.8491	0.2711
396.0553	0.266
396.2615	0.2734
396.4678	0.2726
396.674	0.2694
396.8802	0.2719
397.0863	0.2611
397.2925	0.2718
397.4987	0.2629
397.7048	0.2669
397.9109	0.2513
398.117	0.2589
398.3231	0.2651
398.5292	0.2626
398.7353	0.2591
398.9413	0.2652
399.1474	0.2544
399.3534	0.2658
399.5594	0.2729
399.7654	0.2537
399.9714	0.2616
400.1774	0.2593
400.3833	0.2658
400.5893	0.2561
400.7952	0.2685
401.0011	0.2587
401.207	0.2546
401.4129	0.2632
401.6188	0.2624
401.8247	0.2667
402.0305	0.2569
402.2364	0.2629
402.4422	0.2567
402.648	0.2622
402.8538	0.2541
403.0596	0.2555
403.2654	0.2624
403.4711	0.2627
403.6768	0.2577
403.8826	0.2634
404.0883	0.2624
404.294	0.2655
404.4997	0.2549
404.7054	0.2697
404.911	0.2549
405.1167	0.2632
405.3223	0.2527
405.5279	0.2591
405.7335	0.263
405.9391	0.2602
406.1447	0.2652
406.3502	0.2638
406.5558	0.2577
406.7613	0.2594
406.9668	0.2626
407.1724	0.2608
407.3778	0.2646
407.5833	0.2526
407.7888	0.2659
407.9942	0.2525
408.1997	0.2685
408.4051	0.2609
408.6105	0.2645
408.8159	0.2619
409.0213	0.2689
409.2267	0.258
409.432	0.2722
409.6374	0.2549
409.8427	0.2755
410.048	0.2519
410.2533	0.2543
410.4586	0.2584
410.6639	0.2565
410.8691	0.2547
411.0744	0.2624
411.2796	0.2556
411.4848	0.2693
411.69	0.2521
411.8952	0.2606
412.1004	0.2621
412.3056	0.258
412.5107	0.2579
412.7158	0.2726
412.921	0.2585
413.1261	0.2619
413.3312	0.2655
413.5362	0.2602
413.7413	0.2583
413.9464	0.2455
414.1514	0.2514
414.3564	0.2595
414.5614	0.2563
414.7664	0.2474
414.9714	0.2491
415.1764	0.2626
415.3813	0.2424
415.5863	0.2618
415.7912	0.251
415.9961	0.2559
416.201	0.2655
416.4059	0.2527
416.6108	0.2489
416.8156	0.2544
417.0205	0.2441
417.2253	0.239
417.4301	0.2471
417.6349	0.2582
417.8397	0.2545
418.0445	0.2597
418.2492	0.2399
418.454	0.2442
418.6587	0.2568
418.8634	0.2543
419.0681	0.2572
419.2728	0.249
419.4775	0.2617
419.6822	0.2493
419.8868	0.2403
420.0915	0.2433
420.2961	0.2323
420.5007	0.2539
420.7053	0.2373
420.9099	0.2432
421.1144	0.2368
421.319	0.2355
421.5235	0.2307
421.728	0.2413
421.9325	0.2367
422.137	0.2377
422.3415	0.2427
422.546	0.2337
422.7504	0.2389
422.9549	0.2404
423.1593	0.2298
423.3637	0.2368
423.5681	0.2395
423.7725	0.2262
423.9769	0.2301
424.1812	0.2157
424.3856	0.2279
424.5899	0.2214
424.7942	0.2245
424.9985	0.2222
425.2028	0.2355
425.4071	0.225
425.6113	0.2119
425.8156	0.2231
426.0198	0.2174
426.224	0.2171
426.4282	0.2219
426.6324	0.2122
426.8366	0.2115
427.0407	0.2178
427.2449	0.2115
427.449	0.2149
427.6531	0.2246
427.8572	0.2139
428.0613	0.2173
428.2654	0.2077
428.4694	0.1907
428.6735	0.2046
428.8775	0.1964
429.0815	0.1972
429.2855	0.1985
429.4895	0.1996
429.6935	0.1968
429.8975	0.1855
430.1014	0.2032
430.3053	0.1994
430.5093	0.1901
430.7132	0.1866
430.9171	0.1943
431.1209	0.1857
431.3248	0.1674
431.5286	0.1837
431.7325	0.188
431.9363	0.1754
432.1401	0.1846
432.3439	0.1719
432.5477	0.1714
432.7514	0.1697
432.9552	0.1718
433.1589	0.1716
433.3627	0.1688
433.5664	0.1653
433.7701	0.1702
433.9737	0.1702
434.1774	0.1642
434.3811	0.1496
434.5847	0.1599
434.7883	0.1573
434.9919	0.1506
435.1955	0.1542
435.3991	0.1545
435.6027	0.1484
435.8062	0.1569
436.0098	0.139
436.2133	0.1504
436.4168	0.1408
436.6203	0.1399
436.8238	0.1379
437.0272	0.1343
437.2307	0.134
437.4341	0.1304
437.6375	0.1309
437.841	0.1326
438.0443	0.139
438.2477	0.1181
438.4511	0.118
438.6545	0.1277
438.8578	0.1227
439.0611	0.1236
439.2644	0.1268
439.4677	0.1157
439.671	0.1074
439.8743	0.113
440.0775	0.1226
440.2808	0.1153
440.484	0.1031
440.6872	0.1187
440.8904	0.0965
441.0936	0.1074
441.2967	0.0931
441.4999	0.0992
441.703	0.0985
441.9062	0.1018
442.1093	0.1032
442.3124	0.0995
442.5155	0.0942
442.7185	0.0829
442.9216	0.0919
443.1246	0.0888
443.3276	0.0919
443.5307	0.0819
443.7337	0.0866
443.9366	0.0788
444.1396	0.0747
444.3426	0.082
444.5455	0.0772
444.7484	0.0786
444.9513	0.0801
445.1542	0.0832
445.3571	0.0816
445.56	0.0693
445.7628	0.0697
445.9657	0.0781
446.1685	0.0749
446.3713	0.0684
446.5741	0.0735
446.7769	0.0743
446.9797	0.0617
447.1824	0.0655
447.3852	0.0455
447.5879	0.0633
447.7906	0.0616
447.9933	0.0601
448.196	0.0441
448.3986	0.0585
448.6013	0.0504
448.8039	0.0599
449.0066	0.0603
449.2092	0.0594
449.4118	0.0502
449.6143	0.0606
449.8169	0.052
450.0195	0.0556
450.222	0.0483
450.4245	0.0386
450.627	0.0475
450.8295	0.0521
451.032	0.0407
451.2345	0.0448
451.4369	0.05
451.6394	0.0566
451.8418	0.0352
452.0442	0.0341
452.2466	0.0284
452.449	0.0452
452.6513	0.034
452.8537	0.031
453.056	0.0361
453.2583	0.0288
453.4607	0.0344
453.663	0.0362
453.8652	0.0248
454.0675	0.0424
454.2697	0.0324
454.472	0.0276
454.6742	0.0323
454.8764	0.0404
455.0786	0.027
455.2808	0.027
455.4829	0.0366
455.6851	0.0239
455.8872	0.018
456.0893	0.017
456.2915	0.0277
456.4935	0.0289
456.6956	0.0294
456.8977	0.0211
457.0997	0.0362
457.3018	0.0263
457.5038	0.0263
457.7058	0.024
457.9078	0.0246
458.1098	0.0253
458.3117	0.0206
458.5137	0.0139
458.7156	0.0219
458.9175	0.0203
459.1194	0.0203
459.3213	0.0144
459.5232	0.0254
459.725	0.0162
459.9269	0.0158
460.1287	0.0137
460.3305	0.0239
460.5323	0.0163
460.7341	0.0188
460.9359	0.0077
461.1376	0.0182
461.3394	0.0204
461.5411	0.0183
461.7428	0.0169
461.9445	0.0152
462.1462	0.0139
462.3479	0.0168
462.5495	0.0097
462.7512	0.0197
462.9528	0.0096
463.1544	0.0151
463.356	0.0071
463.5576	0.0238
463.7592	0.0099
463.9607	0.013
464.1623	0.0091
464.3638	0.0113
464.5653	0.0139
464.7668	0.016
464.9683	0.0094
465.1697	0.013
465.3712	0.0031
465.5726	0.0096
465.7741	0.0182
465.9755	0.0155
466.1769	0.0085
466.3782	0.0078
466.5796	0.0096
466.7809	0.0131
466.9823	0.0093
467.1836	0.01
467.3849	0.0061
467.5862	-0.0009
467.7875	0.0076
467.9887	0.0032
468.19	0.0149
468.3912	0.019
468.5924	0.0061
468.7936	0.008
468.9948	0.002
469.196	0.0029
469.3972	0.0058
469.5983	0.0084
469.7994	0.0073
470.0006	0.0109
470.2017	0.0114
470.4027	0.0229
470.6038	0.0084
470.8049	-0.0037
471.0059	0.0084
471.2069	0.012
471.408	0.0139
471.6089	0.0055
471.8099	0.0035
472.0109	0.0044
472.2119	0.0195
472.4128	0.0075
472.6137	0.0124
472.8146	0.0009
473.0155	0.0149
473.2164	0.0024
473.4173	-0.0015
473.6181	0.0048
473.819	0.0086
474.0198	0.0083
474.2206	0.004
474.4214	0.0049
474.6222	-0.0091
474.8229	0.0029
475.0237	0.0072
475.2244	0.0112
475.4251	0.0083
475.6258	0.0081
475.8265	0.0032
476.0272	0.0021
476.2278	0.0029
476.4285	0.0031
476.6291	0.0062
476.8297	0.0038
477.0303	-0.0038
477.2309	0.0015
477.4315	0.0081
477.632	0.0039
477.8326	0.0036
478.0331	0.0059
478.2336	0.0031
478.4341	0.0046
478.6346	0.0004
478.8351	-0.0002
479.0355	0.0117
479.236	0.0085
479.4364	0.0054
479.6368	0.011
479.8372	0.0068
480.0376	0.0028
480.2379	0.008
480.4383	0.0066
480.6386	-0.0023
480.8389	0.0078
481.0392	0.0025
481.2395	0.0034
481.4398	0.0016
481.6401	0.0048
481.8403	-0.0023
482.0405	0.0054
482.2408	-0.0017
482.441	0.0088
482.6411	0.0065
482.8413	0.0063
483.0415	0.0155
483.2416	0.0062
483.4417	0.0002
483.6419	-0.0079
483.8419	0.0055
484.042	0.001
484.2421	-0.0029
484.4422	0.0007
484.6422	-0.0032
484.8422	0.004
485.0422	0.0037
485.2422	-0.0001
485.4422	0.0027
485.6422	0.0003
485.8421	-0.0015
486.042	0.0055
486.242	-0.0033
486.4419	0.0032
486.6417	0.0041
486.8416	0.0016
487.0415	0.0016
487.2413	-0.0023
487.4411	0.0028
487.641	-0.0025
487.8408	0.0072
488.0405	0.0046
488.2403	0.0041
488.4401	0.0037
488.6398	0.0044
488.8395	0.0005
489.0392	0.0072
489.2389	0.0067
489.4386	-0.0005
489.6383	0.0034
489.8379	0.0028
490.0376	-0.002
490.2372	0.0094
490.4368	0.0011
490.6364	0.001
490.836	0.0008
491.0355	-0.0061
491.2351	-0.0016
491.4346	0.0053
491.6341	0.001
491.8336	0.0062
492.0331	0.0001
492.2326	0.0049
492.432	0.0075
492.6315	0.008
492.8309	0.0039
493.0303	-0.0019
493.2297	0.0031
493.4291	-0.0015
493.6284	0.0134
493.8278	0.0002
494.0271	-0.0047
494.2264	0.005
494.4257	0.0074
494.625	-0.0008
494.8243	-0.0021
495.0236	0.0073
495.2228	0.0096
495.422	0.0005
495.6213	0.0007
495.8205	0.0005
496.0196	0.0041
496.2188	0.0033
496.418	0.0031
496.6171	-0.0009
496.8162	0.0064
497.0153	0.0067
497.2144	-0.004
497.4135	-0.0005
497.6126	0.0004
497.8116	0.002
498.0107	0.002
498.2097	0.0047
498.4087	-0.002
498.6077	-0.0063
498.8067	0.0089
499.0056	-0.0001
499.2046	0.0022
499.4035	0.0086
499.6024	-0.0053
499.8013	0.0089
500.0002	0.0056
500.199	0.0066
500.3979	0.0014
500.5967	-0.0006
500.7956	0.0091
500.9944	-0.0009
501.1932	0.0042
501.3919	0.0089
501.5907	0.0057
501.7895	-0.0016
501.9882	0.0068
502.1869	0.0117
502.3856	0.0019
502.5843	0.0042
502.783	0.0009
502.9816	0.007
503.1803	0.004
503.3789	0.0081
503.5775	0.0015
503.7761	-0.0036
503.9747	0.0023
504.1732	-0.0032
504.3718	0.0185
504.5703	0.0005
504.7689	-0.001
504.9674	0.0015
505.1658	0.0019
505.3643	0.0031
505.5628	0.0061
505.7612	0.0093
505.9597	-0.0065
506.1581	-0.0001
506.3565	0.0019
506.5549	0.0039
506.7532	0.0039
506.9516	0.0081
507.1499	-0.0001
507.3482	-0.0008
507.5465	0.0017
507.7448	0.0046
507.9431	0.0085
508.1414	0.0007
508.3396	0.0056
508.5379	0.0018
508.7361	0.0091
508.9343	0.0055
509.1325	0.0141
509.3306	0.0047
509.5288	-0.0071
509.7269	0.0037
509.9251	0.0052
510.1232	0.0038
510.3213	0.0069
510.5193	-0.0001
510.7174	-0.0037
510.9154	0.0126
511.1135	-0.0003
511.3115	-0.0021
511.5095	0.0018
511.7075	0.0034
511.9055	0.0036
512.1034	-0.0009
512.3014	0.0027
512.4993	0.0064
512.6972	0.0004
512.8951	0.005
513.093	-0.0001
513.2908	0.0116
513.4887	-0.0003
513.6865	0.0016
513.8844	0.0051
514.0822	0.001
514.2799	-0.0041
514.4777	-0.0042
514.6755	0.0016
514.8732	0.0004
515.0709	0.007
515.2687	-0.0034
515.4664	0.0115
515.664	0.005
515.8617	0.0147
516.0594	0.008
516.257	-0.0053
516.4546	0.0169
516.6522	-0.0007
516.8498	-0.006
517.0474	0.0052
517.2449	0.0015
517.4425	0.0044
517.64	0.0086
517.8375	0.0071
518.035	0.0041
518.2325	-0.0056
518.43	0.0066
518.6274	-0.0051
518.8249	-0.0056
519.0223	0.0025
519.2197	0.0051
519.4171	-0.0034
519.6145	0.0044
519.8118	-0.0169
520.0092	-0.0115
520.2065	0.017
520.4038	-0.0012
520.6011	0.0133
520.7984	0.0159
520.9956	0.0024
521.1929	0.0054
521.3901	-0.0017
521.5874	0.0125
521.7846	-0.0024
521.9818	0.0049
522.1789	0.0007
522.3761	0.0102
522.5732	0.0085
522.7704	-0.0116
522.9675	-0.0101
523.1646	-0.0012
523.3617	0.013
523.5587	0.0027
523.7558	-0.0029
523.9528	0.0117
524.1498	0.0035
524.3468	0.0086
524.5438	0.0094
524.7408	-0.0102
524.9378	-0.0026
525.1347	-0.0052
525.3316	0.0043
525.5285	-0.0027
525.7254	0.0042
525.9223	0.0037
526.1192	0.0078
526.316	-0.0002
526.5129	0.009
526.7097	-0.0031
526.9065	0.0042
527.1033	0.0061
527.3	0.0105
527.4968	0.0023
527.6935	-0.0008
527.8903	0.0048
528.087	-0.0059
528.2837	0.0025
528.4804	-0.0089
528.677	0.0148
528.8737	0.0009
529.0703	0.0021
529.2669	0.0116
529.4635	-0.005
529.6601	-0.0014
529.8567	-0.0083
530.0532	0.0038
530.2498	-0.0004
530.4463	-0.007
530.6428	0.0065
530.8393	0.0024
531.0358	-0.0066
531.2322	-0.003
531.4287	-0.002
531.6251	-0.0083
531.8215	-0.0015
532.0179	0.0088
532.2143	0.0061
532.4107	0.0069
532.607	0.0013
532.8034	-0.0107
532.9997	-0.0058
533.196	-0.0035
533.3923	0.0156
533.5886	0.0087
533.7848	-0
533.9811	0.0058
534.1773	0.0023
534.3735	0.0038
534.5697	-0.0013
534.7659	-0.001
534.9621	0.0034
535.1582	0.0053
535.3544	0.0077
535.5505	0.0013
535.7466	0.0048
535.9427	-0.0055
536.1387	-0.0021
536.3348	0.0108
536.5308	-0.0022
536.7269	-0.0026
536.9229	-0.0016
537.1189	0.0096
537.3148	0.0048
537.5108	0.0028
537.7068	0.0011
537.9027	-0.0083
538.0986	0.0103
538.2945	0.0003
538.4904	-0.0036
538.6863	0.005
538.8821	0.0104
539.078	-0.003
539.2738	0.002
539.4696	-0.0013
539.6654	0.0086
539.8611	0.0018
540.0569	-0.0034
540.2526	0.0022
540.4484	0.0004
540.6441	0.0029
540.8398	0.0102
541.0355	-0.0049
541.2311	0.0108
541.4268	0.0127
541.6224	0.0216
541.818	0.0081
542.0136	0.0059
542.2092	0.0072
542.4048	0.0011
542.6003	-0.0028
542.7959	0.0078
542.9914	0.0104
543.1869	-0.0018
543.3824	0.0014
543.5779	0.006
543.7734	0.0114
543.9688	0.0107
544.1642	0.0007
544.3596	0.0123
544.555	0.0035
544.7504	0.0194
544.9458	0.003
545.1411	-0.0043
545.3365	0.0044
545.5318	-0.0001
545.7271	0.0117
545.9224	-0.011
546.1177	0.003
546.3129	-0.0014
546.5081	-0.0015
546.7034	0.0032
546.8986	0.0056
547.0938	0.0066
547.289	0.0084
547.4841	0.0086
547.6793	0.0034
547.8744	0.0056
548.0695	-0.0075
548.2646	0.0052
548.4597	-0.0009
548.6548	0.0157
548.8498	0.0066
549.0448	-0.0006
549.2399	0.0055
549.4349	0.0006
549.6298	-0.0009
549.8248	-0.0016
550.0198	0.0059
550.2147	0.0028
550.4096	0.0027
550.6045	0.0083
550.7994	0.0061
550.9943	0.003
551.1892	-0.0098
551.384	0.0157
551.5788	0.0034
551.7737	0.0041
551.9685	-0.0047
552.1632	-0.0008
552.358	-0.0051
552.5528	0.0039
552.7475	0.0089
552.9422	0.0095
553.1369	0.0052
553.3316	0.0077
553.5263	0.0114
553.7209	-0.0031
553.9156	0.0029
554.1102	-0.0016
554.3048	-0.0001
554.4994	0.0003
554.694	0.0006
554.8885	-0.0015
555.0831	0.0006
555.2776	0.0044
555.4721	0.0042
555.6666	-0.0019
555.8611	-0.0004
556.0555	0.0014
556.25	0.0028
556.4444	0.0007
556.6388	-0.0007
556.8332	0.0004
557.0276	0.002
557.222	-0.0058
557.4163	0.0015
557.6107	0.0101
557.805	-0.0009
557.9993	0.0035
558.1936	-0.0032
558.3879	0.005
558.5821	-0.0045
558.7764	-0.0025
558.9706	-0.0004
559.1648	0.0042
559.359	-0.0011
559.5532	-0.0014
559.7473	-0.0112
559.9415	0.0017
560.1356	0.0102
560.3297	0.0014
560.5238	0.0122
560.7179	-0.0028
560.9119	-0.0062
561.106	0.006
561.3	-0.0023
561.494	-0.0024
561.688	-0.0026
561.882	0.0049
562.076	0.0081
562.2699	0.01
562.4639	0.0118
562.6578	0.0146
562.8517	0.0057
563.0456	0.0077
563.2395	0.0062
563.4333	0.0082
563.6272	0.0025
563.821	0.0037
564.0148	-0.0003
564.2086	0.003
564.4024	0.0103
564.5961	0.002
564.7899	0.0111
564.9836	0.0056
565.1773	0.0084
565.371	0.0005
565.5647	0.0013
565.7584	0.0084
565.952	0.0049
566.1456	0.003
566.3393	0.0055
566.5329	0.0046
566.7264	0.0049
566.92	-0.0006
567.1136	0.0091
567.3071	-0.0091
567.5006	0.0075
567.6941	-0.0009
567.8876	0.0004
568.0811	0.0134
568.2745	-0.0054
568.468	0.0031
568.6614	0.0018
568.8548	0.0058
569.0482	0.0061
569.2416	0.0009
569.4349	0.006
569.6283	-0.0004
569.8216	0.0064
570.0149	0.0006
570.2082	0.0061
570.4015	-0.0023
570.5947	0.0047
570.788	0.0052
570.9812	0.007
571.1744	0.0043
571.3676	0.0021
571.5608	0.0011
571.754	0.0031
571.9471	0.0045
572.1402	0.0046
572.3333	0.0014
572.5264	0.0038
572.7195	0.0008
572.9126	-0.0001
573.1057	0.0041
573.2987	0.0036
573.4917	0.0007
573.6847	0.0007
573.8777	0.0068
574.0707	0.0055
574.2636	0.0032
574.4566	-0.0003
574.6495	0.0034
574.8424	0.0072
575.0353	0.0043
575.2281	0.0052
575.421	-0.0015
575.6138	0.0052
575.8067	0.0047
575.9995	-0.0002
576.1923	0.0088
576.385	0.0028
576.5778	0.0087
576.7706	-0.0025
576.9633	0.0059
577.156	-0.0024
577.3487	0.0035
577.5414	0.0004
577.734	-0.0013
577.9267	0.0048
578.1193	0.0064
578.3119	-0.0003
578.5045	0.0011
578.6971	-0.0009
578.8897	0.0062
579.0822	0.0101
579.2747	0.0027
579.4673	0.0068
579.6598	0.0028
579.8522	0.0036
580.0447	0.012
580.2372	0.0044
580.4296	0.0051
580.622	0.0017
580.8144	0.0034
581.0068	0.0017
581.1992	0.0034
581.3915	0.0001
581.5839	0.0035
581.7762	0.0015
581.9685	0.0015
582.1608	-0.0003
582.353	0.0002
582.5453	0.0036
582.7375	0.0037
582.9298	-0.0016
583.122	-0.0015
583.3142	0.0054
583.5063	0.0009
583.6985	-0.0016
583.8906	0.0016
584.0827	0.006
584.2749	0.0013
584.4669	0.0018
584.659	0.0046
584.8511	0.0049
585.0431	0.0001
585.2352	0.0058
585.4272	0.0026
585.6192	0.0044
585.8111	-0.002
586.0031	0.0007
586.195	-0.001
586.387	0.0018
586.5789	0.0034
586.7708	0.0044
586.9627	0.002
587.1545	0.0012
587.3464	0.0048
587.5382	0.003
587.73	0.0072
587.9218	0.0003
588.1136	0.0015
588.3053	0.0008
588.4971	0.0002
588.6888	0.0057
588.8805	0.0002
589.0722	0.0049
589.2639	0.0011
589.4556	0.0063
589.6472	0.0098
589.8389	0.0036
590.0305	-0.0018
590.2221	0.0032
590.4137	-0.0008
590.6052	0.0006
590.7968	0.0051
590.9883	0.004
591.1798	-0.0007
591.3713	0.0065
591.5628	0.0013
591.7543	0.0025
591.9458	-0.0047
592.1372	0.0067
592.3286	0.0054
592.52	0.0035
592.7114	0.0033
592.9028	0.003
593.0941	-0.0015
593.2855	-0.0003
593.4768	0.0039
593.6681	0.0074
593.8594	0.0048
594.0506	0.0005
594.2419	0.0023
594.4331	-0.0032
594.6244	-0.007
594.8156	0.0053
595.0067	-0.0035
595.1979	0.0016
595.3891	0.0057
595.5802	0.0068
595.7713	0.0008
595.9624	0.0071
596.1535	-0.0027
596.3446	-0.0005
596.5357	0.0092
596.7267	0.0013
596.9177	0.0049
597.1087	-0.0011
597.2997	-0.0026
597.4907	-0.0044
597.6817	0.0048
597.8726	0.0006
598.0635	-0.0007
598.2544	0.0071
598.4453	0.0048
598.6362	0.0046
598.827	-0.0018
599.0179	0.0036
599.2087	0.0065
599.3995	0.0025
599.5903	0.0048
599.7811	0.0115
599.9718	0.0001
600.1626	0.0007
600.3533	0.0003
600.544	0.003
600.7347	0.0023
600.9254	0.0083
601.116	0.0027
601.3067	-0.0023
601.4973	0.0085
601.6879	0.0035
601.8785	0.0047
602.0691	0.0012
602.2596	0.0066
602.4502	0.0078
602.6407	0.0047
602.8312	0.0027
603.0217	0.0028
603.2122	0.0055
603.4027	0.0088
603.5931	-0
603.7835	0.0011
603.9739	-0.0038
604.1643	0.0104
604.3547	0.008
604.5451	0.0026
604.7354	-0.0008
604.9257	-0.0019
605.116	0.0015
605.3063	0.0054
605.4966	0.002
605.6869	0.0098
605.8771	0.0032
606.0673	0.005
606.2575	-0.0046
606.4477	0.0052
606.6379	-0.003
606.8281	-0.0017
607.0182	-0.0013
607.2083	0.0025
607.3985	0.0028
607.5885	0.0037
607.7786	0.0039
607.9687	0.0028
608.1587	0.0032
608.3488	0.0061
608.5388	-0.0035
608.7288	-0.0035
608.9187	0.0056
609.1087	0.007
609.2986	0.0076
609.4886	0.0037
609.6785	0.0032
609.8684	-0.0008
610.0582	-0.0047
610.2481	0.0005
610.4379	0.0083
610.6278	0.0005
610.8176	0.0117
611.0074	0.0022
611.1971	0.002
611.3869	0.0036
611.5766	-0.0094
611.7664	0.0013
611.9561	0.0097
612.1458	0.0002
612.3354	-0.0004
612.5251	0.0015
612.7147	0.0029
612.9044	-0.0038
613.094	-0.0009
613.2836	-0.0042
613.4731	0.0005
613.6627	0.0046
613.8522	0.0057
614.0417	0.0039
614.2313	0.0003
614.4207	0.0029
614.6102	0.0106
614.7997	0.0109
614.9891	0.0007
615.1785	0.0042
615.3679	-0.0035
615.5573	-0.0004
615.7467	-0.0097
615.9361	0.0017
616.1254	0.0057
616.3147	0.0003
616.504	0.003
616.6933	0.0062
616.8826	-0.0022
617.0718	0.005
617.2611	0.0048
617.4503	-0.0042
617.6395	0.0008
617.8287	0.0129
618.0179	0.0015
618.207	0.012
618.3961	-0.0042
618.5853	-0.0026
618.7744	0.0107
618.9634	0.0196
619.1525	0.0025
619.3416	0.0084
619.5306	0.0017
619.7196	0.0082
619.9086	-0.0007
620.0976	-0.0029
620.2866	0.0019
620.4755	-0.0034
620.6645	0.0117
620.8534	0.0131
621.0423	0.0006
621.2312	0.0032
621.42	0.0114
621.6089	0.0015
621.7977	0.0082
621.9865	-0.0006
622.1753	-0.0061
622.3641	-0.0067
622.5529	-0.0046
622.7416	-0.0047
622.9303	-0.008
623.1191	-0.0002
623.3078	0.0061
623.4964	0.0002
623.6851	0.0046
623.8737	-0.0104
624.0624	-0.0094
624.251	-0.0059
624.4396	0.0027
624.6282	0.005
624.8167	0.0003
625.0053	0.0069
625.1938	0.0013
625.3823	0.0054
625.5708	-0.0055
625.7593	0.0009
625.9477	0.0068
626.1362	0.0006
626.3246	0.005
626.513	0.0052
626.7014	0.008
626.8898	0.0048
627.0781	0.0021
627.2665	0.0139
627.4548	-0.0045
627.6431	0.0013
627.8314	0.0148
628.0197	0.0088
628.2079	0.0087
628.3962	0.0084
628.5844	-0
628.7726	-0.0044
628.9608	0.009
629.1489	0.0009
629.3371	-0.0081
629.5252	0.0097
629.7134	-0.0026
629.9015	-0.0034
630.0895	-0.0018
630.2776	0.0052
630.4657	0.0001
630.6537	0.0083
630.8417	-0.0177
631.0297	0.0167
631.2177	0.0056
631.4057	0.0077
631.5936	-0.0045
631.7815	-0.0028
631.9695	0.0088
632.1574	0.021
632.3452	0.009
632.5331	0.0137
632.7209	0.0159
632.9088	-0.0103
633.0966	0.0286
633.2844	-0.0066
633.4722	0.0128
633.6599	0.0159
633.8477	0.0137
634.0354	0.0114
634.2231	-0.0213
634.4108	0.0031
634.5985	0.0079
634.7861	0.0038
634.9738	0.0103
635.1614	0.0107
635.349	0.0005
635.5366	0.0123
635.7242	0.0052
635.9117	-0.0007
636.0993	0.0118
636.2868	0.0138
636.4743	0.0095
636.6618	-0.0159
636.8492	0.0103
637.0367	-0.0092
637.2241	-0.0016
637.4115	0.0276
637.5989	0.0097
637.7863	0.0185
637.9737	0.0072
638.161	0.0131
638.3484	-0.0091
638.5357	0.0025
638.723	0.0084
638.9103	-0.023
639.0975	0.0069
639.2848	0.007
639.472	-0.005
639.6592	-0.0155
639.8464	0.0105
640.0336	-0.0006
640.2208	0.0087
640.4079	-0.0172
640.595	-0.0149
640.7821	0.0059
640.9692	-0.001
641.1563	-0.0105
641.3434	0.0149
641.5304	0.0144
641.7174	0.0106
641.9044	-0.0073
642.0914	0.016
642.2784	-0.0059
642.4653	-0.0081
642.6523	0.0013
642.8392	-0.006
643.0261	0.0133
643.213	-0.0022
643.3999	0.007
643.5867	0.0016
643.7735	-0.0012
643.9604	0.0085
644.1472	-0.009
644.3339	-0.0048
644.5207	0.0033
644.7075	-0.0071
644.8942	0.0021
645.0809	0.0139
645.2676	-0.0297
645.4543	0.0012
645.6409	0.0024
645.8276	0.016
646.0142	0.0145
646.2008	-0.0158
646.3874	-0.0074
646.574	0.002
646.7605	0.0077
646.9471	-0.0036
647.1336	-0.0268
647.3201	0.0067
647.5066	-0.0074
647.6931	0.0078
647.8795	0.0163
648.0659	-0.0018
648.2524	0.0073
648.4388	0.0133
648.6252	0.0166
648.8115	0.0069
648.9979	0.0191
649.1842	0.0085
649.3705	0.0193
649.5568	-0.028
649.7431	-0.0066
649.9294	-0.0161
650.1156	-0.0103
650.3018	0.0148
650.488	0.0002
650.6742	0.0147
650.8604	0.0017
651.0466	-0.0231
651.2327	0.0049
651.4188	0.0075
651.6049	0.0196
651.791	-0.0004
651.9771	0.0046
652.1632	0.0002
652.3492	-0.0095
652.5352	0.0195
652.7212	0.0033
652.9072	0.0024
653.0932	0.0014
653.2791	0.0016
653.465	0.016
653.651	0.0031
653.8369	0.0214
654.0227	-0.0017
654.2086	0.0099
654.3944	-0.0104
654.5803	-0.0072
654.7661	0.0038
654.9519	-0.0012
655.1377	0.0001
655.3234	0.0001
655.5092	0.0001
655.6949	0.0001
655.8806	0.0001
656.0663	0.0001
656.2519	0.0001
656.4376	0.0001
656.6232	0.0001
656.8088	0.0001
656.9945	0.0001
657.18	0.0001
657.3656	0.0001
657.5511	0.0001
657.7367	0.0001
657.9222	0.0001
658.1077	0.0001
658.2932	0.0001
658.4786	0.0001
658.6641	0.0001
658.8495	0.0001
659.0349	0.0001
659.2203	0.0001
659.4057	0.0001
659.591	0.0616
659.7764	0.0239
659.9617	-0.0023
660.147	-0.0097
660.3323	0.0077
660.5176	-0.0045
660.7028	-0.012
660.888	0.0138
661.0733	0.0057
661.2585	-0.0221
661.4436	0.0138
661.6288	0.0089
661.8139	0.003
661.9991	-0.0139
662.1842	0.0082
662.3693	0.0089
662.5544	-0.0059
662.7394	0.0171
662.9245	-0.0008
663.1095	-0.0101
663.2945	-0.0106
663.4795	-0.0195
663.6644	-0.012
663.8494	0.0034
664.0343	0.0093
664.2193	-0.0018
664.4042	0.0168
664.589	0.017
664.7739	0.0152
664.9587	-0.003
665.1436	-0.007
665.3284	0.0023
665.5132	-0.0255
665.698	0.0124
665.8827	0.0169
666.0675	-0.0069
666.2522	0.0345
666.4369	0.0099
666.6216	-0.005
666.8063	0.0124
666.9909	0.0037
667.1756	-0.0013
667.3602	-0.0003
667.5448	0.0049
667.7294	0.0159
667.9139	-0.0143
668.0985	0.0089
668.283	-0.0074
668.4675	0.0203
668.652	0.0331
668.8365	-0.001
669.0209	0.0042
669.2054	0.0038
669.3898	0.0067
669.5742	0.0181
669.7586	0.0156
669.943	-0.0003
670.1273	-0.0056
670.3117	0.0121
670.496	0.0204
670.6803	-0.0047
670.8646	-0.0262
671.0488	0.0293
671.2331	-0.015
671.4173	0.0165
671.6015	-0.006
671.7857	-0.0043
671.9699	0.0146
672.1541	-0.0054
672.3382	-0.009
672.5223	0.0087
672.7064	0.0058
672.8905	-0.0124
673.0746	0.0092
673.2587	0.0094
673.4427	0.0211
673.6267	0.0176
673.8107	0.017
673.9947	0.0078
674.1787	0.0253
674.3626	0.0209
674.5465	0.0384
674.7304	0.0102
674.9143	0.0039
675.0982	0.0028
675.2821	0.0032
675.4659	-0.0167
675.6497	0.0023
675.8335	0.0112
676.0173	0.004
676.2011	0.0145
676.3849	0.0132
676.5686	-0.0045
676.7523	-0.0049
676.936	-0.0067
677.1197	-0.0016
677.3034	0.0198
677.487	0.0019
677.6706	0.0105
677.8542	0.0075
678.0378	0.0112
678.2214	-0.0023
678.405	0.0136
678.5885	-0.0062
678.772	0.005
678.9555	0.008
679.139	0.0082
679.3225	0.0025
679.5059	0.0101
679.6894	0.0019
679.8728	-0.0059
680.0562	-0.0057
680.2395	-0.0016
680.4229	-0.0017
680.6062	-0.0019
680.7896	-0.0279
680.9729	0.0215
681.1562	0.0016
681.3394	-0.0074
681.5227	0.0042
681.7059	0.0055
681.8891	-0.0045
682.0723	-0.0122
682.2555	-0.0117
682.4387	0.0098
682.6218	-0.0081
682.805	-0.0017
682.9881	0.0178
683.1712	0.0059
683.3542	0.0288
683.5373	-0.0071
683.7203	0.0007
683.9034	-0.0055
684.0864	0.0199
684.2694	-0.0113
684.4523	0.0029
684.6353	-0.0141
684.8182	-0.0018
685.0011	0.0128
685.184	0.0101
685.3669	0.0317
685.5498	-0.0061
685.7326	0.0064
685.9154	-0.0146
686.0982	0.026
686.281	0.0068
686.4638	0.011
686.6465	0.0043
686.8293	0.0002
687.012	0.0111
687.1947	0.0017
687.3774	0.0039
687.56	-0.0122
687.7427	-0.0091
687.9253	-0.0323
688.1079	0.0012
688.2905	-0.0298
688.4731	0.0095
688.6556	0.0088
688.8382	-0.0132
689.0207	0.014
689.2032	0.0007
689.3857	-0.0024
689.5681	-0
689.7506	0.0263
689.933	-0.0073
690.1154	-0.0017
690.2978	-0.0201
690.4802	0.017
690.6626	-0.0056
690.8449	0.0091
691.0272	-0.0093
691.2095	-0.0121
691.3918	-0.0013
691.5741	-0.0027
691.7563	0.0051
691.9386	0.0137
692.1208	0.0025
692.303	-0.001
692.4852	0.0089
692.6673	-0.012
692.8495	-0.012
693.0316	-0.0012
693.2137	0.0031
693.3958	0.0106
693.5778	0.0053
693.7599	-0.0107
693.9419	-0.0137
694.1239	0.0136
694.3059	-0.0026
694.4879	0.0035
694.6699	-0.0128
694.8518	0.0048
695.0337	0.0211
695.2157	0.0318
695.3975	-0.0107
695.5794	-0.0125
695.7613	-0.0106
695.9431	-0.0074
696.1249	0.013
696.3067	-0.0217
696.4885	0.0273
696.6703	0.0055
696.852	0.0032
697.0337	0.0079
697.2154	0.0095
697.3971	-0.0047
697.5788	0.0132
697.7605	-0.0153
697.9421	0.0069
698.1237	0.003
698.3053	-0.0094
698.4869	0.0005
698.6685	-0.0333
698.85	0.0098
699.0315	-0.0117
699.213	0.0274
699.3945	0.0017
699.576	0.0148
699.7575	0.034
699.9389	0.0207
700.1203	-0.0016
700.3017	0.0139
700.4831	0.0161
700.6645	0.0102
700.8458	-0.0144
701.0271	0.014
701.2084	-0.0093
701.3897	-0.0103
701.571	-0.0299
701.7523	0.0028
701.9335	-0.0185
702.1147	0.0207
702.2959	0.0093
702.4771	0.0075
702.6583	0.0284
702.8394	-0.006
703.0205	0.009
703.2016	-0.0093
703.3827	-0.005
703.5638	0.0092
703.7449	0.0514
703.9259	0.0117
704.1069	-0.0231
704.2879	0.0135
704.4689	-0.0074
704.6499	0.0111
704.8308	-0.0177
705.0117	0.0056
705.1927	0.0264
705.3735	0.0217
705.5544	0.0041
705.7353	-0.0112
705.9161	-0.0211
706.0969	0.0261
706.2777	0.005
706.4585	0.0046
706.6393	0.0127
706.82	0.0078
707.0007	-0.0106
707.1815	-0.0004
707.3621	0.0208
707.5428	0.0241
707.7235	-0.0027
707.9041	0.0141
708.0847	0.0013
708.2653	0.0293
708.4459	-0.0018
708.6265	-0.0257
708.807	0.0077
708.9875	-0.0069
709.168	-0.0087
709.3485	0.0224
709.529	0.0025
709.7095	-0.0267
709.8899	0.0163
710.0703	0.0069
710.2507	-0.0065
710.4311	-0.0098
710.6115	0.0288
710.7918	0.0116
710.9721	0.0017
711.1524	-0.0015
711.3327	0.0063
711.513	-0.0071
711.6932	0.012
711.8735	0.006
712.0537	-0.0089
712.2339	0.0236
712.4141	0.0064
712.5942	-0.0154
712.7744	0.0217
712.9545	0.027
713.1346	0.0326
713.3147	0.0008
713.4947	0.0019
713.6748	-0.0063
713.8548	0.0037
714.0348	0.0113
714.2148	0.0062
714.3948	-0.0011
714.5748	0.0139
714.7547	0.0157
714.9346	0.0158
715.1145	0.0017
715.2944	-0.0181
715.4743	0.0123
715.6541	0.0065
715.834	0.039
716.0138	0.0053
716.1936	-0.0268
716.3733	0.0035
716.5531	0.0278
716.7328	0.0126
716.9126	0.028
717.0923	-0.0277
717.2719	0.0027
717.4516	0.0024
717.6312	-0.0209
717.8109	0.028
717.9905	0.0207
718.1701	-0.004
718.3496	0.014
718.5292	-0.0111
718.7087	-0.0067
718.8882	0.0369
719.0677	0.0011
719.2472	0.008
719.4267	-0.0077
719.6061	-0.0139
719.7856	0.0068
719.965	0.0085
720.1443	-0.0093
720.3237	-0.0031
720.5031	0.0147
720.6824	0.0104
720.8617	0.0183
721.041	0.0187
721.2203	0.0061
721.3995	0.0136
721.5788	-0.0154
721.758	-0.0183
721.9372	-0.0231
722.1164	0.0175
722.2956	0.0009
722.4747	-0.0048
722.6538	-0.0173
722.8329	0.0353
723.012	-0
723.1911	-0.0251
723.3702	0.0076
723.5492	0.0039
723.7282	-0.0127
723.9072	0.0317
724.0862	-0.0183
724.2652	0.0229
724.4441	-0.0037
724.623	0.0137
724.8019	0.0032
724.9808	0.0199
725.1597	0.017
725.3385	-0.0107
725.5174	0.0058
725.6962	0.0314
725.875	0.0117
726.0538	0.0195
726.2325	0.0345
726.4112	0.0019
726.59	-0.0035
726.7687	-0.0066
726.9474	0.0182
727.126	0.0154
727.3047	0.0067
727.4833	0.0248
727.6619	-0.0064
727.8405	-0.0041
728.0191	0.0322
728.1976	-0.0156
728.3762	0.0065
728.5547	0.0033
728.7332	-0.0041
728.9116	0.0106
729.0901	0.007
729.2686	0.0206
729.447	-0.0097
729.6254	0.0028
729.8038	0.0025
729.9821	-0.0028
730.1605	0.0139
730.3388	0.0029
730.5171	0.0012
730.6954	-0.0201
730.8737	-0.0066
731.0519	-0.012
731.2302	0.0152
731.4084	-0.0128
731.5866	-0.006
731.7648	0.0091
731.9429	-0.0014
732.1211	-0.0196
732.2992	-0.0134
732.4773	0.008
732.6554	-0.0139
732.8335	0.0145
733.0115	0.015
733.1896	-0.0024
733.3676	0.0229
733.5456	0.0101
733.7235	-0.0073
733.9015	0.0068
734.0794	-0.0059
734.2574	-0.0147
734.4353	0.0274
734.6131	-0.0033
734.791	-0.0122
734.9689	-0.0079
735.1467	-0.0231
735.3245	0.0076
735.5023	0.0137
735.68	0.008
735.8578	-0.0024
736.0355	0.0235
736.2132	0.0064
736.3909	0.0246
736.5686	-0.0073
736.7463	-0.0323
736.9239	0.0172
737.1015	-0.0006
737.2791	0.0064
737.4567	0.0003
737.6343	-0.0164
737.8118	0.0032
737.9894	0.0301
738.1669	-0.0066
738.3444	0.0226
738.5218	-0.029
738.6993	0.0066
738.8767	0.006
739.0541	0.0022
739.2315	0.0104
739.4089	0.0346
739.5863	0.0175
739.7636	-0.0075
739.9409	-0.0033
740.1182	0.0302
740.2955	0.0078
740.4728	-0.0253
740.65	-0.0275
740.8272	0.013
741.0044	-0.0104
741.1816	0.0058
741.3588	-0.0185
741.5359	0.0153
741.7131	0.0292
741.8902	0.0029
742.0673	-0.0114
742.2444	0.0186
742.4214	0.0181
742.5985	0.0135
742.7755	-0.0077
742.9525	-0.0202
743.1295	-0.0399
743.3064	-0.0087
743.4834	-0.0079
743.6603	0.0427
743.8372	-0.0467
744.0141	0.0151
744.191	0.0196
744.3678	-0.0356
744.5446	-0.0036
744.7215	0.0121
744.8982	0.0173
745.075	0.045
745.2518	0.0027
745.4285	0.0233
745.6052	-0.0267
745.7819	0.0014
745.9586	0.0208
746.1353	-0.0267
746.3119	0.0042
746.4885	0.0064
746.6651	-0.0169
746.8417	0.0115
747.0183	0.033
747.1948	0.003
747.3714	0.0095
747.5479	0.0175
747.7244	-0.0242
747.9008	-0.0164
748.0773	0.0376
748.2537	0.0404
748.4301	0.0375
748.6065	-0.0076
748.7829	-0.0212
748.9593	-0.012
749.1356	0.014
749.3119	-0.0035
749.4882	0.0071
749.6645	0.0073
749.8408	0.0162
750.017	-0.0064
750.1933	-0.0428
750.3695	0.0089
750.5457	0.0044
750.7218	-0.0079
750.898	-0.008
751.0741	-0.0088
751.2502	0.0267
751.4263	0.0118
751.6024	0.0131
751.7784	0.0018
751.9545	0.0078
752.1305	0.0011
752.3065	0.0106
752.4825	0.0048
752.6584	0.0004
752.8344	0.0108
753.0103	-0.0252
753.1862	0.0109
753.3621	-0.0075
753.5379	0.0017
753.7138	-0.013
753.8896	-0.0063
754.0654	-0.0073
754.2412	0.0267
754.417	0.0147
754.5927	-0.0024
754.7685	-0.0094
754.9442	0.0321
755.1199	0.0208
755.2956	0.003
755.4712	0.0021
755.6469	-0.004
755.8225	-0.0075
755.9981	0.0194
756.1736	-0.0022
756.3492	0.0034
756.5248	0.0164
756.7003	0.0007
756.8758	0.0015
757.0513	-0.0016
757.2267	0.0088
757.4022	-0.0055
757.5776	-0.0095
757.753	0.0135
757.9284	0.0068
758.1038	0.0008
758.2791	0.0152
758.4545	-0.004
758.6298	0.0287
758.8051	0.0116
758.9803	0.0195
759.1556	0.0099
759.3308	-0.0023
759.506	0.0069
759.6812	0.0065
759.8564	0.0021
760.0316	0.0049
760.2067	0.0097
760.3819	-0.0012
760.557	-0.0048
760.732	-0.0093
760.9071	0.0153
761.0821	-0.0158
761.2572	-0.0011
761.4322	0.0087
761.6072	0.0055
761.7821	-0.0344
761.9571	0.0205
762.132	-0.0004
762.3069	0.036
762.4818	0.0061
762.6567	-0.0175
762.8316	0.0425
763.0064	0.0205
763.1812	0.0132
763.356	-0.0259
763.5308	0.0203
763.7055	-0.0034
763.8803	-0.0067
764.055	-0.0118
764.2297	-0.0209
764.4044	-0.0096
764.579	-0.0084
764.7537	0.0007
764.9283	0.0161
765.1029	0.0038
765.2775	0.0052
765.4521	0.008
765.6266	-0.0086
765.8011	0.0222
765.9756	-0.0043
766.1501	-0.0129
766.3246	-0.0005
766.4991	-0.0033
766.6735	0.0371
766.8479	-0.01
767.0223	0.0405
767.1967	-0.0101
767.371	0.0088
767.5454	0.0295
767.7197	0.0139
767.894	0.0139
768.0683	0.0165
768.2425	0.0025
768.4168	-0.0108
768.591	0.0168
768.7652	0.0015
768.9394	-0.0204
769.1135	-0.0128
769.2877	-0.0115
769.4618	0.0074
769.6359	0.0088
769.81	0.031
769.984	0.0008
770.1581	0.0199
770.3321	0.0069
770.5061	-0.0206
770.6801	-0.0017
770.8541	0.008
771.028	0.0343
771.202	0.04
771.3759	-0.008
771.5498	0.0179
771.7236	-0.0192
771.8975	0.0097
772.0713	-0.0356
772.2451	-0.0068
772.4189	0.0054
772.5927	-0.0613
772.7665	-0.0332
772.9402	0.0349
773.1139	-0.0262
773.2876	-0.0173
773.4613	-0.0034
773.635	0.0419
773.8086	0.0297
773.9822	0.0073
774.1558	0.0285
774.3294	0.0082
774.503	-0.0055
774.6765	0.011
774.8501	-0.0366
775.0236	0.0223
775.1971	0.0008
775.3705	0.0134
775.544	0.0215
775.7174	0.0158
775.8908	0.0124
776.0642	0.0193
776.2376	0.0059
776.4109	0.0069
776.5843	0.0071
776.7576	0.0051
776.9309	0.0067
777.1041	-0.0157
777.2774	0.0058
777.4506	0.021
777.6238	0.0071
777.797	-0.0104
777.9702	0.0153
778.1434	0.0025
778.3165	-0.0383
778.4896	-0.0218
778.6627	0.0069
778.8358	-0.0302
779.0089	-0.0301
779.1819	0.0065
779.3549	0.0141
779.5279	-0.0355
779.7009	0.0497
779.8739	0.0276
780.0468	-0.0077
780.2197	0.0211
780.3926	-0.0388
780.5655	0.0093
780.7384	0.0088
780.9112	0.0167
781.0841	0.0056
781.2569	0.0077
781.4297	0.0041
781.6024	0.02
781.7752	0.0292
781.9479	0.0276
782.1206	0.0101
782.2933	0.0006
782.466	0.0174
782.6386	-0.0146
782.8113	-0.0092
782.9839	-0.0023
783.1565	0.0128
783.329	-0.0069
783.5016	0.0017
783.6741	-0.0255
783.8466	0.0359
784.0191	0.0341
784.1916	-0.0327
784.3641	-0.0098
784.5365	0.0085
784.7089	-0.0413
784.8813	0.0394
785.0537	0.0562
785.2261	0.0143
785.3984	0.0028
785.5707	-0.023
785.743	0.0074
785.9153	-0.0109
786.0876	-0.0379
786.2598	-0.0059
786.432	0.0121
786.6042	0.0462
786.7764	-0.0256
786.9486	0.0028
787.1207	0.0421
787.2928	0.0307
787.4649	-0.0109
787.637	0.0012
787.8091	-0.0194
787.9811	0.0471
788.1532	-0.0179
788.3252	-0.0035
788.4972	0.0331
788.6691	0.0107
788.8411	-0.0308
789.013	0.0366
789.1849	0.0057
789.3568	-0.0093
789.5287	0.0509
789.7005	0.0213
789.8723	-0.0102
790.0442	-0.0611
790.2159	-0.0221
790.3877	0.0479
790.5595	0.0529
790.7312	-0.0759
790.9029	-0.0466
791.0746	0.0023
791.2463	-0.0627
791.4179	-0.0145
791.5896	0.0089
791.7612	0.0321
791.9328	0.0114
792.1044	0.0343
792.2759	0.01
792.4474	0.0082
792.619	0.0138
792.7905	-0.0057
792.9619	0.0906
793.1334	0.0182
793.3048	0.0477
793.4762	0.0251
793.6476	-0.0535
793.819	-0.0157
793.9904	0.003
794.1617	-0.0386
794.333	0.0497
794.5043	0.0058
794.6756	0.0165
794.8469	0.0142
795.0181	0.0089
795.1893	0.0466
795.3605	0.029
795.5317	-0.0016
795.7029	-0.0447
795.874	0.0483
796.0452	0.0704
796.2163	0.0445
796.3873	0.0425
796.5584	0.0439
796.7294	-0.0439
796.9005	-0.0044
797.0715	0.0608
797.2425	0.0569
797.4134	0.0333
797.5844	0.0348
797.7553	-0.0281
797.9262	0.0849
798.0971	0.0021
798.2679	-0.0024
798.4388	-0
798.6096	-0.0378
798.7804	0.0614
798.9512	0.0118
799.122	-0.0392
799.2927	0.0497
799.4635	0.0604
799.6342	-0.1007
799.8049	0.0568
799.9755	-0.0252
800.1462	0.046
800.3168	0.0229
800.4874	-0.0545
800.658	0.0036
800.8286	-0.0137
800.9991	-0.0016
801.1696	-0.0185
801.3402	-0.0347
801.5106	-0.0104
801.6811	0.0108
801.8516	0.1426
802.022	0.0394
802.1924	-0.0143
802.3628	0.0119
802.5332	0.0467
802.7035	0.0702
802.8739	-0.03
803.0442	-0.0737
803.2145	0.0287
803.3847	-0.0255
803.555	0.0451
803.7252	-0.0258
803.8954	-0.0362
804.0656	-0.0075
804.2358	0.046
804.4059	0.0206
804.5761	0.0375
804.7462	0.0455
804.9163	0.036
805.0864	-0.0764
805.2564	-0.013
805.4264	-0.0287
805.5965	0.0014
805.7665	-0.0208
805.9364	0.0158
806.1064	-0.0261
806.2763	0.051
806.4462	0.0604
806.6161	0.0491
806.786	0.0441
806.9559	0.0333
807.1257	-0.002
807.2955	0.0196
807.4653	-0.0175
807.6351	0.0788
807.8048	0.0325
807.9746	0.0336
808.1443	0.0236
808.314	0.0302
808.4837	0.0643
808.6533	0.0462
808.8229	0.0169
808.9926	0.0068
809.1622	0.0924
809.3317	-0.0102
809.5013	0.1167
809.6708	-0.0082
809.8403	0.0955
810.0098	0.0144
810.1793	0.1035
810.3488	0.0177
810.5182	0.1167
810.6876	0.0259
810.857	0.0274
811.0264	-0.1066
811.1958	0.1355
811.3651	-0.0047
811.5344	0.1765
811.7037	0.0492
811.873	0.0403
812.0422	-0.047
812.2115	-0.0421
812.3807	-0.1787
812.5499	-0
812.7191	-0.0397
812.8882	-0.0124
813.0574	-0.0326
813.2265	0.0055
813.3956	0.0461
813.5646	0.033
813.7337	0.0277
813.9027	-0.0682
814.0718	-0.0152
814.2407	0.1638
814.4097	0.0851
814.5787	0.0204
814.7476	0.0348
814.9165	0.1277
815.0854	0.0458
815.2543	-0.0183
815.4232	0.0985
815.592	0.1211
815.7608	-0.0423
815.9296	0.0171
816.0984	0.1116
816.2671	-0.1396
816.4359	0.1153
816.6046	0.0764
816.7733	-0.1446
816.942	-0.0528
817.1106	0.0588
817.2793	-0.0542
817.4479	0.077
817.6165	-0.0074
817.785	0.0232
817.9536	-0.0317
818.1221	0.0889
818.2906	-0.085
818.4591	0.1194
818.6276	0.0099
818.7961	-0.0965
818.9645	0.0428
819.1329	0.1605
819.3013	-0.0247
819.4697	-0.0704
819.638	0.3074
819.8064	0.2557
819.9747	0.1376
820.143	-0.0117
820.3113	-0
820.4795	0.0871
820.6477	0.0808
820.816	0.1011
820.9842	0.1452
821.1523	-0.0398
821.3205	0.0271
821.4886	0.0688
821.6567	0.0564
821.8248	0.0988
821.9929	-0.1735
822.1609	-0.1344
822.329	-0.0759
822.497	-0.0025
822.665	-0.0488
822.833	-0.0255
823.0009	0.0809
823.1688	0.0129
823.3367	-0.1713
823.5046	0.0772
823.6725	-0.0346
823.8404	0.0048
824.0082	0.0216
824.176	-0.0564
824.3438	0.1134
824.5116	0.0582
824.6793	0.2556
824.847	0.0832
825.0147	0.4014
825.1824	-0.0101
825.3501	-0.2257
825.5177	-0.0525
825.6854	-0.0943
825.853	-0.0335
826.0206	-0.0697
826.1881	0.1504
826.3557	-0
826.5232	0.0667
826.6907	-0.0116
826.8582	-0.0408
827.0257	-0.0316
827.1931	0.1578
827.3605	-0.1449
827.528	0.0553
827.6953	-0.0614
827.8627	0.0236
828.03	0.0824
828.1974	-0.0794
828.3647	-0.0652
828.532	0.013
828.6992	0.1015
828.8665	-0.1676
829.0337	-0.0912
829.2009	-0.0949
829.3681	0.0801
829.5352	-0.2769
829.7024	-0.0171
829.8695	0.1267
830.0366	0.0599
830.2037	0.0453
830.3707	0.1003
830.5378	-0.0665
830.7048	-0.1578
830.8718	0.2202
831.0388	0.1365
831.2057	0.0979
831.3727	-0.2243
831.5396	0.0514
831.7065	-0.9303
831.8734	0.4019
832.0402	0.0498
832.2071	-0.3608
832.3739	-0.2976
832.5407	-1.7471
832.7075	-0.5271
832.8742	0.7124
833.041	0.144
833.2077	0.1714
833.3744	0.0706
833.541	-0.0046
833.7077	-0.0691
833.8743	0.1791
834.0409	0.2105
834.2075	0.1349
834.3741	-0.153
834.5407	0.1905
834.7072	0.1995
834.8737	0.1144
835.0402	-0
835.2067	-0.159
835.3731	-0.1491
835.5395	0.0765
835.706	-0.1234
835.8723	0.0434
836.0387	0.1135
836.2051	0.0702
836.3714	0.0584
836.5377	0.1738
836.704	0.1136
836.8703	-0.1459
837.0365	-0.7285
837.2027	0.2376
837.3689	0.9078
837.5351	-0.0522
837.7013	0.076
837.8674	-0.4295
838.0335	0.0105
838.1997	-0.154
838.3657	0.6362
838.5318	-0.3563
838.6978	0.2164
838.8639	-0.5542
839.0299	0.0356
839.1958	0.1725
839.3618	-0
839.5277	-0.0859
839.6937	-0.1562
839.8596	-0.324
840.0254	0.2415
840.1913	-0.2069
840.3571	0.076
840.523	-0
840.6888	-0.1362
840.8545	-0.6326
841.0203	0.0629
841.186	0.0307
841.3517	0.0493
841.5174	-0.0402
841.6831	0.2044
841.8488	-0.1423
842.0144	0.1781
842.18	0.0657
842.3456	-0.1921
842.5112	-0
842.6767	0.1531
842.8422	-0.2275
843.0077	0.2401
843.1732	-0.284
843.3387	0.1995
843.5042	-0
843.6696	-0.1522
843.835	0.375
844.0004	0.0542
844.1657	-0.9643
844.3311	0.1288
844.4964	-0.6527
844.6617	0.7113
844.827	0.803
844.9923	0.2073
845.1575	-0.4174
845.3227	0.1415
845.4879	-0.482
845.6531	0.0799
845.8183	0.2528
845.9834	-0
846.1485	-0.0153
846.3136	-0.2675
846.4787	-0
846.6438	0.6331
846.8088	-0
846.9738	-0.6729
847.1388	0.3523
847.3038	-0
847.4687	-0
847.6337	-0
847.7986	0.667
847.9635	0.3165
848.1284	1.2352
848.2932	0.3043
848.458	-0
848.6228	-0.0117
848.7876	0.094
848.9524	-0
849.1172	-1.4792
849.2819	-0.5315
849.4466	0.7218
849.6113	-0.1983
849.7759	0.2346
849.9406	-0.1905
850.1052	-0
850.2698	-0.6067
850.4344	0.0614
850.599	0.6196
850.7635	1.2918
850.928	0.1261
851.0925	0.3381
851.257	-0.1823
851.4215	0.4217
851.5859	-0.1044
851.7503	-0
851.9147	-0.1703
852.0791	0.191
852.2434	-0
852.4078	1.0367
852.5721	0.2868
852.7364	0.2283
852.9007	0.0088
853.0649	-0
853.2291	0.4756
853.3934	-0
853.5575	-0.3821
853.7217	0.4991
853.8859	-0
854.05	-0.1275
854.2141	1.0282
854.3782	-0.3046
854.5423	0.5839
854.7063	-0.0845
854.8703	0.0478
855.0343	-0.0711
855.1983	0.0563
855.3623	0.1995
855.5262	0.1577
855.6901	0.2798
855.854	0.208
856.0179	0.1065
856.1818	1.8833
856.3456	0.4058
856.5094	-0.7346
856.6732	-0
856.837	-1.1391
857.0008	-0.6052
857.1645	-0
857.3282	-0.4337
857.4919	0.0767
857.6556	-0
857.8192	0.0225
857.9828	0.0352
858.1465	-0.249
858.31	-0
858.4736	-0.7706
858.6372	-0
858.8007	-0.0904
858.9642	-0
859.1277	0.9138
859.2911	-0.248
859.4546	-0
859.618	0.1315
859.7814	-0.0218
859.9448	-0
860.1081	0.7444
860.2715	-0
860.4348	0.281
860.5981	2.0092
860.7614	-0.4217
860.9246	-0.3801
861.0879	0.9252
861.2511	-0
861.4143	-0
861.5774	-0.2682
861.7406	0.9219
861.9037	-0
862.0668	-0.7114
862.2299	-0
862.393	-0
862.556	-0
862.7191	-0.3706
862.8821	0.146
863.0451	-0.129
863.208	-0.1199
863.371	-0.4201
863.5339	0.2378
863.6968	-0
863.8597	-0.3823
864.0225	-0
864.1854	-0.069
864.3482	-0.6124
864.511	-0.0838
864.6737	0.594
864.8365	-0.0941
864.9992	1.5476
865.1619	-0.0524
865.3246	-2.0077
865.4873	-0.6331
865.65	-0
865.8126	-0
865.9752	0.0565
866.1378	0.2354
866.3004	-0.1931
866.4629	-0
866.6254	0.184
866.7879	0.0938
866.9504	-0
867.1129	-0.5044
867.2753	-0.2512
867.4377	-0.2392
867.6001	-0.0488
867.7625	0.1896
867.9249	0.6069
868.0872	0.2635
868.2495	0.616
868.4118	-0
868.5741	-0.7789
868.7363	0.9138
868.8986	-0.5129
869.0608	-0
869.223	-0.5063
869.3851	-0
869.5473	0.0851
869.7094	-0
869.8715	-0.2642
870.0336	-0.1228
870.1957	-0.8883
870.3577	0.4314
870.5197	-0.3754
870.6817	-0.9419
870.8437	-0.034
871.0057	1.8205
871.1676	0.0411
871.3295	-0
871.4914	-0
871.6533	-0
871.8151	1.3481
871.977	1.4267
872.1388	0.0228
872.3006	-0.668
872.4623	-0.3146
872.6241	-0
872.7858	0.0294
872.9475	0.8235
873.1092	0.0677
873.2709	0.3959
873.4325	-1.979
873.5941	-0.4543
873.7557	0.1369
873.9173	1.0589
874.0789	0.7432
874.2404	-0
874.4019	0.0156
874.5634	0.1014
874.7249	0.4895
874.8863	0.2232
875.0478	-0.4344
875.2092	0.9803
875.3706	0.1181
875.5319	-0
875.6933	1.2859
875.8546	-0.0558
876.0159	0.1338
876.1772	0.7819
876.3385	-0
876.4997	-0
876.6609	0.9604
876.8221	-0
876.9833	-0
877.1445	0.1889
877.3056	-0
877.4667	-0
877.6278	-0
877.7889	0.1225
877.9499	1.7471
878.111	-0.4755
878.272	-0
878.433	-0
878.5939	-0
878.7549	-0
878.9158	-0
879.0767	-0
879.2376	-0
879.3984	0.7039
879.5593	0.8547
879.7201	-0
879.8809	0.195
880.0417	-0.4069
880.2024	-0.1259
880.3632	-0.0692
880.5239	0.2303
880.6846	-0.3114
880.8452	-0.0128
881.0059	-0.5693
881.1665	-0.0361
881.3271	-0
881.4877	-0
881.6483	-1.3318
881.8088	-0
881.9693	-0
882.1298	-0
882.2903	-0
