Data from D4ACN5uM460nmA_Absorbance_13-05-42-860.txt Node
Date: Fri Feb 21 13:05:42 GMT 2025
User: LASERRRRR
Spectrometer: FLMT03099
Trigger mode: 0
Integration Time (sec): 1.500000E-2
Scans to average: 1
Electric dark correction enabled: true
Nonlinearity correction enabled: false
Boxcar width: 0
XAxis mode: Wavelengths
Number of Pixels in Spectrum: 3648
>>>>>Begin Spectral Data<<<<<
179.3399	-0
179.5586	-0
179.7771	-0
179.9957	-0.0297
180.2143	-1.2231
180.4329	-0
180.6514	-1.2085
180.8699	-0
181.0885	-0.2347
181.307	-0.122
181.5255	0.48
181.744	0.2218
181.9625	0.1178
182.181	-0
182.3994	-0.1442
182.6179	-0
182.8363	-0
183.0547	0.419
183.2732	0.3469
183.4916	0.3519
183.71	1.0395
183.9284	0.3095
184.1467	0.1322
184.3651	0.2305
184.5835	0.2967
184.8018	0.0909
185.0201	0.2461
185.2385	0.2158
185.4568	0.1679
185.6751	0.7517
185.8934	-0
186.1117	0.0226
186.3299	0.1072
186.5482	0.296
186.7664	0.2108
186.9847	0.0976
187.2029	0.2421
187.4211	-0.0078
187.6393	0.256
187.8575	0.2048
188.0757	0.2099
188.2939	0.2017
188.512	0.1819
188.7302	0.074
188.9483	0.2248
189.1665	0.6187
189.3846	0.2949
189.6027	0.1449
189.8208	0.2657
190.0389	0.2182
190.257	0.2041
190.475	0.2079
190.6931	0.0957
190.9111	0.1656
191.1292	0.2473
191.3472	0.1843
191.5652	0.4158
191.7832	0.2728
192.0012	0.1827
192.2192	0.2386
192.4371	0.1656
192.6551	0.1011
192.873	0.2387
193.091	0.1082
193.3089	0.1409
193.5268	0.2839
193.7447	0.1932
193.9626	0.2287
194.1805	0.1546
194.3984	0.276
194.6162	0.2775
194.8341	0.2893
195.0519	0.2499
195.2697	0.2244
195.4875	0.296
195.7054	0.3063
195.9231	0.2771
196.1409	0.3776
196.3587	0.3465
196.5765	0.3863
196.7942	0.3128
197.012	0.3482
197.2297	0.3125
197.4474	0.5024
197.6651	0.3575
197.8828	0.3988
198.1005	0.4422
198.3182	0.4
198.5358	0.3587
198.7535	0.3725
198.9711	0.3735
199.1888	0.3627
199.4064	0.4653
199.624	0.3957
199.8416	0.3592
200.0592	0.3834
200.2767	0.3626
200.4943	0.4362
200.7119	0.4383
200.9294	0.4085
201.1469	0.3788
201.3645	0.4972
201.582	0.4148
201.7995	0.4402
202.017	0.4391
202.2344	0.44
202.4519	0.3945
202.6694	0.4069
202.8868	0.3931
203.1042	0.4473
203.3217	0.4096
203.5391	0.4114
203.7565	0.3643
203.9739	0.3808
204.1913	0.3384
204.4086	0.354
204.626	0.3672
204.8433	0.3686
205.0607	0.3705
205.278	0.3575
205.4953	0.3361
205.7126	0.324
205.9299	0.3302
206.1472	0.3362
206.3644	0.3483
206.5817	0.3082
206.7989	0.3483
207.0162	0.3393
207.2334	0.3206
207.4506	0.3282
207.6678	0.3258
207.885	0.2874
208.1022	0.3259
208.3194	0.3261
208.5365	0.3053
208.7537	0.2961
208.9708	0.2994
209.1879	0.3051
209.405	0.2737
209.6222	0.2755
209.8392	0.3154
210.0563	0.2946
210.2734	0.2811
210.4905	0.2702
210.7075	0.2667
210.9245	0.2703
211.1416	0.2996
211.3586	0.2643
211.5756	0.2525
211.7926	0.272
212.0096	0.2676
212.2265	0.2736
212.4435	0.2629
212.6604	0.2481
212.8774	0.2613
213.0943	0.2709
213.3112	0.2661
213.5281	0.2677
213.745	0.2411
213.9619	0.2604
214.1788	0.263
214.3956	0.2547
214.6125	0.252
214.8293	0.2536
215.0461	0.2604
215.2629	0.2631
215.4798	0.2369
215.6965	0.2574
215.9133	0.2385
216.1301	0.2433
216.3469	0.2444
216.5636	0.2584
216.7803	0.2561
216.9971	0.2624
217.2138	0.2707
217.4305	0.2546
217.6472	0.2386
217.8639	0.2696
218.0805	0.2607
218.2972	0.2477
218.5138	0.2582
218.7305	0.2706
218.9471	0.2492
219.1637	0.2628
219.3803	0.2508
219.5969	0.2666
219.8135	0.272
220.0301	0.2682
220.2466	0.2778
220.4632	0.2497
220.6797	0.2703
220.8962	0.2709
221.1127	0.2702
221.3292	0.2748
221.5457	0.2954
221.7622	0.2728
221.9787	0.2985
222.1951	0.2809
222.4116	0.2657
222.628	0.289
222.8444	0.2758
223.0608	0.2794
223.2772	0.2874
223.4936	0.2987
223.71	0.2907
223.9264	0.29
224.1427	0.2936
224.3591	0.2939
224.5754	0.3105
224.7917	0.2941
225.008	0.2931
225.2243	0.3083
225.4406	0.2971
225.6569	0.3052
225.8732	0.3069
226.0894	0.3034
226.3057	0.3234
226.5219	0.3209
226.7381	0.3225
226.9543	0.3163
227.1705	0.3196
227.3867	0.3273
227.6029	0.3298
227.8191	0.3311
228.0352	0.3334
228.2513	0.3461
228.4675	0.3347
228.6836	0.3544
228.8997	0.3474
229.1158	0.3663
229.3319	0.3566
229.548	0.3678
229.764	0.3574
229.9801	0.3706
230.1961	0.3826
230.4121	0.3688
230.6282	0.3817
230.8442	0.3805
231.0602	0.3905
231.2761	0.3908
231.4921	0.3945
231.7081	0.3962
231.924	0.3979
232.14	0.4014
232.3559	0.4041
232.5718	0.4212
232.7877	0.4175
233.0036	0.4059
233.2195	0.4128
233.4353	0.4104
233.6512	0.413
233.867	0.414
234.0829	0.4375
234.2987	0.4241
234.5145	0.4357
234.7303	0.4316
234.9461	0.4426
235.1619	0.4356
235.3776	0.4331
235.5934	0.4369
235.8091	0.4486
236.0249	0.4379
236.2406	0.4331
236.4563	0.4476
236.672	0.4426
236.8877	0.4417
237.1034	0.4499
237.319	0.4428
237.5347	0.454
237.7503	0.4583
237.966	0.4625
238.1816	0.4466
238.3972	0.451
238.6128	0.465
238.8284	0.4644
239.0439	0.4585
239.2595	0.4614
239.475	0.4652
239.6906	0.4586
239.9061	0.4609
240.1216	0.4613
240.3371	0.4612
240.5526	0.4654
240.7681	0.4651
240.9836	0.4699
241.199	0.455
241.4145	0.4471
241.6299	0.4497
241.8453	0.4286
242.0607	0.4286
242.2761	0.4335
242.4915	0.4235
242.7069	0.4158
242.9223	0.4164
243.1376	0.4042
243.353	0.4016
243.5683	0.3898
243.7836	0.3756
243.9989	0.3719
244.2142	0.372
244.4295	0.3715
244.6448	0.3615
244.86	0.3505
245.0753	0.3454
245.2905	0.3473
245.5057	0.336
245.721	0.3324
245.9362	0.3206
246.1514	0.3169
246.3665	0.3066
246.5817	0.295
246.7969	0.2985
247.012	0.2872
247.2271	0.2865
247.4423	0.2837
247.6574	0.2865
247.8725	0.27
248.0876	0.2687
248.3026	0.2619
248.5177	0.2564
248.7328	0.2446
248.9478	0.2539
249.1628	0.2489
249.3779	0.2421
249.5929	0.2396
249.8079	0.2358
250.0228	0.2293
250.2378	0.2336
250.4528	0.2263
250.6677	0.2212
250.8827	0.2088
251.0976	0.2125
251.3125	0.2106
251.5274	0.211
251.7423	0.2073
251.9572	0.2077
252.172	0.2044
252.3869	0.2
252.6017	0.21
252.8166	0.1986
253.0314	0.197
253.2462	0.1981
253.461	0.196
253.6758	0.1941
253.8906	0.1952
254.1053	0.1929
254.3201	0.19
254.5348	0.1891
254.7496	0.1848
254.9643	0.1914
255.179	0.1796
255.3937	0.1884
255.6083	0.1904
255.823	0.1881
256.0377	0.1855
256.2523	0.1795
256.467	0.1866
256.6816	0.1834
256.8962	0.1818
257.1108	0.1798
257.3254	0.1818
257.54	0.1828
257.7545	0.1813
257.9691	0.1828
258.1836	0.1788
258.3981	0.1779
258.6127	0.1729
258.8272	0.1842
259.0417	0.17
259.2561	0.1755
259.4706	0.1763
259.6851	0.1796
259.8995	0.1721
260.114	0.1763
260.3284	0.1731
260.5428	0.1732
260.7572	0.1732
260.9716	0.1762
261.186	0.1728
261.4003	0.1718
261.6147	0.1757
261.829	0.1726
262.0433	0.1719
262.2577	0.1816
262.472	0.1841
262.6863	0.1802
262.9005	0.1775
263.1148	0.1775
263.3291	0.1789
263.5433	0.1754
263.7576	0.1803
263.9718	0.1714
264.186	0.1783
264.4002	0.179
264.6144	0.1831
264.8286	0.1787
265.0427	0.1789
265.2569	0.1801
265.471	0.1776
265.6851	0.1831
265.8993	0.1791
266.1134	0.1777
266.3275	0.1801
266.5415	0.1832
266.7556	0.1773
266.9697	0.1778
267.1837	0.1811
267.3978	0.175
267.6118	0.1667
267.8258	0.18
268.0398	0.1871
268.2538	0.179
268.4677	0.1727
268.6817	0.1771
268.8957	0.1673
269.1096	0.165
269.3235	0.1747
269.5374	0.1748
269.7514	0.1753
269.9652	0.1721
270.1791	0.166
270.393	0.1767
270.6068	0.1712
270.8207	0.1654
271.0345	0.1712
271.2483	0.1605
271.4622	0.1665
271.676	0.1676
271.8897	0.1639
272.1035	0.172
272.3173	0.1703
272.531	0.1717
272.7448	0.1686
272.9585	0.1659
273.1722	0.1654
273.3859	0.1677
273.5996	0.1676
273.8133	0.1673
274.0269	0.162
274.2406	0.1715
274.4542	0.1671
274.6679	0.1702
274.8815	0.172
275.0951	0.1774
275.3087	0.1733
275.5223	0.1749
275.7358	0.1708
275.9494	0.171
276.1629	0.172
276.3765	0.1782
276.59	0.1687
276.8035	0.1701
277.017	0.1726
277.2305	0.1732
277.444	0.1791
277.6574	0.176
277.8709	0.1787
278.0843	0.1735
278.2978	0.1732
278.5112	0.1785
278.7246	0.1703
278.938	0.1749
279.1513	0.1793
279.3647	0.1766
279.5781	0.172
279.7914	0.1782
280.0047	0.1807
280.2181	0.1763
280.4314	0.1745
280.6447	0.1788
280.8579	0.1777
281.0712	0.1793
281.2845	0.1781
281.4977	0.1776
281.711	0.1767
281.9242	0.179
282.1374	0.183
282.3506	0.1837
282.5638	0.1784
282.7769	0.1755
282.9901	0.1819
283.2033	0.1778
283.4164	0.1827
283.6295	0.177
283.8426	0.178
284.0557	0.1879
284.2688	0.185
284.4819	0.1778
284.695	0.1888
284.908	0.1757
285.1211	0.1817
285.3341	0.1798
285.5471	0.1874
285.7601	0.1838
285.9731	0.1821
286.1861	0.1837
286.3991	0.1881
286.612	0.1845
286.825	0.1861
287.0379	0.1867
287.2508	0.1842
287.4637	0.1852
287.6766	0.1836
287.8895	0.1886
288.1024	0.1882
288.3152	0.1881
288.5281	0.1872
288.7409	0.1991
288.9538	0.1893
289.1666	0.1895
289.3794	0.1952
289.5922	0.1875
289.8049	0.1861
290.0177	0.1889
290.2304	0.1896
290.4432	0.1906
290.6559	0.1937
290.8686	0.1894
291.0813	0.1947
291.294	0.1923
291.5067	0.1876
291.7194	0.189
291.932	0.1904
292.1447	0.196
292.3573	0.2
292.5699	0.1948
292.7825	0.1894
292.9951	0.1946
293.2077	0.1884
293.4203	0.1945
293.6328	0.188
293.8454	0.1897
294.0579	0.1961
294.2704	0.197
294.4829	0.1925
294.6954	0.1935
294.9079	0.1917
295.1204	0.1897
295.3328	0.2002
295.5453	0.1901
295.7577	0.193
295.9701	0.1943
296.1825	0.1936
296.3949	0.1837
296.6073	0.1901
296.8197	0.1941
297.0321	0.191
297.2444	0.1882
297.4567	0.1952
297.6691	0.1895
297.8814	0.1871
298.0937	0.1925
298.306	0.1922
298.5182	0.195
298.7305	0.19
298.9428	0.1921
299.155	0.1857
299.3672	0.1935
299.5794	0.1974
299.7916	0.1909
300.0038	0.1929
300.216	0.1914
300.4282	0.1971
300.6403	0.2029
300.8525	0.1991
301.0646	0.1946
301.2767	0.1949
301.4888	0.1945
301.7009	0.1966
301.913	0.1952
302.125	0.191
302.3371	0.1931
302.5491	0.1979
302.7612	0.1944
302.9732	0.1963
303.1852	0.1921
303.3972	0.1936
303.6092	0.1907
303.8211	0.1884
304.0331	0.1873
304.245	0.1857
304.457	0.1898
304.6689	0.1926
304.8808	0.1863
305.0927	0.186
305.3046	0.1793
305.5164	0.1834
305.7283	0.1787
305.9401	0.1698
306.152	0.1767
306.3638	0.1835
306.5756	0.1821
306.7874	0.1775
306.9992	0.172
307.2109	0.1724
307.4227	0.1699
307.6344	0.1728
307.8462	0.1669
308.0579	0.1701
308.2696	0.1685
308.4813	0.1655
308.693	0.1581
308.9046	0.1636
309.1163	0.1601
309.328	0.1584
309.5396	0.1533
309.7512	0.1518
309.9628	0.151
310.1744	0.1447
310.386	0.1444
310.5976	0.1498
310.8091	0.1477
311.0207	0.15
311.2322	0.145
311.4437	0.1399
311.6552	0.1449
311.8667	0.1443
312.0782	0.1403
312.2897	0.1444
312.5012	0.1386
312.7126	0.1347
312.924	0.1339
313.1355	0.1331
313.3469	0.1326
313.5583	0.133
313.7696	0.1301
313.981	0.1393
314.1924	0.1307
314.4037	0.1331
314.6151	0.134
314.8264	0.1361
315.0377	0.1233
315.249	0.1268
315.4603	0.1243
315.6716	0.1219
315.8828	0.1261
316.0941	0.1228
316.3053	0.1151
316.5165	0.1269
316.7277	0.1223
316.9389	0.1233
317.1501	0.1234
317.3613	0.1226
317.5724	0.1206
317.7836	0.1199
317.9947	0.121
318.2058	0.1197
318.417	0.1164
318.6281	0.1189
318.8391	0.1251
319.0502	0.1246
319.2613	0.1167
319.4723	0.1201
319.6834	0.1219
319.8944	0.1211
320.1054	0.1224
320.3164	0.1194
320.5274	0.1167
320.7383	0.1239
320.9493	0.1224
321.1602	0.1177
321.3712	0.1175
321.5821	0.1177
321.793	0.1252
322.0039	0.122
322.2148	0.1202
322.4257	0.119
322.6365	0.1138
322.8474	0.1264
323.0582	0.1286
323.269	0.1183
323.4798	0.1195
323.6906	0.1202
323.9014	0.1195
324.1122	0.1207
324.3229	0.1232
324.5337	0.1242
324.7444	0.1287
324.9551	0.1188
325.1658	0.119
325.3765	0.1224
325.5872	0.1184
325.7979	0.1261
326.0085	0.1197
326.2192	0.1219
326.4298	0.1219
326.6404	0.1274
326.851	0.1174
327.0616	0.1318
327.2722	0.1294
327.4828	0.1271
327.6933	0.1356
327.9039	0.1234
328.1144	0.1265
328.3249	0.1243
328.5354	0.1276
328.7459	0.1208
328.9564	0.1297
329.1669	0.1236
329.3773	0.1321
329.5878	0.1281
329.7982	0.1284
330.0086	0.1273
330.219	0.1308
330.4294	0.1343
330.6398	0.1268
330.8502	0.1353
331.0605	0.1282
331.2708	0.1226
331.4812	0.1239
331.6915	0.1334
331.9018	0.134
332.1121	0.1349
332.3224	0.1315
332.5326	0.1206
332.7429	0.1307
332.9531	0.1354
333.1633	0.1261
333.3735	0.1275
333.5837	0.1376
333.7939	0.1364
334.0041	0.1342
334.2143	0.1312
334.4244	0.1332
334.6346	0.1295
334.8447	0.1294
335.0548	0.1374
335.2649	0.1397
335.475	0.1396
335.685	0.1348
335.8951	0.1259
336.1051	0.1468
336.3152	0.1373
336.5252	0.1343
336.7352	0.1346
336.9452	0.1356
337.1552	0.1381
337.3652	0.1407
337.5751	0.1386
337.7851	0.1378
337.995	0.1399
338.2049	0.1342
338.4148	0.1422
338.6247	0.1393
338.8346	0.138
339.0445	0.1405
339.2543	0.1417
339.4642	0.136
339.674	0.1355
339.8838	0.1413
340.0936	0.1394
340.3034	0.1398
340.5132	0.136
340.7229	0.1363
340.9327	0.1456
341.1424	0.1471
341.3522	0.1301
341.5619	0.1422
341.7716	0.1496
341.9813	0.1456
342.1909	0.1467
342.4006	0.1452
342.6102	0.1458
342.8199	0.149
343.0295	0.1452
343.2391	0.1518
343.4487	0.1497
343.6583	0.1547
343.8679	0.1509
344.0774	0.1424
344.287	0.1481
344.4965	0.1541
344.706	0.152
344.9155	0.1481
345.125	0.1457
345.3345	0.155
345.544	0.1503
345.7534	0.1536
345.9629	0.1591
346.1723	0.1569
346.3817	0.1608
346.5911	0.1649
346.8005	0.1642
347.0099	0.1555
347.2193	0.1636
347.4286	0.1637
347.638	0.1592
347.8473	0.1622
348.0566	0.1686
348.2659	0.1691
348.4752	0.1596
348.6845	0.1601
348.8937	0.1659
349.103	0.1685
349.3122	0.163
349.5214	0.169
349.7306	0.1731
349.9398	0.1698
350.149	0.1669
350.3582	0.1774
350.5674	0.1762
350.7765	0.1779
350.9856	0.1722
351.1948	0.1689
351.4039	0.1753
351.613	0.1733
351.822	0.178
352.0311	0.1785
352.2402	0.1751
352.4492	0.1689
352.6582	0.1713
352.8672	0.1756
353.0762	0.1815
353.2852	0.1841
353.4942	0.1816
353.7032	0.1822
353.9121	0.1777
354.1211	0.1775
354.33	0.1877
354.5389	0.1759
354.7478	0.1765
354.9567	0.1881
355.1655	0.1796
355.3744	0.1847
355.5833	0.1816
355.7921	0.1892
356.0009	0.1845
356.2097	0.1867
356.4185	0.1883
356.6273	0.1872
356.8361	0.1937
357.0448	0.186
357.2536	0.1813
357.4623	0.1835
357.671	0.1858
357.8797	0.1988
358.0884	0.1901
358.2971	0.1907
358.5057	0.1957
358.7144	0.2012
358.923	0.1899
359.1316	0.2
359.3402	0.2013
359.5488	0.1987
359.7574	0.2045
359.966	0.1975
360.1746	0.2054
360.3831	0.2054
360.5916	0.2111
360.8002	0.2069
361.0087	0.2006
361.2172	0.2096
361.4256	0.2014
361.6341	0.2131
361.8426	0.2173
362.051	0.2138
362.2594	0.2127
362.4678	0.2095
362.6762	0.2123
362.8846	0.2188
363.093	0.2076
363.3014	0.22
363.5097	0.2183
363.718	0.2215
363.9264	0.222
364.1347	0.2213
364.343	0.2244
364.5513	0.2271
364.7595	0.2375
364.9678	0.2229
365.176	0.2283
365.3842	0.233
365.5925	0.225
365.8007	0.2245
366.0089	0.2328
366.217	0.2341
366.4252	0.241
366.6333	0.2292
366.8415	0.2368
367.0496	0.2366
367.2577	0.2357
367.4658	0.241
367.6739	0.2327
367.882	0.2464
368.09	0.2347
368.2981	0.2395
368.5061	0.2427
368.7141	0.2436
368.9221	0.2546
369.1301	0.2493
369.3381	0.2517
369.5461	0.2578
369.754	0.2463
369.962	0.242
370.1699	0.2613
370.3778	0.2603
370.5857	0.2554
370.7936	0.2533
371.0015	0.2585
371.2093	0.2608
371.4172	0.2573
371.625	0.2476
371.8328	0.254
372.0406	0.2563
372.2484	0.2603
372.4562	0.2526
372.664	0.2617
372.8717	0.263
373.0795	0.271
373.2872	0.2645
373.4949	0.2664
373.7026	0.2573
373.9103	0.2623
374.118	0.2674
374.3256	0.2726
374.5333	0.2717
374.7409	0.2685
374.9485	0.2769
375.1561	0.2786
375.3637	0.2724
375.5713	0.2723
375.7789	0.2715
375.9864	0.2762
376.194	0.2777
376.4015	0.2842
376.609	0.2717
376.8165	0.2867
377.024	0.2803
377.2315	0.279
377.4389	0.2777
377.6464	0.2811
377.8538	0.2785
378.0612	0.2868
378.2686	0.2871
378.476	0.2911
378.6834	0.2846
378.8908	0.2957
379.0981	0.2876
379.3055	0.2916
379.5128	0.2846
379.7201	0.2906
379.9274	0.2951
380.1347	0.288
380.342	0.2995
380.5492	0.2927
380.7565	0.2878
380.9637	0.2932
381.1709	0.2987
381.3781	0.3024
381.5853	0.2848
381.7925	0.2905
381.9997	0.3052
382.2068	0.3093
382.4139	0.3048
382.6211	0.3008
382.8282	0.3107
383.0353	0.3068
383.2424	0.2968
383.4494	0.3059
383.6565	0.3026
383.8635	0.3005
384.0706	0.3058
384.2776	0.3118
384.4846	0.3082
384.6916	0.3037
384.8986	0.2989
385.1055	0.3174
385.3125	0.3214
385.5194	0.3146
385.7263	0.3019
385.9333	0.317
386.1402	0.3167
386.347	0.3082
386.5539	0.3063
386.7608	0.3083
386.9676	0.3112
387.1744	0.3093
387.3813	0.309
387.5881	0.3046
387.7948	0.3099
388.0016	0.3148
388.2084	0.3099
388.4151	0.3092
388.6219	0.2924
388.8286	0.3023
389.0353	0.3015
389.242	0.3156
389.4487	0.2987
389.6553	0.2991
389.862	0.2991
390.0686	0.2983
390.2753	0.3009
390.4819	0.3141
390.6885	0.301
390.8951	0.2974
391.1016	0.2932
391.3082	0.3011
391.5147	0.2933
391.7213	0.292
391.9278	0.2902
392.1343	0.3023
392.3408	0.2938
392.5473	0.2936
392.7537	0.2889
392.9602	0.2855
393.1666	0.2845
393.373	0.2827
393.5794	0.2812
393.7858	0.2809
393.9922	0.2773
394.1986	0.2836
394.4049	0.2818
394.6113	0.274
394.8176	0.2803
395.0239	0.2748
395.2302	0.2773
395.4365	0.2742
395.6428	0.2755
395.8491	0.2686
396.0553	0.2693
396.2615	0.2729
396.4678	0.2759
396.674	0.2716
396.8802	0.262
397.0863	0.2669
397.2925	0.2636
397.4987	0.2615
397.7048	0.2692
397.9109	0.2663
398.117	0.2605
398.3231	0.255
398.5292	0.2453
398.7353	0.2577
398.9413	0.2488
399.1474	0.2681
399.3534	0.2588
399.5594	0.2661
399.7654	0.2569
399.9714	0.2561
400.1774	0.2598
400.3833	0.2541
400.5893	0.2552
400.7952	0.2652
401.0011	0.2551
401.207	0.2654
401.4129	0.2666
401.6188	0.2606
401.8247	0.269
402.0305	0.2603
402.2364	0.271
402.4422	0.2708
402.648	0.2626
402.8538	0.2582
403.0596	0.2519
403.2654	0.2645
403.4711	0.2593
403.6768	0.2602
403.8826	0.2744
404.0883	0.2546
404.294	0.2602
404.4997	0.2601
404.7054	0.2677
404.911	0.256
405.1167	0.2643
405.3223	0.2663
405.5279	0.2613
405.7335	0.2628
405.9391	0.2541
406.1447	0.2649
406.3502	0.2621
406.5558	0.2564
406.7613	0.2594
406.9668	0.2611
407.1724	0.259
407.3778	0.2638
407.5833	0.246
407.7888	0.2532
407.9942	0.2562
408.1997	0.2694
408.4051	0.2639
408.6105	0.2649
408.8159	0.262
409.0213	0.2578
409.2267	0.264
409.432	0.259
409.6374	0.2598
409.8427	0.2608
410.048	0.2684
410.2533	0.2628
410.4586	0.2529
410.6639	0.262
410.8691	0.2587
411.0744	0.2498
411.2796	0.2643
411.4848	0.2592
411.69	0.2516
411.8952	0.2663
412.1004	0.2553
412.3056	0.2547
412.5107	0.2577
412.7158	0.2557
412.921	0.2626
413.1261	0.2555
413.3312	0.2654
413.5362	0.2607
413.7413	0.255
413.9464	0.2483
414.1514	0.2544
414.3564	0.2577
414.5614	0.251
414.7664	0.2469
414.9714	0.2524
415.1764	0.2632
415.3813	0.2543
415.5863	0.2591
415.7912	0.2472
415.9961	0.2571
416.201	0.2667
416.4059	0.2596
416.6108	0.2528
416.8156	0.2523
417.0205	0.2472
417.2253	0.25
417.4301	0.2535
417.6349	0.2482
417.8397	0.2482
418.0445	0.2538
418.2492	0.2469
418.454	0.2483
418.6587	0.2454
418.8634	0.2554
419.0681	0.2532
419.2728	0.2479
419.4775	0.2543
419.6822	0.2374
419.8868	0.2494
420.0915	0.2371
420.2961	0.2375
420.5007	0.244
420.7053	0.242
420.9099	0.2424
421.1144	0.2415
421.319	0.231
421.5235	0.2358
421.728	0.2359
421.9325	0.2299
422.137	0.2382
422.3415	0.2328
422.546	0.2276
422.7504	0.2357
422.9549	0.2449
423.1593	0.2317
423.3637	0.2355
423.5681	0.2317
423.7725	0.2325
423.9769	0.2312
424.1812	0.2214
424.3856	0.2224
424.5899	0.2255
424.7942	0.2239
424.9985	0.2254
425.2028	0.2385
425.4071	0.2277
425.6113	0.2255
425.8156	0.2126
426.0198	0.2181
426.224	0.2264
426.4282	0.2173
426.6324	0.216
426.8366	0.2103
427.0407	0.2124
427.2449	0.2161
427.449	0.2162
427.6531	0.222
427.8572	0.2114
428.0613	0.2139
428.2654	0.2122
428.4694	0.2
428.6735	0.1931
428.8775	0.1871
429.0815	0.2045
429.2855	0.2014
429.4895	0.2045
429.6935	0.1925
429.8975	0.189
430.1014	0.2004
430.3053	0.1964
430.5093	0.1915
430.7132	0.1851
430.9171	0.185
431.1209	0.1902
431.3248	0.1776
431.5286	0.1778
431.7325	0.1856
431.9363	0.1807
432.1401	0.174
432.3439	0.1796
432.5477	0.173
432.7514	0.1766
432.9552	0.1704
433.1589	0.1675
433.3627	0.1689
433.5664	0.1618
433.7701	0.1583
433.9737	0.1669
434.1774	0.1706
434.3811	0.1569
434.5847	0.1622
434.7883	0.1604
434.9919	0.1519
435.1955	0.1574
435.3991	0.1532
435.6027	0.1477
435.8062	0.1665
436.0098	0.14
436.2133	0.15
436.4168	0.142
436.6203	0.1368
436.8238	0.141
437.0272	0.134
437.2307	0.1331
437.4341	0.1341
437.6375	0.134
437.841	0.1227
438.0443	0.1306
438.2477	0.1277
438.4511	0.1151
438.6545	0.1345
438.8578	0.1307
439.0611	0.1168
439.2644	0.119
439.4677	0.121
439.671	0.1114
439.8743	0.1207
440.0775	0.1088
440.2808	0.109
440.484	0.1069
440.6872	0.1091
440.8904	0.0985
441.0936	0.108
441.2967	0.099
441.4999	0.1031
441.703	0.1052
441.9062	0.1054
442.1093	0.1049
442.3124	0.1013
442.5155	0.0948
442.7185	0.0896
442.9216	0.0909
443.1246	0.0969
443.3276	0.0907
443.5307	0.0829
443.7337	0.083
443.9366	0.0845
444.1396	0.0843
444.3426	0.0781
444.5455	0.0812
444.7484	0.0681
444.9513	0.0785
445.1542	0.0749
445.3571	0.0743
445.56	0.0681
445.7628	0.0761
445.9657	0.0692
446.1685	0.068
446.3713	0.0739
446.5741	0.0725
446.7769	0.0722
446.9797	0.0631
447.1824	0.058
447.3852	0.0464
447.5879	0.0679
447.7906	0.0564
447.9933	0.0605
448.196	0.0596
448.3986	0.0556
448.6013	0.0556
448.8039	0.0594
449.0066	0.0547
449.2092	0.0565
449.4118	0.0494
449.6143	0.0576
449.8169	0.0486
450.0195	0.0508
450.222	0.0539
450.4245	0.0484
450.627	0.049
450.8295	0.0448
451.032	0.0479
451.2345	0.0376
451.4369	0.0405
451.6394	0.0524
451.8418	0.0405
452.0442	0.0342
452.2466	0.0315
452.449	0.0417
452.6513	0.0377
452.8537	0.0295
453.056	0.0379
453.2583	0.0335
453.4607	0.0245
453.663	0.0407
453.8652	0.0203
454.0675	0.042
454.2697	0.0321
454.472	0.0332
454.6742	0.0337
454.8764	0.0421
455.0786	0.0309
455.2808	0.0311
455.4829	0.0373
455.6851	0.0292
455.8872	0.0208
456.0893	0.0276
456.2915	0.0233
456.4935	0.0311
456.6956	0.0217
456.8977	0.0214
457.0997	0.027
457.3018	0.0169
457.5038	0.0229
457.7058	0.0263
457.9078	0.0275
458.1098	0.0205
458.3117	0.0293
458.5137	0.0158
458.7156	0.0276
458.9175	0.0242
459.1194	0.0157
459.3213	0.018
459.5232	0.0263
459.725	0.0177
459.9269	0.0267
460.1287	0.016
460.3305	0.0256
460.5323	0.0135
460.7341	0.022
460.9359	0.0092
461.1376	0.012
461.3394	0.0173
461.5411	0.0195
461.7428	0.0109
461.9445	0.0151
462.1462	0.0085
462.3479	0.0112
462.5495	0.0089
462.7512	0.0273
462.9528	0.0137
463.1544	0.0116
463.356	0.002
463.5576	0.0127
463.7592	0.0143
463.9607	0.0073
464.1623	0.009
464.3638	0.0123
464.5653	0.0157
464.7668	0.0135
464.9683	0.0157
465.1697	0.0155
465.3712	0.0051
465.5726	0.0026
465.7741	0.0203
465.9755	0.0061
466.1769	0.0128
466.3782	0.01
466.5796	0.012
466.7809	0.0052
466.9823	0.0101
467.1836	0.0139
467.3849	0.0084
467.5862	0.002
467.7875	0.0001
467.9887	0.008
468.19	0.0075
468.3912	0.0127
468.5924	0.0055
468.7936	0.005
468.9948	0.0038
469.196	0.001
469.3972	0.0097
469.5983	0.0032
469.7994	0.0207
470.0006	0.0031
470.2017	0.0115
470.4027	0.0202
470.6038	-0.0023
470.8049	0.0132
471.0059	0.0078
471.2069	0.0128
471.408	0.0122
471.6089	0.0162
471.8099	0.0033
472.0109	0.002
472.2119	0.0169
472.4128	-0.0032
472.6137	0.0081
472.8146	0.0117
473.0155	0.0096
473.2164	0.0107
473.4173	-0.0026
473.6181	0.0004
473.819	0.0097
474.0198	0.0023
474.2206	0.0001
474.4214	0.0091
474.6222	-0.0036
474.8229	-0
475.0237	0.0146
475.2244	0.0069
475.4251	0.0045
475.6258	0.005
475.8265	0.0071
476.0272	-0.0031
476.2278	0.0105
476.4285	0.0043
476.6291	0.0087
476.8297	0.0008
477.0303	0.0018
477.2309	0.0068
477.4315	0.001
477.632	0.0044
477.8326	0.0106
478.0331	0.011
478.2336	0.0105
478.4341	0.0075
478.6346	0.0059
478.8351	0.0019
479.0355	0.0099
479.236	0.0111
479.4364	0.0054
479.6368	0.0011
479.8372	0.0134
480.0376	-0.0006
480.2379	0.0064
480.4383	0.0139
480.6386	-0.002
480.8389	0.0111
481.0392	0.0072
481.2395	0.0096
481.4398	0.0026
481.6401	0.006
481.8403	-0.003
482.0405	0.0086
482.2408	0.0004
482.441	0.0123
482.6411	0.0086
482.8413	0.0032
483.0415	0.0104
483.2416	0.0054
483.4417	0.0023
483.6419	0.0001
483.8419	0.0028
484.042	0.0006
484.2421	0.0035
484.4422	0.0039
484.6422	0.0076
484.8422	0.0046
485.0422	0.0054
485.2422	0.0006
485.4422	0.0041
485.6422	0.0018
485.8421	0.001
486.042	0.0104
486.242	-0.0015
486.4419	0.0011
486.6417	0.0017
486.8416	0.0047
487.0415	-0.0006
487.2413	0.001
487.4411	0.0039
487.641	-0.005
487.8408	0.0116
488.0405	0.0107
488.2403	0.0001
488.4401	0.0055
488.6398	0.0061
488.8395	0.0057
489.0392	0.0141
489.2389	0.0123
489.4386	0.004
489.6383	0.0087
489.8379	0.0036
490.0376	0.0083
490.2372	0
490.4368	-0.001
490.6364	-0.003
490.836	-0.0007
491.0355	-0.0002
491.2351	-0.0012
491.4346	0.0062
491.6341	-0.0082
491.8336	0.007
492.0331	0.0012
492.2326	0.0068
492.432	0.007
492.6315	0.007
492.8309	0.0159
493.0303	0.0066
493.2297	0.0101
493.4291	0.0062
493.6284	0.0054
493.8278	0.0108
494.0271	0.0041
494.2264	-0.0004
494.4257	0.008
494.625	0.0005
494.8243	-0.0098
495.0236	0.0062
495.2228	0.0039
495.422	0.0113
495.6213	0.007
495.8205	0.0054
496.0196	0.0015
496.2188	0.0022
496.418	0.0041
496.6171	-0.0009
496.8162	0.0026
497.0153	0.0066
497.2144	0.0052
497.4135	-0.0008
497.6126	0.0066
497.8116	0.0029
498.0107	0.001
498.2097	0.0069
498.4087	0.0025
498.6077	-0.0077
498.8067	0.0011
499.0056	0.0002
499.2046	0.0066
499.4035	0.003
499.6024	-0.0058
499.8013	0.0054
500.0002	0.007
500.199	0.0069
500.3979	-0.0007
500.5967	-0.0039
500.7956	0.0053
500.9944	0.0027
501.1932	0.0084
501.3919	0.0068
501.5907	0.0009
501.7895	0.0038
501.9882	0.0025
502.1869	0.0066
502.3856	0.0029
502.5843	0.0033
502.783	-0.0029
502.9816	0.0088
503.1803	0.0026
503.3789	0.01
503.5775	0.0002
503.7761	-0.006
503.9747	0.0053
504.1732	-0.0065
504.3718	0.0156
504.5703	0.0086
504.7689	0.0036
504.9674	0.0025
505.1658	-0.0035
505.3643	0.0078
505.5628	0.0102
505.7612	0.0049
505.9597	-0.0068
506.1581	0.0008
506.3565	-0.0035
506.5549	0.0051
506.7532	-0.0068
506.9516	0.0013
507.1499	0.0086
507.3482	0.0033
507.5465	0.0107
507.7448	0.0014
507.9431	0.0158
508.1414	-0.0019
508.3396	0.0043
508.5379	-0.0045
508.7361	0.002
508.9343	0.0065
509.1325	0.0153
509.3306	0.0064
509.5288	-0.0093
509.7269	0.0101
509.9251	0.0034
510.1232	0.006
510.3213	0.0089
510.5193	0.008
510.7174	-0.0026
510.9154	0.0059
511.1135	0.0047
511.3115	-0.0006
511.5095	0.0061
511.7075	0.0029
511.9055	0.003
512.1034	-0.0006
512.3014	0.0083
512.4993	0.008
512.6972	0.0058
512.8951	0.0108
513.093	-0.0006
513.2908	0.0206
513.4887	-0.0063
513.6865	-0.001
513.8844	0.0095
514.0822	0.0042
514.2799	-0.0081
514.4777	-0.0067
514.6755	-0.0047
514.8732	-0.0056
515.0709	0.0002
515.2687	-0.0006
515.4664	0.0125
515.664	0.006
515.8617	0.0079
516.0594	0.0087
516.257	0.0114
516.4546	0.0164
516.6522	-0.0025
516.8498	0.0061
517.0474	-0.0003
517.2449	0.001
517.4425	0.0073
517.64	0.0039
517.8375	0.0078
518.035	0.0017
518.2325	-0.0045
518.43	0.0046
518.6274	0.0054
518.8249	-0.0073
519.0223	0.0145
519.2197	-0.0044
519.4171	-0
519.6145	0.0037
519.8118	-0.0042
520.0092	-0.0066
520.2065	0.0123
520.4038	0.0025
520.6011	0.0118
520.7984	0.0095
520.9956	0.0057
521.1929	0.0059
521.3901	-0.0048
521.5874	0.0135
521.7846	0.0043
521.9818	-0.0098
522.1789	-0.0007
522.3761	0.0181
522.5732	0.0084
522.7704	-0.0101
522.9675	-0.0129
523.1646	-0.0062
523.3617	0.0046
523.5587	0.0078
523.7558	-0.0078
523.9528	0.0073
524.1498	0.005
524.3468	-0.0015
524.5438	0.0048
524.7408	0.0062
524.9378	0.004
525.1347	0.01
525.3316	0.0039
525.5285	-0
525.7254	0.0052
525.9223	0.0101
526.1192	0.0057
526.316	-0.0003
526.5129	0.0095
526.7097	-0.0032
526.9065	0.0057
527.1033	0.0046
527.3	-0
527.4968	0.0178
527.6935	-0.0009
527.8903	-0.0024
528.087	-0.0075
528.2837	0.017
528.4804	0.0053
528.677	0.0033
528.8737	0.0049
529.0703	-0.0087
529.2669	0.0116
529.4635	-0.0028
529.6601	0.0002
529.8567	-0.0022
530.0532	0.0089
530.2498	0.0025
530.4463	-0.002
530.6428	0.0006
530.8393	0.008
531.0358	0.0021
531.2322	-0.0033
531.4287	0.0061
531.6251	-0.0078
531.8215	0.0045
532.0179	0.0056
532.2143	0.0049
532.4107	0.0123
532.607	0.003
532.8034	0.0011
532.9997	0.0026
533.196	-0.0064
533.3923	0.0127
533.5886	0.0056
533.7848	0.0083
533.9811	0.0162
534.1773	0.0063
534.3735	0.0104
534.5697	-0.0006
534.7659	0.0092
534.9621	0.0028
535.1582	0.0027
535.3544	0.0056
535.5505	0.0082
535.7466	0.0079
535.9427	0.0088
536.1387	0.0052
536.3348	0.0031
536.5308	-0.0017
536.7269	0.0028
536.9229	-0.0069
537.1189	0.0095
537.3148	0.0068
537.5108	0.0013
537.7068	0.017
537.9027	-0.0091
538.0986	0.0052
538.2945	-0.0009
538.4904	0.0058
538.6863	0.0019
538.8821	0.004
539.078	0.0024
539.2738	0.0033
539.4696	0.0036
539.6654	-0.0022
539.8611	0.0117
540.0569	0.0021
540.2526	0.0143
540.4484	-0.0068
540.6441	0.0007
540.8398	0.0128
541.0355	0.004
541.2311	0.0031
541.4268	0.0106
541.6224	0.0032
541.818	0.0097
542.0136	0.0055
542.2092	0.0101
542.4048	0.0052
542.6003	-0.0011
542.7959	0.0021
542.9914	0.0157
543.1869	0.0039
543.3824	0.0001
543.5779	0.0043
543.7734	0.0104
543.9688	0.0081
544.1642	0.0044
544.3596	0.003
544.555	0.0012
544.7504	0.0102
544.9458	0.0107
545.1411	0.0015
545.3365	-0.0007
545.5318	0.0049
545.7271	0.0005
545.9224	-0.006
546.1177	-0.0014
546.3129	-0.001
546.5081	0.0021
546.7034	0.0061
546.8986	-0.0054
547.0938	0.0114
547.289	0.0084
547.4841	0.0092
547.6793	0.0055
547.8744	0.0076
548.0695	0.0008
548.2646	0.0044
548.4597	0.0039
548.6548	0.0112
548.8498	0.0028
549.0448	0.008
549.2399	0.0101
549.4349	0.0061
549.6298	0.0095
549.8248	-0.0006
550.0198	0.0217
550.2147	0.0042
550.4096	-0.0106
550.6045	-0.0041
550.7994	0.0075
550.9943	0.004
551.1892	-0.0115
551.384	0.0129
551.5788	-0.0007
551.7737	0.0117
551.9685	0.0038
552.1632	0.0004
552.358	0.0087
552.5528	0.0139
552.7475	0.0124
552.9422	0.0021
553.1369	0.0066
553.3316	0.0041
553.5263	0.0001
553.7209	0.005
553.9156	-0.0004
554.1102	0.0072
554.3048	0.0047
554.4994	0.0063
554.694	0.0125
554.8885	0.0032
555.0831	0.0124
555.2776	0.0097
555.4721	0.0033
555.6666	0.0105
555.8611	0.0098
556.0555	0.0063
556.25	0.007
556.4444	-0.0052
556.6388	-0.0087
556.8332	0.0032
557.0276	0.0003
557.222	-0.0025
557.4163	0.0052
557.6107	0.0009
557.805	-0.0078
557.9993	0.0015
558.1936	-0.0006
558.3879	0.0077
558.5821	-0.0034
558.7764	0.0021
558.9706	0.0061
559.1648	-0.0023
559.359	-0.0021
559.5532	-0.0026
559.7473	-0.004
559.9415	0.0057
560.1356	0.0158
560.3297	-0.0064
560.5238	0.0074
560.7179	-0.0001
560.9119	-0.0035
561.106	-0.0013
561.3	-0.0015
561.494	-0.004
561.688	0.0039
561.882	-0.0018
562.076	-0.0078
562.2699	0.0034
562.4639	0.0159
562.6578	0.0055
562.8517	0.0023
563.0456	0.0041
563.2395	0.0079
563.4333	0.0006
563.6272	0.0002
563.821	-0.0006
564.0148	-0.0003
564.2086	0.0011
564.4024	0.0084
564.5961	0.0078
564.7899	0.0102
564.9836	0.0034
565.1773	0.0023
565.371	0.003
565.5647	0.0039
565.7584	0.0166
565.952	0.0066
566.1456	-0.0024
566.3393	0.008
566.5329	0.0001
566.7264	0.0045
566.92	0.0065
567.1136	-0.0034
567.3071	-0.004
567.5006	0.001
567.6941	0.0028
567.8876	0.0013
568.0811	0.0109
568.2745	-0.0045
568.468	0.0109
568.6614	0.0029
568.8548	0.0081
569.0482	0.0059
569.2416	0.0024
569.4349	0.0046
569.6283	0.0059
569.8216	0.0077
570.0149	0.0005
570.2082	0.0086
570.4015	0.0011
570.5947	0.0061
570.788	0.005
570.9812	0.0023
571.1744	0.0043
571.3676	0.0042
571.5608	0.0037
571.754	0.012
571.9471	0.006
572.1402	-0.0009
572.3333	0.0042
572.5264	0.0025
572.7195	0.0003
572.9126	0.0045
573.1057	-0.0012
573.2987	0.0066
573.4917	0.0053
573.6847	0.0007
573.8777	0.0078
574.0707	0.0044
574.2636	0.0026
574.4566	0.0004
574.6495	-0.0003
574.8424	0.0055
575.0353	0.0053
575.2281	0.0078
575.421	0
575.6138	0.0008
575.8067	0.0088
575.9995	0.0053
576.1923	0.0004
576.385	0.0015
576.5778	0.0072
576.7706	0.0009
576.9633	0.0044
577.156	-0.0031
577.3487	0.0035
577.5414	0.0014
577.734	0.0018
577.9267	0.0059
578.1193	0.0042
578.3119	-0.0023
578.5045	0.0039
578.6971	-0.0022
578.8897	0.0006
579.0822	0.0039
579.2747	0.0006
579.4673	0.0072
579.6598	0.002
579.8522	0.0005
580.0447	0.0039
580.2372	0.0079
580.4296	0.0045
580.622	0.005
580.8144	0.0049
581.0068	0.0013
581.1992	0.004
581.3915	0.0002
581.5839	0.0031
581.7762	0.0019
581.9685	0.0006
582.1608	0.002
582.353	0.0026
582.5453	0.0034
582.7375	0.0034
582.9298	-0.0034
583.122	-0.0004
583.3142	0.0037
583.5063	-0.0009
583.6985	0.0001
583.8906	-0.0027
584.0827	0.0049
584.2749	-0.0008
584.4669	0.0048
584.659	0.0042
584.8511	0.0083
585.0431	0.0062
585.2352	0.004
585.4272	0.0053
585.6192	0.0065
585.8111	0.0003
586.0031	0.0005
586.195	-0.0001
586.387	-0.0017
586.5789	0.0056
586.7708	0.0033
586.9627	0.0013
587.1545	0.003
587.3464	0.003
587.5382	0.0047
587.73	0.0084
587.9218	0.0022
588.1136	-0.0062
588.3053	0.003
588.4971	0.0045
588.6888	-0.0002
588.8805	0.0001
589.0722	0.0126
589.2639	0.0056
589.4556	0.0022
589.6472	0.0024
589.8389	0.0069
590.0305	-0.0018
590.2221	0.0072
590.4137	0.0013
590.6052	-0.0012
590.7968	0.0045
590.9883	-0.0007
591.1798	0.0017
591.3713	-0.0012
591.5628	-0.0015
591.7543	0.002
591.9458	-0.003
592.1372	0.0041
592.3286	-0.0003
592.52	0.0013
592.7114	0.0013
592.9028	0.0091
593.0941	0.0018
593.2855	0.0047
593.4768	0.0081
593.6681	0.0069
593.8594	0.0022
594.0506	0.006
594.2419	0.0078
594.4331	0.0049
594.6244	-0.0033
594.8156	0.0027
595.0067	-0.0035
595.1979	0.0024
595.3891	-0.0013
595.5802	0.005
595.7713	0.004
595.9624	0.0034
596.1535	0.0036
596.3446	0.0021
596.5357	0.0044
596.7267	0.0033
596.9177	-0.004
597.1087	0.0021
597.2997	0.0023
597.4907	-0.0009
597.6817	0.0052
597.8726	0.0051
598.0635	-0.0022
598.2544	0.003
598.4453	0.0041
598.6362	0.0029
598.827	0.0004
599.0179	-0.0016
599.2087	0.009
599.3995	0.0018
599.5903	0.006
599.7811	0.003
599.9718	-0.0012
600.1626	0.0008
600.3533	0.0017
600.544	0.0035
600.7347	0.0008
600.9254	0.0071
601.116	0.0045
601.3067	0.0028
601.4973	0.0076
601.6879	0.0065
601.8785	0.0067
602.0691	0.0016
602.2596	0.0062
602.4502	0.0019
602.6407	0.0036
602.8312	0.0044
603.0217	0.0012
603.2122	-0.0013
603.4027	0.0003
603.5931	0.0077
603.7835	0.0016
603.9739	0.001
604.1643	0.011
604.3547	0.0076
604.5451	0.0034
604.7354	-0.0055
604.9257	0.0002
605.116	-0.0008
605.3063	0.005
605.4966	0.0026
605.6869	0.0071
605.8771	0.0034
606.0673	0.0056
606.2575	0.0027
606.4477	0.0041
606.6379	0.0001
606.8281	0.0009
607.0182	0.0022
607.2083	0.0061
607.3985	0.0032
607.5885	0.0002
607.7786	0.005
607.9687	-0.0009
608.1587	0.0043
608.3488	0.0037
608.5388	-0.0013
608.7288	-0.0038
608.9187	-0.0012
609.1087	0.008
609.2986	0.0028
609.4886	0.0018
609.6785	0.0015
609.8684	-0.0017
610.0582	0.0018
610.2481	-0.008
610.4379	0.0018
610.6278	0.0059
610.8176	0.0095
611.0074	0.0093
611.1971	-0.0028
611.3869	0.0095
611.5766	-0.0062
611.7664	0.0052
611.9561	0.0081
612.1458	0.0111
612.3354	0.0002
612.5251	0.0046
612.7147	-0.0014
612.9044	-0.0036
613.094	0.0026
613.2836	0.0067
613.4731	0.0063
613.6627	0.0082
613.8522	0.0098
614.0417	0.0044
614.2313	-0.0012
614.4207	0.0058
614.6102	0.0088
614.7997	0.0115
614.9891	0.0042
615.1785	-0.003
615.3679	0.0067
615.5573	-0.0018
615.7467	-0.0021
615.9361	0.007
616.1254	0.0056
616.3147	0.0043
616.504	0.0056
616.6933	-0.0034
616.8826	0.0011
617.0718	0.004
617.2611	-0.0002
617.4503	0.0043
617.6395	0.0089
617.8287	0.0035
618.0179	0.0065
618.207	0.0085
618.3961	0.0018
618.5853	0.0013
618.7744	0.014
618.9634	0.0081
619.1525	-0.0051
619.3416	-0.0017
619.5306	0.0032
619.7196	0.0109
619.9086	0.0047
620.0976	0.0059
620.2866	0.0019
620.4755	-0.0025
620.6645	0.016
620.8534	0.0074
621.0423	0.0054
621.2312	-0.0005
621.42	-0.0019
621.6089	-0.0001
621.7977	0.0097
621.9865	0.0027
622.1753	-0.0013
622.3641	-0.0105
622.5529	-0.0014
622.7416	0.0018
622.9303	0.0022
623.1191	0.0058
623.3078	-0.0014
623.4964	0.006
623.6851	0.0107
623.8737	-0.0052
624.0624	-0.0015
624.251	0.0076
624.4396	0.0083
624.6282	0.0093
624.8167	0.0033
625.0053	0.0103
625.1938	0.0116
625.3823	0.0131
625.5708	0.0014
625.7593	-0.0085
625.9477	0.0041
626.1362	0.0044
626.3246	0.0033
626.513	0.0091
626.7014	0.0049
626.8898	0.0123
627.0781	0.0063
627.2665	0.0054
627.4548	-0.0024
627.6431	0.0123
627.8314	0.0196
628.0197	0.0028
628.2079	0.0045
628.3962	0.0031
628.5844	0.007
628.7726	0.0003
628.9608	0.0064
629.1489	-0.0013
629.3371	-0.0107
629.5252	0.0085
629.7134	-0.0023
629.9015	0.01
630.0895	-0.0033
630.2776	0.0017
630.4657	0.0088
630.6537	0.0127
630.8417	-0.0111
631.0297	0.0014
631.2177	0.0033
631.4057	0.0016
631.5936	0.0029
631.7815	0.0042
631.9695	0.0148
632.1574	0.0116
632.3452	0.0098
632.5331	-0.0016
632.7209	0.0155
632.9088	-0.0071
633.0966	0.0289
633.2844	-0.0011
633.4722	0.0125
633.6599	0.026
633.8477	0.0015
634.0354	0.007
634.2231	-0.0211
634.4108	-0.012
634.5985	0.0236
634.7861	0.005
634.9738	-0.008
635.1614	-0.0018
635.349	0.0014
635.5366	0.0044
635.7242	0.0068
635.9117	0.0052
636.0993	0.0018
636.2868	-0.0056
636.4743	0.0077
636.6618	-0.0142
636.8492	0.0051
637.0367	-0.0056
637.2241	0.02
637.4115	0.0135
637.5989	0.003
637.7863	0.0385
637.9737	0.0097
638.161	0.0114
638.3484	0.0054
638.5357	-0.0033
638.723	0.0216
638.9103	-0.0127
639.0975	0.0103
639.2848	0.0039
639.472	0.0182
639.6592	-0.006
639.8464	0.0005
640.0336	0.0107
640.2208	0.0077
640.4079	-0.0028
640.595	-0.0035
640.7821	0.0147
640.9692	0.01
641.1563	0.0101
641.3434	0.0034
641.5304	0.0073
641.7174	0.0164
641.9044	-0.0069
642.0914	0.0202
642.2784	0.0152
642.4653	-0.0099
642.6523	0.0068
642.8392	-0.0053
643.0261	0.0081
643.213	0.0104
643.3999	0.0159
643.5867	0.0091
643.7735	0.0102
643.9604	0.0188
644.1472	0.0129
644.3339	-0.0069
644.5207	0.0007
644.7075	0.0113
644.8942	0.0021
645.0809	0.0052
645.2676	0.0017
645.4543	-0.0012
645.6409	0.0227
645.8276	-0.0003
646.0142	0.0145
646.2008	0.0024
646.3874	-0.0195
646.574	0.0115
646.7605	-0.0034
646.9471	-0.0009
647.1336	-0.0165
647.3201	0.0074
647.5066	0.0098
647.6931	0.0107
647.8795	-0.0091
648.0659	-0.0131
648.2524	0.0053
648.4388	0.0209
648.6252	0.0173
648.8115	0.0113
648.9979	0.0255
649.1842	0.0057
649.3705	0.0115
649.5568	-0.0092
649.7431	-0.0039
649.9294	0.0032
650.1156	-0.0054
650.3018	-0.0017
650.488	0.0273
650.6742	0.0233
650.8604	0.0072
651.0466	0.0091
651.2327	0.0049
651.4188	0.0104
651.6049	0.0219
651.791	0.008
651.9771	0.0148
652.1632	0.0151
652.3492	0.0009
652.5352	0.0244
652.7212	0.0065
652.9072	0.0195
653.0932	-0.0099
653.2791	0.0006
653.465	0.0065
653.651	0.0213
653.8369	0.0123
654.0227	-0.0101
654.2086	0.0256
654.3944	0.0026
654.5803	-0.0012
654.7661	0.003
654.9519	0.0001
655.1377	0.0002
655.3234	0.0002
655.5092	0.0002
655.6949	0.0002
655.8806	0.0002
656.0663	0.0002
656.2519	0.0002
656.4376	0.0002
656.6232	0.0002
656.8088	0.0002
656.9945	0.0002
657.18	0.0002
657.3656	0.0002
657.5511	0.0002
657.7367	0.0002
657.9222	0.0002
658.1077	0.0002
658.2932	0.0002
658.4786	0.0002
658.6641	0.0002
658.8495	0.0002
659.0349	0.0002
659.2203	0.0002
659.4057	0.0002
659.591	0.0675
659.7764	0.0112
659.9617	0.0019
660.147	0.0011
660.3323	-0.0008
660.5176	0.0052
660.7028	-0.0087
660.888	0.011
661.0733	0.0222
661.2585	-0.0107
661.4436	0.0083
661.6288	0.0205
661.8139	0.0101
661.9991	-0.0142
662.1842	-0.011
662.3693	0.0063
662.5544	0.0312
662.7394	0.0171
662.9245	-0.0103
663.1095	-0.0071
663.2945	-0.0279
663.4795	0.0021
663.6644	0.0194
663.8494	0.0028
664.0343	0.0222
664.2193	-0.0096
664.4042	0.0036
664.589	0.0159
664.7739	-0.0032
664.9587	-0.0108
665.1436	-0.0166
665.3284	-0.0072
665.5132	-0.0123
665.698	0.0124
665.8827	0.0206
666.0675	-0.0032
666.2522	-0.0031
666.4369	-0.001
666.6216	0.0193
666.8063	0.0158
666.9909	-0.0057
667.1756	0.0171
667.3602	0.0006
667.5448	0.0138
667.7294	0.0119
667.9139	-0.0147
668.0985	0.0341
668.283	0.0141
668.4675	0.013
668.652	0.0074
668.8365	-0.0144
669.0209	0.0084
669.2054	0.0145
669.3898	0.0108
669.5742	0.0224
669.7586	0.0036
669.943	-0.0022
670.1273	-0.0026
670.3117	0.0247
670.496	0.0127
670.6803	-0.0099
670.8646	-0.0055
671.0488	0.0288
671.2331	-0.0101
671.4173	0.02
671.6015	0.0155
671.7857	0.0121
671.9699	0.0084
672.1541	-0.0022
672.3382	0.0049
672.5223	0.0046
672.7064	-0.0053
672.8905	-0.0156
673.0746	0.0188
673.2587	0.0041
673.4427	0.0026
673.6267	0.0464
673.8107	0.0178
673.9947	0.0048
674.1787	0.0204
674.3626	0.0015
674.5465	0.0181
674.7304	-0.0259
674.9143	-0.0074
675.0982	0.039
675.2821	0.0179
675.4659	0.0037
675.6497	0.0044
675.8335	-0.0003
676.0173	-0.0166
676.2011	0.0102
676.3849	0.026
676.5686	0.027
676.7523	0.0247
676.936	-0.0009
677.1197	-0.0069
677.3034	0.0278
677.487	-0.0118
677.6706	0.0146
677.8542	0.0011
678.0378	0.0097
678.2214	0.006
678.405	0.0135
678.5885	-0.0011
678.772	0.0131
678.9555	-0.0042
679.139	0.01
679.3225	-0.0017
679.5059	-0.0193
679.6894	0.0196
679.8728	0.0103
680.0562	0.0088
680.2395	0.004
680.4229	-0.0087
680.6062	-0.0138
680.7896	-0.008
680.9729	0.0043
681.1562	0.0141
681.3394	0.0084
681.5227	-0.0042
681.7059	-0.0156
681.8891	0.0067
682.0723	-0
682.2555	-0.0084
682.4387	0.018
682.6218	-0.0045
682.805	0.0169
682.9881	0.0339
683.1712	0.0041
683.3542	0.0272
683.5373	-0.0063
683.7203	0.0155
683.9034	0.0011
684.0864	0.0108
684.2694	-0.0002
684.4523	0.0153
684.6353	0.0039
684.8182	0.0058
685.0011	0.02
685.184	0.0013
685.3669	0.0187
685.5498	-0.0246
685.7326	-0.0038
685.9154	-0.0114
686.0982	0.0182
686.281	0.0068
686.4638	0.0149
686.6465	-0.0118
686.8293	0.0048
687.012	0.0176
687.1947	0.015
687.3774	0.0041
687.56	-0.0051
687.7427	0.0109
687.9253	-0.0018
688.1079	0.0183
688.2905	-0.0043
688.4731	0.0092
688.6556	0.0082
688.8382	-0.0232
689.0207	-0.0018
689.2032	0.0178
689.3857	0.0145
689.5681	-0.002
689.7506	0.0236
689.933	-0.0037
690.1154	0.0158
690.2978	0.0144
690.4802	-0.0038
690.6626	0.0137
690.8449	0.0131
691.0272	0.0031
691.2095	-0.0138
691.3918	0.0101
691.5741	-0.008
691.7563	-0.0012
691.9386	0.0219
692.1208	-0.0035
692.303	-0.0151
692.4852	-0.0033
692.6673	0.0123
692.8495	-0.0109
693.0316	-0.0088
693.2137	0.0276
693.3958	0.0111
693.5778	0.0228
693.7599	-0.0114
693.9419	-0.0276
694.1239	0.0131
694.3059	0.0294
694.4879	0.0012
694.6699	0.0071
694.8518	0.0062
695.0337	0.0294
695.2157	0.0293
695.3975	-0.0026
695.5794	0.0018
695.7613	-0.0036
695.9431	-0.0083
696.1249	0.029
696.3067	0.0095
696.4885	0.0064
696.6703	0.0151
696.852	-0.0019
697.0337	0.0128
697.2154	0.0074
697.3971	-0.0052
697.5788	0.0152
697.7605	0.0007
697.9421	0.0208
698.1237	0.0054
698.3053	-0.0058
698.4869	0.0135
698.6685	-0.0027
698.85	0.0267
699.0315	0.0028
699.213	0.0083
699.3945	0.0148
699.576	0.0412
699.7575	0.0196
699.9389	0.009
700.1203	0.0149
700.3017	0.0043
700.4831	0.009
700.6645	0.0121
700.8458	0.0039
701.0271	0.0459
701.2084	-0.004
701.3897	0.019
701.571	0.0037
701.7523	-0.0011
701.9335	0.0027
702.1147	0.0244
702.2959	-0.0076
702.4771	0.0123
702.6583	0.0183
702.8394	-0.0067
703.0205	0.013
703.2016	-0.0036
703.3827	0.0081
703.5638	0.0221
703.7449	0.0007
703.9259	0.026
704.1069	0.0137
704.2879	0.0392
704.4689	0.011
704.6499	0.0238
704.8308	0.0145
705.0117	0.0327
705.1927	0.0129
705.3735	-0.0001
705.5544	0.0183
705.7353	-0.008
705.9161	-0.0078
706.0969	0.0137
706.2777	0.0005
706.4585	0.0081
706.6393	0.0138
706.82	0.0155
707.0007	-0.0013
707.1815	-0.0042
707.3621	0.0268
707.5428	0.0255
707.7235	0.011
707.9041	0.0128
708.0847	0.0295
708.2653	0.0226
708.4459	-0.0057
708.6265	0.0053
708.807	0.0003
708.9875	-0.0048
709.168	0.006
709.3485	0.0142
709.529	0.0021
709.7095	-0.0257
709.8899	0.0003
710.0703	0.0116
710.2507	-0.0053
710.4311	-0.0147
710.6115	0.0238
710.7918	0.0294
710.9721	0.0083
711.1524	-0.0297
711.3327	-0.0001
711.513	0.0178
711.6932	0.0115
711.8735	0.022
712.0537	-0.0161
712.2339	0.0072
712.4141	0.0341
712.5942	-0.0051
712.7744	0.0247
712.9545	0.0209
713.1346	0.026
713.3147	0.0148
713.4947	-0.009
713.6748	0.0284
713.8548	0.0129
714.0348	0.0188
714.2148	0.0147
714.3948	0.0204
714.5748	0.0129
714.7547	0.0025
714.9346	0.0367
715.1145	0.0013
715.2944	-0.007
715.4743	0.003
715.6541	-0.0086
715.834	0.0295
716.0138	-0.002
716.1936	0.02
716.3733	0.0029
716.5531	-0.0138
716.7328	-0.0027
716.9126	0.0247
717.0923	-0.0308
717.2719	0.0285
717.4516	0.0298
717.6312	-0.0288
717.8109	0.0219
717.9905	0.0063
718.1701	0.0272
718.3496	-0.0267
718.5292	0.0133
718.7087	-0.0233
718.8882	0.0133
719.0677	0.0118
719.2472	-0.0083
719.4267	0.0025
719.6061	-0.0001
719.7856	0.0067
719.965	0.0084
720.1443	0.0043
720.3237	0.0111
720.5031	-0.0023
720.6824	-0.0076
720.8617	0.0366
721.041	0.0161
721.2203	-0.0167
721.3995	0.0073
721.5788	0.0039
721.758	-0.0079
721.9372	-0.0084
722.1164	-0.0123
722.2956	0.0097
722.4747	0.0146
722.6538	-0.0157
722.8329	0.0021
723.012	0.0204
723.1911	-0.0013
723.3702	0.0338
723.5492	-0.0086
723.7282	0.0042
723.9072	-0.0089
724.0862	0.0103
724.2652	-0.0022
724.4441	-0.0121
724.623	-0.0012
724.8019	-0.0092
724.9808	0.0351
725.1597	-0.0021
725.3385	0.005
725.5174	0.0016
725.6962	0.0134
725.875	0.0196
726.0538	0.0108
726.2325	0.0312
726.4112	-0.0226
726.59	0.0176
726.7687	-0.007
726.9474	0.0362
727.126	0.0277
727.3047	-0.0075
727.4833	0.0026
727.6619	-0.0138
727.8405	0.0037
728.0191	0.0194
728.1976	0.0198
728.3762	0.0239
728.5547	-0.0073
728.7332	0.0143
728.9116	0.0113
729.0901	-0.006
729.2686	0.0028
729.447	0.0154
729.6254	-0.0016
729.8038	0.0085
729.9821	-0.0149
730.1605	0.0021
730.3388	0.0095
730.5171	0.0064
730.6954	-0.0118
730.8737	-0.0048
731.0519	-0.0031
731.2302	0.0255
731.4084	-0.0075
731.5866	-0.0086
731.7648	0.0208
731.9429	0.0165
732.1211	-0.0042
732.2992	0.0034
732.4773	0.0094
732.6554	-0.0057
732.8335	0.0328
733.0115	0.0125
733.1896	-0.009
733.3676	0.015
733.5456	0.0064
733.7235	0.0017
733.9015	0.0141
734.0794	0.0016
734.2574	-0.0126
734.4353	0.0229
734.6131	0.0022
734.791	-0.0023
734.9689	0.0017
735.1467	0.01
735.3245	0.0133
735.5023	-0.0017
735.68	0.0088
735.8578	0.0002
736.0355	0.0274
736.2132	0.0042
736.3909	0.0198
736.5686	-0.0092
736.7463	-0.0261
736.9239	0.0175
737.1015	0.0223
737.2791	0.0125
737.4567	0.0029
737.6343	0.005
737.8118	0.0139
737.9894	0.0248
738.1669	0.0009
738.3444	0.0516
738.5218	-0.0015
738.6993	0.0086
738.8767	0.006
739.0541	0.004
739.2315	-0.0045
739.4089	0.0324
739.5863	0.0025
739.7636	0.0083
739.9409	0.0095
740.1182	0.003
740.2955	0.0149
740.4728	-0.0146
740.65	0.0268
740.8272	0.0174
741.0044	-0.0227
741.1816	0.0046
741.3588	-0.0196
741.5359	0.008
741.7131	0.0273
741.8902	0.0273
742.0673	0.0003
742.2444	0.0417
742.4214	0.0248
742.5985	-0.005
742.7755	0.0025
742.9525	-0.0166
743.1295	-0.0549
743.3064	-0.0078
743.4834	0.012
743.6603	0.0552
743.8372	-0.0272
744.0141	0.0575
744.191	0.022
744.3678	-0.002
744.5446	0.0054
744.7215	-0.011
744.8982	0.0139
745.075	0.0477
745.2518	0.0027
745.4285	0.0016
745.6052	-0.0532
745.7819	0.0032
745.9586	0.0245
746.1353	-0.0166
746.3119	0.0037
746.4885	0.0176
746.6651	-0.0022
746.8417	-0.0072
747.0183	0.0135
747.1948	0.0149
747.3714	0.0216
747.5479	0.0286
747.7244	0.0148
747.9008	-0.0197
748.0773	0.0463
748.2537	0.0055
748.4301	0.0077
748.6065	0.0142
748.7829	-0.0204
748.9593	0.0034
749.1356	0.0037
749.3119	0.0096
749.4882	0.018
749.6645	0.0169
749.8408	0.018
750.017	0.0006
750.1933	0.0003
750.3695	0.0296
750.5457	-0.0021
750.7218	-0.0123
750.898	0.0367
751.0741	-0.0054
751.2502	0.024
751.4263	0.0034
751.6024	0.0065
751.7784	-0.0101
751.9545	-0.0023
752.1305	-0.0031
752.3065	-0.0123
752.4825	0.0237
752.6584	0.0224
752.8344	-0.0055
753.0103	-0.0128
753.1862	0.0341
753.3621	0.0102
753.5379	0.0094
753.7138	0.0161
753.8896	0.0237
754.0654	0.0186
754.2412	-0.0004
754.417	0.0248
754.5927	0.023
754.7685	0.025
754.9442	0.0298
755.1199	0.0359
755.2956	0.0212
755.4712	0.0032
755.6469	0.0155
755.8225	0.0155
755.9981	0.0041
756.1736	0.0142
756.3492	0.0019
756.5248	0.0054
756.7003	-0.0072
756.8758	-0.0047
757.0513	0.0008
757.2267	0.0165
757.4022	0.0008
757.5776	0.0026
757.753	0.0235
757.9284	0.0132
758.1038	0.0119
758.2791	0.0016
758.4545	-0.0103
758.6298	0.0286
758.8051	0.0022
758.9803	0.0113
759.1556	-0.0021
759.3308	0.0086
759.506	-0.0053
759.6812	0.001
759.8564	-0.011
760.0316	-0.0033
760.2067	0.0226
760.3819	-0
760.557	0.0184
760.732	-0.0005
760.9071	0.0123
761.0821	-0.004
761.2572	0.0256
761.4322	0.0159
761.6072	-0.0051
761.7821	-0.0108
761.9571	-0.0011
762.132	0.0287
762.3069	0.0317
762.4818	0.0406
762.6567	0.0069
762.8316	0.0201
763.0064	0.0452
763.1812	-0.0189
763.356	0.0074
763.5308	0.0259
763.7055	-0.0041
763.8803	-0.023
764.055	0.0139
764.2297	-0.0017
764.4044	0.0075
764.579	-0.0075
764.7537	0.0172
764.9283	0.0121
765.1029	-0.0011
765.2775	0.0265
765.4521	0.0039
765.6266	-0.0184
765.8011	0.0061
765.9756	0.0065
766.1501	-0.0372
766.3246	0.0256
766.4991	0.0106
766.6735	0.0286
766.8479	-0.0006
767.0223	0.0043
767.1967	0.016
767.371	-0.0167
767.5454	0.0463
767.7197	0.0375
767.894	-0.0009
768.0683	0.0183
768.2425	0.0237
768.4168	0.0016
768.591	0.0059
768.7652	0.0049
768.9394	-0.0181
769.1135	-0.0158
769.2877	0.0148
769.4618	0.0233
769.6359	0.0029
769.81	0.0065
769.984	-0.0119
770.1581	0.0056
770.3321	0.0225
770.5061	-0.0131
770.6801	0.0211
770.8541	-0.0089
771.028	0.0283
771.202	0.0178
771.3759	0.0295
771.5498	0.0325
771.7236	0.0067
771.8975	0.032
772.0713	0.0376
772.2451	-0.0035
772.4189	0.0014
772.5927	-0.0275
772.7665	0.009
772.9402	0.0192
773.1139	0.0021
773.2876	-0.0061
773.4613	0.0056
773.635	0.0298
773.8086	0.05
773.9822	0.0348
774.1558	0.0485
774.3294	0.0244
774.503	0.052
774.6765	0.0503
774.8501	-0.0162
775.0236	0.0698
775.1971	-0.0032
775.3705	0.0338
775.544	-0.0197
775.7174	0.0115
775.8908	0.0537
776.0642	0.0358
776.2376	0.0557
776.4109	0.0209
776.5843	0.028
776.7576	-0.006
776.9309	0.0091
777.1041	-0.0218
777.2774	-0.0083
777.4506	0.0254
777.6238	0.0168
777.797	0.0215
777.9702	0.022
778.1434	0.0005
778.3165	-0.0056
778.4896	-0.0155
778.6627	-0.0079
778.8358	-0.003
779.0089	-0.0084
779.1819	0.0163
779.3549	0.0158
779.5279	-0.004
779.7009	0.0596
779.8739	0.1167
780.0468	0.0313
780.2197	0.0066
780.3926	0.0332
780.5655	0.0458
780.7384	-0.0098
780.9112	0.0094
781.0841	0.005
781.2569	0.0118
781.4297	0.0119
781.6024	0.0359
781.7752	0.0456
781.9479	0.0385
782.1206	-0.011
782.2933	0.005
782.466	0.04
782.6386	-0.0069
782.8113	-0.0001
782.9839	-0.0065
783.1565	0.0487
783.329	0.0022
783.5016	0.0126
783.6741	-0.025
783.8466	-0.0053
784.0191	0.0536
784.1916	-0.0141
784.3641	0.0048
784.5365	0.0611
784.7089	-0.0157
784.8813	0.0481
785.0537	0.0514
785.2261	0.0104
785.3984	-0.0049
785.5707	-0.0103
785.743	0.055
785.9153	0.0313
786.0876	-0.0564
786.2598	-0.0177
786.432	0.0081
786.6042	0.057
786.7764	0.0039
786.9486	-0.0191
787.1207	0.0359
787.2928	0.0408
787.4649	-0.004
787.637	0.0173
787.8091	0.0239
787.9811	0.0225
788.1532	0.076
788.3252	0.0459
788.4972	0.0005
788.6691	0.0022
788.8411	-0.012
789.013	0.0132
789.1849	0.0143
789.3568	0.0038
789.5287	0.0401
789.7005	-0.0168
789.8723	-0.0438
790.0442	-0.0139
790.2159	0.0342
790.3877	0.0255
790.5595	0.0706
790.7312	0.0234
790.9029	-0.0212
791.0746	0.0207
791.2463	0.0116
791.4179	-0.0157
791.5896	0.0975
791.7612	0.0396
791.9328	0.0513
792.1044	-0.0213
792.2759	-0.0112
792.4474	-0.0117
792.619	-0.0147
792.7905	0.0184
792.9619	0.0254
793.1334	0.0601
793.3048	0.0484
793.4762	-0.0052
793.6476	-0.0292
793.819	0.012
793.9904	0.0109
794.1617	0.0055
794.333	0.0305
794.5043	0.0289
794.6756	0.0098
794.8469	0.0079
795.0181	0.0292
795.1893	0.0349
795.3605	0.0244
795.5317	-0.0188
795.7029	-0.0182
795.874	-0.0184
796.0452	0.0281
796.2163	0.0565
796.3873	0.1237
796.5584	-0.0019
796.7294	0.0027
796.9005	0.0301
797.0715	0.0886
797.2425	0.0606
797.4134	0.0754
797.5844	0.0373
797.7553	-0.057
797.9262	0.093
798.0971	0.083
798.2679	-0.011
798.4388	0.0706
798.6096	0.058
798.7804	0.0072
798.9512	0.0275
799.122	0.0075
799.2927	0.1005
799.4635	-0.0662
799.6342	0.0106
799.8049	0.1203
799.9755	-0.0507
800.1462	0.0221
800.3168	0.0772
800.4874	-0.079
800.658	-0.0351
800.8286	0.0964
800.9991	0.0901
801.1696	0.013
801.3402	0.0373
801.5106	-0.0443
801.6811	0.0329
801.8516	0.0227
802.022	0.0495
802.1924	0.0059
802.3628	0.0472
802.5332	0.0577
802.7035	0.0967
802.8739	0.0115
803.0442	-0.0095
803.2145	0.1437
803.3847	0.0335
803.555	0.0856
803.7252	-0.036
803.8954	-0.0052
804.0656	-0.0165
804.2358	0.0298
804.4059	0.0593
804.5761	-0.0796
804.7462	-0.0054
804.9163	0.0206
805.0864	0.0175
805.2564	0.0518
805.4264	-0.0305
805.5965	0.0349
805.7665	-0.0137
805.9364	0.0438
806.1064	0.0128
806.2763	0.0714
806.4462	0.0487
806.6161	0.0393
806.786	0.0079
806.9559	0.0018
807.1257	-0.0072
807.2955	0.064
807.4653	0.0807
807.6351	0.0381
807.8048	0.0442
807.9746	0.0347
808.1443	-0.0069
808.314	0.0453
808.4837	0.0773
808.6533	0.0655
808.8229	0.0284
808.9926	0.072
809.1622	0.0468
809.3317	-0.0611
809.5013	0.0052
809.6708	0.0564
809.8403	0.0421
810.0098	-0.0328
810.1793	0.1447
810.3488	-0.0228
810.5182	0.1744
810.6876	-0.0155
810.857	0.0131
811.0264	0.0446
811.1958	0.1222
811.3651	-0.0596
811.5344	0.1669
811.7037	0.1926
811.873	0.0116
812.0422	-0.0704
812.2115	0.0385
812.3807	-0.0379
812.5499	0.1423
812.7191	0.1017
812.8882	-0.1032
813.0574	0.061
813.2265	0.132
813.3956	0.0123
813.5646	0.2077
813.7337	0.0954
813.9027	-0.0738
814.0718	0.0304
814.2407	0.0525
814.4097	0.118
814.5787	0.0729
814.7476	0.0101
814.9165	0.065
815.0854	-0.0022
815.2543	0.0163
815.4232	0.0606
815.592	0.053
815.7608	-0.0537
815.9296	0.0374
816.0984	-0.0565
816.2671	-0.1798
816.4359	0.1082
816.6046	0.1217
816.7733	-0.1474
816.942	0.0214
817.1106	0.0304
817.2793	-0.0257
817.4479	0.0238
817.6165	-0.0022
817.785	0.118
817.9536	-0.0893
818.1221	0.1014
818.2906	-0.042
818.4591	-0.022
818.6276	0.0828
818.7961	0.0872
818.9645	0.0258
819.1329	0.45
819.3013	0.0027
819.4697	0.5072
819.638	0.2014
819.8064	-0.081
819.9747	0.0742
820.143	-0.1718
820.3113	0.1651
820.4795	0.28
820.6477	0.0972
820.816	0.095
820.9842	0.1541
821.1523	0.1341
821.3205	0.0557
821.4886	-0.0561
821.6567	-0.0853
821.8248	0.1855
821.9929	-0.0379
822.1609	-0.0234
822.329	-0.0534
822.497	0.1047
822.665	-0.1034
822.833	0.1003
823.0009	0.036
823.1688	0.0678
823.3367	-0.0948
823.5046	0.0899
823.6725	-0.0943
823.8404	0.1135
824.0082	-0.011
824.176	0.0249
824.3438	0.2365
824.5116	0.1079
824.6793	0.1787
824.847	0.0482
825.0147	0.0963
825.1824	0.0615
825.3501	0.1065
825.5177	0.01
825.6854	-0.1298
825.853	-0.0006
826.0206	-0.0609
826.1881	0.0179
826.3557	0.1552
826.5232	0.0234
826.6907	0.0188
826.8582	0.1571
827.0257	0.1792
827.1931	0.046
827.3605	-0.0544
827.528	0.0544
827.6953	-0.0349
827.8627	-0.0869
828.03	0.1612
828.1974	0.0235
828.3647	-0.0342
828.532	-0.01
828.6992	0.0666
828.8665	-0.2223
829.0337	0.1666
829.2009	0.2392
829.3681	0.029
829.5352	-0.1248
829.7024	0.3881
829.8695	-0.08
830.0366	0.4
830.2037	0.0986
830.3707	0.1237
830.5378	0.0335
830.7048	-0.1283
830.8718	0.219
831.0388	0.0209
831.2057	0.3536
831.3727	-0.3125
831.5396	0.1477
831.7065	-0.3174
831.8734	0.2656
832.0402	0.1744
832.2071	-0.5463
832.3739	-0.0351
832.5407	-1.6277
832.7075	-0.2257
832.8742	-0
833.041	0.2251
833.2077	0.2899
833.3744	0.0604
833.541	0.4695
833.7077	-0.0369
833.8743	0.0923
834.0409	0.1338
834.2075	0.1273
834.3741	-0.0724
834.5407	0.4729
834.7072	0.186
834.8737	0.0855
835.0402	0.1264
835.2067	-0.0141
835.3731	0.1156
835.5395	-0.0962
835.706	-0.1684
835.8723	0.2567
836.0387	0.3016
836.2051	1.155
836.3714	-0.1248
836.5377	0.2492
836.704	0.4786
836.8703	-0.2472
837.0365	-0.8585
837.2027	-0.0742
837.3689	0.3791
837.5351	-0.0886
837.7013	0.3438
837.8674	0.3304
838.0335	0.015
838.1997	0.0872
838.3657	0.2769
838.5318	0.4231
838.6978	-0
838.8639	-0
839.0299	0.2501
839.1958	-0.036
839.3618	0.4816
839.5277	0.0823
839.6937	0.1757
839.8596	-0.2653
840.0254	0.1132
840.1913	-0.0201
840.3571	0.501
840.523	-0
840.6888	0.1183
840.8545	-0
841.0203	0.3583
841.186	0.266
841.3517	-0.1153
841.5174	0.34
841.6831	-0
841.8488	0.5437
842.0144	0.7072
842.18	0.7173
842.3456	0.2105
842.5112	-0
842.6767	-0.0549
842.8422	-0.0017
843.0077	0.4659
843.1732	-0.1451
843.3387	0.156
843.5042	0.363
843.6696	0.0625
843.835	-0
844.0004	0.0883
844.1657	-0
844.3311	-0.1448
844.4964	-0.1719
844.6617	0.3815
844.827	2.1388
844.9923	0.8139
845.1575	-0.1065
845.3227	0.7601
845.4879	-0.2503
845.6531	0.3604
845.8183	1.4344
845.9834	0.3646
846.1485	0.1837
846.3136	0.1814
846.4787	-0
846.6438	0.6237
846.8088	-0
846.9738	-0
847.1388	0.8894
847.3038	0.6512
847.4687	0.3335
847.6337	-0
847.7986	0.5962
847.9635	0.009
848.1284	0.6512
848.2932	0.168
848.458	-0
848.6228	-0
848.7876	0.2218
848.9524	-0
849.1172	-1.6773
849.2819	-0
849.4466	0.5592
849.6113	0.0782
849.7759	-0
849.9406	0.3223
850.1052	-0.9692
850.2698	-0
850.4344	-0
850.599	-0.0888
850.7635	-0
850.928	0.5152
851.0925	0.1955
851.257	0.156
851.4215	0.9115
851.5859	0.1655
851.7503	-0.3131
851.9147	-0
852.0791	-0.1867
852.2434	-0
852.4078	-0
852.5721	0.2342
852.7364	-0.2055
852.9007	0.0349
853.0649	-0
853.2291	1.2289
853.3934	-0
853.5575	-0
853.7217	-0
853.8859	-0
854.05	-0.2566
854.2141	0.3016
854.3782	0.9686
854.5423	0.5684
854.7063	0.0373
854.8703	0.6548
855.0343	-0.1395
855.1983	0.2193
855.3623	0.0157
855.5262	-0.2654
855.6901	0.6308
855.854	0.1364
856.0179	0.1236
856.1818	0.5791
856.3456	-0
856.5094	-0.2904
856.6732	-0.1568
856.837	-0
857.0008	1.0586
857.1645	0.0679
857.3282	-0.4869
857.4919	0.8556
857.6556	-0
857.8192	0.0442
857.9828	0.2489
858.1465	-0
858.31	-0.283
858.4736	-0.463
858.6372	-0.2187
858.8007	0.2433
858.9642	0.2902
859.1277	0.3057
859.2911	-0.4677
859.4546	-1.1761
859.618	-0
859.7814	-0.4845
859.9448	-0
860.1081	-0
860.2715	-0
860.4348	0.5371
860.5981	-0
860.7614	-0.4514
860.9246	0.2091
861.0879	0.4176
861.2511	-0.5087
861.4143	-0
861.5774	-0.1626
861.7406	0.2641
861.9037	-0.3174
862.0668	-0.7496
862.2299	0.1605
862.393	0.0931
862.556	0.1218
862.7191	0.0239
862.8821	0.2619
863.0451	0.302
863.208	-0
863.371	-0.2351
863.5339	0.3601
863.6968	-0
863.8597	-0.2009
864.0225	0.4242
864.1854	0.2302
864.3482	-0
864.511	0.1164
864.6737	0.0054
864.8365	0.0644
864.9992	1.0705
865.1619	0.0872
865.3246	-2.0983
865.4873	-0.1902
865.65	-0
865.8126	-0
865.9752	-0.1863
866.1378	0.0899
866.3004	0.0625
866.4629	-0.9108
866.6254	-0
866.7879	-0
866.9504	-0
867.1129	-0.4014
867.2753	0.3019
867.4377	-0
867.6001	-0.494
867.7625	-0.1715
867.9249	1.1107
868.0872	0.4247
868.2495	-0
868.4118	-0
868.5741	-0
868.7363	-0.2623
868.8986	-0.862
869.0608	-0
869.223	-0
869.3851	1.4723
869.5473	0.025
869.7094	-0.0838
869.8715	-0
870.0336	0.413
870.1957	-0
870.3577	1.0683
870.5197	0.2107
870.6817	-0.4546
870.8437	0.5013
871.0057	-0
871.1676	0.2594
871.3295	0.6937
871.4914	-1.6866
871.6533	-0.1997
871.8151	-0
871.977	0.1226
872.1388	-0
872.3006	-0.6224
872.4623	0.9434
872.6241	-0
872.7858	1.0462
872.9475	0.5025
873.1092	-0.1426
873.2709	0.3936
873.4325	-0
873.5941	-0.5936
873.7557	-0
873.9173	0.482
874.0789	1.3284
874.2404	-0
874.4019	0.2375
874.5634	-0
874.7249	0.1336
874.8863	-0.2252
875.0478	-0.0022
875.2092	0.3208
875.3706	0.047
875.5319	-0
875.6933	-0
875.8546	-0
876.0159	0.5839
876.1772	-0
876.3385	-0
876.4997	-0
876.6609	-0
876.8221	0.6228
876.9833	-0.1841
877.1445	0.3383
877.3056	-0
877.4667	-0.9018
877.6278	0.7665
877.7889	-0.0314
877.9499	0.4075
878.111	-0
878.272	-0
878.433	0.077
878.5939	-0
878.7549	0.4026
878.9158	-0.0884
879.0767	-0.1776
879.2376	-0
879.3984	0.4303
879.5593	-0
879.7201	-0
879.8809	-0
880.0417	-0.2988
880.2024	0.3819
880.3632	0.2345
880.5239	-0
880.6846	-0
880.8452	-0.0232
881.0059	-1.0151
881.1665	0.2659
881.3271	0.4266
881.4877	-0
881.6483	-1.4314
881.8088	-0
881.9693	-0
882.1298	-0
882.2903	-0
