Data from D4ACN5uM460nmA_Absorbance_13-05-42-320.txt Node
Date: Fri Feb 21 13:05:42 GMT 2025
User: LASERRRRR
Spectrometer: FLMT03099
Trigger mode: 0
Integration Time (sec): 1.500000E-2
Scans to average: 1
Electric dark correction enabled: true
Nonlinearity correction enabled: false
Boxcar width: 0
XAxis mode: Wavelengths
Number of Pixels in Spectrum: 3648
>>>>>Begin Spectral Data<<<<<
179.3399	-0.1482
179.5586	-0.1482
179.7771	-0.1482
179.9957	-0.4266
180.2143	-0
180.4329	-0
180.6514	-0.6158
180.8699	-0
181.0885	-0
181.307	0.2607
181.5255	0.3682
181.744	-0
181.9625	0.1601
182.181	-0
182.3994	-0.5952
182.6179	0.0531
182.8363	-0
183.0547	-0.0926
183.2732	0.116
183.4916	0.1546
183.71	0.2932
183.9284	0.0555
184.1467	0.0417
184.3651	0.0591
184.5835	0.1358
184.8018	-0.0329
185.0201	0.6696
185.2385	0.1061
185.4568	0.2191
185.6751	0.2498
185.8934	0.1967
186.1117	-0.0174
186.3299	0.2154
186.5482	0.1215
186.7664	0.2544
186.9847	-0.1349
187.2029	0.5105
187.4211	-0.0146
187.6393	0.178
187.8575	0.1441
188.0757	0.3093
188.2939	0.1037
188.512	0.105
188.7302	0.2471
188.9483	0.1699
189.1665	0.4423
189.3846	0.2202
189.6027	0.0633
189.8208	0.4006
190.0389	0.1204
190.257	0.0843
190.475	0.0529
190.6931	0.096
190.9111	0.0437
191.1292	0.2649
191.3472	0.1992
191.5652	0.0238
191.7832	0.0772
192.0012	0.1503
192.2192	0.1418
192.4371	0.1334
192.6551	0.1379
192.873	0.1843
193.091	0.0663
193.3089	0.2848
193.5268	0.4845
193.7447	0.2387
193.9626	0.3508
194.1805	0.2445
194.3984	0.2762
194.6162	0.1866
194.8341	0.3135
195.0519	0.1397
195.2697	0.2714
195.4875	0.2499
195.7054	0.3065
195.9231	0.1868
196.1409	0.3069
196.3587	0.2996
196.5765	0.3318
196.7942	0.2589
197.012	0.3292
197.2297	0.2687
197.4474	0.4588
197.6651	0.2835
197.8828	0.3454
198.1005	0.4122
198.3182	0.3598
198.5358	0.3869
198.7535	0.3578
198.9711	0.3644
199.1888	0.3893
199.4064	0.3724
199.624	0.3608
199.8416	0.3747
200.0592	0.4039
200.2767	0.4311
200.4943	0.4183
200.7119	0.4196
200.9294	0.463
201.1469	0.4005
201.3645	0.4541
201.582	0.3572
201.7995	0.4494
202.017	0.4157
202.2344	0.4262
202.4519	0.409
202.6694	0.4169
202.8868	0.3885
203.1042	0.4282
203.3217	0.4082
203.5391	0.3873
203.7565	0.347
203.9739	0.3842
204.1913	0.3509
204.4086	0.3373
204.626	0.3606
204.8433	0.3716
205.0607	0.3659
205.278	0.3724
205.4953	0.3394
205.7126	0.3892
205.9299	0.3328
206.1472	0.3011
206.3644	0.335
206.5817	0.3295
206.7989	0.3309
207.0162	0.302
207.2334	0.3358
207.4506	0.3046
207.6678	0.3024
207.885	0.3063
208.1022	0.3289
208.3194	0.2819
208.5365	0.3195
208.7537	0.3184
208.9708	0.317
209.1879	0.2834
209.405	0.2618
209.6222	0.2681
209.8392	0.2917
210.0563	0.298
210.2734	0.276
210.4905	0.2738
210.7075	0.2984
210.9245	0.2782
211.1416	0.2888
211.3586	0.2619
211.5756	0.2422
211.7926	0.2817
212.0096	0.267
212.2265	0.2782
212.4435	0.2843
212.6604	0.2553
212.8774	0.2713
213.0943	0.2484
213.3112	0.256
213.5281	0.2628
213.745	0.248
213.9619	0.2629
214.1788	0.2663
214.3956	0.2517
214.6125	0.2726
214.8293	0.2481
215.0461	0.2519
215.2629	0.268
215.4798	0.2671
215.6965	0.2576
215.9133	0.2426
216.1301	0.2557
216.3469	0.2511
216.5636	0.2468
216.7803	0.2584
216.9971	0.2601
217.2138	0.2594
217.4305	0.2481
217.6472	0.2475
217.8639	0.258
218.0805	0.2623
218.2972	0.25
218.5138	0.2552
218.7305	0.2613
218.9471	0.2421
219.1637	0.2769
219.3803	0.262
219.5969	0.2643
219.8135	0.2695
220.0301	0.2645
220.2466	0.2538
220.4632	0.2599
220.6797	0.268
220.8962	0.2654
221.1127	0.2721
221.3292	0.2815
221.5457	0.274
221.7622	0.2682
221.9787	0.2733
222.1951	0.2642
222.4116	0.2699
222.628	0.2964
222.8444	0.2793
223.0608	0.2808
223.2772	0.2748
223.4936	0.2793
223.71	0.2847
223.9264	0.2916
224.1427	0.2939
224.3591	0.2909
224.5754	0.3012
224.7917	0.2926
225.008	0.3047
225.2243	0.3031
225.4406	0.2986
225.6569	0.3036
225.8732	0.3137
226.0894	0.3139
226.3057	0.3091
226.5219	0.3134
226.7381	0.3258
226.9543	0.3201
227.1705	0.32
227.3867	0.3109
227.6029	0.325
227.8191	0.3414
228.0352	0.345
228.2513	0.3528
228.4675	0.3448
228.6836	0.355
228.8997	0.3386
229.1158	0.3521
229.3319	0.3537
229.548	0.3618
229.764	0.3631
229.9801	0.3646
230.1961	0.3778
230.4121	0.3678
230.6282	0.3762
230.8442	0.3866
231.0602	0.3749
231.2761	0.3922
231.4921	0.3944
231.7081	0.3969
231.924	0.4057
232.14	0.4012
232.3559	0.4023
232.5718	0.4141
232.7877	0.4091
233.0036	0.404
233.2195	0.418
233.4353	0.4179
233.6512	0.4085
233.867	0.4303
234.0829	0.4139
234.2987	0.4277
234.5145	0.4336
234.7303	0.4357
234.9461	0.4408
235.1619	0.4383
235.3776	0.437
235.5934	0.4337
235.8091	0.4373
236.0249	0.4581
236.2406	0.4326
236.4563	0.4516
236.672	0.4429
236.8877	0.4499
237.1034	0.4406
237.319	0.4485
237.5347	0.4554
237.7503	0.4472
237.966	0.4566
238.1816	0.4519
238.3972	0.4534
238.6128	0.4631
238.8284	0.4694
239.0439	0.4667
239.2595	0.4646
239.475	0.468
239.6906	0.4566
239.9061	0.4525
240.1216	0.4615
240.3371	0.4666
240.5526	0.4593
240.7681	0.4604
240.9836	0.4601
241.199	0.4616
241.4145	0.4444
241.6299	0.4523
241.8453	0.4401
242.0607	0.4451
242.2761	0.4354
242.4915	0.4152
242.7069	0.4083
242.9223	0.4147
243.1376	0.4059
243.353	0.3963
243.5683	0.3927
243.7836	0.3901
243.9989	0.3775
244.2142	0.3779
244.4295	0.362
244.6448	0.359
244.86	0.3538
245.0753	0.3402
245.2905	0.3392
245.5057	0.3313
245.721	0.3362
245.9362	0.3202
246.1514	0.3222
246.3665	0.3085
246.5817	0.2984
246.7969	0.2938
247.012	0.2878
247.2271	0.2913
247.4423	0.2735
247.6574	0.2818
247.8725	0.2625
248.0876	0.2683
248.3026	0.2626
248.5177	0.2558
248.7328	0.2505
248.9478	0.2493
249.1628	0.2503
249.3779	0.2392
249.5929	0.2409
249.8079	0.2318
250.0228	0.2319
250.2378	0.2285
250.4528	0.227
250.6677	0.2211
250.8827	0.2127
251.0976	0.2142
251.3125	0.2135
251.5274	0.2086
251.7423	0.2056
251.9572	0.2045
252.172	0.2028
252.3869	0.2011
252.6017	0.2039
252.8166	0.2026
253.0314	0.1962
253.2462	0.1959
253.461	0.196
253.6758	0.1943
253.8906	0.1918
254.1053	0.1935
254.3201	0.1959
254.5348	0.1822
254.7496	0.1826
254.9643	0.1984
255.179	0.1872
255.3937	0.187
255.6083	0.1878
255.823	0.1861
256.0377	0.1794
256.2523	0.1858
256.467	0.1817
256.6816	0.1797
256.8962	0.1849
257.1108	0.1816
257.3254	0.1761
257.54	0.1762
257.7545	0.1824
257.9691	0.1831
258.1836	0.1764
258.3981	0.1794
258.6127	0.1722
258.8272	0.1786
259.0417	0.1791
259.2561	0.1758
259.4706	0.1719
259.6851	0.1768
259.8995	0.1758
260.114	0.1719
260.3284	0.1724
260.5428	0.1791
260.7572	0.1717
260.9716	0.1805
261.186	0.1731
261.4003	0.1704
261.6147	0.1733
261.829	0.168
262.0433	0.1731
262.2577	0.1705
262.472	0.1772
262.6863	0.1795
262.9005	0.1767
263.1148	0.1767
263.3291	0.1709
263.5433	0.1733
263.7576	0.1761
263.9718	0.1736
264.186	0.1763
264.4002	0.174
264.6144	0.185
264.8286	0.1806
265.0427	0.1797
265.2569	0.1799
265.471	0.1767
265.6851	0.1791
265.8993	0.1794
266.1134	0.1778
266.3275	0.1751
266.5415	0.1748
266.7556	0.1806
266.9697	0.1787
267.1837	0.1815
267.3978	0.1775
267.6118	0.1725
267.8258	0.1813
268.0398	0.1768
268.2538	0.1743
268.4677	0.172
268.6817	0.179
268.8957	0.1678
269.1096	0.1691
269.3235	0.1723
269.5374	0.1766
269.7514	0.179
269.9652	0.1774
270.1791	0.167
270.393	0.1651
270.6068	0.1704
270.8207	0.1633
271.0345	0.1727
271.2483	0.164
271.4622	0.1677
271.676	0.1648
271.8897	0.1694
272.1035	0.1716
272.3173	0.1672
272.531	0.1661
272.7448	0.1714
272.9585	0.1603
273.1722	0.1667
273.3859	0.1648
273.5996	0.1694
273.8133	0.1709
274.0269	0.1614
274.2406	0.1717
274.4542	0.1675
274.6679	0.1707
274.8815	0.1682
275.0951	0.1737
275.3087	0.1755
275.5223	0.1718
275.7358	0.1704
275.9494	0.168
276.1629	0.1696
276.3765	0.169
276.59	0.1687
276.8035	0.1657
277.017	0.1704
277.2305	0.1749
277.444	0.1754
277.6574	0.1743
277.8709	0.1764
278.0843	0.176
278.2978	0.1757
278.5112	0.1771
278.7246	0.1741
278.938	0.1759
279.1513	0.1776
279.3647	0.1794
279.5781	0.1765
279.7914	0.1754
280.0047	0.1765
280.2181	0.1724
280.4314	0.1772
280.6447	0.1861
280.8579	0.1686
281.0712	0.1743
281.2845	0.1768
281.4977	0.1789
281.711	0.1786
281.9242	0.177
282.1374	0.1775
282.3506	0.1858
282.5638	0.178
282.7769	0.1765
282.9901	0.1817
283.2033	0.1803
283.4164	0.1757
283.6295	0.1759
283.8426	0.1833
284.0557	0.1808
284.2688	0.1819
284.4819	0.182
284.695	0.1852
284.908	0.1774
285.1211	0.1857
285.3341	0.1801
285.5471	0.1861
285.7601	0.1813
285.9731	0.1898
286.1861	0.188
286.3991	0.1921
286.612	0.1859
286.825	0.1939
287.0379	0.1853
287.2508	0.1889
287.4637	0.1868
287.6766	0.1843
287.8895	0.1825
288.1024	0.1917
288.3152	0.191
288.5281	0.1828
288.7409	0.1898
288.9538	0.1817
289.1666	0.1875
289.3794	0.1923
289.5922	0.1854
289.8049	0.1977
290.0177	0.192
290.2304	0.1862
290.4432	0.1887
290.6559	0.1969
290.8686	0.1906
291.0813	0.191
291.294	0.1933
291.5067	0.1867
291.7194	0.1941
291.932	0.1952
292.1447	0.1898
292.3573	0.1894
292.5699	0.1927
292.7825	0.1884
292.9951	0.1897
293.2077	0.1897
293.4203	0.1894
293.6328	0.1859
293.8454	0.1962
294.0579	0.1936
294.2704	0.1987
294.4829	0.1883
294.6954	0.1917
294.9079	0.1894
295.1204	0.1933
295.3328	0.2025
295.5453	0.1885
295.7577	0.1925
295.9701	0.1953
296.1825	0.1961
296.3949	0.1938
296.6073	0.1932
296.8197	0.1909
297.0321	0.195
297.2444	0.1874
297.4567	0.1958
297.6691	0.1899
297.8814	0.1947
298.0937	0.1895
298.306	0.1899
298.5182	0.1995
298.7305	0.1981
298.9428	0.1913
299.155	0.1847
299.3672	0.1883
299.5794	0.1987
299.7916	0.1943
300.0038	0.1893
300.216	0.1895
300.4282	0.1916
300.6403	0.1928
300.8525	0.1862
301.0646	0.1977
301.2767	0.1933
301.4888	0.1922
301.7009	0.1951
301.913	0.1933
302.125	0.1909
302.3371	0.1954
302.5491	0.197
302.7612	0.1959
302.9732	0.1926
303.1852	0.1919
303.3972	0.1913
303.6092	0.1897
303.8211	0.1883
304.0331	0.1879
304.245	0.1849
304.457	0.1928
304.6689	0.1907
304.8808	0.1835
305.0927	0.1892
305.3046	0.1863
305.5164	0.185
305.7283	0.1789
305.9401	0.1776
306.152	0.181
306.3638	0.1797
306.5756	0.1815
306.7874	0.1726
306.9992	0.1767
307.2109	0.1729
307.4227	0.1701
307.6344	0.1698
307.8462	0.1677
308.0579	0.1728
308.2696	0.1684
308.4813	0.1651
308.693	0.1638
308.9046	0.1609
309.1163	0.1582
309.328	0.1556
309.5396	0.1495
309.7512	0.1492
309.9628	0.1534
310.1744	0.1551
310.386	0.1438
310.5976	0.1455
310.8091	0.1451
311.0207	0.1452
311.2322	0.1427
311.4437	0.1367
311.6552	0.1406
311.8667	0.1452
312.0782	0.1418
312.2897	0.1392
312.5012	0.1403
312.7126	0.1301
312.924	0.1371
313.1355	0.1331
313.3469	0.133
313.5583	0.1307
313.7696	0.1259
313.981	0.1333
314.1924	0.128
314.4037	0.1288
314.6151	0.1238
314.8264	0.133
315.0377	0.1271
315.249	0.1296
315.4603	0.1258
315.6716	0.129
315.8828	0.124
316.0941	0.1289
316.3053	0.1281
316.5165	0.1237
316.7277	0.1218
316.9389	0.1285
317.1501	0.1241
317.3613	0.1189
317.5724	0.1223
317.7836	0.1205
317.9947	0.1257
318.2058	0.1188
318.417	0.1152
318.6281	0.1135
318.8391	0.119
319.0502	0.1239
319.2613	0.1156
319.4723	0.123
319.6834	0.1218
319.8944	0.1176
320.1054	0.1195
320.3164	0.1133
320.5274	0.1197
320.7383	0.1224
320.9493	0.1231
321.1602	0.1189
321.3712	0.1189
321.5821	0.115
321.793	0.1233
322.0039	0.1219
322.2148	0.1197
322.4257	0.1184
322.6365	0.1172
322.8474	0.1214
323.0582	0.1234
323.269	0.1268
323.4798	0.1244
323.6906	0.1183
323.9014	0.1212
324.1122	0.113
324.3229	0.1253
324.5337	0.1246
324.7444	0.1232
324.9551	0.1208
325.1658	0.1209
325.3765	0.1212
325.5872	0.118
325.7979	0.1207
326.0085	0.1197
326.2192	0.1149
326.4298	0.1254
326.6404	0.1244
326.851	0.1204
327.0616	0.1285
327.2722	0.1249
327.4828	0.123
327.6933	0.1317
327.9039	0.1253
328.1144	0.131
328.3249	0.1286
328.5354	0.1319
328.7459	0.1291
328.9564	0.1262
329.1669	0.133
329.3773	0.1299
329.5878	0.1255
329.7982	0.1311
330.0086	0.1243
330.219	0.1255
330.4294	0.1277
330.6398	0.1312
330.8502	0.1296
331.0605	0.1269
331.2708	0.1281
331.4812	0.1267
331.6915	0.1321
331.9018	0.1313
332.1121	0.1372
332.3224	0.1253
332.5326	0.122
332.7429	0.1286
332.9531	0.1378
333.1633	0.1245
333.3735	0.1247
333.5837	0.1281
333.7939	0.1298
334.0041	0.1352
334.2143	0.1313
334.4244	0.1362
334.6346	0.1269
334.8447	0.1314
335.0548	0.1393
335.2649	0.1363
335.475	0.1386
335.685	0.1353
335.8951	0.1303
336.1051	0.1358
336.3152	0.1424
336.5252	0.1297
336.7352	0.129
336.9452	0.1358
337.1552	0.1334
337.3652	0.1317
337.5751	0.1257
337.7851	0.1316
337.995	0.133
338.2049	0.1372
338.4148	0.1346
338.6247	0.1396
338.8346	0.1366
339.0445	0.1412
339.2543	0.1338
339.4642	0.1329
339.674	0.1338
339.8838	0.1434
340.0936	0.1383
340.3034	0.1411
340.5132	0.1373
340.7229	0.1428
340.9327	0.139
341.1424	0.1431
341.3522	0.1328
341.5619	0.1401
341.7716	0.1455
341.9813	0.1478
342.1909	0.1469
342.4006	0.1468
342.6102	0.1499
342.8199	0.1453
343.0295	0.1424
343.2391	0.1533
343.4487	0.1467
343.6583	0.1545
343.8679	0.1439
344.0774	0.1439
344.287	0.1516
344.4965	0.1556
344.706	0.1501
344.9155	0.1465
345.125	0.1521
345.3345	0.1597
345.544	0.1529
345.7534	0.154
345.9629	0.1506
346.1723	0.1589
346.3817	0.1514
346.5911	0.1577
346.8005	0.1641
347.0099	0.1603
347.2193	0.1634
347.4286	0.166
347.638	0.156
347.8473	0.1671
348.0566	0.162
348.2659	0.1663
348.4752	0.1626
348.6845	0.1626
348.8937	0.1629
349.103	0.1633
349.3122	0.1605
349.5214	0.1689
349.7306	0.177
349.9398	0.1713
350.149	0.167
350.3582	0.1684
350.5674	0.1764
350.7765	0.1748
350.9856	0.1678
351.1948	0.1711
351.4039	0.1805
351.613	0.176
351.822	0.1779
352.0311	0.1715
352.2402	0.1733
352.4492	0.1739
352.6582	0.1728
352.8672	0.1742
353.0762	0.1768
353.2852	0.1706
353.4942	0.1787
353.7032	0.1739
353.9121	0.1739
354.1211	0.1835
354.33	0.1794
354.5389	0.1737
354.7478	0.1746
354.9567	0.1829
355.1655	0.1825
355.3744	0.1764
355.5833	0.1857
355.7921	0.1958
356.0009	0.1852
356.2097	0.1778
356.4185	0.183
356.6273	0.1919
356.8361	0.1861
357.0448	0.1853
357.2536	0.1849
357.4623	0.1962
357.671	0.1969
357.8797	0.1938
358.0884	0.1875
358.2971	0.1889
358.5057	0.1899
358.7144	0.196
358.923	0.1997
359.1316	0.1989
359.3402	0.1975
359.5488	0.1958
359.7574	0.202
359.966	0.1974
360.1746	0.1947
360.3831	0.2087
360.5916	0.2098
360.8002	0.2038
361.0087	0.2078
361.2172	0.2078
361.4256	0.2045
361.6341	0.2097
361.8426	0.2155
362.051	0.2142
362.2594	0.2067
362.4678	0.2109
362.6762	0.2167
362.8846	0.2117
363.093	0.2209
363.3014	0.2211
363.5097	0.2167
363.718	0.2182
363.9264	0.2174
364.1347	0.2216
364.343	0.2273
364.5513	0.2257
364.7595	0.225
364.9678	0.2203
365.176	0.2292
365.3842	0.2312
365.5925	0.2278
365.8007	0.2298
366.0089	0.235
366.217	0.2381
366.4252	0.2307
366.6333	0.2342
366.8415	0.2373
367.0496	0.2363
367.2577	0.241
367.4658	0.2297
367.6739	0.2389
367.882	0.2471
368.09	0.2409
368.2981	0.246
368.5061	0.2483
368.7141	0.2427
368.9221	0.2575
369.1301	0.247
369.3381	0.2529
369.5461	0.2494
369.754	0.2487
369.962	0.2515
370.1699	0.2539
370.3778	0.2556
370.5857	0.2523
370.7936	0.2545
371.0015	0.2592
371.2093	0.2499
371.4172	0.2547
371.625	0.2522
371.8328	0.2446
372.0406	0.2655
372.2484	0.2598
372.4562	0.2605
372.664	0.2644
372.8717	0.2694
373.0795	0.2712
373.2872	0.2751
373.4949	0.2699
373.7026	0.2656
373.9103	0.267
374.118	0.2604
374.3256	0.2743
374.5333	0.2724
374.7409	0.2729
374.9485	0.2682
375.1561	0.277
375.3637	0.2707
375.5713	0.2816
375.7789	0.2725
375.9864	0.2715
376.194	0.2826
376.4015	0.2773
376.609	0.2745
376.8165	0.2758
377.024	0.2722
377.2315	0.2814
377.4389	0.2761
377.6464	0.2871
377.8538	0.2826
378.0612	0.2864
378.2686	0.283
378.476	0.2859
378.6834	0.2849
378.8908	0.2865
379.0981	0.2887
379.3055	0.2902
379.5128	0.2893
379.7201	0.2845
379.9274	0.29
380.1347	0.2968
380.342	0.2941
380.5492	0.2941
380.7565	0.293
380.9637	0.2997
381.1709	0.2896
381.3781	0.2998
381.5853	0.2968
381.7925	0.2999
381.9997	0.3047
382.2068	0.3032
382.4139	0.3004
382.6211	0.3006
382.8282	0.3101
383.0353	0.3058
383.2424	0.296
383.4494	0.3103
383.6565	0.3029
383.8635	0.3035
384.0706	0.3159
384.2776	0.3078
384.4846	0.3121
384.6916	0.3171
384.8986	0.3078
385.1055	0.3129
385.3125	0.3054
385.5194	0.3115
385.7263	0.3085
385.9333	0.3132
386.1402	0.3091
386.347	0.3037
386.5539	0.3078
386.7608	0.3054
386.9676	0.2957
387.1744	0.2992
387.3813	0.3107
387.5881	0.3062
387.7948	0.3226
388.0016	0.3211
388.2084	0.3017
388.4151	0.3068
388.6219	0.3066
388.8286	0.3114
389.0353	0.3091
389.242	0.3132
389.4487	0.3025
389.6553	0.2936
389.862	0.2986
390.0686	0.305
390.2753	0.306
390.4819	0.3022
390.6885	0.2993
390.8951	0.2973
391.1016	0.2992
391.3082	0.3051
391.5147	0.2903
391.7213	0.2886
391.9278	0.2901
392.1343	0.2941
392.3408	0.2937
392.5473	0.2867
392.7537	0.2877
392.9602	0.2868
393.1666	0.2834
393.373	0.2838
393.5794	0.2829
393.7858	0.2803
393.9922	0.28
394.1986	0.2823
394.4049	0.2849
394.6113	0.2815
394.8176	0.2853
395.0239	0.2728
395.2302	0.2765
395.4365	0.2738
395.6428	0.2742
395.8491	0.2774
396.0553	0.2675
396.2615	0.2789
396.4678	0.2678
396.674	0.2655
396.8802	0.2714
397.0863	0.265
397.2925	0.2671
397.4987	0.258
397.7048	0.2665
397.9109	0.2584
398.117	0.2651
398.3231	0.2648
398.5292	0.2587
398.7353	0.2611
398.9413	0.2579
399.1474	0.2551
399.3534	0.255
399.5594	0.2606
399.7654	0.2579
399.9714	0.2679
400.1774	0.2618
400.3833	0.2587
400.5893	0.2552
400.7952	0.2668
401.0011	0.2639
401.207	0.2668
401.4129	0.2597
401.6188	0.2575
401.8247	0.2717
402.0305	0.2614
402.2364	0.2687
402.4422	0.262
402.648	0.261
402.8538	0.2521
403.0596	0.2534
403.2654	0.256
403.4711	0.254
403.6768	0.2679
403.8826	0.2736
404.0883	0.2653
404.294	0.2614
404.4997	0.2573
404.7054	0.2588
404.911	0.261
405.1167	0.261
405.3223	0.266
405.5279	0.2623
405.7335	0.2538
405.9391	0.2559
406.1447	0.2651
406.3502	0.2599
406.5558	0.2603
406.7613	0.2597
406.9668	0.252
407.1724	0.2587
407.3778	0.2725
407.5833	0.2546
407.7888	0.2596
407.9942	0.2543
408.1997	0.2634
408.4051	0.2509
408.6105	0.2641
408.8159	0.2638
409.0213	0.2689
409.2267	0.2722
409.432	0.2644
409.6374	0.2688
409.8427	0.2654
410.048	0.2666
410.2533	0.2638
410.4586	0.2465
410.6639	0.2662
410.8691	0.2605
411.0744	0.2524
411.2796	0.2599
411.4848	0.2642
411.69	0.2532
411.8952	0.2606
412.1004	0.2612
412.3056	0.2581
412.5107	0.258
412.7158	0.2699
412.921	0.2662
413.1261	0.263
413.3312	0.2529
413.5362	0.2641
413.7413	0.2591
413.9464	0.2515
414.1514	0.2589
414.3564	0.2563
414.5614	0.2504
414.7664	0.2461
414.9714	0.2524
415.1764	0.2648
415.3813	0.2511
415.5863	0.2604
415.7912	0.2613
415.9961	0.2516
416.201	0.2636
416.4059	0.2615
416.6108	0.2679
416.8156	0.2475
417.0205	0.249
417.2253	0.2513
417.4301	0.26
417.6349	0.241
417.8397	0.2466
418.0445	0.2616
418.2492	0.2549
418.454	0.2468
418.6587	0.2622
418.8634	0.2482
419.0681	0.26
419.2728	0.2446
419.4775	0.2541
419.6822	0.2502
419.8868	0.2497
420.0915	0.2352
420.2961	0.2406
420.5007	0.243
420.7053	0.2369
420.9099	0.2334
421.1144	0.2412
421.319	0.2445
421.5235	0.2253
421.728	0.2466
421.9325	0.253
422.137	0.2389
422.3415	0.2321
422.546	0.2239
422.7504	0.2211
422.9549	0.235
423.1593	0.2294
423.3637	0.2279
423.5681	0.2433
423.7725	0.2326
423.9769	0.2323
424.1812	0.2239
424.3856	0.2198
424.5899	0.2227
424.7942	0.2285
424.9985	0.2256
425.2028	0.2258
425.4071	0.2245
425.6113	0.2198
425.8156	0.216
426.0198	0.2231
426.224	0.2233
426.4282	0.2212
426.6324	0.217
426.8366	0.2153
427.0407	0.2071
427.2449	0.2038
427.449	0.2022
427.6531	0.2147
427.8572	0.2098
428.0613	0.2096
428.2654	0.2119
428.4694	0.2023
428.6735	0.1961
428.8775	0.2095
429.0815	0.195
429.2855	0.197
429.4895	0.2017
429.6935	0.1993
429.8975	0.1924
430.1014	0.2003
430.3053	0.1961
430.5093	0.1863
430.7132	0.1866
430.9171	0.1853
431.1209	0.197
431.3248	0.181
431.5286	0.1747
431.7325	0.194
431.9363	0.1805
432.1401	0.1806
432.3439	0.1853
432.5477	0.1693
432.7514	0.1768
432.9552	0.1684
433.1589	0.1697
433.3627	0.1696
433.5664	0.1659
433.7701	0.1577
433.9737	0.1628
434.1774	0.1708
434.3811	0.1571
434.5847	0.1607
434.7883	0.1531
434.9919	0.1383
435.1955	0.1547
435.3991	0.1534
435.6027	0.1543
435.8062	0.1659
436.0098	0.1385
436.2133	0.1477
436.4168	0.1378
436.6203	0.1446
436.8238	0.1406
437.0272	0.1415
437.2307	0.1336
437.4341	0.1263
437.6375	0.1447
437.841	0.1293
438.0443	0.1304
438.2477	0.1216
438.4511	0.1236
438.6545	0.127
438.8578	0.1176
439.0611	0.1308
439.2644	0.1211
439.4677	0.1192
439.671	0.1153
439.8743	0.1234
440.0775	0.1182
440.2808	0.1095
440.484	0.1059
440.6872	0.1084
440.8904	0.0957
441.0936	0.0994
441.2967	0.0918
441.4999	0.0965
441.703	0.1109
441.9062	0.1052
442.1093	0.1058
442.3124	0.0997
442.5155	0.1009
442.7185	0.0837
442.9216	0.0858
443.1246	0.0971
443.3276	0.0873
443.5307	0.0888
443.7337	0.0948
443.9366	0.0812
444.1396	0.076
444.3426	0.0799
444.5455	0.0763
444.7484	0.0819
444.9513	0.0762
445.1542	0.0749
445.3571	0.0766
445.56	0.0598
445.7628	0.0753
445.9657	0.0697
446.1685	0.0817
446.3713	0.0649
446.5741	0.0758
446.7769	0.0707
446.9797	0.068
447.1824	0.0629
447.3852	0.0504
447.5879	0.061
447.7906	0.0538
447.9933	0.0581
448.196	0.0558
448.3986	0.054
448.6013	0.0458
448.8039	0.0557
449.0066	0.0583
449.2092	0.0591
449.4118	0.054
449.6143	0.06
449.8169	0.0524
450.0195	0.0495
450.222	0.0487
450.4245	0.0514
450.627	0.0443
450.8295	0.0455
451.032	0.0417
451.2345	0.0368
451.4369	0.0451
451.6394	0.0454
451.8418	0.0382
452.0442	0.0451
452.2466	0.0355
452.449	0.0444
452.6513	0.0358
452.8537	0.0293
453.056	0.0389
453.2583	0.0289
453.4607	0.0276
453.663	0.0395
453.8652	0.0284
454.0675	0.0414
454.2697	0.0333
454.472	0.0256
454.6742	0.0344
454.8764	0.0294
455.0786	0.0332
455.2808	0.0234
455.4829	0.0331
455.6851	0.0295
455.8872	0.0127
456.0893	0.0317
456.2915	0.0254
456.4935	0.0334
456.6956	0.0231
456.8977	0.0284
457.0997	0.0303
457.3018	0.0227
457.5038	0.0316
457.7058	0.0294
457.9078	0.0267
458.1098	0.0241
458.3117	0.0358
458.5137	0.01
458.7156	0.0236
458.9175	0.0228
459.1194	0.0246
459.3213	0.0135
459.5232	0.0223
459.725	0.014
459.9269	0.0264
460.1287	0.016
460.3305	0.0226
460.5323	0.018
460.7341	0.0174
460.9359	0.0162
461.1376	0.0093
461.3394	0.0144
461.5411	0.0194
461.7428	0.02
461.9445	0.0135
462.1462	0.0123
462.3479	0.013
462.5495	0.0201
462.7512	0.0161
462.9528	0.0103
463.1544	0.008
463.356	0.0087
463.5576	0.0161
463.7592	0.0142
463.9607	0.0162
464.1623	0.0029
464.3638	0.0099
464.5653	0.0148
464.7668	0.0189
464.9683	0.0129
465.1697	0.0141
465.3712	0.0041
465.5726	0.0107
465.7741	0.0162
465.9755	0.0126
466.1769	0.0088
466.3782	0.0062
466.5796	0.0086
466.7809	0.0114
466.9823	0.0073
467.1836	0.0098
467.3849	0.0068
467.5862	0.0031
467.7875	0.0057
467.9887	0.0152
468.19	0.0092
468.3912	0.0153
468.5924	0.0063
468.7936	0.0076
468.9948	0.0041
469.196	0.0125
469.3972	0.0078
469.5983	0.0043
469.7994	0.014
470.0006	0.0133
470.2017	0.0086
470.4027	0.0203
470.6038	0.0021
470.8049	0.0067
471.0059	0.0103
471.2069	0.002
471.408	0.0118
471.6089	0.0117
471.8099	0.0038
472.0109	0.0074
472.2119	0.0164
472.4128	0.0043
472.6137	0.0108
472.8146	0.0067
473.0155	0.0167
473.2164	0.005
473.4173	0.0053
473.6181	-0.0013
473.819	0.0089
474.0198	-0.0007
474.2206	0.0021
474.4214	0.013
474.6222	0.0025
474.8229	0.0075
475.0237	0.0169
475.2244	0.0059
475.4251	0.0041
475.6258	-0.0035
475.8265	0.0104
476.0272	0.0056
476.2278	0.0019
476.4285	0.0029
476.6291	0.0034
476.8297	0.01
477.0303	-0.0011
477.2309	0.0055
477.4315	0.0045
477.632	0.0064
477.8326	0.009
478.0331	0.004
478.2336	0.002
478.4341	0.0067
478.6346	0.0053
478.8351	-0.0046
479.0355	0.007
479.236	0.0112
479.4364	0.0026
479.6368	0.0057
479.8372	0.0035
480.0376	-0.0007
480.2379	0.0052
480.4383	0.0122
480.6386	-0.003
480.8389	0.0022
481.0392	0.0082
481.2395	0.0071
481.4398	0.0059
481.6401	0.005
481.8403	0.003
482.0405	0.0002
482.2408	0.0117
482.441	-0.0004
482.6411	0.0079
482.8413	0.0053
483.0415	0.005
483.2416	-0.0042
483.4417	-0.0009
483.6419	-0.0056
483.8419	-0.0001
484.042	0.0045
484.2421	-0.0042
484.4422	0.0001
484.6422	0.003
484.8422	0.0065
485.0422	0.0037
485.2422	0.0034
485.4422	0.0034
485.6422	0.0026
485.8421	0.0017
486.042	0.0086
486.242	0.0017
486.4419	0.0063
486.6417	-0.0009
486.8416	0.0021
487.0415	0.0006
487.2413	-0.0007
487.4411	0.0018
487.641	0.0023
487.8408	0.006
488.0405	0.0086
488.2403	-0.0046
488.4401	0.0059
488.6398	0.0058
488.8395	0.0091
489.0392	0.0094
489.2389	0.0128
489.4386	-0.0069
489.6383	0.0001
489.8379	0.0042
490.0376	0.0008
490.2372	0.006
490.4368	0.0049
490.6364	-0.0085
490.836	0.0116
491.0355	-0.0065
491.2351	0.0013
491.4346	-0.0015
491.6341	0.0045
491.8336	0.0064
492.0331	0.0006
492.2326	0.0083
492.432	0.0048
492.6315	0.0114
492.8309	0.011
493.0303	0.005
493.2297	0.0092
493.4291	0.0063
493.6284	0.0139
493.8278	0.0022
494.0271	-0.0019
494.2264	0.0031
494.4257	0.0103
494.625	-0.0017
494.8243	-0.0026
495.0236	0.0049
495.2228	0.0081
495.422	0.0012
495.6213	0.0091
495.8205	0.0076
496.0196	0.0064
496.2188	0.0035
496.418	0.0003
496.6171	0.0053
496.8162	0.0029
497.0153	0.0106
497.2144	0.0062
497.4135	0.0053
497.6126	0.0057
497.8116	-0.0038
498.0107	0.0044
498.2097	-0.0021
498.4087	0.0073
498.6077	-0.0008
498.8067	0.0049
499.0056	-0.0009
499.2046	0.0059
499.4035	0.0074
499.6024	-0.0003
499.8013	0.0131
500.0002	0.0043
500.199	0.0117
500.3979	-0.0008
500.5967	0.0009
500.7956	0.0088
500.9944	0.0033
501.1932	0.0102
501.3919	0.0025
501.5907	0.0051
501.7895	-0.0012
501.9882	0.0034
502.1869	0.0125
502.3856	-0.0033
502.5843	0.0058
502.783	0.0074
502.9816	0.0072
503.1803	0.0069
503.3789	0.0117
503.5775	-0.0063
503.7761	-0.0004
503.9747	0.0056
504.1732	-0.0038
504.3718	0.0132
504.5703	-0.0005
504.7689	-0.0051
504.9674	-0.0036
505.1658	-0.006
505.3643	0.0098
505.5628	0.0108
505.7612	0.0147
505.9597	-0
506.1581	-0.0014
506.3565	0.005
506.5549	0.0009
506.7532	0.0001
506.9516	0.0087
507.1499	0.008
507.3482	0.0073
507.5465	0.0022
507.7448	-0.0004
507.9431	0.0046
508.1414	-0.0025
508.3396	0.0057
508.5379	0.0089
508.7361	0.0063
508.9343	0.0055
509.1325	0.01
509.3306	0.0045
509.5288	-0.0068
509.7269	0.0102
509.9251	0.0096
510.1232	0.0019
510.3213	-0.0007
510.5193	-0.003
510.7174	0.0022
510.9154	0.0164
511.1135	-0.0003
511.3115	0.0056
511.5095	0.0057
511.7075	0.0014
511.9055	0.0025
512.1034	0.0046
512.3014	0.002
512.4993	0.0069
512.6972	-0.0023
512.8951	0.0025
513.093	0.0037
513.2908	0.0106
513.4887	0.0047
513.6865	0.0051
513.8844	0.0127
514.0822	-0.0039
514.2799	-0.0065
514.4777	-0.0115
514.6755	0.0027
514.8732	-0.0046
515.0709	0.0033
515.2687	0.0105
515.4664	0.0076
515.664	0.008
515.8617	0.014
516.0594	0.0053
516.257	0.0093
516.4546	0.0116
516.6522	0.0086
516.8498	0.004
517.0474	0.01
517.2449	0.0009
517.4425	0.0045
517.64	0.0051
517.8375	0.0057
518.035	-0.0129
518.2325	0.0044
518.43	0.0073
518.6274	0.0002
518.8249	0.0039
519.0223	0.009
519.2197	-0.0021
519.4171	-0.0088
519.6145	0.0083
519.8118	0.0007
520.0092	0.0008
520.2065	0.0159
520.4038	0.0062
520.6011	0.0047
520.7984	0.009
520.9956	0.003
521.1929	0.0072
521.3901	0.0013
521.5874	0.0088
521.7846	-0.0021
521.9818	0.0048
522.1789	-0.0077
522.3761	0.0071
522.5732	0.0036
522.7704	0.0044
522.9675	-0.0077
523.1646	-0.0056
523.3617	0.0122
523.5587	0.011
523.7558	0.0045
523.9528	0.0001
524.1498	-0.0098
524.3468	0.0086
524.5438	-0.0005
524.7408	-0.0077
524.9378	0.0119
525.1347	0.0128
525.3316	-0.0039
525.5285	0.0036
525.7254	0.0044
525.9223	0.017
526.1192	0.0056
526.316	0.0103
526.5129	0.0064
526.7097	0.0097
526.9065	0.0053
527.1033	0.0081
527.3	-0.0007
527.4968	0.0106
527.6935	0.0016
527.8903	-0.0034
528.087	0.0021
528.2837	0.0075
528.4804	0.0006
528.677	-0.0011
528.8737	0.0045
529.0703	0.0092
529.2669	-0.0005
529.4635	0.0035
529.6601	-0.0071
529.8567	-0.0013
530.0532	-0.0047
530.2498	-0.0044
530.4463	-0.0004
530.6428	0.0064
530.8393	0.0088
531.0358	-0.0042
531.2322	0.0047
531.4287	0.0082
531.6251	-0.0095
531.8215	-0.0036
532.0179	0.0079
532.2143	0.0041
532.4107	0.0063
532.607	0.0113
532.8034	0.0013
532.9997	-0.0062
533.196	0.0009
533.3923	0.0061
533.5886	0.0016
533.7848	0.0033
533.9811	0.0061
534.1773	0.0044
534.3735	0.0069
534.5697	-0.0057
534.7659	0.0061
534.9621	0.0046
535.1582	0.0002
535.3544	0.0044
535.5505	0.0072
535.7466	0.0067
535.9427	0.0008
536.1387	0.0034
536.3348	0.0039
536.5308	0.005
536.7269	-0.0035
536.9229	0.0021
537.1189	0.0082
537.3148	0.0021
537.5108	0.0056
537.7068	0.0063
537.9027	-0.0101
538.0986	0.0083
538.2945	0.0044
538.4904	0.0014
538.6863	-0.001
538.8821	0.002
539.078	-0.0002
539.2738	0.0014
539.4696	-0.0047
539.6654	-0.0031
539.8611	0.0113
540.0569	-0.009
540.2526	0.0113
540.4484	-0.0018
540.6441	0.0012
540.8398	0.0116
541.0355	0.0007
541.2311	0.0002
541.4268	0.0055
541.6224	0.0074
541.818	0.0097
542.0136	0.0057
542.2092	0.0077
542.4048	0.0002
542.6003	-0.0015
542.7959	0.0081
542.9914	-0.0012
543.1869	0.001
543.3824	0.0046
543.5779	0.0065
543.7734	0.0058
543.9688	0.0134
544.1642	-0.0001
544.3596	0.0051
544.555	0.0018
544.7504	0.0043
544.9458	0.0059
545.1411	0.0026
545.3365	0.0072
545.5318	0.0088
545.7271	0.0062
545.9224	-0.0038
546.1177	0.0116
546.3129	0.0002
546.5081	0.0061
546.7034	-0.0003
546.8986	0.0023
547.0938	0.0102
547.289	0.0094
547.4841	0.0088
547.6793	-0.0009
547.8744	0.0053
548.0695	0.0061
548.2646	0.0086
548.4597	0.0052
548.6548	0.0182
548.8498	0.0079
549.0448	0.0116
549.2399	0.015
549.4349	0.0035
549.6298	0.0063
549.8248	-0.004
550.0198	0.0091
550.2147	0.0071
550.4096	0.0049
550.6045	-0.0045
550.7994	0.0071
550.9943	0.0073
551.1892	-0.0088
551.384	0.0197
551.5788	0.0147
551.7737	0.0079
551.9685	0.0029
552.1632	-0.0004
552.358	-0.0059
552.5528	0.0004
552.7475	0.0016
552.9422	0.0048
553.1369	0.0069
553.3316	0.0032
553.5263	0.0047
553.7209	0.0014
553.9156	0.0134
554.1102	0.0103
554.3048	-0.0055
554.4994	0.0018
554.694	0.0028
554.8885	-0.0026
555.0831	0.0055
555.2776	0.0081
555.4721	0.0055
555.6666	0.006
555.8611	0.0067
556.0555	0.0049
556.25	0.0042
556.4444	0.0071
556.6388	0.0005
556.8332	0.0049
557.0276	-0.0003
557.222	-0.0013
557.4163	0.003
557.6107	0.0023
557.805	-0.005
557.9993	0.0057
558.1936	-0.0081
558.3879	0.01
558.5821	-0.0038
558.7764	-0.0045
558.9706	0.0047
559.1648	0.0095
559.359	-0.0087
559.5532	-0.0012
559.7473	-0.0009
559.9415	0.0014
560.1356	0.0153
560.3297	0.0027
560.5238	0.0101
560.7179	-0.0019
560.9119	-0.0044
561.106	-0.0075
561.3	0.0134
561.494	-0.01
561.688	-0
561.882	-0.0052
562.076	0.0089
562.2699	0.0091
562.4639	0.0118
562.6578	0.0048
562.8517	0.0001
563.0456	0.0088
563.2395	-0.0003
563.4333	-0.0066
563.6272	-0.0001
563.821	-0.0042
564.0148	0.01
564.2086	0.0056
564.4024	0.0054
564.5961	0.0099
564.7899	0.0117
564.9836	-0.006
565.1773	0.0107
565.371	-0.0048
565.5647	0.0013
565.7584	0.0107
565.952	0.009
566.1456	0.0053
566.3393	0.0036
566.5329	-0.0026
566.7264	0.0051
566.92	0.003
567.1136	0.0002
567.3071	-0.0101
567.5006	0.0034
567.6941	0.0077
567.8876	0.0019
568.0811	0.0157
568.2745	0.0009
568.468	0.0026
568.6614	0.0033
568.8548	0.0031
569.0482	0.01
569.2416	-0.0006
569.4349	0.0053
569.6283	-0.0001
569.8216	0.0054
570.0149	0.0013
570.2082	0.0083
570.4015	0.002
570.5947	0.0001
570.788	0.0068
570.9812	-0.0002
571.1744	0.0028
571.3676	0.0013
571.5608	-0.0042
571.754	0.0072
571.9471	0.0078
572.1402	0.0062
572.3333	0.0033
572.5264	0.0061
572.7195	-0.0008
572.9126	0.0074
573.1057	0.0063
573.2987	0.0087
573.4917	0.0021
573.6847	0.0037
573.8777	0.0058
574.0707	0.0007
574.2636	0.0057
574.4566	0.0037
574.6495	-0.003
574.8424	0.002
575.0353	0.0026
575.2281	0.0058
575.421	0.0003
575.6138	-0.0006
575.8067	0.0084
575.9995	0.001
576.1923	0.0065
576.385	0.0018
576.5778	0.0046
576.7706	0.0085
576.9633	0.0038
577.156	-0.0045
577.3487	0.0043
577.5414	0.0027
577.734	0.0005
577.9267	0.0049
578.1193	0.0051
578.3119	-0.0009
578.5045	0.001
578.6971	0.0031
578.8897	-0.0009
579.0822	0.0091
579.2747	-0.0008
579.4673	0.0036
579.6598	0.0062
579.8522	0.0029
580.0447	0.0055
580.2372	0.008
580.4296	0.0057
580.622	0.0021
580.8144	0.0047
581.0068	0.0033
581.1992	0.0041
581.3915	0.0001
581.5839	0.0015
581.7762	0.0002
581.9685	0.003
582.1608	0.0037
582.353	0.0046
582.5453	0.0077
582.7375	0.0025
582.9298	0.001
583.122	-0.0002
583.3142	0.0057
583.5063	0.0037
583.6985	-0.0009
583.8906	0.0044
584.0827	0.0036
584.2749	-0.0007
584.4669	0.0011
584.659	0.0057
584.8511	0.0069
585.0431	0.004
585.2352	0.0013
585.4272	-0.0022
585.6192	0.0042
585.8111	0.0027
586.0031	0.0061
586.195	-0.0005
586.387	0.0008
586.5789	0.0031
586.7708	0.0028
586.9627	0.0025
587.1545	-0.0005
587.3464	0.0052
587.5382	0.0059
587.73	0.0063
587.9218	-0.0028
588.1136	0.0003
588.3053	0.0026
588.4971	-0.0022
588.6888	-0.0001
588.8805	-0.0038
589.0722	0.0073
589.2639	0.0013
589.4556	0.0039
589.6472	0.0079
589.8389	0.0022
590.0305	-0.0003
590.2221	0.0017
590.4137	0.0041
590.6052	0.003
590.7968	0.0009
590.9883	-0.0034
591.1798	0.0004
591.3713	0.0026
591.5628	0.008
591.7543	-0.0002
591.9458	0.0074
592.1372	0.0098
592.3286	0.0008
592.52	0.0044
592.7114	0.0029
592.9028	0.0077
593.0941	0.0009
593.2855	-0.002
593.4768	0.0045
593.6681	0.0026
593.8594	0.0035
594.0506	0.0033
594.2419	0.0005
594.4331	0.0043
594.6244	-0.0002
594.8156	0.0015
595.0067	-0.0028
595.1979	-0.0012
595.3891	0.0033
595.5802	0.0082
595.7713	-0.0037
595.9624	0.0086
596.1535	0.0059
596.3446	-0.0012
596.5357	0.0082
596.7267	-0.0013
596.9177	0.0046
597.1087	-0.0028
597.2997	0.0044
597.4907	0.0026
597.6817	0.0016
597.8726	0.0033
598.0635	0.0013
598.2544	0.0037
598.4453	0.0022
598.6362	0.004
598.827	0.001
599.0179	0.001
599.2087	0.0019
599.3995	0.003
599.5903	0.0072
599.7811	0.0119
599.9718	0.0011
600.1626	-0.0008
600.3533	0.0018
600.544	0.0052
600.7347	0.002
600.9254	0.0048
601.116	0.0032
601.3067	0.0006
601.4973	0.0085
601.6879	0.0019
601.8785	0.007
602.0691	0.0041
602.2596	0.0094
602.4502	0.0091
602.6407	0.0065
602.8312	-0.0011
603.0217	0.0063
603.2122	0.0007
603.4027	0.0051
603.5931	-0.0012
603.7835	0.0027
603.9739	0.0045
604.1643	0.0109
604.3547	0.0081
604.5451	0.0053
604.7354	-0.0046
604.9257	0.0012
605.116	0.0004
605.3063	0.0038
605.4966	-0.0014
605.6869	0.0105
605.8771	0.0055
606.0673	0.0035
606.2575	-0.0011
606.4477	0.0068
606.6379	-0.0026
606.8281	0.0019
607.0182	-0.0005
607.2083	0.005
607.3985	0.0041
607.5885	0.008
607.7786	0.0004
607.9687	0.003
608.1587	0.0048
608.3488	0.0077
608.5388	-0.0014
608.7288	0.0016
608.9187	0.0022
609.1087	0.0061
609.2986	0.0073
609.4886	0.0007
609.6785	0.0052
609.8684	-0.0043
610.0582	0.002
610.2481	-0.0061
610.4379	0.0062
610.6278	0.0048
610.8176	0.0102
611.0074	0.0094
611.1971	-0.0018
611.3869	0.0046
611.5766	-0.0046
611.7664	0.0074
611.9561	-0.0002
612.1458	0.0012
612.3354	0.0021
612.5251	0.0026
612.7147	0.01
612.9044	-0
613.094	0.0075
613.2836	0.004
613.4731	0.0041
613.6627	0.0019
613.8522	0.0089
614.0417	0.0086
614.2313	0.0044
614.4207	0.0028
614.6102	0.0047
614.7997	0.009
614.9891	0.0077
615.1785	-0.0029
615.3679	0.0043
615.5573	0.0054
615.7467	-0.0012
615.9361	0.0077
616.1254	0.0009
616.3147	0.0006
616.504	0.0029
616.6933	0.0128
616.8826	0.0022
617.0718	-0.003
617.2611	-0.0025
617.4503	-0.0009
617.6395	0.0022
617.8287	0.0114
618.0179	-0.0034
618.207	0.0079
618.3961	-0.0021
618.5853	0.0044
618.7744	-0.0015
618.9634	0.0135
619.1525	0.0061
619.3416	0.0077
619.5306	0.0047
619.7196	0.0059
619.9086	0.0086
620.0976	-0.0017
620.2866	0.0025
620.4755	0.0064
620.6645	0.0038
620.8534	0.0089
621.0423	0.002
621.2312	0.0031
621.42	0.0017
621.6089	-0.0035
621.7977	-0.0016
621.9865	-0.0025
622.1753	-0.0066
622.3641	-0.0074
622.5529	0.0007
622.7416	-0.0039
622.9303	-0.0003
623.1191	0.003
623.3078	0.0007
623.4964	0.0047
623.6851	-0.0076
623.8737	0.0045
624.0624	-0.0089
624.251	0.0043
624.4396	0.0037
624.6282	0.0106
624.8167	0.0063
625.0053	0.0142
625.1938	-0.0052
625.3823	0.0035
625.5708	-0.0078
625.7593	-0.0037
625.9477	0.0031
626.1362	-0.0024
626.3246	0.0118
626.513	0.0028
626.7014	0.0062
626.8898	0.0106
627.0781	0.002
627.2665	-0.0031
627.4548	0.0055
627.6431	0.0124
627.8314	0.0124
628.0197	0.0074
628.2079	0.0091
628.3962	-0.0045
628.5844	0.0042
628.7726	0.0014
628.9608	0.0126
629.1489	0.01
629.3371	-0.0044
629.5252	0.0052
629.7134	-0.0118
629.9015	-0.0004
630.0895	-0.0111
630.2776	0.0017
630.4657	0.0133
630.6537	0.0097
630.8417	-0.004
631.0297	-0.0013
631.2177	0.0033
631.4057	0.0043
631.5936	0.0008
631.7815	-0.0035
631.9695	0.0082
632.1574	0.0072
632.3452	0.0082
632.5331	0.0047
632.7209	0.0016
632.9088	0.0129
633.0966	0.0206
633.2844	0.0097
633.4722	0.0041
633.6599	0.0079
633.8477	0.0171
634.0354	-0.0003
634.2231	-0.0094
634.4108	0.003
634.5985	-0.0048
634.7861	-0.0041
634.9738	-0.0104
635.1614	-0.0068
635.349	0.0062
635.5366	0.0009
635.7242	0.0077
635.9117	0.0245
636.0993	0.0149
636.2868	0.0058
636.4743	-0.006
636.6618	-0.0132
636.8492	0.0024
637.0367	-0.0089
637.2241	-0.0074
637.4115	0.0267
637.5989	0.0023
637.7863	0.0259
637.9737	0.007
638.161	0.0166
638.3484	-0.0063
638.5357	0.002
638.723	0.0271
638.9103	-0.0158
639.0975	-0.0029
639.2848	0.0027
639.472	0.0171
639.6592	-0.0172
639.8464	0.0042
640.0336	0.0061
640.2208	-0.0106
640.4079	-0.0045
640.595	-0.0031
640.7821	0.019
640.9692	-0.0058
641.1563	0.0042
641.3434	0.0122
641.5304	0.0092
641.7174	0.0097
641.9044	0.0052
642.0914	0.0258
642.2784	0.0184
642.4653	-0.0079
642.6523	-0.0037
642.8392	-0.0136
643.0261	0.0073
643.213	-0.0044
643.3999	-0.0009
643.5867	0.0072
643.7735	0.007
643.9604	0.0183
644.1472	0.0106
644.3339	0.0009
644.5207	0.0154
644.7075	0.0148
644.8942	0.0019
645.0809	0.0112
645.2676	-0.0058
645.4543	-0.0015
645.6409	0.0154
645.8276	0.0168
646.0142	0.0275
646.2008	-0.0033
646.3874	0.0064
646.574	-0.0009
646.7605	0.0102
646.9471	-0.0017
647.1336	-0.0085
647.3201	0.0071
647.5066	0.0166
647.6931	-0.0105
647.8795	-0.0017
648.0659	-0.0113
648.2524	0.0092
648.4388	0.0147
648.6252	0.0086
648.8115	0.0052
648.9979	0.02
649.1842	0.0151
649.3705	0.012
649.5568	-0.002
649.7431	0.0017
649.9294	-0.009
650.1156	-0.0022
650.3018	-0.0084
650.488	0.0062
650.6742	0.0129
650.8604	0.0161
651.0466	-0.009
651.2327	0.0155
651.4188	-0.0016
651.6049	0.009
651.791	-0.0021
651.9771	0.01
652.1632	-0.001
652.3492	0.0173
652.5352	0.0131
652.7212	0.0045
652.9072	0.0149
653.0932	0.0077
653.2791	-0.0052
653.465	-0.0038
653.651	-0.0004
653.8369	0.0004
654.0227	-0.0136
654.2086	0.0091
654.3944	0.0051
654.5803	0.0124
654.7661	0.0008
654.9519	0.0023
655.1377	0.0001
655.3234	0.0001
655.5092	0.0001
655.6949	0.0001
655.8806	0.0001
656.0663	0.0001
656.2519	0.0001
656.4376	0.0001
656.6232	0.0001
656.8088	0.0001
656.9945	0.0001
657.18	0.0001
657.3656	0.0001
657.5511	0.0001
657.7367	0.0001
657.9222	0.0001
658.1077	0.0001
658.2932	0.0001
658.4786	0.0001
658.6641	0.0001
658.8495	0.0001
659.0349	0.0001
659.2203	0.0001
659.4057	0.0001
659.591	0.0632
659.7764	0.0078
659.9617	0.0055
660.147	0.0051
660.3323	0.0019
660.5176	-0.0116
660.7028	-0.0038
660.888	0.0169
661.0733	0.0078
661.2585	-0.0027
661.4436	-0.0051
661.6288	0.0118
661.8139	0.0045
661.9991	-0.0188
662.1842	-0.0102
662.3693	0.0138
662.5544	0.036
662.7394	0.0066
662.9245	-0.0084
663.1095	-0.0054
663.2945	-0.0031
663.4795	-0.0134
663.6644	-0.0053
663.8494	0.0121
664.0343	0.0067
664.2193	-0
664.4042	-0.0104
664.589	0.017
664.7739	0.0106
664.9587	-0.0248
665.1436	-0.0191
665.3284	0.006
665.5132	-0.0243
665.698	0.0158
665.8827	0.0371
666.0675	-0.0143
666.2522	-0.0134
666.4369	0.0079
666.6216	0.0158
666.8063	-0.0061
666.9909	0.0064
667.1756	0.0216
667.3602	-0
667.5448	0.0036
667.7294	0.0126
667.9139	-0.0113
668.0985	0.0096
668.283	-0.0161
668.4675	0.0304
668.652	0.0084
668.8365	0.0077
669.0209	0.0071
669.2054	0.0275
669.3898	-0.0072
669.5742	0.0203
669.7586	0.0069
669.943	0.0228
670.1273	-0.0057
670.3117	0.0439
670.496	0.0048
670.6803	0.0291
670.8646	-0.0146
671.0488	0.0215
671.2331	-0.0225
671.4173	0.0026
671.6015	0.0062
671.7857	0.0005
671.9699	-0.0002
672.1541	-0.0042
672.3382	0.01
672.5223	-0.0008
672.7064	0.0031
672.8905	-0.0097
673.0746	0.011
673.2587	0.0099
673.4427	0.0043
673.6267	0.0089
673.8107	0.0307
673.9947	0.0098
674.1787	0.0058
674.3626	0.005
674.5465	0.0076
674.7304	-0.0007
674.9143	-0.0136
675.0982	0.0081
675.2821	0.0099
675.4659	0.0012
675.6497	-0.0038
675.8335	0.013
676.0173	0.0021
676.2011	0.0191
676.3849	0.0207
676.5686	0.034
676.7523	-0.0284
676.936	0.0041
677.1197	-0.0159
677.3034	0.0339
677.487	0.0007
677.6706	-0.0062
677.8542	0.0116
678.0378	0.0129
678.2214	0.0074
678.405	0.0077
678.5885	-0.0022
678.772	0.008
678.9555	0.0023
679.139	0.0019
679.3225	0.0099
679.5059	0.0063
679.6894	0.0021
679.8728	0.0059
680.0562	0.011
680.2395	-0.0066
680.4229	-0.0086
680.6062	0.0175
680.7896	-0.0139
680.9729	0.0199
681.1562	-0.0014
681.3394	0.0007
681.5227	-0.003
681.7059	0.0149
681.8891	0.0094
682.0723	0.0171
682.2555	-0.0159
682.4387	0.0111
682.6218	-0
682.805	0.028
682.9881	0.0114
683.1712	0.0242
683.3542	0.013
683.5373	-0.0019
683.7203	0.0083
683.9034	0.0047
684.0864	-0.0062
684.2694	0.0014
684.4523	0.0065
684.6353	0.0024
684.8182	-0.0047
685.0011	0.0051
685.184	0.004
685.3669	0.0176
685.5498	-0.0147
685.7326	0.0013
685.9154	-0.0121
686.0982	0.0048
686.281	0.0085
686.4638	-0.0015
686.6465	0.0018
686.8293	-0.0158
687.012	-0.0041
687.1947	0.0111
687.3774	0.0017
687.56	0.0005
687.7427	0.0034
687.9253	-0.0364
688.1079	-0.0099
688.2905	0.0006
688.4731	0.0299
688.6556	0.0076
688.8382	-0.0204
689.0207	0.015
689.2032	0.0148
689.3857	-0.0097
689.5681	0.0016
689.7506	0.0239
689.933	-0.0089
690.1154	0.0042
690.2978	0.0016
690.4802	0.0247
690.6626	-0.002
690.8449	0.0046
691.0272	-0.0064
691.2095	-0.0059
691.3918	0.0135
691.5741	0.033
691.7563	-0.0124
691.9386	0.0265
692.1208	0.0039
692.303	-0.0003
692.4852	0.0108
692.6673	0.0026
692.8495	0.0071
693.0316	0.0009
693.2137	0.0241
693.3958	0.0059
693.5778	0.0003
693.7599	0.0066
693.9419	0.017
694.1239	-0.0011
694.3059	-0.0035
694.4879	0.0006
694.6699	-0.004
694.8518	0.0086
695.0337	0.0126
695.2157	0.0126
695.3975	-0.0148
695.5794	-0.01
695.7613	0.0186
695.9431	-0.0174
696.1249	-0.0056
696.3067	-0.0068
696.4885	0.0006
696.6703	-0.0026
696.852	-0.0128
697.0337	0.0072
697.2154	-0.0027
697.3971	0.0142
697.5788	0.007
697.7605	-0.0053
697.9421	0.0064
698.1237	0.0202
698.3053	-0.0076
698.4869	0.0157
698.6685	-0.0033
698.85	0.0149
699.0315	-0.0099
699.213	0.0193
699.3945	-0.001
699.576	0.0127
699.7575	0.0231
699.9389	0.0191
700.1203	0.0133
700.3017	0.0015
700.4831	0.0271
700.6645	0.0454
700.8458	-0.0164
701.0271	0.0425
701.2084	0.0299
701.3897	0.0241
701.571	0.0091
701.7523	0.0115
701.9335	0.009
702.1147	0.0275
702.2959	0.0003
702.4771	0.0024
702.6583	0.0157
702.8394	-0.0185
703.0205	0.0086
703.2016	-0.0018
703.3827	-0.0122
703.5638	0.0213
703.7449	0.0233
703.9259	0.0233
704.1069	-0.0255
704.2879	0.0055
704.4689	0.0044
704.6499	0.0092
704.8308	0.016
705.0117	-0.016
705.1927	0.0237
705.3735	0.0014
705.5544	0.0365
705.7353	0.0054
705.9161	-0.0008
706.0969	0.0149
706.2777	-0.0053
706.4585	-0.0087
706.6393	0.0204
706.82	0.0031
707.0007	-0.0099
707.1815	-0.01
707.3621	0.0181
707.5428	-0.002
707.7235	-0.0013
707.9041	0.0155
708.0847	0.0028
708.2653	0.0272
708.4459	0.0063
708.6265	-0.0132
708.807	0.0041
708.9875	-0.0066
709.168	0.0017
709.3485	0.0017
709.529	-0.0063
709.7095	0.002
709.8899	0.0056
710.0703	0.0034
710.2507	-0.012
710.4311	-0.0303
710.6115	0.0284
710.7918	0.0225
710.9721	0.0102
711.1524	0.0104
711.3327	-0.0286
711.513	-0.0012
711.6932	0.0176
711.8735	0.0387
712.0537	-0.0057
712.2339	-0.0036
712.4141	0.0432
712.5942	0.0033
712.7744	-0.0007
712.9545	0.0219
713.1346	0.0352
713.3147	0.0146
713.4947	-0.0077
713.6748	-0.0024
713.8548	0.0129
714.0348	0.0272
714.2148	-0.0003
714.3948	0.0223
714.5748	0.0177
714.7547	-0.0069
714.9346	0.0267
715.1145	-0.001
715.2944	-0.0132
715.4743	0.0068
715.6541	0.0073
715.834	0.024
716.0138	-0.0052
716.1936	-0.0126
716.3733	0.0015
716.5531	-0.0038
716.7328	-0.0138
716.9126	-0.0055
717.0923	-0.0096
717.2719	0.0266
717.4516	0.0083
717.6312	0.0055
717.8109	0.0261
717.9905	0.0307
718.1701	0.0096
718.3496	-0.017
718.5292	-0.0086
718.7087	-0.01
718.8882	0.0278
719.0677	0.0085
719.2472	0.0007
719.4267	-0.0081
719.6061	-0
719.7856	0.0405
719.965	-0.0129
720.1443	-0.002
720.3237	-0.0159
720.5031	0.0235
720.6824	0.0278
720.8617	-0
721.041	0.0168
721.2203	-0.008
721.3995	0.0023
721.5788	0.0111
721.758	0.0265
721.9372	-0
722.1164	-0.0017
722.2956	-0.0244
722.4747	0.0422
722.6538	-0.0118
722.8329	0.0302
723.012	0.0308
723.1911	-0.0243
723.3702	0.0072
723.5492	0.0013
723.7282	-0.0085
723.9072	0.0285
724.0862	0.0031
724.2652	0.0108
724.4441	-0.0045
724.623	0.0098
724.8019	0.0178
724.9808	-0.0044
725.1597	0.001
725.3385	0.013
725.5174	0.0017
725.6962	0.0259
725.875	0.0006
726.0538	0.0112
726.2325	0.0249
726.4112	-0.0275
726.59	0.0097
726.7687	0.0147
726.9474	0.0057
727.126	0.0217
727.3047	0.0008
727.4833	-0.0101
727.6619	-0.0159
727.8405	0.0142
728.0191	0.0227
728.1976	0.0039
728.3762	0.0153
728.5547	0.0129
728.7332	0.0175
728.9116	0.0123
729.0901	-0.0041
729.2686	0.0255
729.447	0.0128
729.6254	0.0079
729.8038	0.0038
729.9821	-0.0091
730.1605	0.0093
730.3388	-0.0119
730.5171	0.0077
730.6954	-0.0054
730.8737	0.016
731.0519	-0.0147
731.2302	0.0198
731.4084	-0.0014
731.5866	-0.0117
731.7648	0.01
731.9429	0.0156
732.1211	-0.0047
732.2992	0.0014
732.4773	0.0206
732.6554	0.002
732.8335	0.0277
733.0115	0.0177
733.1896	-0.0242
733.3676	0.0172
733.5456	0.011
733.7235	0.0065
733.9015	0.0028
734.0794	-0.0028
734.2574	-0.0285
734.4353	0.0261
734.6131	-0.0009
734.791	0.0195
734.9689	-0.0189
735.1467	0.0047
735.3245	0.0234
735.5023	0.0011
735.68	-0.0103
735.8578	0.0169
736.0355	0.0094
736.2132	0.0118
736.3909	0.0075
736.5686	0.0063
736.7463	-0.0146
736.9239	0.0132
737.1015	0.0107
737.2791	0.0019
737.4567	0.0253
737.6343	-0.0243
737.8118	0.0046
737.9894	0.0085
738.1669	0.0036
738.3444	0.0166
738.5218	-0.0263
738.6993	0.0083
738.8767	0.0199
739.0541	-0.0045
739.2315	0.0008
739.4089	0.0265
739.5863	0.0009
739.7636	-0.0045
739.9409	0.0106
740.1182	-0.0069
740.2955	0.0023
740.4728	-0.0342
740.65	-0.0152
740.8272	0.0268
741.0044	-0.0069
741.1816	-0.0057
741.3588	-0.0227
741.5359	0.005
741.7131	0.0048
741.8902	0.0299
742.0673	-0.0174
742.2444	0.0332
742.4214	0.015
742.5985	-0.0247
742.7755	-0.0337
742.9525	-0.0284
743.1295	-0.0202
743.3064	0.0108
743.4834	0.0324
743.6603	0.027
743.8372	-0.0138
744.0141	0.0341
744.191	-0.0024
744.3678	-0.0316
744.5446	0.004
744.7215	-0.0084
744.8982	0.0183
745.075	0.0417
745.2518	0.0027
745.4285	0.0251
745.6052	-0.023
745.7819	0.007
745.9586	0.0086
746.1353	-0.0126
746.3119	0.0357
746.4885	0.0085
746.6651	-0.0173
746.8417	-0.0141
747.0183	0.0136
747.1948	0.0364
747.3714	0.0037
747.5479	0.0373
747.7244	-0.029
747.9008	-0.0132
748.0773	0.0487
748.2537	0.0332
748.4301	0.0158
748.6065	-0.0195
748.7829	-0.014
748.9593	-0.0035
749.1356	0.0287
749.3119	0.0129
749.4882	0.0211
749.6645	0.0021
749.8408	0.0265
750.017	0.0241
750.1933	-0.0054
750.3695	0.0371
750.5457	-0.0192
750.7218	0.0067
750.898	-0.0027
751.0741	0.0013
751.2502	0.0156
751.4263	-0.0016
751.6024	0.0232
751.7784	-0.007
751.9545	0.0127
752.1305	0.0103
752.3065	0.0094
752.4825	0.0036
752.6584	0.0063
752.8344	0.0026
753.0103	-0.0228
753.1862	0.0096
753.3621	-0.0004
753.5379	0.0129
753.7138	0.0047
753.8896	-0.0053
754.0654	-0.0055
754.2412	0.0122
754.417	-0.0064
754.5927	0.0134
754.7685	0.0086
754.9442	0.0243
755.1199	0.0085
755.2956	0.0234
755.4712	0.0163
755.6469	0.0052
755.8225	0.011
755.9981	0.0138
756.1736	0.0039
756.3492	-0.0084
756.5248	0.0283
756.7003	-0.0187
756.8758	0.0008
757.0513	0.0004
757.2267	-0.0073
757.4022	0.0074
757.5776	-0.004
757.753	0.0051
757.9284	0.0095
758.1038	0.0059
758.2791	-0.0066
758.4545	-0.0092
758.6298	0.0124
758.8051	0.0202
758.9803	0.014
759.1556	-0.0081
759.3308	-0.009
759.506	-0.0037
759.6812	0.0134
759.8564	0.0191
760.0316	-0.0117
760.2067	0.0073
760.3819	0.0061
760.557	-0.0073
760.732	-0.002
760.9071	0.0054
761.0821	-0.0008
761.2572	0.0053
761.4322	0.0175
761.6072	-0.0074
761.7821	-0.0136
761.9571	0.0083
762.132	0.0202
762.3069	0.0163
762.4818	-0.0109
762.6567	-0.0048
762.8316	0.0205
763.0064	0.031
763.1812	0.0117
763.356	-0.0162
763.5308	0.0383
763.7055	-0.004
763.8803	-0.0258
764.055	0.0092
764.2297	0.0002
764.4044	-0.0201
764.579	-0.0098
764.7537	-0.0141
764.9283	0.0217
765.1029	0.001
765.2775	0.0108
765.4521	-0.0059
765.6266	0.0015
765.8011	0.0127
765.9756	0.029
766.1501	0.0115
766.3246	0.0009
766.4991	0.0101
766.6735	0.0184
766.8479	0.0157
767.0223	0.0293
767.1967	0.0051
767.371	0.0298
767.5454	0.036
767.7197	0.0033
767.894	0.0024
768.0683	0.0124
768.2425	0.0142
768.4168	0.0364
768.591	-0.0225
768.7652	-0.0019
768.9394	-0.0373
769.1135	0.007
769.2877	0.0218
769.4618	0.0136
769.6359	-0
769.81	0.0231
769.984	-0.0023
770.1581	0.0018
770.3321	0.0243
770.5061	0.0014
770.6801	0.0125
770.8541	0.0094
771.028	0.0239
771.202	0.0439
771.3759	0.0296
771.5498	0.0037
771.7236	-0.0009
771.8975	0.0282
772.0713	-0.0109
772.2451	-0.0073
772.4189	-0.0058
772.5927	-0.0482
772.7665	-0.0234
772.9402	0.0225
773.1139	-0.0077
773.2876	0.0134
773.4613	0.0068
773.635	0.0106
773.8086	0.0225
773.9822	0.0054
774.1558	0.046
774.3294	-0.0041
774.503	-0.015
774.6765	0.0443
774.8501	-0.0187
775.0236	0.0458
775.1971	0.0211
775.3705	0.0572
775.544	-0.0067
775.7174	0.0428
775.8908	0.0469
776.0642	0.0057
776.2376	0.031
776.4109	-0.0009
776.5843	-0.0298
776.7576	0.0154
776.9309	0.0429
777.1041	-0.0471
777.2774	-0.0366
777.4506	0.0121
777.6238	0.0061
777.797	-0.0036
777.9702	-0.0001
778.1434	0.0068
778.3165	-0.0234
778.4896	-0.0178
778.6627	0.0138
778.8358	-0.0313
779.0089	-0.0228
779.1819	0.0237
779.3549	-0.0029
779.5279	-0.021
779.7009	0.0961
779.8739	0.0571
780.0468	0.0042
780.2197	0.0246
780.3926	-0.0167
780.5655	0.0321
780.7384	-0.0072
780.9112	0.0376
781.0841	0.0055
781.2569	0.0226
781.4297	0.0124
781.6024	0.019
781.7752	0.0509
781.9479	0.0482
782.1206	-0.0094
782.2933	-0.0079
782.466	0.0135
782.6386	-0.0141
782.8113	0.0195
782.9839	-0.0224
783.1565	0.0349
783.329	-0.0092
783.5016	0.0168
783.6741	0.0006
783.8466	0.0409
784.0191	0.0082
784.1916	0.0015
784.3641	-0.0379
784.5365	0.0139
784.7089	-0.0204
784.8813	0.0701
785.0537	0.016
785.2261	-0.0059
785.3984	0.0248
785.5707	-0.0124
785.743	0.0323
785.9153	0.0112
786.0876	-0.0031
786.2598	0.0098
786.432	-0.0168
786.6042	0.0454
786.7764	-0.0323
786.9486	0.0183
787.1207	0.0489
787.2928	0.0283
787.4649	-0.0153
787.637	0.0149
787.8091	0.0136
787.9811	0.0723
788.1532	-0.0207
788.3252	0.0401
788.4972	0.022
788.6691	0.0035
788.8411	0.0006
789.013	0.0159
789.1849	0.0064
789.3568	0.0127
789.5287	0.0442
789.7005	-0.0681
789.8723	0.0103
790.0442	0.012
790.2159	-0.0083
790.3877	0.0438
790.5595	0.0356
790.7312	-0.0392
790.9029	0.002
791.0746	-0.0135
791.2463	-0.0205
791.4179	-0.0084
791.5896	0.0315
791.7612	0.0131
791.9328	0.0363
792.1044	0.0173
792.2759	-0.0123
792.4474	-0.0216
792.619	-0.0211
792.7905	0.0455
792.9619	0.0609
793.1334	0.0884
793.3048	0.0494
793.4762	0.0395
793.6476	-0.0458
793.819	0.0046
793.9904	0.011
794.1617	-0.0159
794.333	0.0135
794.5043	0.029
794.6756	-0.0029
794.8469	0.0104
795.0181	0.0265
795.1893	0.0113
795.3605	-0.0031
795.5317	0.0055
795.7029	-0.0034
795.874	-0.0219
796.0452	0.0886
796.2163	0.0899
796.3873	0.0626
796.5584	0.0545
796.7294	-0.0261
796.9005	0.1245
797.0715	0.0429
797.2425	0.0378
797.4134	0.0321
797.5844	0.0456
797.7553	-0.0491
797.9262	0.0309
798.0971	0.0458
798.2679	-0.0013
798.4388	0.0828
798.6096	0.0398
798.7804	0.0122
798.9512	-0.0261
799.122	-0.0322
799.2927	0.1023
799.4635	-0.0479
799.6342	-0.0424
799.8049	0.0525
799.9755	-0.0269
800.1462	-0.0055
800.3168	-0.0269
800.4874	-0.1365
800.658	0.0035
800.8286	0.0353
800.9991	-0.0033
801.1696	0.0426
801.3402	0.0353
801.5106	-0.0306
801.6811	0.0236
801.8516	0.0047
802.022	0.023
802.1924	-0.0549
802.3628	-0.0041
802.5332	0.0865
802.7035	0.0757
802.8739	-0.0192
803.0442	-0.0394
803.2145	-0.0082
803.3847	0.0832
803.555	0.0212
803.7252	-0.1217
803.8954	-0.0302
804.0656	-0.0193
804.2358	0.0839
804.4059	0.0156
804.5761	0.0251
804.7462	0.0016
804.9163	0.064
805.0864	0.0194
805.2564	0.0672
805.4264	0.0851
805.5965	-0.0112
805.7665	-0.0393
805.9364	0.0014
806.1064	-0.0262
806.2763	0.0955
806.4462	0.0074
806.6161	0.007
806.786	0.0214
806.9559	-0.0219
807.1257	0.0091
807.2955	-0.0242
807.4653	-0.0496
807.6351	0.0123
807.8048	-0.0304
807.9746	0.0189
808.1443	-0.0147
808.314	0.0117
808.4837	0.0514
808.6533	-0.0419
808.8229	0.0226
808.9926	0.0251
809.1622	0.013
809.3317	-0.0316
809.5013	0.011
809.6708	0.0066
809.8403	0.0387
810.0098	0.018
810.1793	-0.0343
810.3488	-0.0021
810.5182	0.0653
810.6876	0.0298
810.857	0.0343
811.0264	-0.0633
811.1958	0.1405
811.3651	-0.0072
811.5344	0.0731
811.7037	0.0843
811.873	0.0293
812.0422	-0.1496
812.2115	-0.0048
812.3807	-0.0465
812.5499	0.005
812.7191	-0.0657
812.8882	-0.093
813.0574	0.1437
813.2265	-0.0417
813.3956	-0.038
813.5646	0.1131
813.7337	-0.0279
813.9027	-0.0143
814.0718	0.0474
814.2407	0.0063
814.4097	-0.0001
814.5787	0.0417
814.7476	0.0043
814.9165	-0.0001
815.0854	-0.0039
815.2543	0.0493
815.4232	0.0759
815.592	-0.015
815.7608	-0.0877
815.9296	0.0026
816.0984	0.068
816.2671	-0.3271
816.4359	0.0863
816.6046	-0.0464
816.7733	-0.0171
816.942	-0.0336
817.1106	0.165
817.2793	-0.091
817.4479	-0.0449
817.6165	-0.0325
817.785	0.068
817.9536	-0.1304
818.1221	0.0019
818.2906	-0.0263
818.4591	-0.0679
818.6276	0.0302
818.7961	0.1592
818.9645	0.018
819.1329	0.0081
819.3013	-0.0916
819.4697	-0.0005
819.638	0.0729
819.8064	0.1747
819.9747	0.1239
820.143	-0.158
820.3113	0.194
820.4795	0.0221
820.6477	0.0333
820.816	0.1124
820.9842	0.0522
821.1523	0.0727
821.3205	-0.1104
821.4886	-0.0487
821.6567	-0.0458
821.8248	0.2412
821.9929	-0.0236
822.1609	-0.0231
822.329	0.0401
822.497	0.0806
822.665	0.0263
822.833	-0.1237
823.0009	-0.0946
823.1688	0.1438
823.3367	-0.1603
823.5046	0.0108
823.6725	-0.0288
823.8404	0.2974
824.0082	0.0068
824.176	-0.0697
824.3438	0.0798
824.5116	-0.087
824.6793	0.1629
824.847	0.0553
825.0147	0.1108
825.1824	0.0944
825.3501	-0.0865
825.5177	-0.0797
825.6854	-0.0523
825.853	-0.129
826.0206	-0.0967
826.1881	-0.0484
826.3557	-0.0376
826.5232	0.2029
826.6907	0.029
826.8582	0.0791
827.0257	0.1509
827.1931	0.1053
827.3605	0.0152
827.528	0.1048
827.6953	-0.1599
827.8627	-0.0707
828.03	0.0975
828.1974	-0.074
828.3647	-0.0135
828.532	-0.0948
828.6992	0.0735
828.8665	-0.2386
829.0337	-0.0499
829.2009	-0.0555
829.3681	0.0192
829.5352	-0.3507
829.7024	0.1614
829.8695	-0.1386
830.0366	0.0366
830.2037	0.0079
830.3707	0.0453
830.5378	0.0222
830.7048	-0.2154
830.8718	0.1294
831.0388	0.0158
831.2057	0.3134
831.3727	0.4858
831.5396	0.2562
831.7065	-0.9031
831.8734	0.2902
832.0402	0.2089
832.2071	-0.6322
832.3739	-0.0846
832.5407	-1.7984
832.7075	0.3047
832.8742	0.7518
833.041	0.1573
833.2077	0.1886
833.3744	-0.0163
833.541	-0.0649
833.7077	0.1128
833.8743	0.0825
834.0409	-0.0424
834.2075	0.1173
834.3741	0.0517
834.5407	0.1897
834.7072	0.046
834.8737	0.1764
835.0402	0.4153
835.2067	-0.0071
835.3731	0.1379
835.5395	0.0547
835.706	-0.1317
835.8723	0.0429
836.0387	0.1643
836.2051	1.06
836.3714	0.05
836.5377	-0.053
836.704	0.0737
836.8703	0.1302
837.0365	-0.7294
837.2027	0.0498
837.3689	-0.0484
837.5351	0.4812
837.7013	0.1387
837.8674	-0.3896
838.0335	-0.0256
838.1997	0.2597
838.3657	-0
838.5318	-0.5874
838.6978	-0
838.8639	-0.2175
839.0299	0.346
839.1958	0.2074
839.3618	0.1576
839.5277	0.2603
839.6937	0.2831
839.8596	0.0441
840.0254	0.0164
840.1913	-0.2495
840.3571	0.1121
840.523	0.0969
840.6888	-0.0005
840.8545	0.4105
841.0203	0.0877
841.186	0.2406
841.3517	-0.2987
841.5174	0.4028
841.6831	-0.0439
841.8488	0.1033
842.0144	0.8958
842.18	0.1235
842.3456	-0.7555
842.5112	-0
842.6767	-0.1703
842.8422	-0.2509
843.0077	0.1073
843.1732	-0.4398
843.3387	1.6891
843.5042	0.522
843.6696	1.2343
843.835	0.3439
844.0004	-0.2321
844.1657	-0
844.3311	-0
844.4964	-0.4757
844.6617	0.0218
844.827	-0
844.9923	0.388
845.1575	-0.2315
845.3227	-0.0753
845.4879	0.4054
845.6531	0.1132
845.8183	-0
845.9834	-0.1059
846.1485	0.1464
846.3136	0.2392
846.4787	-0
846.6438	0.0124
846.8088	0.3241
846.9738	-0
847.1388	-0.0229
847.3038	0.3635
847.4687	0.4494
847.6337	0.5987
847.7986	-0.1547
847.9635	1.7844
848.1284	-0
848.2932	0.0577
848.458	-0
848.6228	-0
848.7876	0.461
848.9524	-0
849.1172	-0.9031
849.2819	-0
849.4466	0.2789
849.6113	0.2717
849.7759	-0
849.9406	-0.2727
850.1052	-0
850.2698	-0.0223
850.4344	0.2109
850.599	0.1842
850.7635	0.2317
850.928	0.4654
851.0925	0.5151
851.257	0.5751
851.4215	0.5476
851.5859	0.1767
851.7503	-0
851.9147	0.7379
852.0791	0.0739
852.2434	0.2249
852.4078	-0
852.5721	-0
852.7364	-0.0009
852.9007	-0.2944
853.0649	-0
853.2291	1.104
853.3934	0.6896
853.5575	-0.1211
853.7217	0.2496
853.8859	-0.6055
854.05	-0.5656
854.2141	0.4814
854.3782	0.6546
854.5423	0.2171
854.7063	0.1816
854.8703	0.5384
855.0343	0.4329
855.1983	0.4666
855.3623	0.2865
855.5262	0.8473
855.6901	0.6885
855.854	0.0238
856.0179	-0.2466
856.1818	0.122
856.3456	0.7295
856.5094	-0.4021
856.6732	-0.0854
856.837	-0.8816
857.0008	-0.5935
857.1645	-0.1948
857.3282	-0.4957
857.4919	0.0759
857.6556	-0.0702
857.8192	0.2617
857.9828	-0.0437
858.1465	0.1168
858.31	-0
858.4736	-0.4783
858.6372	-0.3293
858.8007	0.1468
858.9642	0.3778
859.1277	1.0662
859.2911	-0.3214
859.4546	-1.5658
859.618	0.9051
859.7814	-0.2078
859.9448	0.1527
860.1081	-0.2014
860.2715	-0
860.4348	-0.0011
860.5981	1.5533
860.7614	-0.158
860.9246	0.9619
861.0879	-0.0009
861.2511	0.2771
861.4143	-0
861.5774	-0.1366
861.7406	-0
861.9037	0.2109
862.0668	-1.1289
862.2299	-0
862.393	0.4137
862.556	0.2399
862.7191	-0.1226
862.8821	0.356
863.0451	0.0351
863.208	-0.3725
863.371	-0.4405
863.5339	0.3056
863.6968	0.6231
863.8597	-0
864.0225	-0
864.1854	0.1866
864.3482	-0
864.511	0.133
864.6737	-0
864.8365	0.108
864.9992	-0
865.1619	-0.3473
865.3246	-0
865.4873	-0
865.65	0.2617
865.8126	-0
865.9752	-0.2186
866.1378	-0
866.3004	-0.0306
866.4629	-1.7064
866.6254	-0.3781
866.7879	-0
866.9504	0.0969
867.1129	-0.1719
867.2753	-0.0223
867.4377	0.5183
867.6001	-0.2605
867.7625	-0.0117
867.9249	0.6005
868.0872	0.4708
868.2495	-0
868.4118	-0
868.5741	-0.202
868.7363	-0.9483
868.8986	0.0043
869.0608	-0.3308
869.223	-0.6499
869.3851	-0.2209
869.5473	0.1768
869.7094	1.3131
869.8715	-0.918
870.0336	-0.0059
870.1957	-0
870.3577	0.4512
870.5197	0.2123
870.6817	-0.8217
870.8437	-0.3923
871.0057	-0
871.1676	0.1106
871.3295	-0
871.4914	-0
871.6533	-0
871.8151	0.6576
871.977	-0.2493
872.1388	-0
872.3006	-0.5784
872.4623	-0.7088
872.6241	-0
872.7858	0.0595
872.9475	0.667
873.1092	0.6811
873.2709	0.2552
873.4325	-1.5278
873.5941	-0
873.7557	-0
873.9173	-0
874.0789	0.3757
874.2404	0.3948
874.4019	-0.058
874.5634	-0
874.7249	-0
874.8863	-0.0672
875.0478	-0.2002
875.2092	-0
875.3706	-0
875.5319	-0
875.6933	-0
875.8546	-0.1915
876.0159	0.459
876.1772	-0
876.3385	-0
876.4997	-0
876.6609	-0
876.8221	-0
876.9833	-0.3337
877.1445	0.4453
877.3056	-0.835
877.4667	-0.8869
877.6278	-0.114
877.7889	-0.1352
877.9499	-0
878.111	-0.3084
878.272	-0.0023
878.433	0.0172
878.5939	-0
878.7549	-0
878.9158	-0
879.0767	-0
879.2376	-0
879.3984	0.6651
879.5593	-0
879.7201	-1.3697
879.8809	-0
880.0417	-0.2706
880.2024	-0.2183
880.3632	-0.1833
880.5239	-0.1788
880.6846	-0.7065
880.8452	-0.1129
881.0059	-0
881.1665	-0.2512
881.3271	0.535
881.4877	0.108
881.6483	-1.2349
881.8088	-0
881.9693	-0
882.1298	-0
882.2903	-0
