Data from D4ACN5uM460nmA_Absorbance_13-05-41-885.txt Node
Date: Fri Feb 21 13:05:41 GMT 2025
User: LASERRRRR
Spectrometer: FLMT03099
Trigger mode: 0
Integration Time (sec): 1.500000E-2
Scans to average: 1
Electric dark correction enabled: true
Nonlinearity correction enabled: false
Boxcar width: 0
XAxis mode: Wavelengths
Number of Pixels in Spectrum: 3648
>>>>>Begin Spectral Data<<<<<
179.3399	-0.1932
179.5586	-0.1932
179.7771	-0.1932
179.9957	0.0904
180.2143	-0
180.4329	0.526
180.6514	-0
180.8699	0.7702
181.0885	0.9294
181.307	0.3727
181.5255	0.2441
181.744	-0
181.9625	0.21
182.181	-0.0411
182.3994	0.0785
182.6179	0.3541
182.8363	-0
183.0547	0.1818
183.2732	0.2968
183.4916	0.1724
183.71	0.4156
183.9284	0.2927
184.1467	0.2172
184.3651	0.0582
184.5835	0.2065
184.8018	0.0636
185.0201	0.7688
185.2385	0.2465
185.4568	0.4646
185.6751	0.3373
185.8934	0.1957
186.1117	-0.1076
186.3299	0.1224
186.5482	0.1388
186.7664	0.1903
186.9847	0.1943
187.2029	0.3136
187.4211	0.1921
187.6393	0.0986
187.8575	0.5246
188.0757	0.1701
188.2939	0.4405
188.512	0.5941
188.7302	0.1687
188.9483	0.2097
189.1665	0.4409
189.3846	0.3008
189.6027	0.3343
189.8208	0.1975
190.0389	0.3036
190.257	0.0875
190.475	0.1603
190.6931	0.122
190.9111	0.1024
191.1292	0.2469
191.3472	0.082
191.5652	0.227
191.7832	0.0595
192.0012	0.1691
192.2192	0.3192
192.4371	0.1855
192.6551	0.1828
192.873	0.1576
193.091	0.1677
193.3089	0.2378
193.5268	0.2023
193.7447	0.163
193.9626	0.2116
194.1805	0.251
194.3984	0.2805
194.6162	0.2357
194.8341	0.2379
195.0519	0.3119
195.2697	0.2224
195.4875	0.2999
195.7054	0.3427
195.9231	0.3264
196.1409	0.3284
196.3587	0.2731
196.5765	0.3153
196.7942	0.3497
197.012	0.3092
197.2297	0.3151
197.4474	0.3809
197.6651	0.4187
197.8828	0.3884
198.1005	0.4178
198.3182	0.4265
198.5358	0.4087
198.7535	0.4413
198.9711	0.4211
199.1888	0.3842
199.4064	0.4191
199.624	0.3542
199.8416	0.3601
200.0592	0.3924
200.2767	0.4
200.4943	0.4437
200.7119	0.3703
200.9294	0.481
201.1469	0.4329
201.3645	0.4329
201.582	0.3672
201.7995	0.4104
202.017	0.4172
202.2344	0.439
202.4519	0.4178
202.6694	0.3816
202.8868	0.3822
203.1042	0.4029
203.3217	0.4
203.5391	0.3812
203.7565	0.3663
203.9739	0.3549
204.1913	0.3655
204.4086	0.3558
204.626	0.3467
204.8433	0.386
205.0607	0.3488
205.278	0.3485
205.4953	0.3495
205.7126	0.347
205.9299	0.3221
206.1472	0.3419
206.3644	0.3578
206.5817	0.3082
206.7989	0.3318
207.0162	0.3408
207.2334	0.3482
207.4506	0.3273
207.6678	0.3222
207.885	0.3092
208.1022	0.3008
208.3194	0.288
208.5365	0.3116
208.7537	0.3115
208.9708	0.2954
209.1879	0.3124
209.405	0.2867
209.6222	0.2831
209.8392	0.3192
210.0563	0.272
210.2734	0.2793
210.4905	0.2902
210.7075	0.2739
210.9245	0.2706
211.1416	0.2982
211.3586	0.2937
211.5756	0.2321
211.7926	0.2654
212.0096	0.2664
212.2265	0.2563
212.4435	0.2514
212.6604	0.2635
212.8774	0.2409
213.0943	0.2635
213.3112	0.2565
213.5281	0.2603
213.745	0.237
213.9619	0.2375
214.1788	0.264
214.3956	0.2507
214.6125	0.253
214.8293	0.2573
215.0461	0.2448
215.2629	0.2433
215.4798	0.2251
215.6965	0.2466
215.9133	0.2533
216.1301	0.2358
216.3469	0.2683
216.5636	0.255
216.7803	0.249
216.9971	0.2607
217.2138	0.2502
217.4305	0.2533
217.6472	0.2528
217.8639	0.256
218.0805	0.2572
218.2972	0.245
218.5138	0.2591
218.7305	0.2811
218.9471	0.2442
219.1637	0.2833
219.3803	0.2536
219.5969	0.256
219.8135	0.2738
220.0301	0.2643
220.2466	0.2548
220.4632	0.2516
220.6797	0.2628
220.8962	0.2589
221.1127	0.2682
221.3292	0.2691
221.5457	0.2803
221.7622	0.2787
221.9787	0.2996
222.1951	0.2758
222.4116	0.2807
222.628	0.2932
222.8444	0.2868
223.0608	0.273
223.2772	0.2813
223.4936	0.2824
223.71	0.2888
223.9264	0.286
224.1427	0.2919
224.3591	0.2873
224.5754	0.2997
224.7917	0.2954
225.008	0.2999
225.2243	0.3168
225.4406	0.296
225.6569	0.3185
225.8732	0.3095
226.0894	0.2955
226.3057	0.3151
226.5219	0.3156
226.7381	0.3198
226.9543	0.3172
227.1705	0.3172
227.3867	0.3262
227.6029	0.3295
227.8191	0.3332
228.0352	0.329
228.2513	0.3576
228.4675	0.3461
228.6836	0.3446
228.8997	0.3467
229.1158	0.3616
229.3319	0.3614
229.548	0.3563
229.764	0.3593
229.9801	0.3747
230.1961	0.3781
230.4121	0.3654
230.6282	0.3867
230.8442	0.385
231.0602	0.3743
231.2761	0.3782
231.4921	0.3907
231.7081	0.3914
231.924	0.3984
232.14	0.3928
232.3559	0.4025
232.5718	0.4124
232.7877	0.4155
233.0036	0.4042
233.2195	0.4005
233.4353	0.4083
233.6512	0.4216
233.867	0.4225
234.0829	0.4263
234.2987	0.43
234.5145	0.442
234.7303	0.4445
234.9461	0.4253
235.1619	0.4425
235.3776	0.4392
235.5934	0.4293
235.8091	0.4442
236.0249	0.4411
236.2406	0.439
236.4563	0.4469
236.672	0.4482
236.8877	0.4412
237.1034	0.4419
237.319	0.4505
237.5347	0.4498
237.7503	0.4547
237.966	0.4664
238.1816	0.4475
238.3972	0.4618
238.6128	0.457
238.8284	0.4613
239.0439	0.4556
239.2595	0.465
239.475	0.4589
239.6906	0.4627
239.9061	0.4622
240.1216	0.4573
240.3371	0.462
240.5526	0.4627
240.7681	0.46
240.9836	0.4529
241.199	0.4604
241.4145	0.4504
241.6299	0.4517
241.8453	0.4426
242.0607	0.4397
242.2761	0.4393
242.4915	0.4204
242.7069	0.4111
242.9223	0.413
243.1376	0.3998
243.353	0.4052
243.5683	0.3948
243.7836	0.3901
243.9989	0.3831
244.2142	0.3782
244.4295	0.3708
244.6448	0.3593
244.86	0.3458
245.0753	0.3347
245.2905	0.3357
245.5057	0.3362
245.721	0.3242
245.9362	0.3206
246.1514	0.3139
246.3665	0.3083
246.5817	0.3008
246.7969	0.2991
247.012	0.2865
247.2271	0.2921
247.4423	0.2815
247.6574	0.2725
247.8725	0.2684
248.0876	0.2667
248.3026	0.2687
248.5177	0.2628
248.7328	0.2484
248.9478	0.2446
249.1628	0.2515
249.3779	0.2386
249.5929	0.2397
249.8079	0.2381
250.0228	0.227
250.2378	0.228
250.4528	0.2284
250.6677	0.22
250.8827	0.2173
251.0976	0.2207
251.3125	0.2091
251.5274	0.2053
251.7423	0.205
251.9572	0.2076
252.172	0.2067
252.3869	0.2052
252.6017	0.197
252.8166	0.2004
253.0314	0.1954
253.2462	0.194
253.461	0.1951
253.6758	0.1961
253.8906	0.1956
254.1053	0.1943
254.3201	0.192
254.5348	0.1856
254.7496	0.1814
254.9643	0.1868
255.179	0.1879
255.3937	0.1915
255.6083	0.1897
255.823	0.1855
256.0377	0.1788
256.2523	0.1864
256.467	0.1824
256.6816	0.1813
256.8962	0.1746
257.1108	0.1837
257.3254	0.1792
257.54	0.175
257.7545	0.1803
257.9691	0.1786
258.1836	0.1763
258.3981	0.1821
258.6127	0.17
258.8272	0.1821
259.0417	0.174
259.2561	0.1742
259.4706	0.1729
259.6851	0.1738
259.8995	0.1784
260.114	0.1741
260.3284	0.1721
260.5428	0.1749
260.7572	0.1795
260.9716	0.1766
261.186	0.1777
261.4003	0.1744
261.6147	0.1739
261.829	0.169
262.0433	0.1749
262.2577	0.1743
262.472	0.1759
262.6863	0.181
262.9005	0.1707
263.1148	0.1731
263.3291	0.1729
263.5433	0.1746
263.7576	0.1771
263.9718	0.1716
264.186	0.1782
264.4002	0.1718
264.6144	0.1843
264.8286	0.18
265.0427	0.1833
265.2569	0.1821
265.471	0.1757
265.6851	0.1796
265.8993	0.174
266.1134	0.179
266.3275	0.175
266.5415	0.1778
266.7556	0.1806
266.9697	0.1776
267.1837	0.1773
267.3978	0.1745
267.6118	0.1726
267.8258	0.1768
268.0398	0.1789
268.2538	0.1793
268.4677	0.1766
268.6817	0.1734
268.8957	0.173
269.1096	0.1648
269.3235	0.1703
269.5374	0.1748
269.7514	0.1731
269.9652	0.1726
270.1791	0.1691
270.393	0.1707
270.6068	0.169
270.8207	0.173
271.0345	0.167
271.2483	0.1643
271.4622	0.1652
271.676	0.166
271.8897	0.1669
272.1035	0.1714
272.3173	0.1745
272.531	0.1628
272.7448	0.1645
272.9585	0.1605
273.1722	0.1644
273.3859	0.1669
273.5996	0.1671
273.8133	0.1746
274.0269	0.1623
274.2406	0.1666
274.4542	0.162
274.6679	0.1664
274.8815	0.1678
275.0951	0.1709
275.3087	0.1709
275.5223	0.1716
275.7358	0.1683
275.9494	0.1683
276.1629	0.1687
276.3765	0.17
276.59	0.167
276.8035	0.1658
277.017	0.17
277.2305	0.1743
277.444	0.1729
277.6574	0.1718
277.8709	0.1743
278.0843	0.1754
278.2978	0.1725
278.5112	0.1712
278.7246	0.1722
278.938	0.1754
279.1513	0.1715
279.3647	0.1737
279.5781	0.1729
279.7914	0.176
280.0047	0.1749
280.2181	0.1758
280.4314	0.1736
280.6447	0.1825
280.8579	0.1759
281.0712	0.1742
281.2845	0.1788
281.4977	0.1766
281.711	0.1716
281.9242	0.1795
282.1374	0.1748
282.3506	0.1697
282.5638	0.1789
282.7769	0.1715
282.9901	0.1852
283.2033	0.1817
283.4164	0.1739
283.6295	0.1838
283.8426	0.1772
284.0557	0.1889
284.2688	0.1849
284.4819	0.175
284.695	0.1834
284.908	0.183
285.1211	0.1818
285.3341	0.1797
285.5471	0.1856
285.7601	0.1828
285.9731	0.1853
286.1861	0.1847
286.3991	0.1868
286.612	0.1882
286.825	0.1851
287.0379	0.1889
287.2508	0.1874
287.4637	0.189
287.6766	0.1911
287.8895	0.1832
288.1024	0.1938
288.3152	0.1858
288.5281	0.1875
288.7409	0.1918
288.9538	0.1867
289.1666	0.1935
289.3794	0.187
289.5922	0.1851
289.8049	0.1875
290.0177	0.1939
290.2304	0.1904
290.4432	0.1938
290.6559	0.1968
290.8686	0.1948
291.0813	0.1897
291.294	0.1944
291.5067	0.1887
291.7194	0.1887
291.932	0.1899
292.1447	0.1897
292.3573	0.1929
292.5699	0.1905
292.7825	0.1866
292.9951	0.1916
293.2077	0.1949
293.4203	0.1895
293.6328	0.1929
293.8454	0.1967
294.0579	0.1949
294.2704	0.1934
294.4829	0.1944
294.6954	0.1896
294.9079	0.1929
295.1204	0.1895
295.3328	0.1913
295.5453	0.1947
295.7577	0.1956
295.9701	0.1905
296.1825	0.1956
296.3949	0.1902
296.6073	0.191
296.8197	0.1913
297.0321	0.201
297.2444	0.1936
297.4567	0.1957
297.6691	0.1896
297.8814	0.192
298.0937	0.1919
298.306	0.1908
298.5182	0.1971
298.7305	0.1898
298.9428	0.1886
299.155	0.1858
299.3672	0.1874
299.5794	0.1909
299.7916	0.1897
300.0038	0.1899
300.216	0.1903
300.4282	0.194
300.6403	0.1981
300.8525	0.1915
301.0646	0.1936
301.2767	0.1936
301.4888	0.1907
301.7009	0.1951
301.913	0.2009
302.125	0.1909
302.3371	0.1908
302.5491	0.1883
302.7612	0.1954
302.9732	0.1924
303.1852	0.1918
303.3972	0.1987
303.6092	0.1891
303.8211	0.1895
304.0331	0.1878
304.245	0.1921
304.457	0.1913
304.6689	0.1813
304.8808	0.184
305.0927	0.1898
305.3046	0.1856
305.5164	0.1842
305.7283	0.1854
305.9401	0.1746
306.152	0.1818
306.3638	0.1789
306.5756	0.1813
306.7874	0.177
306.9992	0.177
307.2109	0.1719
307.4227	0.174
307.6344	0.1738
307.8462	0.1681
308.0579	0.1708
308.2696	0.1666
308.4813	0.1644
308.693	0.1622
308.9046	0.17
309.1163	0.1596
309.328	0.1572
309.5396	0.1496
309.7512	0.1542
309.9628	0.1517
310.1744	0.1479
310.386	0.1422
310.5976	0.1427
310.8091	0.1438
311.0207	0.1467
311.2322	0.1429
311.4437	0.1436
311.6552	0.1461
311.8667	0.1444
312.0782	0.1412
312.2897	0.1395
312.5012	0.1366
312.7126	0.131
312.924	0.1434
313.1355	0.133
313.3469	0.1333
313.5583	0.1338
313.7696	0.1293
313.981	0.1337
314.1924	0.1282
314.4037	0.1314
314.6151	0.1298
314.8264	0.1297
315.0377	0.1191
315.249	0.1304
315.4603	0.1222
315.6716	0.1275
315.8828	0.123
316.0941	0.1249
316.3053	0.1175
316.5165	0.122
316.7277	0.1196
316.9389	0.123
317.1501	0.1188
317.3613	0.1216
317.5724	0.121
317.7836	0.1135
317.9947	0.1188
318.2058	0.121
318.417	0.1159
318.6281	0.1198
318.8391	0.1156
319.0502	0.1166
319.2613	0.1177
319.4723	0.1118
319.6834	0.1243
319.8944	0.1167
320.1054	0.1182
320.3164	0.1161
320.5274	0.1224
320.7383	0.1256
320.9493	0.1166
321.1602	0.1197
321.3712	0.1149
321.5821	0.1112
321.793	0.1306
322.0039	0.1183
322.2148	0.1176
322.4257	0.1177
322.6365	0.1149
322.8474	0.1219
323.0582	0.1211
323.269	0.1195
323.4798	0.1229
323.6906	0.1131
323.9014	0.1186
324.1122	0.1142
324.3229	0.1235
324.5337	0.1281
324.7444	0.1251
324.9551	0.1217
325.1658	0.1205
325.3765	0.1208
325.5872	0.1224
325.7979	0.1232
326.0085	0.1174
326.2192	0.1225
326.4298	0.1254
326.6404	0.1243
326.851	0.1222
327.0616	0.1252
327.2722	0.1225
327.4828	0.1218
327.6933	0.1304
327.9039	0.1247
328.1144	0.1284
328.3249	0.1244
328.5354	0.1282
328.7459	0.1308
328.9564	0.1316
329.1669	0.1309
329.3773	0.1239
329.5878	0.1224
329.7982	0.1252
330.0086	0.1305
330.219	0.1244
330.4294	0.121
330.6398	0.1304
330.8502	0.1336
331.0605	0.1268
331.2708	0.12
331.4812	0.1253
331.6915	0.128
331.9018	0.1226
332.1121	0.1321
332.3224	0.1312
332.5326	0.1237
332.7429	0.1341
332.9531	0.1336
333.1633	0.1258
333.3735	0.1257
333.5837	0.1301
333.7939	0.1292
334.0041	0.136
334.2143	0.1303
334.4244	0.1402
334.6346	0.1262
334.8447	0.1314
335.0548	0.1345
335.2649	0.1306
335.475	0.137
335.685	0.1351
335.8951	0.1357
336.1051	0.1374
336.3152	0.1397
336.5252	0.1293
336.7352	0.1292
336.9452	0.1299
337.1552	0.1354
337.3652	0.1271
337.5751	0.141
337.7851	0.1385
337.995	0.1386
338.2049	0.1336
338.4148	0.1349
338.6247	0.1353
338.8346	0.136
339.0445	0.1378
339.2543	0.1374
339.4642	0.1315
339.674	0.135
339.8838	0.1366
340.0936	0.1444
340.3034	0.1377
340.5132	0.1413
340.7229	0.138
340.9327	0.1519
341.1424	0.1435
341.3522	0.1339
341.5619	0.1433
341.7716	0.1455
341.9813	0.1484
342.1909	0.1405
342.4006	0.1463
342.6102	0.1446
342.8199	0.1486
343.0295	0.1437
343.2391	0.1442
343.4487	0.1486
343.6583	0.1489
343.8679	0.1466
344.0774	0.1366
344.287	0.1478
344.4965	0.1486
344.706	0.1503
344.9155	0.1518
345.125	0.1491
345.3345	0.1583
345.544	0.1501
345.7534	0.1505
345.9629	0.1547
346.1723	0.1571
346.3817	0.152
346.5911	0.1573
346.8005	0.1599
347.0099	0.1546
347.2193	0.1648
347.4286	0.1579
347.638	0.1625
347.8473	0.1632
348.0566	0.1589
348.2659	0.162
348.4752	0.1693
348.6845	0.1637
348.8937	0.1589
349.103	0.156
349.3122	0.1638
349.5214	0.1673
349.7306	0.1716
349.9398	0.1633
350.149	0.1646
350.3582	0.1681
350.5674	0.1653
350.7765	0.1778
350.9856	0.1636
351.1948	0.1707
351.4039	0.1756
351.613	0.1731
351.822	0.1754
352.0311	0.1723
352.2402	0.1729
352.4492	0.1751
352.6582	0.1759
352.8672	0.1743
353.0762	0.1709
353.2852	0.1698
353.4942	0.1874
353.7032	0.1773
353.9121	0.1828
354.1211	0.1801
354.33	0.176
354.5389	0.1712
354.7478	0.1776
354.9567	0.1818
355.1655	0.1792
355.3744	0.181
355.5833	0.1811
355.7921	0.1909
356.0009	0.1887
356.2097	0.1838
356.4185	0.1884
356.6273	0.1863
356.8361	0.1899
357.0448	0.1853
357.2536	0.1887
357.4623	0.1963
357.671	0.189
357.8797	0.1896
358.0884	0.1871
358.2971	0.1891
358.5057	0.1981
358.7144	0.195
358.923	0.1928
359.1316	0.2014
359.3402	0.1931
359.5488	0.1937
359.7574	0.207
359.966	0.1983
360.1746	0.1959
360.3831	0.2061
360.5916	0.1994
360.8002	0.208
361.0087	0.2065
361.2172	0.2093
361.4256	0.2094
361.6341	0.2096
361.8426	0.2101
362.051	0.2179
362.2594	0.2127
362.4678	0.2181
362.6762	0.2143
362.8846	0.2167
363.093	0.2133
363.3014	0.2226
363.5097	0.2227
363.718	0.2227
363.9264	0.2287
364.1347	0.2223
364.343	0.2287
364.5513	0.2304
364.7595	0.2249
364.9678	0.2211
365.176	0.2274
365.3842	0.2331
365.5925	0.2304
365.8007	0.2336
366.0089	0.2303
366.217	0.2396
366.4252	0.2328
366.6333	0.2376
366.8415	0.2373
367.0496	0.2425
367.2577	0.243
367.4658	0.2396
367.6739	0.2364
367.882	0.2407
368.09	0.2395
368.2981	0.2396
368.5061	0.2454
368.7141	0.2484
368.9221	0.2551
369.1301	0.2468
369.3381	0.251
369.5461	0.2487
369.754	0.2517
369.962	0.2515
370.1699	0.2665
370.3778	0.2628
370.5857	0.2466
370.7936	0.2576
371.0015	0.2614
371.2093	0.2526
371.4172	0.2515
371.625	0.2542
371.8328	0.2515
372.0406	0.2696
372.2484	0.2704
372.4562	0.2604
372.664	0.2642
372.8717	0.2609
373.0795	0.2696
373.2872	0.271
373.4949	0.2735
373.7026	0.2691
373.9103	0.269
374.118	0.2661
374.3256	0.2648
374.5333	0.2657
374.7409	0.2698
374.9485	0.2718
375.1561	0.2779
375.3637	0.266
375.5713	0.2764
375.7789	0.2709
375.9864	0.2728
376.194	0.2917
376.4015	0.2707
376.609	0.2771
376.8165	0.2878
377.024	0.277
377.2315	0.2834
377.4389	0.2768
377.6464	0.2915
377.8538	0.2858
378.0612	0.2808
378.2686	0.2806
378.476	0.2898
378.6834	0.2885
378.8908	0.2959
379.0981	0.2946
379.3055	0.2917
379.5128	0.294
379.7201	0.2801
379.9274	0.2895
380.1347	0.296
380.342	0.2973
380.5492	0.2914
380.7565	0.2834
380.9637	0.3082
381.1709	0.2954
381.3781	0.309
381.5853	0.301
381.7925	0.303
381.9997	0.306
382.2068	0.3054
382.4139	0.3003
382.6211	0.304
382.8282	0.3009
383.0353	0.3056
383.2424	0.3044
383.4494	0.3012
383.6565	0.3016
383.8635	0.2933
384.0706	0.3102
384.2776	0.3066
384.4846	0.318
384.6916	0.3052
384.8986	0.3111
385.1055	0.3148
385.3125	0.3082
385.5194	0.3136
385.7263	0.3057
385.9333	0.318
386.1402	0.3124
386.347	0.2978
386.5539	0.3098
386.7608	0.3099
386.9676	0.3165
387.1744	0.306
387.3813	0.3036
387.5881	0.2992
387.7948	0.3108
388.0016	0.3181
388.2084	0.3116
388.4151	0.3118
388.6219	0.3088
388.8286	0.3088
389.0353	0.307
389.242	0.3083
389.4487	0.3068
389.6553	0.3004
389.862	0.2993
390.0686	0.3079
390.2753	0.3029
390.4819	0.3049
390.6885	0.304
390.8951	0.2998
391.1016	0.3037
391.3082	0.3037
391.5147	0.2923
391.7213	0.2989
391.9278	0.2898
392.1343	0.2995
392.3408	0.2937
392.5473	0.2853
392.7537	0.2862
392.9602	0.2866
393.1666	0.2931
393.373	0.279
393.5794	0.2797
393.7858	0.2824
393.9922	0.2861
394.1986	0.2788
394.4049	0.2828
394.6113	0.2821
394.8176	0.2739
395.0239	0.277
395.2302	0.2799
395.4365	0.2795
395.6428	0.2711
395.8491	0.2799
396.0553	0.2701
396.2615	0.2754
396.4678	0.2786
396.674	0.2662
396.8802	0.2714
397.0863	0.27
397.2925	0.2685
397.4987	0.2657
397.7048	0.2692
397.9109	0.2608
398.117	0.2608
398.3231	0.2623
398.5292	0.2536
398.7353	0.2691
398.9413	0.2628
399.1474	0.2656
399.3534	0.2683
399.5594	0.2671
399.7654	0.2576
399.9714	0.2752
400.1774	0.2626
400.3833	0.2664
400.5893	0.2589
400.7952	0.2607
401.0011	0.2647
401.207	0.2655
401.4129	0.2671
401.6188	0.2547
401.8247	0.2695
402.0305	0.2648
402.2364	0.2558
402.4422	0.2619
402.648	0.2718
402.8538	0.2696
403.0596	0.2639
403.2654	0.2633
403.4711	0.2621
403.6768	0.2627
403.8826	0.2657
404.0883	0.26
404.294	0.2585
404.4997	0.2578
404.7054	0.2662
404.911	0.2582
405.1167	0.2677
405.3223	0.255
405.5279	0.2594
405.7335	0.2681
405.9391	0.2586
406.1447	0.2665
406.3502	0.2601
406.5558	0.2563
406.7613	0.2633
406.9668	0.2623
407.1724	0.2662
407.3778	0.2659
407.5833	0.2635
407.7888	0.2606
407.9942	0.2609
408.1997	0.2652
408.4051	0.2611
408.6105	0.2658
408.8159	0.2606
409.0213	0.2636
409.2267	0.2635
409.432	0.2627
409.6374	0.264
409.8427	0.2668
410.048	0.2641
410.2533	0.2664
410.4586	0.2569
410.6639	0.2662
410.8691	0.2509
411.0744	0.264
411.2796	0.2723
411.4848	0.2646
411.69	0.2532
411.8952	0.2553
412.1004	0.2661
412.3056	0.2545
412.5107	0.2674
412.7158	0.266
412.921	0.2608
413.1261	0.2597
413.3312	0.2585
413.5362	0.2769
413.7413	0.2653
413.9464	0.2527
414.1514	0.2673
414.3564	0.2547
414.5614	0.2589
414.7664	0.2548
414.9714	0.2617
415.1764	0.2593
415.3813	0.25
415.5863	0.2641
415.7912	0.2639
415.9961	0.2556
416.201	0.2652
416.4059	0.2545
416.6108	0.2595
416.8156	0.2526
417.0205	0.2449
417.2253	0.2653
417.4301	0.2557
417.6349	0.2626
417.8397	0.2464
418.0445	0.2558
418.2492	0.2489
418.454	0.2483
418.6587	0.2493
418.8634	0.2594
419.0681	0.2567
419.2728	0.2453
419.4775	0.2572
419.6822	0.2421
419.8868	0.2568
420.0915	0.246
420.2961	0.2489
420.5007	0.2523
420.7053	0.232
420.9099	0.2524
421.1144	0.2399
421.319	0.2333
421.5235	0.2418
421.728	0.24
421.9325	0.2407
422.137	0.242
422.3415	0.2368
422.546	0.2371
422.7504	0.2361
422.9549	0.2444
423.1593	0.2317
423.3637	0.2373
423.5681	0.2337
423.7725	0.2297
423.9769	0.2458
424.1812	0.2197
424.3856	0.2365
424.5899	0.228
424.7942	0.23
424.9985	0.2249
425.2028	0.2254
425.4071	0.2254
425.6113	0.2245
425.8156	0.2224
426.0198	0.2184
426.224	0.2267
426.4282	0.2191
426.6324	0.2269
426.8366	0.2129
427.0407	0.215
427.2449	0.2162
427.449	0.2157
427.6531	0.2073
427.8572	0.2164
428.0613	0.2166
428.2654	0.2025
428.4694	0.2046
428.6735	0.2014
428.8775	0.2042
429.0815	0.2101
429.2855	0.1985
429.4895	0.1986
429.6935	0.2034
429.8975	0.1956
430.1014	0.1997
430.3053	0.1964
430.5093	0.1886
430.7132	0.1949
430.9171	0.1933
431.1209	0.1958
431.3248	0.1791
431.5286	0.181
431.7325	0.1927
431.9363	0.1829
432.1401	0.1793
432.3439	0.1754
432.5477	0.1648
432.7514	0.1768
432.9552	0.1748
433.1589	0.1631
433.3627	0.1669
433.5664	0.1757
433.7701	0.18
433.9737	0.1666
434.1774	0.1656
434.3811	0.1544
434.5847	0.1669
434.7883	0.1659
434.9919	0.1528
435.1955	0.1552
435.3991	0.1534
435.6027	0.1449
435.8062	0.1557
436.0098	0.1549
436.2133	0.1501
436.4168	0.1425
436.6203	0.1386
436.8238	0.1426
437.0272	0.1455
437.2307	0.1265
437.4341	0.1331
437.6375	0.145
437.841	0.1223
438.0443	0.1355
438.2477	0.1271
438.4511	0.1161
438.6545	0.1307
438.8578	0.1206
439.0611	0.1393
439.2644	0.1275
439.4677	0.1214
439.671	0.1099
439.8743	0.1178
440.0775	0.1104
440.2808	0.1125
440.484	0.1106
440.6872	0.1017
440.8904	0.0985
441.0936	0.112
441.2967	0.0937
441.4999	0.1028
441.703	0.1019
441.9062	0.1026
442.1093	0.1092
442.3124	0.1017
442.5155	0.0921
442.7185	0.0924
442.9216	0.0971
443.1246	0.0897
443.3276	0.0864
443.5307	0.0877
443.7337	0.0838
443.9366	0.0842
444.1396	0.0751
444.3426	0.0836
444.5455	0.0786
444.7484	0.0811
444.9513	0.0712
445.1542	0.0836
445.3571	0.0711
445.56	0.0688
445.7628	0.0749
445.9657	0.0764
446.1685	0.075
446.3713	0.0707
446.5741	0.0724
446.7769	0.0714
446.9797	0.0687
447.1824	0.0639
447.3852	0.0525
447.5879	0.0579
447.7906	0.0591
447.9933	0.0642
448.196	0.0533
448.3986	0.0556
448.6013	0.0499
448.8039	0.0585
449.0066	0.0637
449.2092	0.065
449.4118	0.0625
449.6143	0.0522
449.8169	0.0569
450.0195	0.0472
450.222	0.0579
450.4245	0.0499
450.627	0.0521
450.8295	0.0395
451.032	0.044
451.2345	0.0462
451.4369	0.0405
451.6394	0.0337
451.8418	0.0402
452.0442	0.0437
452.2466	0.0316
452.449	0.0429
452.6513	0.0428
452.8537	0.0361
453.056	0.0326
453.2583	0.0317
453.4607	0.0245
453.663	0.0403
453.8652	0.0237
454.0675	0.0403
454.2697	0.0278
454.472	0.0343
454.6742	0.036
454.8764	0.0427
455.0786	0.0306
455.2808	0.0218
455.4829	0.024
455.6851	0.0363
455.8872	0.0176
456.0893	0.0249
456.2915	0.0146
456.4935	0.0343
456.6956	0.0213
456.8977	0.0223
457.0997	0.0271
457.3018	0.0196
457.5038	0.0346
457.7058	0.027
457.9078	0.0272
458.1098	0.0222
458.3117	0.022
458.5137	0.0091
458.7156	0.0203
458.9175	0.0257
459.1194	0.0149
459.3213	0.0199
459.5232	0.0222
459.725	0.0195
459.9269	0.0231
460.1287	0.0116
460.3305	0.0282
460.5323	0.0216
460.7341	0.0163
460.9359	0.0191
461.1376	0.0146
461.3394	0.0273
461.5411	0.019
461.7428	0.0104
461.9445	0.0161
462.1462	0.0149
462.3479	0.0183
462.5495	0.0229
462.7512	0.0232
462.9528	0.0093
463.1544	0.0182
463.356	0.0098
463.5576	0.0226
463.7592	0.0103
463.9607	0.0018
464.1623	0.0149
464.3638	0.0118
464.5653	0.0177
464.7668	0.0179
464.9683	0.0154
465.1697	0.007
465.3712	-0.0003
465.5726	0.0148
465.7741	0.0186
465.9755	0.0101
466.1769	0.0188
466.3782	0.0063
466.5796	0.0145
466.7809	0.0047
466.9823	0.0085
467.1836	0.0168
467.3849	0.0063
467.5862	0.0051
467.7875	0.0131
467.9887	0.0023
468.19	0.0124
468.3912	0.0204
468.5924	0.0135
468.7936	0.0151
468.9948	0.0032
469.196	0.0076
469.3972	0.0006
469.5983	0.0122
469.7994	0.0157
470.0006	0.0033
470.2017	0.0017
470.4027	0.0179
470.6038	0.0091
470.8049	0.0091
471.0059	0.0154
471.2069	0.0103
471.408	0.0047
471.6089	0.004
471.8099	0.0056
472.0109	0.0153
472.2119	0.0157
472.4128	0.0031
472.6137	0.0072
472.8146	0.0098
473.0155	0.0133
473.2164	0.0043
473.4173	-0.0019
473.6181	0.001
473.819	0.01
474.0198	0.004
474.2206	-0.0011
474.4214	0.0101
474.6222	-0.0001
474.8229	-0.0054
475.0237	0.007
475.2244	0.0082
475.4251	-0.0057
475.6258	0.0048
475.8265	0.0075
476.0272	0.005
476.2278	0.0068
476.4285	-0.0034
476.6291	0.0016
476.8297	0.0078
477.0303	-0.0018
477.2309	0.0056
477.4315	0.003
477.632	-0.0021
477.8326	0.0101
478.0331	0.0076
478.2336	0.0066
478.4341	0.0071
478.6346	0.0013
478.8351	0.0018
479.0355	0.007
479.236	0.0175
479.4364	0.0088
479.6368	0.0115
479.8372	0.0062
480.0376	0.0014
480.2379	0.0026
480.4383	0.0173
480.6386	-0.004
480.8389	0.0024
481.0392	0.0043
481.2395	0.0145
481.4398	-0.002
481.6401	0.0069
481.8403	0.0022
482.0405	0.0067
482.2408	0.0068
482.441	0.0057
482.6411	0.0138
482.8413	0
483.0415	0.0075
483.2416	0.0043
483.4417	0.0047
483.6419	-0.0021
483.8419	0.0091
484.042	0.0058
484.2421	-0.0034
484.4422	0.003
484.6422	0.0096
484.8422	0.0099
485.0422	0.0023
485.2422	0.0017
485.4422	0.001
485.6422	0.0012
485.8421	0.0024
486.042	0.0136
486.242	0.0004
486.4419	0.0061
486.6417	-0.001
486.8416	0.0035
487.0415	0.0025
487.2413	0.0003
487.4411	0.0004
487.641	0.004
487.8408	0.0034
488.0405	0.008
488.2403	-0.0024
488.4401	-0.0014
488.6398	0.0091
488.8395	0.0059
489.0392	0.006
489.2389	0.0064
489.4386	-0.0043
489.6383	0.0135
489.8379	0.0033
490.0376	-0.001
490.2372	0.0055
490.4368	-0.0067
490.6364	-0.0051
490.836	0.0034
491.0355	0.004
491.2351	0.0088
491.4346	0.0006
491.6341	-0.0021
491.8336	0.0064
492.0331	0.0053
492.2326	0.0056
492.432	0.003
492.6315	0.0135
492.8309	-0.0025
493.0303	0.001
493.2297	0.005
493.4291	0.008
493.6284	0.0122
493.8278	0.0019
494.0271	0.0011
494.2264	0.0017
494.4257	0.009
494.625	0.0028
494.8243	0.0008
495.0236	0.0085
495.2228	0.0066
495.422	0.0085
495.6213	0.0094
495.8205	0.0082
496.0196	0.0052
496.2188	0.0034
496.418	0.001
496.6171	-0.0015
496.8162	0.0036
497.0153	0.0056
497.2144	0.0016
497.4135	0.0062
497.6126	-0.0005
497.8116	0.0015
498.0107	0.0052
498.2097	0.0071
498.4087	-0.0007
498.6077	-0.0158
498.8067	0.006
499.0056	-0.0043
499.2046	0.0069
499.4035	0.0072
499.6024	-0.0001
499.8013	0.0131
500.0002	0.0105
500.199	0.0075
500.3979	0.0061
500.5967	-0.0002
500.7956	0.0044
500.9944	0.0001
501.1932	0.0144
501.3919	0.0019
501.5907	0.0101
501.7895	0.0015
501.9882	0.0027
502.1869	0.0081
502.3856	0.0007
502.5843	0.0092
502.783	0.0026
502.9816	0.0113
503.1803	0.0033
503.3789	0.0069
503.5775	0.0041
503.7761	0.0005
503.9747	0.0094
504.1732	-0.0071
504.3718	0.01
504.5703	0.0012
504.7689	-0.0078
504.9674	-0.0008
505.1658	-0.0051
505.3643	0.0121
505.5628	0.0086
505.7612	0.0073
505.9597	-0.0059
506.1581	0.0054
506.3565	-0.0021
506.5549	0.0041
506.7532	-0.0073
506.9516	0.0088
507.1499	0.0008
507.3482	0.0121
507.5465	0.0119
507.7448	0.0022
507.9431	-0.0038
508.1414	-0.0012
508.3396	0.0021
508.5379	0.0014
508.7361	0.0068
508.9343	0.0049
509.1325	0.011
509.3306	0.0034
509.5288	-0.0048
509.7269	0.0011
509.9251	0.0077
510.1232	0.0057
510.3213	0.01
510.5193	0.0045
510.7174	0.0028
510.9154	0.0088
511.1135	-0.0002
511.3115	-0.0036
511.5095	0.0064
511.7075	0.0053
511.9055	0.0132
512.1034	0.003
512.3014	0.0057
512.4993	0.0103
512.6972	-0.0015
512.8951	-0.0009
513.093	-0.0032
513.2908	0.0181
513.4887	0.012
513.6865	0.0042
513.8844	0.0028
514.0822	0.0053
514.2799	-0.0029
514.4777	-0.003
514.6755	0.0015
514.8732	-0.002
515.0709	-0.0022
515.2687	0.0096
515.4664	0.0069
515.664	0.011
515.8617	0.0045
516.0594	0.0036
516.257	0.0011
516.4546	0.0139
516.6522	-0.0023
516.8498	0.0066
517.0474	0.007
517.2449	0.0015
517.4425	0.0015
517.64	0.002
517.8375	0.0026
518.035	-0.003
518.2325	-0.0105
518.43	-0.0048
518.6274	-0.0052
518.8249	-0.0002
519.0223	0.0097
519.2197	0.0067
519.4171	-0.0049
519.6145	0.0185
519.8118	-0.0094
520.0092	0.004
520.2065	0.0086
520.4038	0.0058
520.6011	0.0116
520.7984	0.0059
520.9956	0.008
521.1929	0.0171
521.3901	0.0076
521.5874	0.0012
521.7846	-0.0029
521.9818	0.0066
522.1789	-0.0037
522.3761	0.0162
522.5732	0.0099
522.7704	-0.0078
522.9675	-0.008
523.1646	-0.0043
523.3617	0.016
523.5587	0.0063
523.7558	0.0052
523.9528	-0.0024
524.1498	-0.0058
524.3468	0.0066
524.5438	-0.0031
524.7408	0.0034
524.9378	0.0047
525.1347	0.003
525.3316	-0.0005
525.5285	-0.0006
525.7254	0.007
525.9223	0.0061
526.1192	0.0039
526.316	0.0066
526.5129	0.0074
526.7097	0.0043
526.9065	0.0134
527.1033	-0.0021
527.3	-0.0013
527.4968	0.0103
527.6935	-0.0016
527.8903	0.0056
528.087	0.0053
528.2837	0.0117
528.4804	-0.0027
528.677	0.0027
528.8737	0.0064
529.0703	0.0077
529.2669	0.0103
529.4635	-0.0072
529.6601	-0.0005
529.8567	-0.0069
530.0532	0.0025
530.2498	0.0018
530.4463	-0.002
530.6428	0.0076
530.8393	0.011
531.0358	0.0014
531.2322	0.0003
531.4287	-0.0016
531.6251	-0.0014
531.8215	0.0021
532.0179	-0.0007
532.2143	0.0059
532.4107	0.0036
532.607	0.0013
532.8034	0.0011
532.9997	-0.0003
533.196	-0.0039
533.3923	0.0009
533.5886	0.0094
533.7848	0.0039
533.9811	0.008
534.1773	0.0017
534.3735	0.0045
534.5697	0.0011
534.7659	0.01
534.9621	0.004
535.1582	0.0038
535.3544	0.0181
535.5505	0.0059
535.7466	0.0033
535.9427	0.0046
536.1387	-0.0021
536.3348	0.0081
536.5308	-0.0025
536.7269	0.006
536.9229	-0.0003
537.1189	0.0042
537.3148	0.0081
537.5108	-0.0013
537.7068	0.0168
537.9027	-0.0093
538.0986	0.0092
538.2945	0.0049
538.4904	-0.0072
538.6863	0.0044
538.8821	0.0087
539.078	0.0021
539.2738	0.0029
539.4696	-0.0074
539.6654	-0.0008
539.8611	-0.0007
540.0569	0.0045
540.2526	0.0113
540.4484	-0.003
540.6441	0.0059
540.8398	0.0113
541.0355	0.0089
541.2311	-0.0012
541.4268	0.0069
541.6224	0.0101
541.818	0.0127
542.0136	0.013
542.2092	0.0056
542.4048	0.0009
542.6003	0.0009
542.7959	0.0048
542.9914	0.0073
543.1869	0.0047
543.3824	-0.0012
543.5779	0.0158
543.7734	0.0109
543.9688	0.0122
544.1642	0.0045
544.3596	0.0088
544.555	-0.0008
544.7504	0.0039
544.9458	0.0028
545.1411	0.0117
545.3365	-0.0014
545.5318	0.0128
545.7271	0.0037
545.9224	-0.0053
546.1177	0.0064
546.3129	0.0007
546.5081	-0.0002
546.7034	0.0059
546.8986	0.004
547.0938	0.0139
547.289	0.0066
547.4841	0.007
547.6793	0.0067
547.8744	0.0091
548.0695	0.0059
548.2646	0.0024
548.4597	0.0021
548.6548	0.0058
548.8498	-0.0048
549.0448	0.0039
549.2399	0.0076
549.4349	0.0085
549.6298	0.0179
549.8248	0.0022
550.0198	0.0098
550.2147	0.0021
550.4096	-0.0018
550.6045	0.0012
550.7994	-0.0016
550.9943	0.005
551.1892	-0.0183
551.384	0.0019
551.5788	-0.0023
551.7737	0.0041
551.9685	0.0055
552.1632	-0.0109
552.358	0.0035
552.5528	-0.0008
552.7475	0.0045
552.9422	0.0156
553.1369	0.0127
553.3316	-0.0032
553.5263	0.0156
553.7209	0.0044
553.9156	0.0022
554.1102	0.0052
554.3048	-0.0048
554.4994	-0.0001
554.694	0.0053
554.8885	0.0103
555.0831	0.0075
555.2776	0.0088
555.4721	0.0085
555.6666	0.0036
555.8611	0.0064
556.0555	-0.0026
556.25	0.0059
556.4444	0.0036
556.6388	0.0138
556.8332	-0.0004
557.0276	0.0078
557.222	0.0024
557.4163	0.0067
557.6107	0.0022
557.805	-0.0051
557.9993	0.0023
558.1936	-0.0073
558.3879	0.0057
558.5821	0.0056
558.7764	-0.0048
558.9706	0.0017
559.1648	0.0093
559.359	-0.0063
559.5532	0.0003
559.7473	-0.003
559.9415	0.0097
560.1356	0.0097
560.3297	-0.0026
560.5238	0.0001
560.7179	-0.0064
560.9119	0.0089
561.106	-0.0018
561.3	-0.0121
561.494	-0.0076
561.688	0.0051
561.882	0.0036
562.076	0.008
562.2699	0.014
562.4639	0.0177
562.6578	0.0044
562.8517	0.0004
563.0456	0.0134
563.2395	0.0136
563.4333	0.0042
563.6272	0.0036
563.821	0.0051
564.0148	-0.0032
564.2086	0.0022
564.4024	0.0081
564.5961	0.0125
564.7899	0.0103
564.9836	-0.0027
565.1773	0.0201
565.371	-0.0008
565.5647	0.0025
565.7584	0.009
565.952	0.0003
566.1456	0.0018
566.3393	0.0027
566.5329	0.0026
566.7264	-0.0012
566.92	-0.0003
567.1136	-0.0026
567.3071	-0.0031
567.5006	0.0104
567.6941	0.0048
567.8876	0.0046
568.0811	0.0157
568.2745	-0.0029
568.468	0.0033
568.6614	0.0103
568.8548	0.0053
569.0482	0.0037
569.2416	0.0029
569.4349	0.0001
569.6283	0.003
569.8216	0.0062
570.0149	-0.0006
570.2082	0.0073
570.4015	-0.0018
570.5947	0.0014
570.788	0.011
570.9812	-0.0006
571.1744	0.0018
571.3676	0.0032
571.5608	0.0008
571.754	0.0094
571.9471	0.0046
572.1402	0.0039
572.3333	0.0001
572.5264	0.0016
572.7195	-0.0003
572.9126	0.0014
573.1057	0.0053
573.2987	0.002
573.4917	0.0041
573.6847	0.0021
573.8777	0.0027
574.0707	0.0049
574.2636	0.0061
574.4566	0.004
574.6495	0.0021
574.8424	0.0047
575.0353	0.0032
575.2281	0.007
575.421	-0.0021
575.6138	0.0041
575.8067	0.004
575.9995	0.0019
576.1923	0.0094
576.385	0.0068
576.5778	0.0032
576.7706	0.0062
576.9633	0.0052
577.156	-0.0027
577.3487	0.0006
577.5414	-0.0007
577.734	0.0016
577.9267	0.0042
578.1193	0.0042
578.3119	-0.0031
578.5045	0.0059
578.6971	0.0007
578.8897	-0.0031
579.0822	0.005
579.2747	0.0026
579.4673	0.002
579.6598	0.0048
579.8522	0.0025
580.0447	0.007
580.2372	0.0044
580.4296	0.0043
580.622	0.0029
580.8144	0.0028
581.0068	0.0022
581.1992	0.0056
581.3915	0.0003
581.5839	0.0035
581.7762	0.0022
581.9685	0.0059
582.1608	0.0012
582.353	0.0025
582.5453	0.0007
582.7375	0.0026
582.9298	-0.0004
583.122	-0.0013
583.3142	0.0049
583.5063	0.0017
583.6985	0.0003
583.8906	0.0015
584.0827	0.0049
584.2749	-0.0005
584.4669	-0.0022
584.659	0.0044
584.8511	0.0104
585.0431	0.0023
585.2352	0.0026
585.4272	0.0043
585.6192	0.0023
585.8111	0.0011
586.0031	0.0021
586.195	0.0039
586.387	-0.0013
586.5789	0.0049
586.7708	0.0052
586.9627	0.0031
587.1545	0.0005
587.3464	0.0011
587.5382	0.0034
587.73	0.0055
587.9218	-0.0012
588.1136	-0.002
588.3053	0.0058
588.4971	0.0005
588.6888	-0.0079
588.8805	-0.0017
589.0722	0.0072
589.2639	0.0035
589.4556	0.0066
589.6472	0.0053
589.8389	0.0063
590.0305	-0.001
590.2221	0.003
590.4137	0.0002
590.6052	0.0057
590.7968	0.0013
590.9883	0.0042
591.1798	-0.0053
591.3713	-0.0031
591.5628	0.0042
591.7543	-0.0014
591.9458	-0.0034
592.1372	0.003
592.3286	-0.0017
592.52	0.0013
592.7114	0.0083
592.9028	0.0046
593.0941	0.001
593.2855	0.0003
593.4768	0.0082
593.6681	0.0054
593.8594	0.0019
594.0506	-0.0038
594.2419	-0.0003
594.4331	0.0116
594.6244	-0.0015
594.8156	0.0011
595.0067	-0.0005
595.1979	0.0021
595.3891	0.0015
595.5802	0.0076
595.7713	0.008
595.9624	0.0057
596.1535	-0.0007
596.3446	0.0016
596.5357	0.0089
596.7267	0.0046
596.9177	0.003
597.1087	-0.0032
597.2997	0.0039
597.4907	-0.0057
597.6817	0.0067
597.8726	0.0038
598.0635	-0.0032
598.2544	0.0022
598.4453	-0.0001
598.6362	0.0062
598.827	0.0037
599.0179	0.0048
599.2087	0.0017
599.3995	0.006
599.5903	0.0025
599.7811	0.0088
599.9718	0.0007
600.1626	0.001
600.3533	0.0003
600.544	0.0009
600.7347	0.0031
600.9254	0.0127
601.116	-0.0001
601.3067	0.0046
601.4973	0.0078
601.6879	0.0015
601.8785	0.008
602.0691	0.0007
602.2596	0.002
602.4502	0.0086
602.6407	0.0092
602.8312	0.0045
603.0217	0.0018
603.2122	0.0074
603.4027	0.0064
603.5931	0.0035
603.7835	0.0017
603.9739	0.0033
604.1643	0.0044
604.3547	0.0056
604.5451	0.0078
604.7354	-0.0036
604.9257	0.0028
605.116	0.0028
605.3063	0.0005
605.4966	-0.0005
605.6869	0.0061
605.8771	-0.0009
606.0673	0.0115
606.2575	0.0004
606.4477	0.0076
606.6379	-0.0033
606.8281	0.0032
607.0182	0.0024
607.2083	0.0019
607.3985	0.0017
607.5885	0.0009
607.7786	0.0057
607.9687	0.0024
608.1587	0.0046
608.3488	0.0025
608.5388	-0.0022
608.7288	0.0003
608.9187	0.0032
609.1087	0.0077
609.2986	0.0077
609.4886	-0.002
609.6785	0.002
609.8684	-0.0042
610.0582	0.0016
610.2481	-0.0006
610.4379	0.0037
610.6278	-0.0005
610.8176	0.004
611.0074	-0.0004
611.1971	0.0034
611.3869	0.0035
611.5766	-0.0044
611.7664	0.0005
611.9561	0.0103
612.1458	0.0111
612.3354	-0.0017
612.5251	-0.0018
612.7147	0.0064
612.9044	-0.0044
613.094	0.0046
613.2836	-0.0015
613.4731	-0.0021
613.6627	0.0089
613.8522	0.0022
614.0417	0.0066
614.2313	0.0071
614.4207	0.002
614.6102	0.0068
614.7997	0.0077
614.9891	0.0081
615.1785	-0.0061
615.3679	-0.0025
615.5573	0.0067
615.7467	-0.0064
615.9361	0.0014
616.1254	0.0077
616.3147	0.0044
616.504	0.0095
616.6933	0.0053
616.8826	0.0011
617.0718	0.0022
617.2611	-0.0027
617.4503	-0.0009
617.6395	-0.0025
617.8287	0.0067
618.0179	0.0039
618.207	0.0102
618.3961	0.0023
618.5853	-0.0022
618.7744	0.0061
618.9634	0.0139
619.1525	0.0032
619.3416	-0.0108
619.5306	0.0115
619.7196	0.0043
619.9086	0.0027
620.0976	-0.0025
620.2866	0.0039
620.4755	0.002
620.6645	0.006
620.8534	0.0042
621.0423	0.0029
621.2312	-0.0033
621.42	0.0085
621.6089	0.0042
621.7977	0.0035
621.9865	0.0067
622.1753	-0.0119
622.3641	-0.0042
622.5529	0.0011
622.7416	-0.0083
622.9303	0.0016
623.1191	0.002
623.3078	0.0048
623.4964	0.0043
623.6851	-0.0052
623.8737	-0.0048
624.0624	-0.0078
624.251	-0.0041
624.4396	0.0015
624.6282	0.0116
624.8167	0.0049
625.0053	0.0131
625.1938	0.0027
625.3823	0.0044
625.5708	0.004
625.7593	0.0035
625.9477	-0
626.1362	-0.0045
626.3246	0.0009
626.513	0.0062
626.7014	0.0014
626.8898	0.0058
627.0781	0.0083
627.2665	0.001
627.4548	0.0054
627.6431	0.0087
627.8314	0.0084
628.0197	0.0091
628.2079	-0.0049
628.3962	0.0139
628.5844	0.0039
628.7726	0.0055
628.9608	0.0079
629.1489	-0.0042
629.3371	-0.0134
629.5252	0.0028
629.7134	-0.0023
629.9015	-0.0011
630.0895	-0.002
630.2776	0.0119
630.4657	0.0063
630.6537	0.0109
630.8417	-0.0004
631.0297	-0.0032
631.2177	0.0045
631.4057	0.0131
631.5936	-0.0082
631.7815	-0.0037
631.9695	0.0099
632.1574	0.0078
632.3452	0.0098
632.5331	-0.0082
632.7209	0.0182
632.9088	-0.0038
633.0966	0.0224
633.2844	0.0018
633.4722	0.0117
633.6599	0.0214
633.8477	0.0015
634.0354	0.005
634.2231	-0.007
634.4108	0.0012
634.5985	0.0127
634.7861	0.0012
634.9738	-0.0094
635.1614	0.0054
635.349	-0.005
635.5366	0.011
635.7242	0.0022
635.9117	-0.009
636.0993	0.0065
636.2868	-0.0082
636.4743	0.0213
636.6618	-0.003
636.8492	0.0049
637.0367	-0.0027
637.2241	0.0057
637.4115	0.0277
637.5989	0.0032
637.7863	0.0217
637.9737	-0.0036
638.161	0.0078
638.3484	-0.0124
638.5357	0.0049
638.723	0.0156
638.9103	-0.0023
639.0975	-0.0031
639.2848	0.0064
639.472	0.0244
639.6592	-0.0237
639.8464	0.007
640.0336	0.0117
640.2208	0.0009
640.4079	0.0059
640.595	-0.0096
640.7821	0.0039
640.9692	0.0029
641.1563	0.0073
641.3434	0.0121
641.5304	0.0144
641.7174	0.0067
641.9044	-0.0029
642.0914	0.0186
642.2784	-0.0036
642.4653	-0.0075
642.6523	-0.0018
642.8392	-0.0078
643.0261	0.001
643.213	0.0048
643.3999	0.0116
643.5867	0.025
643.7735	-0.0025
643.9604	0.034
644.1472	0.0173
644.3339	-0.0159
644.5207	-0.0107
644.7075	-0.0003
644.8942	0.0075
645.0809	-0.0059
645.2676	-0.0145
645.4543	-0.0044
645.6409	0.0184
645.8276	0.0223
646.0142	0.0062
646.2008	0.0107
646.3874	-0.0251
646.574	-0.006
646.7605	0.0042
646.9471	0.0063
647.1336	-0.0009
647.3201	0.0026
647.5066	-0.002
647.6931	-0.0099
647.8795	-0.001
648.0659	0.0117
648.2524	0.005
648.4388	-0.0026
648.6252	0.0117
648.8115	0.0025
648.9979	0.0079
649.1842	-0.0052
649.3705	0.0206
649.5568	-0.0079
649.7431	0.0032
649.9294	-0.0084
650.1156	-0.003
650.3018	0.0175
650.488	0.0115
650.6742	0.0238
650.8604	0.0017
651.0466	-0.0032
651.2327	-0.0026
651.4188	0.0042
651.6049	0.018
651.791	0.0051
651.9771	0.008
652.1632	-0.0016
652.3492	-0.0084
652.5352	0.018
652.7212	-0.0043
652.9072	-0.0071
653.0932	-0.003
653.2791	-0.0001
653.465	-0.01
653.651	0.0076
653.8369	0.0012
654.0227	-0.0159
654.2086	0.0068
654.3944	-0.0002
654.5803	-0.0027
654.7661	-0.0034
654.9519	-0.0015
655.1377	0.0003
655.3234	0.0003
655.5092	0.0003
655.6949	0.0003
655.8806	0.0003
656.0663	0.0003
656.2519	0.0003
656.4376	0.0003
656.6232	0.0003
656.8088	0.0003
656.9945	0.0003
657.18	0.0003
657.3656	0.0003
657.5511	0.0003
657.7367	0.0003
657.9222	0.0003
658.1077	0.0003
658.2932	0.0003
658.4786	0.0003
658.6641	0.0003
658.8495	0.0003
659.0349	0.0003
659.2203	0.0003
659.4057	0.0003
659.591	0.0748
659.7764	0.0167
659.9617	0.0021
660.147	0.0012
660.3323	-0.0059
660.5176	-0.0123
660.7028	0.0047
660.888	0.0073
661.0733	0.0043
661.2585	-0.0096
661.4436	-0.0018
661.6288	0.0205
661.8139	0.014
661.9991	-0.0169
662.1842	-0.0053
662.3693	-0.0021
662.5544	0.0078
662.7394	-0.0024
662.9245	-0.0071
663.1095	-0.0107
663.2945	-0.0059
663.4795	-0.0161
663.6644	0.0104
663.8494	0.0104
664.0343	0.0155
664.2193	-0.0076
664.4042	0.0111
664.589	0.0151
664.7739	0.0041
664.9587	-0.0244
665.1436	-0.0128
665.3284	0.0007
665.5132	-0.0087
665.698	-0.0049
665.8827	0.0025
666.0675	-0.0104
666.2522	-0.0016
666.4369	-0.0001
666.6216	0.0102
666.8063	0.0151
666.9909	-0.0051
667.1756	0.0089
667.3602	0.0102
667.5448	0.0134
667.7294	0.0195
667.9139	0.0055
668.0985	0.029
668.283	-0.0125
668.4675	0.0236
668.652	0.0197
668.8365	-0.0024
669.0209	0.0087
669.2054	-0.0098
669.3898	0.0015
669.5742	0.0338
669.7586	0.0121
669.943	-0.0022
670.1273	-0.0113
670.3117	0.0244
670.496	0.0064
670.6803	-0.0134
670.8646	-0.0088
671.0488	0.0288
671.2331	-0.0142
671.4173	0.0129
671.6015	0.0018
671.7857	0.006
671.9699	0.0152
672.1541	-0.0039
672.3382	0.008
672.5223	0.0044
672.7064	-0.0062
672.8905	0.0002
673.0746	0.0201
673.2587	0.014
673.4427	0.0094
673.6267	0.0169
673.8107	0.0163
673.9947	0.0231
674.1787	-0.0004
674.3626	0.0021
674.5465	0.0349
674.7304	0.0229
674.9143	0.0009
675.0982	0.0033
675.2821	0.0149
675.4659	-0.0041
675.6497	0.0172
675.8335	0.0026
676.0173	-0.0166
676.2011	0.0074
676.3849	-0.0029
676.5686	0.0032
676.7523	0.0006
676.936	0.0113
677.1197	-0.0162
677.3034	0.0067
677.487	-0.0035
677.6706	0.0192
677.8542	-0.0048
678.0378	0.0131
678.2214	0.0009
678.405	0.0074
678.5885	0.019
678.772	0.0071
678.9555	0.0006
679.139	0.0198
679.3225	0.0055
679.5059	-0.0116
679.6894	-0.0054
679.8728	0.0076
680.0562	-0.0024
680.2395	-0.0075
680.4229	-0.0212
680.6062	-0.0015
680.7896	-0.0097
680.9729	0.0184
681.1562	0.0148
681.3394	-0.0037
681.5227	0.0018
681.7059	0.0223
681.8891	-0.0051
682.0723	0.005
682.2555	-0.005
682.4387	0.0265
682.6218	0.0089
682.805	0.0151
682.9881	0.0042
683.1712	0.01
683.3542	0.0155
683.5373	0.011
683.7203	0.01
683.9034	-0.0038
684.0864	-0.0031
684.2694	0.0025
684.4523	0.0082
684.6353	-0.0041
684.8182	0.0009
685.0011	0.0119
685.184	-0.0053
685.3669	0.0182
685.5498	0.0016
685.7326	-0.0019
685.9154	-0.0004
686.0982	0.0059
686.281	-0.0059
686.4638	0.0037
686.6465	0.0078
686.8293	-0.0077
687.012	-0.0027
687.1947	0.0067
687.3774	0.0091
687.56	-0.0139
687.7427	0.0196
687.9253	-0.0308
688.1079	-0.0091
688.2905	-0.0087
688.4731	0.0148
688.6556	-0.0001
688.8382	0.0042
689.0207	0.0116
689.2032	0.0152
689.3857	-0.0082
689.5681	-0.0001
689.7506	0.0314
689.933	-0.0007
690.1154	0.0005
690.2978	-0.0017
690.4802	0.0207
690.6626	0.0093
690.8449	0.0052
691.0272	-0.003
691.2095	-0.0059
691.3918	0.0074
691.5741	0.0049
691.7563	0.0009
691.9386	0.01
692.1208	0.0054
692.303	-0.0058
692.4852	0.0045
692.6673	-0.0056
692.8495	-0.0194
693.0316	0.0096
693.2137	0.015
693.3958	0.0078
693.5778	-0.0033
693.7599	0.0042
693.9419	-0.0049
694.1239	0.0099
694.3059	0.0077
694.4879	-0.0081
694.6699	0.0005
694.8518	0.0091
695.0337	0.0037
695.2157	0.0302
695.3975	-0.0095
695.5794	-0.0243
695.7613	0.0055
695.9431	-0.0021
696.1249	0.0065
696.3067	-0.0215
696.4885	0.0143
696.6703	0.0018
696.852	0.0017
697.0337	0.0264
697.2154	0.0105
697.3971	0.0045
697.5788	0.0159
697.7605	-0.0248
697.9421	0.0144
698.1237	0.0057
698.3053	-0.0126
698.4869	0.0072
698.6685	0.0011
698.85	0.0171
699.0315	-0.0023
699.213	0.0161
699.3945	-0.0124
699.576	0.0033
699.7575	0.0147
699.9389	0.0062
700.1203	0.0124
700.3017	-0.0036
700.4831	0.0207
700.6645	0.021
700.8458	0.0144
701.0271	0.0337
701.2084	-0.0028
701.3897	0.0162
701.571	-0.0057
701.7523	0.0182
701.9335	0.0131
702.1147	0.0272
702.2959	-0.0112
702.4771	0.0327
702.6583	-0.0051
702.8394	0.0047
703.0205	0.0109
703.2016	-0.0111
703.3827	-0.0058
703.5638	0.0099
703.7449	0.0041
703.9259	-0.0115
704.1069	-0.0185
704.2879	0.0054
704.4689	-0.0169
704.6499	0.0049
704.8308	0.0083
705.0117	-0.0268
705.1927	0.0063
705.3735	-0.002
705.5544	0.0085
705.7353	-0.0051
705.9161	-0.0255
706.0969	0.0069
706.2777	0.0133
706.4585	0.0118
706.6393	0.0211
706.82	0.0025
707.0007	-0.0074
707.1815	-0.0147
707.3621	0.027
707.5428	0.017
707.7235	-0.0086
707.9041	0.0015
708.0847	-0.0101
708.2653	0.026
708.4459	0.0126
708.6265	-0.0172
708.807	0.01
708.9875	-0.0059
709.168	-0.0054
709.3485	0.0278
709.529	0.0085
709.7095	-0.0209
709.8899	0.0009
710.0703	0.017
710.2507	0.0154
710.4311	-0.0201
710.6115	0.026
710.7918	0.0273
710.9721	-0.0035
711.1524	-0.0168
711.3327	-0.0167
711.513	0.0075
711.6932	-0.0167
711.8735	0.0132
712.0537	-0.0137
712.2339	-0.0167
712.4141	0.0163
712.5942	-0.0102
712.7744	0.0154
712.9545	0.0165
713.1346	0.0136
713.3147	-0.0065
713.4947	-0.0031
713.6748	-0.0058
713.8548	0.0431
714.0348	0.0105
714.2148	0.024
714.3948	0.0186
714.5748	0.0084
714.7547	0.0047
714.9346	0.0518
715.1145	0.0096
715.2944	-0.0164
715.4743	0.0321
715.6541	-0.0107
715.834	0.0118
716.0138	0.0085
716.1936	-0.0028
716.3733	-0.0115
716.5531	0.0036
716.7328	0.0184
716.9126	0.0157
717.0923	-0.0378
717.2719	0.0035
717.4516	-0.0029
717.6312	-0.0114
717.8109	0.0283
717.9905	0.0017
718.1701	0.019
718.3496	0.0046
718.5292	0.0003
718.7087	-0.009
718.8882	0.0108
719.0677	0.0025
719.2472	-0.0132
719.4267	-0.0008
719.6061	-0.0214
719.7856	0.0272
719.965	0.0029
720.1443	-0.0113
720.3237	-0.006
720.5031	-0.0151
720.6824	-0.0065
720.8617	0.0048
721.041	-0.0004
721.2203	-0.0175
721.3995	0.0159
721.5788	0.0123
721.758	0.0024
721.9372	-0.0085
722.1164	-0.0287
722.2956	0.0097
722.4747	0.034
722.6538	0.0151
722.8329	0.0188
723.012	0.0177
723.1911	-0.006
723.3702	0.0124
723.5492	-0.0014
723.7282	-0.0074
723.9072	0.0289
724.0862	-0.0257
724.2652	0.0055
724.4441	-0.0098
724.623	0.0226
724.8019	0.0039
724.9808	0.0173
725.1597	0.0061
725.3385	0.0105
725.5174	-0.0031
725.6962	0.0127
725.875	0.0137
726.0538	0.0023
726.2325	0.0144
726.4112	-0.0166
726.59	0.0022
726.7687	-0.0171
726.9474	0.0168
727.126	0.0118
727.3047	-0.0144
727.4833	-0.0152
727.6619	-0.0086
727.8405	-0.0015
728.0191	0.0266
728.1976	-0.0095
728.3762	0.0292
728.5547	0.0003
728.7332	0.0243
728.9116	-0.0177
729.0901	-0.0026
729.2686	-0.0054
729.447	0.0006
729.6254	0.0179
729.8038	-0.0048
729.9821	-0.0091
730.1605	0.0098
730.3388	-0.0081
730.5171	0.0029
730.6954	-0.019
730.8737	0.0197
731.0519	0.0004
731.2302	0.002
731.4084	0.0024
731.5866	-0.0081
731.7648	0.0053
731.9429	0.0198
732.1211	-0.0065
732.2992	0.0098
732.4773	-0.0065
732.6554	-0.0126
732.8335	0.0092
733.0115	0.0117
733.1896	-0.0104
733.3676	0.024
733.5456	0.0011
733.7235	-0.0043
733.9015	-0.0026
734.0794	0.0004
734.2574	-0.0274
734.4353	0.0125
734.6131	-0.0001
734.791	-0.0092
734.9689	-0.0082
735.1467	-0.0271
735.3245	0.0319
735.5023	0.0151
735.68	-0.0052
735.8578	0.0013
736.0355	-0.0072
736.2132	0.0071
736.3909	0.0055
736.5686	-0.0161
736.7463	-0.0073
736.9239	-0.0034
737.1015	0.0122
737.2791	0.0025
737.4567	0.0345
737.6343	-0.0019
737.8118	0.0182
737.9894	0.0048
738.1669	0.011
738.3444	0.0196
738.5218	-0.0186
738.6993	0.0115
738.8767	-0.0011
739.0541	0.0024
739.2315	0.0082
739.4089	0.0285
739.5863	0.0157
739.7636	0.003
739.9409	-0.0041
740.1182	-0.0073
740.2955	0.0367
740.4728	0.006
740.65	-0.0103
740.8272	-0.0098
741.0044	-0.0278
741.1816	0.0163
741.3588	-0.0279
741.5359	0.0024
741.7131	0.0088
741.8902	-0.0223
742.0673	-0.0013
742.2444	0.0304
742.4214	0.0395
742.5985	-0.0014
742.7755	-0.001
742.9525	-0.0039
743.1295	-0.0145
743.3064	0.0038
743.4834	0.0069
743.6603	0.0381
743.8372	-0.0412
744.0141	0.0292
744.191	0.0022
744.3678	-0.022
744.5446	0.0317
744.7215	-0.0045
744.8982	0.0279
745.075	0.0539
745.2518	0.0054
745.4285	0.0337
745.6052	-0.0404
745.7819	-0.0015
745.9586	0.0104
746.1353	-0.0032
746.3119	0.026
746.4885	0.0346
746.6651	0.0339
746.8417	-0.0162
747.0183	0.037
747.1948	0.0153
747.3714	0.0079
747.5479	-0.0056
747.7244	-0.0243
747.9008	0.0111
748.0773	0.068
748.2537	-0.0078
748.4301	0.0352
748.6065	0.0081
748.7829	-0.0268
748.9593	-0.0073
749.1356	0.0135
749.3119	0.0141
749.4882	0.0152
749.6645	-0.023
749.8408	0.0164
750.017	0.017
750.1933	-0.0121
750.3695	0.0062
750.5457	-0.0045
750.7218	-0.0108
750.898	-0.0104
751.0741	-0.002
751.2502	-0.0161
751.4263	-0.0017
751.6024	0.0019
751.7784	-0.0036
751.9545	0.0107
752.1305	0.0382
752.3065	0.0186
752.4825	-0.0135
752.6584	0.0066
752.8344	0.0036
753.0103	-0.003
753.1862	0.0137
753.3621	0.0217
753.5379	0.004
753.7138	0.0189
753.8896	0.0197
754.0654	-0.0055
754.2412	0.0248
754.417	0.0118
754.5927	0.0064
754.7685	0.0002
754.9442	0.0097
755.1199	-0.0093
755.2956	0.0002
755.4712	-0.015
755.6469	-0.0035
755.8225	0.0047
755.9981	0.0103
756.1736	0.0129
756.3492	0.0024
756.5248	0.0258
756.7003	-0.007
756.8758	0.0234
757.0513	0.0026
757.2267	-0.0115
757.4022	0.0037
757.5776	-0.0026
757.753	0.015
757.9284	0.0033
758.1038	0.0092
758.2791	0.0258
758.4545	-0.0078
758.6298	0.0048
758.8051	0.0126
758.9803	0.014
759.1556	0.0052
759.3308	-0.0186
759.506	0.0136
759.6812	0.004
759.8564	0.0016
760.0316	-0.0076
760.2067	0.0244
760.3819	0.0028
760.557	-0.0102
760.732	-0.0019
760.9071	0.0243
761.0821	0.0153
761.2572	0.0019
761.4322	-0.0091
761.6072	-0.0121
761.7821	-0.0382
761.9571	-0.0183
762.132	0.0049
762.3069	0.0225
762.4818	0.008
762.6567	0.0051
762.8316	0.0219
763.0064	0.0317
763.1812	0.0278
763.356	-0.0159
763.5308	0.0155
763.7055	-0.0053
763.8803	0.0013
764.055	0.002
764.2297	-0.0026
764.4044	0.0051
764.579	-0.0017
764.7537	-0.0125
764.9283	0.0097
765.1029	0.016
765.2775	-0.0024
765.4521	0.0033
765.6266	-0.016
765.8011	0.033
765.9756	0.0438
766.1501	-0.0113
766.3246	-0.01
766.4991	0.0106
766.6735	0.0359
766.8479	0.0184
767.0223	0.0199
767.1967	0.0177
767.371	-0.0212
767.5454	0.0215
767.7197	0.0194
767.894	-0.0136
768.0683	0.0032
768.2425	-0.0149
768.4168	-0.0106
768.591	0.0259
768.7652	0.0033
768.9394	-0.0263
769.1135	-0.0414
769.2877	0.0329
769.4618	0.0093
769.6359	0.0032
769.81	0.0389
769.984	0.0105
770.1581	0.0147
770.3321	0.0037
770.5061	-0.0096
770.6801	-0.0116
770.8541	-0.0153
771.028	0.0346
771.202	0.0338
771.3759	-0.013
771.5498	-0.0189
771.7236	0.0252
771.8975	0.0068
772.0713	0.0157
772.2451	-0.0112
772.4189	0.0249
772.5927	-0.0168
772.7665	-0.0036
772.9402	0.011
773.1139	0.0043
773.2876	-0.04
773.4613	0.0212
773.635	0.0304
773.8086	0.0338
773.9822	0.022
774.1558	0.0452
774.3294	-0.0029
774.503	-0.0211
774.6765	0.0666
774.8501	-0.0234
775.0236	0.0311
775.1971	-0.0268
775.3705	0.0108
775.544	-0.0429
775.7174	0.0047
775.8908	-0.0063
776.0642	0.0348
776.2376	0.0082
776.4109	0.0643
776.5843	-0.0444
776.7576	0.0118
776.9309	0.0099
777.1041	-0.0424
777.2774	0.0405
777.4506	0.0041
777.6238	0.0588
777.797	0.017
777.9702	0.0424
778.1434	-0.0069
778.3165	-0.0123
778.4896	-0.0219
778.6627	0.0062
778.8358	-0.0155
779.0089	-0.0073
779.1819	-0.0139
779.3549	0.0098
779.5279	-0.0161
779.7009	0.0439
779.8739	0.0717
780.0468	0.0178
780.2197	-0.0015
780.3926	-0.025
780.5655	0.005
780.7384	0.0259
780.9112	0.0046
781.0841	0.0008
781.2569	0.009
781.4297	0.0035
781.6024	0.0128
781.7752	0.0201
781.9479	0.0264
782.1206	0.0322
782.2933	0.016
782.466	-0.0178
782.6386	-0.0202
782.8113	-0.0172
782.9839	0.0087
783.1565	0.0082
783.329	-0.0059
783.5016	0.0423
783.6741	-0.0347
783.8466	0.0499
784.0191	-0.0076
784.1916	0.007
784.3641	-0.028
784.5365	0.0153
784.7089	-0.0002
784.8813	0.0371
785.0537	0.0296
785.2261	-0.0126
785.3984	0.0061
785.5707	-0.0168
785.743	0.0244
785.9153	-0.0002
786.0876	-0.0484
786.2598	0.0228
786.432	0.0028
786.6042	0.034
786.7764	-0.025
786.9486	-0.0347
787.1207	0.0571
787.2928	0.0655
787.4649	0.0083
787.637	-0.0253
787.8091	0.0051
787.9811	0.0242
788.1532	0.0264
788.3252	-0.0001
788.4972	0.0178
788.6691	-0.0128
788.8411	-0.0067
789.013	0.0243
789.1849	-0.0002
789.3568	-0.0095
789.5287	0.0043
789.7005	-0.0585
789.8723	0.0298
790.0442	0.0068
790.2159	0.0091
790.3877	0.0301
790.5595	-0.0034
790.7312	-0.032
790.9029	0.007
791.0746	0.0302
791.2463	-0.1051
791.4179	-0.0045
791.5896	-0.0071
791.7612	0.034
791.9328	-0.0497
792.1044	0.0089
792.2759	-0.0173
792.4474	-0.036
792.619	0.0352
792.7905	0.0054
792.9619	0.0777
793.1334	0.0566
793.3048	0.0675
793.4762	-0.0175
793.6476	-0.0592
793.819	0.0189
793.9904	-0.0109
794.1617	-0.0118
794.333	0.0122
794.5043	0.0074
794.6756	0.0121
794.8469	0.0097
795.0181	-0.0039
795.1893	0.0268
795.3605	0.0628
795.5317	0.045
795.7029	-0.0027
795.874	0.013
796.0452	0.0725
796.2163	0.074
796.3873	0.0823
796.5584	0.0542
796.7294	-0.0374
796.9005	0.0922
797.0715	-0.0051
797.2425	0.0805
797.4134	0.0444
797.5844	0.0252
797.7553	-0.0787
797.9262	0.1137
798.0971	0.0479
798.2679	-0.0261
798.4388	-0.0147
798.6096	-0.0058
798.7804	-0.0263
798.9512	0.0704
799.122	-0.0634
799.2927	0.0288
799.4635	-0.0063
799.6342	-0.0563
799.8049	0.1169
799.9755	-0.0869
800.1462	-0.0369
800.3168	0.0601
800.4874	-0.1116
800.658	0.0162
800.8286	0.0628
800.9991	0.0711
801.1696	-0.0299
801.3402	-0.0425
801.5106	0.0254
801.6811	-0.011
801.8516	0.0782
802.022	0.1758
802.1924	0.0296
802.3628	0.0299
802.5332	0.0668
802.7035	0.0498
802.8739	-0.0305
803.0442	0.0426
803.2145	-0.0454
803.3847	-0.0569
803.555	-0.0042
803.7252	-0.0279
803.8954	-0.0037
804.0656	0.0165
804.2358	0.0219
804.4059	0.0848
804.5761	-0.008
804.7462	0.0299
804.9163	0.0547
805.0864	-0.0158
805.2564	0.013
805.4264	0.0198
805.5965	0.09
805.7665	-0.0094
805.9364	0.0203
806.1064	0.0009
806.2763	0.0402
806.4462	0.0158
806.6161	0.0213
806.786	-0.0179
806.9559	0.0299
807.1257	0.01
807.2955	0.0111
807.4653	0.0555
807.6351	0.1166
807.8048	0.0532
807.9746	-0.004
808.1443	-0.0378
808.314	0.0789
808.4837	0.0669
808.6533	-0.0392
808.8229	0.0464
808.9926	0.0592
809.1622	0.0044
809.3317	0.01
809.5013	-0.0287
809.6708	-0.0004
809.8403	-0.0163
810.0098	0.0366
810.1793	0.0897
810.3488	0.0073
810.5182	0.142
810.6876	-0.041
810.857	-0.0242
811.0264	-0.0368
811.1958	0.0765
811.3651	0.0018
811.5344	0.1001
811.7037	0.2262
811.873	0.0966
812.0422	-0.0122
812.2115	-0.132
812.3807	0.0472
812.5499	-0.0425
812.7191	-0.0252
812.8882	0.0489
813.0574	0.1359
813.2265	0.0451
813.3956	0.0409
813.5646	0.1656
813.7337	0.0086
813.9027	-0.0892
814.0718	0.0814
814.2407	0.0524
814.4097	0.0371
814.5787	0.0442
814.7476	0.0554
814.9165	0.0579
815.0854	0.0208
815.2543	0.0815
815.4232	0.0419
815.592	0.1072
815.7608	-0.18
815.9296	-0.0457
816.0984	0.2296
816.2671	-0.1407
816.4359	0.0503
816.6046	0.0116
816.7733	0.0778
816.942	0.0655
817.1106	0.0452
817.2793	-0.0866
817.4479	-0.0279
817.6165	0.1391
817.785	0.0155
817.9536	-0.0552
818.1221	0.0405
818.2906	-0.0513
818.4591	-0.0006
818.6276	0.0652
818.7961	-0.0194
818.9645	-0.0082
819.1329	0.0032
819.3013	0.0056
819.4697	0.021
819.638	0.1731
819.8064	0.1548
819.9747	0.1276
820.143	-0.0049
820.3113	0.1049
820.4795	0.0391
820.6477	0.0354
820.816	0.0729
820.9842	0.1382
821.1523	0.1093
821.3205	0.0375
821.4886	-0.0106
821.6567	-0.0952
821.8248	0.1674
821.9929	-0.0825
822.1609	0.0563
822.329	0.0948
822.497	0.1403
822.665	0.0689
822.833	0.1553
823.0009	0.0473
823.1688	0.1144
823.3367	-0.1083
823.5046	0.1067
823.6725	-0.0972
823.8404	0.1729
824.0082	0.1337
824.176	-0.0062
824.3438	0.2137
824.5116	0.1286
824.6793	0.1867
824.847	0.5141
825.0147	0.2898
825.1824	0.2091
825.3501	0.0934
825.5177	0.0547
825.6854	-0.0831
825.853	-0.0563
826.0206	0.0526
826.1881	-0.0553
826.3557	0.1862
826.5232	0.2275
826.6907	0.0362
826.8582	0.1101
827.0257	0.1455
827.1931	0.1012
827.3605	0.0226
827.528	-0.0361
827.6953	-0.12
827.8627	-0.0745
828.03	0.2765
828.1974	-0.0108
828.3647	0.1852
828.532	0.1329
828.6992	0.1576
828.8665	-0.1921
829.0337	-0.0369
829.2009	-0.1812
829.3681	0.3808
829.5352	-0.3476
829.7024	0.0258
829.8695	0.0868
830.0366	0.1323
830.2037	0.1018
830.3707	0.073
830.5378	0.0155
830.7048	-0.1354
830.8718	0.0589
831.0388	0.1066
831.2057	0.1072
831.3727	-0
831.5396	0.084
831.7065	-0.6495
831.8734	0.3005
832.0402	0.3576
832.2071	0.3796
832.3739	0.8907
832.5407	-1.8343
832.7075	-0.3131
832.8742	0.664
833.041	0.3258
833.2077	0.2889
833.3744	0.1421
833.541	-0.0281
833.7077	0.0047
833.8743	0.2171
834.0409	0.013
834.2075	0.1705
834.3741	-0.1492
834.5407	0.1687
834.7072	0.3296
834.8737	0.1755
835.0402	0.3979
835.2067	0.2748
835.3731	0.1012
835.5395	0.0934
835.706	0.4297
835.8723	-0.0244
836.0387	1.1583
836.2051	0.7363
836.3714	-0.0216
836.5377	0.2624
836.704	0.0221
836.8703	0.0134
837.0365	-0.5323
837.2027	0.5658
837.3689	-0.0113
837.5351	0.3366
837.7013	0.1794
837.8674	-0.3346
838.0335	-0.0166
838.1997	0.033
838.3657	-0.0204
838.5318	-0.2393
838.6978	-0
838.8639	-0.437
839.0299	0.1328
839.1958	0.8349
839.3618	-0
839.5277	0.1475
839.6937	0.6728
839.8596	0.4371
840.0254	0.3353
840.1913	-0.4006
840.3571	0.085
840.523	-1.798
840.6888	0.1426
840.8545	-0.2648
841.0203	0.2055
841.186	0.1066
841.3517	0.984
841.5174	0.1473
841.6831	0.2124
841.8488	-0.1498
842.0144	0.0829
842.18	0.2868
842.3456	-0
842.5112	-0
842.6767	0.3378
842.8422	-0
843.0077	-0.0017
843.1732	-0.2028
843.3387	0.1008
843.5042	-0
843.6696	-0.0186
843.835	1.2756
844.0004	-0.239
844.1657	-0
844.3311	0.0517
844.4964	-0.1395
844.6617	-0
844.827	-0
844.9923	0.3412
845.1575	-0.2729
845.3227	0.1345
845.4879	-0.5863
845.6531	0.9932
845.8183	-0
845.9834	-0
846.1485	0.3442
846.3136	-0.2752
846.4787	-0
846.6438	0.4782
846.8088	-0
846.9738	-0
847.1388	0.3894
847.3038	0.3148
847.4687	0.1896
847.6337	-0
847.7986	0.9019
847.9635	0.6622
848.1284	-0
848.2932	0.5454
848.458	-0.4472
848.6228	0.7974
848.7876	-0.0713
848.9524	-0.262
849.1172	-1.7504
849.2819	-0
849.4466	0.9087
849.6113	-0
849.7759	-0
849.9406	-0
850.1052	-0
850.2698	-0
850.4344	-0.1932
850.599	-0.0034
850.7635	-0
850.928	0.0807
851.0925	0.5284
851.257	0.6784
851.4215	0.8012
851.5859	-0.0776
851.7503	-0
851.9147	-0
852.0791	0.0524
852.2434	0.0464
852.4078	-0
852.5721	-0
852.7364	0.116
852.9007	-0.0816
853.0649	-0
853.2291	0.3933
853.3934	-0
853.5575	-0.2301
853.7217	0.9958
853.8859	-0
854.05	-0.5531
854.2141	0.1859
854.3782	0.4153
854.5423	-0
854.7063	0.2237
854.8703	-0
855.0343	0.7579
855.1983	0.1711
855.3623	0.3539
855.5262	1.1483
855.6901	-0
855.854	0.6672
856.0179	-0.1256
856.1818	-0
856.3456	-0
856.5094	-0
856.6732	-0
856.837	-0.7287
857.0008	-0
857.1645	-0
857.3282	-0.6802
857.4919	0.0303
857.6556	0.9819
857.8192	-0.2339
857.9828	-0.2186
858.1465	-0.0741
858.31	-0.0165
858.4736	-0.665
858.6372	1.0059
858.8007	-0.1409
858.9642	0.2466
859.1277	0.649
859.2911	-0
859.4546	-1.6395
859.618	0.7829
859.7814	0.1073
859.9448	-0
860.1081	-0
860.2715	-1.1802
860.4348	-0
860.5981	-0
860.7614	0.0711
860.9246	0.6915
861.0879	0.5937
861.2511	-0
861.4143	-0
861.5774	-0.2411
861.7406	0.0154
861.9037	-0.5488
862.0668	-0.0231
862.2299	0.0611
862.393	0.5021
862.556	-0
862.7191	-0.1845
862.8821	0.4215
863.0451	-0
863.208	-0.1751
863.371	-0.2376
863.5339	2.1532
863.6968	0.4088
863.8597	-0.3493
864.0225	-0.2975
864.1854	-0.0847
864.3482	-1.1172
864.511	-0.1225
864.6737	-0
864.8365	0.3182
864.9992	-0
865.1619	0.9294
865.3246	-2.0154
865.4873	-0.4389
865.65	0.1376
865.8126	-0
865.9752	-0.261
866.1378	0.0062
866.3004	0.6902
866.4629	-0
866.6254	-0
866.7879	-0.3477
866.9504	-0.6466
867.1129	-0.0357
867.2753	0.0682
867.4377	0.6215
867.6001	-0.5397
867.7625	0.0946
867.9249	-0
868.0872	-0.1857
868.2495	-0
868.4118	-0
868.5741	-0
868.7363	-0
868.8986	1.7033
869.0608	-0
869.223	-0.3417
869.3851	-0
869.5473	-0.121
869.7094	0.2294
869.8715	-0
870.0336	0.3979
870.1957	-0
870.3577	0.5188
870.5197	1.1341
870.6817	-0.3225
870.8437	1.4698
871.0057	-0
871.1676	0.8742
871.3295	-0
871.4914	-0
871.6533	-0.6218
871.8151	0.6194
871.977	0.4267
872.1388	0.3458
872.3006	-0.5614
872.4623	-0.6563
872.6241	0.5244
872.7858	1.5647
872.9475	0.26
873.1092	0.6728
873.2709	0.1112
873.4325	-0
873.5941	-0.2734
873.7557	-0
873.9173	0.1319
874.0789	0.7751
874.2404	-0
874.4019	0.2637
874.5634	-0
874.7249	-0
874.8863	-0
875.0478	-0.0762
875.2092	-0
875.3706	-0.2427
875.5319	-0
875.6933	0.1881
875.8546	0.2177
876.0159	0.5814
876.1772	-0.5728
876.3385	0.2539
876.4997	-0
876.6609	-0
876.8221	-0
876.9833	-0.0503
877.1445	0.9706
877.3056	-0.8627
877.4667	0.4667
877.6278	-0
877.7889	-0.2475
877.9499	1.2498
878.111	-0.4024
878.272	0.7404
878.433	-0
878.5939	0.6247
878.7549	-0.1368
878.9158	-0
879.0767	0.087
879.2376	-0.4031
879.3984	0.8738
879.5593	-0
879.7201	-0
879.8809	0.0201
880.0417	-0.1307
880.2024	-0
880.3632	-0
880.5239	0.1409
880.6846	-0.6774
880.8452	-0.0462
881.0059	-0.0401
881.1665	0.3393
881.3271	-0
881.4877	-0.0357
881.6483	-1.5577
881.8088	-0
881.9693	0.9294
882.1298	0.9294
882.2903	0.9294
