Data from MonoPyChalIsomerACN10uM340nmA_Absorbance_14-14-19-565.txt Node
Date: Fri Jul 05 14:14:19 BST 2024
User: LASERRRRR
Spectrometer: FLMT03099
Trigger mode: 0
Integration Time (sec): 1.000000E-1
Scans to average: 1
Electric dark correction enabled: true
Nonlinearity correction enabled: false
Boxcar width: 0
XAxis mode: Wavelengths
Number of Pixels in Spectrum: 3648
>>>>>Begin Spectral Data<<<<<
179.3399	0.29
179.5586	0.29
179.7771	0.29
179.9957	0.1903
180.2143	0.3882
180.4329	-0.1644
180.6514	-0
180.8699	-0.0113
181.0885	0.6144
181.307	0.4179
181.5255	-0
181.744	-0.3192
181.9625	-0
182.181	-0.4935
182.3994	-0
182.6179	-0
182.8363	0.2681
183.0547	-0.3187
183.2732	0.0811
183.4916	0.2084
183.71	0.3076
183.9284	0.1635
184.1467	0.216
184.3651	0.3497
184.5835	0.1094
184.8018	0.8928
185.0201	0.0119
185.2385	0.1919
185.4568	0.3336
185.6751	0.1971
185.8934	0.2576
186.1117	0.1973
186.3299	0.2583
186.5482	0.4106
186.7664	0.0117
186.9847	0.0019
187.2029	0.1343
187.4211	0.1213
187.6393	-0.0286
187.8575	0.1421
188.0757	0.2235
188.2939	0.154
188.512	0.3064
188.7302	0.1398
188.9483	0.1113
189.1665	0.3838
189.3846	0.2606
189.6027	0.2216
189.8208	0.2301
190.0389	0.2255
190.257	0.4345
190.475	0.3305
190.6931	0.254
190.9111	0.2641
191.1292	0.1707
191.3472	0.3268
191.5652	0.3775
191.7832	0.3974
192.0012	1.0817
192.2192	0.4787
192.4371	0.4318
192.6551	0.561
192.873	0.5419
193.091	0.502
193.3089	0.7669
193.5268	0.6073
193.7447	0.7373
193.9626	0.4472
194.1805	0.6624
194.3984	0.7598
194.6162	0.6867
194.8341	0.6817
195.0519	0.5795
195.2697	0.8713
195.4875	0.7649
195.7054	0.6952
195.9231	0.8231
196.1409	0.7543
196.3587	0.9211
196.5765	0.6031
196.7942	0.6367
197.012	0.5604
197.2297	0.6414
197.4474	0.7348
197.6651	0.5396
197.8828	0.5799
198.1005	0.8369
198.3182	0.6755
198.5358	0.759
198.7535	0.6862
198.9711	0.5961
199.1888	0.6361
199.4064	0.7096
199.624	0.643
199.8416	0.768
200.0592	0.7623
200.2767	0.5777
200.4943	0.7057
200.7119	0.8112
200.9294	0.6954
201.1469	0.5887
201.3645	0.6531
201.582	0.5965
201.7995	0.8915
202.017	0.5763
202.2344	0.6834
202.4519	0.7516
202.6694	0.7094
202.8868	0.5915
203.1042	0.7446
203.3217	0.6475
203.5391	0.7144
203.7565	0.6814
203.9739	0.5968
204.1913	0.6432
204.4086	0.6688
204.626	0.7606
204.8433	0.7504
205.0607	0.5479
205.278	0.556
205.4953	0.6202
205.7126	0.6667
205.9299	0.6807
206.1472	0.7076
206.3644	0.6375
206.5817	0.6365
206.7989	0.708
207.0162	0.6922
207.2334	0.6091
207.4506	0.6216
207.6678	0.6918
207.885	0.6123
208.1022	0.7037
208.3194	0.7099
208.5365	0.6573
208.7537	0.615
208.9708	0.6104
209.1879	0.6472
209.405	0.6939
209.6222	0.715
209.8392	0.606
210.0563	0.6578
210.2734	0.6759
210.4905	0.6945
210.7075	0.6169
210.9245	0.6222
211.1416	0.6912
211.3586	0.6088
211.5756	0.5984
211.7926	0.6124
212.0096	0.6057
212.2265	0.5849
212.4435	0.5792
212.6604	0.5781
212.8774	0.6298
213.0943	0.6549
213.3112	0.5503
213.5281	0.5467
213.745	0.5004
213.9619	0.5182
214.1788	0.4654
214.3956	0.458
214.6125	0.465
214.8293	0.4518
215.0461	0.5069
215.2629	0.4739
215.4798	0.526
215.6965	0.4252
215.9133	0.462
216.1301	0.4218
216.3469	0.4642
216.5636	0.4133
216.7803	0.3806
216.9971	0.3671
217.2138	0.4122
217.4305	0.372
217.6472	0.3817
217.8639	0.393
218.0805	0.3668
218.2972	0.3272
218.5138	0.3278
218.7305	0.3186
218.9471	0.3225
219.1637	0.3087
219.3803	0.2993
219.5969	0.3099
219.8135	0.2718
220.0301	0.2746
220.2466	0.2668
220.4632	0.2834
220.6797	0.2386
220.8962	0.2469
221.1127	0.2604
221.3292	0.2496
221.5457	0.2508
221.7622	0.2293
221.9787	0.273
222.1951	0.2456
222.4116	0.2406
222.628	0.2568
222.8444	0.2289
223.0608	0.2475
223.2772	0.2554
223.4936	0.2737
223.71	0.2442
223.9264	0.2788
224.1427	0.257
224.3591	0.2449
224.5754	0.27
224.7917	0.2657
225.008	0.277
225.2243	0.2631
225.4406	0.3045
225.6569	0.2712
225.8732	0.2685
226.0894	0.2745
226.3057	0.2649
226.5219	0.2782
226.7381	0.2799
226.9543	0.295
227.1705	0.2914
227.3867	0.2879
227.6029	0.3043
227.8191	0.3027
228.0352	0.3099
228.2513	0.3137
228.4675	0.2953
228.6836	0.3161
228.8997	0.2892
229.1158	0.3111
229.3319	0.2993
229.548	0.3213
229.764	0.3161
229.9801	0.3331
230.1961	0.3231
230.4121	0.3412
230.6282	0.3328
230.8442	0.3212
231.0602	0.3325
231.2761	0.3428
231.4921	0.3243
231.7081	0.3666
231.924	0.3721
232.14	0.3557
232.3559	0.332
232.5718	0.374
232.7877	0.354
233.0036	0.3567
233.2195	0.3603
233.4353	0.3655
233.6512	0.3722
233.867	0.3646
234.0829	0.368
234.2987	0.3608
234.5145	0.3889
234.7303	0.3795
234.9461	0.3943
235.1619	0.3634
235.3776	0.3696
235.5934	0.3656
235.8091	0.3946
236.0249	0.3761
236.2406	0.3935
236.4563	0.3826
236.672	0.3947
236.8877	0.381
237.1034	0.3793
237.319	0.3905
237.5347	0.4039
237.7503	0.3838
237.966	0.4197
238.1816	0.3887
238.3972	0.4033
238.6128	0.3838
238.8284	0.393
239.0439	0.4114
239.2595	0.4114
239.475	0.4385
239.6906	0.4331
239.9061	0.4138
240.1216	0.4123
240.3371	0.4052
240.5526	0.388
240.7681	0.413
240.9836	0.3937
241.199	0.4162
241.4145	0.3904
241.6299	0.3839
241.8453	0.393
242.0607	0.3724
242.2761	0.3509
242.4915	0.3719
242.7069	0.3503
242.9223	0.3685
243.1376	0.3542
243.353	0.3543
243.5683	0.3441
243.7836	0.3424
243.9989	0.3231
244.2142	0.3257
244.4295	0.3133
244.6448	0.3139
244.86	0.3014
245.0753	0.2853
245.2905	0.2888
245.5057	0.2798
245.721	0.278
245.9362	0.2533
246.1514	0.2673
246.3665	0.2633
246.5817	0.2634
246.7969	0.2539
247.012	0.2323
247.2271	0.2453
247.4423	0.2539
247.6574	0.2364
247.8725	0.2334
248.0876	0.22
248.3026	0.2278
248.5177	0.2165
248.7328	0.2203
248.9478	0.1992
249.1628	0.2253
249.3779	0.2146
249.5929	0.2023
249.8079	0.2186
250.0228	0.2008
250.2378	0.2053
250.4528	0.2071
250.6677	0.1899
250.8827	0.2046
251.0976	0.1958
251.3125	0.1931
251.5274	0.1789
251.7423	0.1894
251.9572	0.1843
252.172	0.1761
252.3869	0.1893
252.6017	0.1767
252.8166	0.1762
253.0314	0.1675
253.2462	0.1693
253.461	0.1782
253.6758	0.1686
253.8906	0.183
254.1053	0.1564
254.3201	0.1749
254.5348	0.1837
254.7496	0.1818
254.9643	0.1732
255.179	0.1728
255.3937	0.1713
255.6083	0.1709
255.823	0.169
256.0377	0.1499
256.2523	0.1677
256.467	0.1423
256.6816	0.1769
256.8962	0.1658
257.1108	0.1475
257.3254	0.171
257.54	0.1521
257.7545	0.1633
257.9691	0.1763
258.1836	0.1633
258.3981	0.1695
258.6127	0.1711
258.8272	0.1584
259.0417	0.1562
259.2561	0.1509
259.4706	0.1589
259.6851	0.1616
259.8995	0.1647
260.114	0.1668
260.3284	0.1554
260.5428	0.1611
260.7572	0.1705
260.9716	0.1582
261.186	0.1502
261.4003	0.1597
261.6147	0.1641
261.829	0.1664
262.0433	0.1725
262.2577	0.1642
262.472	0.1766
262.6863	0.1687
262.9005	0.1654
263.1148	0.1656
263.3291	0.1586
263.5433	0.1586
263.7576	0.159
263.9718	0.1604
264.186	0.1564
264.4002	0.1464
264.6144	0.1636
264.8286	0.1737
265.0427	0.1648
265.2569	0.1657
265.471	0.1538
265.6851	0.1569
265.8993	0.1577
266.1134	0.1445
266.3275	0.1726
266.5415	0.1516
266.7556	0.1759
266.9697	0.1623
267.1837	0.1636
267.3978	0.1593
267.6118	0.179
267.8258	0.1705
268.0398	0.1553
268.2538	0.163
268.4677	0.1544
268.6817	0.168
268.8957	0.1596
269.1096	0.1688
269.3235	0.1636
269.5374	0.1481
269.7514	0.1401
269.9652	0.1623
270.1791	0.1627
270.393	0.1504
270.6068	0.1475
270.8207	0.1509
271.0345	0.1436
271.2483	0.149
271.4622	0.1554
271.676	0.1443
271.8897	0.1383
272.1035	0.1345
272.3173	0.134
272.531	0.1434
272.7448	0.1434
272.9585	0.1367
273.1722	0.1468
273.3859	0.146
273.5996	0.1327
273.8133	0.1527
274.0269	0.1239
274.2406	0.1429
274.4542	0.134
274.6679	0.1337
274.8815	0.1377
275.0951	0.1455
275.3087	0.1517
275.5223	0.1498
275.7358	0.1407
275.9494	0.1443
276.1629	0.1161
276.3765	0.1492
276.59	0.1456
276.8035	0.1388
277.017	0.1269
277.2305	0.1264
277.444	0.1409
277.6574	0.1396
277.8709	0.1332
278.0843	0.1347
278.2978	0.1405
278.5112	0.1426
278.7246	0.1411
278.938	0.1372
279.1513	0.1496
279.3647	0.155
279.5781	0.1393
279.7914	0.1493
280.0047	0.1463
280.2181	0.1449
280.4314	0.1513
280.6447	0.1416
280.8579	0.1471
281.0712	0.1557
281.2845	0.1501
281.4977	0.1549
281.711	0.1487
281.9242	0.1511
282.1374	0.1562
282.3506	0.158
282.5638	0.1649
282.7769	0.1494
282.9901	0.1561
283.2033	0.1613
283.4164	0.1627
283.6295	0.1478
283.8426	0.154
284.0557	0.1545
284.2688	0.1715
284.4819	0.1668
284.695	0.1567
284.908	0.1587
285.1211	0.1477
285.3341	0.1568
285.5471	0.1637
285.7601	0.1506
285.9731	0.1479
286.1861	0.1479
286.3991	0.1689
286.612	0.1644
286.825	0.1673
287.0379	0.1608
287.2508	0.1591
287.4637	0.1628
287.6766	0.1579
287.8895	0.1628
288.1024	0.175
288.3152	0.169
288.5281	0.1576
288.7409	0.164
288.9538	0.1612
289.1666	0.1598
289.3794	0.1663
289.5922	0.1609
289.8049	0.1647
290.0177	0.1603
290.2304	0.1627
290.4432	0.163
290.6559	0.1623
290.8686	0.1728
291.0813	0.1657
291.294	0.157
291.5067	0.1717
291.7194	0.1624
291.932	0.1901
292.1447	0.159
292.3573	0.1743
292.5699	0.1642
292.7825	0.173
292.9951	0.1641
293.2077	0.1647
293.4203	0.162
293.6328	0.1596
293.8454	0.1653
294.0579	0.1676
294.2704	0.1606
294.4829	0.1559
294.6954	0.1647
294.9079	0.1606
295.1204	0.1601
295.3328	0.1576
295.5453	0.1683
295.7577	0.177
295.9701	0.1639
296.1825	0.1659
296.3949	0.1611
296.6073	0.1573
296.8197	0.163
297.0321	0.1765
297.2444	0.1586
297.4567	0.1716
297.6691	0.1659
297.8814	0.1683
298.0937	0.1628
298.306	0.1741
298.5182	0.1695
298.7305	0.1691
298.9428	0.1477
299.155	0.1643
299.3672	0.1538
299.5794	0.1604
299.7916	0.1525
300.0038	0.1781
300.216	0.1749
300.4282	0.1684
300.6403	0.1651
300.8525	0.1757
301.0646	0.1595
301.2767	0.1734
301.4888	0.1551
301.7009	0.1652
301.913	0.1598
302.125	0.1678
302.3371	0.1573
302.5491	0.1571
302.7612	0.1549
302.9732	0.1689
303.1852	0.1631
303.3972	0.1566
303.6092	0.159
303.8211	0.1469
304.0331	0.1633
304.245	0.1443
304.457	0.1528
304.6689	0.1507
304.8808	0.1599
305.0927	0.1519
305.3046	0.1449
305.5164	0.1567
305.7283	0.1398
305.9401	0.1547
306.152	0.1526
306.3638	0.1574
306.5756	0.1415
306.7874	0.1564
306.9992	0.1513
307.2109	0.1501
307.4227	0.1327
307.6344	0.1417
307.8462	0.1358
308.0579	0.1299
308.2696	0.1319
308.4813	0.1309
308.693	0.1371
308.9046	0.1326
309.1163	0.1311
309.328	0.1306
309.5396	0.1155
309.7512	0.1266
309.9628	0.1148
310.1744	0.1253
310.386	0.1186
310.5976	0.1264
310.8091	0.1171
311.0207	0.1045
311.2322	0.1201
311.4437	0.1085
311.6552	0.1113
311.8667	0.1115
312.0782	0.0924
312.2897	0.1082
312.5012	0.1076
312.7126	0.093
312.924	0.0988
313.1355	0.1022
313.3469	0.1091
313.5583	0.111
313.7696	0.1055
313.981	0.106
314.1924	0.101
314.4037	0.1001
314.6151	0.0968
314.8264	0.1016
315.0377	0.1043
315.249	0.1001
315.4603	0.0964
315.6716	0.0977
315.8828	0.099
316.0941	0.1033
316.3053	0.0943
316.5165	0.0972
316.7277	0.0977
316.9389	0.0957
317.1501	0.0954
317.3613	0.0941
317.5724	0.0871
317.7836	0.1054
317.9947	0.0892
318.2058	0.082
318.417	0.0882
318.6281	0.0878
318.8391	0.1007
319.0502	0.0933
319.2613	0.0995
319.4723	0.1051
319.6834	0.1109
319.8944	0.0912
320.1054	0.0921
320.3164	0.093
320.5274	0.084
320.7383	0.0905
320.9493	0.0918
321.1602	0.0914
321.3712	0.0844
321.5821	0.0906
321.793	0.0974
322.0039	0.1006
322.2148	0.089
322.4257	0.103
322.6365	0.1022
322.8474	0.0946
323.0582	0.094
323.269	0.1008
323.4798	0.0952
323.6906	0.0909
323.9014	0.0988
324.1122	0.1056
324.3229	0.0904
324.5337	0.1038
324.7444	0.1006
324.9551	0.1074
325.1658	0.096
325.3765	0.1047
325.5872	0.0968
325.7979	0.0953
326.0085	0.097
326.2192	0.1071
326.4298	0.1003
326.6404	0.0895
326.851	0.1003
327.0616	0.0982
327.2722	0.1017
327.4828	0.1143
327.6933	0.1032
327.9039	0.1076
328.1144	0.1087
328.3249	0.114
328.5354	0.0939
328.7459	0.0941
328.9564	0.1001
329.1669	0.1003
329.3773	0.1099
329.5878	0.1107
329.7982	0.0922
330.0086	0.105
330.219	0.0966
330.4294	0.0909
330.6398	0.0973
330.8502	0.0898
331.0605	0.1125
331.2708	0.0936
331.4812	0.1094
331.6915	0.1073
331.9018	0.1041
332.1121	0.0896
332.3224	0.1056
332.5326	0.1119
332.7429	0.1012
332.9531	0.111
333.1633	0.1078
333.3735	0.095
333.5837	0.1081
333.7939	0.1026
334.0041	0.1098
334.2143	0.103
334.4244	0.1062
334.6346	0.0922
334.8447	0.122
335.0548	0.1026
335.2649	0.0942
335.475	0.112
335.685	0.0971
335.8951	0.1277
336.1051	0.1147
336.3152	0.114
336.5252	0.1035
336.7352	0.1127
336.9452	0.1079
337.1552	0.1054
337.3652	0.1052
337.5751	0.1002
337.7851	0.1214
337.995	0.0996
338.2049	0.1169
338.4148	0.1113
338.6247	0.1196
338.8346	0.098
339.0445	0.1123
339.2543	0.1032
339.4642	0.1055
339.674	0.1087
339.8838	0.115
340.0936	0.0999
340.3034	0.1114
340.5132	0.1122
340.7229	0.1233
340.9327	0.1092
341.1424	0.1085
341.3522	0.1327
341.5619	0.1159
341.7716	0.1175
341.9813	0.1141
342.1909	0.1261
342.4006	0.1254
342.6102	0.1193
342.8199	0.1199
343.0295	0.1236
343.2391	0.1274
343.4487	0.1299
343.6583	0.1257
343.8679	0.1185
344.0774	0.1351
344.287	0.1252
344.4965	0.1246
344.706	0.1258
344.9155	0.1215
345.125	0.1124
345.3345	0.1327
345.544	0.1117
345.7534	0.1276
345.9629	0.1277
346.1723	0.1285
346.3817	0.1224
346.5911	0.1202
346.8005	0.123
347.0099	0.1199
347.2193	0.1191
347.4286	0.1353
347.638	0.1368
347.8473	0.1377
348.0566	0.1395
348.2659	0.1379
348.4752	0.1354
348.6845	0.1269
348.8937	0.1323
349.103	0.1442
349.3122	0.1225
349.5214	0.1333
349.7306	0.1527
349.9398	0.1352
350.149	0.1329
350.3582	0.1386
350.5674	0.1434
350.7765	0.1315
350.9856	0.1304
351.1948	0.1332
351.4039	0.1307
351.613	0.1406
351.822	0.1427
352.0311	0.1472
352.2402	0.1401
352.4492	0.1449
352.6582	0.1554
352.8672	0.1271
353.0762	0.1425
353.2852	0.139
353.4942	0.1449
353.7032	0.1486
353.9121	0.1497
354.1211	0.1493
354.33	0.1592
354.5389	0.144
354.7478	0.1565
354.9567	0.145
355.1655	0.1379
355.3744	0.152
355.5833	0.1715
355.7921	0.1709
356.0009	0.1452
356.2097	0.1698
356.4185	0.1671
356.6273	0.1647
356.8361	0.1645
357.0448	0.154
357.2536	0.1489
357.4623	0.1502
357.671	0.1661
357.8797	0.1614
358.0884	0.1728
358.2971	0.1463
358.5057	0.1611
358.7144	0.1698
358.923	0.1571
359.1316	0.1653
359.3402	0.1768
359.5488	0.1739
359.7574	0.1659
359.966	0.1693
360.1746	0.1825
360.3831	0.1683
360.5916	0.1654
360.8002	0.1633
361.0087	0.1781
361.2172	0.167
361.4256	0.1766
361.6341	0.1933
361.8426	0.1755
362.051	0.1861
362.2594	0.1716
362.4678	0.1774
362.6762	0.1971
362.8846	0.1749
363.093	0.1839
363.3014	0.1899
363.5097	0.1676
363.718	0.1928
363.9264	0.1782
364.1347	0.1733
364.343	0.1985
364.5513	0.1882
364.7595	0.2098
364.9678	0.2043
365.176	0.1818
365.3842	0.1955
365.5925	0.1965
365.8007	0.2055
366.0089	0.1913
366.217	0.1943
366.4252	0.1998
366.6333	0.2135
366.8415	0.2096
367.0496	0.1998
367.2577	0.21
367.4658	0.2213
367.6739	0.2066
367.882	0.2139
368.09	0.2083
368.2981	0.2017
368.5061	0.1994
368.7141	0.2184
368.9221	0.2093
369.1301	0.2147
369.3381	0.2178
369.5461	0.2104
369.754	0.2076
369.962	0.2184
370.1699	0.2068
370.3778	0.2289
370.5857	0.2211
370.7936	0.2193
371.0015	0.2219
371.2093	0.2302
371.4172	0.2306
371.625	0.2132
371.8328	0.2131
372.0406	0.2214
372.2484	0.2115
372.4562	0.2254
372.664	0.233
372.8717	0.2419
373.0795	0.2091
373.2872	0.2297
373.4949	0.2274
373.7026	0.2237
373.9103	0.2275
374.118	0.2317
374.3256	0.2411
374.5333	0.2445
374.7409	0.2311
374.9485	0.251
375.1561	0.2304
375.3637	0.2461
375.5713	0.2302
375.7789	0.2456
375.9864	0.2398
376.194	0.2319
376.4015	0.2441
376.609	0.2627
376.8165	0.2441
377.024	0.2502
377.2315	0.2369
377.4389	0.2363
377.6464	0.2485
377.8538	0.2554
378.0612	0.237
378.2686	0.2611
378.476	0.2569
378.6834	0.2351
378.8908	0.2519
379.0981	0.2537
379.3055	0.2434
379.5128	0.2475
379.7201	0.268
379.9274	0.2338
380.1347	0.2501
380.342	0.2564
380.5492	0.2443
380.7565	0.2585
380.9637	0.254
381.1709	0.2551
381.3781	0.2524
381.5853	0.26
381.7925	0.2461
381.9997	0.2752
382.2068	0.2719
382.4139	0.2555
382.6211	0.2559
382.8282	0.252
383.0353	0.2489
383.2424	0.2659
383.4494	0.2609
383.6565	0.2495
383.8635	0.2514
384.0706	0.2599
384.2776	0.2627
384.4846	0.2377
384.6916	0.2791
384.8986	0.2529
385.1055	0.2598
385.3125	0.2606
385.5194	0.245
385.7263	0.2824
385.9333	0.259
386.1402	0.247
386.347	0.2649
386.5539	0.257
386.7608	0.2664
386.9676	0.2343
387.1744	0.2635
387.3813	0.2527
387.5881	0.2616
387.7948	0.2599
388.0016	0.2539
388.2084	0.2668
388.4151	0.2552
388.6219	0.2574
388.8286	0.2559
389.0353	0.2756
389.242	0.2602
389.4487	0.2528
389.6553	0.2355
389.862	0.2445
390.0686	0.2415
390.2753	0.2528
390.4819	0.2612
390.6885	0.2595
390.8951	0.2452
391.1016	0.2485
391.3082	0.2475
391.5147	0.2518
391.7213	0.2385
391.9278	0.2441
392.1343	0.2422
392.3408	0.2533
392.5473	0.2438
392.7537	0.2347
392.9602	0.2278
393.1666	0.2326
393.373	0.2404
393.5794	0.2532
393.7858	0.2364
393.9922	0.2165
394.1986	0.2429
394.4049	0.2398
394.6113	0.2429
394.8176	0.226
395.0239	0.2367
395.2302	0.2204
395.4365	0.225
395.6428	0.2251
395.8491	0.2369
396.0553	0.2313
396.2615	0.2282
396.4678	0.2267
396.674	0.213
396.8802	0.227
397.0863	0.2418
397.2925	0.2172
397.4987	0.2202
397.7048	0.2295
397.9109	0.2297
398.117	0.2085
398.3231	0.22
398.5292	0.2307
398.7353	0.2149
398.9413	0.2218
399.1474	0.2271
399.3534	0.2191
399.5594	0.1985
399.7654	0.2368
399.9714	0.2291
400.1774	0.2006
400.3833	0.2107
400.5893	0.2206
400.7952	0.2318
401.0011	0.207
401.207	0.2271
401.4129	0.2225
401.6188	0.242
401.8247	0.2165
402.0305	0.224
402.2364	0.2346
402.4422	0.226
402.648	0.23
402.8538	0.2155
403.0596	0.2132
403.2654	0.2233
403.4711	0.2184
403.6768	0.216
403.8826	0.2309
404.0883	0.2196
404.294	0.2198
404.4997	0.2281
404.7054	0.2221
404.911	0.2059
405.1167	0.2076
405.3223	0.2179
405.5279	0.2237
405.7335	0.2301
405.9391	0.2324
406.1447	0.2179
406.3502	0.2472
406.5558	0.2143
406.7613	0.2262
406.9668	0.2261
407.1724	0.2067
407.3778	0.2143
407.5833	0.1979
407.7888	0.2096
407.9942	0.2443
408.1997	0.2063
408.4051	0.2193
408.6105	0.2152
408.8159	0.2009
409.0213	0.2053
409.2267	0.2284
409.432	0.2182
409.6374	0.2344
409.8427	0.2151
410.048	0.2194
410.2533	0.2236
410.4586	0.2131
410.6639	0.204
410.8691	0.2112
411.0744	0.2114
411.2796	0.2072
411.4848	0.2059
411.69	0.2131
411.8952	0.2197
412.1004	0.2127
412.3056	0.223
412.5107	0.225
412.7158	0.2191
412.921	0.2142
413.1261	0.21
413.3312	0.2112
413.5362	0.2065
413.7413	0.208
413.9464	0.2138
414.1514	0.2135
414.3564	0.2148
414.5614	0.2004
414.7664	0.2121
414.9714	0.2173
415.1764	0.2014
415.3813	0.2261
415.5863	0.2198
415.7912	0.2159
415.9961	0.2226
416.201	0.2255
416.4059	0.2049
416.6108	0.2024
416.8156	0.22
417.0205	0.2039
417.2253	0.2077
417.4301	0.2152
417.6349	0.2029
417.8397	0.2008
418.0445	0.2095
418.2492	0.2194
418.454	0.2065
418.6587	0.2235
418.8634	0.2105
419.0681	0.1958
419.2728	0.1957
419.4775	0.1944
419.6822	0.1994
419.8868	0.1721
420.0915	0.1952
420.2961	0.1961
420.5007	0.1913
420.7053	0.2011
420.9099	0.1965
421.1144	0.1929
421.319	0.1909
421.5235	0.2102
421.728	0.2082
421.9325	0.1979
422.137	0.2037
422.3415	0.206
422.546	0.1984
422.7504	0.1933
422.9549	0.1947
423.1593	0.1924
423.3637	0.1865
423.5681	0.1973
423.7725	0.1766
423.9769	0.1869
424.1812	0.181
424.3856	0.171
424.5899	0.18
424.7942	0.1762
424.9985	0.1712
425.2028	0.1628
425.4071	0.1916
425.6113	0.1641
425.8156	0.1757
426.0198	0.1768
426.224	0.1743
426.4282	0.1807
426.6324	0.1713
426.8366	0.1673
427.0407	0.1819
427.2449	0.1724
427.449	0.1686
427.6531	0.1632
427.8572	0.1638
428.0613	0.171
428.2654	0.173
428.4694	0.1615
428.6735	0.1601
428.8775	0.1747
429.0815	0.1705
429.2855	0.1508
429.4895	0.1753
429.6935	0.1666
429.8975	0.1594
430.1014	0.153
430.3053	0.1436
430.5093	0.1593
430.7132	0.1419
430.9171	0.1418
431.1209	0.1524
431.3248	0.138
431.5286	0.1391
431.7325	0.1506
431.9363	0.1241
432.1401	0.1421
432.3439	0.1365
432.5477	0.1137
432.7514	0.126
432.9552	0.135
433.1589	0.131
433.3627	0.1276
433.5664	0.1237
433.7701	0.1178
433.9737	0.1245
434.1774	0.1164
434.3811	0.1092
434.5847	0.1224
434.7883	0.1215
434.9919	0.1172
435.1955	0.1151
435.3991	0.1097
435.6027	0.1268
435.8062	0.1185
436.0098	0.0974
436.2133	0.1204
436.4168	0.1033
436.6203	0.105
436.8238	0.1152
437.0272	0.0934
437.2307	0.112
437.4341	0.1066
437.6375	0.1083
437.841	0.0956
438.0443	0.104
438.2477	0.0961
438.4511	0.0802
438.6545	0.0951
438.8578	0.0978
439.0611	0.0908
439.2644	0.1015
439.4677	0.084
439.671	0.092
439.8743	0.0972
440.0775	0.1007
440.2808	0.0804
440.484	0.0814
440.6872	0.0649
440.8904	0.0729
441.0936	0.0862
441.2967	0.0691
441.4999	0.0646
441.703	0.0716
441.9062	0.0672
442.1093	0.0792
442.3124	0.0702
442.5155	0.058
442.7185	0.0824
442.9216	0.0315
443.1246	0.0694
443.3276	0.056
443.5307	0.0546
443.7337	0.0648
443.9366	0.0535
444.1396	0.0666
444.3426	0.0608
444.5455	0.0543
444.7484	0.0454
444.9513	0.0637
445.1542	0.0575
445.3571	0.05
445.56	0.0512
445.7628	0.0424
445.9657	0.0499
446.1685	0.0543
446.3713	0.0494
446.5741	0.0466
446.7769	0.0211
446.9797	0.044
447.1824	0.0485
447.3852	0.0376
447.5879	0.0431
447.7906	0.0473
447.9933	0.0428
448.196	0.019
448.3986	0.034
448.6013	0.0356
448.8039	0.03
449.0066	0.0389
449.2092	0.0384
449.4118	0.0352
449.6143	0.0258
449.8169	0.0403
450.0195	0.0299
450.222	0.0185
450.4245	0.0214
450.627	0.0419
450.8295	0.0249
451.032	0.0056
451.2345	0.0358
451.4369	0.0459
451.6394	0.0195
451.8418	0.0117
452.0442	0.0201
452.2466	0.0427
452.449	0.005
452.6513	0.0214
452.8537	0.0135
453.056	-0.0026
453.2583	0.0207
453.4607	0.0164
453.663	0.0148
453.8652	0.032
454.0675	0.0121
454.2697	0.0248
454.472	-0.0001
454.6742	0.0287
454.8764	0.0089
455.0786	0.0131
455.2808	0.0244
455.4829	0.0157
455.6851	0.0287
455.8872	0.0234
456.0893	0.0151
456.2915	0.0111
456.4935	0.018
456.6956	0.0072
456.8977	0.0332
457.0997	0.004
457.3018	-0.0051
457.5038	0.0189
457.7058	0.0181
457.9078	-0.0023
458.1098	0.0246
458.3117	0.0168
458.5137	0.0007
458.7156	0.0158
458.9175	0.002
459.1194	0.003
459.3213	0.0169
459.5232	0.0105
459.725	-0.0059
459.9269	0.0004
460.1287	-0.0075
460.3305	0.0079
460.5323	0.0048
460.7341	0.0118
460.9359	0.0036
461.1376	0.0123
461.3394	-0.0084
461.5411	-0.0004
461.7428	0.0015
461.9445	0.0146
462.1462	-0.0026
462.3479	0.0072
462.5495	0.0023
462.7512	0.0015
462.9528	0.0041
463.1544	-0.0171
463.356	0.0073
463.5576	0.0032
463.7592	0.0002
463.9607	0.0138
464.1623	0.0121
464.3638	0.0149
464.5653	-0.0133
464.7668	0.0014
464.9683	0.0185
465.1697	0.0146
465.3712	-0.0024
465.5726	-0.0076
465.7741	-0.0158
465.9755	0.001
466.1769	-0.0028
466.3782	-0.0052
466.5796	-0.0184
466.7809	0.0218
466.9823	-0.0067
467.1836	0.0044
467.3849	-0.0087
467.5862	0.0109
467.7875	-0.002
467.9887	0.0072
468.19	0.0001
468.3912	-0.0116
468.5924	0.0031
468.7936	0.0017
468.9948	0.0081
469.196	-0.0075
469.3972	-0.0134
469.5983	-0.0021
469.7994	-0.0128
470.0006	0.0009
470.2017	-0.0156
470.4027	-0.0114
470.6038	0.0169
470.8049	-0.0042
471.0059	-0.008
471.2069	-0.0159
471.408	0.0083
471.6089	0.0067
471.8099	-0.0113
472.0109	0.0101
472.2119	-0.0187
472.4128	-0.0118
472.6137	0.0008
472.8146	-0.0164
473.0155	-0.0068
473.2164	0.0008
473.4173	0.0086
473.6181	0.0028
473.819	0.0079
474.0198	-0.0083
474.2206	-0.0047
474.4214	-0.0038
474.6222	-0.0133
474.8229	-0.0048
475.0237	-0.0151
475.2244	-0.0161
475.4251	0.0027
475.6258	-0.0001
475.8265	-0.0073
476.0272	0.0124
476.2278	-0.0024
476.4285	0.0059
476.6291	-0.0074
476.8297	-0.0081
477.0303	-0.0133
477.2309	-0.0019
477.4315	-0.008
477.632	0.0013
477.8326	-0.0043
478.0331	0.0073
478.2336	0.0073
478.4341	-0.0074
478.6346	-0.0057
478.8351	-0.001
479.0355	-0.004
479.236	-0.0023
479.4364	-0.0012
479.6368	-0.005
479.8372	-0.0057
480.0376	-0.0013
480.2379	-0.02
480.4383	0.0029
480.6386	-0.0025
480.8389	0.0062
481.0392	-0.0101
481.2395	-0.0067
481.4398	0.0012
481.6401	0.0026
481.8403	-0.0002
482.0405	-0.0077
482.2408	0.0023
482.441	0.0115
482.6411	0.0018
482.8413	-0.0011
483.0415	-0.0134
483.2416	-0.0225
483.4417	0.0005
483.6419	-0.0053
483.8419	-0.0051
484.042	0.0045
484.2421	-0.0067
484.4422	-0.0074
484.6422	-0.0002
484.8422	-0.0016
485.0422	-0.0121
485.2422	0.0012
485.4422	-0.0117
485.6422	-0.0043
485.8421	-0.0042
486.042	-0.0054
486.242	-0.0048
486.4419	-0.0099
486.6417	-0.0099
486.8416	-0.001
487.0415	-0.006
487.2413	-0.0127
487.4411	-0.0116
487.641	-0.0098
487.8408	0.0067
488.0405	-0.0112
488.2403	-0.0141
488.4401	-0.002
488.6398	0.0063
488.8395	0.0015
489.0392	0.0019
489.2389	-0.0042
489.4386	0.0024
489.6383	0.0051
489.8379	0.0074
490.0376	-0.0062
490.2372	-0.0082
490.4368	-0.0172
490.6364	-0.0032
490.836	-0.0044
491.0355	-0.0114
491.2351	0.0012
491.4346	-0.0023
491.6341	-0.0079
491.8336	0
492.0331	-0.0078
492.2326	-0.0122
492.432	-0.0019
492.6315	0.0008
492.8309	-0.0146
493.0303	-0.0033
493.2297	-0.0041
493.4291	-0.0117
493.6284	-0.0097
493.8278	-0.003
494.0271	0.0066
494.2264	0.0036
494.4257	-0.013
494.625	-0.0011
494.8243	-0.0145
495.0236	-0.0092
495.2228	-0.0085
495.422	-0.0002
495.6213	-0.009
495.8205	-0.008
496.0196	-0.002
496.2188	0.0055
496.418	-0.0164
496.6171	-0.005
496.8162	-0.0163
497.0153	-0.0037
497.2144	-0.0138
497.4135	-0.0005
497.6126	-0.0143
497.8116	-0.0097
498.0107	0.007
498.2097	-0.0149
498.4087	-0.0097
498.6077	0.0077
498.8067	-0.0214
499.0056	-0.005
499.2046	-0.0028
499.4035	-0.0186
499.6024	-0.0099
499.8013	-0.0012
500.0002	-0.0052
500.199	0.0086
500.3979	-0.0035
500.5967	-0.0239
500.7956	-0.0076
500.9944	-0.0063
501.1932	-0.0129
501.3919	-0.0044
501.5907	-0.0143
501.7895	-0.0021
501.9882	-0.0149
502.1869	-0.0037
502.3856	-0.0108
502.5843	-0.0131
502.783	-0.0074
502.9816	-0.0013
503.1803	-0.0175
503.3789	-0.0114
503.5775	0.0033
503.7761	-0.0112
503.9747	0.0074
504.1732	-0.0119
504.3718	0.0018
504.5703	-0.0135
504.7689	-0.0089
504.9674	-0.0082
505.1658	-0.011
505.3643	-0.0019
505.5628	-0.0027
505.7612	-0.0071
505.9597	-0.0001
506.1581	-0.012
506.3565	0.0002
506.5549	-0.0131
506.7532	-0.0163
506.9516	-0.0039
507.1499	-0.0029
507.3482	-0.01
507.5465	-0.0102
507.7448	-0.0088
507.9431	-0.0072
508.1414	0.0037
508.3396	-0.0012
508.5379	-0.0074
508.7361	-0.0017
508.9343	0.0026
509.1325	0.0038
509.3306	0.0019
509.5288	-0.0004
509.7269	-0.0149
509.9251	-0.0078
510.1232	-0.0048
510.3213	-0.0063
510.5193	0.0063
510.7174	-0.0111
510.9154	-0.0004
511.1135	-0.0096
511.3115	-0.0023
511.5095	0.0006
511.7075	-0.0066
511.9055	-0.0085
512.1034	-0.0039
512.3014	-0.0012
512.4993	0.0002
512.6972	-0.0002
512.8951	-0.0092
513.093	-0.0017
513.2908	-0.0006
513.4887	0.0075
513.6865	-0.0045
513.8844	-0.0119
514.0822	-0.0142
514.2799	-0.0083
514.4777	-0.0037
514.6755	-0.0038
514.8732	-0.0059
515.0709	-0.0013
515.2687	-0.0039
515.4664	-0.0021
515.664	-0.0083
515.8617	-0.0085
516.0594	-0.0135
516.257	-0.0007
516.4546	-0.0087
516.6522	0.0066
516.8498	-0.0004
517.0474	0.0044
517.2449	-0.0011
517.4425	-0.0069
517.64	-0.0074
517.8375	0.0036
518.035	0.0037
518.2325	-0.0073
518.43	0.001
518.6274	-0.0056
518.8249	-0.0169
519.0223	0.005
519.2197	-0.0109
519.4171	-0.0018
519.6145	-0.0061
519.8118	-0.0052
520.0092	-0.0002
520.2065	-0.0107
520.4038	-0.0103
520.6011	0.0009
520.7984	-0.0123
520.9956	-0.0071
521.1929	-0.0062
521.3901	0.0047
521.5874	-0.007
521.7846	-0.0031
521.9818	-0.0034
522.1789	-0.0125
522.3761	-0.0015
522.5732	-0.0021
522.7704	-0.0078
522.9675	-0.0073
523.1646	-0.0033
523.3617	0.0033
523.5587	-0.0068
523.7558	-0.0064
523.9528	-0.0069
524.1498	-0.0006
524.3468	-0.0054
524.5438	-0.0046
524.7408	-0.0063
524.9378	0.0109
525.1347	-0.0057
525.3316	0.0107
525.5285	-0.0031
525.7254	-0.0119
525.9223	-0.0052
526.1192	-0.005
526.316	-0.0103
526.5129	0.0086
526.7097	-0.0013
526.9065	-0.0044
527.1033	-0.0133
527.3	0.003
527.4968	0.0005
527.6935	0.0012
527.8903	-0.0131
528.087	0.002
528.2837	-0.0004
528.4804	0.0033
528.677	-0.0046
528.8737	0.0114
529.0703	0.0094
529.2669	0.0008
529.4635	-0.0072
529.6601	-0.0009
529.8567	0.0047
530.0532	-0.0098
530.2498	0.0045
530.4463	-0.0012
530.6428	0.0007
530.8393	0.017
531.0358	-0.0112
531.2322	-0.0008
531.4287	-0.0068
531.6251	0.0009
531.8215	0.0075
532.0179	0.0017
532.2143	0.0081
532.4107	-0.0082
532.607	-0.0052
532.8034	0.0015
532.9997	-0.0018
533.196	0.0049
533.3923	-0.0093
533.5886	0.0041
533.7848	-0.0042
533.9811	-0.0023
534.1773	-0
534.3735	0.0055
534.5697	-0.0034
534.7659	-0.0052
534.9621	0.0059
535.1582	-0.0079
535.3544	-0.0063
535.5505	-0.002
535.7466	-0.0089
535.9427	-0.0083
536.1387	0.0013
536.3348	-0.0101
536.5308	0.0018
536.7269	-0.019
536.9229	0.0031
537.1189	0.0004
537.3148	-0.0022
537.5108	-0.0104
537.7068	0.001
537.9027	-0.0002
538.0986	-0.004
538.2945	-0.0044
538.4904	-0.0106
538.6863	-0.007
538.8821	-0.007
539.078	-0.0016
539.2738	0.001
539.4696	-0.0039
539.6654	0.0088
539.8611	0.0105
540.0569	0.0038
540.2526	-0.0089
540.4484	-0.0023
540.6441	0.0077
540.8398	0.0027
541.0355	0.0017
541.2311	0.0078
541.4268	-0.0065
541.6224	0.0031
541.818	-0.001
542.0136	-0.0058
542.2092	0.0001
542.4048	0.004
542.6003	0.001
542.7959	-0.0024
542.9914	-0.0044
543.1869	0.0006
543.3824	-0.0001
543.5779	0.0028
543.7734	-0.0091
543.9688	-0.0053
544.1642	0.006
544.3596	0.0051
544.555	-0.0014
544.7504	0.0001
544.9458	-0.0088
545.1411	0.0049
545.3365	-0.0029
545.5318	0.0007
545.7271	0.0033
545.9224	-0.0016
546.1177	0.0033
546.3129	0.0042
546.5081	-0.0055
546.7034	-0.008
546.8986	0.0012
547.0938	-0.0059
547.289	-0.0086
547.4841	-0.0067
547.6793	0.0054
547.8744	-0.0089
548.0695	-0.0046
548.2646	-0.0071
548.4597	0.0033
548.6548	0.002
548.8498	0.0048
549.0448	0.0077
549.2399	0.0034
549.4349	0.0025
549.6298	0
549.8248	-0.0053
550.0198	-0.0017
550.2147	0.0003
550.4096	-0.0093
550.6045	-0.002
550.7994	0.0051
550.9943	-0.0034
551.1892	-0.0023
551.384	-0.0023
551.5788	-0.0082
551.7737	-0.003
551.9685	-0.0006
552.1632	-0.0011
552.358	-0.0058
552.5528	0.0029
552.7475	-0.0056
552.9422	0.0029
553.1369	-0.0049
553.3316	0.0089
553.5263	-0.0144
553.7209	0.004
553.9156	-0.0049
554.1102	-0.0047
554.3048	-0.0021
554.4994	0.0117
554.694	-0.0069
554.8885	0.0065
555.0831	-0.0063
555.2776	-0.0055
555.4721	-0.0017
555.6666	-0.0038
555.8611	0.0017
556.0555	-0.0003
556.25	0.0016
556.4444	-0.0122
556.6388	0.0013
556.8332	0.0022
557.0276	-0.0007
557.222	-0.002
557.4163	0.0004
557.6107	-0.007
557.805	0.0131
557.9993	-0.0083
558.1936	-0.0041
558.3879	0.0039
558.5821	0.0058
558.7764	0.0018
558.9706	0.0033
559.1648	0.0105
559.359	-0.0044
559.5532	-0.007
559.7473	0.0012
559.9415	0.0056
560.1356	-0.0058
560.3297	-0.0094
560.5238	-0.0017
560.7179	-0.0115
560.9119	-0.002
561.106	-0.0063
561.3	-0.0044
561.494	-0.0012
561.688	-0.006
561.882	-0.0139
562.076	-0.0062
562.2699	0.002
562.4639	-0.0017
562.6578	0.0008
562.8517	-0.0078
563.0456	-0.0047
563.2395	0.0024
563.4333	0.0021
563.6272	0.0097
563.821	-0.0013
564.0148	-0.005
564.2086	-0.009
564.4024	-0.0034
564.5961	-0.0099
564.7899	0.005
564.9836	0.0032
565.1773	0.0008
565.371	0.006
565.5647	0.0048
565.7584	-0.0003
565.952	0.0009
566.1456	-0.0012
566.3393	0.0038
566.5329	0.0014
566.7264	-0.0039
566.92	-0.0033
567.1136	0.0103
567.3071	-0.0022
567.5006	-0.0046
567.6941	0.0011
567.8876	0.0022
568.0811	-0.0042
568.2745	-0
568.468	0.0082
568.6614	0.0046
568.8548	0.0019
569.0482	0.0044
569.2416	0.0025
569.4349	0.0036
569.6283	0.0049
569.8216	-0.0001
570.0149	-0.0083
570.2082	0.0085
570.4015	0.0053
570.5947	0.008
570.788	0.0111
570.9812	-0.0016
571.1744	-0.0001
571.3676	-0.0075
571.5608	0.0012
571.754	0.0076
571.9471	0.003
572.1402	0.0035
572.3333	-0.0046
572.5264	-0.0016
572.7195	0.0003
572.9126	0.0026
573.1057	0.0021
573.2987	-0.0021
573.4917	0.0063
573.6847	-0.0042
573.8777	0.0028
574.0707	0.0005
574.2636	-0.0016
574.4566	-0.0031
574.6495	0.0106
574.8424	-0.0021
575.0353	0.0052
575.2281	0.0079
575.421	0.0066
575.6138	0.0025
575.8067	-0
575.9995	0.0038
576.1923	0.0083
576.385	0.0064
576.5778	0.0038
576.7706	0.0018
576.9633	0.0096
577.156	-0.0017
577.3487	0.0006
577.5414	0.0009
577.734	-0.004
577.9267	0.0005
578.1193	-0.0055
578.3119	0.0002
578.5045	0.0002
578.6971	-0.004
578.8897	0.0083
579.0822	0.0008
579.2747	0.0081
579.4673	-0.0083
579.6598	-0.0052
579.8522	-0.0067
580.0447	0.0023
580.2372	0
580.4296	-0.0002
580.622	0.0042
580.8144	0.0029
581.0068	0.0013
581.1992	-0.015
581.3915	-0.0056
581.5839	-0.0081
581.7762	-0.0074
581.9685	-0.0003
582.1608	0.0027
582.353	-0.0048
582.5453	-0.0009
582.7375	0.001
582.9298	-0.0013
583.122	0.0048
583.3142	0.0004
583.5063	0.0005
583.6985	-0.0032
583.8906	0.0012
584.0827	-0.0063
584.2749	0.0005
584.4669	0.0032
584.659	0.0029
584.8511	0.0018
585.0431	0.0003
585.2352	0.0062
585.4272	-0.0018
585.6192	0.0123
585.8111	0.0015
586.0031	0.0006
586.195	-0.0013
586.387	0.0051
586.5789	0.0007
586.7708	0.0048
586.9627	-0.0034
587.1545	-0.0051
587.3464	0.0049
587.5382	0.0055
587.73	0.0111
587.9218	0.008
588.1136	0.004
588.3053	0.0071
588.4971	-0.0001
588.6888	-0.0065
588.8805	0.001
589.0722	0.0019
589.2639	-0.0013
589.4556	0.0019
589.6472	0.0015
589.8389	-0.0083
590.0305	-0.0081
590.2221	0.0005
590.4137	-0.0011
590.6052	0.0053
590.7968	0.0001
590.9883	0.0064
591.1798	0.0012
591.3713	-0.0032
591.5628	-0.001
591.7543	0.0098
591.9458	0.0004
592.1372	0.0053
592.3286	0.0122
592.52	0.0061
592.7114	-0.0044
592.9028	-0.003
593.0941	0.0037
593.2855	0.0032
593.4768	-0.0024
593.6681	-0.0049
593.8594	-0.0085
594.0506	-0.0005
594.2419	0.0061
594.4331	-0.0061
594.6244	0.0044
594.8156	-0.0096
595.0067	0.0077
595.1979	0.0007
595.3891	0.0018
595.5802	0.0015
595.7713	-0.0025
595.9624	0.0017
596.1535	0.0061
596.3446	0.0027
596.5357	0.0032
596.7267	0.0046
596.9177	-0.0006
597.1087	-0.0024
597.2997	-0.0034
597.4907	0.0044
597.6817	0.0011
597.8726	-0.0028
598.0635	-0.0042
598.2544	-0.0012
598.4453	0.0001
598.6362	0.0026
598.827	-0.0015
599.0179	0.0047
599.2087	0.0019
599.3995	0.0023
599.5903	-0.0024
599.7811	0.004
599.9718	0.0028
600.1626	-0.0014
600.3533	0.0002
600.544	0.0022
600.7347	0.0027
600.9254	0.0061
601.116	-0.0091
601.3067	-0.0043
601.4973	-0.0011
601.6879	0.005
601.8785	-0.0039
602.0691	0.0047
602.2596	0.0102
602.4502	0.006
602.6407	0.0079
602.8312	0.002
603.0217	-0.004
603.2122	0.0107
603.4027	0.0068
603.5931	0.0065
603.7835	-0.0004
603.9739	-0.0061
604.1643	0.0018
604.3547	0.0004
604.5451	0.0029
604.7354	-0.0032
604.9257	0.001
605.116	0.0004
605.3063	0.0029
605.4966	0.0043
605.6869	0.0039
605.8771	0.0112
606.0673	0.0066
606.2575	0.0083
606.4477	0.0042
606.6379	0.0059
606.8281	-0.0039
607.0182	-0.0007
607.2083	0.0103
607.3985	-0.0032
607.5885	0.0014
607.7786	0.0041
607.9687	-0.0001
608.1587	0.0066
608.3488	0.0057
608.5388	0.0013
608.7288	-0.0002
608.9187	0.0009
609.1087	-0.0032
609.2986	-0.0038
609.4886	-0.0024
609.6785	0.0077
609.8684	0.0021
610.0582	0.0053
610.2481	0.0065
610.4379	0.0027
610.6278	-0.0035
610.8176	-0.0038
611.0074	-0.0022
611.1971	-0.0014
611.3869	-0.0015
611.5766	-0.0077
611.7664	-0.0007
611.9561	0.0029
612.1458	-0.0005
612.3354	-0.0034
612.5251	0.0012
612.7147	0.0048
612.9044	0.0092
613.094	-0.0069
613.2836	0.0071
613.4731	-0.0024
613.6627	-0.0036
613.8522	0.0062
614.0417	0.0051
614.2313	-0.0011
614.4207	0.0048
614.6102	0.0013
614.7997	0.0006
614.9891	-0.0014
615.1785	0.004
615.3679	-0.0043
615.5573	0.014
615.7467	0.0072
615.9361	-0.0083
616.1254	-0.0039
616.3147	0.002
616.504	0.0103
616.6933	0.0012
616.8826	0.0072
617.0718	0.0041
617.2611	0.0069
617.4503	-0.0028
617.6395	-0.0037
617.8287	-0.0024
618.0179	-0.0008
618.207	0.0155
618.3961	0.0062
618.5853	-0.0014
618.7744	0.0057
618.9634	0.0053
619.1525	0.0086
619.3416	0.0066
619.5306	0.0081
619.7196	0.0128
619.9086	-0.0053
620.0976	0.0042
620.2866	0.0004
620.4755	0.0046
620.6645	0.0019
620.8534	0.0055
621.0423	0.0088
621.2312	0.0147
621.42	0.0104
621.6089	0.0007
621.7977	0.0032
621.9865	-0.0053
622.1753	0.0093
622.3641	-0.0063
622.5529	0.0133
622.7416	0.0093
622.9303	-0.0031
623.1191	0.0058
623.3078	0.0005
623.4964	0.0024
623.6851	0.0028
623.8737	0.002
624.0624	0.0016
624.251	-0.0053
624.4396	-0.0017
624.6282	0.0003
624.8167	-0.0057
625.0053	0.0062
625.1938	0.0095
625.3823	-0.0014
625.5708	-0.0061
625.7593	-0.0045
625.9477	-0.0026
626.1362	-0.0033
626.3246	0.0032
626.513	0.0079
626.7014	0.0098
626.8898	0.0004
627.0781	0.008
627.2665	-0.0082
627.4548	0.0068
627.6431	0.0074
627.8314	0.011
628.0197	0.0058
628.2079	-0.0059
628.3962	0
628.5844	0.0105
628.7726	0.0069
628.9608	0.0003
629.1489	0.0085
629.3371	0.006
629.5252	0.0006
629.7134	0.0158
629.9015	-0.0007
630.0895	0.0034
630.2776	0.0038
630.4657	-0.0004
630.6537	0.0024
630.8417	-0.004
631.0297	-0.0051
631.2177	0.0021
631.4057	-0.0071
631.5936	0.0036
631.7815	0.0043
631.9695	-0.0026
632.1574	0.0073
632.3452	0.0127
632.5331	0.0046
632.7209	0.0079
632.9088	0.0171
633.0966	0.0117
633.2844	0.0068
633.4722	-0.0055
633.6599	0.0106
633.8477	0.0074
634.0354	0.0007
634.2231	0.0069
634.4108	0.0041
634.5985	0.0123
634.7861	0.013
634.9738	-0
635.1614	0.0035
635.349	0.0014
635.5366	-0.0001
635.7242	-0.0035
635.9117	0.0098
636.0993	-0.0014
636.2868	0.0036
636.4743	-0.0063
636.6618	0.0063
636.8492	-0.0025
637.0367	-0.0004
637.2241	-0.0006
637.4115	-0.0052
637.5989	0.0045
637.7863	-0.0052
637.9737	0.0014
638.161	-0.0019
638.3484	-0.0028
638.5357	0.0037
638.723	-0.0036
638.9103	0.0027
639.0975	0.0056
639.2848	0.0004
639.472	0.0007
639.6592	0.0067
639.8464	0.0082
640.0336	0.0111
640.2208	0.0077
640.4079	-0.0048
640.595	0.0066
640.7821	0.0009
640.9692	0.0021
641.1563	0.0042
641.3434	0.006
641.5304	0.0074
641.7174	0.0038
641.9044	0.0018
642.0914	0.0079
642.2784	0.0138
642.4653	0.0127
642.6523	0.0083
642.8392	0.0045
643.0261	0.0059
643.213	0.0043
643.3999	-0.0024
643.5867	-0.0034
643.7735	0.0046
643.9604	-0.0001
644.1472	0.0042
644.3339	0.0086
644.5207	0.0044
644.7075	0.0015
644.8942	0.003
645.0809	0.0052
645.2676	0.0073
645.4543	0.008
645.6409	0.006
645.8276	0.006
646.0142	0.0107
646.2008	-0.0046
646.3874	0.0004
646.574	0.0001
646.7605	-0.0049
646.9471	-0.0086
647.1336	0.0061
647.3201	0.0045
647.5066	0.002
647.6931	0.0092
647.8795	0.0084
648.0659	0.0063
648.2524	0.0079
648.4388	-0.0021
648.6252	0.0048
648.8115	0.0069
648.9979	0.0027
649.1842	0.0039
649.3705	0.0087
649.5568	0.0101
649.7431	0.0031
649.9294	0.0089
650.1156	0.0078
650.3018	-0.0079
650.488	-0.0005
650.6742	-0.0004
650.8604	0.001
651.0466	-0.005
651.2327	-0.0008
651.4188	0.002
651.6049	-0.0044
651.791	-0.0072
651.9771	0.0035
652.1632	-0.0043
652.3492	0.0028
652.5352	0.0025
652.7212	-0.0026
652.9072	0.0135
653.0932	0.0065
653.2791	0.0004
653.465	0.0069
653.651	-0.0037
653.8369	0.0006
654.0227	0.0038
654.2086	0.0145
654.3944	0.0076
654.5803	0.0027
654.7661	-0.0001
654.9519	0.0032
655.1377	-0.0021
655.3234	0.0044
655.5092	-0.0022
655.6949	-0.0036
655.8806	-0
656.0663	-0.0001
656.2519	-0.0015
656.4376	-0.0008
656.6232	0.0059
656.8088	0.0002
656.9945	0.0013
657.18	0.0032
657.3656	0.0028
657.5511	-0.0003
657.7367	-0.008
657.9222	0.0075
658.1077	0.0092
658.2932	0.0085
658.4786	-0.0054
658.6641	0.0022
658.8495	0.0007
659.0349	0.0044
659.2203	0.0088
659.4057	0.0048
659.591	0.0038
659.7764	0.0068
659.9617	0.0033
660.147	-0.0036
660.3323	-0.0012
660.5176	0.0083
660.7028	0.0029
660.888	0.0026
661.0733	0.0033
661.2585	-0.0067
661.4436	-0.0013
661.6288	-0.0053
661.8139	-0.0013
661.9991	0.0074
662.1842	-0.0048
662.3693	-0.0025
662.5544	-0.0006
662.7394	-0.0002
662.9245	-0.0023
663.1095	-0.0033
663.2945	-0.0014
663.4795	-0.0059
663.6644	0.0086
663.8494	0.0022
664.0343	0.0095
664.2193	-0.0012
664.4042	-0.0016
664.589	-0.0029
664.7739	-0
664.9587	-0.0062
665.1436	0.0022
665.3284	0.0043
665.5132	0.0049
665.698	0.0017
665.8827	0.012
666.0675	-0.0023
666.2522	-0.0102
666.4369	0.0011
666.6216	0.0083
666.8063	0.0017
666.9909	0.0015
667.1756	0.0021
667.3602	0.0079
667.5448	-0.0009
667.7294	0.0095
667.9139	0.0064
668.0985	0.0151
668.283	0.0009
668.4675	0.0068
668.652	0.004
668.8365	0.0021
669.0209	0.0106
669.2054	0.0071
669.3898	0.0023
669.5742	0.0103
669.7586	0.0095
669.943	0.0144
670.1273	0.0038
670.3117	0.0047
670.496	0.0072
670.6803	0.0143
670.8646	0.0064
671.0488	0.0041
671.2331	0.0109
671.4173	0.0116
671.6015	-0.0005
671.7857	0.011
671.9699	0.0063
672.1541	0.0066
672.3382	0.003
672.5223	0.0033
672.7064	0.003
672.8905	0.0058
673.0746	0.0017
673.2587	0.0006
673.4427	0.0042
673.6267	-0.001
673.8107	0.0064
673.9947	0.0026
674.1787	-0.0004
674.3626	0.003
674.5465	0.0088
674.7304	0.0052
674.9143	0.0073
675.0982	0.0104
675.2821	-0.0054
675.4659	0.0042
675.6497	0.0062
675.8335	-0.0004
676.0173	0.0057
676.2011	-0.0031
676.3849	-0.0013
676.5686	-0.0046
676.7523	-0.0006
676.936	0.0048
677.1197	-0.005
677.3034	-0.0034
677.487	0.0082
677.6706	0.0024
677.8542	0.0032
678.0378	0.0007
678.2214	-0.0039
678.405	0.007
678.5885	-0.0043
678.772	0.0068
678.9555	-0.0076
679.139	-0.0068
679.3225	-0.0005
679.5059	-0.0001
679.6894	0.0022
679.8728	-0.0017
680.0562	-0.0057
680.2395	-0.0067
680.4229	0
680.6062	0.0031
680.7896	0.0018
680.9729	-0.0016
681.1562	0.0063
681.3394	0.0026
681.5227	-0.0085
681.7059	0.0042
681.8891	0.0029
682.0723	0.0102
682.2555	0.0138
682.4387	0.0056
682.6218	0.0019
682.805	0.0054
682.9881	0.0034
683.1712	-0.0026
683.3542	0.0003
683.5373	0.0034
683.7203	-0.0005
683.9034	0.0051
684.0864	-0.0078
684.2694	-0.003
684.4523	0.0061
684.6353	0.0009
684.8182	0.005
685.0011	-0.0031
685.184	0.0062
685.3669	0.0085
685.5498	0.0065
685.7326	0.0017
685.9154	-0.0048
686.0982	0.0031
686.281	-0.0026
686.4638	0.0003
686.6465	-0.0029
686.8293	-0.0058
687.012	-0.0023
687.1947	-0.0073
687.3774	-0.0046
687.56	-0.0036
687.7427	0.0002
687.9253	-0.0076
688.1079	0.0078
688.2905	0.0095
688.4731	0.0041
688.6556	0.0007
688.8382	-0.0005
689.0207	0.0095
689.2032	0.0017
689.3857	-0.0059
689.5681	0.0048
689.7506	0.0051
689.933	-0.0051
690.1154	0.0004
690.2978	0.003
690.4802	0.0101
690.6626	-0.0018
690.8449	0.0036
691.0272	0.0056
691.2095	-0.007
691.3918	-0.0004
691.5741	0.0064
691.7563	0.001
691.9386	0.0091
692.1208	-0.0002
692.303	0.0047
692.4852	0.0068
692.6673	0.0003
692.8495	0.0029
693.0316	0.0036
693.2137	0.0026
693.3958	0.0081
693.5778	-0.003
693.7599	0.0085
693.9419	-0.0033
694.1239	-0.0011
694.3059	-0.0039
694.4879	0.0036
694.6699	0.0067
694.8518	0.0014
695.0337	-0.0021
695.2157	0.0009
695.3975	-0.001
695.5794	0.0075
695.7613	0.0033
695.9431	-0.0015
696.1249	0.0158
696.3067	0.0027
696.4885	0.015
696.6703	0.0035
696.852	0.0098
697.0337	0.0092
697.2154	0.0106
697.3971	0.0022
697.5788	0.004
697.7605	-0.0015
697.9421	0.0059
698.1237	0.0007
698.3053	0.0034
698.4869	0.001
698.6685	-0.0024
698.85	-0.0024
699.0315	0.0069
699.213	0.0054
699.3945	-0.0012
699.576	0.0056
699.7575	0.007
699.9389	0.0087
700.1203	0.0013
700.3017	-0.0021
700.4831	-0.007
700.6645	0.0016
700.8458	0.0033
701.0271	-0.0014
701.2084	0.0033
701.3897	-0.0013
701.571	0.0013
701.7523	0.0007
701.9335	0.0001
702.1147	0.0015
702.2959	0.0056
702.4771	0.0076
702.6583	0.0031
702.8394	-0.0011
703.0205	0.0016
703.2016	-0.0057
703.3827	-0.0089
703.5638	0.0071
703.7449	-0.0015
703.9259	0.0111
704.1069	-0.0022
704.2879	-0.0004
704.4689	-0.0016
704.6499	-0.0005
704.8308	-0.0003
705.0117	0.0001
705.1927	0.0133
705.3735	-0.0024
705.5544	-0.0003
705.7353	0.0003
705.9161	0.0001
706.0969	0.0007
706.2777	0.0008
706.4585	0.0025
706.6393	0.0081
706.82	0.0026
707.0007	0.0043
707.1815	0.0092
707.3621	0.012
707.5428	0.0088
707.7235	0.0057
707.9041	0.0105
708.0847	-0.0041
708.2653	0.0015
708.4459	-0.0159
708.6265	0.0055
708.807	0.0013
708.9875	-0.0065
709.168	-0.0034
709.3485	-0.0009
709.529	-0.0006
709.7095	-0.0054
709.8899	0.0029
710.0703	-0.0077
710.2507	-0.0031
710.4311	0.0014
710.6115	-0.0112
710.7918	-0.0022
710.9721	-0.0082
711.1524	-0.0033
711.3327	-0.0039
711.513	0.0038
711.6932	0.0054
711.8735	0.0106
712.0537	-0.0011
712.2339	-0.0035
712.4141	-0.0093
712.5942	-0.0036
712.7744	-0.0014
712.9545	-0.0008
713.1346	-0.0051
713.3147	-0.0028
713.4947	-0.005
713.6748	0.0048
713.8548	0.0043
714.0348	-0.0014
714.2148	0.0007
714.3948	0.0116
714.5748	0.0054
714.7547	-0.0035
714.9346	0.0139
715.1145	-0.0066
715.2944	-0.0018
715.4743	0.0024
715.6541	-0.0007
715.834	0.0084
716.0138	-0.0056
716.1936	-0.0038
716.3733	0.0042
716.5531	0.0102
716.7328	-0.0025
716.9126	0.0028
717.0923	-0.0047
717.2719	0.001
717.4516	0.003
717.6312	0.0022
717.8109	-0.0067
717.9905	-0.0059
718.1701	-0.0039
718.3496	-0.0081
718.5292	0.0006
718.7087	-0.0047
718.8882	0.0001
719.0677	0.0023
719.2472	-0.0007
719.4267	-0.0059
719.6061	0.0033
719.7856	0.0094
719.965	0.0067
720.1443	-0.0057
720.3237	0.0106
720.5031	-0.0074
720.6824	0.0128
720.8617	-0.0044
721.041	0.0034
721.2203	0.0083
721.3995	0.0068
721.5788	-0.0011
721.758	0.0085
721.9372	0.0047
722.1164	0.0067
722.2956	0.0049
722.4747	0.0033
722.6538	0.005
722.8329	0.0064
723.012	0.011
723.1911	0.0013
723.3702	0.0011
723.5492	0.0027
723.7282	-0.0021
723.9072	-0.002
724.0862	-0.0093
724.2652	-0.0051
724.4441	-0.0023
724.623	-0.0058
724.8019	-0.0039
724.9808	-0.0058
725.1597	-0.0059
725.3385	0.0041
725.5174	0.0065
725.6962	0.0025
725.875	0.0008
726.0538	0.0089
726.2325	-0.0016
726.4112	0.0039
726.59	-0.0079
726.7687	-0.0021
726.9474	0.0057
727.126	-0.0063
727.3047	-0.0032
727.4833	-0.009
727.6619	-0.0077
727.8405	-0.0106
728.0191	0.0012
728.1976	0.0101
728.3762	-0.0023
728.5547	0.0054
728.7332	-0.0157
728.9116	-0.0013
729.0901	0.0158
729.2686	-0.0021
729.447	0.0007
729.6254	0.005
729.8038	-0.0081
729.9821	-0.0057
730.1605	0.0076
730.3388	0.004
730.5171	-0.0034
730.6954	-0.0028
730.8737	0.0013
731.0519	0.0056
731.2302	-0.0022
731.4084	0.0069
731.5866	0.0125
731.7648	-0.0056
731.9429	-0.0004
732.1211	-0.0089
732.2992	-0.0056
732.4773	-0.0056
732.6554	-0.0058
732.8335	-0.0056
733.0115	0.0006
733.1896	0.007
733.3676	-0.0104
733.5456	0.003
733.7235	0.0041
733.9015	0.0002
734.0794	-0.0009
734.2574	-0.0067
734.4353	0.0009
734.6131	0.006
734.791	-0.002
734.9689	0.0002
735.1467	-0.0003
735.3245	-0.0078
735.5023	-0.0055
735.68	-0.006
735.8578	0.0051
736.0355	-0.0212
736.2132	-0.0046
736.3909	-0.0036
736.5686	-0.0056
736.7463	0.0094
736.9239	-0.0092
737.1015	0.0002
737.2791	0.0094
737.4567	0.0043
737.6343	-0.003
737.8118	0.0065
737.9894	0.0086
738.1669	-0.001
738.3444	0.0087
738.5218	0.0117
738.6993	0.0087
738.8767	-0.0027
739.0541	0.0115
739.2315	-0.0055
739.4089	0.0031
739.5863	0.0066
739.7636	0.0037
739.9409	0.0012
740.1182	0.0076
740.2955	0.017
740.4728	0.0031
740.65	0.0024
740.8272	0.0049
741.0044	0.0053
741.1816	0.0068
741.3588	0.0066
741.5359	0.0019
741.7131	-0.0046
741.8902	0.0053
742.0673	0.007
742.2444	-0.0112
742.4214	-0.003
742.5985	0.0031
742.7755	0.001
742.9525	-0.0091
743.1295	0.0012
743.3064	0.0096
743.4834	0.0032
743.6603	-0.0023
743.8372	-0.0021
744.0141	0.0036
744.191	0.0051
744.3678	-0.0004
744.5446	-0.0011
744.7215	0.008
744.8982	-0.0072
745.075	-0.0043
745.2518	0.0037
745.4285	-0.0005
745.6052	-0.0041
745.7819	0.0082
745.9586	-0.0038
746.1353	0.0052
746.3119	0.0003
746.4885	-0.0025
746.6651	-0.0043
746.8417	0.0047
747.0183	0.0056
747.1948	-0.0004
747.3714	-0.005
747.5479	0.0041
747.7244	-0.0012
747.9008	0.0089
748.0773	0.002
748.2537	-0.009
748.4301	-0.0055
748.6065	-0.0031
748.7829	0.0009
748.9593	-0.0004
749.1356	-0.003
749.3119	0.0114
749.4882	-0.0123
749.6645	0.0058
749.8408	-0.0099
750.017	0.0024
750.1933	0.0068
750.3695	-0.0045
750.5457	0.0023
750.7218	0.0006
750.898	0.01
751.0741	-0.0075
751.2502	0.0067
751.4263	-0.0087
751.6024	0.0056
751.7784	-0.0032
751.9545	-0.0066
752.1305	0.0046
752.3065	-0.0064
752.4825	0.0028
752.6584	-0.0006
752.8344	-0.0059
753.0103	-0.0076
753.1862	-0.0095
753.3621	-0.0004
753.5379	-0.0085
753.7138	-0.003
753.8896	-0.0028
754.0654	-0.0021
754.2412	0.0095
754.417	-0.0016
754.5927	-0.0076
754.7685	-0.0118
754.9442	-0.0115
755.1199	-0.0007
755.2956	-0.0049
755.4712	0.0094
755.6469	-0.0004
755.8225	-0.0049
755.9981	-0.0086
756.1736	0.0021
756.3492	-0.0026
756.5248	0.0014
756.7003	-0.0023
756.8758	-0.0003
757.0513	-0.0056
757.2267	-0.0003
757.4022	0.0029
757.5776	-0.0081
757.753	0.0024
757.9284	0.006
758.1038	0.0056
758.2791	0.0041
758.4545	-0.0127
758.6298	-0.003
758.8051	0.0035
758.9803	0.011
759.1556	0.0049
759.3308	0.0037
759.506	0.0159
759.6812	0.0108
759.8564	0.014
760.0316	-0.0041
760.2067	0.0154
760.3819	0.0079
760.557	0.0081
760.732	0.0124
760.9071	-0.0052
761.0821	0.005
761.2572	0.0082
761.4322	0.0004
761.6072	0.0065
761.7821	-0.0021
761.9571	-0.0005
762.132	-0.0007
762.3069	-0.0099
762.4818	-0.0067
762.6567	0.0092
762.8316	-0.0045
763.0064	0.0009
763.1812	0.0016
763.356	-0.0128
763.5308	0.0002
763.7055	-0.0013
763.8803	-0.0054
764.055	0.0042
764.2297	-0.0045
764.4044	0.001
764.579	-0.0029
764.7537	0.0006
764.9283	0.0054
765.1029	-0.0029
765.2775	-0.0131
765.4521	-0.0111
765.6266	-0.0038
765.8011	-0.0002
765.9756	0.0025
766.1501	0.0022
766.3246	-0.002
766.4991	-0.0085
766.6735	0.0024
766.8479	-0.0068
767.0223	0.0178
767.1967	0.0041
767.371	0.005
767.5454	-0.0018
767.7197	0.0055
767.894	-0.0071
768.0683	-0.0071
768.2425	0.0005
768.4168	0.0044
768.591	-0.0001
768.7652	0.0012
768.9394	0.0033
769.1135	0.0068
769.2877	0.0135
769.4618	-0.0002
769.6359	-0.0157
769.81	-0.0133
769.984	-0.0016
770.1581	0.0021
770.3321	-0.0057
770.5061	-0.0129
770.6801	-0.0081
770.8541	0.0076
771.028	0.0082
771.202	-0.0184
771.3759	0.0001
771.5498	-0.0015
771.7236	0.0069
771.8975	0.0044
772.0713	0.0156
772.2451	0.0148
772.4189	0.0067
772.5927	0.0067
772.7665	0.0044
772.9402	-0.0002
773.1139	0.004
773.2876	0.0047
773.4613	0.0022
773.635	0.0095
773.8086	-0.0112
773.9822	0.0025
774.1558	0.0141
774.3294	-0.0119
774.503	-0.0046
774.6765	0.005
774.8501	-0.0013
775.0236	0.0051
775.1971	0.0079
775.3705	-0.0037
775.544	0.0104
775.7174	-0.0016
775.8908	0.0027
776.0642	0.0013
776.2376	0.0019
776.4109	0.0066
776.5843	0.0012
776.7576	0.0181
776.9309	0.0095
777.1041	0.0181
777.2774	0.0221
777.4506	0.0135
777.6238	-0.0089
777.797	0.0082
777.9702	0.0033
778.1434	0.003
778.3165	-0.0131
778.4896	-0.0029
778.6627	0.0149
778.8358	-0.0018
779.0089	0.0035
779.1819	0.0068
779.3549	0.0175
779.5279	0.0163
779.7009	0.0056
779.8739	0.0091
780.0468	0.0061
780.2197	0.0079
780.3926	0.0082
780.5655	0.0007
780.7384	0.0106
780.9112	0.0053
781.0841	-0.0056
781.2569	0.0167
781.4297	0.0146
781.6024	0.0085
781.7752	0.0166
781.9479	0.0171
782.1206	0.0048
782.2933	-0.002
782.466	0.0186
782.6386	0.0033
782.8113	0.0146
782.9839	0.0162
783.1565	0.0101
783.329	0.0062
783.5016	0.0105
783.6741	0.0029
783.8466	-0.0101
784.0191	0.0175
784.1916	0.0003
784.3641	0.005
784.5365	0.014
784.7089	0.0052
784.8813	-0.0024
785.0537	-0.0029
785.2261	0.0057
785.3984	-0.0034
785.5707	-0.0031
785.743	0.0197
785.9153	-0.0006
786.0876	0.0059
786.2598	-0.0042
786.432	-0.0099
786.6042	0.0087
786.7764	0.0021
786.9486	0.0046
787.1207	-0.0135
787.2928	0.018
787.4649	-0.0022
787.637	0.003
787.8091	-0.0006
787.9811	-0.01
788.1532	0.0011
788.3252	0.0072
788.4972	-0.0029
788.6691	-0.0011
788.8411	-0.0039
789.013	-0.0203
789.1849	0.0069
789.3568	-0.0099
789.5287	0.0028
789.7005	0.0063
789.8723	0.0041
790.0442	0.0283
790.2159	-0.0013
790.3877	0.0117
790.5595	-0.0066
790.7312	0.0105
790.9029	-0.0021
791.0746	-0.0138
791.2463	0.0071
791.4179	0.0058
791.5896	0.0005
791.7612	0.0101
791.9328	-0.0038
792.1044	-0.0088
792.2759	-0.0152
792.4474	-0.0138
792.619	0.0005
792.7905	0.0198
792.9619	0.0018
793.1334	0.0133
793.3048	0.0225
793.4762	0.0139
793.6476	0.0089
793.819	0.0156
793.9904	0.0023
794.1617	-0.0176
794.333	0.0153
794.5043	-0.0025
794.6756	0.0025
794.8469	-0.0121
795.0181	0.002
795.1893	-0.0069
795.3605	0.0036
795.5317	-0.0033
795.7029	-0.0189
795.874	0.0068
796.0452	-0.0082
796.2163	-0.0048
796.3873	0.002
796.5584	0.0043
796.7294	-0.0024
796.9005	-0.0058
797.0715	0.0032
797.2425	-0.0088
797.4134	-0.0023
797.5844	0.0092
797.7553	-0.018
797.9262	-0.0019
798.0971	-0.0076
798.2679	0.0031
798.4388	-0.017
798.6096	-0.0146
798.7804	0.0121
798.9512	-0.0182
799.122	0.0037
799.2927	0.0151
799.4635	0.0034
799.6342	-0.0196
799.8049	-0.0032
799.9755	0.0001
800.1462	0.0018
800.3168	0.0204
800.4874	0.0034
800.658	0.0258
800.8286	0.0105
800.9991	0.0049
801.1696	0.006
801.3402	0.0037
801.5106	-0.0038
801.6811	-0.0017
801.8516	0.0202
802.022	-0.0066
802.1924	-0.002
802.3628	-0.0078
802.5332	0.0083
802.7035	0.0249
802.8739	-0.0016
803.0442	-0.007
803.2145	0.0163
803.3847	-0.0212
803.555	0.0024
803.7252	-0.0084
803.8954	-0.0228
804.0656	-0.012
804.2358	0.0058
804.4059	0.009
804.5761	-0.0095
804.7462	-0.0109
804.9163	-0.0049
805.0864	-0.0099
805.2564	0.0039
805.4264	0.0121
805.5965	-0.0072
805.7665	0.0129
805.9364	-0.0048
806.1064	0.0406
806.2763	0.01
806.4462	0.0306
806.6161	0.0027
806.786	0.0152
806.9559	-0.0042
807.1257	0.0055
807.2955	0.0131
807.4653	-0.0069
807.6351	-0.0077
807.8048	0.0036
807.9746	0.0184
808.1443	0.0003
808.314	-0.0096
808.4837	0.0063
808.6533	0.0044
808.8229	0.0148
808.9926	0.0083
809.1622	0.0132
809.3317	0.0033
809.5013	-0.0051
809.6708	0.0193
809.8403	0.0068
810.0098	0.0016
810.1793	-0.0032
810.3488	0.0154
810.5182	-0.0048
810.6876	-0.0039
810.857	-0.0041
811.0264	0.0121
811.1958	0.0118
811.3651	0.0025
811.5344	-0.0075
811.7037	-0.0113
811.873	-0.0171
812.0422	0.0175
812.2115	0.0058
812.3807	-0.0128
812.5499	0.0288
812.7191	0.0273
812.8882	-0.0013
813.0574	-0.0007
813.2265	0.0053
813.3956	0.0072
813.5646	0.0213
813.7337	-0.0074
813.9027	0.0198
814.0718	0.0105
814.2407	0.0023
814.4097	-0.006
814.5787	0.001
814.7476	-0.0049
814.9165	0.0023
815.0854	-0.0098
815.2543	0.0154
815.4232	0.0013
815.592	0.0409
815.7608	0.0167
815.9296	0.0249
816.0984	0.0292
816.2671	0.0022
816.4359	0.0038
816.6046	0.0008
816.7733	-0.0038
816.942	-0.0055
817.1106	0.0142
817.2793	0.0023
817.4479	0.0157
817.6165	0.0113
817.785	0.0136
817.9536	-0.0093
818.1221	-0.0113
818.2906	-0.0011
818.4591	-0.0105
818.6276	-0.0135
818.7961	0.0021
818.9645	0.0105
819.1329	0.014
819.3013	0.0231
819.4697	0.0409
819.638	0.0074
819.8064	0.014
819.9747	0.0089
820.143	-0.0052
820.3113	-0.0318
820.4795	-0.0092
820.6477	-0.007
820.816	-0.0044
820.9842	-0.0123
821.1523	-0.0038
821.3205	-0.0023
821.4886	0.0067
821.6567	-0.0083
821.8248	0.0203
821.9929	0.0305
822.1609	0.0285
822.329	0.0009
822.497	0.0266
822.665	-0.015
822.833	0.006
823.0009	-0.0113
823.1688	0.0362
823.3367	0.034
823.5046	0.0193
823.6725	0.0338
823.8404	0.0006
824.0082	0.0009
824.176	0.035
824.3438	0.0193
824.5116	-0.0151
824.6793	-0.0076
824.847	-0.0149
825.0147	-0.0036
825.1824	0.0264
825.3501	0.0262
825.5177	-0.0219
825.6854	0.0142
825.853	0.0368
826.0206	0.0202
826.1881	0.0182
826.3557	-0.0233
826.5232	0.0307
826.6907	-0.0188
826.8582	0.0056
827.0257	-0.013
827.1931	0.0172
827.3605	0.0238
827.528	0.0063
827.6953	-0.0295
827.8627	0.0106
828.03	0.0289
828.1974	0.0293
828.3647	-0.0311
828.532	-0.0317
828.6992	0.0107
828.8665	0.0128
829.0337	0.0178
829.2009	0.0037
829.3681	0.0174
829.5352	0.0567
829.7024	-0.0083
829.8695	-0.0259
830.0366	0.0569
830.2037	-0.0182
830.3707	0.0148
830.5378	-0.004
830.7048	0.0135
830.8718	0.0231
831.0388	0.0072
831.2057	0.0193
831.3727	0.027
831.5396	-0.0165
831.7065	-0.0292
831.8734	0.0357
832.0402	-0.0138
832.2071	-0.007
832.3739	-0.0453
832.5407	0.0124
832.7075	-0.0096
832.8742	0.0071
833.041	-0.0404
833.2077	-0.0034
833.3744	0.0321
833.541	0.0137
833.7077	0.0028
833.8743	-0.0139
834.0409	0.0089
834.2075	-0.0226
834.3741	-0.0178
834.5407	-0.0016
834.7072	-0.0202
834.8737	0.0097
835.0402	0.0098
835.2067	0.0253
835.3731	-0.0069
835.5395	0.0067
835.706	-0.0055
835.8723	0.0068
836.0387	0.0085
836.2051	-0.0273
836.3714	-0.0011
836.5377	0.0317
836.704	0.0068
836.8703	-0.002
837.0365	0.0003
837.2027	-0.0079
837.3689	-0.0004
837.5351	-0.028
837.7013	0.0012
837.8674	-0.0585
838.0335	-0.0123
838.1997	-0.0188
838.3657	-0.036
838.5318	-0.03
838.6978	0.0363
838.8639	0.072
839.0299	-0.0248
839.1958	0.0286
839.3618	0.0116
839.5277	0.026
839.6937	0.0095
839.8596	-0.0095
840.0254	0.002
840.1913	0.0539
840.3571	0.0173
840.523	0.0125
840.6888	0.007
840.8545	-0.0063
841.0203	-0.0109
841.186	0.0196
841.3517	0.0755
841.5174	-0.0151
841.6831	-0.0099
841.8488	0.0076
842.0144	0.0041
842.18	-0.0023
842.3456	0.0032
842.5112	-0.0262
842.6767	-0.0532
842.8422	0.0315
843.0077	-0.0265
843.1732	-0.0288
843.3387	-0.0734
843.5042	0.0017
843.6696	0.0177
843.835	0.0215
844.0004	0.0664
844.1657	0.0392
844.3311	-0.0259
844.4964	-0.0549
844.6617	-0.0338
844.827	-0.0064
844.9923	-0.0336
845.1575	-0.0159
845.3227	0.0242
845.4879	-0.0062
845.6531	-0.0367
845.8183	-0.0528
845.9834	0.0055
846.1485	-0.0229
846.3136	-0.0543
846.4787	-0.0789
846.6438	0.0689
846.8088	-0.0455
846.9738	-0.0462
847.1388	-0.0201
847.3038	-0.0039
847.4687	-0.0515
847.6337	0.0097
847.7986	0.0113
847.9635	0.0202
848.1284	0.0606
848.2932	0.1011
848.458	0.0253
848.6228	0.0983
848.7876	0.0497
848.9524	-0.1045
849.1172	-0.0551
849.2819	0.0295
849.4466	-0.1026
849.6113	-0.0729
849.7759	0.0609
849.9406	0.0076
850.1052	0.0684
850.2698	0.0797
850.4344	0.0464
850.599	-0.0401
850.7635	0.0543
850.928	0.0115
851.0925	0.0369
851.257	-0.035
851.4215	0.1338
851.5859	-0.0429
851.7503	0.0651
851.9147	0.0124
852.0791	-0.0356
852.2434	0.0384
852.4078	0.1138
852.5721	0.0783
852.7364	-0.0528
852.9007	-0.1103
853.0649	-0.007
853.2291	-0.0372
853.3934	0.108
853.5575	0.1129
853.7217	-0.0818
853.8859	0.0315
854.05	-0.1085
854.2141	0.0904
854.3782	-0.1303
854.5423	-0.0618
854.7063	0.0952
854.8703	0.0095
855.0343	0.0013
855.1983	-0.0884
855.3623	0.1575
855.5262	-0.0255
855.6901	-0.0228
855.854	-0.0213
856.0179	0.0144
856.1818	0.1177
856.3456	-0.1321
856.5094	-0.135
856.6732	-0.0602
856.837	0.0519
857.0008	0.0954
857.1645	0.0328
857.3282	-0.0871
857.4919	0.1859
857.6556	-0.0184
857.8192	0.0321
857.9828	-0.01
858.1465	0.1282
858.31	-0.0082
858.4736	-0.1085
858.6372	-0.0987
858.8007	-0.1465
858.9642	-0.0204
859.1277	0.3824
859.2911	0.1003
859.4546	0.2441
859.618	-0.3537
859.7814	-0.0434
859.9448	0.0196
860.1081	0.1531
860.2715	0.102
860.4348	0.215
860.5981	0.2507
860.7614	0.1954
860.9246	-0.2036
861.0879	-0.1135
861.2511	0.1054
861.4143	-0.3972
861.5774	0.2793
861.7406	-0.2807
861.9037	-0.0217
862.0668	0.1351
862.2299	-0.1113
862.393	-0.3574
862.556	-0.0078
862.7191	-0.2734
862.8821	-0.0741
863.0451	0.3968
863.208	0.1
863.371	0.1257
863.5339	0.0284
863.6968	0.1144
863.8597	0.0799
864.0225	-0.214
864.1854	0.1949
864.3482	0.5693
864.511	0.1286
864.6737	-0.1275
864.8365	0.2768
864.9992	-0.7642
865.1619	-0.2671
865.3246	-0.0614
865.4873	-0.0029
865.65	0.3797
865.8126	0.1884
865.9752	0.547
866.1378	-0.1879
866.3004	0.5517
866.4629	0.1962
866.6254	-0
866.7879	0.0779
866.9504	-0.3536
867.1129	-0.0596
867.2753	0.5963
867.4377	0.2287
867.6001	-0.4622
867.7625	0.032
867.9249	-0
868.0872	-0.1614
868.2495	0.2701
868.4118	0.2005
868.5741	-0.8914
868.7363	-0.0884
868.8986	-0.0577
869.0608	-0.1868
869.223	0.2181
869.3851	-0
869.5473	-0
869.7094	0.1814
869.8715	-0
870.0336	-0.8321
870.1957	-0
870.3577	-0.998
870.5197	-0.1108
870.6817	-0.2276
870.8437	0.0305
871.0057	-0
871.1676	-0
871.3295	0.3173
871.4914	-0.8984
871.6533	-0.1847
871.8151	-0.4324
871.977	-0.1998
872.1388	-0
872.3006	-0
872.4623	-0
872.6241	-0
872.7858	-0
872.9475	0.6314
873.1092	0.5047
873.2709	-0.2327
873.4325	-0
873.5941	0.2186
873.7557	0.0266
873.9173	0.797
874.0789	-0.4107
874.2404	-0
874.4019	0.6348
874.5634	0.0319
874.7249	-0.1573
874.8863	0.0777
875.0478	0.0777
875.2092	-0.3669
875.3706	0.6561
875.5319	-0.3923
875.6933	0.1753
875.8546	-0.111
876.0159	-0.3582
876.1772	2.062
876.3385	-0
876.4997	0.2015
876.6609	-0.0124
876.8221	1.6368
876.9833	-0.0283
877.1445	-0
877.3056	0.0953
877.4667	-0.1589
877.6278	-0
877.7889	-0.784
877.9499	-0.7015
878.111	-0
878.272	-1.2316
878.433	-0
878.5939	0.038
878.7549	-0
878.9158	0.4702
879.0767	0.0393
879.2376	-0
879.3984	0.4364
879.5593	-0
879.7201	0.1475
879.8809	-0.4807
880.0417	-0
880.2024	0.7865
880.3632	-1.1377
880.5239	0.4291
880.6846	-0
880.8452	-2.3775
881.0059	-1.3404
881.1665	0.207
881.3271	-0.0963
881.4877	0.0182
881.6483	-0.5012
881.8088	-0.3533
881.9693	-0
882.1298	-0
882.2903	-0
