Data from MonoPyChalIsomerACN10uM340nmA_Absorbance_14-14-20-265.txt Node
Date: Fri Jul 05 14:14:20 BST 2024
User: LASERRRRR
Spectrometer: FLMT03099
Trigger mode: 0
Integration Time (sec): 1.000000E-1
Scans to average: 1
Electric dark correction enabled: true
Nonlinearity correction enabled: false
Boxcar width: 0
XAxis mode: Wavelengths
Number of Pixels in Spectrum: 3648
>>>>>Begin Spectral Data<<<<<
179.3399	-0.2728
179.5586	-0.2728
179.7771	-0.2728
179.9957	-0
180.2143	-0
180.4329	0.0282
180.6514	-0
180.8699	-0.1312
181.0885	-0.0493
181.307	-0.2382
181.5255	-0
181.744	-0
181.9625	-0
182.181	-0.8839
182.3994	1.0443
182.6179	0.666
182.8363	-0.2064
183.0547	-0.1326
183.2732	-0.0436
183.4916	0.0596
183.71	0.0224
183.9284	0.0583
184.1467	0.0806
184.3651	0.1236
184.5835	0.0026
184.8018	0.027
185.0201	0.0128
185.2385	-0.1401
185.4568	0.1545
185.6751	0.0937
185.8934	0.075
186.1117	0.0374
186.3299	0.1337
186.5482	0.0305
186.7664	-0.0878
186.9847	-0.1273
187.2029	0.3143
187.4211	0.1347
187.6393	0.3283
187.8575	-0.0083
188.0757	0.3665
188.2939	0.2031
188.512	0.1362
188.7302	-0.1534
188.9483	0.0371
189.1665	0.0788
189.3846	-0.1954
189.6027	0.1635
189.8208	0.0622
190.0389	0.2119
190.257	0.0982
190.475	0.1058
190.6931	0.2435
190.9111	0.4812
191.1292	0.1554
191.3472	0.311
191.5652	0.2323
191.7832	0.1755
192.0012	0.3075
192.2192	0.3426
192.4371	0.7068
192.6551	0.3073
192.873	0.5083
193.091	0.3316
193.3089	0.769
193.5268	0.4811
193.7447	0.5753
193.9626	0.4416
194.1805	0.4249
194.3984	0.9238
194.6162	0.4573
194.8341	0.4105
195.0519	0.5136
195.2697	0.6533
195.4875	0.8254
195.7054	0.6755
195.9231	0.5462
196.1409	0.5166
196.3587	0.5674
196.5765	0.6148
196.7942	0.4846
197.012	0.5078
197.2297	0.578
197.4474	0.8965
197.6651	0.651
197.8828	0.4729
198.1005	0.4857
198.3182	0.5459
198.5358	0.6962
198.7535	0.6074
198.9711	0.4733
199.1888	0.6613
199.4064	0.6576
199.624	0.7132
199.8416	0.5546
200.0592	0.6558
200.2767	0.6759
200.4943	0.5818
200.7119	0.6959
200.9294	0.6532
201.1469	0.6063
201.3645	0.558
201.582	0.541
201.7995	0.5727
202.017	0.558
202.2344	0.6008
202.4519	0.565
202.6694	0.569
202.8868	0.6503
203.1042	0.6309
203.3217	0.6929
203.5391	0.5599
203.7565	0.5086
203.9739	0.5725
204.1913	0.6092
204.4086	0.6692
204.626	0.6379
204.8433	0.6276
205.0607	0.5705
205.278	0.5913
205.4953	0.5179
205.7126	0.621
205.9299	0.7084
206.1472	0.679
206.3644	0.6103
206.5817	0.6295
206.7989	0.6732
207.0162	0.5997
207.2334	0.6974
207.4506	0.6797
207.6678	0.6554
207.885	0.6506
208.1022	0.6193
208.3194	0.6994
208.5365	0.6107
208.7537	0.6928
208.9708	0.5982
209.1879	0.7186
209.405	0.7075
209.6222	0.6946
209.8392	0.6062
210.0563	0.6135
210.2734	0.613
210.4905	0.6441
210.7075	0.5975
210.9245	0.5645
211.1416	0.6834
211.3586	0.6235
211.5756	0.583
211.7926	0.6276
212.0096	0.5999
212.2265	0.5184
212.4435	0.5738
212.6604	0.5894
212.8774	0.5901
213.0943	0.5411
213.3112	0.5352
213.5281	0.5479
213.745	0.5057
213.9619	0.5045
214.1788	0.4824
214.3956	0.4146
214.6125	0.4623
214.8293	0.4785
215.0461	0.47
215.2629	0.4596
215.4798	0.461
215.6965	0.4164
215.9133	0.4075
216.1301	0.4257
216.3469	0.4343
216.5636	0.4245
216.7803	0.4324
216.9971	0.3834
217.2138	0.3492
217.4305	0.3412
217.6472	0.3306
217.8639	0.4037
218.0805	0.3449
218.2972	0.3021
218.5138	0.3188
218.7305	0.3214
218.9471	0.308
219.1637	0.3169
219.3803	0.2723
219.5969	0.2786
219.8135	0.2742
220.0301	0.2765
220.2466	0.2867
220.4632	0.2386
220.6797	0.2477
220.8962	0.224
221.1127	0.2626
221.3292	0.2388
221.5457	0.2262
221.7622	0.2388
221.9787	0.2594
222.1951	0.2409
222.4116	0.2474
222.628	0.255
222.8444	0.2638
223.0608	0.2546
223.2772	0.2314
223.4936	0.2559
223.71	0.2377
223.9264	0.2535
224.1427	0.2324
224.3591	0.2405
224.5754	0.2572
224.7917	0.2628
225.008	0.2621
225.2243	0.266
225.4406	0.299
225.6569	0.2854
225.8732	0.2579
226.0894	0.2844
226.3057	0.2738
226.5219	0.27
226.7381	0.2629
226.9543	0.2725
227.1705	0.275
227.3867	0.2793
227.6029	0.3003
227.8191	0.2819
228.0352	0.3126
228.2513	0.3094
228.4675	0.3208
228.6836	0.2978
228.8997	0.2917
229.1158	0.3049
229.3319	0.3091
229.548	0.3055
229.764	0.3349
229.9801	0.3102
230.1961	0.3262
230.4121	0.3205
230.6282	0.3395
230.8442	0.3031
231.0602	0.3526
231.2761	0.3573
231.4921	0.3447
231.7081	0.3477
231.924	0.3478
232.14	0.3709
232.3559	0.3378
232.5718	0.3517
232.7877	0.3362
233.0036	0.3538
233.2195	0.3477
233.4353	0.3491
233.6512	0.3802
233.867	0.3573
234.0829	0.3571
234.2987	0.3488
234.5145	0.3892
234.7303	0.3457
234.9461	0.3905
235.1619	0.3688
235.3776	0.3962
235.5934	0.3979
235.8091	0.3707
236.0249	0.3632
236.2406	0.3838
236.4563	0.3713
236.672	0.3945
236.8877	0.409
237.1034	0.3866
237.319	0.3929
237.5347	0.397
237.7503	0.3878
237.966	0.3981
238.1816	0.4152
238.3972	0.3976
238.6128	0.3897
238.8284	0.4123
239.0439	0.4187
239.2595	0.3866
239.475	0.4298
239.6906	0.3937
239.9061	0.4046
240.1216	0.3857
240.3371	0.3988
240.5526	0.3952
240.7681	0.4199
240.9836	0.3892
241.199	0.4086
241.4145	0.3794
241.6299	0.3804
241.8453	0.3734
242.0607	0.388
242.2761	0.3533
242.4915	0.3783
242.7069	0.3619
242.9223	0.3488
243.1376	0.3458
243.353	0.3505
243.5683	0.34
243.7836	0.3331
243.9989	0.3304
244.2142	0.3096
244.4295	0.319
244.6448	0.2993
244.86	0.3024
245.0753	0.297
245.2905	0.2843
245.5057	0.2704
245.721	0.2809
245.9362	0.2778
246.1514	0.2649
246.3665	0.2435
246.5817	0.2444
246.7969	0.252
247.012	0.2383
247.2271	0.2354
247.4423	0.227
247.6574	0.2509
247.8725	0.2256
248.0876	0.2227
248.3026	0.2337
248.5177	0.2164
248.7328	0.2145
248.9478	0.2036
249.1628	0.2019
249.3779	0.2052
249.5929	0.2007
249.8079	0.2149
250.0228	0.2096
250.2378	0.2004
250.4528	0.1954
250.6677	0.1834
250.8827	0.1836
251.0976	0.1891
251.3125	0.1943
251.5274	0.1688
251.7423	0.1843
251.9572	0.1715
252.172	0.1825
252.3869	0.184
252.6017	0.1786
252.8166	0.1614
253.0314	0.1654
253.2462	0.1632
253.461	0.1683
253.6758	0.1772
253.8906	0.1777
254.1053	0.1519
254.3201	0.171
254.5348	0.1868
254.7496	0.1757
254.9643	0.1716
255.179	0.1688
255.3937	0.1668
255.6083	0.1607
255.823	0.1658
256.0377	0.1685
256.2523	0.1707
256.467	0.1502
256.6816	0.1731
256.8962	0.1757
257.1108	0.1614
257.3254	0.174
257.54	0.1525
257.7545	0.1662
257.9691	0.1671
258.1836	0.1557
258.3981	0.1829
258.6127	0.167
258.8272	0.1624
259.0417	0.1541
259.2561	0.1663
259.4706	0.1633
259.6851	0.1504
259.8995	0.1582
260.114	0.1656
260.3284	0.163
260.5428	0.1574
260.7572	0.1575
260.9716	0.1753
261.186	0.1503
261.4003	0.1536
261.6147	0.1658
261.829	0.1577
262.0433	0.1623
262.2577	0.1516
262.472	0.164
262.6863	0.1536
262.9005	0.1723
263.1148	0.1621
263.3291	0.1438
263.5433	0.1576
263.7576	0.1666
263.9718	0.1558
264.186	0.1613
264.4002	0.1629
264.6144	0.1516
264.8286	0.1683
265.0427	0.1667
265.2569	0.1486
265.471	0.1577
265.6851	0.1603
265.8993	0.1512
266.1134	0.1505
266.3275	0.1606
266.5415	0.1577
266.7556	0.1527
266.9697	0.157
267.1837	0.1654
267.3978	0.157
267.6118	0.1655
267.8258	0.1756
268.0398	0.145
268.2538	0.1651
268.4677	0.1489
268.6817	0.1511
268.8957	0.1581
269.1096	0.1546
269.3235	0.1569
269.5374	0.1343
269.7514	0.1432
269.9652	0.1483
270.1791	0.1707
270.393	0.1452
270.6068	0.1518
270.8207	0.1476
271.0345	0.1404
271.2483	0.1544
271.4622	0.1442
271.676	0.1508
271.8897	0.1409
272.1035	0.1458
272.3173	0.1382
272.531	0.1394
272.7448	0.1385
272.9585	0.136
273.1722	0.1415
273.3859	0.1403
273.5996	0.1308
273.8133	0.137
274.0269	0.1346
274.2406	0.14
274.4542	0.1482
274.6679	0.1241
274.8815	0.1454
275.0951	0.1383
275.3087	0.1581
275.5223	0.1328
275.7358	0.1454
275.9494	0.1415
276.1629	0.1335
276.3765	0.1312
276.59	0.1422
276.8035	0.138
277.017	0.1358
277.2305	0.1305
277.444	0.1418
277.6574	0.1479
277.8709	0.1519
278.0843	0.1325
278.2978	0.1509
278.5112	0.14
278.7246	0.1376
278.938	0.1433
279.1513	0.149
279.3647	0.1597
279.5781	0.1522
279.7914	0.1414
280.0047	0.1499
280.2181	0.1499
280.4314	0.1536
280.6447	0.1492
280.8579	0.1534
281.0712	0.1575
281.2845	0.1633
281.4977	0.1442
281.711	0.1474
281.9242	0.1472
282.1374	0.1588
282.3506	0.1479
282.5638	0.1463
282.7769	0.1506
282.9901	0.1545
283.2033	0.1539
283.4164	0.1681
283.6295	0.1407
283.8426	0.14
284.0557	0.151
284.2688	0.1701
284.4819	0.1615
284.695	0.1626
284.908	0.1581
285.1211	0.1476
285.3341	0.1568
285.5471	0.1606
285.7601	0.1631
285.9731	0.1531
286.1861	0.1492
286.3991	0.1614
286.612	0.1697
286.825	0.1557
287.0379	0.169
287.2508	0.1518
287.4637	0.1565
287.6766	0.1463
287.8895	0.1577
288.1024	0.1734
288.3152	0.1608
288.5281	0.155
288.7409	0.157
288.9538	0.162
289.1666	0.1575
289.3794	0.1654
289.5922	0.1548
289.8049	0.162
290.0177	0.1633
290.2304	0.1623
290.4432	0.1633
290.6559	0.1554
290.8686	0.1696
291.0813	0.1522
291.294	0.1702
291.5067	0.176
291.7194	0.1641
291.932	0.1667
292.1447	0.1593
292.3573	0.1565
292.5699	0.1743
292.7825	0.1635
292.9951	0.1531
293.2077	0.1569
293.4203	0.1595
293.6328	0.1525
293.8454	0.1745
294.0579	0.1699
294.2704	0.1522
294.4829	0.1514
294.6954	0.1648
294.9079	0.17
295.1204	0.1689
295.3328	0.1638
295.5453	0.1597
295.7577	0.1681
295.9701	0.1579
296.1825	0.1689
296.3949	0.1614
296.6073	0.1626
296.8197	0.148
297.0321	0.1625
297.2444	0.1424
297.4567	0.176
297.6691	0.1635
297.8814	0.1623
298.0937	0.155
298.306	0.1726
298.5182	0.1643
298.7305	0.1691
298.9428	0.1535
299.155	0.1695
299.3672	0.1576
299.5794	0.1679
299.7916	0.1597
300.0038	0.1679
300.216	0.1693
300.4282	0.1751
300.6403	0.1586
300.8525	0.1765
301.0646	0.1575
301.2767	0.1689
301.4888	0.1516
301.7009	0.1608
301.913	0.1619
302.125	0.1586
302.3371	0.1522
302.5491	0.1608
302.7612	0.1638
302.9732	0.171
303.1852	0.1607
303.3972	0.1642
303.6092	0.1564
303.8211	0.1618
304.0331	0.1467
304.245	0.1623
304.457	0.1521
304.6689	0.1502
304.8808	0.1644
305.0927	0.1473
305.3046	0.1491
305.5164	0.1582
305.7283	0.1342
305.9401	0.1417
306.152	0.1448
306.3638	0.1588
306.5756	0.1427
306.7874	0.1498
306.9992	0.1485
307.2109	0.1401
307.4227	0.1259
307.6344	0.1431
307.8462	0.1374
308.0579	0.131
308.2696	0.1332
308.4813	0.1222
308.693	0.1298
308.9046	0.1349
309.1163	0.1169
309.328	0.1251
309.5396	0.127
309.7512	0.1273
309.9628	0.1152
310.1744	0.1162
310.386	0.1236
310.5976	0.1174
310.8091	0.1144
311.0207	0.1174
311.2322	0.123
311.4437	0.1053
311.6552	0.11
311.8667	0.1164
312.0782	0.0957
312.2897	0.0984
312.5012	0.117
312.7126	0.0997
312.924	0.0978
313.1355	0.1142
313.3469	0.1015
313.5583	0.1147
313.7696	0.1041
313.981	0.1004
314.1924	0.1002
314.4037	0.099
314.6151	0.1113
314.8264	0.0925
315.0377	0.0954
315.249	0.0993
315.4603	0.1129
315.6716	0.1011
315.8828	0.0982
316.0941	0.0915
316.3053	0.0951
316.5165	0.0872
316.7277	0.0954
316.9389	0.1092
317.1501	0.0913
317.3613	0.0989
317.5724	0.0842
317.7836	0.0888
317.9947	0.0885
318.2058	0.0937
318.417	0.09
318.6281	0.0902
318.8391	0.093
319.0502	0.0971
319.2613	0.0959
319.4723	0.0961
319.6834	0.0988
319.8944	0.0828
320.1054	0.1016
320.3164	0.0966
320.5274	0.0943
320.7383	0.0837
320.9493	0.098
321.1602	0.1103
321.3712	0.0839
321.5821	0.0957
321.793	0.1025
322.0039	0.0905
322.2148	0.0929
322.4257	0.1042
322.6365	0.0926
322.8474	0.098
323.0582	0.0876
323.269	0.1017
323.4798	0.1056
323.6906	0.0934
323.9014	0.0998
324.1122	0.0968
324.3229	0.0895
324.5337	0.0921
324.7444	0.0951
324.9551	0.113
325.1658	0.0986
325.3765	0.1005
325.5872	0.1012
325.7979	0.0979
326.0085	0.0902
326.2192	0.0977
326.4298	0.1021
326.6404	0.0909
326.851	0.0945
327.0616	0.0879
327.2722	0.0933
327.4828	0.1059
327.6933	0.0901
327.9039	0.1084
328.1144	0.1044
328.3249	0.1042
328.5354	0.0856
328.7459	0.0847
328.9564	0.0983
329.1669	0.0979
329.3773	0.0945
329.5878	0.0983
329.7982	0.105
330.0086	0.099
330.219	0.1018
330.4294	0.1058
330.6398	0.0944
330.8502	0.101
331.0605	0.1119
331.2708	0.1017
331.4812	0.1089
331.6915	0.0976
331.9018	0.0965
332.1121	0.097
332.3224	0.1067
332.5326	0.1134
332.7429	0.1015
332.9531	0.1097
333.1633	0.1141
333.3735	0.1081
333.5837	0.0963
333.7939	0.0977
334.0041	0.1109
334.2143	0.1144
334.4244	0.1019
334.6346	0.0798
334.8447	0.1167
335.0548	0.1
335.2649	0.1057
335.475	0.1135
335.685	0.096
335.8951	0.1167
336.1051	0.1031
336.3152	0.1128
336.5252	0.095
336.7352	0.1181
336.9452	0.1123
337.1552	0.0947
337.3652	0.1057
337.5751	0.1005
337.7851	0.1084
337.995	0.0947
338.2049	0.1027
338.4148	0.1035
338.6247	0.1133
338.8346	0.0912
339.0445	0.1035
339.2543	0.1006
339.4642	0.0963
339.674	0.0992
339.8838	0.1046
340.0936	0.1164
340.3034	0.1079
340.5132	0.1069
340.7229	0.1175
340.9327	0.1133
341.1424	0.1063
341.3522	0.1203
341.5619	0.1207
341.7716	0.1199
341.9813	0.1085
342.1909	0.1112
342.4006	0.1177
342.6102	0.1328
342.8199	0.118
343.0295	0.1242
343.2391	0.1263
343.4487	0.1305
343.6583	0.1073
343.8679	0.1175
344.0774	0.1156
344.287	0.1234
344.4965	0.1147
344.706	0.1237
344.9155	0.1245
345.125	0.1248
345.3345	0.12
345.544	0.1221
345.7534	0.1134
345.9629	0.1162
346.1723	0.1281
346.3817	0.1047
346.5911	0.1208
346.8005	0.1326
347.0099	0.1288
347.2193	0.133
347.4286	0.1081
347.638	0.1287
347.8473	0.1311
348.0566	0.1288
348.2659	0.1378
348.4752	0.1367
348.6845	0.1274
348.8937	0.1338
349.103	0.1364
349.3122	0.1134
349.5214	0.1293
349.7306	0.1395
349.9398	0.1355
350.149	0.1292
350.3582	0.1299
350.5674	0.1444
350.7765	0.1425
350.9856	0.137
351.1948	0.1377
351.4039	0.1309
351.613	0.1299
351.822	0.1392
352.0311	0.1445
352.2402	0.1541
352.4492	0.1346
352.6582	0.1427
352.8672	0.1369
353.0762	0.1406
353.2852	0.138
353.4942	0.1317
353.7032	0.1486
353.9121	0.1422
354.1211	0.1582
354.33	0.1408
354.5389	0.154
354.7478	0.1496
354.9567	0.1564
355.1655	0.1474
355.3744	0.1479
355.5833	0.1507
355.7921	0.1666
356.0009	0.1362
356.2097	0.1655
356.4185	0.164
356.6273	0.1422
356.8361	0.1673
357.0448	0.1527
357.2536	0.1491
357.4623	0.1641
357.671	0.1671
357.8797	0.1607
358.0884	0.1624
358.2971	0.1528
358.5057	0.1706
358.7144	0.1685
358.923	0.1747
359.1316	0.1646
359.3402	0.1738
359.5488	0.1739
359.7574	0.1631
359.966	0.1633
360.1746	0.1726
360.3831	0.1843
360.5916	0.1531
360.8002	0.1532
361.0087	0.1901
361.2172	0.1807
361.4256	0.1621
361.6341	0.1813
361.8426	0.1748
362.051	0.1791
362.2594	0.179
362.4678	0.1729
362.6762	0.1986
362.8846	0.192
363.093	0.1944
363.3014	0.1857
363.5097	0.1593
363.718	0.1759
363.9264	0.184
364.1347	0.1888
364.343	0.1865
364.5513	0.1938
364.7595	0.1937
364.9678	0.1864
365.176	0.1969
365.3842	0.2002
365.5925	0.2023
365.8007	0.1865
366.0089	0.2094
366.217	0.1891
366.4252	0.2057
366.6333	0.2014
366.8415	0.2072
367.0496	0.1883
367.2577	0.2025
367.4658	0.2012
367.6739	0.1983
367.882	0.2185
368.09	0.2037
368.2981	0.2163
368.5061	0.211
368.7141	0.2123
368.9221	0.2196
369.1301	0.2185
369.3381	0.2006
369.5461	0.212
369.754	0.208
369.962	0.2246
370.1699	0.2101
370.3778	0.2129
370.5857	0.1965
370.7936	0.2166
371.0015	0.2095
371.2093	0.2264
371.4172	0.2279
371.625	0.2086
371.8328	0.2122
372.0406	0.2146
372.2484	0.2078
372.4562	0.2344
372.664	0.2168
372.8717	0.2475
373.0795	0.2
373.2872	0.2149
373.4949	0.2246
373.7026	0.2174
373.9103	0.2429
374.118	0.2269
374.3256	0.2278
374.5333	0.2281
374.7409	0.2196
374.9485	0.2328
375.1561	0.2378
375.3637	0.2367
375.5713	0.2334
375.7789	0.2305
375.9864	0.2238
376.194	0.2296
376.4015	0.2389
376.609	0.2416
376.8165	0.2422
377.024	0.2242
377.2315	0.2304
377.4389	0.2242
377.6464	0.2541
377.8538	0.2449
378.0612	0.2503
378.2686	0.2451
378.476	0.2535
378.6834	0.2517
378.8908	0.2515
379.0981	0.2348
379.3055	0.2558
379.5128	0.2402
379.7201	0.246
379.9274	0.2255
380.1347	0.2628
380.342	0.2708
380.5492	0.2375
380.7565	0.2504
380.9637	0.2314
381.1709	0.255
381.3781	0.2401
381.5853	0.2746
381.7925	0.2516
381.9997	0.2462
382.2068	0.2585
382.4139	0.2551
382.6211	0.2387
382.8282	0.2442
383.0353	0.266
383.2424	0.2601
383.4494	0.2632
383.6565	0.24
383.8635	0.238
384.0706	0.2599
384.2776	0.2555
384.4846	0.2436
384.6916	0.2529
384.8986	0.2511
385.1055	0.2666
385.3125	0.2691
385.5194	0.242
385.7263	0.2708
385.9333	0.2539
386.1402	0.2529
386.347	0.2521
386.5539	0.2573
386.7608	0.2509
386.9676	0.2431
387.1744	0.255
387.3813	0.2289
387.5881	0.2544
387.7948	0.2467
388.0016	0.2397
388.2084	0.2543
388.4151	0.2461
388.6219	0.2665
388.8286	0.2423
389.0353	0.2759
389.242	0.2595
389.4487	0.2563
389.6553	0.2426
389.862	0.2315
390.0686	0.2549
390.2753	0.261
390.4819	0.253
390.6885	0.2416
390.8951	0.2434
391.1016	0.2339
391.3082	0.2313
391.5147	0.2405
391.7213	0.2337
391.9278	0.2125
392.1343	0.2263
392.3408	0.2345
392.5473	0.2369
392.7537	0.2388
392.9602	0.2361
393.1666	0.2268
393.373	0.2332
393.5794	0.2359
393.7858	0.2278
393.9922	0.2251
394.1986	0.2292
394.4049	0.2179
394.6113	0.2304
394.8176	0.2251
395.0239	0.2277
395.2302	0.2347
395.4365	0.2253
395.6428	0.2185
395.8491	0.2156
396.0553	0.221
396.2615	0.2257
396.4678	0.2099
396.674	0.2138
396.8802	0.2061
397.0863	0.233
397.2925	0.2065
397.4987	0.2132
397.7048	0.2068
397.9109	0.2194
398.117	0.2106
398.3231	0.2112
398.5292	0.2228
398.7353	0.2257
398.9413	0.2212
399.1474	0.204
399.3534	0.2093
399.5594	0.2097
399.7654	0.223
399.9714	0.2226
400.1774	0.2092
400.3833	0.2031
400.5893	0.2199
400.7952	0.2092
401.0011	0.2216
401.207	0.2308
401.4129	0.1909
401.6188	0.2256
401.8247	0.2194
402.0305	0.2094
402.2364	0.1981
402.4422	0.2237
402.648	0.2047
402.8538	0.2323
403.0596	0.2049
403.2654	0.2247
403.4711	0.2132
403.6768	0.2069
403.8826	0.2185
404.0883	0.2183
404.294	0.2201
404.4997	0.217
404.7054	0.2104
404.911	0.1954
405.1167	0.2173
405.3223	0.2273
405.5279	0.2214
405.7335	0.2304
405.9391	0.2155
406.1447	0.1997
406.3502	0.2254
406.5558	0.1931
406.7613	0.2228
406.9668	0.227
407.1724	0.2065
407.3778	0.2179
407.5833	0.2226
407.7888	0.2124
407.9942	0.2307
408.1997	0.2202
408.4051	0.2146
408.6105	0.2195
408.8159	0.2035
409.0213	0.2039
409.2267	0.2228
409.432	0.1929
409.6374	0.2137
409.8427	0.1927
410.048	0.2132
410.2533	0.2067
410.4586	0.2186
410.6639	0.2037
410.8691	0.2049
411.0744	0.2117
411.2796	0.205
411.4848	0.2085
411.69	0.2064
411.8952	0.2314
412.1004	0.2217
412.3056	0.2121
412.5107	0.1938
412.7158	0.2239
412.921	0.2145
413.1261	0.2079
413.3312	0.1919
413.5362	0.2217
413.7413	0.1903
413.9464	0.2128
414.1514	0.2051
414.3564	0.2066
414.5614	0.1908
414.7664	0.1979
414.9714	0.2071
415.1764	0.2121
415.3813	0.2061
415.5863	0.225
415.7912	0.1975
415.9961	0.202
416.201	0.2055
416.4059	0.217
416.6108	0.2006
416.8156	0.2182
417.0205	0.2309
417.2253	0.1937
417.4301	0.2123
417.6349	0.2004
417.8397	0.1938
418.0445	0.1956
418.2492	0.2108
418.454	0.2129
418.6587	0.2032
418.8634	0.2123
419.0681	0.1955
419.2728	0.1996
419.4775	0.1994
419.6822	0.194
419.8868	0.1963
420.0915	0.196
420.2961	0.1799
420.5007	0.1737
420.7053	0.1948
420.9099	0.2016
421.1144	0.2067
421.319	0.1724
421.5235	0.2116
421.728	0.2042
421.9325	0.2212
422.137	0.2027
422.3415	0.1834
422.546	0.1993
422.7504	0.1875
422.9549	0.1984
423.1593	0.1855
423.3637	0.1924
423.5681	0.1933
423.7725	0.1819
423.9769	0.1722
424.1812	0.1693
424.3856	0.1773
424.5899	0.1732
424.7942	0.1862
424.9985	0.181
425.2028	0.1716
425.4071	0.1932
425.6113	0.1535
425.8156	0.1803
426.0198	0.1777
426.224	0.1661
426.4282	0.1627
426.6324	0.1622
426.8366	0.1759
427.0407	0.1722
427.2449	0.1549
427.449	0.1879
427.6531	0.1371
427.8572	0.1486
428.0613	0.1581
428.2654	0.1685
428.4694	0.1633
428.6735	0.1541
428.8775	0.1676
429.0815	0.1721
429.2855	0.1387
429.4895	0.1466
429.6935	0.1634
429.8975	0.1653
430.1014	0.1388
430.3053	0.132
430.5093	0.138
430.7132	0.141
430.9171	0.1494
431.1209	0.1475
431.3248	0.1448
431.5286	0.1375
431.7325	0.1426
431.9363	0.1428
432.1401	0.1332
432.3439	0.132
432.5477	0.1191
432.7514	0.1217
432.9552	0.1309
433.1589	0.1171
433.3627	0.1217
433.5664	0.1299
433.7701	0.1176
433.9737	0.1136
434.1774	0.1084
434.3811	0.1123
434.5847	0.1338
434.7883	0.1201
434.9919	0.1086
435.1955	0.1157
435.3991	0.113
435.6027	0.107
435.8062	0.0958
436.0098	0.1117
436.2133	0.1111
436.4168	0.1057
436.6203	0.0952
436.8238	0.1022
437.0272	0.1017
437.2307	0.1107
437.4341	0.1038
437.6375	0.0914
437.841	0.085
438.0443	0.0961
438.2477	0.0979
438.4511	0.0825
438.6545	0.09
438.8578	0.1045
439.0611	0.0961
439.2644	0.0955
439.4677	0.0791
439.671	0.0868
439.8743	0.0839
440.0775	0.0922
440.2808	0.0827
440.484	0.06
440.6872	0.0773
440.8904	0.0707
441.0936	0.0593
441.2967	0.064
441.4999	0.066
441.703	0.0485
441.9062	0.0765
442.1093	0.0649
442.3124	0.0722
442.5155	0.0471
442.7185	0.0734
442.9216	0.0224
443.1246	0.0757
443.3276	0.0463
443.5307	0.0492
443.7337	0.0591
443.9366	0.0554
444.1396	0.0536
444.3426	0.0598
444.5455	0.0633
444.7484	0.0444
444.9513	0.0503
445.1542	0.0587
445.3571	0.0533
445.56	0.0551
445.7628	0.0386
445.9657	0.0428
446.1685	0.0545
446.3713	0.0381
446.5741	0.0357
446.7769	0.0278
446.9797	0.0457
447.1824	0.0398
447.3852	0.0458
447.5879	0.0445
447.7906	0.0544
447.9933	0.0323
448.196	0.0334
448.3986	0.0249
448.6013	0.0176
448.8039	0.0171
449.0066	0.0229
449.2092	0.0406
449.4118	0.0336
449.6143	0.0329
449.8169	0.038
450.0195	0.0117
450.222	0.0051
450.4245	0.0235
450.627	0.0235
450.8295	0.0255
451.032	0.0187
451.2345	0.0268
451.4369	0.0254
451.6394	0.0212
451.8418	0.0082
452.0442	0.006
452.2466	0.0311
452.449	0.0049
452.6513	0.0347
452.8537	0.0096
453.056	-0.0028
453.2583	0.0089
453.4607	0.0097
453.663	0.0066
453.8652	0.0261
454.0675	0.0057
454.2697	0.029
454.472	0.0046
454.6742	0.0204
454.8764	0.0137
455.0786	0.0088
455.2808	0.0131
455.4829	0.0055
455.6851	0.0221
455.8872	0.0219
456.0893	0.0198
456.2915	-0.0057
456.4935	0.0243
456.6956	0.0108
456.8977	0.0219
457.0997	0.0035
457.3018	-0.0007
457.5038	0.0291
457.7058	0.0134
457.9078	0.0159
458.1098	0.0209
458.3117	0.0141
458.5137	0.0135
458.7156	0.0105
458.9175	-0.0023
459.1194	0.0166
459.3213	0.0018
459.5232	0.0016
459.725	-0.0075
459.9269	-0.0122
460.1287	-0.0078
460.3305	0.0037
460.5323	0.01
460.7341	0.0069
460.9359	0.0195
461.1376	0.0028
461.3394	-0.0032
461.5411	0.002
461.7428	-0.0027
461.9445	0.0103
462.1462	0.0004
462.3479	-0.0031
462.5495	0.018
462.7512	0.0053
462.9528	0.0065
463.1544	0.0037
463.356	0.002
463.5576	0.0039
463.7592	0.005
463.9607	-0.0129
464.1623	0.0161
464.3638	0.0159
464.5653	-0.0101
464.7668	0.0162
464.9683	0.0104
465.1697	0.0025
465.3712	-0.0091
465.5726	0.009
465.7741	-0.0047
465.9755	-0.008
466.1769	0.0045
466.3782	-0.0012
466.5796	0.0016
466.7809	0.0041
466.9823	-0.007
467.1836	0.0078
467.3849	0.0017
467.5862	0.0061
467.7875	-0.0091
467.9887	0.0031
468.19	-0.0154
468.3912	-0.0184
468.5924	0.0058
468.7936	0.0009
468.9948	-0.0052
469.196	-0.0119
469.3972	-0.0034
469.5983	0.0022
469.7994	-0.0225
470.0006	-0.0125
470.2017	-0.0227
470.4027	-0.0055
470.6038	0.0113
470.8049	-0.0047
471.0059	-0.016
471.2069	-0.0086
471.408	-0.0004
471.6089	0.0085
471.8099	-0.0078
472.0109	0.0106
472.2119	-0.0161
472.4128	-0.0188
472.6137	0.0019
472.8146	-0.0114
473.0155	-0.0039
473.2164	-0.0156
473.4173	0.0041
473.6181	-0.004
473.819	0.0104
474.0198	-0.0122
474.2206	-0.0125
474.4214	-0.0102
474.6222	-0.0075
474.8229	-0.0184
475.0237	-0.014
475.2244	-0.0125
475.4251	-0.0125
475.6258	0.012
475.8265	0.002
476.0272	0.0024
476.2278	-0.0137
476.4285	-0.0102
476.6291	-0.0112
476.8297	-0.008
477.0303	-0.0102
477.2309	-0.005
477.4315	-0.0142
477.632	-0.0132
477.8326	-0.0068
478.0331	0.0031
478.2336	0.0029
478.4341	-0.0161
478.6346	-0.0093
478.8351	-0.0041
479.0355	-0.0014
479.236	-0.0122
479.4364	0.0003
479.6368	-0.001
479.8372	-0.0024
480.0376	-0.0017
480.2379	-0.0174
480.4383	-0.0095
480.6386	-0.0006
480.8389	-0.0108
481.0392	-0.0124
481.2395	-0.0002
481.4398	0.0094
481.6401	-0.0055
481.8403	-0.0039
482.0405	-0.0147
482.2408	-0.0099
482.441	0.0046
482.6411	-0.0052
482.8413	-0.0003
483.0415	0.0036
483.2416	-0.0119
483.4417	0.0055
483.6419	-0.0066
483.8419	0.0003
484.042	0.0009
484.2421	0.006
484.4422	0.0005
484.6422	-0.0138
484.8422	0.0004
485.0422	-0.0149
485.2422	0.005
485.4422	-0.0129
485.6422	-0.0137
485.8421	-0.0055
486.042	0.0056
486.242	-0.0043
486.4419	-0.0041
486.6417	-0.0026
486.8416	-0.0086
487.0415	-0.005
487.2413	-0.009
487.4411	-0.0015
487.641	-0.0105
487.8408	-0.0069
488.0405	-0.0138
488.2403	-0.0056
488.4401	0.0078
488.6398	-0.0063
488.8395	-0.0051
489.0392	0.005
489.2389	-0.0108
489.4386	-0.0094
489.6383	-0.0007
489.8379	0.0033
490.0376	-0.0111
490.2372	-0.019
490.4368	-0.0155
490.6364	0.0022
490.836	0.0003
491.0355	-0.0098
491.2351	-0.0085
491.4346	-0.0064
491.6341	-0.0103
491.8336	0.0066
492.0331	-0.0173
492.2326	-0.016
492.432	0.0012
492.6315	-0.0058
492.8309	-0.0217
493.0303	-0.0117
493.2297	-0.0134
493.4291	-0.002
493.6284	-0.0139
493.8278	-0.0085
494.0271	-0.0063
494.2264	-0.0002
494.4257	-0.0077
494.625	-0.0016
494.8243	-0.0146
495.0236	-0.0178
495.2228	-0.015
495.422	0.0027
495.6213	-0.0084
495.8205	-0.0047
496.0196	0.0024
496.2188	0.0015
496.418	-0.0093
496.6171	-0.006
496.8162	-0.0182
497.0153	-0.004
497.2144	-0.0152
497.4135	-0.0071
497.6126	-0.0158
497.8116	-0.0117
498.0107	-0.0064
498.2097	-0.0125
498.4087	-0.0151
498.6077	0.0057
498.8067	-0.0099
499.0056	0.0025
499.2046	-0.0054
499.4035	-0.0126
499.6024	-0.0053
499.8013	-0.006
500.0002	-0.0172
500.199	-0.009
500.3979	-0.0075
500.5967	-0.0187
500.7956	0.0006
500.9944	-0.0093
501.1932	-0.0162
501.3919	-0.0163
501.5907	-0.0198
501.7895	-0.0117
501.9882	-0.0112
502.1869	-0.0256
502.3856	-0.011
502.5843	-0.0178
502.783	-0.0124
502.9816	-0.0018
503.1803	-0.0139
503.3789	-0.0082
503.5775	-0.0005
503.7761	-0.012
503.9747	0.0012
504.1732	-0.0096
504.3718	-0.0076
504.5703	-0.0038
504.7689	-0.0109
504.9674	0.0026
505.1658	-0.0109
505.3643	-0.0061
505.5628	-0.0091
505.7612	-0.0082
505.9597	0.0057
506.1581	-0.0084
506.3565	0.0099
506.5549	-0.0061
506.7532	-0.0052
506.9516	-0.009
507.1499	0.0024
507.3482	-0.0149
507.5465	-0.0036
507.7448	0.0003
507.9431	-0.003
508.1414	-0.0051
508.3396	-0.0057
508.5379	-0.0094
508.7361	-0.008
508.9343	-0.0082
509.1325	0.0033
509.3306	-0.011
509.5288	-0.0055
509.7269	-0.0077
509.9251	-0.0079
510.1232	-0.0076
510.3213	-0.0083
510.5193	-0.0095
510.7174	-0.0089
510.9154	-0.0084
511.1135	-0.0105
511.3115	-0.0094
511.5095	0.0016
511.7075	-0.0083
511.9055	-0.0063
512.1034	-0.013
512.3014	-0.0068
512.4993	0.0009
512.6972	-0.0057
512.8951	-0.019
513.093	-0.0041
513.2908	-0.0054
513.4887	-0.0049
513.6865	-0.0089
513.8844	-0.0072
514.0822	-0.0039
514.2799	-0.012
514.4777	-0.0084
514.6755	-0.0029
514.8732	-0.002
515.0709	-0.0039
515.2687	-0.001
515.4664	-0.0062
515.664	-0.0038
515.8617	0.0023
516.0594	-0.0142
516.257	0.0015
516.4546	-0.0208
516.6522	-0.0119
516.8498	-0.0056
517.0474	0.0052
517.2449	-0.0065
517.4425	-0.014
517.64	-0.0012
517.8375	-0.0059
518.035	-0.0006
518.2325	-0.0146
518.43	-0.017
518.6274	-0.0091
518.8249	-0.0158
519.0223	-0.004
519.2197	-0.0084
519.4171	-0.0114
519.6145	-0.0114
519.8118	-0.003
520.0092	-0.0075
520.2065	-0.0097
520.4038	-0.0133
520.6011	0.0038
520.7984	0.001
520.9956	-0.0106
521.1929	-0.0023
521.3901	0.0066
521.5874	0.0012
521.7846	-0.004
521.9818	-0.0028
522.1789	-0.007
522.3761	-0.0108
522.5732	-0.002
522.7704	-0.0052
522.9675	0.0007
523.1646	-0.0127
523.3617	-0.0014
523.5587	0.0076
523.7558	-0.0034
523.9528	-0.0045
524.1498	0.0004
524.3468	-0.0099
524.5438	-0.0111
524.7408	-0.0057
524.9378	0.0048
525.1347	-0.0007
525.3316	-0.0014
525.5285	-0.006
525.7254	-0.0098
525.9223	-0.004
526.1192	-0.0001
526.316	-0.0025
526.5129	0.0012
526.7097	-0.0036
526.9065	-0.0081
527.1033	-0.0039
527.3	0.0061
527.4968	-0.002
527.6935	-0.008
527.8903	-0.0144
528.087	-0.0077
528.2837	-0.0077
528.4804	0.0019
528.677	-0.0052
528.8737	-0.0023
529.0703	-0.0004
529.2669	0.0034
529.4635	-0.009
529.6601	0.0054
529.8567	-0.0015
530.0532	-0.0123
530.2498	-0.0035
530.4463	0.0058
530.6428	0.0008
530.8393	0.0082
531.0358	0.0013
531.2322	-0.0003
531.4287	-0.0038
531.6251	-0.0045
531.8215	0.0038
532.0179	0.0033
532.2143	0.017
532.4107	-0.0118
532.607	-0.0026
532.8034	-0.0021
532.9997	-0.009
533.196	-0.0038
533.3923	-0.0038
533.5886	-0.0071
533.7848	0.0028
533.9811	-0.0006
534.1773	-0.0022
534.3735	0.0041
534.5697	-0.002
534.7659	-0.0081
534.9621	-0.0003
535.1582	-0.0145
535.3544	-0.0022
535.5505	-0.0102
535.7466	-0.0019
535.9427	-0.01
536.1387	-0.0106
536.3348	-0.0114
536.5308	0.0002
536.7269	-0.0121
536.9229	0.0015
537.1189	-0.0019
537.3148	-0.0019
537.5108	-0.0118
537.7068	-0.0074
537.9027	-0.0051
538.0986	-0.0015
538.2945	-0.0176
538.4904	-0.0143
538.6863	-0.0048
538.8821	-0.0081
539.078	-0.0069
539.2738	0.0008
539.4696	-0.0022
539.6654	0.001
539.8611	0.0026
540.0569	-0.0037
540.2526	-0.0052
540.4484	0.0027
540.6441	0.0051
540.8398	0.0015
541.0355	-0.0012
541.2311	-0.0065
541.4268	-0.0162
541.6224	-0.0035
541.818	-0.0018
542.0136	-0.0087
542.2092	-0.004
542.4048	0.0045
542.6003	0.0004
542.7959	-0.0016
542.9914	-0.0078
543.1869	0.0004
543.3824	0.0016
543.5779	-0.0032
543.7734	-0.0024
543.9688	-0.01
544.1642	0.0107
544.3596	-0.0003
544.555	-0.0067
544.7504	-0.0026
544.9458	-0.0046
545.1411	-0.0079
545.3365	0.0002
545.5318	-0.0074
545.7271	-0.0003
545.9224	-0.0029
546.1177	0
546.3129	0.0007
546.5081	-0.0037
546.7034	-0.0005
546.8986	-0.0011
547.0938	-0.0041
547.289	-0.002
547.4841	-0.0081
547.6793	0.0076
547.8744	-0.0115
548.0695	-0.0062
548.2646	-0.011
548.4597	-0.0047
548.6548	-0.013
548.8498	-0.0087
549.0448	-0.0012
549.2399	-0.0104
549.4349	0.0091
549.6298	-0.0006
549.8248	-0.0046
550.0198	-0.0019
550.2147	-0.011
550.4096	-0.0054
550.6045	-0.0033
550.7994	0.0029
550.9943	0.0026
551.1892	-0.0126
551.384	0.0007
551.5788	-0.0092
551.7737	0.0051
551.9685	0.002
552.1632	0.0032
552.358	-0.0027
552.5528	-0.0047
552.7475	-0.0076
552.9422	-0.0015
553.1369	-0.009
553.3316	-0.0012
553.5263	-0.0061
553.7209	0.0015
553.9156	0.0006
554.1102	-0.01
554.3048	-0.0123
554.4994	0.0017
554.694	-0.0028
554.8885	-0.0005
555.0831	-0.0095
555.2776	-0.0045
555.4721	0.0006
555.6666	-0.0024
555.8611	0.0081
556.0555	-0.0027
556.25	0.0037
556.4444	-0.0099
556.6388	-0.0028
556.8332	-0.0008
557.0276	-0.0002
557.222	-0.003
557.4163	0.0018
557.6107	0.0019
557.805	0.0059
557.9993	-0.0022
558.1936	0.0047
558.3879	0.006
558.5821	0.0007
558.7764	-0.0077
558.9706	0.0031
559.1648	0.0036
559.359	0.0021
559.5532	-0.0096
559.7473	0.0055
559.9415	-0.0028
560.1356	-0.0082
560.3297	-0.0086
560.5238	-0.0091
560.7179	-0.0112
560.9119	-0.0043
561.106	-0.0047
561.3	-0.0045
561.494	0.0025
561.688	-0.0078
561.882	-0.0004
562.076	0.0014
562.2699	0.0026
562.4639	-0.0053
562.6578	-0.0057
562.8517	0.006
563.0456	0.0036
563.2395	0.0006
563.4333	0.0063
563.6272	0.0062
563.821	-0.0057
564.0148	-0.0077
564.2086	-0.0052
564.4024	-0.007
564.5961	-0.0084
564.7899	0.0105
564.9836	-0.0016
565.1773	-0.0044
565.371	0.0104
565.5647	0.0066
565.7584	0.0031
565.952	-0.0034
566.1456	0.0023
566.3393	0.0012
566.5329	-0.0085
566.7264	-0.0021
566.92	-0.0054
567.1136	0.0071
567.3071	-0.0019
567.5006	0.0075
567.6941	0.0038
567.8876	0.0064
568.0811	-0.0047
568.2745	0.004
568.468	0.01
568.6614	0.001
568.8548	-0.0005
569.0482	-0.0012
569.2416	0.0003
569.4349	-0.0027
569.6283	0.0005
569.8216	-0.003
570.0149	0.001
570.2082	0.0056
570.4015	0.0036
570.5947	0.0006
570.788	0.0026
570.9812	0.0048
571.1744	-0.0056
571.3676	-0.0105
571.5608	-0.002
571.754	0.0045
571.9471	-0.0007
572.1402	0.0005
572.3333	-0.0064
572.5264	-0.0037
572.7195	0.0055
572.9126	-0.0019
573.1057	0.0025
573.2987	-0.0057
573.4917	0.0068
573.6847	-0.0035
573.8777	0.009
574.0707	0.0068
574.2636	-0.0049
574.4566	0.0006
574.6495	-0.003
574.8424	-0.006
575.0353	-0.0007
575.2281	0.0083
575.421	0.0012
575.6138	0.0097
575.8067	-0.0006
575.9995	0.0081
576.1923	0.0035
576.385	0.0067
576.5778	-0.0009
576.7706	-0.0002
576.9633	-0.0035
577.156	0.0033
577.3487	0.001
577.5414	-0.0004
577.734	-0.002
577.9267	0.0058
578.1193	-0.0067
578.3119	-0.0002
578.5045	0.0002
578.6971	0.0016
578.8897	0.0059
579.0822	0.0014
579.2747	0.0039
579.4673	-0.0094
579.6598	-0.0011
579.8522	-0.0046
580.0447	0.0007
580.2372	-0.007
580.4296	0.0059
580.622	-0.002
580.8144	0.0005
581.0068	-0.0057
581.1992	-0.0151
581.3915	-0.006
581.5839	-0.0048
581.7762	-0.0106
581.9685	0.0006
582.1608	0.003
582.353	-0.002
582.5453	-0.0017
582.7375	0.0007
582.9298	0.0017
583.122	-0.0077
583.3142	-0.0006
583.5063	-0.0008
583.6985	0.002
583.8906	0.0047
584.0827	-0.0067
584.2749	0.0016
584.4669	-0.0003
584.659	-0.0028
584.8511	-0.0037
585.0431	0.0013
585.2352	0.0054
585.4272	-0.0013
585.6192	0.0028
585.8111	-0.0042
586.0031	-0.0024
586.195	-0.004
586.387	0.0048
586.5789	0
586.7708	-0.0018
586.9627	0.0027
587.1545	-0.0098
587.3464	-0.0012
587.5382	0.0134
587.73	0.0026
587.9218	0.0077
588.1136	-0.0007
588.3053	0.0009
588.4971	-0.0066
588.6888	-0.0085
588.8805	0.0004
589.0722	0.0006
589.2639	0.0003
589.4556	0.0022
589.6472	0.0031
589.8389	-0.0043
590.0305	-0.0133
590.2221	0.0007
590.4137	-0.0083
590.6052	0.005
590.7968	0.0014
590.9883	0.0089
591.1798	-0.0014
591.3713	-0.0011
591.5628	0.005
591.7543	0.0081
591.9458	0.0007
592.1372	0.0011
592.3286	0.0028
592.52	0.0064
592.7114	-0.0004
592.9028	-0.0016
593.0941	-0.0027
593.2855	-0.0002
593.4768	-0.0081
593.6681	-0.0014
593.8594	-0.0066
594.0506	0
594.2419	0.0047
594.4331	-0.002
594.6244	-0.0011
594.8156	-0.0111
595.0067	0.0017
595.1979	0.0015
595.3891	0.0002
595.5802	0.0002
595.7713	-0.0004
595.9624	-0.002
596.1535	0.0058
596.3446	0.0048
596.5357	0.002
596.7267	0.0048
596.9177	-0.0001
597.1087	-0.0056
597.2997	-0.0043
597.4907	0.0023
597.6817	-0.0071
597.8726	0.0004
598.0635	0.0001
598.2544	0.007
598.4453	-0.0018
598.6362	-0.0061
598.827	0.0008
599.0179	0.0046
599.2087	0.0003
599.3995	0.0003
599.5903	-0.0007
599.7811	0.0012
599.9718	0.0002
600.1626	-0.0019
600.3533	-0.0026
600.544	0.0031
600.7347	-0.0024
600.9254	0.0037
601.116	-0.0082
601.3067	-0.0022
601.4973	-0.0011
601.6879	0.0084
601.8785	-0.0016
602.0691	0.0001
602.2596	0.0085
602.4502	0.0096
602.6407	0.0119
602.8312	0.0057
603.0217	-0.0046
603.2122	0.002
603.4027	0.0092
603.5931	0.001
603.7835	0.0016
603.9739	0.0004
604.1643	0.0061
604.3547	0.0005
604.5451	0.0054
604.7354	0.0002
604.9257	0.0026
605.116	0.0017
605.3063	0.006
605.4966	0.0029
605.6869	0.004
605.8771	0.0066
606.0673	0.0026
606.2575	0.0093
606.4477	0.003
606.6379	0.0009
606.8281	0.0018
607.0182	0.0011
607.2083	0.0102
607.3985	-0.0021
607.5885	-0.0003
607.7786	-0.0003
607.9687	-0.0057
608.1587	0.0016
608.3488	0.0064
608.5388	0
608.7288	-0.0035
608.9187	-0.0032
609.1087	-0.0015
609.2986	-0.0068
609.4886	-0.0003
609.6785	-0.0025
609.8684	0.0022
610.0582	0.0053
610.2481	-0.0009
610.4379	0.0016
610.6278	-0.0081
610.8176	-0.0009
611.0074	-0.0057
611.1971	-0.0029
611.3869	-0.0029
611.5766	-0.0051
611.7664	0.0085
611.9561	-0.0009
612.1458	-0.0002
612.3354	-0.0117
612.5251	-0.0005
612.7147	0.009
612.9044	0.0057
613.094	-0.0056
613.2836	-0.003
613.4731	-0.0043
613.6627	-0.0077
613.8522	0.0014
614.0417	-0.0033
614.2313	-0.0013
614.4207	-0.0023
614.6102	-0.0018
614.7997	-0.007
614.9891	-0.0007
615.1785	0.0056
615.3679	0.0008
615.5573	0.0094
615.7467	-0.0025
615.9361	-0.0018
616.1254	0.0046
616.3147	0.0021
616.504	0.0028
616.6933	0.0075
616.8826	0.0012
617.0718	0.0077
617.2611	0.0048
617.4503	0.0016
617.6395	-0.0049
617.8287	0.0011
618.0179	0.0003
618.207	0.0086
618.3961	0.0032
618.5853	-0.0012
618.7744	0.0042
618.9634	0.0096
619.1525	0.0023
619.3416	0.0037
619.5306	0.0063
619.7196	0.0021
619.9086	-0.005
620.0976	0.0047
620.2866	-0.0007
620.4755	0.0089
620.6645	0.0068
620.8534	0.008
621.0423	0.0042
621.2312	0.0077
621.42	0.0051
621.6089	0.0034
621.7977	0.0078
621.9865	-0.0027
622.1753	0.0096
622.3641	-0.0003
622.5529	0.0072
622.7416	0.0017
622.9303	-0.0004
623.1191	0.0102
623.3078	-0.0103
623.4964	0.0063
623.6851	0.001
623.8737	0.0022
624.0624	0.0006
624.251	-0.0025
624.4396	-0.0057
624.6282	-0.0104
624.8167	0.0025
625.0053	-0.0002
625.1938	0.0059
625.3823	0.001
625.5708	-0.004
625.7593	-0.0094
625.9477	-0.0055
626.1362	-0.0032
626.3246	0.0054
626.513	0.0058
626.7014	0.001
626.8898	0.0033
627.0781	0.007
627.2665	0.0034
627.4548	0.005
627.6431	0.0091
627.8314	0.0024
628.0197	0.0041
628.2079	-0.0056
628.3962	-0.0027
628.5844	0.0095
628.7726	0.005
628.9608	0.0047
629.1489	-0.0014
629.3371	0.0073
629.5252	-0.0027
629.7134	0.0119
629.9015	0.0051
630.0895	-0.0023
630.2776	0.0043
630.4657	0.0005
630.6537	-0.0019
630.8417	-0.0016
631.0297	-0.0007
631.2177	-0.0033
631.4057	-0.0084
631.5936	0.0054
631.7815	-0.0022
631.9695	0.0025
632.1574	0.0105
632.3452	0.0064
632.5331	0.0059
632.7209	0.0026
632.9088	0.0111
633.0966	0.0094
633.2844	0.0005
633.4722	0.0042
633.6599	0.0161
633.8477	0.0064
634.0354	0.0065
634.2231	0.0047
634.4108	0.0034
634.5985	0.0106
634.7861	0.0076
634.9738	0.0045
635.1614	0.0074
635.349	0.0003
635.5366	-0.0005
635.7242	0.0066
635.9117	0.003
636.0993	-0.01
636.2868	0.0027
636.4743	-0.014
636.6618	0.0072
636.8492	-0.0003
637.0367	-0.0008
637.2241	0.0047
637.4115	-0.0039
637.5989	-0.0011
637.7863	-0.0039
637.9737	0.0035
638.161	-0.0006
638.3484	-0.0006
638.5357	0.0002
638.723	-0.0052
638.9103	-0.0012
639.0975	0.0127
639.2848	0.0056
639.472	0.0048
639.6592	0.0035
639.8464	0.0134
640.0336	0.0083
640.2208	0.0031
640.4079	0.0027
640.595	0.0055
640.7821	-0.001
640.9692	0.002
641.1563	0.0002
641.3434	0.0033
641.5304	-0.0027
641.7174	0.0003
641.9044	0.0059
642.0914	0.0085
642.2784	0.0048
642.4653	0.006
642.6523	0.0037
642.8392	0.0043
643.0261	0.001
643.213	0.0077
643.3999	0.0014
643.5867	-0.0041
643.7735	0.001
643.9604	0.0018
644.1472	0.0043
644.3339	0.0081
644.5207	0.0038
644.7075	0.0037
644.8942	0.0067
645.0809	0.0086
645.2676	0.0094
645.4543	0.0103
645.6409	0.0084
645.8276	0.0086
646.0142	0.0087
646.2008	-0.0075
646.3874	0.0044
646.574	0.0039
646.7605	0.0004
646.9471	-0.0109
647.1336	0.0001
647.3201	0.0133
647.5066	-0.0068
647.6931	0.0032
647.8795	-0.0007
648.0659	0.0069
648.2524	0.004
648.4388	0.0002
648.6252	0.0036
648.8115	0.0031
648.9979	-0.0039
649.1842	-0.0003
649.3705	0.0044
649.5568	0.0064
649.7431	0.007
649.9294	0.0019
650.1156	0.0038
650.3018	-0.001
650.488	-0.0012
650.6742	0.0048
650.8604	0.0034
651.0466	0.0008
651.2327	0.0023
651.4188	0.0036
651.6049	0.0033
651.791	-0.0016
651.9771	0.0068
652.1632	0.0084
652.3492	0.0076
652.5352	-0.0034
652.7212	0.0003
652.9072	0.0088
653.0932	-0.0001
653.2791	-0.0022
653.465	0.009
653.651	-0.0018
653.8369	-0.0043
654.0227	0.003
654.2086	0.0041
654.3944	0.0111
654.5803	0.0039
654.7661	0.0015
654.9519	0.0034
655.1377	0.0006
655.3234	-0.0031
655.5092	-0.0035
655.6949	-0.0078
655.8806	-0.0017
656.0663	0.0035
656.2519	-0.0039
656.4376	-0.0001
656.6232	-0.0002
656.8088	0.0036
656.9945	0.003
657.18	0.0062
657.3656	0.0067
657.5511	-0.0026
657.7367	-0.0046
657.9222	0.0039
658.1077	-0.0021
658.2932	-0.002
658.4786	-0.0117
658.6641	-0.0043
658.8495	0.0035
659.0349	-0.003
659.2203	0.0079
659.4057	0.0032
659.591	-0.0015
659.7764	-0.0024
659.9617	-0.0033
660.147	-0.0045
660.3323	0.006
660.5176	0.0099
660.7028	0.0034
660.888	0.0042
661.0733	0.0021
661.2585	0.0007
661.4436	0.0059
661.6288	-0.0013
661.8139	0
661.9991	0.0095
662.1842	-0.0004
662.3693	0.0021
662.5544	-0.0052
662.7394	-0.0022
662.9245	0.0029
663.1095	0.0024
663.2945	0.0019
663.4795	-0.0008
663.6644	0.0091
663.8494	0.0091
664.0343	0.0018
664.2193	-0.0037
664.4042	-0.0012
664.589	-0.0064
664.7739	-0.0013
664.9587	-0.0048
665.1436	0.0028
665.3284	-0.0004
665.5132	-0.0004
665.698	0.0015
665.8827	0.0075
666.0675	-0.0018
666.2522	-0.0075
666.4369	0
666.6216	0.0073
666.8063	0.0006
666.9909	0.0044
667.1756	0.0039
667.3602	0.0047
667.5448	0.0021
667.7294	0.0097
667.9139	0.0058
668.0985	0.0165
668.283	0.0022
668.4675	0.0006
668.652	0.0014
668.8365	0.0021
669.0209	0.0083
669.2054	0.0179
669.3898	0.0016
669.5742	0.0024
669.7586	0.0077
669.943	0.013
670.1273	0.0068
670.3117	0.0098
670.496	0.009
670.6803	0.0117
670.8646	0.0134
671.0488	-0.0012
671.2331	0.0085
671.4173	0.0079
671.6015	0.0022
671.7857	0.0047
671.9699	0.0107
672.1541	0.007
672.3382	0.0056
672.5223	0.0047
672.7064	0.0052
672.8905	0.0089
673.0746	0.0009
673.2587	-0.0073
673.4427	0.0018
673.6267	0.0096
673.8107	0.0062
673.9947	0.0043
674.1787	0.0055
674.3626	-0.0063
674.5465	0.0046
674.7304	0.0039
674.9143	0.0111
675.0982	0.0107
675.2821	-0.0015
675.4659	0.0109
675.6497	-0.0004
675.8335	0.0002
676.0173	-0.0007
676.2011	0.0036
676.3849	0.0013
676.5686	0.0038
676.7523	-0
676.936	-0.0048
677.1197	-0.0045
677.3034	-0.0075
677.487	0.0048
677.6706	0.0009
677.8542	-0.0036
678.0378	0.0012
678.2214	0.0005
678.405	-0.0017
678.5885	-0.0068
678.772	0.0017
678.9555	0.0008
679.139	-0.0063
679.3225	0.0038
679.5059	0.0003
679.6894	0.0107
679.8728	0.0014
680.0562	-0.0013
680.2395	-0.0022
680.4229	-0.0027
680.6062	0.0016
680.7896	0.0023
680.9729	-0.0036
681.1562	0.0032
681.3394	-0.0029
681.5227	-0.0046
681.7059	-0.0016
681.8891	0.005
682.0723	0.0097
682.2555	0.008
682.4387	-0.0014
682.6218	-0.0045
682.805	0.0051
682.9881	0.0048
683.1712	0.004
683.3542	-0.0083
683.5373	0.0006
683.7203	-0.0043
683.9034	0.0001
684.0864	-0.0023
684.2694	-0.0054
684.4523	0.0025
684.6353	-0.0012
684.8182	-0.0038
685.0011	-0.0101
685.184	0.0061
685.3669	0.0044
685.5498	0.007
685.7326	0.0057
685.9154	-0.0057
686.0982	0.0065
686.281	0.0097
686.4638	0.0008
686.6465	-0.003
686.8293	-0.0038
687.012	0.0046
687.1947	-0.0063
687.3774	0.001
687.56	-0.0019
687.7427	0.0027
687.9253	-0.0089
688.1079	0.0085
688.2905	0.0076
688.4731	0.0013
688.6556	0.0041
688.8382	0.0055
689.0207	0.0059
689.2032	-0.0021
689.3857	-0.0091
689.5681	-0.0022
689.7506	0.0005
689.933	-0.0027
690.1154	0.0061
690.2978	0.0123
690.4802	0.0028
690.6626	-0.0044
690.8449	-0.0013
691.0272	0.0083
691.2095	-0.0043
691.3918	-0.0029
691.5741	0.0019
691.7563	0.0076
691.9386	0.0005
692.1208	-0.0037
692.303	0.0022
692.4852	0.0012
692.6673	-0.0004
692.8495	0.0042
693.0316	0.0036
693.2137	0.0033
693.3958	0.0048
693.5778	-0.0029
693.7599	-0.0025
693.9419	-0.0067
694.1239	0.0003
694.3059	-0.0012
694.4879	0.0029
694.6699	0.0014
694.8518	-0.0022
695.0337	0.0012
695.2157	0.0086
695.3975	-0.0002
695.5794	0.0087
695.7613	0.005
695.9431	0.0048
696.1249	0.0104
696.3067	0.0089
696.4885	0.0076
696.6703	0.0031
696.852	0.0171
697.0337	0.0061
697.2154	0.0097
697.3971	0.0036
697.5788	0.0014
697.7605	-0.0016
697.9421	0.0022
698.1237	-0.0016
698.3053	0.0035
698.4869	-0.0035
698.6685	-0.0095
698.85	-0.0009
699.0315	0.0114
699.213	-0.0034
699.3945	0.0061
699.576	0.0079
699.7575	0.0067
699.9389	0.0128
700.1203	-0.0018
700.3017	-0.0076
700.4831	-0.0134
700.6645	0.0003
700.8458	-0.0004
701.0271	-0.0048
701.2084	0.0072
701.3897	0.0055
701.571	0.0066
701.7523	-0.0122
701.9335	-0.0014
702.1147	0.0058
702.2959	-0.006
702.4771	-0.002
702.6583	-0
702.8394	-0.005
703.0205	0.0038
703.2016	-0.0086
703.3827	-0.0028
703.5638	0.002
703.7449	0.0004
703.9259	0.0111
704.1069	-0.0007
704.2879	0.0078
704.4689	0.0026
704.6499	0.0034
704.8308	-0.0019
705.0117	-0.0043
705.1927	0.0025
705.3735	-0.0053
705.5544	-0.0053
705.7353	0.007
705.9161	-0.0064
706.0969	-0.0076
706.2777	-0.002
706.4585	-0.0007
706.6393	0.0061
706.82	0.0049
707.0007	-0.0034
707.1815	0.0025
707.3621	0.0077
707.5428	0.0014
707.7235	0.0084
707.9041	0.0046
708.0847	-0.0074
708.2653	0.0016
708.4459	-0.0135
708.6265	0.0067
708.807	0.0045
708.9875	-0.0003
709.168	-0.0013
709.3485	-0.005
709.529	-0.0083
709.7095	-0.0099
709.8899	0.0043
710.0703	-0.0077
710.2507	0.0048
710.4311	-0.0028
710.6115	-0.0057
710.7918	-0.0096
710.9721	-0.006
711.1524	-0.0066
711.3327	-0.0056
711.513	-0.0005
711.6932	0.0005
711.8735	0.0045
712.0537	0.0045
712.2339	-0.0034
712.4141	-0.0081
712.5942	0.0024
712.7744	-0.006
712.9545	-0.0013
713.1346	-0.0058
713.3147	-0.0001
713.4947	-0.0033
713.6748	-0.0028
713.8548	-0.0006
714.0348	0.005
714.2148	-0.0046
714.3948	0.0139
714.5748	-0.0028
714.7547	-0.0013
714.9346	0.0038
715.1145	0.0011
715.2944	-0.0051
715.4743	0.0068
715.6541	-0.0006
715.834	0.0028
716.0138	0.0026
716.1936	-0.0088
716.3733	0.0046
716.5531	0.0013
716.7328	0.0007
716.9126	0.0005
717.0923	0.0107
717.2719	0.0002
717.4516	0.0043
717.6312	-0.0052
717.8109	-0.0106
717.9905	-0.0001
718.1701	-0.0005
718.3496	-0.0144
718.5292	0.0023
718.7087	-0.0073
718.8882	-0.0013
719.0677	0.0005
719.2472	-0.0025
719.4267	-0.0024
719.6061	-0.0011
719.7856	0.0026
719.965	-0.0038
720.1443	-0.0118
720.3237	0.0082
720.5031	0.0054
720.6824	0.0004
720.8617	0.0005
721.041	-0.0003
721.2203	0.003
721.3995	0.0084
721.5788	-0.002
721.758	0.012
721.9372	0.0053
722.1164	0.0003
722.2956	-0.0034
722.4747	-0.0044
722.6538	-0.0043
722.8329	0.011
723.012	0.0037
723.1911	0.0043
723.3702	0.0106
723.5492	0.0055
723.7282	-0.0041
723.9072	0.003
724.0862	-0.0069
724.2652	-0.0039
724.4441	-0.0045
724.623	-0.0028
724.8019	-0.0041
724.9808	-0.0042
725.1597	-0.0177
725.3385	0.0116
725.5174	0.0031
725.6962	0.0012
725.875	0.0022
726.0538	0.0019
726.2325	0.0037
726.4112	0.0076
726.59	0.0008
726.7687	-0.0129
726.9474	0.0016
727.126	-0.0019
727.3047	-0.0054
727.4833	0.0014
727.6619	-0.0092
727.8405	-0.0072
728.0191	-0.006
728.1976	-0.0003
728.3762	-0.0037
728.5547	-0.0034
728.7332	-0.0036
728.9116	-0.0029
729.0901	0.0027
729.2686	-0.0134
729.447	-0.0006
729.6254	0.0029
729.8038	-0.0008
729.9821	-0.013
730.1605	0.0069
730.3388	0.0015
730.5171	0.0021
730.6954	-0.0078
730.8737	-0.0021
731.0519	0.0016
731.2302	-0.003
731.4084	0.0064
731.5866	0.0093
731.7648	-0.007
731.9429	0.0021
732.1211	-0.0043
732.2992	0.0019
732.4773	-0.0015
732.6554	0.0067
732.8335	0.0012
733.0115	0.0075
733.1896	0.0123
733.3676	-0.0014
733.5456	0.0025
733.7235	0.0004
733.9015	-0.0044
734.0794	0.0013
734.2574	-0.0048
734.4353	-0.0031
734.6131	0
734.791	0.0094
734.9689	0.0013
735.1467	0.0002
735.3245	-0.0137
735.5023	-0.0104
735.68	-0.0037
735.8578	0.0034
736.0355	-0.0168
736.2132	-0.005
736.3909	-0.0025
736.5686	-0.005
736.7463	0.0034
736.9239	-0.0062
737.1015	0.001
737.2791	0.0142
737.4567	-0.0017
737.6343	0.0058
737.8118	0.0104
737.9894	0.0056
738.1669	-0.0073
738.3444	-0.0007
738.5218	0.0104
738.6993	0.005
738.8767	0.0021
739.0541	0.0095
739.2315	-0.011
739.4089	-0.0028
739.5863	0.0082
739.7636	-0.0056
739.9409	0.0109
740.1182	0.0056
740.2955	0.0095
740.4728	0.0039
740.65	0.0047
740.8272	0.0091
741.0044	-0.01
741.1816	0.0056
741.3588	-0.0003
741.5359	0.0076
741.7131	-0.0112
741.8902	-0.0042
742.0673	-0.002
742.2444	-0.0069
742.4214	-0.0056
742.5985	0.0024
742.7755	-0.0092
742.9525	-0.0032
743.1295	-0.0018
743.3064	0.004
743.4834	0.0034
743.6603	0.0006
743.8372	0.0003
744.0141	0.0076
744.191	-0.0023
744.3678	0.0057
744.5446	0.0046
744.7215	0.0106
744.8982	0.002
745.075	-0.0022
745.2518	0.0005
745.4285	0.0112
745.6052	-0.0073
745.7819	-0.0035
745.9586	-0.0136
746.1353	-0.0049
746.3119	-0.0104
746.4885	-0.004
746.6651	-0.0026
746.8417	-0.0017
747.0183	0.0017
747.1948	-0.0104
747.3714	0.0014
747.5479	0.0019
747.7244	-0.0039
747.9008	0.0098
748.0773	0.0045
748.2537	-0.0011
748.4301	-0.0181
748.6065	0.0004
748.7829	-0.003
748.9593	-0.0026
749.1356	0.0023
749.3119	0.005
749.4882	-0.0086
749.6645	0.0072
749.8408	-0.0021
750.017	0.0008
750.1933	0.0052
750.3695	-0.0112
750.5457	0.0021
750.7218	-0.0016
750.898	0.0033
751.0741	-0.005
751.2502	-0.0012
751.4263	-0.0023
751.6024	-0.0036
751.7784	-0.0122
751.9545	-0.001
752.1305	-0.0004
752.3065	-0.0051
752.4825	-0
752.6584	-0.0094
752.8344	-0.0055
753.0103	-0.013
753.1862	-0.0024
753.3621	-0.0059
753.5379	-0.0081
753.7138	-0.0078
753.8896	-0.0022
754.0654	0.0014
754.2412	-0.0009
754.417	-0.0022
754.5927	-0.0058
754.7685	-0.0064
754.9442	-0.0095
755.1199	0.0014
755.2956	-0.0011
755.4712	-0.0031
755.6469	-0.0071
755.8225	-0.0085
755.9981	-0.0035
756.1736	-0.0027
756.3492	-0.0016
756.5248	0.0022
756.7003	-0.0086
756.8758	0.0096
757.0513	-0.0071
757.2267	0.0009
757.4022	0.003
757.5776	-0.0045
757.753	0.0014
757.9284	0.0067
758.1038	0.0153
758.2791	0.0038
758.4545	-0.0081
758.6298	-0.0031
758.8051	0.0059
758.9803	0.0033
759.1556	0.0002
759.3308	-0.0015
759.506	0.0026
759.6812	0.0062
759.8564	0.0149
760.0316	0.0001
760.2067	0.0114
760.3819	0.0175
760.557	0.0059
760.732	0.0094
760.9071	-0.0037
761.0821	0.0039
761.2572	0.0095
761.4322	-0.0054
761.6072	-0.0095
761.7821	-0.0019
761.9571	0.0067
762.132	0.0077
762.3069	-0.0056
762.4818	-0.0079
762.6567	-0.0064
762.8316	-0.0084
763.0064	-0.0033
763.1812	-0.0037
763.356	-0.0117
763.5308	0.0063
763.7055	-0.0023
763.8803	0.0027
764.055	0.0035
764.2297	0.0048
764.4044	-0.0046
764.579	-0.0146
764.7537	-0.0085
764.9283	0.013
765.1029	-0.003
765.2775	-0.0108
765.4521	-0.0135
765.6266	-0.0012
765.8011	-0.0038
765.9756	-0.0045
766.1501	0.005
766.3246	-0.0089
766.4991	-0.0068
766.6735	-0.0121
766.8479	-0.0121
767.0223	0.0125
767.1967	0.0029
767.371	-0.0011
767.5454	0.0035
767.7197	0.0002
767.894	-0.0117
768.0683	-0.0129
768.2425	-0.0007
768.4168	0.0042
768.591	-0.0019
768.7652	0.0051
768.9394	-0.0072
769.1135	0.0087
769.2877	0.0043
769.4618	-0.0104
769.6359	-0.0071
769.81	0.003
769.984	-0.0015
770.1581	-0.012
770.3321	-0.0029
770.5061	-0.0042
770.6801	-0.0042
770.8541	-0.0026
771.028	0.0073
771.202	0.001
771.3759	0.0012
771.5498	-0.0008
771.7236	0.0059
771.8975	-0.0029
772.0713	0.0093
772.2451	-0
772.4189	0.0137
772.5927	0.0258
772.7665	-0.0036
772.9402	-0.0047
773.1139	0.0034
773.2876	-0.0025
773.4613	0.0183
773.635	0.0144
773.8086	-0.0116
773.9822	-0.0102
774.1558	0.0031
774.3294	-0.0181
774.503	-0.0076
774.6765	-0.0052
774.8501	0.0063
775.0236	0.0009
775.1971	-0.0003
775.3705	-0.0017
775.544	0.0066
775.7174	-0.0061
775.8908	-0.006
776.0642	0.0061
776.2376	0.0057
776.4109	-0.0086
776.5843	0.0075
776.7576	0.002
776.9309	0.013
777.1041	0.017
777.2774	0.0236
777.4506	-0.0012
777.6238	-0.0149
777.797	0.009
777.9702	0.0017
778.1434	-0.0031
778.3165	-0.0059
778.4896	0.001
778.6627	0.0213
778.8358	0.0007
779.0089	-0.002
779.1819	-0.0036
779.3549	0.0195
779.5279	0.0098
779.7009	0.0056
779.8739	0.0077
780.0468	0.0086
780.2197	0.006
780.3926	-0.0042
780.5655	-0.0052
780.7384	0.0131
780.9112	0.0002
781.0841	-0.0046
781.2569	-0.0029
781.4297	0.0073
781.6024	0.004
781.7752	0.0142
781.9479	0.0137
782.1206	0.0079
782.2933	-0.0063
782.466	0.0179
782.6386	0.0102
782.8113	0.0038
782.9839	0.0062
783.1565	0.0007
783.329	0.0014
783.5016	0.0034
783.6741	0.0084
783.8466	-0.0047
784.0191	0.0236
784.1916	-0.0006
784.3641	0.0127
784.5365	0.014
784.7089	0.0055
784.8813	0.0145
785.0537	0.0143
785.2261	0.0008
785.3984	-0.0058
785.5707	-0.0013
785.743	0.0162
785.9153	-0.0032
786.0876	0.0115
786.2598	-0.0029
786.432	-0.0126
786.6042	0.0114
786.7764	-0.0123
786.9486	-0.0012
787.1207	-0.0006
787.2928	0.01
787.4649	0.0147
787.637	0.002
787.8091	-0.0086
787.9811	0.0031
788.1532	-0.006
788.3252	-0.0008
788.4972	-0.0085
788.6691	0.014
788.8411	0.0004
789.013	-0.0051
789.1849	0.0061
789.3568	-0.0014
789.5287	0.0117
789.7005	-0.0066
789.8723	0.0066
790.0442	0.0138
790.2159	0.0042
790.3877	-0.0089
790.5595	-0.0143
790.7312	-0.0011
790.9029	0.0051
791.0746	-0.0099
791.2463	0.0026
791.4179	-0.0004
791.5896	-0.0069
791.7612	0.0001
791.9328	0.0163
792.1044	-0.0108
792.2759	-0.0207
792.4474	-0.0116
792.619	0.0033
792.7905	0.0092
792.9619	0.0039
793.1334	-0.0005
793.3048	0.0075
793.4762	0.0127
793.6476	-0.0007
793.819	-0.0075
793.9904	0.0152
794.1617	-0.003
794.333	0.0088
794.5043	-0.0036
794.6756	-0.0076
794.8469	-0.0007
795.0181	0.004
795.1893	-0.0099
795.3605	-0.0002
795.5317	-0.0099
795.7029	-0.018
795.874	0.0015
796.0452	-0.0075
796.2163	-0.0091
796.3873	0.0092
796.5584	-0.0058
796.7294	-0.0003
796.9005	0.0085
797.0715	-0.0025
797.2425	-0.0136
797.4134	0.0003
797.5844	0.0135
797.7553	-0.0088
797.9262	0.0108
798.0971	-0.0085
798.2679	-0.0115
798.4388	-0.0267
798.6096	-0.0078
798.7804	0.0136
798.9512	-0.006
799.122	-0.012
799.2927	-0.0164
799.4635	0.0144
799.6342	-0.0204
799.8049	-0.0084
799.9755	-0.0129
800.1462	-0.0098
800.3168	0.002
800.4874	-0.0047
800.658	0.011
800.8286	-0.0005
800.9991	0.0111
801.1696	0.0223
801.3402	-0.0003
801.5106	0.0087
801.6811	0.0079
801.8516	0.015
802.022	0.0115
802.1924	0.0016
802.3628	0.0135
802.5332	-0.0044
802.7035	0.0057
802.8739	0.0093
803.0442	-0.0203
803.2145	0.0043
803.3847	-0.0364
803.555	0.0035
803.7252	-0.0047
803.8954	-0.0278
804.0656	-0.0229
804.2358	-0.0029
804.4059	0.0146
804.5761	-0.0065
804.7462	-0.0066
804.9163	0.0096
805.0864	-0.0086
805.2564	0.0024
805.4264	0.0113
805.5965	-0.0213
805.7665	0.006
805.9364	0.006
806.1064	0.036
806.2763	0.0072
806.4462	0.0228
806.6161	0.0187
806.786	0.003
806.9559	0.0019
807.1257	0.0134
807.2955	0.0095
807.4653	-0.0093
807.6351	-0.002
807.8048	-0.005
807.9746	-0.0055
808.1443	-0.0003
808.314	-0.0039
808.4837	-0.001
808.6533	-0.0029
808.8229	0.0317
808.9926	0.0039
809.1622	0.0057
809.3317	-0.0094
809.5013	-0.0163
809.6708	0.0021
809.8403	-0.0006
810.0098	0.0022
810.1793	-0.0026
810.3488	0.0142
810.5182	-0.0218
810.6876	0.0055
810.857	-0.0166
811.0264	0.0036
811.1958	-0.0004
811.3651	0.0186
811.5344	-0.0111
811.7037	-0.0035
811.873	-0.0166
812.0422	-0.0001
812.2115	-0.006
812.3807	-0.0097
812.5499	0.0042
812.7191	0.0002
812.8882	-0.0171
813.0574	-0.0169
813.2265	0.0012
813.3956	0.0221
813.5646	0.0002
813.7337	-0.0194
813.9027	0.0284
814.0718	0.0143
814.2407	0.0138
814.4097	0.0018
814.5787	-0.0161
814.7476	-0.0077
814.9165	0.0021
815.0854	-0.0226
815.2543	0.0098
815.4232	-0.001
815.592	0.0136
815.7608	0.0128
815.9296	0.0209
816.0984	0.0206
816.2671	-0.0144
816.4359	-0.0043
816.6046	0.0068
816.7733	0.0101
816.942	-0.0219
817.1106	-0.012
817.2793	0.0005
817.4479	0.0005
817.6165	0.0139
817.785	0.0008
817.9536	-0.0212
818.1221	-0.0221
818.2906	-0.0183
818.4591	-0.0184
818.6276	-0.0148
818.7961	-0.0083
818.9645	0.0059
819.1329	0.0127
819.3013	-0.0022
819.4697	0.0343
819.638	-0.0056
819.8064	0.0119
819.9747	0.0143
820.143	0.0082
820.3113	-0.018
820.4795	-0.006
820.6477	-0.0029
820.816	-0.0203
820.9842	-0.0129
821.1523	-0.0087
821.3205	-0.0051
821.4886	-0.0087
821.6567	-0.0062
821.8248	0.0153
821.9929	0.0298
822.1609	-0.0149
822.329	0.0192
822.497	0.0334
822.665	-0.0111
822.833	-0.0097
823.0009	-0.0046
823.1688	0.0086
823.3367	0.0158
823.5046	0.0052
823.6725	0.011
823.8404	-0.0172
824.0082	-0.0252
824.176	0.0188
824.3438	0.0144
824.5116	-0.0198
824.6793	-0.001
824.847	-0.0347
825.0147	-0.025
825.1824	0.0161
825.3501	-0.0126
825.5177	-0.0085
825.6854	-0.0133
825.853	-0.0101
826.0206	0.0007
826.1881	-0.0216
826.3557	-0.0237
826.5232	0.0099
826.6907	-0.0335
826.8582	0.0025
827.0257	0.0049
827.1931	0.0021
827.3605	0.0182
827.528	-0.0435
827.6953	-0.006
827.8627	0.0064
828.03	0.0447
828.1974	0.0127
828.3647	-0.0012
828.532	-0.0176
828.6992	0.0417
828.8665	0.0144
829.0337	-0.018
829.2009	0.0517
829.3681	0.0034
829.5352	0.0395
829.7024	-0.0024
829.8695	-0.0342
830.0366	0.0192
830.2037	-0.0172
830.3707	-0.0143
830.5378	0.003
830.7048	-0.0019
830.8718	-0.0199
831.0388	0.0003
831.2057	-0.0118
831.3727	0.0184
831.5396	-0.0019
831.7065	-0.047
831.8734	-0.0082
832.0402	-0.0351
832.2071	-0.0201
832.3739	-0.0265
832.5407	-0.0297
832.7075	-0.0287
832.8742	-0.0412
833.041	-0.0656
833.2077	-0.0217
833.3744	0.0027
833.541	-0.0127
833.7077	-0.0362
833.8743	-0.0336
834.0409	-0.0057
834.2075	-0.017
834.3741	-0.0546
834.5407	-0.0072
834.7072	0.0023
834.8737	-0.0491
835.0402	-0.0023
835.2067	0.0341
835.3731	0.0391
835.5395	0.02
835.706	0.0069
835.8723	0.0019
836.0387	0.0017
836.2051	-0.0226
836.3714	-0.0111
836.5377	0.0431
836.704	-0.0102
836.8703	-0.0243
837.0365	0.0268
837.2027	-0.0195
837.3689	0.0097
837.5351	-0.0518
837.7013	-0.0385
837.8674	-0.0483
838.0335	-0.0518
838.1997	-0.0044
838.3657	-0.0423
838.5318	-0.0491
838.6978	0.0033
838.8639	0.0117
839.0299	-0.0222
839.1958	-0.0224
839.3618	0.0198
839.5277	0.0022
839.6937	0.0005
839.8596	-0.0102
840.0254	0.0394
840.1913	-0.0069
840.3571	0.0267
840.523	-0.0321
840.6888	-0.0267
840.8545	-0.0238
841.0203	-0.0308
841.186	-0.0489
841.3517	0.035
841.5174	-0.0291
841.6831	0.0034
841.8488	-0.0084
842.0144	-0.0067
842.18	0.0177
842.3456	0.01
842.5112	-0.0382
842.6767	-0.0326
842.8422	-0.046
843.0077	-0.0453
843.1732	-0.0809
843.3387	-0.0363
843.5042	-0.0897
843.6696	0.0092
843.835	-0.0376
844.0004	-0.0231
844.1657	0.035
844.3311	-0.0676
844.4964	-0.057
844.6617	-0.0547
844.827	-0.0361
844.9923	-0.0205
845.1575	-0.0402
845.3227	-0.0085
845.4879	0.004
845.6531	-0.0628
845.8183	-0.0831
845.9834	-0.0329
846.1485	-0.0715
846.3136	-0.0216
846.4787	-0.1039
846.6438	-0.0282
846.8088	-0.0659
846.9738	-0.1068
847.1388	-0.0252
847.3038	-0.0396
847.4687	-0.1371
847.6337	0.0317
847.7986	-0.03
847.9635	-0.0136
848.1284	0.05
848.2932	0.0605
848.458	-0.0653
848.6228	0.0477
848.7876	0.0314
848.9524	-0.0525
849.1172	-0.0579
849.2819	0.0527
849.4466	-0.0779
849.6113	-0.0689
849.7759	0.059
849.9406	-0.0384
850.1052	-0.0144
850.2698	-0.0474
850.4344	-0.0437
850.599	-0.0506
850.7635	0.0817
850.928	-0.0192
851.0925	-0.0046
851.257	0.0381
851.4215	-0.0449
851.5859	-0.0878
851.7503	0.0479
851.9147	-0.0184
852.0791	-0.108
852.2434	-0.0524
852.4078	-0.0073
852.5721	0.0124
852.7364	0.0532
852.9007	-0.1539
853.0649	-0.0594
853.2291	-0.0109
853.3934	-0.0426
853.5575	-0.0135
853.7217	-0.0279
853.8859	-0.1311
854.05	-0.0671
854.2141	0.0121
854.3782	-0.0642
854.5423	-0.1653
854.7063	0.1143
854.8703	-0.0147
855.0343	-0.0626
855.1983	-0.1769
855.3623	0.1981
855.5262	-0.0404
855.6901	-0.0726
855.854	-0.0623
856.0179	0.0762
856.1818	-0.0347
856.3456	-0.1967
856.5094	-0.0522
856.6732	-0.2374
856.837	0.1239
857.0008	0.0309
857.1645	-0.0305
857.3282	-0.0389
857.4919	0.0083
857.6556	-0.0932
857.8192	-0.0206
857.9828	-0.0691
858.1465	-0.102
858.31	-0.179
858.4736	-0.1041
858.6372	-0.352
858.8007	-0.3447
858.9642	-0.0691
859.1277	-0.0916
859.2911	-0.0927
859.4546	0.0438
859.618	-0.4462
859.7814	-0.0047
859.9448	0.0534
860.1081	0.1114
860.2715	0.173
860.4348	0.4285
860.5981	-0.002
860.7614	0.0882
860.9246	-0.1979
861.0879	-0.2047
861.2511	-0.0193
861.4143	-0.2522
861.5774	0.1897
861.7406	-0.1408
861.9037	-0.0574
862.0668	0.0317
862.2299	-0.3332
862.393	-0.5193
862.556	-0.0262
862.7191	-0.1976
862.8821	-0.3833
863.0451	0.2592
863.208	0.0512
863.371	-0.2044
863.5339	-0.1223
863.6968	0.2245
863.8597	-0
864.0225	-0.1382
864.1854	0.1973
864.3482	1.3587
864.511	0.2755
864.6737	0.1166
864.8365	-0.0387
864.9992	-0.2214
865.1619	-0.5256
865.3246	-0.0335
865.4873	-0.0396
865.65	0.6313
865.8126	-0
865.9752	-0.0854
866.1378	-0.2842
866.3004	-0.0452
866.4629	0.0702
866.6254	-0.3027
866.7879	-0.1055
866.9504	-0.1733
867.1129	-0
867.2753	0.0333
867.4377	0.1442
867.6001	-0.2248
867.7625	-0.0232
867.9249	-0.7172
868.0872	-0.1294
868.2495	0.2833
868.4118	-0.3536
868.5741	-0.6102
868.7363	-0.1215
868.8986	-0.3899
869.0608	-0.1641
869.223	-0.0535
869.3851	0.301
869.5473	-0
869.7094	-0.0405
869.8715	-0
870.0336	-0
870.1957	-0.7455
870.3577	-0.9247
870.5197	-0.1722
870.6817	-0.0085
870.8437	-0.0757
871.0057	-0
871.1676	-0.7137
871.3295	-0.5302
871.4914	-0
871.6533	-0.3577
871.8151	-0.3175
871.977	-0
872.1388	-0
872.3006	-0.0193
872.4623	-0
872.6241	0.4639
872.7858	0.7605
872.9475	-0.3401
873.1092	-0.1928
873.2709	0.1495
873.4325	0.0467
873.5941	-0.244
873.7557	-0
873.9173	-0
874.0789	-0.0851
874.2404	-0
874.4019	0.749
874.5634	-0.3332
874.7249	-0.3541
874.8863	-0.1024
875.0478	0.1683
875.2092	-0
875.3706	-0
875.5319	-1.0395
875.6933	0.3408
875.8546	0.1828
876.0159	0.4901
876.1772	0.0722
876.3385	-0
876.4997	0.2773
876.6609	-0.5055
876.8221	-0.1241
876.9833	-0
877.1445	-0
877.3056	0.0749
877.4667	0.301
877.6278	-0
877.7889	1.1963
877.9499	-0
878.111	-0.0337
878.272	-1.002
878.433	-0
878.5939	-0
878.7549	-0.1866
878.9158	-0.7578
879.0767	0.6674
879.2376	-0
879.3984	-0
879.5593	-0
879.7201	0.1177
879.8809	-0.6516
880.0417	-0.0642
880.2024	0.0331
880.3632	-0
880.5239	0.2535
880.6846	-0
880.8452	-2.3531
881.0059	-1.4669
881.1665	0.3663
881.3271	-0
881.4877	-0.3835
881.6483	-0.7104
881.8088	-0.4845
881.9693	1.2774
882.1298	1.2774
882.2903	1.2774
