Data from MonoPyChalIsomerACN10uM340nmA_Absorbance_14-14-18-965.txt Node
Date: Fri Jul 05 14:14:18 BST 2024
User: LASERRRRR
Spectrometer: FLMT03099
Trigger mode: 0
Integration Time (sec): 1.000000E-1
Scans to average: 1
Electric dark correction enabled: true
Nonlinearity correction enabled: false
Boxcar width: 0
XAxis mode: Wavelengths
Number of Pixels in Spectrum: 3648
>>>>>Begin Spectral Data<<<<<
179.3399	0.2686
179.5586	0.2686
179.7771	0.2686
179.9957	-0
180.2143	0.4167
180.4329	0.1202
180.6514	-0
180.8699	-0
181.0885	-0.0293
181.307	-0.2154
181.5255	-0
181.744	-0.7878
181.9625	-0.2269
182.181	-0
182.3994	-0
182.6179	-0
182.8363	0.1158
183.0547	-0.1043
183.2732	0.1306
183.4916	0.0048
183.71	0.0163
183.9284	0.0047
184.1467	0.0522
184.3651	0.0149
184.5835	-0.1726
184.8018	0.1329
185.0201	-0.164
185.2385	-0.1704
185.4568	0.1716
185.6751	-0.1066
185.8934	0.2621
186.1117	0.0824
186.3299	0.0546
186.5482	0.0894
186.7664	-0.1708
186.9847	-0.0787
187.2029	0.0485
187.4211	0.1875
187.6393	0.2704
187.8575	0.0065
188.0757	0.1985
188.2939	0.275
188.512	0.1417
188.7302	0.0005
188.9483	0.007
189.1665	0.019
189.3846	-0.1573
189.6027	0.1183
189.8208	0.3242
190.0389	0.0211
190.257	0.2668
190.475	0.2945
190.6931	0.0518
190.9111	0.3631
191.1292	0.1817
191.3472	0.3881
191.5652	0.3104
191.7832	0.2237
192.0012	0.3368
192.2192	0.4236
192.4371	0.5233
192.6551	0.2969
192.873	0.3799
193.091	0.385
193.3089	0.4266
193.5268	0.4451
193.7447	0.5328
193.9626	0.4619
194.1805	0.6224
194.3984	0.504
194.6162	0.589
194.8341	0.4905
195.0519	0.4639
195.2697	1.1684
195.4875	0.4977
195.7054	0.6535
195.9231	0.6926
196.1409	0.6152
196.3587	0.5928
196.5765	0.6129
196.7942	0.5939
197.012	0.4411
197.2297	0.5238
197.4474	0.7329
197.6651	0.5815
197.8828	0.5271
198.1005	0.5189
198.3182	0.5473
198.5358	0.6457
198.7535	0.6219
198.9711	0.5925
199.1888	0.6726
199.4064	0.6212
199.624	0.5493
199.8416	0.5458
200.0592	0.5375
200.2767	0.6144
200.4943	0.7145
200.7119	0.6788
200.9294	0.7671
201.1469	0.5276
201.3645	0.5569
201.582	0.5063
201.7995	0.5864
202.017	0.4815
202.2344	0.6557
202.4519	0.6854
202.6694	0.6415
202.8868	0.5887
203.1042	0.5717
203.3217	0.6698
203.5391	0.5836
203.7565	0.6904
203.9739	0.6
204.1913	0.626
204.4086	0.7224
204.626	0.6748
204.8433	0.617
205.0607	0.7143
205.278	0.6367
205.4953	0.6769
205.7126	0.5979
205.9299	0.8012
206.1472	0.6661
206.3644	0.6239
206.5817	0.6024
206.7989	0.6486
207.0162	0.6309
207.2334	0.6805
207.4506	0.6974
207.6678	0.6322
207.885	0.6355
208.1022	0.6345
208.3194	0.6153
208.5365	0.6239
208.7537	0.6188
208.9708	0.5367
209.1879	0.6499
209.405	0.684
209.6222	0.6502
209.8392	0.6978
210.0563	0.6157
210.2734	0.6
210.4905	0.5981
210.7075	0.6079
210.9245	0.596
211.1416	0.6624
211.3586	0.6228
211.5756	0.5573
211.7926	0.5893
212.0096	0.5993
212.2265	0.5744
212.4435	0.6297
212.6604	0.585
212.8774	0.5603
213.0943	0.589
213.3112	0.5637
213.5281	0.4898
213.745	0.5166
213.9619	0.5273
214.1788	0.4699
214.3956	0.4463
214.6125	0.4641
214.8293	0.4314
215.0461	0.4893
215.2629	0.4686
215.4798	0.4421
215.6965	0.4074
215.9133	0.4793
216.1301	0.3901
216.3469	0.4157
216.5636	0.4464
216.7803	0.3948
216.9971	0.3988
217.2138	0.401
217.4305	0.368
217.6472	0.3607
217.8639	0.3712
218.0805	0.3477
218.2972	0.3484
218.5138	0.308
218.7305	0.3079
218.9471	0.3408
219.1637	0.2885
219.3803	0.3064
219.5969	0.2697
219.8135	0.2447
220.0301	0.2775
220.2466	0.2791
220.4632	0.2568
220.6797	0.2479
220.8962	0.242
221.1127	0.2406
221.3292	0.2423
221.5457	0.2415
221.7622	0.2171
221.9787	0.2605
222.1951	0.2285
222.4116	0.2667
222.628	0.2662
222.8444	0.2613
223.0608	0.238
223.2772	0.2704
223.4936	0.271
223.71	0.2548
223.9264	0.2465
224.1427	0.2609
224.3591	0.2563
224.5754	0.2621
224.7917	0.249
225.008	0.2754
225.2243	0.2469
225.4406	0.2949
225.6569	0.2685
225.8732	0.2932
226.0894	0.2674
226.3057	0.2787
226.5219	0.2905
226.7381	0.2735
226.9543	0.2903
227.1705	0.285
227.3867	0.2632
227.6029	0.3089
227.8191	0.2772
228.0352	0.2946
228.2513	0.3183
228.4675	0.3072
228.6836	0.3269
228.8997	0.2862
229.1158	0.3164
229.3319	0.3081
229.548	0.3179
229.764	0.335
229.9801	0.327
230.1961	0.318
230.4121	0.3288
230.6282	0.3448
230.8442	0.3053
231.0602	0.3522
231.2761	0.3589
231.4921	0.3503
231.7081	0.3459
231.924	0.3474
232.14	0.3592
232.3559	0.3265
232.5718	0.3684
232.7877	0.3493
233.0036	0.3515
233.2195	0.3704
233.4353	0.3699
233.6512	0.3704
233.867	0.3519
234.0829	0.3586
234.2987	0.3448
234.5145	0.377
234.7303	0.3582
234.9461	0.3925
235.1619	0.3957
235.3776	0.3793
235.5934	0.3761
235.8091	0.373
236.0249	0.3757
236.2406	0.3749
236.4563	0.3941
236.672	0.3999
236.8877	0.3982
237.1034	0.3995
237.319	0.3797
237.5347	0.4059
237.7503	0.3903
237.966	0.4019
238.1816	0.4063
238.3972	0.4163
238.6128	0.3832
238.8284	0.4201
239.0439	0.425
239.2595	0.4032
239.475	0.3991
239.6906	0.4296
239.9061	0.4063
240.1216	0.3973
240.3371	0.4028
240.5526	0.3958
240.7681	0.414
240.9836	0.3966
241.199	0.3962
241.4145	0.4088
241.6299	0.3863
241.8453	0.3745
242.0607	0.3857
242.2761	0.3454
242.4915	0.3648
242.7069	0.3667
242.9223	0.3494
243.1376	0.3466
243.353	0.3444
243.5683	0.3446
243.7836	0.3159
243.9989	0.3159
244.2142	0.3025
244.4295	0.3267
244.6448	0.3039
244.86	0.3123
245.0753	0.2837
245.2905	0.2917
245.5057	0.2714
245.721	0.2613
245.9362	0.2758
246.1514	0.2862
246.3665	0.2439
246.5817	0.2487
246.7969	0.2532
247.012	0.2521
247.2271	0.248
247.4423	0.2517
247.6574	0.2406
247.8725	0.2372
248.0876	0.2204
248.3026	0.2263
248.5177	0.2129
248.7328	0.2116
248.9478	0.2107
249.1628	0.2175
249.3779	0.215
249.5929	0.2041
249.8079	0.2068
250.0228	0.1992
250.2378	0.197
250.4528	0.2077
250.6677	0.1744
250.8827	0.1931
251.0976	0.1951
251.3125	0.1888
251.5274	0.1726
251.7423	0.1855
251.9572	0.1717
252.172	0.181
252.3869	0.1757
252.6017	0.1694
252.8166	0.1683
253.0314	0.1652
253.2462	0.1654
253.461	0.1878
253.6758	0.1672
253.8906	0.1817
254.1053	0.1653
254.3201	0.1631
254.5348	0.1778
254.7496	0.1738
254.9643	0.1653
255.179	0.1756
255.3937	0.1566
255.6083	0.1621
255.823	0.1798
256.0377	0.1655
256.2523	0.1739
256.467	0.1511
256.6816	0.1716
256.8962	0.1649
257.1108	0.1576
257.3254	0.169
257.54	0.1681
257.7545	0.1736
257.9691	0.1768
258.1836	0.1697
258.3981	0.1766
258.6127	0.1806
258.8272	0.165
259.0417	0.158
259.2561	0.162
259.4706	0.1628
259.6851	0.1701
259.8995	0.1619
260.114	0.1582
260.3284	0.1593
260.5428	0.1582
260.7572	0.1543
260.9716	0.1663
261.186	0.1448
261.4003	0.1587
261.6147	0.1703
261.829	0.1601
262.0433	0.162
262.2577	0.1561
262.472	0.1633
262.6863	0.1606
262.9005	0.1611
263.1148	0.1695
263.3291	0.1366
263.5433	0.1604
263.7576	0.1669
263.9718	0.1644
264.186	0.1509
264.4002	0.164
264.6144	0.146
264.8286	0.1706
265.0427	0.1605
265.2569	0.1711
265.471	0.1517
265.6851	0.158
265.8993	0.1565
266.1134	0.138
266.3275	0.1502
266.5415	0.1534
266.7556	0.1618
266.9697	0.1618
267.1837	0.1623
267.3978	0.1553
267.6118	0.1619
267.8258	0.1702
268.0398	0.1522
268.2538	0.1714
268.4677	0.1596
268.6817	0.153
268.8957	0.1608
269.1096	0.1534
269.3235	0.1597
269.5374	0.1638
269.7514	0.1457
269.9652	0.1603
270.1791	0.1463
270.393	0.1524
270.6068	0.1494
270.8207	0.1491
271.0345	0.1347
271.2483	0.1445
271.4622	0.1386
271.676	0.1531
271.8897	0.1394
272.1035	0.1397
272.3173	0.147
272.531	0.1413
272.7448	0.1494
272.9585	0.1429
273.1722	0.1325
273.3859	0.1374
273.5996	0.1257
273.8133	0.1402
274.0269	0.1303
274.2406	0.1495
274.4542	0.1368
274.6679	0.1269
274.8815	0.1344
275.0951	0.1376
275.3087	0.1448
275.5223	0.1477
275.7358	0.1361
275.9494	0.1332
276.1629	0.1376
276.3765	0.1355
276.59	0.1392
276.8035	0.1402
277.017	0.1465
277.2305	0.1409
277.444	0.1475
277.6574	0.1386
277.8709	0.1436
278.0843	0.1407
278.2978	0.1321
278.5112	0.1285
278.7246	0.1375
278.938	0.1453
279.1513	0.1385
279.3647	0.1514
279.5781	0.145
279.7914	0.1441
280.0047	0.1502
280.2181	0.1445
280.4314	0.1495
280.6447	0.1461
280.8579	0.1485
281.0712	0.1455
281.2845	0.1418
281.4977	0.1548
281.711	0.1402
281.9242	0.1407
282.1374	0.1562
282.3506	0.1388
282.5638	0.1512
282.7769	0.1473
282.9901	0.1451
283.2033	0.1499
283.4164	0.1528
283.6295	0.1529
283.8426	0.1396
284.0557	0.1545
284.2688	0.157
284.4819	0.1612
284.695	0.1508
284.908	0.1582
285.1211	0.1491
285.3341	0.1449
285.5471	0.1633
285.7601	0.156
285.9731	0.152
286.1861	0.1478
286.3991	0.1621
286.612	0.1623
286.825	0.152
287.0379	0.1629
287.2508	0.1528
287.4637	0.1559
287.6766	0.1493
287.8895	0.1679
288.1024	0.1723
288.3152	0.1694
288.5281	0.153
288.7409	0.1785
288.9538	0.1608
289.1666	0.1508
289.3794	0.1644
289.5922	0.1478
289.8049	0.1608
290.0177	0.1611
290.2304	0.158
290.4432	0.1741
290.6559	0.1636
290.8686	0.1736
291.0813	0.1599
291.294	0.1617
291.5067	0.1709
291.7194	0.1621
291.932	0.1889
292.1447	0.1604
292.3573	0.1602
292.5699	0.1681
292.7825	0.1639
292.9951	0.1641
293.2077	0.1489
293.4203	0.1675
293.6328	0.1613
293.8454	0.1749
294.0579	0.16
294.2704	0.1572
294.4829	0.1567
294.6954	0.1616
294.9079	0.1623
295.1204	0.1676
295.3328	0.1648
295.5453	0.1665
295.7577	0.1693
295.9701	0.1562
296.1825	0.1657
296.3949	0.1575
296.6073	0.159
296.8197	0.1567
297.0321	0.1852
297.2444	0.1621
297.4567	0.1683
297.6691	0.1612
297.8814	0.1582
298.0937	0.172
298.306	0.1641
298.5182	0.168
298.7305	0.1655
298.9428	0.1659
299.155	0.1605
299.3672	0.1615
299.5794	0.1509
299.7916	0.1567
300.0038	0.1794
300.216	0.1726
300.4282	0.1586
300.6403	0.163
300.8525	0.1613
301.0646	0.1634
301.2767	0.1688
301.4888	0.1602
301.7009	0.1626
301.913	0.1657
302.125	0.1664
302.3371	0.1694
302.5491	0.1625
302.7612	0.1727
302.9732	0.1695
303.1852	0.1667
303.3972	0.1749
303.6092	0.1669
303.8211	0.1498
304.0331	0.1553
304.245	0.152
304.457	0.1604
304.6689	0.1572
304.8808	0.1516
305.0927	0.1541
305.3046	0.1442
305.5164	0.1701
305.7283	0.1476
305.9401	0.1576
306.152	0.1467
306.3638	0.1529
306.5756	0.1414
306.7874	0.1486
306.9992	0.1519
307.2109	0.1431
307.4227	0.1332
307.6344	0.127
307.8462	0.1391
308.0579	0.1291
308.2696	0.1376
308.4813	0.1315
308.693	0.1338
308.9046	0.1332
309.1163	0.1295
309.328	0.1254
309.5396	0.1208
309.7512	0.1148
309.9628	0.1256
310.1744	0.1164
310.386	0.1162
310.5976	0.1225
310.8091	0.111
311.0207	0.1177
311.2322	0.1178
311.4437	0.0978
311.6552	0.116
311.8667	0.1158
312.0782	0.1088
312.2897	0.1003
312.5012	0.1112
312.7126	0.1068
312.924	0.1015
313.1355	0.1136
313.3469	0.1087
313.5583	0.1014
313.7696	0.1112
313.981	0.1148
314.1924	0.099
314.4037	0.1005
314.6151	0.1084
314.8264	0.0981
315.0377	0.1031
315.249	0.0927
315.4603	0.098
315.6716	0.1003
315.8828	0.0903
316.0941	0.0878
316.3053	0.0912
316.5165	0.0887
316.7277	0.0846
316.9389	0.1069
317.1501	0.0849
317.3613	0.0975
317.5724	0.0784
317.7836	0.0967
317.9947	0.0946
318.2058	0.1024
318.417	0.0822
318.6281	0.0905
318.8391	0.0825
319.0502	0.0951
319.2613	0.0941
319.4723	0.1024
319.6834	0.0927
319.8944	0.085
320.1054	0.0922
320.3164	0.0936
320.5274	0.087
320.7383	0.0916
320.9493	0.0913
321.1602	0.1085
321.3712	0.0879
321.5821	0.0979
321.793	0.0892
322.0039	0.1041
322.2148	0.0889
322.4257	0.1018
322.6365	0.0925
322.8474	0.1037
323.0582	0.0835
323.269	0.0954
323.4798	0.1054
323.6906	0.0969
323.9014	0.1004
324.1122	0.1036
324.3229	0.0882
324.5337	0.0996
324.7444	0.0932
324.9551	0.107
325.1658	0.0985
325.3765	0.1025
325.5872	0.0948
325.7979	0.1026
326.0085	0.0953
326.2192	0.0961
326.4298	0.1137
326.6404	0.0887
326.851	0.0842
327.0616	0.0783
327.2722	0.0981
327.4828	0.1021
327.6933	0.086
327.9039	0.1033
328.1144	0.0968
328.3249	0.1018
328.5354	0.097
328.7459	0.1012
328.9564	0.0958
329.1669	0.0928
329.3773	0.0982
329.5878	0.0992
329.7982	0.0923
330.0086	0.1027
330.219	0.0989
330.4294	0.0961
330.6398	0.0982
330.8502	0.0996
331.0605	0.1035
331.2708	0.0997
331.4812	0.0997
331.6915	0.0902
331.9018	0.1022
332.1121	0.0952
332.3224	0.0979
332.5326	0.1035
332.7429	0.1032
332.9531	0.1132
333.1633	0.1154
333.3735	0.0959
333.5837	0.1035
333.7939	0.0903
334.0041	0.1112
334.2143	0.1102
334.4244	0.1022
334.6346	0.0966
334.8447	0.1152
335.0548	0.1021
335.2649	0.104
335.475	0.1129
335.685	0.0996
335.8951	0.1148
336.1051	0.1044
336.3152	0.1089
336.5252	0.0961
336.7352	0.1093
336.9452	0.1154
337.1552	0.1211
337.3652	0.0927
337.5751	0.1049
337.7851	0.1084
337.995	0.1013
338.2049	0.1046
338.4148	0.1087
338.6247	0.108
338.8346	0.1033
339.0445	0.0959
339.2543	0.0934
339.4642	0.0989
339.674	0.0937
339.8838	0.1107
340.0936	0.0942
340.3034	0.1248
340.5132	0.1197
340.7229	0.1102
340.9327	0.1046
341.1424	0.0985
341.3522	0.1265
341.5619	0.1152
341.7716	0.1151
341.9813	0.1127
342.1909	0.1042
342.4006	0.1112
342.6102	0.1222
342.8199	0.1148
343.0295	0.1044
343.2391	0.1303
343.4487	0.1262
343.6583	0.1165
343.8679	0.1224
344.0774	0.1143
344.287	0.1177
344.4965	0.1153
344.706	0.1238
344.9155	0.1105
345.125	0.1231
345.3345	0.1249
345.544	0.1285
345.7534	0.1257
345.9629	0.1146
346.1723	0.1256
346.3817	0.1232
346.5911	0.1241
346.8005	0.1316
347.0099	0.1227
347.2193	0.1294
347.4286	0.1195
347.638	0.1351
347.8473	0.132
348.0566	0.1171
348.2659	0.1337
348.4752	0.1253
348.6845	0.1185
348.8937	0.1204
349.103	0.1337
349.3122	0.1273
349.5214	0.1301
349.7306	0.1313
349.9398	0.1363
350.149	0.1319
350.3582	0.1275
350.5674	0.1551
350.7765	0.1367
350.9856	0.1382
351.1948	0.1257
351.4039	0.136
351.613	0.1225
351.822	0.139
352.0311	0.1524
352.2402	0.1493
352.4492	0.1389
352.6582	0.1335
352.8672	0.1371
353.0762	0.1563
353.2852	0.1445
353.4942	0.1295
353.7032	0.153
353.9121	0.1398
354.1211	0.1595
354.33	0.1506
354.5389	0.1625
354.7478	0.1423
354.9567	0.1516
355.1655	0.1234
355.3744	0.1495
355.5833	0.1595
355.7921	0.1583
356.0009	0.1621
356.2097	0.1666
356.4185	0.152
356.6273	0.1572
356.8361	0.159
357.0448	0.1598
357.2536	0.1617
357.4623	0.1536
357.671	0.1528
357.8797	0.1648
358.0884	0.1681
358.2971	0.1651
358.5057	0.169
358.7144	0.1625
358.923	0.166
359.1316	0.1696
359.3402	0.1658
359.5488	0.1696
359.7574	0.1549
359.966	0.1709
360.1746	0.1758
360.3831	0.17
360.5916	0.1633
360.8002	0.1639
361.0087	0.1704
361.2172	0.1799
361.4256	0.1921
361.6341	0.1871
361.8426	0.1868
362.051	0.1764
362.2594	0.1847
362.4678	0.1883
362.6762	0.199
362.8846	0.1857
363.093	0.18
363.3014	0.1768
363.5097	0.1768
363.718	0.1894
363.9264	0.1852
364.1347	0.1782
364.343	0.196
364.5513	0.2036
364.7595	0.2072
364.9678	0.1927
365.176	0.1907
365.3842	0.1949
365.5925	0.1962
365.8007	0.1952
366.0089	0.2102
366.217	0.1963
366.4252	0.2085
366.6333	0.2146
366.8415	0.1891
367.0496	0.2069
367.2577	0.2111
367.4658	0.2136
367.6739	0.2128
367.882	0.2113
368.09	0.1915
368.2981	0.2003
368.5061	0.2222
368.7141	0.2185
368.9221	0.2211
369.1301	0.2014
369.3381	0.2139
369.5461	0.2183
369.754	0.2175
369.962	0.22
370.1699	0.2173
370.3778	0.228
370.5857	0.2078
370.7936	0.22
371.0015	0.2001
371.2093	0.2104
371.4172	0.2217
371.625	0.2115
371.8328	0.2033
372.0406	0.2188
372.2484	0.2268
372.4562	0.228
372.664	0.2179
372.8717	0.2445
373.0795	0.201
373.2872	0.2292
373.4949	0.2173
373.7026	0.2309
373.9103	0.2485
374.118	0.2362
374.3256	0.2162
374.5333	0.2219
374.7409	0.239
374.9485	0.238
375.1561	0.2311
375.3637	0.2282
375.5713	0.243
375.7789	0.231
375.9864	0.226
376.194	0.2389
376.4015	0.2474
376.609	0.2622
376.8165	0.234
377.024	0.2241
377.2315	0.2165
377.4389	0.2465
377.6464	0.2468
377.8538	0.2473
378.0612	0.254
378.2686	0.2528
378.476	0.2627
378.6834	0.2569
378.8908	0.2477
379.0981	0.2407
379.3055	0.2452
379.5128	0.2429
379.7201	0.2592
379.9274	0.2473
380.1347	0.2586
380.342	0.2707
380.5492	0.2495
380.7565	0.2427
380.9637	0.2642
381.1709	0.2469
381.3781	0.2544
381.5853	0.2567
381.7925	0.2672
381.9997	0.2569
382.2068	0.2658
382.4139	0.2559
382.6211	0.2537
382.8282	0.2412
383.0353	0.2498
383.2424	0.2583
383.4494	0.2588
383.6565	0.2538
383.8635	0.2725
384.0706	0.2656
384.2776	0.2783
384.4846	0.2379
384.6916	0.2857
384.8986	0.2442
385.1055	0.2674
385.3125	0.2638
385.5194	0.2376
385.7263	0.2813
385.9333	0.2825
386.1402	0.2426
386.347	0.2534
386.5539	0.2547
386.7608	0.2713
386.9676	0.2518
387.1744	0.2697
387.3813	0.2444
387.5881	0.264
387.7948	0.252
388.0016	0.2494
388.2084	0.2495
388.4151	0.2488
388.6219	0.2557
388.8286	0.2531
389.0353	0.2738
389.242	0.2776
389.4487	0.2357
389.6553	0.2469
389.862	0.2482
390.0686	0.2431
390.2753	0.2585
390.4819	0.241
390.6885	0.2523
390.8951	0.2507
391.1016	0.2308
391.3082	0.2401
391.5147	0.2408
391.7213	0.2388
391.9278	0.2436
392.1343	0.2367
392.3408	0.2488
392.5473	0.2456
392.7537	0.2357
392.9602	0.2383
393.1666	0.2309
393.373	0.2444
393.5794	0.2526
393.7858	0.2385
393.9922	0.2278
394.1986	0.2567
394.4049	0.2272
394.6113	0.2106
394.8176	0.2359
395.0239	0.2225
395.2302	0.2368
395.4365	0.2287
395.6428	0.2312
395.8491	0.2308
396.0553	0.2252
396.2615	0.2211
396.4678	0.237
396.674	0.2067
396.8802	0.2101
397.0863	0.2236
397.2925	0.2169
397.4987	0.2163
397.7048	0.2287
397.9109	0.213
398.117	0.2222
398.3231	0.222
398.5292	0.2276
398.7353	0.2464
398.9413	0.2267
399.1474	0.2254
399.3534	0.2145
399.5594	0.1961
399.7654	0.226
399.9714	0.2036
400.1774	0.221
400.3833	0.2186
400.5893	0.2113
400.7952	0.2154
401.0011	0.217
401.207	0.2357
401.4129	0.2236
401.6188	0.2108
401.8247	0.2102
402.0305	0.2014
402.2364	0.2208
402.4422	0.2236
402.648	0.2091
402.8538	0.2306
403.0596	0.2055
403.2654	0.2151
403.4711	0.2067
403.6768	0.2119
403.8826	0.2209
404.0883	0.2081
404.294	0.2245
404.4997	0.2242
404.7054	0.2186
404.911	0.2017
405.1167	0.2223
405.3223	0.2165
405.5279	0.2328
405.7335	0.24
405.9391	0.2218
406.1447	0.2072
406.3502	0.2255
406.5558	0.2289
406.7613	0.219
406.9668	0.1986
407.1724	0.2061
407.3778	0.2099
407.5833	0.2061
407.7888	0.1987
407.9942	0.2357
408.1997	0.223
408.4051	0.2309
408.6105	0.2214
408.8159	0.205
409.0213	0.2222
409.2267	0.2331
409.432	0.2035
409.6374	0.2346
409.8427	0.2042
410.048	0.2218
410.2533	0.2083
410.4586	0.2264
410.6639	0.1998
410.8691	0.2129
411.0744	0.2244
411.2796	0.2309
411.4848	0.2299
411.69	0.2136
411.8952	0.2245
412.1004	0.2213
412.3056	0.2253
412.5107	0.2083
412.7158	0.2385
412.921	0.2195
413.1261	0.2213
413.3312	0.2124
413.5362	0.21
413.7413	0.2128
413.9464	0.2045
414.1514	0.2207
414.3564	0.193
414.5614	0.1972
414.7664	0.2025
414.9714	0.2125
415.1764	0.2068
415.3813	0.2067
415.5863	0.2254
415.7912	0.2089
415.9961	0.2177
416.201	0.2029
416.4059	0.22
416.6108	0.2126
416.8156	0.2251
417.0205	0.2081
417.2253	0.2192
417.4301	0.2301
417.6349	0.1818
417.8397	0.1926
418.0445	0.2251
418.2492	0.2132
418.454	0.1929
418.6587	0.2033
418.8634	0.2145
419.0681	0.1936
419.2728	0.19
419.4775	0.212
419.6822	0.1951
419.8868	0.174
420.0915	0.2075
420.2961	0.1906
420.5007	0.191
420.7053	0.2072
420.9099	0.2043
421.1144	0.1932
421.319	0.1965
421.5235	0.1901
421.728	0.1951
421.9325	0.187
422.137	0.2132
422.3415	0.1985
422.546	0.1963
422.7504	0.1903
422.9549	0.2024
423.1593	0.1901
423.3637	0.1932
423.5681	0.1873
423.7725	0.1816
423.9769	0.1864
424.1812	0.1798
424.3856	0.1687
424.5899	0.1813
424.7942	0.1771
424.9985	0.1836
425.2028	0.1794
425.4071	0.1997
425.6113	0.1606
425.8156	0.1963
426.0198	0.1873
426.224	0.1631
426.4282	0.1694
426.6324	0.1789
426.8366	0.1765
427.0407	0.168
427.2449	0.1653
427.449	0.1935
427.6531	0.1703
427.8572	0.1534
428.0613	0.1653
428.2654	0.1592
428.4694	0.1647
428.6735	0.1495
428.8775	0.1702
429.0815	0.1774
429.2855	0.1575
429.4895	0.16
429.6935	0.1737
429.8975	0.1595
430.1014	0.1474
430.3053	0.1456
430.5093	0.149
430.7132	0.1355
430.9171	0.1576
431.1209	0.1417
431.3248	0.1309
431.5286	0.1608
431.7325	0.1361
431.9363	0.1259
432.1401	0.1554
432.3439	0.1162
432.5477	0.1167
432.7514	0.1285
432.9552	0.1312
433.1589	0.1284
433.3627	0.1285
433.5664	0.1338
433.7701	0.1016
433.9737	0.1061
434.1774	0.1178
434.3811	0.1041
434.5847	0.1293
434.7883	0.1092
434.9919	0.121
435.1955	0.115
435.3991	0.1182
435.6027	0.1046
435.8062	0.1251
436.0098	0.0971
436.2133	0.1218
436.4168	0.1038
436.6203	0.0955
436.8238	0.0948
437.0272	0.1019
437.2307	0.0927
437.4341	0.0996
437.6375	0.0881
437.841	0.0971
438.0443	0.1036
438.2477	0.0903
438.4511	0.0839
438.6545	0.0896
438.8578	0.0848
439.0611	0.0867
439.2644	0.1
439.4677	0.079
439.671	0.0626
439.8743	0.092
440.0775	0.0886
440.2808	0.0769
440.484	0.059
440.6872	0.0603
440.8904	0.0716
441.0936	0.0967
441.2967	0.0721
441.4999	0.0851
441.703	0.0581
441.9062	0.0716
442.1093	0.0578
442.3124	0.0726
442.5155	0.0552
442.7185	0.0571
442.9216	0.051
443.1246	0.0714
443.3276	0.0515
443.5307	0.0614
443.7337	0.0639
443.9366	0.0551
444.1396	0.0692
444.3426	0.0558
444.5455	0.0491
444.7484	0.0479
444.9513	0.0474
445.1542	0.053
445.3571	0.0478
445.56	0.0634
445.7628	0.0321
445.9657	0.0442
446.1685	0.06
446.3713	0.0471
446.5741	0.0502
446.7769	0.0372
446.9797	0.0425
447.1824	0.0481
447.3852	0.0273
447.5879	0.0432
447.7906	0.038
447.9933	0.0445
448.196	0.0259
448.3986	0.0358
448.6013	0.0322
448.8039	0.03
449.0066	0.0345
449.2092	0.0445
449.4118	0.0285
449.6143	0.0435
449.8169	0.0266
450.0195	0.0185
450.222	0.0122
450.4245	0.0417
450.627	0.0389
450.8295	0.0261
451.032	0.0118
451.2345	0.0282
451.4369	0.0208
451.6394	0.0272
451.8418	0.007
452.0442	0.0181
452.2466	0.0325
452.449	0.009
452.6513	0.0331
452.8537	0.0134
453.056	0.0109
453.2583	0.0312
453.4607	0.0196
453.663	0.0261
453.8652	0.0347
454.0675	0.01
454.2697	0.0177
454.472	-0.0089
454.6742	0.0123
454.8764	0.0138
455.0786	0.0316
455.2808	0.0166
455.4829	0.026
455.6851	0.0268
455.8872	0.0153
456.0893	0.0353
456.2915	0.0209
456.4935	0.0259
456.6956	0.0036
456.8977	0.017
457.0997	0.0046
457.3018	0.0017
457.5038	0.0126
457.7058	0.0142
457.9078	0.0172
458.1098	0.0215
458.3117	0.0124
458.5137	0.0189
458.7156	0.0063
458.9175	-0.0031
459.1194	0.0051
459.3213	0.005
459.5232	-0.0045
459.725	0.0017
459.9269	-0.0086
460.1287	-0.0013
460.3305	0.0105
460.5323	0.0066
460.7341	0.0049
460.9359	0.0067
461.1376	0.0191
461.3394	-0.0026
461.5411	0.0025
461.7428	0.0099
461.9445	0.0056
462.1462	0.031
462.3479	-0.0056
462.5495	-0.0014
462.7512	-0.0034
462.9528	-0.0139
463.1544	-0.0063
463.356	0.0052
463.5576	0.0089
463.7592	-0.0042
463.9607	0.0096
464.1623	0.0212
464.3638	0.0152
464.5653	-0.0172
464.7668	0.0009
464.9683	0.0017
465.1697	0.0086
465.3712	-0.0087
465.5726	-0.013
465.7741	-0.0006
465.9755	-0.0103
466.1769	0.0084
466.3782	0.0041
466.5796	-0.0161
466.7809	0.0205
466.9823	-0.0085
467.1836	0.0196
467.3849	-0.0158
467.5862	0.0132
467.7875	0.007
467.9887	0.0056
468.19	-0.0113
468.3912	-0.0088
468.5924	-0.0211
468.7936	-0.0068
468.9948	-0.0045
469.196	-0.0005
469.3972	-0.0136
469.5983	-0.0098
469.7994	0.0074
470.0006	-0.0095
470.2017	-0.0088
470.4027	0.0015
470.6038	0.0267
470.8049	-0.0072
471.0059	-0.0063
471.2069	-0.0176
471.408	0.0124
471.6089	-0.0074
471.8099	-0.0036
472.0109	0.0052
472.2119	0.0044
472.4128	-0.0013
472.6137	0.0074
472.8146	-0.0203
473.0155	-0.0061
473.2164	-0.0036
473.4173	0.0053
473.6181	0.008
473.819	0.0024
474.0198	-0.0149
474.2206	0.0019
474.4214	0.0028
474.6222	-0.0067
474.8229	-0.0084
475.0237	-0.0137
475.2244	-0.0121
475.4251	-0.0111
475.6258	-0.0106
475.8265	-0.0047
476.0272	0.0004
476.2278	-0.0033
476.4285	0.0018
476.6291	-0.0026
476.8297	-0.0034
477.0303	0.0055
477.2309	-0.0065
477.4315	-0.0013
477.632	-0.0082
477.8326	-0.0076
478.0331	0.0015
478.2336	0.0028
478.4341	-0.0024
478.6346	-0.0045
478.8351	0.0063
479.0355	-0.0057
479.236	-0.0153
479.4364	0.0061
479.6368	-0.0071
479.8372	-0.011
480.0376	-0.0128
480.2379	-0.0174
480.4383	-0.001
480.6386	0.0045
480.8389	0.0016
481.0392	-0.0162
481.2395	-0.0058
481.4398	0.0005
481.6401	0.0025
481.8403	-0.0118
482.0405	0
482.2408	-0.0003
482.441	-0.0068
482.6411	-0.0066
482.8413	0.0052
483.0415	-0.0131
483.2416	-0.0101
483.4417	-0.0095
483.6419	-0.008
483.8419	-0.003
484.042	0.0026
484.2421	0.0063
484.4422	0.001
484.6422	-0.0121
484.8422	0.0075
485.0422	-0.0075
485.2422	0.0027
485.4422	-0.0151
485.6422	-0.011
485.8421	-0.0103
486.042	-0.0023
486.242	0.0026
486.4419	-0.0096
486.6417	0.0005
486.8416	-0.0003
487.0415	-0.0036
487.2413	-0.0089
487.4411	-0.0084
487.641	-0.0279
487.8408	0.0063
488.0405	-0.0062
488.2403	-0.0074
488.4401	0.0027
488.6398	-0.0142
488.8395	-0.0062
489.0392	0.007
489.2389	-0.0006
489.4386	-0.0086
489.6383	-0.0016
489.8379	0.0002
490.0376	-0.0024
490.2372	-0.0169
490.4368	-0.0136
490.6364	-0.0099
490.836	-0.0174
491.0355	-0.0092
491.2351	-0.007
491.4346	-0.0038
491.6341	-0.0124
491.8336	-0.0051
492.0331	-0.0106
492.2326	-0.0109
492.432	0.0002
492.6315	-0.0099
492.8309	-0.0251
493.0303	-0.0082
493.2297	-0.0067
493.4291	-0.002
493.6284	-0.0094
493.8278	0.0015
494.0271	-0.004
494.2264	0.0025
494.4257	-0.0152
494.625	-0.0106
494.8243	-0.0174
495.0236	-0.0153
495.2228	-0.023
495.422	-0.0048
495.6213	-0.0034
495.8205	-0.0061
496.0196	-0.007
496.2188	0.0107
496.418	-0.011
496.6171	-0.0059
496.8162	-0.0167
497.0153	0.0067
497.2144	-0.0108
497.4135	-0.0033
497.6126	-0.0079
497.8116	-0.0164
498.0107	0.0018
498.2097	-0.0128
498.4087	-0.0085
498.6077	0.0002
498.8067	-0.0122
499.0056	-0.0087
499.2046	-0.0004
499.4035	-0.0213
499.6024	-0.0089
499.8013	-0.0025
500.0002	-0.0154
500.199	-0.0046
500.3979	-0.0035
500.5967	-0.018
500.7956	-0.0034
500.9944	-0.0077
501.1932	-0.0027
501.3919	-0.0094
501.5907	-0.0134
501.7895	-0.0076
501.9882	-0.0132
502.1869	-0.0068
502.3856	-0.0138
502.5843	-0.0098
502.783	-0.0026
502.9816	-0.0084
503.1803	-0.0183
503.3789	-0.0054
503.5775	-0.0017
503.7761	-0.0049
503.9747	-0.0022
504.1732	-0.0095
504.3718	-0.0128
504.5703	-0.0056
504.7689	-0.0077
504.9674	0.0062
505.1658	-0.0154
505.3643	-0.005
505.5628	-0.008
505.7612	0.0026
505.9597	0.0093
506.1581	-0.0022
506.3565	-0.0032
506.5549	-0.0014
506.7532	-0.0183
506.9516	-0.0025
507.1499	-0.0052
507.3482	-0.0131
507.5465	0.0012
507.7448	-0.0002
507.9431	-0.0065
508.1414	-0.0009
508.3396	-0.0032
508.5379	-0.004
508.7361	-0.0096
508.9343	-0.0078
509.1325	-0.0012
509.3306	0.0012
509.5288	-0.0034
509.7269	-0.0114
509.9251	-0.0018
510.1232	-0.0064
510.3213	-0.0087
510.5193	-0.0011
510.7174	-0.0101
510.9154	-0.0197
511.1135	-0.0068
511.3115	-0.008
511.5095	-0.0104
511.7075	-0.005
511.9055	0.0016
512.1034	-0.0152
512.3014	0.0028
512.4993	-0.0033
512.6972	-0.012
512.8951	-0.0118
513.093	-0.0038
513.2908	0.0091
513.4887	0.0029
513.6865	-0.0023
513.8844	-0.001
514.0822	-0.0045
514.2799	-0.0188
514.4777	-0.0083
514.6755	-0.0054
514.8732	-0.019
515.0709	0.001
515.2687	-0.0004
515.4664	-0.0006
515.664	-0.0102
515.8617	0.0034
516.0594	-0.017
516.257	0.0009
516.4546	-0.02
516.6522	-0.0019
516.8498	0.0017
517.0474	0.0044
517.2449	-0.0061
517.4425	-0.0143
517.64	-0.0081
517.8375	0.0085
518.035	-0.0051
518.2325	-0.0054
518.43	-0.0007
518.6274	0.0026
518.8249	-0.0114
519.0223	-0.0035
519.2197	-0.0075
519.4171	-0.0147
519.6145	-0.0074
519.8118	-0.0039
520.0092	-0.0052
520.2065	0.0006
520.4038	-0.0108
520.6011	0.0048
520.7984	-0.0186
520.9956	-0.0001
521.1929	-0.0101
521.3901	0.0047
521.5874	0
521.7846	0.0011
521.9818	-0.0143
522.1789	-0.0072
522.3761	-0.0002
522.5732	-0.0215
522.7704	-0.0009
522.9675	-0.0043
523.1646	-0.0029
523.3617	-0.0146
523.5587	-0.0001
523.7558	-0.0005
523.9528	-0.0127
524.1498	-0.0029
524.3468	-0.0055
524.5438	-0.0193
524.7408	-0.006
524.9378	-0.0034
525.1347	-0.0008
525.3316	0.0056
525.5285	-0.0053
525.7254	-0.0061
525.9223	-0.0084
526.1192	-0.0022
526.316	-0.014
526.5129	0.0042
526.7097	0.0012
526.9065	-0.0015
527.1033	-0.0041
527.3	0.005
527.4968	-0.0032
527.6935	-0.0041
527.8903	-0.0078
528.087	-0.0016
528.2837	-0.0047
528.4804	0.0042
528.677	-0.0105
528.8737	0.0098
529.0703	-0.0032
529.2669	-0.0082
529.4635	-0.0066
529.6601	-0.0047
529.8567	-0.0041
530.0532	-0.0107
530.2498	-0.0016
530.4463	0.0066
530.6428	-0.0054
530.8393	0.002
531.0358	-0.003
531.2322	-0.0051
531.4287	-0.0043
531.6251	-0.0079
531.8215	0.0086
532.0179	0.0037
532.2143	0.0113
532.4107	0.0012
532.607	0.0026
532.8034	-0.0026
532.9997	-0.0002
533.196	-0.0029
533.3923	-0.0047
533.5886	-0.0005
533.7848	-0.0038
533.9811	-0.0016
534.1773	-0.0004
534.3735	0.0044
534.5697	0.0032
534.7659	-0.0059
534.9621	-0.0022
535.1582	-0.0115
535.3544	-0.009
535.5505	-0.0093
535.7466	-0.0036
535.9427	-0.0016
536.1387	0.0003
536.3348	-0.0078
536.5308	0.0091
536.7269	-0.019
536.9229	0.0019
537.1189	-0.0013
537.3148	-0.0082
537.5108	-0.0113
537.7068	-0.0002
537.9027	-0.0068
538.0986	-0.0058
538.2945	-0.0183
538.4904	-0.0027
538.6863	-0.0155
538.8821	-0.0039
539.078	-0.0092
539.2738	-0.0012
539.4696	0.0016
539.6654	0.0022
539.8611	0.011
540.0569	-0.0093
540.2526	-0.004
540.4484	0.0005
540.6441	0.0095
540.8398	0.0002
541.0355	0.0032
541.2311	0.0038
541.4268	-0.0064
541.6224	0.0014
541.818	-0.0069
542.0136	-0.0128
542.2092	-0.0051
542.4048	0.0081
542.6003	-0.0074
542.7959	-0.0007
542.9914	-0.0069
543.1869	-0.0005
543.3824	-0.0024
543.5779	-0.0116
543.7734	-0.0103
543.9688	-0.0018
544.1642	-0.0054
544.3596	-0.005
544.555	-0.0029
544.7504	-0.0025
544.9458	-0.0053
545.1411	-0.0071
545.3365	-0.0047
545.5318	0.0021
545.7271	-0.0005
545.9224	-0.0123
546.1177	0.0044
546.3129	0.0029
546.5081	-0.012
546.7034	-0.0029
546.8986	-0.0067
547.0938	-0.0047
547.289	-0.0092
547.4841	-0.004
547.6793	0.0048
547.8744	-0.0117
548.0695	-0.0082
548.2646	-0.0121
548.4597	-0.0027
548.6548	-0.0073
548.8498	0.0029
549.0448	0.006
549.2399	-0.0067
549.4349	0.0041
549.6298	0.0011
549.8248	0.0063
550.0198	0.0042
550.2147	-0.0016
550.4096	-0.0066
550.6045	-0.0043
550.7994	0.0099
550.9943	0.0031
551.1892	0.0011
551.384	0.005
551.5788	0.0004
551.7737	0.005
551.9685	-0.0104
552.1632	0.0049
552.358	-0.0073
552.5528	-0.0093
552.7475	-0.0042
552.9422	-0.0007
553.1369	-0.0006
553.3316	-0.0016
553.5263	-0.0019
553.7209	0.0032
553.9156	-0.0038
554.1102	-0.0052
554.3048	0.0048
554.4994	0.0038
554.694	0.0005
554.8885	0.0072
555.0831	-0.0133
555.2776	-0.0088
555.4721	-0.0085
555.6666	-0.0079
555.8611	0.0052
556.0555	-0.0008
556.25	-0.0019
556.4444	-0.0106
556.6388	-0.0047
556.8332	-0.0063
557.0276	-0.0015
557.222	-0.0039
557.4163	-0.0048
557.6107	-0.0063
557.805	0.0071
557.9993	-0.0045
558.1936	-0.0004
558.3879	0.0071
558.5821	0.0016
558.7764	-0.0056
558.9706	-0.0004
559.1648	0.0022
559.359	-0.0084
559.5532	-0.0048
559.7473	-0.0023
559.9415	0
560.1356	-0.0028
560.3297	-0.0067
560.5238	-0.0024
560.7179	-0.0066
560.9119	-0.0077
561.106	-0.0039
561.3	-0.0097
561.494	-0.0026
561.688	-0.005
561.882	-0.0108
562.076	0.0024
562.2699	0.0024
562.4639	-0.0006
562.6578	0.0072
562.8517	0.0016
563.0456	-0.0005
563.2395	0.0012
563.4333	-0.0028
563.6272	0.0051
563.821	-0.0001
564.0148	0.0031
564.2086	-0.0127
564.4024	0.0002
564.5961	-0.0008
564.7899	0.0045
564.9836	0.0029
565.1773	0.008
565.371	0.0019
565.5647	0.0035
565.7584	0.003
565.952	0.0069
566.1456	0.0044
566.3393	-0.0023
566.5329	-0.006
566.7264	0.0019
566.92	0.0011
567.1136	0.007
567.3071	0.0004
567.5006	0.0054
567.6941	0.0057
567.8876	0.0019
568.0811	-0.0035
568.2745	0.0012
568.468	0.0082
568.6614	0.0018
568.8548	0.0051
569.0482	0.001
569.2416	0.003
569.4349	0.0008
569.6283	0.0058
569.8216	-0.0026
570.0149	-0.0008
570.2082	0.0074
570.4015	-0.0051
570.5947	0.0129
570.788	0.0043
570.9812	0.008
571.1744	0.006
571.3676	-0.0054
571.5608	-0.0055
571.754	-0.0002
571.9471	0.0045
572.1402	0.0039
572.3333	0.0019
572.5264	-0.0036
572.7195	-0.0025
572.9126	0.0046
573.1057	-0.0019
573.2987	0.0008
573.4917	0.0012
573.6847	-0.0095
573.8777	0.0022
574.0707	0.0051
574.2636	-0.0081
574.4566	-0.0055
574.6495	0.0045
574.8424	0.0009
575.0353	-0.0015
575.2281	0.0106
575.421	0.0055
575.6138	0.0055
575.8067	-0.0007
575.9995	0.0065
576.1923	0.0097
576.385	0.0014
576.5778	0.0005
576.7706	-0.0018
576.9633	0.0017
577.156	0.0063
577.3487	0.0059
577.5414	0.0013
577.734	-0.0068
577.9267	0.0068
578.1193	-0.0125
578.3119	-0.003
578.5045	0.0036
578.6971	0.0015
578.8897	0.009
579.0822	0.0039
579.2747	0.0012
579.4673	-0.0042
579.6598	-0.0055
579.8522	-0.0035
580.0447	-0.0079
580.2372	-0.005
580.4296	0.002
580.622	0.0018
580.8144	0.002
581.0068	-0.0012
581.1992	-0.0095
581.3915	-0.004
581.5839	-0.0052
581.7762	-0.0078
581.9685	-0.0031
582.1608	0.0022
582.353	-0.0014
582.5453	-0.0006
582.7375	-0.0001
582.9298	-0.0037
583.122	-0.0061
583.3142	0.0035
583.5063	-0.0027
583.6985	-0.004
583.8906	-0.0062
584.0827	-0.0055
584.2749	0.0002
584.4669	-0.0053
584.659	0.0004
584.8511	0.0019
585.0431	-0.0031
585.2352	0.0085
585.4272	-0.0025
585.6192	0.0015
585.8111	0.0056
586.0031	0.0034
586.195	-0.0026
586.387	0.0032
586.5789	0.0011
586.7708	0.0022
586.9627	-0.0021
587.1545	0.0005
587.3464	-0.0014
587.5382	0.0078
587.73	-0.0023
587.9218	0.0059
588.1136	0.0012
588.3053	0.0038
588.4971	-0.005
588.6888	-0.0019
588.8805	-0.0061
589.0722	0.0098
589.2639	0.0015
589.4556	-0.004
589.6472	-0.0071
589.8389	-0.0116
590.0305	-0.0113
590.2221	0.0011
590.4137	-0.0071
590.6052	0.0061
590.7968	0.0037
590.9883	0.0091
591.1798	-0.0028
591.3713	-0.0027
591.5628	-0.0009
591.7543	0.0053
591.9458	0.0016
592.1372	0.0063
592.3286	0.0062
592.52	0.0058
592.7114	-0.0018
592.9028	-0.0019
593.0941	-0.0058
593.2855	-0.0013
593.4768	-0.0045
593.6681	-0.007
593.8594	0.0014
594.0506	0.0029
594.2419	0.0087
594.4331	0.0037
594.6244	0.0034
594.8156	-0.0082
595.0067	-0
595.1979	-0.0032
595.3891	0.001
595.5802	0.0004
595.7713	-0.0056
595.9624	0.0039
596.1535	0.0037
596.3446	0.0099
596.5357	-0.0008
596.7267	0.0027
596.9177	0.0039
597.1087	-0.0014
597.2997	-0.0027
597.4907	0.0038
597.6817	0.0023
597.8726	-0.0007
598.0635	-0.0033
598.2544	0.0039
598.4453	0.0056
598.6362	-0.0031
598.827	-0.005
599.0179	0.0013
599.2087	0.0008
599.3995	-0.0063
599.5903	0.0036
599.7811	0.0011
599.9718	0.0064
600.1626	-0.0044
600.3533	-0.0044
600.544	-0.0052
600.7347	0.0032
600.9254	0.0029
601.116	-0.0126
601.3067	0.0006
601.4973	-0.0022
601.6879	0.0043
601.8785	0.0002
602.0691	0.0078
602.2596	0.0044
602.4502	0.005
602.6407	0.0074
602.8312	0.005
603.0217	-0.0123
603.2122	-0.0029
603.4027	0.005
603.5931	-0.0004
603.7835	0.0024
603.9739	-0.0015
604.1643	0.0013
604.3547	0.0041
604.5451	0.0029
604.7354	-0.0052
604.9257	0.003
605.116	-0.0015
605.3063	0.0079
605.4966	0.0065
605.6869	0.0031
605.8771	0.0029
606.0673	0.0063
606.2575	0.0104
606.4477	0.0008
606.6379	0.0036
606.8281	0
607.0182	-0.0038
607.2083	0.0158
607.3985	-0.0019
607.5885	-0.0007
607.7786	0.0002
607.9687	-0.0049
608.1587	0.0048
608.3488	0.0057
608.5388	-0.0007
608.7288	0.0034
608.9187	-0.0052
609.1087	-0.0065
609.2986	0.0007
609.4886	-0.0013
609.6785	0.0013
609.8684	0
610.0582	0.0046
610.2481	-0.0006
610.4379	-0.0029
610.6278	-0.0053
610.8176	0.0022
611.0074	-0.0073
611.1971	-0.0028
611.3869	-0.0013
611.5766	-0.0051
611.7664	0.0017
611.9561	-0.0001
612.1458	0.005
612.3354	-0.0099
612.5251	-0.0011
612.7147	0.0025
612.9044	0.0078
613.094	-0.005
613.2836	0.0006
613.4731	-0.0004
613.6627	-0.0057
613.8522	0.0024
614.0417	0.0044
614.2313	-0.0044
614.4207	-0.0021
614.6102	0.0014
614.7997	0
614.9891	-0.0021
615.1785	0.0045
615.3679	-0.0052
615.5573	0.0052
615.7467	-0.001
615.9361	-0.0018
616.1254	0.0046
616.3147	-0.0033
616.504	-0.0006
616.6933	0.0033
616.8826	0.0095
617.0718	0.0007
617.2611	0.0004
617.4503	-0.0011
617.6395	-0.0079
617.8287	-0.0044
618.0179	-0.0037
618.207	0.0112
618.3961	0.007
618.5853	0.006
618.7744	0.0082
618.9634	0.0084
619.1525	0.0044
619.3416	0.0052
619.5306	0.0058
619.7196	0.0058
619.9086	0.0054
620.0976	0.0046
620.2866	0.0027
620.4755	0.0115
620.6645	0.0018
620.8534	0.0073
621.0423	0.0072
621.2312	0.0124
621.42	0.0052
621.6089	0.0074
621.7977	0.0144
621.9865	-0.0041
622.1753	0.0047
622.3641	-0.0007
622.5529	0.0005
622.7416	0.008
622.9303	-0.0011
623.1191	0.0019
623.3078	-0.0062
623.4964	-0.0005
623.6851	-0.0025
623.8737	-0.0023
624.0624	0.0015
624.251	-0.0026
624.4396	0.0007
624.6282	-0.0027
624.8167	-0.0028
625.0053	-0.0005
625.1938	0.0034
625.3823	0.005
625.5708	0.0039
625.7593	-0.0095
625.9477	-0.0012
626.1362	0.0046
626.3246	-0.0017
626.513	0.0053
626.7014	0.0088
626.8898	0.0034
627.0781	0.0053
627.2665	0.0016
627.4548	0.0101
627.6431	0.0061
627.8314	0.0116
628.0197	0.0095
628.2079	-0.005
628.3962	0.0041
628.5844	0.0069
628.7726	0.0005
628.9608	0.0092
629.1489	0.0038
629.3371	0.0038
629.5252	0.0012
629.7134	0.0098
629.9015	0.0032
630.0895	-0.0043
630.2776	0.0012
630.4657	0.0022
630.6537	-0.0019
630.8417	0.002
631.0297	0
631.2177	0.0005
631.4057	-0.0042
631.5936	-0.0009
631.7815	0.0001
631.9695	-0.0042
632.1574	0.0027
632.3452	0.0139
632.5331	0.0092
632.7209	0.0001
632.9088	0.01
633.0966	0.0104
633.2844	0.0043
633.4722	0.0007
633.6599	0.0086
633.8477	0.0012
634.0354	0.0052
634.2231	0.0028
634.4108	0.0068
634.5985	0.0083
634.7861	0.0045
634.9738	-0.0018
635.1614	0.0013
635.349	0.0048
635.5366	-0.0015
635.7242	0.0011
635.9117	-0.0012
636.0993	-0.0055
636.2868	0.0007
636.4743	-0.0055
636.6618	0.0069
636.8492	0.0041
637.0367	-0.0005
637.2241	-0.0077
637.4115	-0.0045
637.5989	-0.0019
637.7863	-0.0029
637.9737	-0.0006
638.161	-0.0076
638.3484	0.0015
638.5357	0.0011
638.723	0.0027
638.9103	0.0055
639.0975	0.0055
639.2848	0.0072
639.472	0.0008
639.6592	0.0037
639.8464	0.0087
640.0336	0.0087
640.2208	0.0073
640.4079	0.0047
640.595	-0.0011
640.7821	0.0008
640.9692	0.001
641.1563	0.0057
641.3434	0.0149
641.5304	0.0002
641.7174	0.0027
641.9044	0.0067
642.0914	0.0068
642.2784	0.0036
642.4653	0.0113
642.6523	0.0046
642.8392	0.0046
643.0261	0.0018
643.213	0.0027
643.3999	0.0045
643.5867	0.0019
643.7735	0.002
643.9604	-0.0071
644.1472	0.0014
644.3339	0.0079
644.5207	0.0055
644.7075	0.0034
644.8942	0.0068
645.0809	0.0078
645.2676	0.0096
645.4543	0.0069
645.6409	0.0075
645.8276	0.0073
646.0142	0.0045
646.2008	0.0001
646.3874	0.0023
646.574	0.0042
646.7605	-0.0009
646.9471	-0.0154
647.1336	0.0057
647.3201	0.005
647.5066	-0.0046
647.6931	0.01
647.8795	0.005
648.0659	0.0098
648.2524	0.0063
648.4388	-0.0047
648.6252	0.001
648.8115	0.0059
648.9979	0.0061
649.1842	0.005
649.3705	0.0043
649.5568	0.0022
649.7431	0.0068
649.9294	0.0008
650.1156	0.006
650.3018	-0.0007
650.488	0.0105
650.6742	0.0094
650.8604	0.0001
651.0466	-0.0061
651.2327	0.0023
651.4188	0.0021
651.6049	-0.0044
651.791	-0.0005
651.9771	0.0023
652.1632	0.002
652.3492	0.0032
652.5352	-0.0059
652.7212	0.0005
652.9072	0.0077
653.0932	0.0006
653.2791	-0.0032
653.465	0.0008
653.651	-0.0015
653.8369	-0.0006
654.0227	0.0009
654.2086	0.0017
654.3944	0.0053
654.5803	-0.002
654.7661	-0.0004
654.9519	0.0053
655.1377	-0.0014
655.3234	0.0048
655.5092	0.0008
655.6949	-0.0035
655.8806	-0.0038
656.0663	-0.0016
656.2519	-0.0039
656.4376	-0.0021
656.6232	0.0097
656.8088	0.003
656.9945	0.0058
657.18	0.0002
657.3656	0.0086
657.5511	0.0003
657.7367	-0.0004
657.9222	0.0031
658.1077	0.0005
658.2932	0.0056
658.4786	-0.007
658.6641	-0.0006
658.8495	-0.0008
659.0349	-0.0022
659.2203	0.0073
659.4057	0.0038
659.591	0.0057
659.7764	-0.0041
659.9617	0.0053
660.147	0.0016
660.3323	-0.0039
660.5176	0.0056
660.7028	0.0072
660.888	0.0043
661.0733	0.0036
661.2585	0.0021
661.4436	0.0024
661.6288	-0.0029
661.8139	-0.0064
661.9991	0.0049
662.1842	-0.0006
662.3693	0.0041
662.5544	-0.007
662.7394	0.0027
662.9245	-0.0032
663.1095	0.0049
663.2945	-0.0017
663.4795	-0.0036
663.6644	0.0036
663.8494	0.0015
664.0343	0.0049
664.2193	-0.0079
664.4042	0.0105
664.589	-0.0007
664.7739	-0.0017
664.9587	-0.0059
665.1436	-0.0033
665.3284	0.0076
665.5132	-0.0014
665.698	0.0013
665.8827	0.0082
666.0675	-0.0021
666.2522	-0.0029
666.4369	-0.0017
666.6216	0.0042
666.8063	0.0039
666.9909	0.006
667.1756	0.0061
667.3602	-0.0006
667.5448	0.0036
667.7294	0.0083
667.9139	0.0107
668.0985	0.0125
668.283	0.0081
668.4675	0.006
668.652	0.0043
668.8365	0.0034
669.0209	0.0108
669.2054	0.0053
669.3898	0.0057
669.5742	0.0063
669.7586	0.0052
669.943	0.0137
670.1273	0.0101
670.3117	0.0083
670.496	0.0075
670.6803	0.0014
670.8646	0.0082
671.0488	0.004
671.2331	-0.0024
671.4173	0.0093
671.6015	0.0026
671.7857	0.0077
671.9699	0.0077
672.1541	0.0077
672.3382	0.0111
672.5223	0.0091
672.7064	0.0064
672.8905	0.0046
673.0746	0.0073
673.2587	-0.0001
673.4427	0.0101
673.6267	0.0105
673.8107	0.0043
673.9947	0.0055
674.1787	0.0016
674.3626	-0.0057
674.5465	0.0074
674.7304	0.0007
674.9143	0.0045
675.0982	0.0014
675.2821	-0.0041
675.4659	0.0055
675.6497	-0.0019
675.8335	0.0029
676.0173	-0.0048
676.2011	0.0053
676.3849	0.0016
676.5686	-0.0006
676.7523	0.0052
676.936	0.0014
677.1197	0.0011
677.3034	-0.009
677.487	0.0028
677.6706	-0.0027
677.8542	0.0037
678.0378	-0.0021
678.2214	-0.0018
678.405	-0.001
678.5885	-0.0043
678.772	0.0052
678.9555	-0.0013
679.139	-0.0041
679.3225	0.0083
679.5059	0.0015
679.6894	0.0073
679.8728	-0.0061
680.0562	-0.0083
680.2395	0.0014
680.4229	0.0007
680.6062	-0.0005
680.7896	-0.0081
680.9729	-0.0056
681.1562	0.0036
681.3394	0.0002
681.5227	-0.0054
681.7059	-0.0018
681.8891	0.005
682.0723	0.0176
682.2555	0.0048
682.4387	0.0048
682.6218	0.0004
682.805	0.0067
682.9881	-0.0009
683.1712	0.0014
683.3542	-0.0024
683.5373	0.0008
683.7203	-0.0094
683.9034	-0.003
684.0864	-0.0011
684.2694	-0.0018
684.4523	-0.0017
684.6353	-0.0094
684.8182	0.0031
685.0011	-0.0026
685.184	0.003
685.3669	0.0029
685.5498	0.0052
685.7326	0
685.9154	-0.0073
686.0982	0.006
686.281	0.0054
686.4638	-0.0052
686.6465	0.0001
686.8293	0.004
687.012	-0.0013
687.1947	-0.0038
687.3774	-0.0014
687.56	0.001
687.7427	0.004
687.9253	-0.0017
688.1079	-0.0033
688.2905	0.0203
688.4731	0.0015
688.6556	-0.0016
688.8382	-0.001
689.0207	0.0061
689.2032	-0.007
689.3857	-0.0002
689.5681	0.0044
689.7506	0.0003
689.933	-0.0004
690.1154	0.005
690.2978	0.0087
690.4802	0.0084
690.6626	-0.0064
690.8449	0.0055
691.0272	0.008
691.2095	0.0045
691.3918	-0.0005
691.5741	0.0053
691.7563	-0.0007
691.9386	0.0035
692.1208	0.0057
692.303	0.004
692.4852	0.0035
692.6673	0.0062
692.8495	0.0034
693.0316	0.0077
693.2137	-0.0017
693.3958	0.0033
693.5778	0.0044
693.7599	-0.0026
693.9419	-0.0009
694.1239	-0.0001
694.3059	-0.0101
694.4879	0.0034
694.6699	0.0035
694.8518	0.0011
695.0337	-0.0048
695.2157	0.0049
695.3975	-0.0054
695.5794	0.0064
695.7613	-0.0003
695.9431	0.0029
696.1249	0.0054
696.3067	0.0115
696.4885	0.0112
696.6703	0.0015
696.852	0.0091
697.0337	0.0069
697.2154	0.0039
697.3971	-0.002
697.5788	0.0052
697.7605	0.0016
697.9421	0.0047
698.1237	-0.0016
698.3053	-0.0004
698.4869	-0.0011
698.6685	-0.0048
698.85	0.0038
699.0315	0.0075
699.213	-0.0006
699.3945	0.0047
699.576	0.0087
699.7575	0.0011
699.9389	0.0062
700.1203	0.0032
700.3017	-0.0043
700.4831	-0.0096
700.6645	-0.006
700.8458	0.0032
701.0271	-0.003
701.2084	0.0064
701.3897	0.0002
701.571	0.0055
701.7523	-0.0045
701.9335	-0.0022
702.1147	0.0022
702.2959	0.0065
702.4771	-0.004
702.6583	-0.0011
702.8394	-0.0139
703.0205	0.0013
703.2016	-0.0007
703.3827	-0.0046
703.5638	0.0106
703.7449	0.0029
703.9259	0.0105
704.1069	-0.0007
704.2879	-0.0008
704.4689	0.0073
704.6499	-0.0021
704.8308	0.0014
705.0117	0.0045
705.1927	0.0097
705.3735	-0.0047
705.5544	0.0047
705.7353	-0.0009
705.9161	-0.0019
706.0969	-0.0049
706.2777	0.0018
706.4585	-0.0009
706.6393	0.003
706.82	0.0049
707.0007	0.0044
707.1815	0.0035
707.3621	0.0157
707.5428	0.0088
707.7235	0.0012
707.9041	0.0036
708.0847	-0.0075
708.2653	0.0048
708.4459	-0.0118
708.6265	0.0052
708.807	-0.0007
708.9875	0.0021
709.168	-0.0099
709.3485	-0.008
709.529	0.0025
709.7095	-0.0056
709.8899	-0.0004
710.0703	-0.0153
710.2507	0.001
710.4311	-0.0051
710.6115	-0.0124
710.7918	-0.0093
710.9721	-0.0033
711.1524	-0.0086
711.3327	-0.0023
711.513	-0.004
711.6932	0.0047
711.8735	0.0106
712.0537	0.0015
712.2339	-0.0045
712.4141	-0.0081
712.5942	-0.0042
712.7744	0.0038
712.9545	-0.0051
713.1346	0.007
713.3147	0.0059
713.4947	-0.011
713.6748	0.0052
713.8548	0.0028
714.0348	0.0004
714.2148	0.0042
714.3948	0.0055
714.5748	-0.001
714.7547	-0.0001
714.9346	0.0091
715.1145	-0.0036
715.2944	-0.0052
715.4743	-0.0018
715.6541	0.0049
715.834	0.0056
716.0138	0.0016
716.1936	-0.0064
716.3733	-0.0028
716.5531	0.0079
716.7328	0.0017
716.9126	0.0029
717.0923	-0.0028
717.2719	0.0035
717.4516	0.0002
717.6312	-0.0054
717.8109	-0.0047
717.9905	-0.0002
718.1701	-0.008
718.3496	-0.0109
718.5292	-0.008
718.7087	0.0001
718.8882	-0.0051
719.0677	-0.0025
719.2472	-0.0009
719.4267	0.0024
719.6061	0.0029
719.7856	0.003
719.965	0.0042
720.1443	-0.0079
720.3237	0.0097
720.5031	0.0011
720.6824	0.0069
720.8617	-0.0042
721.041	0.0021
721.2203	0.0044
721.3995	0.0077
721.5788	0.0128
721.758	0.0039
721.9372	-0.0036
722.1164	0.0059
722.2956	0.0048
722.4747	0.0062
722.6538	0.006
722.8329	0.01
723.012	0.008
723.1911	0.0038
723.3702	0.0041
723.5492	0.0064
723.7282	-0.0038
723.9072	0.0027
724.0862	-0.0058
724.2652	-0.0034
724.4441	-0.0018
724.623	-0.0046
724.8019	-0.0046
724.9808	0.007
725.1597	-0.0072
725.3385	0.0022
725.5174	0.0052
725.6962	0.0025
725.875	0.0003
726.0538	0.0072
726.2325	-0.0011
726.4112	0.0039
726.59	-0.0029
726.7687	-0.009
726.9474	0.0045
727.126	-0.006
727.3047	-0.0076
727.4833	-0.0017
727.6619	-0.0095
727.8405	-0.0024
728.0191	0.0006
728.1976	-0.0049
728.3762	0.0063
728.5547	-0.0032
728.7332	-0.0038
728.9116	0.004
729.0901	0.0042
729.2686	0.0069
729.447	0.0025
729.6254	-0.0011
729.8038	0.0004
729.9821	-0.0089
730.1605	0.0068
730.3388	0.0019
730.5171	0.0005
730.6954	-0.0103
730.8737	0.0028
731.0519	0.0095
731.2302	0.0122
731.4084	0.0043
731.5866	0.0009
731.7648	-0.0008
731.9429	0.0055
732.1211	-0.0095
732.2992	-0.0048
732.4773	0.0017
732.6554	-0.0003
732.8335	0.0032
733.0115	0.0062
733.1896	0.01
733.3676	-0.0034
733.5456	0.0078
733.7235	0.0027
733.9015	0.0004
734.0794	-0.001
734.2574	0.0011
734.4353	-0.0017
734.6131	0.0011
734.791	0.0052
734.9689	-0.0063
735.1467	-0.0009
735.3245	-0.0101
735.5023	-0.0048
735.68	-0.0008
735.8578	0.0032
736.0355	-0.0204
736.2132	-0.0063
736.3909	-0.0076
736.5686	-0.0014
736.7463	0.0036
736.9239	-0.0054
737.1015	0.0111
737.2791	0.0041
737.4567	0.0028
737.6343	-0.0014
737.8118	0.007
737.9894	0.0051
738.1669	0.0061
738.3444	0.001
738.5218	0.0019
738.6993	-0.0073
738.8767	-0.0027
739.0541	0.0107
739.2315	-0.008
739.4089	0.0037
739.5863	0.004
739.7636	0.0009
739.9409	0.0062
740.1182	0.0093
740.2955	0.0057
740.4728	0.0107
740.65	-0.0075
740.8272	0.0045
741.0044	-0.0092
741.1816	-0.0016
741.3588	-0.0011
741.5359	0.0074
741.7131	-0.005
741.8902	-0.0008
742.0673	0.0026
742.2444	-0.0005
742.4214	-0.01
742.5985	0.0032
742.7755	-0.0032
742.9525	-0.0116
743.1295	0.0008
743.3064	0.0004
743.4834	0.0117
743.6603	-0.0016
743.8372	0.0046
744.0141	0.0049
744.191	-0.0009
744.3678	-0.0054
744.5446	0.0056
744.7215	0.0066
744.8982	-0.0041
745.075	-0.0126
745.2518	0.0043
745.4285	0.002
745.6052	-0.0065
745.7819	-0.0096
745.9586	-0.0059
746.1353	0.004
746.3119	-0.0122
746.4885	-0.0068
746.6651	-0.0139
746.8417	-0.007
747.0183	-0.0042
747.1948	-0.0031
747.3714	0.011
747.5479	0.0006
747.7244	-0.0048
747.9008	0.0078
748.0773	-0.0014
748.2537	-0.0058
748.4301	-0.02
748.6065	0.0031
748.7829	0.0056
748.9593	-0.0069
749.1356	0.0028
749.3119	0.011
749.4882	-0.0028
749.6645	0.0025
749.8408	0.0063
750.017	-0.0016
750.1933	-0.0043
750.3695	-0.004
750.5457	0.0046
750.7218	-0.0051
750.898	0.0045
751.0741	-0.0043
751.2502	-0.0112
751.4263	0.0005
751.6024	-0.0039
751.7784	-0.0067
751.9545	-0.0114
752.1305	-0.0065
752.3065	-0.0099
752.4825	0.0041
752.6584	-0.0119
752.8344	0.0017
753.0103	-0.0122
753.1862	-0.0004
753.3621	0.0016
753.5379	-0.0056
753.7138	0.0042
753.8896	-0.0009
754.0654	-0.0007
754.2412	0.0004
754.417	-0.0105
754.5927	-0.0108
754.7685	-0.0008
754.9442	-0.0046
755.1199	0.0089
755.2956	-0.003
755.4712	0.0015
755.6469	0.002
755.8225	-0.0063
755.9981	-0.0064
756.1736	0.0013
756.3492	-0.0037
756.5248	-0.0013
756.7003	0.0012
756.8758	0.0083
757.0513	-0.0086
757.2267	0.0002
757.4022	0.002
757.5776	-0.0037
757.753	-0.0022
757.9284	0.0037
758.1038	0.0116
758.2791	0.0045
758.4545	-0.0055
758.6298	0.002
758.8051	0.0032
758.9803	-0.0056
759.1556	-0.0013
759.3308	-0.0002
759.506	0.0117
759.6812	0.0083
759.8564	0.013
760.0316	0.0028
760.2067	0.0107
760.3819	0.0093
760.557	0.0176
760.732	-0.002
760.9071	-0.0066
761.0821	0.0076
761.2572	0.0089
761.4322	-0.0018
761.6072	0.0027
761.7821	-0.0071
761.9571	-0.0011
762.132	-0.0004
762.3069	-0.0061
762.4818	-0.0164
762.6567	0.0052
762.8316	-0.0031
763.0064	-0.0037
763.1812	-0.0084
763.356	-0.0075
763.5308	-0.0028
763.7055	0.002
763.8803	0.0051
764.055	-0.0015
764.2297	-0.0027
764.4044	-0.0028
764.579	-0.0083
764.7537	-0.0046
764.9283	-0.0041
765.1029	0.0034
765.2775	0.0031
765.4521	0.0001
765.6266	-0.002
765.8011	-0.0087
765.9756	-0.0044
766.1501	-0.0011
766.3246	-0.0033
766.4991	-0.0095
766.6735	-0.0044
766.8479	-0.0044
767.0223	0.0134
767.1967	-0.002
767.371	-0.0058
767.5454	-0.0022
767.7197	0.0025
767.894	-0.0045
768.0683	-0.0117
768.2425	-0.0023
768.4168	-0.003
768.591	0.009
768.7652	0.0037
768.9394	-0.0043
769.1135	0.0049
769.2877	0.0134
769.4618	0.0092
769.6359	-0.0008
769.81	-0.0018
769.984	-0.0024
770.1581	-0.0099
770.3321	0.0113
770.5061	-0.0047
770.6801	-0.0053
770.8541	-0.0006
771.028	0.011
771.202	-0.0097
771.3759	0.0047
771.5498	0.0043
771.7236	0.0067
771.8975	-0.0058
772.0713	0.0099
772.2451	0.0095
772.4189	0.0071
772.5927	0.0106
772.7665	0.0068
772.9402	-0.0078
773.1139	0.0068
773.2876	0.0094
773.4613	0.0136
773.635	0.0112
773.8086	-0.0036
773.9822	-0.0048
774.1558	0.0026
774.3294	-0.0267
774.503	0.0045
774.6765	0.0085
774.8501	0.0009
775.0236	0.0109
775.1971	0.0062
775.3705	-0.0097
775.544	0.0133
775.7174	-0.002
775.8908	-0.0008
776.0642	0.0044
776.2376	0.0034
776.4109	-0.005
776.5843	0.0147
776.7576	0.0081
776.9309	0.0125
777.1041	0.0087
777.2774	0.018
777.4506	0.0081
777.6238	0.0059
777.797	0.0142
777.9702	0.0071
778.1434	0.0053
778.3165	-0.0045
778.4896	-0.0063
778.6627	0.0034
778.8358	-0.0009
779.0089	-0.0058
779.1819	0.0112
779.3549	0.0153
779.5279	0.0166
779.7009	0.0004
779.8739	0.0069
780.0468	0.0038
780.2197	0.0179
780.3926	0.005
780.5655	0.0046
780.7384	0.0095
780.9112	0.0034
781.0841	0.0009
781.2569	0.0108
781.4297	-0.0039
781.6024	0.0057
781.7752	0.0264
781.9479	0.0231
782.1206	0.0089
782.2933	-0.003
782.466	0.0078
782.6386	0.0114
782.8113	0.0074
782.9839	0.0074
783.1565	0.0098
783.329	0.0056
783.5016	0.0039
783.6741	0.0009
783.8466	-0.0049
784.0191	0.0077
784.1916	0.0062
784.3641	-0.0056
784.5365	0.0112
784.7089	0.015
784.8813	0.0008
785.0537	-0.0024
785.2261	0.0113
785.3984	-0.002
785.5707	0.001
785.743	-0.0063
785.9153	0.0018
786.0876	-0.0022
786.2598	-0.0032
786.432	-0.0059
786.6042	0.0095
786.7764	-0.0033
786.9486	0.0089
787.1207	-0.0149
787.2928	0.0044
787.4649	0.0004
787.637	0.0091
787.8091	-0.005
787.9811	-0.011
788.1532	0.004
788.3252	0.0056
788.4972	-0.0168
788.6691	0.0087
788.8411	0.0002
789.013	-0.0078
789.1849	-0.0081
789.3568	-0.0015
789.5287	-0.0016
789.7005	-0.0058
789.8723	-0.0071
790.0442	0.0095
790.2159	0.0006
790.3877	-0.0079
790.5595	-0.0243
790.7312	0.0023
790.9029	-0.0064
791.0746	-0.0008
791.2463	0.0028
791.4179	0.0011
791.5896	-0.0051
791.7612	0.0188
791.9328	-0.0055
792.1044	-0.0072
792.2759	-0.0179
792.4474	-0.0076
792.619	0.0155
792.7905	0.0046
792.9619	0.0039
793.1334	0.0104
793.3048	0.0271
793.4762	0.0012
793.6476	0.017
793.819	0.0119
793.9904	0.0154
794.1617	-0.0108
794.333	-0.0062
794.5043	-0.0145
794.6756	-0.0074
794.8469	-0.0047
795.0181	-0.0132
795.1893	0.002
795.3605	0
795.5317	-0.0028
795.7029	-0.0118
795.874	0.0007
796.0452	-0.0208
796.2163	0.0094
796.3873	0.0105
796.5584	-0.008
796.7294	-0.0072
796.9005	-0.0129
797.0715	-0.0002
797.2425	-0.0065
797.4134	0
797.5844	0.0073
797.7553	-0.0039
797.9262	0.0011
798.0971	0.0032
798.2679	-0.0141
798.4388	-0.0079
798.6096	0.0031
798.7804	-0.0072
798.9512	-0.0072
799.122	0.0046
799.2927	-0.0019
799.4635	0.0109
799.6342	-0.01
799.8049	-0.0132
799.9755	-0.0027
800.1462	-0.0059
800.3168	0.0161
800.4874	-0.0205
800.658	0.029
800.8286	0.0095
800.9991	0.0068
801.1696	0.0115
801.3402	0.0027
801.5106	0.0014
801.6811	0.009
801.8516	0.0263
802.022	-0.0135
802.1924	-0.0073
802.3628	-0.0084
802.5332	-0.0059
802.7035	0.0071
802.8739	-0.0036
803.0442	-0.0102
803.2145	0.0107
803.3847	-0.0179
803.555	-0.0021
803.7252	-0.0104
803.8954	-0.012
804.0656	-0.0066
804.2358	0.0057
804.4059	0.0098
804.5761	-0.0028
804.7462	-0.0041
804.9163	0.0073
805.0864	-0.0196
805.2564	-0.0148
805.4264	-0.0104
805.5965	0.0034
805.7665	-0.0011
805.9364	0.0041
806.1064	0.0278
806.2763	0.0217
806.4462	0.0251
806.6161	0.019
806.786	0.0219
806.9559	-0.007
807.1257	-0.0083
807.2955	0.0071
807.4653	-0.0027
807.6351	-0.0103
807.8048	-0.0002
807.9746	0.0041
808.1443	0.0005
808.314	-0.0066
808.4837	-0.0171
808.6533	-0.0033
808.8229	0.0297
808.9926	0.0052
809.1622	-0.0076
809.3317	-0.0143
809.5013	-0.0081
809.6708	0.0076
809.8403	0.0148
810.0098	0.0023
810.1793	0.0008
810.3488	-0.0084
810.5182	-0.0062
810.6876	0.0228
810.857	-0.019
811.0264	0.0212
811.1958	0.0094
811.3651	0.0008
811.5344	-0.0039
811.7037	-0.024
811.873	-0.0056
812.0422	-0.0073
812.2115	-0.0021
812.3807	-0.0219
812.5499	0.0054
812.7191	0.0159
812.8882	-0.0153
813.0574	0.0025
813.2265	-0.0046
813.3956	-0.0005
813.5646	0.0009
813.7337	-0.024
813.9027	0.0025
814.0718	0.0184
814.2407	0.026
814.4097	0.0051
814.5787	-0.016
814.7476	-0.0064
814.9165	-0.0003
815.0854	-0.0009
815.2543	-0.0028
815.4232	0.0028
815.592	0.0108
815.7608	-0.0064
815.9296	0.0177
816.0984	0.0056
816.2671	-0.0026
816.4359	0.0113
816.6046	0.0028
816.7733	0.0105
816.942	-0.0178
817.1106	0.0135
817.2793	0.001
817.4479	0.0178
817.6165	0.0169
817.785	0.009
817.9536	-0.0192
818.1221	-0.0133
818.2906	-0.0147
818.4591	0.0086
818.6276	-0.0113
818.7961	-0.0237
818.9645	0.0169
819.1329	-0.003
819.3013	0.0183
819.4697	0.0239
819.638	0.008
819.8064	0.0206
819.9747	0.0236
820.143	0.0069
820.3113	-0.0075
820.4795	-0.0144
820.6477	-0.0108
820.816	-0.013
820.9842	0.0124
821.1523	-0.0155
821.3205	-0.0285
821.4886	-0.0043
821.6567	-0.0147
821.8248	0.0074
821.9929	-0.002
822.1609	-0.0209
822.329	0.0083
822.497	0.0397
822.665	0.0133
822.833	-0.0061
823.0009	-0.0067
823.1688	0.0145
823.3367	0.0306
823.5046	0.0027
823.6725	0.0157
823.8404	-0.0011
824.0082	0.0004
824.176	-0.0035
824.3438	-0.0031
824.5116	-0.0361
824.6793	0.0155
824.847	-0.0221
825.0147	-0.028
825.1824	0.0054
825.3501	0.002
825.5177	-0.0186
825.6854	-0.0072
825.853	-0.0066
826.0206	-0.024
826.1881	-0.0038
826.3557	-0.0171
826.5232	-0.0069
826.6907	-0.0223
826.8582	-0.0027
827.0257	-0.0328
827.1931	0.0046
827.3605	0.0105
827.528	0.0024
827.6953	-0.0198
827.8627	-0.0028
828.03	0.0363
828.1974	0.0029
828.3647	-0.0107
828.532	0.01
828.6992	0.0055
828.8665	0.0005
829.0337	-0.0075
829.2009	0.03
829.3681	-0.0204
829.5352	0.0321
829.7024	-0.0414
829.8695	-0.036
830.0366	0.0325
830.2037	-0.002
830.3707	0.0218
830.5378	0.0356
830.7048	-0.0176
830.8718	-0.0107
831.0388	-0.0405
831.2057	-0.0042
831.3727	-0.001
831.5396	-0.0253
831.7065	-0.0299
831.8734	0.0033
832.0402	-0.065
832.2071	-0.0171
832.3739	-0.0141
832.5407	-0.0146
832.7075	-0.0439
832.8742	-0.0072
833.041	-0.0508
833.2077	-0.0351
833.3744	0.012
833.541	-0.0101
833.7077	0.0359
833.8743	0.004
834.0409	-0.0126
834.2075	-0.024
834.3741	-0.0297
834.5407	0.0156
834.7072	0.0084
834.8737	-0.0117
835.0402	-0.0033
835.2067	-0.0236
835.3731	-0.0032
835.5395	0.015
835.706	-0.0095
835.8723	-0.0264
836.0387	0.0316
836.2051	-0.0295
836.3714	0.0154
836.5377	0.0133
836.704	-0.0021
836.8703	-0.0053
837.0365	0.0187
837.2027	-0.0111
837.3689	0.0221
837.5351	-0.0421
837.7013	-0.0255
837.8674	-0.0626
838.0335	-0.0059
838.1997	-0.0128
838.3657	-0.033
838.5318	-0.0247
838.6978	0.0132
838.8639	0.0129
839.0299	-0.0034
839.1958	-0.0085
839.3618	0.022
839.5277	-0.0454
839.6937	0.0126
839.8596	-0.0212
840.0254	0.0213
840.1913	-0.004
840.3571	0.0036
840.523	-0.0307
840.6888	-0.0402
840.8545	-0.0395
841.0203	0.0161
841.186	-0.0192
841.3517	-0.0132
841.5174	0.0384
841.6831	-0.0211
841.8488	0.026
842.0144	-0.0291
842.18	-0.0198
842.3456	-0.0027
842.5112	-0.0452
842.6767	-0.0191
842.8422	-0.056
843.0077	-0.0071
843.1732	0.0107
843.3387	-0.068
843.5042	0.0048
843.6696	-0.0234
843.835	0.0012
844.0004	0.0462
844.1657	-0.0492
844.3311	-0.043
844.4964	-0.0744
844.6617	-0.0473
844.827	0.0227
844.9923	-0.0743
845.1575	0.0085
845.3227	0.0106
845.4879	-0.0154
845.6531	-0.0456
845.8183	-0.0532
845.9834	-0.0122
846.1485	-0.0263
846.3136	-0.0246
846.4787	-0.0661
846.6438	0.052
846.8088	-0.0746
846.9738	-0.0982
847.1388	-0.0138
847.3038	-0.0291
847.4687	-0.1926
847.6337	0.0106
847.7986	-0.0269
847.9635	-0.0486
848.1284	0.0492
848.2932	0.1328
848.458	0.0564
848.6228	0.0823
848.7876	0.0247
848.9524	-0.0346
849.1172	-0.0737
849.2819	-0.0373
849.4466	-0.1219
849.6113	-0.0471
849.7759	0.0082
849.9406	-0.1005
850.1052	0.0503
850.2698	-0.0902
850.4344	-0.0057
850.599	-0.0878
850.7635	0.068
850.928	-0.0528
851.0925	0.0664
851.257	0.0091
851.4215	0.0062
851.5859	-0.0958
851.7503	0.0471
851.9147	-0.016
852.0791	-0.0116
852.2434	-0.0482
852.4078	0.0721
852.5721	0.0083
852.7364	-0.0694
852.9007	-0.1952
853.0649	-0.0995
853.2291	-0.0937
853.3934	0.0516
853.5575	0.0104
853.7217	-0.078
853.8859	-0.1503
854.05	-0.1071
854.2141	-0.0419
854.3782	-0.0679
854.5423	-0.0648
854.7063	0.1697
854.8703	0.0722
855.0343	-0.0121
855.1983	-0.1781
855.3623	0.0256
855.5262	0.1019
855.6901	-0.0937
855.854	0.0192
856.0179	0.0444
856.1818	0.148
856.3456	-0.1404
856.5094	-0.0794
856.6732	-0.1513
856.837	0.0228
857.0008	0.0059
857.1645	-0.1254
857.3282	-0.1987
857.4919	0.2528
857.6556	0.0961
857.8192	0.0677
857.9828	0.0514
858.1465	0.159
858.31	-0.2356
858.4736	0.0795
858.6372	-0.3259
858.8007	-0.1024
858.9642	0.059
859.1277	-0.0111
859.2911	-0.0265
859.4546	-0.0509
859.618	-0.4003
859.7814	-0.0652
859.9448	-0.0527
860.1081	-0.0151
860.2715	0.2109
860.4348	0.21
860.5981	-0.1149
860.7614	0.1747
860.9246	-0.064
861.0879	-0.3798
861.2511	0.0191
861.4143	-0.0764
861.5774	0.277
861.7406	-0.1824
861.9037	-0.2431
862.0668	-0.2726
862.2299	-0.1296
862.393	-0.3762
862.556	-0.0974
862.7191	-0.2086
862.8821	0.3615
863.0451	-0.0313
863.208	0.2537
863.371	0.0281
863.5339	-0.2182
863.6968	-0.0418
863.8597	0.0892
864.0225	-0.2598
864.1854	0.0008
864.3482	-0
864.511	0.2399
864.6737	0.1039
864.8365	-0.0619
864.9992	-0.5218
865.1619	0.0021
865.3246	0.1162
865.4873	0.0258
865.65	-0.42
865.8126	0.128
865.9752	-0.0649
866.1378	-0.3559
866.3004	0.112
866.4629	0.4887
866.6254	-0.2176
866.7879	0.9487
866.9504	0.2311
867.1129	-0
867.2753	-0.1312
867.4377	-0.0165
867.6001	-0.158
867.7625	0.1694
867.9249	0.5933
868.0872	-0.2085
868.2495	-0.0715
868.4118	0.068
868.5741	-0.4344
868.7363	-0.2839
868.8986	-0.6905
869.0608	-0.2525
869.223	-0.1014
869.3851	-0
869.5473	-0
869.7094	0.8186
869.8715	-0.6479
870.0336	-0.1406
870.1957	0.3962
870.3577	-1.3591
870.5197	-0.0245
870.6817	0.1472
870.8437	-0.2432
871.0057	-0
871.1676	-0.5124
871.3295	-0.0647
871.4914	-0
871.6533	-0.3774
871.8151	-0.6839
871.977	-0
872.1388	-0
872.3006	0.0322
872.4623	-0
872.6241	0.2165
872.7858	0.3289
872.9475	-0.3988
873.1092	-0.4152
873.2709	0.0253
873.4325	0.1298
873.5941	0.4369
873.7557	-0
873.9173	-0.2797
874.0789	0.2638
874.2404	-0
874.4019	-0
874.5634	-0.1831
874.7249	0.393
874.8863	2.6721
875.0478	0.0733
875.2092	-0
875.3706	0.1388
875.5319	-0.369
875.6933	0.1303
875.8546	-0.0414
876.0159	-0
876.1772	1.4977
876.3385	-0.1617
876.4997	0.1703
876.6609	-0.3297
876.8221	-0
876.9833	-0
877.1445	-0
877.3056	0.0508
877.4667	-0.0226
877.6278	-0
877.7889	-0.7107
877.9499	-0
878.111	-0.6862
878.272	-0.99
878.433	-0
878.5939	0.4129
878.7549	-0.0109
878.9158	-0.4035
879.0767	0.8818
879.2376	1.415
879.3984	-0.1527
879.5593	-0
879.7201	-0
879.8809	-0.5501
880.0417	-0.3116
880.2024	-0.023
880.3632	-0.7089
880.5239	0.3203
880.6846	0.2763
880.8452	-2.5112
881.0059	-1.7686
881.1665	0.0503
881.3271	-0
881.4877	-0.4092
881.6483	0.2692
881.8088	-0.6479
881.9693	-0
882.1298	-0
882.2903	-0
