Data from MonoPyChalIsomerACN10uM340nmA_Absorbance_14-14-16-365.txt Node
Date: Fri Jul 05 14:14:16 BST 2024
User: LASERRRRR
Spectrometer: FLMT03099
Trigger mode: 0
Integration Time (sec): 1.000000E-1
Scans to average: 1
Electric dark correction enabled: true
Nonlinearity correction enabled: false
Boxcar width: 0
XAxis mode: Wavelengths
Number of Pixels in Spectrum: 3648
>>>>>Begin Spectral Data<<<<<
179.3399	-0.155
179.5586	-0.155
179.7771	-0.155
179.9957	0.0288
180.2143	-0
180.4329	0.7898
180.6514	-0
180.8699	-0
181.0885	-0.2805
181.307	0.1592
181.5255	-0.6161
181.744	-0.6112
181.9625	-0
182.181	-1.0275
182.3994	0.6277
182.6179	-0
182.8363	0.6894
183.0547	-0.1987
183.2732	0.3258
183.4916	-0.0458
183.71	0.1881
183.9284	0.149
184.1467	0.0005
184.3651	-0.0137
184.5835	0.0188
184.8018	0.3622
185.0201	0.2092
185.2385	0.1037
185.4568	0.2826
185.6751	0.0367
185.8934	0.4345
186.1117	0.0041
186.3299	0.0505
186.5482	0.2626
186.7664	-0.2222
186.9847	-0.1489
187.2029	0.1197
187.4211	0.1826
187.6393	0.2512
187.8575	-0.0552
188.0757	0.185
188.2939	0.1604
188.512	0.1308
188.7302	-0.0111
188.9483	-0.0058
189.1665	0.1524
189.3846	0.1009
189.6027	0.2875
189.8208	0.2791
190.0389	0.1605
190.257	0.235
190.475	0.3144
190.6931	0.3946
190.9111	0.6315
191.1292	0.1944
191.3472	0.473
191.5652	0.2992
191.7832	0.4512
192.0012	0.5417
192.2192	0.477
192.4371	0.4204
192.6551	0.2888
192.873	0.5558
193.091	0.3808
193.3089	0.8752
193.5268	0.4939
193.7447	0.504
193.9626	0.5235
194.1805	0.5607
194.3984	0.7725
194.6162	0.4481
194.8341	0.5379
195.0519	0.534
195.2697	0.9397
195.4875	0.6869
195.7054	0.7204
195.9231	0.708
196.1409	0.5889
196.3587	0.7123
196.5765	0.5381
196.7942	0.6267
197.012	0.6158
197.2297	0.653
197.4474	0.7008
197.6651	0.585
197.8828	0.5195
198.1005	0.7307
198.3182	0.6182
198.5358	0.7209
198.7535	0.5611
198.9711	0.5768
199.1888	0.7136
199.4064	0.7721
199.624	0.6526
199.8416	0.6903
200.0592	0.5579
200.2767	0.7593
200.4943	0.7145
200.7119	0.9066
200.9294	0.6665
201.1469	0.5578
201.3645	0.5827
201.582	0.6186
201.7995	0.7663
202.017	0.6077
202.2344	0.6136
202.4519	0.6719
202.6694	0.602
202.8868	0.6738
203.1042	0.5513
203.3217	0.9351
203.5391	0.6498
203.7565	0.6594
203.9739	0.6325
204.1913	0.6121
204.4086	0.6346
204.626	0.7624
204.8433	0.8016
205.0607	0.5857
205.278	0.7422
205.4953	0.6399
205.7126	0.5997
205.9299	0.7983
206.1472	0.6681
206.3644	0.6388
206.5817	0.7074
206.7989	0.6704
207.0162	0.6747
207.2334	0.7435
207.4506	0.6085
207.6678	0.6475
207.885	0.6052
208.1022	0.5941
208.3194	0.5912
208.5365	0.6335
208.7537	0.6716
208.9708	0.6419
209.1879	0.6357
209.405	0.6679
209.6222	0.6937
209.8392	0.6141
210.0563	0.5832
210.2734	0.6442
210.4905	0.632
210.7075	0.7337
210.9245	0.5972
211.1416	0.6474
211.3586	0.6904
211.5756	0.5825
211.7926	0.5987
212.0096	0.5231
212.2265	0.5601
212.4435	0.5678
212.6604	0.6305
212.8774	0.5698
213.0943	0.6496
213.3112	0.5432
213.5281	0.5172
213.745	0.5193
213.9619	0.5197
214.1788	0.4747
214.3956	0.4562
214.6125	0.4928
214.8293	0.4464
215.0461	0.5033
215.2629	0.4693
215.4798	0.4859
215.6965	0.444
215.9133	0.4618
216.1301	0.4121
216.3469	0.4558
216.5636	0.3989
216.7803	0.3948
216.9971	0.4501
217.2138	0.3664
217.4305	0.389
217.6472	0.3492
217.8639	0.3802
218.0805	0.3534
218.2972	0.3081
218.5138	0.3049
218.7305	0.3311
218.9471	0.3073
219.1637	0.2889
219.3803	0.2685
219.5969	0.3016
219.8135	0.2502
220.0301	0.2749
220.2466	0.2893
220.4632	0.2802
220.6797	0.2437
220.8962	0.2547
221.1127	0.2716
221.3292	0.2499
221.5457	0.2378
221.7622	0.2446
221.9787	0.2431
222.1951	0.2569
222.4116	0.2745
222.628	0.2445
222.8444	0.2685
223.0608	0.2635
223.2772	0.265
223.4936	0.2736
223.71	0.2523
223.9264	0.2666
224.1427	0.2769
224.3591	0.2742
224.5754	0.2709
224.7917	0.2701
225.008	0.2619
225.2243	0.2823
225.4406	0.2865
225.6569	0.2743
225.8732	0.2726
226.0894	0.27
226.3057	0.2643
226.5219	0.3182
226.7381	0.2749
226.9543	0.2975
227.1705	0.2907
227.3867	0.2746
227.6029	0.2815
227.8191	0.2934
228.0352	0.3203
228.2513	0.3362
228.4675	0.3207
228.6836	0.2963
228.8997	0.3016
229.1158	0.2984
229.3319	0.3324
229.548	0.3212
229.764	0.3353
229.9801	0.3365
230.1961	0.3381
230.4121	0.3256
230.6282	0.3322
230.8442	0.3274
231.0602	0.3462
231.2761	0.3626
231.4921	0.3546
231.7081	0.3529
231.924	0.3612
232.14	0.3666
232.3559	0.3502
232.5718	0.3838
232.7877	0.3617
233.0036	0.3564
233.2195	0.3646
233.4353	0.3694
233.6512	0.3778
233.867	0.3794
234.0829	0.3567
234.2987	0.3869
234.5145	0.3715
234.7303	0.374
234.9461	0.4106
235.1619	0.3737
235.3776	0.3864
235.5934	0.3934
235.8091	0.3869
236.0249	0.3988
236.2406	0.3832
236.4563	0.3892
236.672	0.4063
236.8877	0.4201
237.1034	0.3827
237.319	0.4049
237.5347	0.4011
237.7503	0.408
237.966	0.4139
238.1816	0.4109
238.3972	0.4128
238.6128	0.4053
238.8284	0.4044
239.0439	0.4378
239.2595	0.4116
239.475	0.4144
239.6906	0.4181
239.9061	0.4142
240.1216	0.431
240.3371	0.3918
240.5526	0.4143
240.7681	0.3984
240.9836	0.3864
241.199	0.4085
241.4145	0.3959
241.6299	0.3878
241.8453	0.3908
242.0607	0.3797
242.2761	0.3667
242.4915	0.3755
242.7069	0.3554
242.9223	0.3516
243.1376	0.353
243.353	0.3279
243.5683	0.3477
243.7836	0.3246
243.9989	0.3307
244.2142	0.2945
244.4295	0.302
244.6448	0.3031
244.86	0.3049
245.0753	0.2788
245.2905	0.2619
245.5057	0.2834
245.721	0.2755
245.9362	0.2705
246.1514	0.2645
246.3665	0.2588
246.5817	0.2562
246.7969	0.2348
247.012	0.2326
247.2271	0.2262
247.4423	0.2373
247.6574	0.2286
247.8725	0.2261
248.0876	0.2114
248.3026	0.2135
248.5177	0.2168
248.7328	0.2172
248.9478	0.1954
249.1628	0.2138
249.3779	0.2103
249.5929	0.2031
249.8079	0.2144
250.0228	0.2042
250.2378	0.2
250.4528	0.2029
250.6677	0.1819
250.8827	0.1941
251.0976	0.1861
251.3125	0.2016
251.5274	0.1714
251.7423	0.174
251.9572	0.1809
252.172	0.1828
252.3869	0.1901
252.6017	0.1782
252.8166	0.1688
253.0314	0.1698
253.2462	0.1658
253.461	0.1824
253.6758	0.1725
253.8906	0.1757
254.1053	0.1691
254.3201	0.1707
254.5348	0.19
254.7496	0.1812
254.9643	0.1679
255.179	0.1626
255.3937	0.1721
255.6083	0.1758
255.823	0.1811
256.0377	0.1667
256.2523	0.1689
256.467	0.1512
256.6816	0.1706
256.8962	0.1646
257.1108	0.1638
257.3254	0.171
257.54	0.1632
257.7545	0.1692
257.9691	0.175
258.1836	0.1777
258.3981	0.1762
258.6127	0.1766
258.8272	0.1622
259.0417	0.1614
259.2561	0.1608
259.4706	0.1646
259.6851	0.1746
259.8995	0.1554
260.114	0.1725
260.3284	0.1723
260.5428	0.1477
260.7572	0.1716
260.9716	0.1637
261.186	0.1554
261.4003	0.1651
261.6147	0.1695
261.829	0.1536
262.0433	0.1601
262.2577	0.1538
262.472	0.1488
262.6863	0.1483
262.9005	0.1552
263.1148	0.1669
263.3291	0.1402
263.5433	0.1474
263.7576	0.1567
263.9718	0.1685
264.186	0.1686
264.4002	0.1456
264.6144	0.163
264.8286	0.1694
265.0427	0.1588
265.2569	0.1508
265.471	0.1571
265.6851	0.159
265.8993	0.1494
266.1134	0.1492
266.3275	0.162
266.5415	0.1503
266.7556	0.1695
266.9697	0.1618
267.1837	0.1545
267.3978	0.1447
267.6118	0.1723
267.8258	0.1688
268.0398	0.1515
268.2538	0.1668
268.4677	0.169
268.6817	0.1551
268.8957	0.1538
269.1096	0.1596
269.3235	0.1569
269.5374	0.1482
269.7514	0.1528
269.9652	0.1446
270.1791	0.1515
270.393	0.1471
270.6068	0.1426
270.8207	0.1376
271.0345	0.1421
271.2483	0.1511
271.4622	0.1382
271.676	0.1427
271.8897	0.1294
272.1035	0.1392
272.3173	0.1377
272.531	0.1465
272.7448	0.1432
272.9585	0.1326
273.1722	0.1418
273.3859	0.1417
273.5996	0.1309
273.8133	0.1378
274.0269	0.1307
274.2406	0.1287
274.4542	0.1283
274.6679	0.1227
274.8815	0.1325
275.0951	0.1385
275.3087	0.1315
275.5223	0.1398
275.7358	0.1315
275.9494	0.1364
276.1629	0.1287
276.3765	0.1329
276.59	0.1396
276.8035	0.1331
277.017	0.141
277.2305	0.1363
277.444	0.1428
277.6574	0.1271
277.8709	0.1473
278.0843	0.1209
278.2978	0.1425
278.5112	0.1353
278.7246	0.1317
278.938	0.1296
279.1513	0.1459
279.3647	0.1461
279.5781	0.1354
279.7914	0.1526
280.0047	0.1468
280.2181	0.1518
280.4314	0.1499
280.6447	0.1464
280.8579	0.1341
281.0712	0.1547
281.2845	0.1539
281.4977	0.1455
281.711	0.1394
281.9242	0.1539
282.1374	0.1391
282.3506	0.1405
282.5638	0.1544
282.7769	0.1557
282.9901	0.1469
283.2033	0.1438
283.4164	0.1619
283.6295	0.1489
283.8426	0.1441
284.0557	0.1518
284.2688	0.1494
284.4819	0.15
284.695	0.1572
284.908	0.1657
285.1211	0.1451
285.3341	0.1563
285.5471	0.1562
285.7601	0.1578
285.9731	0.1493
286.1861	0.1447
286.3991	0.1663
286.612	0.167
286.825	0.1649
287.0379	0.1601
287.2508	0.1706
287.4637	0.1549
287.6766	0.1489
287.8895	0.1657
288.1024	0.1785
288.3152	0.1623
288.5281	0.1554
288.7409	0.1758
288.9538	0.1623
289.1666	0.1574
289.3794	0.1652
289.5922	0.1581
289.8049	0.1597
290.0177	0.1646
290.2304	0.1707
290.4432	0.1776
290.6559	0.1697
290.8686	0.1746
291.0813	0.1713
291.294	0.1768
291.5067	0.1791
291.7194	0.1657
291.932	0.1805
292.1447	0.172
292.3573	0.1598
292.5699	0.1748
292.7825	0.1748
292.9951	0.1784
293.2077	0.1711
293.4203	0.1767
293.6328	0.1591
293.8454	0.1809
294.0579	0.1699
294.2704	0.1796
294.4829	0.1535
294.6954	0.1754
294.9079	0.1677
295.1204	0.1685
295.3328	0.1642
295.5453	0.1787
295.7577	0.1797
295.9701	0.1656
296.1825	0.1768
296.3949	0.1681
296.6073	0.1728
296.8197	0.1518
297.0321	0.1836
297.2444	0.1718
297.4567	0.1735
297.6691	0.1712
297.8814	0.1636
298.0937	0.1744
298.306	0.1682
298.5182	0.1759
298.7305	0.1657
298.9428	0.1631
299.155	0.1703
299.3672	0.1636
299.5794	0.1659
299.7916	0.1671
300.0038	0.1792
300.216	0.168
300.4282	0.1691
300.6403	0.1662
300.8525	0.1808
301.0646	0.1617
301.2767	0.1739
301.4888	0.1667
301.7009	0.1695
301.913	0.1812
302.125	0.1787
302.3371	0.1592
302.5491	0.1619
302.7612	0.1765
302.9732	0.177
303.1852	0.1815
303.3972	0.1726
303.6092	0.1692
303.8211	0.1649
304.0331	0.1628
304.245	0.1687
304.457	0.1633
304.6689	0.1548
304.8808	0.1721
305.0927	0.155
305.3046	0.1551
305.5164	0.1629
305.7283	0.1433
305.9401	0.1573
306.152	0.1504
306.3638	0.152
306.5756	0.1429
306.7874	0.1577
306.9992	0.1608
307.2109	0.1363
307.4227	0.1404
307.6344	0.1606
307.8462	0.1308
308.0579	0.1422
308.2696	0.1389
308.4813	0.1254
308.693	0.1348
308.9046	0.133
309.1163	0.1375
309.328	0.1292
309.5396	0.1263
309.7512	0.1189
309.9628	0.1232
310.1744	0.1188
310.386	0.1225
310.5976	0.1247
310.8091	0.1167
311.0207	0.1252
311.2322	0.1175
311.4437	0.1172
311.6552	0.1055
311.8667	0.1106
312.0782	0.1005
312.2897	0.0936
312.5012	0.1071
312.7126	0.0996
312.924	0.1002
313.1355	0.1063
313.3469	0.1116
313.5583	0.1078
313.7696	0.0989
313.981	0.1047
314.1924	0.0992
314.4037	0.0936
314.6151	0.109
314.8264	0.0901
315.0377	0.0864
315.249	0.1024
315.4603	0.1073
315.6716	0.0988
315.8828	0.0897
316.0941	0.0991
316.3053	0.0849
316.5165	0.0879
316.7277	0.0852
316.9389	0.095
317.1501	0.0854
317.3613	0.0985
317.5724	0.0909
317.7836	0.1074
317.9947	0.0852
318.2058	0.0865
318.417	0.0905
318.6281	0.0777
318.8391	0.0828
319.0502	0.0876
319.2613	0.099
319.4723	0.0898
319.6834	0.108
319.8944	0.0777
320.1054	0.0897
320.3164	0.0906
320.5274	0.0906
320.7383	0.0918
320.9493	0.087
321.1602	0.0964
321.3712	0.082
321.5821	0.094
321.793	0.0937
322.0039	0.0851
322.2148	0.0829
322.4257	0.0921
322.6365	0.099
322.8474	0.0893
323.0582	0.089
323.269	0.1009
323.4798	0.0999
323.6906	0.0915
323.9014	0.087
324.1122	0.103
324.3229	0.0922
324.5337	0.1022
324.7444	0.0828
324.9551	0.1082
325.1658	0.0923
325.3765	0.0965
325.5872	0.0913
325.7979	0.0928
326.0085	0.0978
326.2192	0.1043
326.4298	0.0951
326.6404	0.0956
326.851	0.0906
327.0616	0.0823
327.2722	0.1009
327.4828	0.1048
327.6933	0.0834
327.9039	0.1051
328.1144	0.102
328.3249	0.0989
328.5354	0.0901
328.7459	0.1054
328.9564	0.0931
329.1669	0.0955
329.3773	0.0982
329.5878	0.0916
329.7982	0.1023
330.0086	0.1031
330.219	0.1008
330.4294	0.0948
330.6398	0.0959
330.8502	0.0878
331.0605	0.1057
331.2708	0.1028
331.4812	0.0973
331.6915	0.0961
331.9018	0.1007
332.1121	0.096
332.3224	0.0887
332.5326	0.0991
332.7429	0.1084
332.9531	0.1109
333.1633	0.1009
333.3735	0.1
333.5837	0.0876
333.7939	0.0973
334.0041	0.1011
334.2143	0.1077
334.4244	0.1036
334.6346	0.0846
334.8447	0.1095
335.0548	0.0948
335.2649	0.0887
335.475	0.1062
335.685	0.0994
335.8951	0.1117
336.1051	0.1033
336.3152	0.1073
336.5252	0.0919
336.7352	0.1087
336.9452	0.1011
337.1552	0.1002
337.3652	0.0948
337.5751	0.0977
337.7851	0.1046
337.995	0.1009
338.2049	0.1182
338.4148	0.1103
338.6247	0.1048
338.8346	0.1127
339.0445	0.1031
339.2543	0.0986
339.4642	0.1074
339.674	0.0941
339.8838	0.1176
340.0936	0.1071
340.3034	0.119
340.5132	0.1102
340.7229	0.1083
340.9327	0.0997
341.1424	0.1021
341.3522	0.1128
341.5619	0.1065
341.7716	0.1081
341.9813	0.1129
342.1909	0.1072
342.4006	0.1188
342.6102	0.1199
342.8199	0.115
343.0295	0.118
343.2391	0.1142
343.4487	0.1239
343.6583	0.111
343.8679	0.1155
344.0774	0.1175
344.287	0.1187
344.4965	0.1119
344.706	0.1191
344.9155	0.1207
345.125	0.1183
345.3345	0.1321
345.544	0.1207
345.7534	0.1167
345.9629	0.118
346.1723	0.1259
346.3817	0.1162
346.5911	0.1164
346.8005	0.1275
347.0099	0.1339
347.2193	0.1289
347.4286	0.1262
347.638	0.146
347.8473	0.1383
348.0566	0.1386
348.2659	0.137
348.4752	0.1295
348.6845	0.1251
348.8937	0.1255
349.103	0.1311
349.3122	0.1143
349.5214	0.1249
349.7306	0.1212
349.9398	0.1226
350.149	0.1339
350.3582	0.127
350.5674	0.1451
350.7765	0.1206
350.9856	0.1163
351.1948	0.1375
351.4039	0.1268
351.613	0.1311
351.822	0.1377
352.0311	0.1393
352.2402	0.1357
352.4492	0.1412
352.6582	0.1557
352.8672	0.1382
353.0762	0.1439
353.2852	0.1493
353.4942	0.1266
353.7032	0.146
353.9121	0.1424
354.1211	0.1398
354.33	0.1499
354.5389	0.1629
354.7478	0.1534
354.9567	0.1398
355.1655	0.1345
355.3744	0.1576
355.5833	0.1593
355.7921	0.1689
356.0009	0.1639
356.2097	0.1823
356.4185	0.1616
356.6273	0.1597
356.8361	0.1651
357.0448	0.1435
357.2536	0.1484
357.4623	0.1475
357.671	0.165
357.8797	0.1666
358.0884	0.1723
358.2971	0.1517
358.5057	0.1619
358.7144	0.1747
358.923	0.1694
359.1316	0.1529
359.3402	0.1746
359.5488	0.161
359.7574	0.1589
359.966	0.1798
360.1746	0.1837
360.3831	0.1846
360.5916	0.1719
360.8002	0.1712
361.0087	0.176
361.2172	0.1825
361.4256	0.1686
361.6341	0.1819
361.8426	0.1875
362.051	0.187
362.2594	0.196
362.4678	0.1876
362.6762	0.1824
362.8846	0.1817
363.093	0.1708
363.3014	0.1806
363.5097	0.1668
363.718	0.1894
363.9264	0.1963
364.1347	0.1868
364.343	0.2082
364.5513	0.2069
364.7595	0.2047
364.9678	0.1904
365.176	0.2059
365.3842	0.1964
365.5925	0.2158
365.8007	0.2126
366.0089	0.206
366.217	0.1979
366.4252	0.2127
366.6333	0.2072
366.8415	0.2092
367.0496	0.2143
367.2577	0.219
367.4658	0.2363
367.6739	0.2101
367.882	0.2224
368.09	0.2219
368.2981	0.2228
368.5061	0.2039
368.7141	0.2129
368.9221	0.2203
369.1301	0.2221
369.3381	0.21
369.5461	0.2199
369.754	0.2165
369.962	0.2365
370.1699	0.2189
370.3778	0.2234
370.5857	0.2171
370.7936	0.2288
371.0015	0.2247
371.2093	0.2411
371.4172	0.2316
371.625	0.2103
371.8328	0.2328
372.0406	0.2224
372.2484	0.2189
372.4562	0.2362
372.664	0.2271
372.8717	0.246
373.0795	0.2221
373.2872	0.2381
373.4949	0.24
373.7026	0.2425
373.9103	0.2576
374.118	0.2338
374.3256	0.2454
374.5333	0.2313
374.7409	0.2443
374.9485	0.2624
375.1561	0.2528
375.3637	0.254
375.5713	0.2393
375.7789	0.2422
375.9864	0.2494
376.194	0.244
376.4015	0.244
376.609	0.2738
376.8165	0.2576
377.024	0.2464
377.2315	0.2357
377.4389	0.265
377.6464	0.2585
377.8538	0.2558
378.0612	0.2582
378.2686	0.2604
378.476	0.2532
378.6834	0.2445
378.8908	0.2529
379.0981	0.2649
379.3055	0.2654
379.5128	0.2492
379.7201	0.2605
379.9274	0.2409
380.1347	0.2549
380.342	0.2586
380.5492	0.2549
380.7565	0.2725
380.9637	0.2815
381.1709	0.2641
381.3781	0.2574
381.5853	0.2979
381.7925	0.2793
381.9997	0.2821
382.2068	0.2804
382.4139	0.2793
382.6211	0.2826
382.8282	0.2673
383.0353	0.2612
383.2424	0.2743
383.4494	0.2918
383.6565	0.2792
383.8635	0.2817
384.0706	0.2931
384.2776	0.2916
384.4846	0.2844
384.6916	0.2703
384.8986	0.2663
385.1055	0.2882
385.3125	0.2773
385.5194	0.2755
385.7263	0.2868
385.9333	0.2891
386.1402	0.2803
386.347	0.2684
386.5539	0.2847
386.7608	0.2845
386.9676	0.2691
387.1744	0.2719
387.3813	0.2767
387.5881	0.2907
387.7948	0.2736
388.0016	0.2621
388.2084	0.2848
388.4151	0.2685
388.6219	0.2777
388.8286	0.2694
389.0353	0.2857
389.242	0.2614
389.4487	0.2667
389.6553	0.2693
389.862	0.2377
390.0686	0.2634
390.2753	0.2614
390.4819	0.2776
390.6885	0.2617
390.8951	0.2736
391.1016	0.2614
391.3082	0.2609
391.5147	0.2638
391.7213	0.2634
391.9278	0.2559
392.1343	0.2423
392.3408	0.2587
392.5473	0.243
392.7537	0.2585
392.9602	0.2515
393.1666	0.2664
393.373	0.2567
393.5794	0.2718
393.7858	0.2426
393.9922	0.2333
394.1986	0.2578
394.4049	0.2688
394.6113	0.2415
394.8176	0.2288
395.0239	0.2402
395.2302	0.2428
395.4365	0.2397
395.6428	0.2351
395.8491	0.2315
396.0553	0.2361
396.2615	0.2428
396.4678	0.2473
396.674	0.2241
396.8802	0.2274
397.0863	0.2495
397.2925	0.2314
397.4987	0.2182
397.7048	0.2397
397.9109	0.2424
398.117	0.2346
398.3231	0.2334
398.5292	0.2325
398.7353	0.238
398.9413	0.2438
399.1474	0.216
399.3534	0.2268
399.5594	0.2236
399.7654	0.2365
399.9714	0.2562
400.1774	0.2343
400.3833	0.2237
400.5893	0.2314
400.7952	0.2469
401.0011	0.2429
401.207	0.2318
401.4129	0.2388
401.6188	0.2459
401.8247	0.2301
402.0305	0.223
402.2364	0.2401
402.4422	0.2536
402.648	0.2546
402.8538	0.2385
403.0596	0.2221
403.2654	0.2373
403.4711	0.2278
403.6768	0.2437
403.8826	0.2353
404.0883	0.2323
404.294	0.2379
404.4997	0.2263
404.7054	0.2234
404.911	0.2222
405.1167	0.2176
405.3223	0.2427
405.5279	0.2522
405.7335	0.2334
405.9391	0.26
406.1447	0.2255
406.3502	0.2522
406.5558	0.2222
406.7613	0.2486
406.9668	0.2474
407.1724	0.2282
407.3778	0.2281
407.5833	0.2354
407.7888	0.241
407.9942	0.2255
408.1997	0.2134
408.4051	0.2291
408.6105	0.2363
408.8159	0.2198
409.0213	0.2237
409.2267	0.2462
409.432	0.2306
409.6374	0.2258
409.8427	0.216
410.048	0.2228
410.2533	0.2196
410.4586	0.2334
410.6639	0.2496
410.8691	0.2332
411.0744	0.2205
411.2796	0.2216
411.4848	0.2462
411.69	0.2123
411.8952	0.2536
412.1004	0.2134
412.3056	0.2333
412.5107	0.2287
412.7158	0.2378
412.921	0.2481
413.1261	0.2268
413.3312	0.2304
413.5362	0.2366
413.7413	0.2375
413.9464	0.237
414.1514	0.2318
414.3564	0.2239
414.5614	0.233
414.7664	0.2291
414.9714	0.2263
415.1764	0.2155
415.3813	0.2274
415.5863	0.2226
415.7912	0.2298
415.9961	0.2233
416.201	0.2321
416.4059	0.2347
416.6108	0.2169
416.8156	0.2261
417.0205	0.2163
417.2253	0.2066
417.4301	0.2288
417.6349	0.2225
417.8397	0.2236
418.0445	0.2275
418.2492	0.2422
418.454	0.2228
418.6587	0.2234
418.8634	0.221
419.0681	0.1998
419.2728	0.1913
419.4775	0.2177
419.6822	0.1998
419.8868	0.2096
420.0915	0.217
420.2961	0.1949
420.5007	0.1914
420.7053	0.2154
420.9099	0.2288
421.1144	0.2194
421.319	0.2129
421.5235	0.2194
421.728	0.2318
421.9325	0.2094
422.137	0.2307
422.3415	0.194
422.546	0.2138
422.7504	0.1991
422.9549	0.2111
423.1593	0.2068
423.3637	0.2134
423.5681	0.1942
423.7725	0.2082
423.9769	0.2026
424.1812	0.1964
424.3856	0.1945
424.5899	0.1993
424.7942	0.2028
424.9985	0.207
425.2028	0.1756
425.4071	0.2276
425.6113	0.1801
425.8156	0.1967
426.0198	0.197
426.224	0.1747
426.4282	0.1901
426.6324	0.1768
426.8366	0.183
427.0407	0.1642
427.2449	0.1857
427.449	0.1882
427.6531	0.1758
427.8572	0.1849
428.0613	0.1698
428.2654	0.1707
428.4694	0.1928
428.6735	0.1723
428.8775	0.1753
429.0815	0.1785
429.2855	0.1814
429.4895	0.1754
429.6935	0.1784
429.8975	0.1688
430.1014	0.1731
430.3053	0.1502
430.5093	0.16
430.7132	0.1452
430.9171	0.1671
431.1209	0.1559
431.3248	0.1493
431.5286	0.1519
431.7325	0.169
431.9363	0.1392
432.1401	0.1837
432.3439	0.1447
432.5477	0.1373
432.7514	0.1299
432.9552	0.1445
433.1589	0.1538
433.3627	0.1325
433.5664	0.1363
433.7701	0.1334
433.9737	0.122
434.1774	0.1451
434.3811	0.1264
434.5847	0.1502
434.7883	0.1318
434.9919	0.1218
435.1955	0.1135
435.3991	0.1302
435.6027	0.1348
435.8062	0.1196
436.0098	0.1176
436.2133	0.1079
436.4168	0.1026
436.6203	0.0998
436.8238	0.1115
437.0272	0.1077
437.2307	0.116
437.4341	0.1112
437.6375	0.1224
437.841	0.1038
438.0443	0.1182
438.2477	0.1076
438.4511	0.0897
438.6545	0.1011
438.8578	0.1143
439.0611	0.093
439.2644	0.0977
439.4677	0.0857
439.671	0.1003
439.8743	0.0833
440.0775	0.0913
440.2808	0.0857
440.484	0.0836
440.6872	0.0618
440.8904	0.0857
441.0936	0.0991
441.2967	0.0783
441.4999	0.0952
441.703	0.0755
441.9062	0.0767
442.1093	0.0821
442.3124	0.0891
442.5155	0.0583
442.7185	0.0746
442.9216	0.0452
443.1246	0.0753
443.3276	0.0645
443.5307	0.0654
443.7337	0.0777
443.9366	0.0652
444.1396	0.065
444.3426	0.064
444.5455	0.0604
444.7484	0.0511
444.9513	0.0611
445.1542	0.0733
445.3571	0.0414
445.56	0.055
445.7628	0.0341
445.9657	0.0506
446.1685	0.0666
446.3713	0.0574
446.5741	0.0514
446.7769	0.056
446.9797	0.0413
447.1824	0.0418
447.3852	0.0285
447.5879	0.0522
447.7906	0.0469
447.9933	0.0524
448.196	0.0292
448.3986	0.0333
448.6013	0.0436
448.8039	0.0177
449.0066	0.0317
449.2092	0.0418
449.4118	0.0437
449.6143	0.0415
449.8169	0.0553
450.0195	0.0237
450.222	0.0095
450.4245	0.0425
450.627	0.0396
450.8295	0.031
451.032	0.0274
451.2345	0.0273
451.4369	0.0366
451.6394	0.0254
451.8418	0.0127
452.0442	0.0237
452.2466	0.0347
452.449	0.0175
452.6513	0.021
452.8537	0.0178
453.056	-0.0065
453.2583	0.0191
453.4607	0.0156
453.663	0.0167
453.8652	0.0322
454.0675	0.0262
454.2697	0.0274
454.472	0.0047
454.6742	0.0296
454.8764	0.0229
455.0786	0.0235
455.2808	0.0213
455.4829	0.0113
455.6851	0.0182
455.8872	0.0193
456.0893	0.0407
456.2915	0.0017
456.4935	0.0228
456.6956	0.002
456.8977	0.0286
457.0997	0.0295
457.3018	0.0132
457.5038	0.0193
457.7058	0.0091
457.9078	0.0067
458.1098	0.0185
458.3117	0.0132
458.5137	0.0205
458.7156	0.0238
458.9175	-0.0016
459.1194	0.0182
459.3213	0.001
459.5232	0.0144
459.725	0.0042
459.9269	-0.0118
460.1287	-0.0061
460.3305	-0.0032
460.5323	0.0028
460.7341	0.0137
460.9359	0.0311
461.1376	0.0178
461.3394	0.0043
461.5411	0.0214
461.7428	0.0105
461.9445	0.0145
462.1462	0.0271
462.3479	0.0041
462.5495	0.0138
462.7512	0.0219
462.9528	0.0012
463.1544	-0.0036
463.356	-0.0019
463.5576	0.0165
463.7592	-0.0171
463.9607	0.0201
464.1623	0.0095
464.3638	0.0369
464.5653	-0.0103
464.7668	0.0067
464.9683	0.0268
465.1697	0.0175
465.3712	-0.0004
465.5726	-0.0045
465.7741	-0.0017
465.9755	-0.01
466.1769	0.0002
466.3782	0.0094
466.5796	0.0018
466.7809	0.0152
466.9823	0.004
467.1836	-0.0035
467.3849	-0.011
467.5862	0.0206
467.7875	0.0115
467.9887	0.0178
468.19	0.0008
468.3912	-0.0054
468.5924	-0.0022
468.7936	0.0098
468.9948	-0.0027
469.196	0.0005
469.3972	0.0044
469.5983	0.0194
469.7994	-0.0169
470.0006	0.0062
470.2017	-0.0233
470.4027	0.0005
470.6038	0.003
470.8049	-0.0069
471.0059	0.0015
471.2069	-0.0281
471.408	-0.0013
471.6089	0.0064
471.8099	0.002
472.0109	0
472.2119	-0.0092
472.4128	-0.015
472.6137	0.0064
472.8146	-0.0019
473.0155	-0.0012
473.2164	0
473.4173	0.0067
473.6181	0.0135
473.819	0.0136
474.0198	-0.0168
474.2206	0.0075
474.4214	-0.0044
474.6222	0.013
474.8229	-0.0051
475.0237	-0.0138
475.2244	-0.0052
475.4251	0
475.6258	0.0051
475.8265	-0.0023
476.0272	0.0177
476.2278	0.0069
476.4285	0.0049
476.6291	0.0086
476.8297	0.0042
477.0303	-0.0115
477.2309	0.008
477.4315	-0.0042
477.632	-0.0003
477.8326	0.0164
478.0331	-0.0015
478.2336	0.0138
478.4341	-0.0001
478.6346	0.0047
478.8351	-0.0026
479.0355	0.0042
479.236	-0.0029
479.4364	0.0122
479.6368	0.008
479.8372	-0.0149
480.0376	0.0043
480.2379	-0.0187
480.4383	-0.002
480.6386	0.0079
480.8389	0.0042
481.0392	0.0033
481.2395	-0.0001
481.4398	0.0179
481.6401	-0.0013
481.8403	-0.0032
482.0405	0.0062
482.2408	-0.0068
482.441	0.0015
482.6411	-0.0002
482.8413	-0.0043
483.0415	0.0131
483.2416	-0.009
483.4417	0.0017
483.6419	-0.0001
483.8419	0.0061
484.042	0.0118
484.2421	0.0038
484.4422	0.0047
484.6422	-0.0087
484.8422	0.0038
485.0422	-0.0081
485.2422	0.0065
485.4422	-0.0038
485.6422	-0.0056
485.8421	-0.0072
486.042	0.0104
486.242	-0.0003
486.4419	-0.0122
486.6417	-0.0039
486.8416	0.005
487.0415	0.0046
487.2413	0.0011
487.4411	-0.0095
487.641	-0.0046
487.8408	0.0118
488.0405	0.0014
488.2403	-0.0032
488.4401	0.0208
488.6398	0.0034
488.8395	0.0052
489.0392	-0.0036
489.2389	-0.0073
489.4386	0.006
489.6383	0.0022
489.8379	0.0051
490.0376	0.0139
490.2372	-0.0045
490.4368	0.004
490.6364	-0.0039
490.836	-0.0048
491.0355	-0.0021
491.2351	0.0004
491.4346	0.0021
491.6341	-0.0103
491.8336	0.0075
492.0331	-0.0068
492.2326	0.0006
492.432	0.0046
492.6315	0.0041
492.8309	-0.0072
493.0303	-0.0012
493.2297	-0.0021
493.4291	0.0012
493.6284	-0.0011
493.8278	0.0076
494.0271	0.005
494.2264	0.0113
494.4257	-0.0018
494.625	0.0016
494.8243	-0.0077
495.0236	-0.0075
495.2228	-0.0084
495.422	0.0087
495.6213	0.0112
495.8205	0.0162
496.0196	0.0023
496.2188	0.0106
496.418	0.0082
496.6171	-0.0036
496.8162	-0.0076
497.0153	0.0078
497.2144	0.0004
497.4135	0.0027
497.6126	-0.0039
497.8116	-0.0006
498.0107	0.0087
498.2097	-0.0073
498.4087	-0.0025
498.6077	0
498.8067	-0.0022
499.0056	0.0059
499.2046	-0.0152
499.4035	-0.0194
499.6024	0.0032
499.8013	0.0058
500.0002	0.0013
500.199	0.0033
500.3979	-0.0025
500.5967	-0.0204
500.7956	0.0039
500.9944	0.0043
501.1932	-0.0107
501.3919	-0.0023
501.5907	-0.0039
501.7895	-0.0074
501.9882	-0.0047
502.1869	0.0062
502.3856	0.0003
502.5843	0.0032
502.783	0.0073
502.9816	-0.013
503.1803	-0.0098
503.3789	-0.0032
503.5775	-0.0006
503.7761	-0.0088
503.9747	0.0034
504.1732	-0.0004
504.3718	0.0075
504.5703	0.0101
504.7689	-0.0043
504.9674	0.0014
505.1658	-0.0054
505.3643	-0.0015
505.5628	-0.0009
505.7612	0.0062
505.9597	0.0105
506.1581	0
506.3565	0.0051
506.5549	0.018
506.7532	-0.0115
506.9516	0.0001
507.1499	-0.0009
507.3482	-0.0086
507.5465	0.0016
507.7448	0.0097
507.9431	0.0039
508.1414	-0.0023
508.3396	0.0101
508.5379	-0.009
508.7361	0.0052
508.9343	0.0068
509.1325	0.0056
509.3306	0.0005
509.5288	0.0051
509.7269	0.0033
509.9251	0.0023
510.1232	-0.0053
510.3213	0.0015
510.5193	0.0035
510.7174	-0.0113
510.9154	0.009
511.1135	-0.0027
511.3115	0.001
511.5095	-0.003
511.7075	0.0069
511.9055	0.0147
512.1034	0.0058
512.3014	0.0002
512.4993	0.0093
512.6972	0.0028
512.8951	-0.0027
513.093	-0.0008
513.2908	0.0029
513.4887	-0.0028
513.6865	0.0023
513.8844	0.0048
514.0822	-0.0034
514.2799	-0.0041
514.4777	0.0036
514.6755	0.0061
514.8732	0.003
515.0709	-0.0004
515.2687	0.0077
515.4664	0.0113
515.664	0.003
515.8617	0.0009
516.0594	-0.0067
516.257	0.0036
516.4546	-0.0148
516.6522	0.0059
516.8498	0.0051
517.0474	0.0041
517.2449	0.0027
517.4425	-0.0057
517.64	0.0043
517.8375	0.0051
518.035	0.0048
518.2325	-0.004
518.43	-0.0042
518.6274	-0.0003
518.8249	-0.0083
519.0223	0.0064
519.2197	0.0062
519.4171	-0.0005
519.6145	-0.0036
519.8118	0.0053
520.0092	0.0031
520.2065	0.0092
520.4038	0.0046
520.6011	0.0064
520.7984	-0.0013
520.9956	-0.0051
521.1929	-0.0134
521.3901	0.0141
521.5874	0.0034
521.7846	0.0167
521.9818	-0.0064
522.1789	-0.0015
522.3761	0.001
522.5732	0.0008
522.7704	-0.0049
522.9675	0.0067
523.1646	0.0013
523.3617	0.0121
523.5587	0.0062
523.7558	0.0058
523.9528	-0.0019
524.1498	0.0053
524.3468	-0.0033
524.5438	0.0038
524.7408	0.0058
524.9378	0.0094
525.1347	0.0097
525.3316	0.0133
525.5285	-0.0018
525.7254	-0.0003
525.9223	0.0115
526.1192	0.0076
526.316	-0.007
526.5129	0.01
526.7097	0.0086
526.9065	0.0023
527.1033	-0.0003
527.3	0.009
527.4968	0.0084
527.6935	-0.0006
527.8903	-0.0051
528.087	0.0151
528.2837	0.0059
528.4804	0.0074
528.677	0.0087
528.8737	0.0035
529.0703	0.0045
529.2669	-0.0012
529.4635	0.0008
529.6601	0.0031
529.8567	0.0048
530.0532	-0.0019
530.2498	0.0142
530.4463	0.0074
530.6428	0.0001
530.8393	0.0156
531.0358	0.0154
531.2322	0.0019
531.4287	-0.001
531.6251	-0.0011
531.8215	0.0096
532.0179	-0.0003
532.2143	0.0193
532.4107	0.0045
532.607	0.0012
532.8034	0.005
532.9997	0.0084
533.196	0.0035
533.3923	-0.0015
533.5886	0.0056
533.7848	0.0031
533.9811	0.007
534.1773	-0.0007
534.3735	0.0087
534.5697	-0.0016
534.7659	0.0086
534.9621	0.0053
535.1582	-0.004
535.3544	-0.0029
535.5505	0.0019
535.7466	0.0019
535.9427	0.0037
536.1387	0.0029
536.3348	0.0008
536.5308	0.0127
536.7269	-0.01
536.9229	0.0045
537.1189	0.0039
537.3148	0.0093
537.5108	-0.0135
537.7068	-0.0006
537.9027	0.0021
538.0986	0.0036
538.2945	-0.0038
538.4904	0.0003
538.6863	-0.0023
538.8821	0.0004
539.078	0.0055
539.2738	0.0005
539.4696	-0.0057
539.6654	0.0014
539.8611	0.0139
540.0569	-0.0039
540.2526	0.0009
540.4484	0.0047
540.6441	0.005
540.8398	0.007
541.0355	0.0064
541.2311	0.0049
541.4268	-0.0078
541.6224	0.0059
541.818	0.0039
542.0136	-0.0061
542.2092	0.0052
542.4048	0.0054
542.6003	0.002
542.7959	0.0083
542.9914	0.0015
543.1869	-0.0002
543.3824	0.0019
543.5779	-0.0051
543.7734	-0.0045
543.9688	-0.0083
544.1642	0.0067
544.3596	0.0039
544.555	-0.0008
544.7504	-0.002
544.9458	-0.0047
545.1411	-0.0003
545.3365	0.0024
545.5318	-0.0044
545.7271	0.0112
545.9224	0.0021
546.1177	0.0118
546.3129	0.0095
546.5081	-0.0043
546.7034	-0.0088
546.8986	-0.007
547.0938	-0.0033
547.289	-0.0084
547.4841	0.003
547.6793	0.0076
547.8744	-0.0091
548.0695	0.0058
548.2646	-0.0073
548.4597	0.0033
548.6548	0.0086
548.8498	0.0017
549.0448	0.0063
549.2399	0.0046
549.4349	0.0105
549.6298	-0.0004
549.8248	0.0053
550.0198	-0.0002
550.2147	0.0048
550.4096	0.0006
550.6045	0.0039
550.7994	0.0067
550.9943	0.0079
551.1892	0.0002
551.384	0.0086
551.5788	-0.0004
551.7737	0.0049
551.9685	0.0058
552.1632	-0.001
552.358	-0.0039
552.5528	0.0095
552.7475	0.0056
552.9422	0.0062
553.1369	0.0051
553.3316	0.0089
553.5263	-0.0044
553.7209	0.0065
553.9156	-0.005
554.1102	0.0002
554.3048	-0.0038
554.4994	0.0092
554.694	0.0008
554.8885	0.013
555.0831	-0.0025
555.2776	0.0007
555.4721	-0.0006
555.6666	0.005
555.8611	0.0133
556.0555	0.0001
556.25	0.0049
556.4444	-0.0056
556.6388	0.0117
556.8332	0.0019
557.0276	-0.0024
557.222	-0.0002
557.4163	0.0086
557.6107	-0.0003
557.805	0.012
557.9993	-0.0038
558.1936	0.0053
558.3879	0.0047
558.5821	0.012
558.7764	-0.0039
558.9706	0.0084
559.1648	0.0149
559.359	0.0057
559.5532	-0.0036
559.7473	0.0017
559.9415	0.0018
560.1356	0.0004
560.3297	-0.0098
560.5238	-0.0033
560.7179	0.0019
560.9119	0.0013
561.106	-0.0021
561.3	-0.0102
561.494	-0.0013
561.688	0.0004
561.882	0.0023
562.076	0.0049
562.2699	0.004
562.4639	0
562.6578	0.0073
562.8517	0.0042
563.0456	0.0028
563.2395	0.0025
563.4333	0.0069
563.6272	0.009
563.821	-0.0035
564.0148	0.0003
564.2086	-0.0077
564.4024	0.0064
564.5961	0.0032
564.7899	0.0144
564.9836	0.0029
565.1773	0.0029
565.371	0.017
565.5647	0.0045
565.7584	0.0029
565.952	0.0026
566.1456	0.0042
566.3393	0.0085
566.5329	-0.005
566.7264	0.0061
566.92	0.0001
567.1136	0.0073
567.3071	-0.005
567.5006	0.0034
567.6941	0.0065
567.8876	0.0008
568.0811	-0.0058
568.2745	0.0128
568.468	0.0112
568.6614	0.0035
568.8548	0.0048
569.0482	0.0012
569.2416	0.0087
569.4349	0.0012
569.6283	0.0065
569.8216	0.002
570.0149	-0.0006
570.2082	0.0103
570.4015	0.0121
570.5947	0.0027
570.788	0.0054
570.9812	0.0071
571.1744	0.0007
571.3676	-0.0025
571.5608	-0.0052
571.754	0.0051
571.9471	-0.0061
572.1402	0.0032
572.3333	-0.0041
572.5264	0.0001
572.7195	0.0022
572.9126	0.006
573.1057	0.0022
573.2987	0.0011
573.4917	0.0103
573.6847	-0
573.8777	0.0083
574.0707	0.0067
574.2636	0.0004
574.4566	0.002
574.6495	0.0136
574.8424	0.0039
575.0353	-0.0022
575.2281	0.0079
575.421	0.0024
575.6138	0.0037
575.8067	0.0051
575.9995	0.0108
576.1923	0.0124
576.385	0.0092
576.5778	0.0069
576.7706	-0.0043
576.9633	0.0052
577.156	0.0086
577.3487	0.0065
577.5414	0.0017
577.734	-0.0051
577.9267	0.0069
578.1193	-0.0021
578.3119	0.0025
578.5045	0.0101
578.6971	-0.0006
578.8897	0.0102
579.0822	0.0058
579.2747	0.0044
579.4673	-0.0058
579.6598	-0.0001
579.8522	-0.0006
580.0447	-0.0048
580.2372	0.0027
580.4296	0.0047
580.622	0.007
580.8144	0.0006
581.0068	-0.0007
581.1992	-0.012
581.3915	0.0024
581.5839	-0.0045
581.7762	-0.0039
581.9685	-0.0101
582.1608	0.0053
582.353	-0.0012
582.5453	0.007
582.7375	-0.0006
582.9298	0.0075
583.122	0
583.3142	0.0083
583.5063	0.0052
583.6985	0.0019
583.8906	0.0033
584.0827	-0.0075
584.2749	0.0104
584.4669	0.0083
584.659	0.0065
584.8511	0.0031
585.0431	0.0051
585.2352	0.0078
585.4272	0.0105
585.6192	0.0095
585.8111	0.0037
586.0031	0.0087
586.195	0.0047
586.387	0.0075
586.5789	-0.0012
586.7708	0.0065
586.9627	0.0018
587.1545	-0.0052
587.3464	0.0038
587.5382	0.0117
587.73	0.0023
587.9218	0.0127
588.1136	0.0034
588.3053	0.0088
588.4971	-0.0037
588.6888	0.0004
588.8805	0.0046
589.0722	0.0094
589.2639	0.0013
589.4556	0.0059
589.6472	0.0008
589.8389	-0.005
590.0305	-0.0094
590.2221	0.0009
590.4137	-0.0026
590.6052	0.0036
590.7968	0.0021
590.9883	-0.0017
591.1798	-0.0024
591.3713	0.0014
591.5628	0.0061
591.7543	0.0129
591.9458	0.0066
592.1372	0.0035
592.3286	0.011
592.52	0.0111
592.7114	0.0006
592.9028	0.0083
593.0941	-0.0012
593.2855	0.0045
593.4768	-0.0023
593.6681	-0.0083
593.8594	-0.0012
594.0506	-0.0024
594.2419	0.0066
594.4331	0.0019
594.6244	-0.0001
594.8156	-0.0075
595.0067	0.003
595.1979	0.004
595.3891	-0.0048
595.5802	-0.002
595.7713	0.0054
595.9624	-0.002
596.1535	0.0105
596.3446	0.0022
596.5357	0.0077
596.7267	0.009
596.9177	0.0084
597.1087	-0.0051
597.2997	0.0037
597.4907	0.0029
597.6817	-0.0021
597.8726	-0.0016
598.0635	-0.0067
598.2544	0.0036
598.4453	0.0042
598.6362	-0.0065
598.827	-0.0026
599.0179	0.009
599.2087	0.0073
599.3995	0.0052
599.5903	0.0016
599.7811	0.0028
599.9718	0.001
600.1626	0.0023
600.3533	0.0019
600.544	0.0007
600.7347	-0.0002
600.9254	0.0067
601.116	-0.0056
601.3067	-0.0009
601.4973	0.0062
601.6879	0.0071
601.8785	0.0041
602.0691	0.0143
602.2596	0.0105
602.4502	0.0079
602.6407	0.0108
602.8312	0.0044
603.0217	-0.0004
603.2122	0.0025
603.4027	0.007
603.5931	0.0083
603.7835	0.0046
603.9739	0.0021
604.1643	0.0108
604.3547	0.0003
604.5451	0.0076
604.7354	0.0056
604.9257	0.002
605.116	0.0016
605.3063	0.0113
605.4966	0.0035
605.6869	0.003
605.8771	0.0067
606.0673	0.0052
606.2575	0.0075
606.4477	0.0063
606.6379	0.0039
606.8281	0.0029
607.0182	0.0022
607.2083	0.0105
607.3985	-0.0025
607.5885	0.0053
607.7786	0.0049
607.9687	0.0001
608.1587	0.0024
608.3488	0.0023
608.5388	0.0006
608.7288	0.0034
608.9187	-0.0001
609.1087	-0.003
609.2986	-0.0051
609.4886	0.0052
609.6785	-0.0015
609.8684	0.0084
610.0582	0.0083
610.2481	0.0008
610.4379	0.0021
610.6278	0.0011
610.8176	0.0019
611.0074	-0.0022
611.1971	0.0014
611.3869	0.0051
611.5766	-0.0104
611.7664	-0.0016
611.9561	0.0037
612.1458	0.0045
612.3354	-0.0043
612.5251	0.0023
612.7147	0.0024
612.9044	0.0067
613.094	-0.0076
613.2836	0.0072
613.4731	-0.0031
613.6627	-0.0023
613.8522	0.0099
614.0417	0.0048
614.2313	0.0028
614.4207	-0.0004
614.6102	0.01
614.7997	-0.0025
614.9891	0.002
615.1785	0.0043
615.3679	0.0046
615.5573	0.0034
615.7467	0.0036
615.9361	0.0059
616.1254	0.0024
616.3147	0.0055
616.504	0.0066
616.6933	0.0024
616.8826	0.0106
617.0718	0.0043
617.2611	0
617.4503	-0.0025
617.6395	0.0065
617.8287	0.0045
618.0179	0.0002
618.207	0.0173
618.3961	0.0093
618.5853	-0
618.7744	0.0052
618.9634	0.006
619.1525	0.0089
619.3416	0.0064
619.5306	0.0028
619.7196	0.0074
619.9086	0.0061
620.0976	0.0087
620.2866	0.0067
620.4755	0.0053
620.6645	0.0073
620.8534	0.007
621.0423	0.0065
621.2312	0.0089
621.42	0.0012
621.6089	0.0073
621.7977	0.0099
621.9865	-0.0047
622.1753	0.0099
622.3641	0.0052
622.5529	0.0022
622.7416	0.0073
622.9303	-0.0046
623.1191	-0.0011
623.3078	-0.0006
623.4964	0.003
623.6851	0.0025
623.8737	0.0064
624.0624	0.008
624.251	-0.0026
624.4396	-0.0036
624.6282	-0.0032
624.8167	-0.0018
625.0053	0.0038
625.1938	0.0118
625.3823	0.0072
625.5708	-0.0047
625.7593	0
625.9477	0.0001
626.1362	0.0004
626.3246	0
626.513	0.0007
626.7014	0.0107
626.8898	0.0027
627.0781	0.0022
627.2665	0.0053
627.4548	0.0137
627.6431	0.0068
627.8314	0.0137
628.0197	0.0114
628.2079	-0.0012
628.3962	0.0059
628.5844	0.01
628.7726	0.0043
628.9608	0.0141
629.1489	0.0069
629.3371	0.0091
629.5252	-0.0034
629.7134	0.0082
629.9015	0.0049
630.0895	0.0035
630.2776	0.0042
630.4657	0.0043
630.6537	0.0027
630.8417	-0.0022
631.0297	0.0017
631.2177	0.0046
631.4057	0.0005
631.5936	-0.0017
631.7815	0.0047
631.9695	0.0014
632.1574	0.0064
632.3452	0.0125
632.5331	0.0088
632.7209	0.0099
632.9088	0.0155
633.0966	0.0175
633.2844	0.0078
633.4722	0.0068
633.6599	0.0075
633.8477	0.0063
634.0354	0.009
634.2231	0.0045
634.4108	0.0169
634.5985	0.0121
634.7861	0.0156
634.9738	-0
635.1614	0.0054
635.349	0.0101
635.5366	0.0066
635.7242	0.0038
635.9117	0.0023
636.0993	0.0002
636.2868	0.0019
636.4743	0.0003
636.6618	0.0108
636.8492	0.0057
637.0367	0.005
637.2241	-0.0004
637.4115	-0.0027
637.5989	0.0031
637.7863	0.0011
637.9737	-0.0023
638.161	0.0033
638.3484	0.0011
638.5357	0.0146
638.723	0.0058
638.9103	0.0028
639.0975	0.0034
639.2848	0.0082
639.472	0.0014
639.6592	0.0097
639.8464	0.0117
640.0336	0.0095
640.2208	0.0023
640.4079	0.0032
640.595	0.0034
640.7821	0.0069
640.9692	0.0046
641.1563	0.0055
641.3434	0.0018
641.5304	0.008
641.7174	-0.0014
641.9044	0.0062
642.0914	0.0075
642.2784	0.0077
642.4653	0.0125
642.6523	0.0066
642.8392	0.006
643.0261	0.0083
643.213	0.0062
643.3999	0.0042
643.5867	0.0038
643.7735	0.007
643.9604	0.0002
644.1472	0.0072
644.3339	0.0077
644.5207	0.0062
644.7075	0.0014
644.8942	0.0033
645.0809	0.0116
645.2676	0.0101
645.4543	0.0072
645.6409	0.0073
645.8276	0.0054
646.0142	0.0102
646.2008	-0.0045
646.3874	0.0033
646.574	0.0015
646.7605	-0.0028
646.9471	-0.0032
647.1336	0.0103
647.3201	0.0112
647.5066	0.0005
647.6931	0.0125
647.8795	0.0008
648.0659	0.0095
648.2524	0.0121
648.4388	0.0019
648.6252	0.0082
648.8115	0.0041
648.9979	-0.0022
649.1842	0.0099
649.3705	0.0096
649.5568	0.01
649.7431	0.0091
649.9294	0.0006
650.1156	0.0054
650.3018	-0.0012
650.488	0.0058
650.6742	0.0067
650.8604	0.0059
651.0466	0.0028
651.2327	-0.001
651.4188	0.0042
651.6049	0.0061
651.791	0.0074
651.9771	0.0077
652.1632	0.0034
652.3492	0.0093
652.5352	0.0087
652.7212	-0.0019
652.9072	0.0057
653.0932	0.0021
653.2791	0.0016
653.465	0.0061
653.651	-0.0036
653.8369	0.0003
654.0227	-0.0018
654.2086	0.0065
654.3944	0.0116
654.5803	0.0045
654.7661	-0.0028
654.9519	0.008
655.1377	0.0016
655.3234	0.0013
655.5092	-0.0011
655.6949	0.0005
655.8806	-0.0013
656.0663	0.0007
656.2519	0.0034
656.4376	-0.001
656.6232	0.0048
656.8088	0.0008
656.9945	0.0053
657.18	0.0051
657.3656	0.0058
657.5511	-0.0005
657.7367	-0.0052
657.9222	0.0069
658.1077	0.0105
658.2932	0.0047
658.4786	-0.0028
658.6641	-0.0072
658.8495	0.001
659.0349	0.002
659.2203	0.0131
659.4057	0.0044
659.591	0.0105
659.7764	-0.0022
659.9617	0.005
660.147	0.0073
660.3323	0.0084
660.5176	0.0133
660.7028	0.0124
660.888	0.0079
661.0733	0.0065
661.2585	-0.0021
661.4436	0.0077
661.6288	-0.0017
661.8139	0.0081
661.9991	0.0037
662.1842	-0.001
662.3693	0.0048
662.5544	-0.002
662.7394	0.0047
662.9245	0.0057
663.1095	-0.0016
663.2945	0.0058
663.4795	-0.0004
663.6644	0.0074
663.8494	0.0046
664.0343	0.0089
664.2193	-0.0055
664.4042	0.0032
664.589	0.0005
664.7739	0.0062
664.9587	0.0019
665.1436	0.0051
665.3284	0.0009
665.5132	0.0043
665.698	0.0014
665.8827	0.0074
666.0675	-0.0012
666.2522	-0.0058
666.4369	0.0059
666.6216	0.0085
666.8063	0.0044
666.9909	0.0021
667.1756	0.0074
667.3602	0.0087
667.5448	0.0102
667.7294	0.0133
667.9139	0.0045
668.0985	0.0188
668.283	0.0018
668.4675	0.0047
668.652	0.0066
668.8365	-0.0008
669.0209	0.0113
669.2054	0.0107
669.3898	-0.0016
669.5742	0.009
669.7586	0.0073
669.943	0.0087
670.1273	0.0069
670.3117	0.0121
670.496	0.0045
670.6803	0.0165
670.8646	0.0094
671.0488	0.0051
671.2331	0.0095
671.4173	0.0132
671.6015	0.0096
671.7857	0.0054
671.9699	0.0153
672.1541	0.0071
672.3382	0.0085
672.5223	0.0021
672.7064	0.0037
672.8905	0.0125
673.0746	0.0123
673.2587	0.0035
673.4427	0.01
673.6267	0.0077
673.8107	0.0105
673.9947	0.0098
674.1787	0.0077
674.3626	0.0035
674.5465	0.0062
674.7304	0.0078
674.9143	0.0096
675.0982	0.0081
675.2821	-0.0056
675.4659	0.0073
675.6497	0.0031
675.8335	-0.0043
676.0173	0.0057
676.2011	-0.0001
676.3849	-0.0004
676.5686	0.0044
676.7523	-0.0009
676.936	0.0054
677.1197	0.0037
677.3034	-0.0036
677.487	0.0082
677.6706	0.0014
677.8542	0.0085
678.0378	0.0056
678.2214	0.0075
678.405	-0.0034
678.5885	-0.0024
678.772	0.0048
678.9555	0.0001
679.139	0.0027
679.3225	-0.0009
679.5059	0.0071
679.6894	0.0099
679.8728	0.0082
680.0562	-0.0049
680.2395	0.0007
680.4229	0.008
680.6062	0.0089
680.7896	0.0059
680.9729	-0.0036
681.1562	0.0035
681.3394	0.002
681.5227	-0.0086
681.7059	0.0019
681.8891	0.0046
682.0723	0.007
682.2555	0.0037
682.4387	0.0026
682.6218	-0.0013
682.805	0.0072
682.9881	0.0061
683.1712	0.0024
683.3542	-0.0001
683.5373	0.0014
683.7203	-0.0076
683.9034	0.0011
684.0864	-0.0065
684.2694	-0
684.4523	0.0005
684.6353	-0.0034
684.8182	0.0012
685.0011	-0.0076
685.184	0.0032
685.3669	0.0019
685.5498	0.0085
685.7326	0.0022
685.9154	-0.0007
686.0982	0.0091
686.281	0.0072
686.4638	0.0029
686.6465	0.0061
686.8293	0.0021
687.012	0.0016
687.1947	-0.006
687.3774	0.0098
687.56	-0.0046
687.7427	0.0099
687.9253	-0.0011
688.1079	0.0102
688.2905	0.0099
688.4731	0.0006
688.6556	0.0037
688.8382	0.0053
689.0207	0.0048
689.2032	-0.0002
689.3857	0.0008
689.5681	0.0027
689.7506	-0.0028
689.933	0.0067
690.1154	0.013
690.2978	0.0075
690.4802	0.0103
690.6626	-0.005
690.8449	0.0034
691.0272	0.0105
691.2095	-0.0004
691.3918	0.0042
691.5741	0.0082
691.7563	0.0045
691.9386	0.0117
692.1208	-0.0006
692.303	-0.0007
692.4852	-0.0023
692.6673	0.0013
692.8495	0.005
693.0316	0.0092
693.2137	0.0023
693.3958	0
693.5778	0.0042
693.7599	0.0011
693.9419	0.0001
694.1239	0.0004
694.3059	-0.0056
694.4879	0.0018
694.6699	0.0065
694.8518	-0.0021
695.0337	-0.0051
695.2157	0.0087
695.3975	-0.0025
695.5794	0.0035
695.7613	0.0004
695.9431	0.0051
696.1249	0.007
696.3067	0.0113
696.4885	0.014
696.6703	0.0035
696.852	0.0093
697.0337	0.0015
697.2154	0.005
697.3971	0.0068
697.5788	0.001
697.7605	0.0054
697.9421	0.0038
698.1237	0.0055
698.3053	0.0039
698.4869	0.001
698.6685	-0.0005
698.85	0.0003
699.0315	0.0081
699.213	0.0023
699.3945	0.0169
699.576	0.007
699.7575	0.0095
699.9389	0.0001
700.1203	0.0046
700.3017	-0.0072
700.4831	-0.0118
700.6645	0.003
700.8458	0.0045
701.0271	-0.0073
701.2084	0.0125
701.3897	0.0001
701.571	0.0136
701.7523	-0.0061
701.9335	0.0096
702.1147	-0.007
702.2959	0
702.4771	0.0048
702.6583	-0.0052
702.8394	-0.0032
703.0205	0.0025
703.2016	-0.0031
703.3827	-0.0006
703.5638	0.0069
703.7449	-0.0014
703.9259	0.0117
704.1069	-0.0023
704.2879	0.0057
704.4689	0.0073
704.6499	0
704.8308	0.0019
705.0117	0.0019
705.1927	0.004
705.3735	0.003
705.5544	-0.0016
705.7353	0.0003
705.9161	-0.0006
706.0969	-0.0033
706.2777	0.0022
706.4585	0.0013
706.6393	0.0064
706.82	0.0004
707.0007	0.0043
707.1815	-0.0014
707.3621	0.011
707.5428	0.005
707.7235	0.0082
707.9041	0.0118
708.0847	-0.0025
708.2653	0.0019
708.4459	-0.0024
708.6265	0.0109
708.807	0.0073
708.9875	0.0046
709.168	0.0037
709.3485	0
709.529	-0.0012
709.7095	-0.0002
709.8899	0.0032
710.0703	-0.0034
710.2507	0.0056
710.4311	-0.0019
710.6115	-0.015
710.7918	-0.0044
710.9721	0.0056
711.1524	-0.0047
711.3327	0.0032
711.513	0.0136
711.6932	0.0095
711.8735	0.0111
712.0537	0.0031
712.2339	-0.0088
712.4141	-0.0045
712.5942	-0.0032
712.7744	0.0007
712.9545	-0.0051
713.1346	0.0002
713.3147	0.0057
713.4947	-0.0024
713.6748	0.0046
713.8548	0.0084
714.0348	0.0035
714.2148	0.0028
714.3948	0.0123
714.5748	0.0047
714.7547	-0.0019
714.9346	0.0122
715.1145	-0.0005
715.2944	-0.0039
715.4743	0.0086
715.6541	-0.0014
715.834	0.0123
716.0138	0.0004
716.1936	-0.0073
716.3733	0.0013
716.5531	0.0091
716.7328	-0.0051
716.9126	0.0022
717.0923	0.0059
717.2719	0.0005
717.4516	0.0103
717.6312	0.0055
717.8109	-0.0052
717.9905	0.0021
718.1701	-0.0078
718.3496	-0.0086
718.5292	-0.0006
718.7087	0.0039
718.8882	-0.0015
719.0677	0.0061
719.2472	0.0017
719.4267	-0.0007
719.6061	0.0038
719.7856	-0.0002
719.965	0.0049
720.1443	-0.0058
720.3237	0.0104
720.5031	0.0016
720.6824	0.0058
720.8617	-0.0029
721.041	0.0063
721.2203	0.0096
721.3995	0.0061
721.5788	-0.0031
721.758	0.0073
721.9372	0.0036
722.1164	0.0074
722.2956	0.0113
722.4747	0.0106
722.6538	-0.0006
722.8329	0.0256
723.012	0.0099
723.1911	-0.0009
723.3702	-0.0025
723.5492	0.0102
723.7282	-0.0007
723.9072	-0.002
724.0862	-0.0092
724.2652	0.0007
724.4441	-0.0033
724.623	0.0032
724.8019	-0.0014
724.9808	0.0026
725.1597	-0.0054
725.3385	0.0056
725.5174	0.0062
725.6962	-0.0011
725.875	0.0056
726.0538	0.005
726.2325	-0.0002
726.4112	0.0061
726.59	0.0015
726.7687	-0.0009
726.9474	0.0023
727.126	-0.0048
727.3047	-0.0085
727.4833	-0.0023
727.6619	-0.0032
727.8405	-0.0054
728.0191	-0.0029
728.1976	0.0042
728.3762	0.0018
728.5547	0.0052
728.7332	-0.0108
728.9116	0.0027
729.0901	0.0104
729.2686	0.0019
729.447	0.0018
729.6254	0.0013
729.8038	0.0117
729.9821	0.004
730.1605	0.0086
730.3388	-0.0006
730.5171	0.0024
730.6954	-0.0081
730.8737	0.0045
731.0519	0.0114
731.2302	0.0105
731.4084	0.0186
731.5866	0.0026
731.7648	0.0011
731.9429	-0.0003
732.1211	0.0016
732.2992	0.0014
732.4773	-0.0012
732.6554	-0.0049
732.8335	0.0048
733.0115	0.0034
733.1896	0.0168
733.3676	-0.0079
733.5456	0.0103
733.7235	0.0062
733.9015	0.003
734.0794	0.0042
734.2574	-0.0015
734.4353	-0.0028
734.6131	0.0066
734.791	0.0008
734.9689	-0.0033
735.1467	0.0031
735.3245	-0.0106
735.5023	-0.0006
735.68	-0.0077
735.8578	0.006
736.0355	-0.0198
736.2132	-0.0031
736.3909	0.0027
736.5686	-0.0042
736.7463	0.0037
736.9239	0.0026
737.1015	-0.0027
737.2791	0.0039
737.4567	0.0053
737.6343	-0.003
737.8118	0.0072
737.9894	0.0013
738.1669	-0.0056
738.3444	0.0023
738.5218	0.004
738.6993	0.0064
738.8767	-0.0008
739.0541	0.0159
739.2315	-0.0056
739.4089	0.0002
739.5863	0.0092
739.7636	-0.0031
739.9409	0.0044
740.1182	0.0052
740.2955	0.0052
740.4728	0.0057
740.65	0.0019
740.8272	0.0025
741.0044	0.0004
741.1816	0.0003
741.3588	0.0021
741.5359	0.0009
741.7131	-0.0076
741.8902	0.0067
742.0673	-0.0011
742.2444	0.0033
742.4214	0.0004
742.5985	-0.0001
742.7755	-0.0132
742.9525	-0.0119
743.1295	-0.0043
743.3064	0.0036
743.4834	0.0082
743.6603	-0.0045
743.8372	-0.0014
744.0141	0.0007
744.191	0.005
744.3678	-0.0009
744.5446	-0.0041
744.7215	0.0039
744.8982	-0.0005
745.075	-0.0004
745.2518	0.0069
745.4285	0.0033
745.6052	-0.0054
745.7819	0.0073
745.9586	0.0007
746.1353	0.0029
746.3119	0.0005
746.4885	-0.006
746.6651	0.0016
746.8417	0.0027
747.0183	0.0025
747.1948	-0.0032
747.3714	0.0065
747.5479	0.0013
747.7244	-0.0007
747.9008	0.0086
748.0773	-0.0025
748.2537	-0.0068
748.4301	-0.0026
748.6065	-0.0015
748.7829	0.0025
748.9593	-0.0044
749.1356	0.0001
749.3119	0.0067
749.4882	-0.0091
749.6645	0.0052
749.8408	-0.0063
750.017	-0.0096
750.1933	-0.0078
750.3695	-0.0121
750.5457	-0.0036
750.7218	0
750.898	-0.0003
751.0741	-0.0081
751.2502	0.0005
751.4263	-0.0008
751.6024	0.0013
751.7784	-0.0033
751.9545	-0.0041
752.1305	-0.0015
752.3065	-0.0015
752.4825	0.0017
752.6584	-0.0066
752.8344	0.0003
753.0103	-0.0066
753.1862	-0.0067
753.3621	-0.0051
753.5379	-0.0116
753.7138	-0.0006
753.8896	-0.0011
754.0654	0.0004
754.2412	0.0125
754.417	0.0011
754.5927	-0.0133
754.7685	-0.0027
754.9442	-0.0033
755.1199	0.0064
755.2956	-0.0014
755.4712	0.0103
755.6469	0.001
755.8225	-0.0066
755.9981	-0.0014
756.1736	0.0009
756.3492	-0.0003
756.5248	-0.0038
756.7003	-0.0057
756.8758	0.0196
757.0513	-0.0047
757.2267	0.0024
757.4022	0.0086
757.5776	-0.0069
757.753	0.0047
757.9284	0.0014
758.1038	0.0082
758.2791	-0.0002
758.4545	-0.0058
758.6298	-0.0027
758.8051	0.0043
758.9803	0.0033
759.1556	-0.0016
759.3308	0.0093
759.506	0.0158
759.6812	0.0143
759.8564	0.0131
760.0316	0.0164
760.2067	0.0207
760.3819	0.0135
760.557	0.0202
760.732	0.0051
760.9071	0.0047
761.0821	-0.0076
761.2572	0.0108
761.4322	0.0069
761.6072	0.0005
761.7821	0
761.9571	0.0035
762.132	-0.005
762.3069	-0.0035
762.4818	-0.0064
762.6567	0.0049
762.8316	-0.0028
763.0064	-0.0073
763.1812	0.0131
763.356	-0.0091
763.5308	-0.0083
763.7055	0.0066
763.8803	0.0035
764.055	0.0029
764.2297	-0.0035
764.4044	-0.0048
764.579	-0.0138
764.7537	-0.0004
764.9283	0.0052
765.1029	-0.0019
765.2775	0.0015
765.4521	0.0027
765.6266	-0.002
765.8011	-0.0101
765.9756	0.0012
766.1501	0.0012
766.3246	-0.0061
766.4991	-0.0046
766.6735	0.0087
766.8479	-0.005
767.0223	0.0036
767.1967	0.0037
767.371	0.0079
767.5454	0.0075
767.7197	0.0037
767.894	0.0011
768.0683	-0.0156
768.2425	-0.0121
768.4168	0.0085
768.591	0.0034
768.7652	0.0006
768.9394	0.0025
769.1135	0.0073
769.2877	0.0095
769.4618	0.0055
769.6359	-0.0001
769.81	0.0001
769.984	-0.0034
770.1581	-0.0059
770.3321	0.0084
770.5061	0.0049
770.6801	-0.0005
770.8541	0.0032
771.028	0.0086
771.202	-0.0158
771.3759	0.0133
771.5498	0.0022
771.7236	0.0137
771.8975	0.0069
772.0713	0.009
772.2451	0.008
772.4189	0.0205
772.5927	0.012
772.7665	0.0082
772.9402	0.0131
773.1139	0.0081
773.2876	0.0088
773.4613	0.0099
773.635	0.0035
773.8086	-0.0124
773.9822	-0.0073
774.1558	0.0016
774.3294	-0.015
774.503	-0.0061
774.6765	0.004
774.8501	0.0029
775.0236	0.0057
775.1971	0.0003
775.3705	-0.0037
775.544	0.0118
775.7174	0.0008
775.8908	-0.0033
776.0642	0.0008
776.2376	0.0053
776.4109	0.0199
776.5843	0.0016
776.7576	0.0173
776.9309	0.0188
777.1041	0.0158
777.2774	0.0164
777.4506	0.007
777.6238	-0.0107
777.797	0.0008
777.9702	-0.0012
778.1434	0.0059
778.3165	-0.0168
778.4896	0.0011
778.6627	0.0066
778.8358	0.0088
779.0089	0.0088
779.1819	0.0085
779.3549	0.0159
779.5279	0.0182
779.7009	0.0176
779.8739	0.0161
780.0468	0.0021
780.2197	0.0097
780.3926	0.0041
780.5655	0.0093
780.7384	0.0058
780.9112	0.0026
781.0841	0.0059
781.2569	0.0096
781.4297	0.0105
781.6024	0.0065
781.7752	0.0149
781.9479	0.0143
782.1206	0.0064
782.2933	0.005
782.466	0.0141
782.6386	-0.0033
782.8113	-0.0031
782.9839	0.012
783.1565	0.0046
783.329	0.0064
783.5016	0.0064
783.6741	0.0003
783.8466	0.0039
784.0191	0.014
784.1916	0.0008
784.3641	0.0007
784.5365	0.0168
784.7089	0.0087
784.8813	0.0037
785.0537	0.0157
785.2261	0.0143
785.3984	-0.0058
785.5707	0.0038
785.743	0.0046
785.9153	-0.007
786.0876	0.0113
786.2598	-0.0001
786.432	-0.0059
786.6042	0.0133
786.7764	-0.0033
786.9486	0.0122
787.1207	-0.0096
787.2928	-0.0007
787.4649	0.0076
787.637	0.0113
787.8091	0.0016
787.9811	-0.0011
788.1532	-0.002
788.3252	0.0132
788.4972	0.0072
788.6691	0.0009
788.8411	0.0113
789.013	-0.0049
789.1849	0.0062
789.3568	-0.004
789.5287	0.0008
789.7005	-0.0024
789.8723	0.0168
790.0442	0.0132
790.2159	0.0153
790.3877	0.0044
790.5595	-0.0188
790.7312	-0.0037
790.9029	0.0094
791.0746	0.0043
791.2463	-0.0054
791.4179	0.0088
791.5896	-0.0076
791.7612	0.0175
791.9328	0.0059
792.1044	-0.0045
792.2759	-0.016
792.4474	0.0007
792.619	0.0059
792.7905	-0.0008
792.9619	0.0103
793.1334	0.0058
793.3048	0.0176
793.4762	0.0089
793.6476	0.016
793.819	0.0035
793.9904	0.0072
794.1617	-0.0218
794.333	0.0005
794.5043	-0.0151
794.6756	0.0057
794.8469	0.003
795.0181	-0.0032
795.1893	-0.0081
795.3605	0.0085
795.5317	-0.0052
795.7029	-0.008
795.874	0
796.0452	-0.0014
796.2163	-0.0148
796.3873	0.0082
796.5584	-0.0016
796.7294	-0.0063
796.9005	0.0138
797.0715	0.0044
797.2425	-0.028
797.4134	-0.0118
797.5844	-0.0007
797.7553	-0.0058
797.9262	-0.0014
798.0971	-0.0039
798.2679	-0.0031
798.4388	-0.0222
798.6096	-0.0062
798.7804	-0.014
798.9512	0.0019
799.122	0.0027
799.2927	-0.0002
799.4635	0.0033
799.6342	-0.0132
799.8049	-0.0113
799.9755	0.007
800.1462	-0.0059
800.3168	0.0163
800.4874	0.0012
800.658	0.0235
800.8286	0.0047
800.9991	0.021
801.1696	0.0103
801.3402	0.0045
801.5106	-0.0042
801.6811	-0.0027
801.8516	0.0092
802.022	-0.0101
802.1924	0.0045
802.3628	0.0041
802.5332	0.0177
802.7035	0.0196
802.8739	-0.0015
803.0442	-0.0192
803.2145	-0.009
803.3847	-0.0216
803.555	0.0026
803.7252	-0.017
803.8954	-0.0111
804.0656	0.0058
804.2358	-0.0156
804.4059	0.0115
804.5761	-0.0041
804.7462	0.0018
804.9163	-0.0097
805.0864	-0.0165
805.2564	-0.0082
805.4264	0.0013
805.5965	-0.0027
805.7665	-0.0006
805.9364	0.0118
806.1064	0.0199
806.2763	0.0137
806.4462	0.0301
806.6161	0.0152
806.786	0.0164
806.9559	0.0252
807.1257	-0.0139
807.2955	-0.002
807.4653	0.0109
807.6351	0.0103
807.8048	-0.006
807.9746	0.0057
808.1443	0.0007
808.314	0.0065
808.4837	-0.0095
808.6533	0.007
808.8229	0.0295
808.9926	0.0088
809.1622	0.0017
809.3317	0.0057
809.5013	0.004
809.6708	0.0144
809.8403	0.0037
810.0098	0.0103
810.1793	-0.0085
810.3488	-0.0025
810.5182	-0.0227
810.6876	0.0005
810.857	0.0191
811.0264	0.0304
811.1958	0.0317
811.3651	0.0166
811.5344	-0.0148
811.7037	0.0077
811.873	-0.018
812.0422	-0.0055
812.2115	0.0112
812.3807	-0.0151
812.5499	0.0041
812.7191	0.0187
812.8882	-0.0011
813.0574	-0.0133
813.2265	0.0113
813.3956	0.009
813.5646	0.0045
813.7337	-0.0204
813.9027	0.0291
814.0718	0.0263
814.2407	0.0326
814.4097	-0.0099
814.5787	-0.0069
814.7476	0.0069
814.9165	0.0087
815.0854	0.0048
815.2543	0.0105
815.4232	-0.0036
815.592	-0.0006
815.7608	-0.0035
815.9296	0.0192
816.0984	0.0285
816.2671	-0.0041
816.4359	-0.0009
816.6046	0.0032
816.7733	-0.0114
816.942	-0.0121
817.1106	0.0033
817.2793	0.0098
817.4479	0.0003
817.6165	0.0388
817.785	-0.009
817.9536	-0.0036
818.1221	-0.0114
818.2906	0.0029
818.4591	-0.0138
818.6276	-0.013
818.7961	-0.0143
818.9645	0.019
819.1329	0.0125
819.3013	0.0201
819.4697	0.0485
819.638	0.0083
819.8064	-0.0173
819.9747	0.0106
820.143	0.0047
820.3113	-0.0129
820.4795	0.0114
820.6477	-0.0068
820.816	0.0067
820.9842	-0.0046
821.1523	0.0015
821.3205	0.0043
821.4886	-0.0036
821.6567	0.0094
821.8248	0.0238
821.9929	0.0155
822.1609	-0.0104
822.329	0.0054
822.497	0.0103
822.665	0.0068
822.833	-0.0167
823.0009	0.0008
823.1688	0.0122
823.3367	0.0216
823.5046	-0.0143
823.6725	0.0297
823.8404	-0.0035
824.0082	-0.0015
824.176	0.0185
824.3438	0.0101
824.5116	0.0021
824.6793	-0.0036
824.847	-0.0049
825.0147	-0.0146
825.1824	0.0338
825.3501	0.0137
825.5177	0.0095
825.6854	-0.016
825.853	-0.0008
826.0206	-0.0046
826.1881	-0.0271
826.3557	-0.027
826.5232	-0.0021
826.6907	-0.0215
826.8582	-0.012
827.0257	-0.0202
827.1931	0.0018
827.3605	0.0138
827.528	0.0066
827.6953	-0.0045
827.8627	0.0076
828.03	0.0309
828.1974	0.0317
828.3647	-0.0147
828.532	-0.0112
828.6992	0.0141
828.8665	0.0146
829.0337	-0.0168
829.2009	-0.0029
829.3681	0.0047
829.5352	0.0517
829.7024	-0.0058
829.8695	-0.0276
830.0366	0.0486
830.2037	-0.0025
830.3707	0.0254
830.5378	0.038
830.7048	0.0201
830.8718	-0.0123
831.0388	-0.0085
831.2057	0.0236
831.3727	0.0566
831.5396	-0.0011
831.7065	0.0082
831.8734	0.0251
832.0402	0.0315
832.2071	0.004
832.3739	-0.0428
832.5407	-0.026
832.7075	-0.0376
832.8742	-0.0156
833.041	-0.0496
833.2077	-0.0202
833.3744	0.02
833.541	0.0313
833.7077	0.0238
833.8743	-0.0241
834.0409	0.0056
834.2075	-0.0044
834.3741	-0.0079
834.5407	0.0084
834.7072	0.0136
834.8737	-0.0337
835.0402	-0.0216
835.2067	0.0371
835.3731	0.0337
835.5395	0.0071
835.706	0.0206
835.8723	-0.0049
836.0387	0.0014
836.2051	0.0071
836.3714	-0.02
836.5377	-0.0155
836.704	-0.0342
836.8703	-0.0053
837.0365	-0.0079
837.2027	-0.0479
837.3689	0.0133
837.5351	-0.024
837.7013	-0.0319
837.8674	-0.0557
838.0335	-0.0224
838.1997	-0.0096
838.3657	-0.0305
838.5318	-0.0057
838.6978	0.0299
838.8639	0.0045
839.0299	0.0416
839.1958	0.0445
839.3618	0.0087
839.5277	0.0471
839.6937	-0.0105
839.8596	0.0177
840.0254	0.0026
840.1913	-0.0024
840.3571	0.0107
840.523	-0.0165
840.6888	-0.0201
840.8545	-0.0342
841.0203	0.0309
841.186	-0.0101
841.3517	0.0355
841.5174	-0.0025
841.6831	-0.0037
841.8488	0.0194
842.0144	0.0545
842.18	0.0419
842.3456	0.0193
842.5112	0.0273
842.6767	-0.0135
842.8422	0.0022
843.0077	-0.0239
843.1732	-0.0068
843.3387	-0.0601
843.5042	-0.0432
843.6696	-0.0106
843.835	-0.0106
844.0004	0.0011
844.1657	-0.0019
844.3311	-0.0238
844.4964	-0.0483
844.6617	-0.0054
844.827	-0.0159
844.9923	-0.0189
845.1575	-0.0081
845.3227	-0.0045
845.4879	-0.0033
845.6531	-0.0246
845.8183	-0.1038
845.9834	-0.0614
846.1485	-0.0232
846.3136	-0.0305
846.4787	-0.0442
846.6438	0.0427
846.8088	0.0001
846.9738	-0.0374
847.1388	-0.0541
847.3038	-0.076
847.4687	-0.1411
847.6337	0.0703
847.7986	-0.0012
847.9635	-0.0072
848.1284	0.0283
848.2932	0.0722
848.458	-0.0149
848.6228	0.0439
848.7876	0.1302
848.9524	-0.0101
849.1172	-0.027
849.2819	-0.0296
849.4466	-0.0643
849.6113	-0.0897
849.7759	-0.0648
849.9406	-0.01
850.1052	0.0252
850.2698	0.0835
850.4344	-0.0172
850.599	-0.0678
850.7635	0.0728
850.928	0.0023
851.0925	-0.0149
851.257	0.0276
851.4215	0.0581
851.5859	-0.0611
851.7503	0.0222
851.9147	0.0343
852.0791	-0.0451
852.2434	-0.0918
852.4078	0.0293
852.5721	0.0354
852.7364	-0.057
852.9007	-0.2229
853.0649	0.0101
853.2291	0.0705
853.3934	0.0729
853.5575	0.1118
853.7217	-0.078
853.8859	-0.035
854.05	-0.0426
854.2141	-0.0151
854.3782	-0.0845
854.5423	-0.0151
854.7063	0.0885
854.8703	0.0229
855.0343	-0.0502
855.1983	-0.1064
855.3623	0.0816
855.5262	0.1735
855.6901	-0.0046
855.854	0.0436
856.0179	0.03
856.1818	-0.0307
856.3456	-0.0743
856.5094	-0.1778
856.6732	-0.1726
856.837	-0.1144
857.0008	0.2099
857.1645	-0.0774
857.3282	-0.2416
857.4919	0.0768
857.6556	-0.1204
857.8192	-0.0966
857.9828	0.0059
858.1465	-0.0547
858.31	-0.0442
858.4736	-0.0827
858.6372	-0.0759
858.8007	-0.2202
858.9642	0.0436
859.1277	-0.0168
859.2911	0.1809
859.4546	-0.0301
859.618	-0.3388
859.7814	-0.0535
859.9448	0.076
860.1081	-0.1501
860.2715	0.1208
860.4348	0.1811
860.5981	-0.0358
860.7614	0.0825
860.9246	-0.3115
861.0879	-0.1092
861.2511	0.0456
861.4143	-0.0764
861.5774	0.2639
861.7406	0.1422
861.9037	0.0509
862.0668	-0.1309
862.2299	-0.0537
862.393	-0.5946
862.556	-0.0974
862.7191	-0.3698
862.8821	0.3837
863.0451	-0.1146
863.208	0.0174
863.371	0.3634
863.5339	-0.2042
863.6968	0.2043
863.8597	0.9707
864.0225	-0.1734
864.1854	0.0586
864.3482	-0
864.511	0.2176
864.6737	-0.0663
864.8365	0.1204
864.9992	-0.5583
865.1619	-0.2979
865.3246	0.1989
865.4873	0.0875
865.65	-0
865.8126	-0.0513
865.9752	0.0227
866.1378	-0.1146
866.3004	0.377
866.4629	0.7431
866.6254	-0.1561
866.7879	-0.018
866.9504	-0.4736
867.1129	-0
867.2753	0.5129
867.4377	0.172
867.6001	-0.4238
867.7625	0.1207
867.9249	-0.2665
868.0872	0.301
868.2495	0.2043
868.4118	-0.1639
868.5741	-0.4211
868.7363	-0.1043
868.8986	-0.2333
869.0608	-0.0531
869.223	0.1838
869.3851	-0.1951
869.5473	-0
869.7094	0.1566
869.8715	-0
870.0336	-0
870.1957	-0.6468
870.3577	-0.8803
870.5197	-0.1262
870.6817	-0.1228
870.8437	-0.1309
871.0057	-0.9409
871.1676	-0.3369
871.3295	0.0529
871.4914	-0.6759
871.6533	-0.2928
871.8151	-0.3721
871.977	-0
872.1388	-0
872.3006	-0
872.4623	-0
872.6241	0.7054
872.7858	-0
872.9475	-0.2581
873.1092	0.5861
873.2709	0.104
873.4325	-0.0568
873.5941	-0
873.7557	-0
873.9173	-0
874.0789	-0.4157
874.2404	-0
874.4019	0.4237
874.5634	-0.1995
874.7249	-0.1051
874.8863	0.5893
875.0478	-0
875.2092	-0.0074
875.3706	1.0341
875.5319	-1.0278
875.6933	1.076
875.8546	-0.1338
876.0159	-0.0813
876.1772	-0.0013
876.3385	-0
876.4997	0.0882
876.6609	-0.2016
876.8221	-0.0764
876.9833	-0
877.1445	-0
877.3056	-0.1183
877.4667	0.19
877.6278	0.7863
877.7889	-0.8018
877.9499	-0
878.111	-0
878.272	-0.4284
878.433	-0
878.5939	0.0131
878.7549	-0.0109
878.9158	-0.5896
879.0767	-0
879.2376	-0.0139
879.3984	2.4048
879.5593	-0
879.7201	-0.0554
879.8809	-0.5736
880.0417	-0.1219
880.2024	-0.1621
880.3632	-0.5144
880.5239	0.3616
880.6846	-0
880.8452	-2.0588
881.0059	-1.5966
881.1665	0.2774
881.3271	0.5136
881.4877	-0.1415
881.6483	-0.2246
881.8088	0.0017
881.9693	-0.0615
882.1298	-0.0615
882.2903	-0.0615
