Data from MonoPyChalIsomerACN10uM340nmA_Absorbance_14-14-19-065.txt Node
Date: Fri Jul 05 14:14:19 BST 2024
User: LASERRRRR
Spectrometer: FLMT03099
Trigger mode: 0
Integration Time (sec): 1.000000E-1
Scans to average: 1
Electric dark correction enabled: true
Nonlinearity correction enabled: false
Boxcar width: 0
XAxis mode: Wavelengths
Number of Pixels in Spectrum: 3648
>>>>>Begin Spectral Data<<<<<
179.3399	0.2058
179.5586	0.2058
179.7771	0.2058
179.9957	0.6245
180.2143	-0.1242
180.4329	0.1476
180.6514	-0
180.8699	-0
181.0885	0.194
181.307	0.1924
181.5255	-0
181.744	-0.3439
181.9625	-0
182.181	-0.9847
182.3994	1.0889
182.6179	-0
182.8363	-0.0843
183.0547	0.188
183.2732	0.0851
183.4916	0.0146
183.71	0.1273
183.9284	-0.0075
184.1467	-0.0301
184.3651	0.0627
184.5835	0.0697
184.8018	-0.0816
185.0201	0.1727
185.2385	-0.0378
185.4568	0.551
185.6751	0.0773
185.8934	0.277
186.1117	0.0611
186.3299	0.0234
186.5482	0.0194
186.7664	-0.1983
186.9847	0.0104
187.2029	-0.0713
187.4211	-0.0117
187.6393	-0.0439
187.8575	-0.0748
188.0757	0.1726
188.2939	0.206
188.512	-0.051
188.7302	-0.0932
188.9483	0.1531
189.1665	0.0849
189.3846	0.2568
189.6027	-0.0026
189.8208	0.0949
190.0389	0.1248
190.257	0.4251
190.475	0.1484
190.6931	0.1836
190.9111	0.3576
191.1292	0.2805
191.3472	0.3519
191.5652	0.1861
191.7832	0.2663
192.0012	0.3017
192.2192	0.3528
192.4371	0.6353
192.6551	0.3273
192.873	0.4837
193.091	0.2431
193.3089	0.4823
193.5268	0.3775
193.7447	0.6502
193.9626	0.4
194.1805	0.5999
194.3984	0.7896
194.6162	0.4751
194.8341	0.8078
195.0519	0.7529
195.2697	0.7193
195.4875	0.8389
195.7054	0.5198
195.9231	0.5786
196.1409	0.8426
196.3587	0.544
196.5765	0.6689
196.7942	0.7016
197.012	0.5279
197.2297	0.5842
197.4474	0.6302
197.6651	0.5266
197.8828	0.7025
198.1005	0.598
198.3182	0.4973
198.5358	0.7334
198.7535	0.6425
198.9711	0.5621
199.1888	0.5955
199.4064	0.8041
199.624	0.625
199.8416	0.5147
200.0592	0.548
200.2767	0.7718
200.4943	0.6141
200.7119	0.6555
200.9294	0.5903
201.1469	0.5956
201.3645	0.5743
201.582	0.5839
201.7995	0.7093
202.017	0.5688
202.2344	0.7583
202.4519	0.6859
202.6694	0.655
202.8868	0.5996
203.1042	0.6888
203.3217	0.6018
203.5391	0.5968
203.7565	0.614
203.9739	0.6371
204.1913	0.6325
204.4086	0.6038
204.626	0.7292
204.8433	0.6468
205.0607	0.6124
205.278	0.6479
205.4953	0.6179
205.7126	0.5964
205.9299	0.7076
206.1472	0.5818
206.3644	0.5873
206.5817	0.6455
206.7989	0.6801
207.0162	0.6346
207.2334	0.7008
207.4506	0.6719
207.6678	0.6461
207.885	0.5974
208.1022	0.6739
208.3194	0.6665
208.5365	0.6762
208.7537	0.588
208.9708	0.591
209.1879	0.6282
209.405	0.6647
209.6222	0.6743
209.8392	0.6319
210.0563	0.6401
210.2734	0.5803
210.4905	0.628
210.7075	0.585
210.9245	0.5962
211.1416	0.6191
211.3586	0.6177
211.5756	0.5862
211.7926	0.6172
212.0096	0.6265
212.2265	0.6082
212.4435	0.5583
212.6604	0.5719
212.8774	0.6127
213.0943	0.5881
213.3112	0.554
213.5281	0.5065
213.745	0.5185
213.9619	0.519
214.1788	0.4429
214.3956	0.461
214.6125	0.478
214.8293	0.448
215.0461	0.456
215.2629	0.4552
215.4798	0.4853
215.6965	0.4169
215.9133	0.4261
216.1301	0.4054
216.3469	0.4277
216.5636	0.4206
216.7803	0.3912
216.9971	0.3977
217.2138	0.3738
217.4305	0.3752
217.6472	0.3266
217.8639	0.4024
218.0805	0.3749
218.2972	0.3203
218.5138	0.3301
218.7305	0.3353
218.9471	0.3225
219.1637	0.289
219.3803	0.2929
219.5969	0.3082
219.8135	0.2626
220.0301	0.2717
220.2466	0.2678
220.4632	0.249
220.6797	0.2337
220.8962	0.2434
221.1127	0.2467
221.3292	0.2622
221.5457	0.2426
221.7622	0.2387
221.9787	0.2593
222.1951	0.2557
222.4116	0.2381
222.628	0.2415
222.8444	0.2425
223.0608	0.2508
223.2772	0.2553
223.4936	0.2642
223.71	0.2391
223.9264	0.2807
224.1427	0.2563
224.3591	0.2533
224.5754	0.2512
224.7917	0.2548
225.008	0.2742
225.2243	0.2498
225.4406	0.2868
225.6569	0.2726
225.8732	0.2664
226.0894	0.2727
226.3057	0.2655
226.5219	0.2823
226.7381	0.2744
226.9543	0.2869
227.1705	0.2763
227.3867	0.2699
227.6029	0.2863
227.8191	0.3029
228.0352	0.3002
228.2513	0.2972
228.4675	0.3224
228.6836	0.3166
228.8997	0.3036
229.1158	0.3264
229.3319	0.2936
229.548	0.3266
229.764	0.3219
229.9801	0.3223
230.1961	0.3267
230.4121	0.3218
230.6282	0.3351
230.8442	0.3244
231.0602	0.3525
231.2761	0.3467
231.4921	0.3305
231.7081	0.3501
231.924	0.3616
232.14	0.3717
232.3559	0.3421
232.5718	0.378
232.7877	0.359
233.0036	0.3507
233.2195	0.3465
233.4353	0.3655
233.6512	0.358
233.867	0.3692
234.0829	0.376
234.2987	0.3663
234.5145	0.3793
234.7303	0.3662
234.9461	0.3789
235.1619	0.3748
235.3776	0.3743
235.5934	0.3778
235.8091	0.3914
236.0249	0.3608
236.2406	0.3837
236.4563	0.3871
236.672	0.3996
236.8877	0.4097
237.1034	0.3897
237.319	0.3878
237.5347	0.3982
237.7503	0.393
237.966	0.4282
238.1816	0.414
238.3972	0.3906
238.6128	0.4029
238.8284	0.4287
239.0439	0.4259
239.2595	0.3992
239.475	0.4216
239.6906	0.4019
239.9061	0.4043
240.1216	0.4006
240.3371	0.3977
240.5526	0.393
240.7681	0.413
240.9836	0.3847
241.199	0.3925
241.4145	0.3834
241.6299	0.3754
241.8453	0.3676
242.0607	0.3916
242.2761	0.3766
242.4915	0.3534
242.7069	0.3771
242.9223	0.3514
243.1376	0.3328
243.353	0.339
243.5683	0.3363
243.7836	0.3203
243.9989	0.3392
244.2142	0.3079
244.4295	0.3202
244.6448	0.3118
244.86	0.2933
245.0753	0.2921
245.2905	0.2957
245.5057	0.2649
245.721	0.2832
245.9362	0.2777
246.1514	0.2756
246.3665	0.2644
246.5817	0.262
246.7969	0.2505
247.012	0.2462
247.2271	0.2352
247.4423	0.2279
247.6574	0.239
247.8725	0.2356
248.0876	0.2244
248.3026	0.2043
248.5177	0.2224
248.7328	0.2149
248.9478	0.2066
249.1628	0.2063
249.3779	0.2041
249.5929	0.2008
249.8079	0.2143
250.0228	0.2006
250.2378	0.2029
250.4528	0.2165
250.6677	0.1862
250.8827	0.1807
251.0976	0.1917
251.3125	0.1878
251.5274	0.1715
251.7423	0.1806
251.9572	0.1905
252.172	0.1796
252.3869	0.1933
252.6017	0.168
252.8166	0.1705
253.0314	0.1711
253.2462	0.1592
253.461	0.1934
253.6758	0.1636
253.8906	0.1723
254.1053	0.1668
254.3201	0.1683
254.5348	0.1847
254.7496	0.1694
254.9643	0.169
255.179	0.1698
255.3937	0.1677
255.6083	0.1795
255.823	0.1681
256.0377	0.1575
256.2523	0.1831
256.467	0.1558
256.6816	0.1802
256.8962	0.1603
257.1108	0.1595
257.3254	0.1839
257.54	0.1672
257.7545	0.1578
257.9691	0.1665
258.1836	0.1653
258.3981	0.1776
258.6127	0.1768
258.8272	0.1606
259.0417	0.1588
259.2561	0.1601
259.4706	0.1539
259.6851	0.1772
259.8995	0.1696
260.114	0.1544
260.3284	0.155
260.5428	0.16
260.7572	0.1677
260.9716	0.1683
261.186	0.1587
261.4003	0.1673
261.6147	0.1712
261.829	0.1565
262.0433	0.1592
262.2577	0.1472
262.472	0.1669
262.6863	0.1685
262.9005	0.1585
263.1148	0.1553
263.3291	0.1334
263.5433	0.1588
263.7576	0.1554
263.9718	0.1598
264.186	0.1609
264.4002	0.1518
264.6144	0.1524
264.8286	0.1624
265.0427	0.1498
265.2569	0.1508
265.471	0.1516
265.6851	0.1562
265.8993	0.156
266.1134	0.1504
266.3275	0.1542
266.5415	0.1622
266.7556	0.1577
266.9697	0.1574
267.1837	0.1618
267.3978	0.1622
267.6118	0.1675
267.8258	0.1714
268.0398	0.1484
268.2538	0.1623
268.4677	0.1536
268.6817	0.1565
268.8957	0.1559
269.1096	0.1476
269.3235	0.1717
269.5374	0.1569
269.7514	0.1412
269.9652	0.1488
270.1791	0.1566
270.393	0.143
270.6068	0.1427
270.8207	0.1457
271.0345	0.1358
271.2483	0.159
271.4622	0.135
271.676	0.1402
271.8897	0.1407
272.1035	0.1408
272.3173	0.1384
272.531	0.1382
272.7448	0.1292
272.9585	0.138
273.1722	0.1313
273.3859	0.1453
273.5996	0.1358
273.8133	0.1402
274.0269	0.1332
274.2406	0.1239
274.4542	0.1321
274.6679	0.1259
274.8815	0.1429
275.0951	0.1386
275.3087	0.138
275.5223	0.1489
275.7358	0.139
275.9494	0.138
276.1629	0.1403
276.3765	0.1489
276.59	0.1324
276.8035	0.1463
277.017	0.1375
277.2305	0.1364
277.444	0.1422
277.6574	0.1408
277.8709	0.1328
278.0843	0.1301
278.2978	0.1407
278.5112	0.1365
278.7246	0.1449
278.938	0.1379
279.1513	0.1363
279.3647	0.1556
279.5781	0.1395
279.7914	0.1405
280.0047	0.1438
280.2181	0.15
280.4314	0.1404
280.6447	0.1443
280.8579	0.1484
281.0712	0.1542
281.2845	0.1455
281.4977	0.1466
281.711	0.1451
281.9242	0.1539
282.1374	0.1484
282.3506	0.1518
282.5638	0.1469
282.7769	0.1579
282.9901	0.1449
283.2033	0.1507
283.4164	0.1527
283.6295	0.1425
283.8426	0.1535
284.0557	0.1528
284.2688	0.1625
284.4819	0.1504
284.695	0.1481
284.908	0.1558
285.1211	0.1473
285.3341	0.1597
285.5471	0.1581
285.7601	0.1602
285.9731	0.1611
286.1861	0.1443
286.3991	0.1725
286.612	0.1644
286.825	0.1669
287.0379	0.174
287.2508	0.1468
287.4637	0.162
287.6766	0.1628
287.8895	0.1609
288.1024	0.1709
288.3152	0.1681
288.5281	0.1571
288.7409	0.1574
288.9538	0.1579
289.1666	0.1614
289.3794	0.1487
289.5922	0.1575
289.8049	0.1722
290.0177	0.1593
290.2304	0.1729
290.4432	0.1752
290.6559	0.1674
290.8686	0.1674
291.0813	0.169
291.294	0.1697
291.5067	0.1686
291.7194	0.1598
291.932	0.1779
292.1447	0.1612
292.3573	0.1543
292.5699	0.1607
292.7825	0.1668
292.9951	0.1625
293.2077	0.1633
293.4203	0.1543
293.6328	0.1523
293.8454	0.1792
294.0579	0.1578
294.2704	0.1712
294.4829	0.1568
294.6954	0.1668
294.9079	0.1732
295.1204	0.1561
295.3328	0.1527
295.5453	0.1556
295.7577	0.1658
295.9701	0.1621
296.1825	0.1757
296.3949	0.1635
296.6073	0.1541
296.8197	0.1671
297.0321	0.1797
297.2444	0.1568
297.4567	0.1652
297.6691	0.1645
297.8814	0.1515
298.0937	0.1687
298.306	0.1704
298.5182	0.1609
298.7305	0.1706
298.9428	0.166
299.155	0.1718
299.3672	0.1571
299.5794	0.1556
299.7916	0.1558
300.0038	0.1717
300.216	0.1679
300.4282	0.1726
300.6403	0.1573
300.8525	0.1692
301.0646	0.1503
301.2767	0.1621
301.4888	0.1634
301.7009	0.168
301.913	0.1493
302.125	0.1698
302.3371	0.1604
302.5491	0.1654
302.7612	0.1742
302.9732	0.174
303.1852	0.1634
303.3972	0.1611
303.6092	0.1519
303.8211	0.1515
304.0331	0.1566
304.245	0.1505
304.457	0.15
304.6689	0.1534
304.8808	0.1636
305.0927	0.1478
305.3046	0.1608
305.5164	0.1548
305.7283	0.1396
305.9401	0.1433
306.152	0.1503
306.3638	0.1551
306.5756	0.1449
306.7874	0.1478
306.9992	0.1489
307.2109	0.1378
307.4227	0.1324
307.6344	0.1339
307.8462	0.128
308.0579	0.1295
308.2696	0.1364
308.4813	0.1311
308.693	0.1324
308.9046	0.1382
309.1163	0.1318
309.328	0.1323
309.5396	0.1223
309.7512	0.1204
309.9628	0.1088
310.1744	0.1175
310.386	0.1166
310.5976	0.1206
310.8091	0.1123
311.0207	0.1115
311.2322	0.1245
311.4437	0.1057
311.6552	0.1047
311.8667	0.1099
312.0782	0.0992
312.2897	0.0992
312.5012	0.1082
312.7126	0.1027
312.924	0.0966
313.1355	0.1179
313.3469	0.1053
313.5583	0.1041
313.7696	0.1086
313.981	0.1081
314.1924	0.1042
314.4037	0.0944
314.6151	0.1114
314.8264	0.0912
315.0377	0.0993
315.249	0.105
315.4603	0.1041
315.6716	0.1017
315.8828	0.0909
316.0941	0.0987
316.3053	0.1029
316.5165	0.0933
316.7277	0.0877
316.9389	0.1036
317.1501	0.0891
317.3613	0.0902
317.5724	0.0836
317.7836	0.0874
317.9947	0.0976
318.2058	0.0896
318.417	0.0761
318.6281	0.0889
318.8391	0.101
319.0502	0.096
319.2613	0.0964
319.4723	0.1022
319.6834	0.0975
319.8944	0.0785
320.1054	0.0979
320.3164	0.0929
320.5274	0.0993
320.7383	0.0915
320.9493	0.1047
321.1602	0.0892
321.3712	0.0822
321.5821	0.0961
321.793	0.092
322.0039	0.103
322.2148	0.0904
322.4257	0.1025
322.6365	0.109
322.8474	0.1045
323.0582	0.0932
323.269	0.0982
323.4798	0.0985
323.6906	0.0932
323.9014	0.0939
324.1122	0.0878
324.3229	0.0902
324.5337	0.0867
324.7444	0.0795
324.9551	0.1144
325.1658	0.0892
325.3765	0.0991
325.5872	0.0935
325.7979	0.0871
326.0085	0.098
326.2192	0.1089
326.4298	0.0948
326.6404	0.0831
326.851	0.0967
327.0616	0.0929
327.2722	0.1016
327.4828	0.1096
327.6933	0.0908
327.9039	0.1029
328.1144	0.0993
328.3249	0.1016
328.5354	0.0932
328.7459	0.1061
328.9564	0.0923
329.1669	0.1012
329.3773	0.0907
329.5878	0.1026
329.7982	0.1124
330.0086	0.0938
330.219	0.1057
330.4294	0.0931
330.6398	0.1129
330.8502	0.0893
331.0605	0.1086
331.2708	0.099
331.4812	0.1045
331.6915	0.1078
331.9018	0.1034
332.1121	0.0889
332.3224	0.1112
332.5326	0.0962
332.7429	0.1031
332.9531	0.1118
333.1633	0.0982
333.3735	0.0992
333.5837	0.1016
333.7939	0.0994
334.0041	0.1137
334.2143	0.1059
334.4244	0.0974
334.6346	0.092
334.8447	0.1126
335.0548	0.0978
335.2649	0.1131
335.475	0.1069
335.685	0.1026
335.8951	0.1109
336.1051	0.1082
336.3152	0.1097
336.5252	0.1
336.7352	0.1006
336.9452	0.1091
337.1552	0.0984
337.3652	0.0941
337.5751	0.1092
337.7851	0.1111
337.995	0.0934
338.2049	0.1192
338.4148	0.1068
338.6247	0.0992
338.8346	0.1018
339.0445	0.0986
339.2543	0.0989
339.4642	0.1112
339.674	0.0989
339.8838	0.1102
340.0936	0.0985
340.3034	0.1128
340.5132	0.1042
340.7229	0.1077
340.9327	0.1054
341.1424	0.1103
341.3522	0.115
341.5619	0.1127
341.7716	0.1112
341.9813	0.1082
342.1909	0.1089
342.4006	0.1213
342.6102	0.119
342.8199	0.1141
343.0295	0.1177
343.2391	0.1186
343.4487	0.139
343.6583	0.1219
343.8679	0.1154
344.0774	0.1181
344.287	0.1146
344.4965	0.1176
344.706	0.1224
344.9155	0.1318
345.125	0.1139
345.3345	0.123
345.544	0.1344
345.7534	0.1223
345.9629	0.1207
346.1723	0.1171
346.3817	0.1159
346.5911	0.1124
346.8005	0.1231
347.0099	0.1206
347.2193	0.1281
347.4286	0.1264
347.638	0.1275
347.8473	0.1385
348.0566	0.132
348.2659	0.129
348.4752	0.1316
348.6845	0.1256
348.8937	0.1319
349.103	0.1383
349.3122	0.1328
349.5214	0.1235
349.7306	0.132
349.9398	0.141
350.149	0.1276
350.3582	0.1269
350.5674	0.1406
350.7765	0.1456
350.9856	0.1385
351.1948	0.1345
351.4039	0.1278
351.613	0.1297
351.822	0.1445
352.0311	0.1395
352.2402	0.1361
352.4492	0.1406
352.6582	0.1508
352.8672	0.1345
353.0762	0.1461
353.2852	0.1346
353.4942	0.1333
353.7032	0.1499
353.9121	0.14
354.1211	0.149
354.33	0.1513
354.5389	0.1397
354.7478	0.1412
354.9567	0.1465
355.1655	0.1362
355.3744	0.1455
355.5833	0.1638
355.7921	0.162
356.0009	0.1479
356.2097	0.1681
356.4185	0.1723
356.6273	0.1634
356.8361	0.1608
357.0448	0.1461
357.2536	0.1549
357.4623	0.1497
357.671	0.1557
357.8797	0.1618
358.0884	0.1617
358.2971	0.154
358.5057	0.1657
358.7144	0.171
358.923	0.1607
359.1316	0.1705
359.3402	0.1626
359.5488	0.1587
359.7574	0.1671
359.966	0.1698
360.1746	0.1739
360.3831	0.1787
360.5916	0.1647
360.8002	0.1629
361.0087	0.181
361.2172	0.1664
361.4256	0.1693
361.6341	0.1889
361.8426	0.1863
362.051	0.1773
362.2594	0.1782
362.4678	0.1791
362.6762	0.2024
362.8846	0.1857
363.093	0.1848
363.3014	0.1856
363.5097	0.1559
363.718	0.1952
363.9264	0.1827
364.1347	0.1784
364.343	0.1904
364.5513	0.1883
364.7595	0.2086
364.9678	0.1933
365.176	0.1986
365.3842	0.1769
365.5925	0.1916
365.8007	0.1828
366.0089	0.2008
366.217	0.1877
366.4252	0.2085
366.6333	0.2024
366.8415	0.1953
367.0496	0.1886
367.2577	0.2033
367.4658	0.2151
367.6739	0.2102
367.882	0.2214
368.09	0.203
368.2981	0.218
368.5061	0.1925
368.7141	0.2176
368.9221	0.2149
369.1301	0.2203
369.3381	0.2092
369.5461	0.2053
369.754	0.2049
369.962	0.2084
370.1699	0.2234
370.3778	0.2314
370.5857	0.1996
370.7936	0.2284
371.0015	0.22
371.2093	0.2234
371.4172	0.2332
371.625	0.213
371.8328	0.225
372.0406	0.2252
372.2484	0.2127
372.4562	0.2241
372.664	0.2121
372.8717	0.239
373.0795	0.2067
373.2872	0.2337
373.4949	0.2302
373.7026	0.2309
373.9103	0.229
374.118	0.2314
374.3256	0.216
374.5333	0.2232
374.7409	0.2331
374.9485	0.2523
375.1561	0.2432
375.3637	0.2332
375.5713	0.2355
375.7789	0.2285
375.9864	0.2228
376.194	0.2363
376.4015	0.2563
376.609	0.2396
376.8165	0.2588
377.024	0.2386
377.2315	0.2238
377.4389	0.2527
377.6464	0.258
377.8538	0.2628
378.0612	0.2327
378.2686	0.2303
378.476	0.2503
378.6834	0.255
378.8908	0.2492
379.0981	0.2662
379.3055	0.2575
379.5128	0.2475
379.7201	0.2568
379.9274	0.239
380.1347	0.2541
380.342	0.2751
380.5492	0.2605
380.7565	0.2457
380.9637	0.2395
381.1709	0.2595
381.3781	0.2605
381.5853	0.2595
381.7925	0.2762
381.9997	0.27
382.2068	0.2663
382.4139	0.2791
382.6211	0.2395
382.8282	0.2632
383.0353	0.2603
383.2424	0.259
383.4494	0.2593
383.6565	0.2564
383.8635	0.2592
384.0706	0.2639
384.2776	0.2788
384.4846	0.2559
384.6916	0.2658
384.8986	0.2593
385.1055	0.2682
385.3125	0.265
385.5194	0.2513
385.7263	0.2658
385.9333	0.2624
386.1402	0.2553
386.347	0.2537
386.5539	0.2508
386.7608	0.2708
386.9676	0.2497
387.1744	0.2747
387.3813	0.2587
387.5881	0.2635
387.7948	0.2527
388.0016	0.2442
388.2084	0.2637
388.4151	0.2397
388.6219	0.2597
388.8286	0.2475
389.0353	0.2675
389.242	0.2805
389.4487	0.2596
389.6553	0.2534
389.862	0.2272
390.0686	0.2588
390.2753	0.2443
390.4819	0.272
390.6885	0.2526
390.8951	0.242
391.1016	0.2497
391.3082	0.2367
391.5147	0.239
391.7213	0.2454
391.9278	0.2215
392.1343	0.2374
392.3408	0.2288
392.5473	0.2563
392.7537	0.2383
392.9602	0.2402
393.1666	0.2326
393.373	0.2415
393.5794	0.2387
393.7858	0.2449
393.9922	0.2206
394.1986	0.2259
394.4049	0.2369
394.6113	0.2279
394.8176	0.2364
395.0239	0.2316
395.2302	0.2039
395.4365	0.232
395.6428	0.227
395.8491	0.2197
396.0553	0.2094
396.2615	0.2195
396.4678	0.22
396.674	0.1931
396.8802	0.2288
397.0863	0.223
397.2925	0.2163
397.4987	0.2138
397.7048	0.2165
397.9109	0.2284
398.117	0.2142
398.3231	0.222
398.5292	0.2143
398.7353	0.2302
398.9413	0.2241
399.1474	0.2279
399.3534	0.2192
399.5594	0.2237
399.7654	0.2271
399.9714	0.2266
400.1774	0.2125
400.3833	0.2221
400.5893	0.2105
400.7952	0.2164
401.0011	0.205
401.207	0.2336
401.4129	0.2217
401.6188	0.2215
401.8247	0.2282
402.0305	0.2044
402.2364	0.2024
402.4422	0.2264
402.648	0.2205
402.8538	0.2157
403.0596	0.211
403.2654	0.2242
403.4711	0.2124
403.6768	0.2134
403.8826	0.2246
404.0883	0.2278
404.294	0.2144
404.4997	0.2043
404.7054	0.2161
404.911	0.2158
405.1167	0.2197
405.3223	0.2369
405.5279	0.2349
405.7335	0.2322
405.9391	0.2416
406.1447	0.2198
406.3502	0.2451
406.5558	0.2131
406.7613	0.2222
406.9668	0.2227
407.1724	0.2037
407.3778	0.2107
407.5833	0.2188
407.7888	0.2012
407.9942	0.2241
408.1997	0.217
408.4051	0.218
408.6105	0.2247
408.8159	0.2189
409.0213	0.2208
409.2267	0.2366
409.432	0.2058
409.6374	0.2251
409.8427	0.2097
410.048	0.2206
410.2533	0.2225
410.4586	0.2218
410.6639	0.2052
410.8691	0.2199
411.0744	0.2185
411.2796	0.2143
411.4848	0.2265
411.69	0.2169
411.8952	0.2231
412.1004	0.1904
412.3056	0.2294
412.5107	0.213
412.7158	0.2255
412.921	0.2111
413.1261	0.2005
413.3312	0.208
413.5362	0.1992
413.7413	0.2003
413.9464	0.206
414.1514	0.2197
414.3564	0.2351
414.5614	0.1919
414.7664	0.2083
414.9714	0.2175
415.1764	0.2128
415.3813	0.2253
415.5863	0.2074
415.7912	0.2115
415.9961	0.2246
416.201	0.2034
416.4059	0.2003
416.6108	0.1897
416.8156	0.2086
417.0205	0.2033
417.2253	0.1932
417.4301	0.218
417.6349	0.2181
417.8397	0.2089
418.0445	0.2117
418.2492	0.2086
418.454	0.2118
418.6587	0.1943
418.8634	0.2135
419.0681	0.2081
419.2728	0.2069
419.4775	0.2049
419.6822	0.1868
419.8868	0.1861
420.0915	0.2004
420.2961	0.1901
420.5007	0.1919
420.7053	0.2029
420.9099	0.213
421.1144	0.1996
421.319	0.1955
421.5235	0.1947
421.728	0.1983
421.9325	0.1962
422.137	0.1945
422.3415	0.1831
422.546	0.202
422.7504	0.2002
422.9549	0.1972
423.1593	0.2073
423.3637	0.2054
423.5681	0.1767
423.7725	0.1905
423.9769	0.1738
424.1812	0.1821
424.3856	0.1772
424.5899	0.1757
424.7942	0.1843
424.9985	0.1779
425.2028	0.1711
425.4071	0.198
425.6113	0.1641
425.8156	0.2067
426.0198	0.1756
426.224	0.1471
426.4282	0.1738
426.6324	0.1782
426.8366	0.1718
427.0407	0.174
427.2449	0.1628
427.449	0.173
427.6531	0.1308
427.8572	0.1683
428.0613	0.158
428.2654	0.1799
428.4694	0.1625
428.6735	0.1692
428.8775	0.1721
429.0815	0.1779
429.2855	0.1514
429.4895	0.1663
429.6935	0.1555
429.8975	0.152
430.1014	0.1502
430.3053	0.1436
430.5093	0.1506
430.7132	0.1458
430.9171	0.1455
431.1209	0.1498
431.3248	0.1439
431.5286	0.1395
431.7325	0.146
431.9363	0.1373
432.1401	0.1331
432.3439	0.1116
432.5477	0.1291
432.7514	0.1253
432.9552	0.133
433.1589	0.1181
433.3627	0.1166
433.5664	0.1206
433.7701	0.1227
433.9737	0.1196
434.1774	0.1137
434.3811	0.1383
434.5847	0.1294
434.7883	0.1219
434.9919	0.1098
435.1955	0.1176
435.3991	0.104
435.6027	0.1305
435.8062	0.121
436.0098	0.1068
436.2133	0.1046
436.4168	0.1056
436.6203	0.0902
436.8238	0.0996
437.0272	0.1155
437.2307	0.095
437.4341	0.1066
437.6375	0.1174
437.841	0.0923
438.0443	0.0931
438.2477	0.0921
438.4511	0.0994
438.6545	0.0876
438.8578	0.1074
439.0611	0.0886
439.2644	0.0864
439.4677	0.0718
439.671	0.0844
439.8743	0.0858
440.0775	0.0847
440.2808	0.0782
440.484	0.0757
440.6872	0.08
440.8904	0.0661
441.0936	0.0744
441.2967	0.0702
441.4999	0.0701
441.703	0.0772
441.9062	0.0471
442.1093	0.0668
442.3124	0.0714
442.5155	0.0555
442.7185	0.0627
442.9216	0.0492
443.1246	0.0832
443.3276	0.0507
443.5307	0.0651
443.7337	0.0629
443.9366	0.0699
444.1396	0.0523
444.3426	0.0486
444.5455	0.0525
444.7484	0.0537
444.9513	0.0572
445.1542	0.0729
445.3571	0.0454
445.56	0.0494
445.7628	0.0367
445.9657	0.061
446.1685	0.0504
446.3713	0.0507
446.5741	0.0404
446.7769	0.0264
446.9797	0.0609
447.1824	0.0382
447.3852	0.0273
447.5879	0.0493
447.7906	0.0507
447.9933	0.0421
448.196	0.0183
448.3986	0.0496
448.6013	0.0265
448.8039	0.0212
449.0066	0.0214
449.2092	0.0473
449.4118	0.0392
449.6143	0.0189
449.8169	0.0322
450.0195	0.0182
450.222	0.0087
450.4245	0.0125
450.627	0.0403
450.8295	0.0268
451.032	0.0247
451.2345	0.0254
451.4369	0.0438
451.6394	0.0173
451.8418	0.005
452.0442	0.017
452.2466	0.0292
452.449	0.0098
452.6513	0.0189
452.8537	0.0229
453.056	0.0084
453.2583	0.0132
453.4607	0.0245
453.663	0.0132
453.8652	0.0331
454.0675	0.0093
454.2697	0.0187
454.472	0.0139
454.6742	0.0256
454.8764	0.0075
455.0786	0.0214
455.2808	0.0155
455.4829	0.0134
455.6851	0.0232
455.8872	0.0291
456.0893	0.0089
456.2915	-0.0008
456.4935	0.0023
456.6956	0.022
456.8977	0.0141
457.0997	0.0006
457.3018	0.0014
457.5038	0.007
457.7058	0.0078
457.9078	-0.0001
458.1098	0.0256
458.3117	0.0162
458.5137	0.015
458.7156	0.0238
458.9175	0.0027
459.1194	0.014
459.3213	0.013
459.5232	0.0066
459.725	-0.0128
459.9269	-0.0006
460.1287	-0.0061
460.3305	0.0105
460.5323	0.0111
460.7341	0.0113
460.9359	0.0101
461.1376	0.0127
461.3394	-0.0032
461.5411	0.0082
461.7428	0.0085
461.9445	0.0123
462.1462	0.0138
462.3479	-0.007
462.5495	-0.0048
462.7512	0.0181
462.9528	0.0087
463.1544	-0.013
463.356	0.0018
463.5576	0.0107
463.7592	-0.001
463.9607	0.0072
464.1623	0.0254
464.3638	0.025
464.5653	-0.0094
464.7668	-0.0086
464.9683	0.0038
465.1697	0.019
465.3712	-0.0044
465.5726	-0.0126
465.7741	-0.0058
465.9755	-0.004
466.1769	-0.0116
466.3782	0.0005
466.5796	-0.0223
466.7809	0.0058
466.9823	0.0015
467.1836	0.0122
467.3849	-0.0052
467.5862	-0.0022
467.7875	-0.0062
467.9887	0.0101
468.19	-0.007
468.3912	-0.0143
468.5924	0.0023
468.7936	-0.0124
468.9948	0.0085
469.196	0.0025
469.3972	-0.0059
469.5983	0.0058
469.7994	-0.0126
470.0006	-0.0108
470.2017	-0.0096
470.4027	0.0081
470.6038	0.0076
470.8049	-0.0126
471.0059	-0.0079
471.2069	-0.0259
471.408	-0.0008
471.6089	0.0002
471.8099	-0.0039
472.0109	-0.0009
472.2119	-0.0139
472.4128	-0.0248
472.6137	-0.0007
472.8146	-0.0181
473.0155	-0.0103
473.2164	-0.0115
473.4173	-0.0071
473.6181	0.0077
473.819	0.0031
474.0198	-0.0184
474.2206	-0.0003
474.4214	-0.0043
474.6222	-0.0113
474.8229	0.0021
475.0237	-0.0178
475.2244	-0.0112
475.4251	-0.0017
475.6258	0.0017
475.8265	-0.0027
476.0272	0.0052
476.2278	0.0044
476.4285	-0.004
476.6291	-0.0149
476.8297	-0.0067
477.0303	0.0071
477.2309	-0.0029
477.4315	-0.0109
477.632	-0.0102
477.8326	0.0027
478.0331	0.004
478.2336	0.0057
478.4341	0.0042
478.6346	-0.0094
478.8351	-0.0015
479.0355	-0.0009
479.236	-0.0136
479.4364	0
479.6368	-0.0025
479.8372	-0.0159
480.0376	-0.0046
480.2379	-0.0198
480.4383	0.0028
480.6386	0.0113
480.8389	-0.0084
481.0392	-0.0152
481.2395	-0.0137
481.4398	-0.0017
481.6401	-0.0018
481.8403	0.0027
482.0405	-0.0065
482.2408	-0.0115
482.441	0.009
482.6411	-0.003
482.8413	-0.0029
483.0415	-0.0035
483.2416	-0.0079
483.4417	0.0086
483.6419	-0.0084
483.8419	-0.0023
484.042	0.0058
484.2421	-0.0027
484.4422	-0.0016
484.6422	-0.002
484.8422	-0.0069
485.0422	-0.0083
485.2422	-0.0033
485.4422	-0.006
485.6422	-0.0092
485.8421	-0.0016
486.042	0.0035
486.242	0.0003
486.4419	-0.0119
486.6417	-0.0125
486.8416	-0.0118
487.0415	-0.0064
487.2413	-0.0023
487.4411	-0.0058
487.641	-0.0027
487.8408	0.0048
488.0405	-0.0092
488.2403	-0.0055
488.4401	0.0091
488.6398	-0.0048
488.8395	-0.0016
489.0392	0.007
489.2389	0.0033
489.4386	-0.0011
489.6383	-0.0058
489.8379	0.0038
490.0376	-0.0071
490.2372	-0.0138
490.4368	-0.0177
490.6364	-0.0064
490.836	-0.0134
491.0355	-0.0093
491.2351	-0.0102
491.4346	-0.0108
491.6341	-0.0123
491.8336	-0.0071
492.0331	-0.0032
492.2326	-0.0103
492.432	-0.0039
492.6315	-0.0165
492.8309	-0.0085
493.0303	-0.0083
493.2297	-0.0094
493.4291	0.0006
493.6284	-0.0041
493.8278	-0.0097
494.0271	0.0006
494.2264	0.0137
494.4257	-0.0111
494.625	-0.002
494.8243	-0.0135
495.0236	0.0019
495.2228	-0.0076
495.422	-0.0004
495.6213	-0.0018
495.8205	-0.007
496.0196	-0.0022
496.2188	0.0032
496.418	-0.009
496.6171	-0.0086
496.8162	-0.0188
497.0153	-0.0008
497.2144	-0.0071
497.4135	-0.0072
497.6126	-0.0125
497.8116	-0.0129
498.0107	0.0045
498.2097	-0.0095
498.4087	-0.0125
498.6077	-0.0063
498.8067	-0.0085
499.0056	0.0055
499.2046	-0.0099
499.4035	-0.0231
499.6024	-0.014
499.8013	-0.0063
500.0002	-0.016
500.199	-0.0091
500.3979	-0.0076
500.5967	-0.0209
500.7956	-0.0052
500.9944	-0.0054
501.1932	-0.007
501.3919	-0.0089
501.5907	-0.0239
501.7895	-0.002
501.9882	-0.0081
502.1869	-0.0043
502.3856	-0.0051
502.5843	-0.0067
502.783	-0.0074
502.9816	-0.0049
503.1803	-0.0172
503.3789	-0.0054
503.5775	0.0086
503.7761	-0.0103
503.9747	-0.01
504.1732	-0.0068
504.3718	-0.0019
504.5703	-0.0031
504.7689	0.0007
504.9674	-0.0045
505.1658	-0.0063
505.3643	-0.002
505.5628	-0.0091
505.7612	-0.0137
505.9597	0.0065
506.1581	-0.0023
506.3565	0.0067
506.5549	-0.0099
506.7532	-0.0147
506.9516	-0.0048
507.1499	0.0081
507.3482	-0.0152
507.5465	-0.0158
507.7448	-0.0045
507.9431	0.0019
508.1414	0.0038
508.3396	-0.0062
508.5379	-0.0108
508.7361	-0.007
508.9343	-0.0019
509.1325	0.0005
509.3306	-0.0116
509.5288	-0.0134
509.7269	-0.0114
509.9251	-0.0042
510.1232	-0.0098
510.3213	-0.0047
510.5193	-0.0012
510.7174	-0.0057
510.9154	-0.0019
511.1135	-0.0008
511.3115	-0.0115
511.5095	-0.0026
511.7075	-0.0105
511.9055	0.0008
512.1034	-0.0026
512.3014	0.0016
512.4993	-0.0019
512.6972	-0.0136
512.8951	-0.012
513.093	0.0039
513.2908	0.0063
513.4887	-0.0061
513.6865	-0.0089
513.8844	-0.0064
514.0822	-0.011
514.2799	-0.0121
514.4777	-0.0096
514.6755	-0.0098
514.8732	-0.0073
515.0709	0.0003
515.2687	-0.0042
515.4664	-0.0041
515.664	-0.0125
515.8617	-0.0038
516.0594	-0.0161
516.257	-0.0067
516.4546	-0.0135
516.6522	0.0058
516.8498	-0.007
517.0474	-0.005
517.2449	-0.0016
517.4425	-0.011
517.64	-0.0093
517.8375	-0.0002
518.035	-0.0056
518.2325	-0.0136
518.43	-0.0078
518.6274	-0.0118
518.8249	-0.0116
519.0223	-0.0031
519.2197	-0.0061
519.4171	-0.006
519.6145	-0.0022
519.8118	0.004
520.0092	-0.0085
520.2065	-0.0121
520.4038	-0.0215
520.6011	-0.0026
520.7984	0
520.9956	-0.0053
521.1929	0.0045
521.3901	0.0036
521.5874	-0.0069
521.7846	-0.0031
521.9818	-0.0061
522.1789	-0.0078
522.3761	-0.0005
522.5732	-0.004
522.7704	-0.002
522.9675	0.0009
523.1646	-0.0053
523.3617	0.0032
523.5587	-0.0041
523.7558	-0.0029
523.9528	-0.0074
524.1498	-0.011
524.3468	-0.0017
524.5438	0.0012
524.7408	0.0039
524.9378	0.014
525.1347	-0.0029
525.3316	0.0033
525.5285	-0.0065
525.7254	-0.0063
525.9223	-0.0002
526.1192	-0.0097
526.316	-0.0034
526.5129	0.0045
526.7097	-0.0018
526.9065	-0.0109
527.1033	-0.0131
527.3	-0.0031
527.4968	-0.0004
527.6935	-0.0076
527.8903	-0.0071
528.087	-0.0129
528.2837	-0.0003
528.4804	-0.0047
528.677	-0.0059
528.8737	0.003
529.0703	0.0052
529.2669	-0.0049
529.4635	-0.0058
529.6601	0.0002
529.8567	-0.0043
530.0532	-0.0118
530.2498	0.0037
530.4463	0.0062
530.6428	0.0019
530.8393	0.0051
531.0358	-0.0036
531.2322	-0.0001
531.4287	0.0091
531.6251	-0.0044
531.8215	0.0089
532.0179	0.0015
532.2143	0.0032
532.4107	-0.0048
532.607	-0.0048
532.8034	0.0055
532.9997	-0.0023
533.196	-0.0106
533.3923	-0.0179
533.5886	-0.0014
533.7848	0.0002
533.9811	-0.0007
534.1773	0.0069
534.3735	0.0051
534.5697	-0.0085
534.7659	-0.0011
534.9621	-0.0086
535.1582	-0.0053
535.3544	-0.0114
535.5505	-0.0021
535.7466	-0.0115
535.9427	-0.0141
536.1387	-0.004
536.3348	-0.0002
536.5308	-0.0088
536.7269	-0.0157
536.9229	-0.001
537.1189	-0.002
537.3148	-0.0129
537.5108	-0.0127
537.7068	-0.0029
537.9027	-0.0017
538.0986	-0.0161
538.2945	-0.0166
538.4904	-0.0099
538.6863	-0.0032
538.8821	-0.0054
539.078	-0.0074
539.2738	0.0091
539.4696	-0.0069
539.6654	0.0032
539.8611	0.0014
540.0569	-0.0002
540.2526	-0.0077
540.4484	0.0021
540.6441	0.003
540.8398	-0.0093
541.0355	0.0025
541.2311	0.0023
541.4268	-0.0046
541.6224	0.0043
541.818	-0.0012
542.0136	-0.0047
542.2092	0.0028
542.4048	-0.0001
542.6003	-0.0041
542.7959	0.0012
542.9914	-0.0025
543.1869	-0.0062
543.3824	-0.0059
543.5779	-0.0071
543.7734	-0.0058
543.9688	-0.0104
544.1642	0.0054
544.3596	-0.0027
544.555	0.001
544.7504	-0.006
544.9458	0.0013
545.1411	0.0044
545.3365	-0.0039
545.5318	-0.0096
545.7271	-0.0001
545.9224	-0.0005
546.1177	-0.0032
546.3129	-0.0052
546.5081	-0.0039
546.7034	0.0036
546.8986	-0.0058
547.0938	-0.009
547.289	-0.0048
547.4841	-0.0055
547.6793	0.0039
547.8744	-0.0073
548.0695	-0.0073
548.2646	-0.0117
548.4597	0.001
548.6548	-0.0046
548.8498	-0.009
549.0448	0.0062
549.2399	-0.0026
549.4349	0.0034
549.6298	0.0065
549.8248	-0.0038
550.0198	-0.0028
550.2147	-0.0042
550.4096	-0.0086
550.6045	-0.0012
550.7994	-0.0027
550.9943	0.0072
551.1892	-0.0068
551.384	0.0016
551.5788	-0.0114
551.7737	0.0024
551.9685	-0.0009
552.1632	-0.0003
552.358	-0.0099
552.5528	-0.0048
552.7475	-0.005
552.9422	-0.0016
553.1369	0.0026
553.3316	0.0103
553.5263	-0.0111
553.7209	0.0053
553.9156	-0.0006
554.1102	-0.0099
554.3048	-0.0105
554.4994	0.0067
554.694	-0.003
554.8885	0.0046
555.0831	-0.0097
555.2776	-0.0026
555.4721	-0.0024
555.6666	-0.0008
555.8611	0.0094
556.0555	-0.0084
556.25	-0.008
556.4444	-0.0021
556.6388	0.0073
556.8332	0.0009
557.0276	0.0018
557.222	-0.0094
557.4163	-0.0012
557.6107	-0.0116
557.805	0.0069
557.9993	-0.005
558.1936	0.0019
558.3879	0.0018
558.5821	-0.002
558.7764	-0.0106
558.9706	-0.0017
559.1648	0.0036
559.359	-0.003
559.5532	-0.0041
559.7473	-0.0046
559.9415	0.0074
560.1356	-0.0132
560.3297	-0.0135
560.5238	-0.0004
560.7179	-0.013
560.9119	-0.0154
561.106	-0.0112
561.3	-0.0104
561.494	-0.0047
561.688	-0.0111
561.882	-0.0101
562.076	-0.009
562.2699	0.0048
562.4639	-0.0047
562.6578	0.004
562.8517	-0.0007
563.0456	0.0014
563.2395	-0.0019
563.4333	-0.0013
563.6272	0.0019
563.821	-0.0014
564.0148	-0.0019
564.2086	-0.0081
564.4024	-0.0047
564.5961	-0.0014
564.7899	0.0068
564.9836	0.0018
565.1773	-0.0021
565.371	0.0065
565.5647	0.0063
565.7584	0.0014
565.952	0.0005
566.1456	-0.0033
566.3393	0.0024
566.5329	-0.0026
566.7264	0.0001
566.92	-0.0049
567.1136	0.0045
567.3071	-0.007
567.5006	0.0008
567.6941	0.0001
567.8876	-0.0074
568.0811	0.0003
568.2745	0.0075
568.468	0.0057
568.6614	0.0008
568.8548	0.0044
569.0482	-0.0006
569.2416	0.0049
569.4349	0.0022
569.6283	0.004
569.8216	-0.0069
570.0149	-0.0008
570.2082	0.0051
570.4015	0.0038
570.5947	0.0046
570.788	0.008
570.9812	0.0081
571.1744	0.0058
571.3676	-0.004
571.5608	-0.0006
571.754	-0.0009
571.9471	-0.002
572.1402	0.0006
572.3333	-0.0105
572.5264	-0.0015
572.7195	0.0019
572.9126	0.0019
573.1057	0.0034
573.2987	-0.0063
573.4917	0.0041
573.6847	-0.007
573.8777	0.0043
574.0707	0.0049
574.2636	-0.006
574.4566	-0.0035
574.6495	0.009
574.8424	0.0032
575.0353	0.001
575.2281	0.0072
575.421	0.012
575.6138	0.0082
575.8067	-0.0044
575.9995	0.0063
576.1923	0.0059
576.385	0.0075
576.5778	0.0005
576.7706	-0.0013
576.9633	0.0032
577.156	0.0016
577.3487	-0.0012
577.5414	0.0021
577.734	0
577.9267	0.0057
578.1193	-0.0056
578.3119	-0.009
578.5045	0.001
578.6971	-0.0008
578.8897	0.0104
579.0822	0.0018
579.2747	0.0051
579.4673	-0.0068
579.6598	-0.0079
579.8522	-0.0017
580.0447	0.001
580.2372	0.0035
580.4296	0.0027
580.622	-0.0036
580.8144	0.0024
581.0068	0.0006
581.1992	-0.0098
581.3915	-0.003
581.5839	-0.008
581.7762	-0.0059
581.9685	-0.0031
582.1608	0.0042
582.353	-0.0062
582.5453	-0.0003
582.7375	0.0022
582.9298	0.0086
583.122	0.0034
583.3142	0.0029
583.5063	-0.0005
583.6985	-0.0051
583.8906	-0.0031
584.0827	-0.0002
584.2749	0.0011
584.4669	0.007
584.659	-0.001
584.8511	0.006
585.0431	0.0023
585.2352	0.0019
585.4272	-0.0048
585.6192	0.0015
585.8111	0.0023
586.0031	0.0038
586.195	-0.0005
586.387	0.0084
586.5789	-0.0014
586.7708	-0.0006
586.9627	-0.0019
587.1545	-0.0117
587.3464	-0.0033
587.5382	0.002
587.73	0.003
587.9218	0.006
588.1136	0.0004
588.3053	0.0112
588.4971	-0.0033
588.6888	-0.0075
588.8805	0.0014
589.0722	0.0084
589.2639	0.0051
589.4556	-0.0057
589.6472	-0.002
589.8389	-0.0069
590.0305	-0.0068
590.2221	0.0004
590.4137	-0.0021
590.6052	0.0019
590.7968	-0.0023
590.9883	0.0012
591.1798	-0.0073
591.3713	0.0028
591.5628	-0.0051
591.7543	0.0071
591.9458	-0.0034
592.1372	0.0054
592.3286	0.0085
592.52	0.0002
592.7114	-0.0021
592.9028	-0.0003
593.0941	-0.0002
593.2855	0.0045
593.4768	-0.0024
593.6681	-0.0098
593.8594	-0.0008
594.0506	-0.0017
594.2419	0.0075
594.4331	-0.0023
594.6244	-0.0038
594.8156	-0.0035
595.0067	0.0018
595.1979	0.0046
595.3891	0.0054
595.5802	-0.0042
595.7713	-0.0007
595.9624	-0.0043
596.1535	0.0109
596.3446	0.0037
596.5357	-0.0016
596.7267	0.0053
596.9177	-0.0021
597.1087	-0.0041
597.2997	-0.0015
597.4907	0.0029
597.6817	-0.002
597.8726	0.0012
598.0635	-0.0068
598.2544	0.0078
598.4453	0.0001
598.6362	-0.0021
598.827	-0.0041
599.0179	-0.0002
599.2087	0.003
599.3995	0.0046
599.5903	0.0037
599.7811	0.0002
599.9718	-0.0014
600.1626	-0.0035
600.3533	-0.0027
600.544	0.0008
600.7347	0.0039
600.9254	0.0008
601.116	-0.0095
601.3067	0.0009
601.4973	-0.0031
601.6879	0.0082
601.8785	-0.0104
602.0691	0.0062
602.2596	0.0061
602.4502	0.004
602.6407	0.0091
602.8312	0.0099
603.0217	-0.0038
603.2122	0.0038
603.4027	-0.0033
603.5931	0.0061
603.7835	-0.0037
603.9739	-0.0051
604.1643	0.0023
604.3547	-0.0057
604.5451	-0.0003
604.7354	-0.0011
604.9257	0.0034
605.116	0.0003
605.3063	0.008
605.4966	0.0008
605.6869	0.0035
605.8771	0.0063
606.0673	0.002
606.2575	0.0076
606.4477	0.0112
606.6379	0.0022
606.8281	-0.0012
607.0182	0.0031
607.2083	0.0095
607.3985	-0.0022
607.5885	-0.0015
607.7786	-0.0008
607.9687	-0.0016
608.1587	0.0022
608.3488	0.0013
608.5388	0.0047
608.7288	-0.0078
608.9187	-0.0009
609.1087	-0.0027
609.2986	-0.0043
609.4886	0.0039
609.6785	-0.0011
609.8684	0.0013
610.0582	0.0008
610.2481	-0.0026
610.4379	-0.0038
610.6278	-0.0058
610.8176	-0.0073
611.0074	-0.0102
611.1971	-0.0048
611.3869	-0.0092
611.5766	-0.0065
611.7664	0.0013
611.9561	0.0022
612.1458	0.0052
612.3354	-0.006
612.5251	0.0004
612.7147	0.0073
612.9044	0.0056
613.094	-0.0036
613.2836	-0.0047
613.4731	-0.0014
613.6627	-0.0037
613.8522	0.0034
614.0417	0.0083
614.2313	-0.0031
614.4207	-0.0057
614.6102	0.0053
614.7997	0.003
614.9891	-0.0017
615.1785	-0.0016
615.3679	0.0001
615.5573	0.0082
615.7467	0.0007
615.9361	-0.0047
616.1254	0.0021
616.3147	0.0036
616.504	-0.0004
616.6933	0.0052
616.8826	0.009
617.0718	0.0007
617.2611	0.0043
617.4503	0.0011
617.6395	-0.0034
617.8287	0.0005
618.0179	-0.0013
618.207	0.0086
618.3961	0.0056
618.5853	-0.0057
618.7744	0.0083
618.9634	0.0151
619.1525	-0.0033
619.3416	0.0018
619.5306	0.0026
619.7196	0.0109
619.9086	0.0068
620.0976	0.0035
620.2866	0.002
620.4755	0.0041
620.6645	0.0038
620.8534	0.0038
621.0423	0.0107
621.2312	0.0047
621.42	0.0016
621.6089	-0.0009
621.7977	0.0128
621.9865	0.0009
622.1753	0.0107
622.3641	-0.004
622.5529	0.0073
622.7416	0.0041
622.9303	-0.0016
623.1191	0.003
623.3078	-0.0021
623.4964	-0.0022
623.6851	0.003
623.8737	-0.0041
624.0624	0.0105
624.251	-0.0028
624.4396	-0.0029
624.6282	-0.0036
624.8167	-0.001
625.0053	0.0004
625.1938	-0
625.3823	0.0039
625.5708	-0.0088
625.7593	-0.0042
625.9477	-0.0091
626.1362	-0.0001
626.3246	0.002
626.513	0.0074
626.7014	0.008
626.8898	0.0006
627.0781	0.0048
627.2665	0.0042
627.4548	0.0031
627.6431	0.011
627.8314	0.0054
628.0197	0.0041
628.2079	-0.008
628.3962	-0.0024
628.5844	0.0001
628.7726	0.0076
628.9608	0.002
629.1489	0.0094
629.3371	0.0052
629.5252	-0.0015
629.7134	0.0102
629.9015	0.0007
630.0895	-0.0083
630.2776	0.0068
630.4657	0.0001
630.6537	0.0031
630.8417	-0.0059
631.0297	-0.0088
631.2177	-0.0029
631.4057	-0.0059
631.5936	0.0033
631.7815	-0.0005
631.9695	0.0007
632.1574	0.0025
632.3452	0.0117
632.5331	0.0046
632.7209	0.005
632.9088	0.0137
633.0966	0.009
633.2844	-0.002
633.4722	-0.0038
633.6599	0.0078
633.8477	0.0087
634.0354	0.0034
634.2231	0.0017
634.4108	0.0063
634.5985	0.0077
634.7861	0.0047
634.9738	-0.002
635.1614	0.0043
635.349	0.0026
635.5366	-0.0031
635.7242	0.0081
635.9117	0.0023
636.0993	0.0029
636.2868	0.0091
636.4743	-0.0076
636.6618	0.0028
636.8492	-0.0023
637.0367	0.0034
637.2241	-0.002
637.4115	0.0015
637.5989	0.0005
637.7863	-0.011
637.9737	-0.0087
638.161	-0.0027
638.3484	0.0058
638.5357	0.0105
638.723	-0.0018
638.9103	0.0056
639.0975	0.0032
639.2848	0.0026
639.472	0.0078
639.6592	0.0167
639.8464	-0.0002
640.0336	0.0056
640.2208	0.002
640.4079	-0.0007
640.595	0.0004
640.7821	0.0072
640.9692	0.0066
641.1563	0.0011
641.3434	0.0017
641.5304	-0.0013
641.7174	0.0017
641.9044	0.0043
642.0914	0.0051
642.2784	0.0065
642.4653	0.0086
642.6523	-0.0025
642.8392	-0.0042
643.0261	0.0052
643.213	-0.001
643.3999	-0.0046
643.5867	0.0026
643.7735	0.0034
643.9604	0.0012
644.1472	0.0043
644.3339	0.0095
644.5207	0.009
644.7075	0.0046
644.8942	0.0079
645.0809	0.0081
645.2676	0.0091
645.4543	0.0125
645.6409	0.0073
645.8276	0.0041
646.0142	0.01
646.2008	-0.0044
646.3874	-0.0082
646.574	0.0017
646.7605	0.0013
646.9471	-0.0157
647.1336	-0.0009
647.3201	0.0086
647.5066	-0.0089
647.6931	0.0102
647.8795	0.0062
648.0659	0.0117
648.2524	0.0074
648.4388	-0.0001
648.6252	0.0049
648.8115	0.0035
648.9979	0.0021
649.1842	0.0006
649.3705	0.0121
649.5568	0.0092
649.7431	0.0061
649.9294	-0.0072
650.1156	-0.0001
650.3018	-0.0037
650.488	0.0074
650.6742	0.0054
650.8604	0.0034
651.0466	-0.0042
651.2327	0.0049
651.4188	-0.0012
651.6049	-0.0028
651.791	0.0004
651.9771	0.0065
652.1632	0.0089
652.3492	-0.001
652.5352	0.0062
652.7212	-0.0002
652.9072	0.0048
653.0932	0.0071
653.2791	0.0005
653.465	-0.0006
653.651	0.0013
653.8369	-0.0055
654.0227	0.0069
654.2086	0.0145
654.3944	0.0165
654.5803	-0.0015
654.7661	0.0006
654.9519	0.0099
655.1377	0.0019
655.3234	0.0024
655.5092	0.0003
655.6949	-0.0052
655.8806	0.0002
656.0663	0.0025
656.2519	-0.0009
656.4376	-0.0053
656.6232	0.0055
656.8088	-0.0006
656.9945	0.0003
657.18	0.0012
657.3656	0.0017
657.5511	0.0042
657.7367	-0.0021
657.9222	0.0034
658.1077	-0.0011
658.2932	0.0048
658.4786	-0.0071
658.6641	-0.0053
658.8495	0.0004
659.0349	-0.0054
659.2203	0.005
659.4057	0.0026
659.591	-0.0004
659.7764	0.0011
659.9617	0.0059
660.147	0.0002
660.3323	0.0014
660.5176	0.0105
660.7028	0.0028
660.888	0.0046
661.0733	0.0014
661.2585	-0.0013
661.4436	0.0051
661.6288	-0.005
661.8139	0.0032
661.9991	0.0076
662.1842	-0.0024
662.3693	0.0128
662.5544	0.0055
662.7394	-0.0012
662.9245	-0.0003
663.1095	-0.0099
663.2945	0.0033
663.4795	0.0083
663.6644	0.0016
663.8494	0.0029
664.0343	0.0076
664.2193	-0.0001
664.4042	0.0043
664.589	0.0007
664.7739	-0.0001
664.9587	-0.0052
665.1436	-0.007
665.3284	0.0006
665.5132	0.0004
665.698	0.0008
665.8827	0.0107
666.0675	-0.0028
666.2522	-0.0046
666.4369	0.0039
666.6216	0.0048
666.8063	0.0067
666.9909	0.0054
667.1756	0
667.3602	0.0035
667.5448	-0.0047
667.7294	0.0085
667.9139	0.006
668.0985	0.015
668.283	0.0042
668.4675	-0.0012
668.652	0.0046
668.8365	0.0007
669.0209	0.0087
669.2054	0.0105
669.3898	0.0047
669.5742	0.0137
669.7586	0.0054
669.943	0.0118
670.1273	0.0032
670.3117	0.0118
670.496	0.0051
670.6803	0.0096
670.8646	0.003
671.0488	0.0012
671.2331	0.0097
671.4173	0.0106
671.6015	0.0006
671.7857	0.0068
671.9699	0.0104
672.1541	0.0095
672.3382	0.0035
672.5223	0.0121
672.7064	0.0114
672.8905	0.006
673.0746	-0.0014
673.2587	-0.0004
673.4427	0.0048
673.6267	0.0066
673.8107	0.0042
673.9947	0.0062
674.1787	0.0016
674.3626	-0.0031
674.5465	0.0094
674.7304	0.0017
674.9143	0.0094
675.0982	0.0035
675.2821	-0.0022
675.4659	0.0035
675.6497	0.0013
675.8335	-0.0007
676.0173	0.0048
676.2011	0.0033
676.3849	-0.0003
676.5686	-0.0056
676.7523	0.0021
676.936	0.0045
677.1197	-0.0058
677.3034	-0.0062
677.487	0.0009
677.6706	-0.0024
677.8542	0.0051
678.0378	-0.0013
678.2214	-0.0027
678.405	0.0008
678.5885	-0.01
678.772	0.0003
678.9555	-0.0039
679.139	-0.004
679.3225	0.0023
679.5059	0.0024
679.6894	0.0031
679.8728	0.0013
680.0562	-0.0133
680.2395	-0.0008
680.4229	0.0014
680.6062	0.0067
680.7896	0.0099
680.9729	-0.0015
681.1562	0.0084
681.3394	0.0005
681.5227	-0.0051
681.7059	0.0022
681.8891	0.0011
682.0723	0.0094
682.2555	0.0066
682.4387	0.005
682.6218	0.0019
682.805	0.0063
682.9881	0.0005
683.1712	-0.0035
683.3542	-0.0026
683.5373	0.0007
683.7203	-0.0074
683.9034	-0.0034
684.0864	-0.008
684.2694	-0.0054
684.4523	0.0018
684.6353	-0.0013
684.8182	0.0003
685.0011	-0.0077
685.184	0.0061
685.3669	0.0047
685.5498	0.0028
685.7326	0.0116
685.9154	-0.009
686.0982	0.0052
686.281	0.0041
686.4638	0.0003
686.6465	-0.0121
686.8293	-0.004
687.012	-0.0003
687.1947	-0.006
687.3774	0.0048
687.56	-0.0031
687.7427	0.0084
687.9253	-0.0062
688.1079	0.0051
688.2905	0.0113
688.4731	0.0023
688.6556	0.0053
688.8382	0.0013
689.0207	0.0044
689.2032	-0.0047
689.3857	0.0039
689.5681	0.0035
689.7506	-0.0006
689.933	0.0011
690.1154	0.0064
690.2978	0.001
690.4802	0.0094
690.6626	0.0027
690.8449	-0.0024
691.0272	0.0082
691.2095	0.0018
691.3918	-0.0075
691.5741	0.0062
691.7563	0.0072
691.9386	0.0078
692.1208	0.0021
692.303	0.0082
692.4852	0.0029
692.6673	-0.004
692.8495	0.0046
693.0316	0.0076
693.2137	0.0039
693.3958	0.0085
693.5778	0.0081
693.7599	-0.0042
693.9419	-0.0013
694.1239	-0.0026
694.3059	-0.0068
694.4879	0.0026
694.6699	0.0003
694.8518	-0.0039
695.0337	0.0007
695.2157	0.0009
695.3975	-0.0036
695.5794	0.0013
695.7613	0.0073
695.9431	0.0033
696.1249	0.0051
696.3067	0.0116
696.4885	0.0138
696.6703	-0.0014
696.852	0.0112
697.0337	0.0024
697.2154	0.0047
697.3971	0.0024
697.5788	0.0018
697.7605	-0.0021
697.9421	0.0016
698.1237	-0.0016
698.3053	-0.0015
698.4869	-0.003
698.6685	-0.0069
698.85	-0.0002
699.0315	0.0107
699.213	0.0036
699.3945	0.0088
699.576	0.006
699.7575	0.0075
699.9389	0.007
700.1203	-0.0066
700.3017	-0.0011
700.4831	-0.0073
700.6645	-0.005
700.8458	0.0086
701.0271	-0.0055
701.2084	-0.0029
701.3897	0.0005
701.571	0.0081
701.7523	-0.0106
701.9335	0.0001
702.1147	-0.0026
702.2959	0.0028
702.4771	0.0039
702.6583	-0.0065
702.8394	-0.0071
703.0205	-0.0002
703.2016	-0.0084
703.3827	-0.0064
703.5638	0.0064
703.7449	-0.0065
703.9259	0.0102
704.1069	-0.0027
704.2879	0.0013
704.4689	0.0023
704.6499	0.0025
704.8308	-0.009
705.0117	0.0012
705.1927	0.0023
705.3735	0.0022
705.5544	-0.0031
705.7353	0.0049
705.9161	-0.0078
706.0969	-0.0029
706.2777	0.0088
706.4585	0.0007
706.6393	0.0087
706.82	0.0012
707.0007	0.0008
707.1815	0.0062
707.3621	0.0114
707.5428	-0.0027
707.7235	0.0035
707.9041	0.0035
708.0847	-0.0149
708.2653	-0.0008
708.4459	-0.013
708.6265	-0.0002
708.807	-0.0032
708.9875	-0.0017
709.168	-0.0086
709.3485	-0.0042
709.529	-0.0041
709.7095	-0.0106
709.8899	-0.0011
710.0703	-0.0031
710.2507	-0.0076
710.4311	0.0027
710.6115	-0.0129
710.7918	-0.0015
710.9721	-0.0002
711.1524	-0.0084
711.3327	0.0014
711.513	0.0016
711.6932	0.0012
711.8735	0.0082
712.0537	0.0005
712.2339	0.0013
712.4141	-0.0058
712.5942	-0.0008
712.7744	-0.0037
712.9545	-0.007
713.1346	-0.0005
713.3147	-0.0008
713.4947	-0.0026
713.6748	0.0032
713.8548	-0.0078
714.0348	0.0013
714.2148	-0.0023
714.3948	0.0149
714.5748	0.0003
714.7547	-0.0023
714.9346	0.0127
715.1145	0.0069
715.2944	-0.0151
715.4743	-0.0069
715.6541	-0.0002
715.834	0.0107
716.0138	-0.0006
716.1936	-0.0068
716.3733	0.0047
716.5531	0.0087
716.7328	0.0087
716.9126	-0.0091
717.0923	0.0038
717.2719	-0.0018
717.4516	0.0048
717.6312	0.0001
717.8109	-0.0087
717.9905	0.0039
718.1701	-0.0007
718.3496	-0.0123
718.5292	-0.0096
718.7087	0.0032
718.8882	-0.011
719.0677	0.001
719.2472	-0.0043
719.4267	-0.0034
719.6061	-0.006
719.7856	0.0052
719.965	0.0044
720.1443	0.0012
720.3237	0.009
720.5031	0.0001
720.6824	0.0009
720.8617	-0.0076
721.041	0.0015
721.2203	0.0089
721.3995	0.0047
721.5788	0.0129
721.758	0.0089
721.9372	-0.0009
722.1164	0.0064
722.2956	0.0032
722.4747	0.0035
722.6538	-0.0023
722.8329	0.0118
723.012	0.0083
723.1911	-0.0038
723.3702	0.0011
723.5492	0.0056
723.7282	-0.0013
723.9072	-0.0014
724.0862	0.0046
724.2652	-0.0018
724.4441	-0.0002
724.623	0.0019
724.8019	0
724.9808	-0.0019
725.1597	-0.0048
725.3385	0.0072
725.5174	-0.0058
725.6962	0.0024
725.875	-0.001
726.0538	0.0034
726.2325	-0.0043
726.4112	-0.0004
726.59	0.0005
726.7687	-0.0058
726.9474	0.0085
727.126	0.0012
727.3047	-0.0053
727.4833	-0.0015
727.6619	-0.0111
727.8405	-0.0066
728.0191	0.0042
728.1976	-0.0015
728.3762	-0.0023
728.5547	0.0031
728.7332	-0.0081
728.9116	-0.0027
729.0901	0.0059
729.2686	-0.0044
729.447	-0.0005
729.6254	0.0019
729.8038	0.0004
729.9821	-0.0126
730.1605	0.0109
730.3388	0.0038
730.5171	0.0078
730.6954	-0.0108
730.8737	0.0027
731.0519	0.0048
731.2302	0.0036
731.4084	0.0068
731.5866	-0.0026
731.7648	-0.0043
731.9429	0.0006
732.1211	-0.0078
732.2992	-0.0018
732.4773	-0.0087
732.6554	-0.0006
732.8335	0.0019
733.0115	0.0021
733.1896	0.017
733.3676	-0.0095
733.5456	-0.0011
733.7235	0.0071
733.9015	0.0062
734.0794	-0.0062
734.2574	-0.0074
734.4353	0.0034
734.6131	0.0057
734.791	-0.0005
734.9689	0.0046
735.1467	0.0055
735.3245	-0.0134
735.5023	-0.0088
735.68	-0.0058
735.8578	0.0067
736.0355	-0.0139
736.2132	-0.0118
736.3909	-0.0053
736.5686	-0.0135
736.7463	0.0057
736.9239	0.0011
737.1015	-0.0006
737.2791	0.0046
737.4567	0.0013
737.6343	-0.0013
737.8118	0.0078
737.9894	0.0042
738.1669	-0.0003
738.3444	0.0011
738.5218	0.0063
738.6993	0.0056
738.8767	-0.0028
739.0541	0.0157
739.2315	-0.0092
739.4089	0.0044
739.5863	0.0073
739.7636	-0.0054
739.9409	0.0063
740.1182	0.0072
740.2955	0.0106
740.4728	-0.0009
740.65	0.0022
740.8272	0.0025
741.0044	-0.0097
741.1816	0.0017
741.3588	0.0064
741.5359	0.0036
741.7131	-0.0089
741.8902	0.0011
742.0673	-0.0011
742.2444	-0.0081
742.4214	-0.0021
742.5985	0.0033
742.7755	-0.008
742.9525	-0.0144
743.1295	0.0059
743.3064	-0.0007
743.4834	0.0051
743.6603	-0.0093
743.8372	-0.0012
744.0141	0.0033
744.191	-0.0023
744.3678	0.0077
744.5446	0.0009
744.7215	0.0112
744.8982	0.0059
745.075	-0.0098
745.2518	0.0084
745.4285	-0.0015
745.6052	-0.0035
745.7819	-0.005
745.9586	-0.0049
746.1353	-0.0024
746.3119	-0.0096
746.4885	-0.012
746.6651	-0.0077
746.8417	-0.0061
747.0183	-0.0077
747.1948	-0.0043
747.3714	0.0045
747.5479	-0.004
747.7244	-0.0038
747.9008	0.0104
748.0773	-0.009
748.2537	-0.0083
748.4301	-0.009
748.6065	0.0037
748.7829	-0.0026
748.9593	-0.0038
749.1356	-0.0141
749.3119	0.0053
749.4882	-0.0072
749.6645	0.0113
749.8408	-0.0095
750.017	0.0013
750.1933	0.0043
750.3695	0.0008
750.5457	0.0007
750.7218	-0.0027
750.898	-0.0011
751.0741	-0.0029
751.2502	-0.0111
751.4263	-0.0012
751.6024	-0.0121
751.7784	-0.0155
751.9545	-0.0109
752.1305	-0.0036
752.3065	-0.0121
752.4825	0.0026
752.6584	-0.009
752.8344	-0.0048
753.0103	-0.0081
753.1862	-0.0066
753.3621	-0.0082
753.5379	-0.0096
753.7138	0.0006
753.8896	0.0011
754.0654	-0.001
754.2412	-0.0043
754.417	-0.0039
754.5927	-0.0034
754.7685	-0.0095
754.9442	-0.0073
755.1199	0.0095
755.2956	-0.0069
755.4712	-0.0002
755.6469	0.0002
755.8225	-0.0081
755.9981	-0.0086
756.1736	-0.0003
756.3492	-0.0021
756.5248	-0.0041
756.7003	-0.0075
756.8758	0.0109
757.0513	-0.0098
757.2267	-0.0031
757.4022	0.0007
757.5776	-0.0061
757.753	0.0029
757.9284	0.0069
758.1038	0.0084
758.2791	0.0034
758.4545	-0.011
758.6298	0.0025
758.8051	0.0052
758.9803	0.0002
759.1556	-0.002
759.3308	-0.0107
759.506	0.0091
759.6812	0.0089
759.8564	0.0093
760.0316	0.0047
760.2067	0.0118
760.3819	0.01
760.557	0.0179
760.732	0.0081
760.9071	-0.0073
761.0821	0.0046
761.2572	0.0017
761.4322	-0.0057
761.6072	0.0052
761.7821	0.004
761.9571	0.0042
762.132	-0.0039
762.3069	-0.0081
762.4818	-0.0084
762.6567	0.0007
762.8316	-0.0027
763.0064	-0.0038
763.1812	0.0016
763.356	-0.0202
763.5308	-0.0129
763.7055	-0.0035
763.8803	-0.0041
764.055	-0.0049
764.2297	-0.0034
764.4044	-0.0082
764.579	-0.0038
764.7537	-0.0068
764.9283	0.0114
765.1029	-0.0037
765.2775	-0.0061
765.4521	-0.0112
765.6266	-0.0051
765.8011	-0.0033
765.9756	-0.0066
766.1501	0
766.3246	0.0042
766.4991	0.007
766.6735	-0.0006
766.8479	-0.0152
767.0223	0.0091
767.1967	-0.0032
767.371	0.0038
767.5454	-0.0023
767.7197	-0.0022
767.894	-0.0018
768.0683	-0.0004
768.2425	-0.005
768.4168	-0.0035
768.591	0.0018
768.7652	-0.0054
768.9394	0.005
769.1135	-0.0001
769.2877	0.0093
769.4618	0.0042
769.6359	-0.0035
769.81	-0.0003
769.984	-0.0058
770.1581	-0.0108
770.3321	0.0037
770.5061	-0.0008
770.6801	-0.0105
770.8541	0.0025
771.028	0.0093
771.202	-0.0048
771.3759	0.0035
771.5498	-0.0009
771.7236	0.0052
771.8975	0.0046
772.0713	0.0154
772.2451	0.0087
772.4189	0.0099
772.5927	0.0178
772.7665	0.0078
772.9402	0.004
773.1139	0.0053
773.2876	-0.0016
773.4613	0.0157
773.635	0.0049
773.8086	-0.0135
773.9822	-0.0017
774.1558	0.0014
774.3294	-0.0122
774.503	0.0012
774.6765	0.0029
774.8501	0.0004
775.0236	-0.0025
775.1971	-0.002
775.3705	-0.0082
775.544	0.0048
775.7174	-0.0128
775.8908	0.0004
776.0642	0.0067
776.2376	0.0075
776.4109	-0.0049
776.5843	-0.0011
776.7576	0.0164
776.9309	0.014
777.1041	0.013
777.2774	0.0144
777.4506	0.0023
777.6238	-0.0043
777.797	0.0073
777.9702	0.0102
778.1434	0.0117
778.3165	0.003
778.4896	0.0017
778.6627	0.0077
778.8358	0.0134
779.0089	0.0042
779.1819	-0.0031
779.3549	0.0175
779.5279	0.0183
779.7009	0.0094
779.8739	0.0055
780.0468	0.0052
780.2197	0.0151
780.3926	0.0025
780.5655	-0.0103
780.7384	0.0015
780.9112	0.0022
781.0841	-0.0023
781.2569	0.0043
781.4297	0.0119
781.6024	-0.0031
781.7752	0.0126
781.9479	0.0187
782.1206	0.0113
782.2933	0.003
782.466	0.0159
782.6386	0.0005
782.8113	0.0029
782.9839	0.0118
783.1565	0.0167
783.329	0.0096
783.5016	0.0143
783.6741	0.0033
783.8466	0.0035
784.0191	0.0152
784.1916	-0.0049
784.3641	0.008
784.5365	-0.0017
784.7089	0.0213
784.8813	0.0038
785.0537	0.0101
785.2261	-0.0019
785.3984	-0.0087
785.5707	0.0088
785.743	0.0047
785.9153	0.0049
786.0876	0.0197
786.2598	0.005
786.432	0.0033
786.6042	0.0132
786.7764	0.0029
786.9486	0.0175
787.1207	-0.0094
787.2928	0.0129
787.4649	0.0097
787.637	0.0031
787.8091	-0.0012
787.9811	-0.0035
788.1532	0.0026
788.3252	-0.0043
788.4972	0.0002
788.6691	-0.0056
788.8411	-0.0035
789.013	-0.0134
789.1849	0.0115
789.3568	-0.0057
789.5287	0.0037
789.7005	-0.01
789.8723	0.0002
790.0442	0.0249
790.2159	0.0088
790.3877	-0.0025
790.5595	-0.0059
790.7312	0.0041
790.9029	-0.0087
791.0746	-0.0053
791.2463	0.0041
791.4179	0.0158
791.5896	-0.0035
791.7612	0.0041
791.9328	0.0105
792.1044	-0.0104
792.2759	-0.0145
792.4474	0.0119
792.619	-0.0063
792.7905	-0.0095
792.9619	0.0097
793.1334	0.0136
793.3048	0.0156
793.4762	0.0161
793.6476	0.0065
793.819	-0.0025
793.9904	0.0083
794.1617	-0.0001
794.333	-0.0084
794.5043	-0.0039
794.6756	-0.005
794.8469	-0.0045
795.0181	-0.0003
795.1893	-0.0034
795.3605	0.0105
795.5317	0.0039
795.7029	-0.0156
795.874	-0.0071
796.0452	-0.0099
796.2163	-0.0119
796.3873	0.0092
796.5584	-0.0003
796.7294	0.0025
796.9005	-0.0012
797.0715	0.0046
797.2425	-0.0153
797.4134	0.0011
797.5844	0.0088
797.7553	-0.008
797.9262	-0.0038
798.0971	-0.0057
798.2679	-0.0182
798.4388	-0.0228
798.6096	-0.0081
798.7804	-0.0067
798.9512	-0.0205
799.122	0.0018
799.2927	-0.0034
799.4635	-0.0005
799.6342	-0.0149
799.8049	-0.0057
799.9755	-0.0068
800.1462	-0.0101
800.3168	-0.0146
800.4874	0
800.658	0.0233
800.8286	0.0093
800.9991	0.0122
801.1696	0.0032
801.3402	0.0111
801.5106	-0.007
801.6811	-0.0062
801.8516	0.0037
802.022	-0.006
802.1924	-0.0046
802.3628	0.0035
802.5332	0.0052
802.7035	0.0241
802.8739	0.0028
803.0442	-0.0167
803.2145	0.0115
803.3847	-0.0296
803.555	-0.001
803.7252	-0.0127
803.8954	-0.005
804.0656	-0.0212
804.2358	-0.0132
804.4059	0.0085
804.5761	-0.0015
804.7462	-0.001
804.9163	-0.0206
805.0864	-0.0108
805.2564	-0.021
805.4264	0.0051
805.5965	-0.026
805.7665	0.0001
805.9364	0.0055
806.1064	0.0123
806.2763	0.0109
806.4462	0.0236
806.6161	0.0252
806.786	0.0226
806.9559	0.0127
807.1257	-0.0048
807.2955	0.0062
807.4653	0.0128
807.6351	0.0036
807.8048	0.0062
807.9746	0.0096
808.1443	0.0056
808.314	-0.0004
808.4837	-0.0175
808.6533	0.0121
808.8229	0.0133
808.9926	-0.0014
809.1622	0.0179
809.3317	-0.014
809.5013	0.015
809.6708	0.0089
809.8403	0.0073
810.0098	-0.0007
810.1793	-0.0015
810.3488	-0.0099
810.5182	-0.0303
810.6876	0.0215
810.857	-0.021
811.0264	0.0262
811.1958	0.0224
811.3651	-0.0018
811.5344	0.0032
811.7037	0.0006
811.873	-0.0048
812.0422	-0.0054
812.2115	0.0096
812.3807	-0.0148
812.5499	0.0044
812.7191	0.0118
812.8882	-0.0067
813.0574	0.0045
813.2265	0.0094
813.3956	-0.0058
813.5646	0.0045
813.7337	-0.0162
813.9027	0.0243
814.0718	0.0228
814.2407	0.017
814.4097	0.0097
814.5787	-0.0028
814.7476	0.0198
814.9165	0.0054
815.0854	-0.0176
815.2543	-0.0045
815.4232	0.0007
815.592	0.0118
815.7608	0.017
815.9296	0.0138
816.0984	0.0168
816.2671	0.0084
816.4359	-0.0068
816.6046	-0.003
816.7733	-0.0051
816.942	-0.0135
817.1106	0.0107
817.2793	-0.0138
817.4479	0.0013
817.6165	0.0001
817.785	0.0048
817.9536	-0.0266
818.1221	0.0145
818.2906	0.0049
818.4591	-0.0029
818.6276	-0.0191
818.7961	-0.0149
818.9645	0.0044
819.1329	0.0171
819.3013	0.0324
819.4697	0.0094
819.638	-0.0097
819.8064	0.0136
819.9747	0.027
820.143	0.0073
820.3113	0.0153
820.4795	0.0143
820.6477	-0.0168
820.816	0.0114
820.9842	-0.0067
821.1523	-0.0288
821.3205	-0.0227
821.4886	-0.0039
821.6567	-0.0088
821.8248	0.006
821.9929	0.0145
822.1609	-0.0081
822.329	0.027
822.497	-0.0062
822.665	0.0029
822.833	-0.0072
823.0009	-0.0062
823.1688	0.0081
823.3367	0.0261
823.5046	0.0173
823.6725	0.0192
823.8404	-0.0046
824.0082	-0.0111
824.176	-0.0046
824.3438	-0.0121
824.5116	-0.0345
824.6793	0.0017
824.847	0.0043
825.0147	-0.0252
825.1824	0.0038
825.3501	-0.005
825.5177	-0.0164
825.6854	-0.0012
825.853	-0.0171
826.0206	-0.0248
826.1881	0.0323
826.3557	-0.0074
826.5232	0.0311
826.6907	-0.021
826.8582	-0.0021
827.0257	-0.0117
827.1931	0.0065
827.3605	-0.0021
827.528	0.0157
827.6953	-0.027
827.8627	0.0153
828.03	0.0373
828.1974	0.0115
828.3647	-0.0546
828.532	0.0101
828.6992	-0.0285
828.8665	0.0147
829.0337	-0.032
829.2009	0.0185
829.3681	-0.0075
829.5352	0.0222
829.7024	-0.0209
829.8695	-0.0174
830.0366	0.0573
830.2037	-0.0134
830.3707	0.0261
830.5378	-0.0177
830.7048	0.0001
830.8718	-0.0257
831.0388	-0.0303
831.2057	0.0198
831.3727	0.0048
831.5396	-0.0066
831.7065	0.0048
831.8734	-0.0266
832.0402	-0.023
832.2071	-0.0071
832.3739	-0.0158
832.5407	-0.0197
832.7075	-0.0103
832.8742	-0.0535
833.041	-0.0181
833.2077	0.0169
833.3744	0.0139
833.541	0.0161
833.7077	-0.0146
833.8743	-0.0076
834.0409	-0.0236
834.2075	-0.0024
834.3741	-0.0168
834.5407	0.0217
834.7072	-0.0173
834.8737	0.0089
835.0402	-0.0163
835.2067	0.0352
835.3731	0.0282
835.5395	-0.0093
835.706	0.056
835.8723	-0.0263
836.0387	0.0118
836.2051	-0.0365
836.3714	0.0036
836.5377	0.0106
836.704	-0.0173
836.8703	0.0232
837.0365	0.0344
837.2027	-0.045
837.3689	0.0095
837.5351	0.0124
837.7013	-0.027
837.8674	0.0082
838.0335	-0.0319
838.1997	0.0051
838.3657	-0.0263
838.5318	-0.0225
838.6978	0.0481
838.8639	0.0161
839.0299	-0.0024
839.1958	-0.0423
839.3618	-0.0083
839.5277	-0.0083
839.6937	-0.0055
839.8596	-0.0132
840.0254	0.0188
840.1913	0.0128
840.3571	0.0172
840.523	0.0259
840.6888	-0.0154
840.8545	-0.034
841.0203	0.0348
841.186	0.0213
841.3517	0.069
841.5174	0.0037
841.6831	-0.0109
841.8488	-0.0243
842.0144	-0.0097
842.18	0.0074
842.3456	0.0175
842.5112	-0.0108
842.6767	-0.0445
842.8422	0.0013
843.0077	-0.0391
843.1732	-0.0584
843.3387	-0.0356
843.5042	-0.0805
843.6696	-0.0311
843.835	-0.03
844.0004	0.0485
844.1657	-0.0116
844.3311	-0.1041
844.4964	-0.0664
844.6617	-0.0214
844.827	-0.0354
844.9923	-0.0076
845.1575	0.0111
845.3227	0.0061
845.4879	-0.0217
845.6531	-0.0998
845.8183	-0.0315
845.9834	-0.0275
846.1485	-0.0115
846.3136	-0.0774
846.4787	-0.0969
846.6438	0.0223
846.8088	-0.0757
846.9738	-0.0503
847.1388	-0.0203
847.3038	-0.0086
847.4687	-0.1658
847.6337	0.0082
847.7986	-0.0102
847.9635	-0.0069
848.1284	-0.001
848.2932	-0.0012
848.458	-0.0228
848.6228	-0.0305
848.7876	0.1829
848.9524	-0.1087
849.1172	-0.0705
849.2819	-0.0241
849.4466	-0.0953
849.6113	-0.1101
849.7759	-0.0558
849.9406	-0.0589
850.1052	0.016
850.2698	-0.1006
850.4344	0.031
850.599	-0.0833
850.7635	0.0315
850.928	-0.0238
851.0925	-0.0014
851.257	0.0492
851.4215	0.0398
851.5859	-0.1358
851.7503	-0.0117
851.9147	0.0418
852.0791	-0.0818
852.2434	-0.0306
852.4078	0.0685
852.5721	0.0957
852.7364	-0.138
852.9007	-0.259
853.0649	0.0331
853.2291	0.0344
853.3934	0.0418
853.5575	0.0459
853.7217	-0.044
853.8859	-0.091
854.05	-0.1088
854.2141	-0.0222
854.3782	-0.0888
854.5423	-0.1365
854.7063	0.1653
854.8703	0.0205
855.0343	-0.1517
855.1983	-0.1893
855.3623	0.141
855.5262	-0.0155
855.6901	-0.0543
855.854	-0.0117
856.0179	0.0449
856.1818	0.0126
856.3456	0.0217
856.5094	-0.2248
856.6732	-0.2533
856.837	-0.0342
857.0008	0.0515
857.1645	-0.1158
857.3282	-0.0834
857.4919	0.226
857.6556	-0.1105
857.8192	0.1259
857.9828	-0.0747
858.1465	0.0335
858.31	-0.1625
858.4736	-0.1202
858.6372	-0.2839
858.8007	-0.1362
858.9642	0.1339
859.1277	0.1466
859.2911	0.1293
859.4546	-0.0728
859.618	-0.2991
859.7814	-0.0409
859.9448	0.0055
860.1081	-0.0391
860.2715	0.0583
860.4348	0.3744
860.5981	0.0305
860.7614	0.1527
860.9246	-0.2588
861.0879	-0.1906
861.2511	0.0745
861.4143	0.3613
861.5774	0.2715
861.7406	-0.226
861.9037	-0.0654
862.0668	-0.1098
862.2299	0.1782
862.393	-0.617
862.556	-0.023
862.7191	0.2294
862.8821	0.0971
863.0451	0.0357
863.208	0.1151
863.371	0.0194
863.5339	-0.1811
863.6968	0.0593
863.8597	0.5436
864.0225	-0.1084
864.1854	0.0708
864.3482	0.0681
864.511	0.01
864.6737	0.0578
864.8365	0.0019
864.9992	-0.3554
865.1619	-0.2412
865.3246	-0.2099
865.4873	0.0112
865.65	-0.3205
865.8126	-0.0059
865.9752	0.1264
866.1378	-0.28
866.3004	0.1335
866.4629	0.1891
866.6254	-0.1546
866.7879	-0.0688
866.9504	-0
867.1129	-0
867.2753	0.1712
867.4377	0.1305
867.6001	0.004
867.7625	0.3324
867.9249	-0.4084
868.0872	0.4986
868.2495	0.2795
868.4118	-0
868.5741	0.0471
868.7363	-0.1023
868.8986	0.4872
869.0608	-0.2084
869.223	0.06
869.3851	0.784
869.5473	-0
869.7094	0.0846
869.8715	-0
870.0336	-0
870.1957	-0.4064
870.3577	0.2285
870.5197	-0.1564
870.6817	-0.5604
870.8437	0.2129
871.0057	0.7312
871.1676	-0.1947
871.3295	-0.3834
871.4914	-0.0219
871.6533	-0.4789
871.8151	-0.3467
871.977	-0
872.1388	-0
872.3006	-0
872.4623	-0
872.6241	0.0664
872.7858	0.3056
872.9475	0.0907
873.1092	0.115
873.2709	1
873.4325	0.508
873.5941	-0
873.7557	-0
873.9173	-0
874.0789	-0.1539
874.2404	-0.6487
874.4019	0.3412
874.5634	-0.2292
874.7249	0.2601
874.8863	0.0257
875.0478	-0.1307
875.2092	-0
875.3706	0.3246
875.5319	-0.985
875.6933	-0
875.8546	-0.2847
876.0159	0.2938
876.1772	0.6097
876.3385	-0
876.4997	0.1999
876.6609	-0.4941
876.8221	0.0765
876.9833	0.0618
877.1445	0.0509
877.3056	0.026
877.4667	-0.5129
877.6278	-0
877.7889	-0.2115
877.9499	-0
878.111	-0
878.272	-0
878.433	-0.0516
878.5939	-0
878.7549	-0.2045
878.9158	-0.7479
879.0767	-0.1888
879.2376	-0
879.3984	-0.1918
879.5593	0.5457
879.7201	-0.1311
879.8809	0.1673
880.0417	-0.3495
880.2024	-0.1607
880.3632	-0.7754
880.5239	0.6116
880.6846	-0
880.8452	-2.5179
881.0059	-0
881.1665	-0
881.3271	-0.2418
881.4877	-0.3336
881.6483	-0.2592
881.8088	0.2145
881.9693	0.6445
882.1298	0.6445
882.2903	0.6445
