Data from MonoPyChalIsomerACN10uM340nmA_Absorbance_14-14-18-065.txt Node
Date: Fri Jul 05 14:14:18 BST 2024
User: LASERRRRR
Spectrometer: FLMT03099
Trigger mode: 0
Integration Time (sec): 1.000000E-1
Scans to average: 1
Electric dark correction enabled: true
Nonlinearity correction enabled: false
Boxcar width: 0
XAxis mode: Wavelengths
Number of Pixels in Spectrum: 3648
>>>>>Begin Spectral Data<<<<<
179.3399	0.023
179.5586	0.023
179.7771	0.023
179.9957	-0.1833
180.2143	-0
180.4329	1.0029
180.6514	0.3864
180.8699	-0
181.0885	0.9306
181.307	0.1355
181.5255	-0.7169
181.744	-0.1866
181.9625	-0
182.181	-0
182.3994	-0.1167
182.6179	-0
182.8363	-0.3
183.0547	-0.4131
183.2732	0.0108
183.4916	0.1824
183.71	-0.0696
183.9284	0.1464
184.1467	-0.151
184.3651	0.1055
184.5835	-0.0319
184.8018	-0.129
185.0201	-0.0812
185.2385	-0.0017
185.4568	0.0809
185.6751	0.0039
185.8934	0.287
186.1117	-0.0266
186.3299	0.0529
186.5482	-0.0103
186.7664	-0.2119
186.9847	-0.0015
187.2029	-0.0139
187.4211	-0.0573
187.6393	0.1119
187.8575	-0.0136
188.0757	0.3948
188.2939	0.1992
188.512	0.0054
188.7302	-0.2035
188.9483	0.1569
189.1665	0.3108
189.3846	0.3161
189.6027	0.0236
189.8208	0.241
190.0389	0.0515
190.257	0.0172
190.475	0.6818
190.6931	0.3114
190.9111	0.3738
191.1292	0.1926
191.3472	0.4884
191.5652	0.269
191.7832	0.3925
192.0012	0.524
192.2192	0.2128
192.4371	0.4802
192.6551	0.3756
192.873	0.5134
193.091	0.3432
193.3089	1.1465
193.5268	0.3674
193.7447	0.4572
193.9626	0.5766
194.1805	0.4781
194.3984	0.5945
194.6162	0.535
194.8341	0.4965
195.0519	0.568
195.2697	0.8199
195.4875	0.5476
195.7054	0.7467
195.9231	0.4799
196.1409	0.7751
196.3587	0.4157
196.5765	0.6836
196.7942	0.6838
197.012	0.6068
197.2297	0.5858
197.4474	0.8891
197.6651	0.5631
197.8828	0.6707
198.1005	0.5088
198.3182	0.6456
198.5358	0.9183
198.7535	0.5743
198.9711	0.5072
199.1888	0.5994
199.4064	0.9105
199.624	0.5019
199.8416	0.5447
200.0592	0.6065
200.2767	0.6421
200.4943	0.8266
200.7119	0.7327
200.9294	0.6093
201.1469	0.6431
201.3645	0.5975
201.582	0.5568
201.7995	0.5197
202.017	0.5965
202.2344	0.6393
202.4519	0.6113
202.6694	0.643
202.8868	0.5636
203.1042	0.6432
203.3217	0.6876
203.5391	0.6439
203.7565	0.6517
203.9739	0.6689
204.1913	0.5061
204.4086	0.7033
204.626	0.63
204.8433	0.6258
205.0607	0.5942
205.278	0.7072
205.4953	0.5508
205.7126	0.6568
205.9299	0.6026
206.1472	0.6751
206.3644	0.6286
206.5817	0.7087
206.7989	0.7188
207.0162	0.642
207.2334	0.7121
207.4506	0.6188
207.6678	0.6644
207.885	0.7025
208.1022	0.6836
208.3194	0.6235
208.5365	0.6186
208.7537	0.6197
208.9708	0.5531
209.1879	0.6557
209.405	0.6707
209.6222	0.6911
209.8392	0.6207
210.0563	0.6255
210.2734	0.5887
210.4905	0.6189
210.7075	0.6303
210.9245	0.5885
211.1416	0.6788
211.3586	0.6656
211.5756	0.6124
211.7926	0.6164
212.0096	0.6048
212.2265	0.584
212.4435	0.5587
212.6604	0.5548
212.8774	0.5651
213.0943	0.5637
213.3112	0.5325
213.5281	0.5241
213.745	0.4913
213.9619	0.4697
214.1788	0.4751
214.3956	0.4653
214.6125	0.4835
214.8293	0.449
215.0461	0.477
215.2629	0.469
215.4798	0.4596
215.6965	0.4292
215.9133	0.4244
216.1301	0.4007
216.3469	0.4542
216.5636	0.4327
216.7803	0.3903
216.9971	0.3967
217.2138	0.3568
217.4305	0.3684
217.6472	0.3724
217.8639	0.3544
218.0805	0.3558
218.2972	0.3334
218.5138	0.3184
218.7305	0.3056
218.9471	0.3236
219.1637	0.3044
219.3803	0.2927
219.5969	0.267
219.8135	0.2635
220.0301	0.2807
220.2466	0.2587
220.4632	0.257
220.6797	0.2251
220.8962	0.2256
221.1127	0.2574
221.3292	0.2602
221.5457	0.2192
221.7622	0.231
221.9787	0.2549
222.1951	0.2416
222.4116	0.2455
222.628	0.2498
222.8444	0.251
223.0608	0.2503
223.2772	0.2451
223.4936	0.2356
223.71	0.2587
223.9264	0.2786
224.1427	0.2645
224.3591	0.2577
224.5754	0.2599
224.7917	0.2785
225.008	0.2563
225.2243	0.2504
225.4406	0.2775
225.6569	0.2678
225.8732	0.2651
226.0894	0.2878
226.3057	0.243
226.5219	0.2918
226.7381	0.2528
226.9543	0.2795
227.1705	0.3082
227.3867	0.2873
227.6029	0.2966
227.8191	0.3008
228.0352	0.2978
228.2513	0.3163
228.4675	0.318
228.6836	0.3035
228.8997	0.3001
229.1158	0.3149
229.3319	0.3153
229.548	0.3158
229.764	0.3384
229.9801	0.3463
230.1961	0.3351
230.4121	0.3312
230.6282	0.3154
230.8442	0.3201
231.0602	0.3529
231.2761	0.3401
231.4921	0.3378
231.7081	0.3669
231.924	0.3304
232.14	0.3676
232.3559	0.3448
232.5718	0.3781
232.7877	0.3586
233.0036	0.3673
233.2195	0.3723
233.4353	0.3459
233.6512	0.3774
233.867	0.3579
234.0829	0.3502
234.2987	0.3746
234.5145	0.3747
234.7303	0.3857
234.9461	0.3877
235.1619	0.3741
235.3776	0.3728
235.5934	0.3979
235.8091	0.3775
236.0249	0.3807
236.2406	0.3965
236.4563	0.3829
236.672	0.3934
236.8877	0.397
237.1034	0.3723
237.319	0.412
237.5347	0.411
237.7503	0.3802
237.966	0.4044
238.1816	0.4054
238.3972	0.4322
238.6128	0.4004
238.8284	0.4024
239.0439	0.4391
239.2595	0.3814
239.475	0.4167
239.6906	0.3971
239.9061	0.4105
240.1216	0.402
240.3371	0.3975
240.5526	0.3901
240.7681	0.4196
240.9836	0.3686
241.199	0.3984
241.4145	0.3796
241.6299	0.3734
241.8453	0.3779
242.0607	0.3952
242.2761	0.3554
242.4915	0.3484
242.7069	0.3661
242.9223	0.3495
243.1376	0.3329
243.353	0.3408
243.5683	0.3456
243.7836	0.3253
243.9989	0.3264
244.2142	0.3041
244.4295	0.3341
244.6448	0.3014
244.86	0.2954
245.0753	0.2863
245.2905	0.2749
245.5057	0.2692
245.721	0.275
245.9362	0.2552
246.1514	0.263
246.3665	0.2548
246.5817	0.2468
246.7969	0.2398
247.012	0.2418
247.2271	0.2381
247.4423	0.2323
247.6574	0.2471
247.8725	0.2239
248.0876	0.2187
248.3026	0.2158
248.5177	0.2252
248.7328	0.2074
248.9478	0.2091
249.1628	0.2077
249.3779	0.2084
249.5929	0.1978
249.8079	0.2214
250.0228	0.1895
250.2378	0.2005
250.4528	0.1991
250.6677	0.1881
250.8827	0.2013
251.0976	0.1845
251.3125	0.1772
251.5274	0.1661
251.7423	0.1777
251.9572	0.1816
252.172	0.1868
252.3869	0.1867
252.6017	0.1767
252.8166	0.17
253.0314	0.1724
253.2462	0.1682
253.461	0.1865
253.6758	0.1724
253.8906	0.1746
254.1053	0.1565
254.3201	0.1718
254.5348	0.1711
254.7496	0.1825
254.9643	0.1759
255.179	0.1752
255.3937	0.1727
255.6083	0.1832
255.823	0.1615
256.0377	0.1593
256.2523	0.1829
256.467	0.1541
256.6816	0.1715
256.8962	0.169
257.1108	0.154
257.3254	0.1617
257.54	0.148
257.7545	0.1761
257.9691	0.1678
258.1836	0.165
258.3981	0.1628
258.6127	0.1885
258.8272	0.1616
259.0417	0.1703
259.2561	0.1464
259.4706	0.1697
259.6851	0.1687
259.8995	0.1598
260.114	0.152
260.3284	0.1658
260.5428	0.1512
260.7572	0.1631
260.9716	0.1686
261.186	0.1549
261.4003	0.1594
261.6147	0.1478
261.829	0.162
262.0433	0.1622
262.2577	0.1569
262.472	0.168
262.6863	0.1576
262.9005	0.1576
263.1148	0.1617
263.3291	0.1341
263.5433	0.1598
263.7576	0.1577
263.9718	0.1575
264.186	0.1638
264.4002	0.1604
264.6144	0.1562
264.8286	0.1592
265.0427	0.1575
265.2569	0.157
265.471	0.1545
265.6851	0.1556
265.8993	0.155
266.1134	0.1492
266.3275	0.15
266.5415	0.154
266.7556	0.1672
266.9697	0.1516
267.1837	0.1557
267.3978	0.1556
267.6118	0.166
267.8258	0.1745
268.0398	0.1471
268.2538	0.1589
268.4677	0.1583
268.6817	0.1512
268.8957	0.1707
269.1096	0.1513
269.3235	0.1548
269.5374	0.1506
269.7514	0.1504
269.9652	0.1488
270.1791	0.1437
270.393	0.144
270.6068	0.1427
270.8207	0.143
271.0345	0.1352
271.2483	0.1463
271.4622	0.1411
271.676	0.1525
271.8897	0.135
272.1035	0.1403
272.3173	0.1358
272.531	0.1351
272.7448	0.1389
272.9585	0.1411
273.1722	0.1322
273.3859	0.1398
273.5996	0.1311
273.8133	0.1465
274.0269	0.1401
274.2406	0.1262
274.4542	0.1412
274.6679	0.1351
274.8815	0.1296
275.0951	0.1338
275.3087	0.148
275.5223	0.1426
275.7358	0.1385
275.9494	0.1378
276.1629	0.1358
276.3765	0.1381
276.59	0.1452
276.8035	0.1376
277.017	0.1368
277.2305	0.1332
277.444	0.1433
277.6574	0.14
277.8709	0.1372
278.0843	0.1469
278.2978	0.1427
278.5112	0.1356
278.7246	0.144
278.938	0.1444
279.1513	0.1454
279.3647	0.1378
279.5781	0.146
279.7914	0.1379
280.0047	0.1511
280.2181	0.1523
280.4314	0.1407
280.6447	0.1417
280.8579	0.1487
281.0712	0.1594
281.2845	0.1441
281.4977	0.149
281.711	0.1385
281.9242	0.1364
282.1374	0.1494
282.3506	0.1515
282.5638	0.1452
282.7769	0.1449
282.9901	0.1482
283.2033	0.1507
283.4164	0.156
283.6295	0.1513
283.8426	0.1392
284.0557	0.1558
284.2688	0.1529
284.4819	0.1506
284.695	0.1454
284.908	0.1613
285.1211	0.1503
285.3341	0.159
285.5471	0.1537
285.7601	0.1567
285.9731	0.1502
286.1861	0.1472
286.3991	0.1658
286.612	0.1595
286.825	0.1516
287.0379	0.1689
287.2508	0.1529
287.4637	0.1643
287.6766	0.16
287.8895	0.1676
288.1024	0.1719
288.3152	0.1692
288.5281	0.148
288.7409	0.1684
288.9538	0.1578
289.1666	0.1636
289.3794	0.162
289.5922	0.1713
289.8049	0.1633
290.0177	0.1534
290.2304	0.1589
290.4432	0.1773
290.6559	0.1698
290.8686	0.1616
291.0813	0.1667
291.294	0.1624
291.5067	0.1738
291.7194	0.1549
291.932	0.1822
292.1447	0.1697
292.3573	0.1702
292.5699	0.1685
292.7825	0.1711
292.9951	0.1558
293.2077	0.1609
293.4203	0.1673
293.6328	0.1638
293.8454	0.1858
294.0579	0.1726
294.2704	0.1758
294.4829	0.1635
294.6954	0.1674
294.9079	0.1639
295.1204	0.1669
295.3328	0.1698
295.5453	0.1655
295.7577	0.1696
295.9701	0.1554
296.1825	0.1601
296.3949	0.1596
296.6073	0.1593
296.8197	0.163
297.0321	0.1653
297.2444	0.1577
297.4567	0.1695
297.6691	0.1624
297.8814	0.1593
298.0937	0.1639
298.306	0.1731
298.5182	0.1792
298.7305	0.173
298.9428	0.161
299.155	0.1698
299.3672	0.1679
299.5794	0.161
299.7916	0.171
300.0038	0.175
300.216	0.1653
300.4282	0.1705
300.6403	0.1563
300.8525	0.176
301.0646	0.1575
301.2767	0.1597
301.4888	0.1673
301.7009	0.1614
301.913	0.1706
302.125	0.1619
302.3371	0.1573
302.5491	0.1545
302.7612	0.1728
302.9732	0.1639
303.1852	0.1616
303.3972	0.1572
303.6092	0.159
303.8211	0.1534
304.0331	0.1522
304.245	0.1549
304.457	0.1512
304.6689	0.1536
304.8808	0.1647
305.0927	0.1537
305.3046	0.1668
305.5164	0.1662
305.7283	0.1397
305.9401	0.1524
306.152	0.1464
306.3638	0.1538
306.5756	0.1492
306.7874	0.1568
306.9992	0.1551
307.2109	0.146
307.4227	0.1307
307.6344	0.138
307.8462	0.1481
308.0579	0.1341
308.2696	0.1329
308.4813	0.1318
308.693	0.1312
308.9046	0.1418
309.1163	0.1251
309.328	0.1257
309.5396	0.1173
309.7512	0.1105
309.9628	0.1171
310.1744	0.1209
310.386	0.1174
310.5976	0.1191
310.8091	0.1156
311.0207	0.1123
311.2322	0.1306
311.4437	0.1038
311.6552	0.1104
311.8667	0.1099
312.0782	0.099
312.2897	0.1027
312.5012	0.1055
312.7126	0.0983
312.924	0.0885
313.1355	0.1194
313.3469	0.112
313.5583	0.1051
313.7696	0.0969
313.981	0.1072
314.1924	0.1028
314.4037	0.1066
314.6151	0.1081
314.8264	0.0972
315.0377	0.0915
315.249	0.0973
315.4603	0.1045
315.6716	0.0941
315.8828	0.0902
316.0941	0.093
316.3053	0.0916
316.5165	0.0924
316.7277	0.0883
316.9389	0.0983
317.1501	0.0839
317.3613	0.1019
317.5724	0.0841
317.7836	0.0931
317.9947	0.0862
318.2058	0.102
318.417	0.0885
318.6281	0.0826
318.8391	0.0974
319.0502	0.0808
319.2613	0.0988
319.4723	0.0926
319.6834	0.0956
319.8944	0.0812
320.1054	0.0844
320.3164	0.0917
320.5274	0.0856
320.7383	0.0812
320.9493	0.0967
321.1602	0.1003
321.3712	0.0871
321.5821	0.0916
321.793	0.0956
322.0039	0.0905
322.2148	0.0907
322.4257	0.0886
322.6365	0.0954
322.8474	0.1008
323.0582	0.0992
323.269	0.1032
323.4798	0.099
323.6906	0.0908
323.9014	0.1003
324.1122	0.0897
324.3229	0.0982
324.5337	0.0983
324.7444	0.0923
324.9551	0.1009
325.1658	0.0956
325.3765	0.1027
325.5872	0.0977
325.7979	0.0935
326.0085	0.0973
326.2192	0.1077
326.4298	0.1032
326.6404	0.0823
326.851	0.0918
327.0616	0.0903
327.2722	0.0956
327.4828	0.1057
327.6933	0.0994
327.9039	0.1048
328.1144	0.1082
328.3249	0.1037
328.5354	0.0944
328.7459	0.1036
328.9564	0.0993
329.1669	0.1039
329.3773	0.1009
329.5878	0.0999
329.7982	0.1016
330.0086	0.1064
330.219	0.0997
330.4294	0.1055
330.6398	0.0962
330.8502	0.0897
331.0605	0.0976
331.2708	0.0879
331.4812	0.1016
331.6915	0.102
331.9018	0.098
332.1121	0.0907
332.3224	0.0958
332.5326	0.1072
332.7429	0.1032
332.9531	0.1079
333.1633	0.1058
333.3735	0.1031
333.5837	0.1006
333.7939	0.0947
334.0041	0.1165
334.2143	0.0983
334.4244	0.0971
334.6346	0.0752
334.8447	0.1058
335.0548	0.0945
335.2649	0.0995
335.475	0.1098
335.685	0.0938
335.8951	0.1123
336.1051	0.1016
336.3152	0.1133
336.5252	0.1053
336.7352	0.1065
336.9452	0.103
337.1552	0.1059
337.3652	0.0989
337.5751	0.1018
337.7851	0.1001
337.995	0.0923
338.2049	0.0976
338.4148	0.1019
338.6247	0.1148
338.8346	0.1039
339.0445	0.0971
339.2543	0.0954
339.4642	0.1038
339.674	0.0939
339.8838	0.1029
340.0936	0.1077
340.3034	0.1243
340.5132	0.1094
340.7229	0.1043
340.9327	0.1014
341.1424	0.1084
341.3522	0.1156
341.5619	0.1073
341.7716	0.1123
341.9813	0.113
342.1909	0.1119
342.4006	0.1236
342.6102	0.1116
342.8199	0.1146
343.0295	0.1242
343.2391	0.1241
343.4487	0.1253
343.6583	0.1162
343.8679	0.1052
344.0774	0.1286
344.287	0.1213
344.4965	0.1108
344.706	0.1205
344.9155	0.1132
345.125	0.1258
345.3345	0.1146
345.544	0.1193
345.7534	0.1137
345.9629	0.1165
346.1723	0.1282
346.3817	0.1138
346.5911	0.1215
346.8005	0.1203
347.0099	0.1086
347.2193	0.133
347.4286	0.1132
347.638	0.1323
347.8473	0.1248
348.0566	0.1316
348.2659	0.1302
348.4752	0.1311
348.6845	0.1242
348.8937	0.114
349.103	0.1368
349.3122	0.1201
349.5214	0.1336
349.7306	0.1318
349.9398	0.1339
350.149	0.1421
350.3582	0.1259
350.5674	0.1559
350.7765	0.1368
350.9856	0.1383
351.1948	0.1311
351.4039	0.1265
351.613	0.132
351.822	0.1438
352.0311	0.1456
352.2402	0.1427
352.4492	0.1481
352.6582	0.1521
352.8672	0.1447
353.0762	0.1372
353.2852	0.1403
353.4942	0.1355
353.7032	0.1462
353.9121	0.146
354.1211	0.1452
354.33	0.1425
354.5389	0.1503
354.7478	0.1461
354.9567	0.1458
355.1655	0.1351
355.3744	0.1522
355.5833	0.1605
355.7921	0.165
356.0009	0.1556
356.2097	0.163
356.4185	0.1673
356.6273	0.1498
356.8361	0.145
357.0448	0.1508
357.2536	0.1533
357.4623	0.1518
357.671	0.1566
357.8797	0.1549
358.0884	0.1717
358.2971	0.1564
358.5057	0.1668
358.7144	0.1734
358.923	0.1601
359.1316	0.163
359.3402	0.1596
359.5488	0.1527
359.7574	0.1655
359.966	0.1796
360.1746	0.1825
360.3831	0.1774
360.5916	0.172
360.8002	0.1644
361.0087	0.1838
361.2172	0.1794
361.4256	0.1739
361.6341	0.1888
361.8426	0.1727
362.051	0.1772
362.2594	0.179
362.4678	0.1882
362.6762	0.1924
362.8846	0.1874
363.093	0.1854
363.3014	0.182
363.5097	0.1696
363.718	0.1821
363.9264	0.1859
364.1347	0.1919
364.343	0.1999
364.5513	0.1985
364.7595	0.1995
364.9678	0.1964
365.176	0.1987
365.3842	0.1903
365.5925	0.1943
365.8007	0.2052
366.0089	0.201
366.217	0.1798
366.4252	0.1978
366.6333	0.1977
366.8415	0.2004
367.0496	0.1887
367.2577	0.2142
367.4658	0.2072
367.6739	0.2152
367.882	0.2195
368.09	0.2041
368.2981	0.2077
368.5061	0.2046
368.7141	0.2113
368.9221	0.2304
369.1301	0.2081
369.3381	0.2054
369.5461	0.2206
369.754	0.226
369.962	0.2266
370.1699	0.221
370.3778	0.2208
370.5857	0.2051
370.7936	0.2036
371.0015	0.2205
371.2093	0.2313
371.4172	0.2363
371.625	0.2129
371.8328	0.2213
372.0406	0.219
372.2484	0.2152
372.4562	0.2254
372.664	0.2279
372.8717	0.2309
373.0795	0.2085
373.2872	0.2443
373.4949	0.2343
373.7026	0.2277
373.9103	0.227
374.118	0.2278
374.3256	0.2134
374.5333	0.2411
374.7409	0.2202
374.9485	0.2384
375.1561	0.2365
375.3637	0.2422
375.5713	0.2315
375.7789	0.2286
375.9864	0.2407
376.194	0.2275
376.4015	0.2407
376.609	0.2536
376.8165	0.2268
377.024	0.2246
377.2315	0.2455
377.4389	0.2448
377.6464	0.2465
377.8538	0.2568
378.0612	0.2444
378.2686	0.2506
378.476	0.2572
378.6834	0.2473
378.8908	0.2742
379.0981	0.2611
379.3055	0.2636
379.5128	0.2442
379.7201	0.2567
379.9274	0.2494
380.1347	0.2548
380.342	0.2788
380.5492	0.2542
380.7565	0.2537
380.9637	0.2493
381.1709	0.2377
381.3781	0.2738
381.5853	0.2701
381.7925	0.272
381.9997	0.2604
382.2068	0.271
382.4139	0.2715
382.6211	0.2534
382.8282	0.2587
383.0353	0.2599
383.2424	0.2712
383.4494	0.2753
383.6565	0.2793
383.8635	0.2761
384.0706	0.2626
384.2776	0.2565
384.4846	0.2518
384.6916	0.2863
384.8986	0.2589
385.1055	0.2649
385.3125	0.2764
385.5194	0.2514
385.7263	0.2667
385.9333	0.2655
386.1402	0.2564
386.347	0.2678
386.5539	0.256
386.7608	0.2818
386.9676	0.2563
387.1744	0.2553
387.3813	0.2525
387.5881	0.2703
387.7948	0.2699
388.0016	0.2579
388.2084	0.2664
388.4151	0.2508
388.6219	0.2609
388.8286	0.2686
389.0353	0.2742
389.242	0.2714
389.4487	0.2417
389.6553	0.2461
389.862	0.2336
390.0686	0.243
390.2753	0.2801
390.4819	0.2485
390.6885	0.2426
390.8951	0.2494
391.1016	0.2439
391.3082	0.2275
391.5147	0.2485
391.7213	0.2525
391.9278	0.2353
392.1343	0.2416
392.3408	0.2445
392.5473	0.2579
392.7537	0.2435
392.9602	0.2305
393.1666	0.2488
393.373	0.2383
393.5794	0.2466
393.7858	0.2429
393.9922	0.228
394.1986	0.2496
394.4049	0.2354
394.6113	0.2203
394.8176	0.227
395.0239	0.2437
395.2302	0.2404
395.4365	0.2281
395.6428	0.224
395.8491	0.2233
396.0553	0.2189
396.2615	0.2203
396.4678	0.2156
396.674	0.2186
396.8802	0.2144
397.0863	0.2315
397.2925	0.2057
397.4987	0.2132
397.7048	0.2168
397.9109	0.2364
398.117	0.213
398.3231	0.2159
398.5292	0.2364
398.7353	0.2372
398.9413	0.2324
399.1474	0.1999
399.3534	0.2202
399.5594	0.2125
399.7654	0.2322
399.9714	0.2276
400.1774	0.2399
400.3833	0.2328
400.5893	0.2164
400.7952	0.2081
401.0011	0.2178
401.207	0.2337
401.4129	0.209
401.6188	0.2273
401.8247	0.223
402.0305	0.2074
402.2364	0.2275
402.4422	0.2333
402.648	0.2223
402.8538	0.219
403.0596	0.1967
403.2654	0.2262
403.4711	0.2218
403.6768	0.2348
403.8826	0.2345
404.0883	0.2211
404.294	0.2283
404.4997	0.2417
404.7054	0.2246
404.911	0.2032
405.1167	0.2245
405.3223	0.2405
405.5279	0.2299
405.7335	0.234
405.9391	0.2256
406.1447	0.2052
406.3502	0.2332
406.5558	0.2146
406.7613	0.233
406.9668	0.2262
407.1724	0.2195
407.3778	0.2162
407.5833	0.2306
407.7888	0.219
407.9942	0.2386
408.1997	0.2066
408.4051	0.2282
408.6105	0.2178
408.8159	0.2193
409.0213	0.2165
409.2267	0.2413
409.432	0.2195
409.6374	0.236
409.8427	0.2244
410.048	0.2314
410.2533	0.2138
410.4586	0.2299
410.6639	0.1929
410.8691	0.2178
411.0744	0.2145
411.2796	0.2196
411.4848	0.2321
411.69	0.2079
411.8952	0.2292
412.1004	0.2064
412.3056	0.2169
412.5107	0.2126
412.7158	0.2297
412.921	0.222
413.1261	0.2254
413.3312	0.2165
413.5362	0.2178
413.7413	0.2142
413.9464	0.1983
414.1514	0.2133
414.3564	0.2269
414.5614	0.1942
414.7664	0.1948
414.9714	0.2137
415.1764	0.2296
415.3813	0.2289
415.5863	0.2118
415.7912	0.2281
415.9961	0.2252
416.201	0.2138
416.4059	0.209
416.6108	0.1991
416.8156	0.204
417.0205	0.2178
417.2253	0.1923
417.4301	0.2295
417.6349	0.2032
417.8397	0.2098
418.0445	0.2116
418.2492	0.2248
418.454	0.2034
418.6587	0.204
418.8634	0.2246
419.0681	0.1997
419.2728	0.196
419.4775	0.2062
419.6822	0.2077
419.8868	0.2011
420.0915	0.2096
420.2961	0.1902
420.5007	0.1945
420.7053	0.1991
420.9099	0.2134
421.1144	0.2013
421.319	0.1988
421.5235	0.1898
421.728	0.2109
421.9325	0.2137
422.137	0.2062
422.3415	0.1944
422.546	0.1964
422.7504	0.1807
422.9549	0.2005
423.1593	0.2
423.3637	0.1953
423.5681	0.2001
423.7725	0.1754
423.9769	0.1702
424.1812	0.1819
424.3856	0.1801
424.5899	0.1934
424.7942	0.194
424.9985	0.2067
425.2028	0.1827
425.4071	0.1998
425.6113	0.1751
425.8156	0.1807
426.0198	0.196
426.224	0.178
426.4282	0.1743
426.6324	0.1707
426.8366	0.1693
427.0407	0.1483
427.2449	0.1486
427.449	0.1698
427.6531	0.1523
427.8572	0.1654
428.0613	0.1669
428.2654	0.1738
428.4694	0.1786
428.6735	0.1731
428.8775	0.1707
429.0815	0.1749
429.2855	0.1517
429.4895	0.1728
429.6935	0.1617
429.8975	0.1633
430.1014	0.1454
430.3053	0.1324
430.5093	0.1502
430.7132	0.1442
430.9171	0.1388
431.1209	0.146
431.3248	0.1523
431.5286	0.1383
431.7325	0.1397
431.9363	0.1424
432.1401	0.1473
432.3439	0.1381
432.5477	0.1226
432.7514	0.118
432.9552	0.1346
433.1589	0.1313
433.3627	0.1431
433.5664	0.1322
433.7701	0.1247
433.9737	0.1432
434.1774	0.1244
434.3811	0.1285
434.5847	0.122
434.7883	0.1332
434.9919	0.1042
435.1955	0.12
435.3991	0.1198
435.6027	0.1145
435.8062	0.1199
436.0098	0.1131
436.2133	0.0988
436.4168	0.09
436.6203	0.0877
436.8238	0.104
437.0272	0.115
437.2307	0.0797
437.4341	0.113
437.6375	0.1084
437.841	0.09
438.0443	0.0986
438.2477	0.0924
438.4511	0.0856
438.6545	0.0917
438.8578	0.0921
439.0611	0.0904
439.2644	0.0998
439.4677	0.0819
439.671	0.0803
439.8743	0.0925
440.0775	0.0872
440.2808	0.08
440.484	0.0624
440.6872	0.068
440.8904	0.0809
441.0936	0.0866
441.2967	0.0767
441.4999	0.0779
441.703	0.0601
441.9062	0.0582
442.1093	0.0617
442.3124	0.0706
442.5155	0.0598
442.7185	0.0674
442.9216	0.0384
443.1246	0.0628
443.3276	0.0554
443.5307	0.0573
443.7337	0.0575
443.9366	0.0557
444.1396	0.0568
444.3426	0.0665
444.5455	0.0458
444.7484	0.0501
444.9513	0.0507
445.1542	0.0514
445.3571	0.0574
445.56	0.0464
445.7628	0.0431
445.9657	0.0401
446.1685	0.0398
446.3713	0.0492
446.5741	0.0477
446.7769	0.0365
446.9797	0.0496
447.1824	0.0614
447.3852	0.0473
447.5879	0.0458
447.7906	0.0467
447.9933	0.0535
448.196	0.0364
448.3986	0.041
448.6013	0.0433
448.8039	0.0338
449.0066	0.0359
449.2092	0.0421
449.4118	0.0424
449.6143	0.0414
449.8169	0.0442
450.0195	0.0318
450.222	0.0035
450.4245	0.0302
450.627	0.0375
450.8295	0.0234
451.032	0.0337
451.2345	0.0281
451.4369	0.0254
451.6394	0.025
451.8418	0.0057
452.0442	0.0183
452.2466	0.0271
452.449	0.0128
452.6513	0.0269
452.8537	0.0158
453.056	0.0042
453.2583	0.0095
453.4607	0.0101
453.663	0.0179
453.8652	0.0218
454.0675	0.0099
454.2697	0.0141
454.472	0.0028
454.6742	0.025
454.8764	0.0118
455.0786	0.0222
455.2808	0.0124
455.4829	0.0149
455.6851	0.0193
455.8872	0.0187
456.0893	0.0198
456.2915	0.0104
456.4935	0.0179
456.6956	0.0066
456.8977	0.0135
457.0997	-0.0019
457.3018	-0.0063
457.5038	0.0122
457.7058	0.0016
457.9078	0.0085
458.1098	0.0183
458.3117	0.0159
458.5137	0.0054
458.7156	0.0073
458.9175	0.0032
459.1194	0.0034
459.3213	0.0124
459.5232	0.0082
459.725	-0.0088
459.9269	0.0069
460.1287	0.0084
460.3305	0.0076
460.5323	0.0082
460.7341	0.0138
460.9359	-0.0018
461.1376	0.0125
461.3394	-0.0077
461.5411	0.0126
461.7428	0.0193
461.9445	0.004
462.1462	0.0152
462.3479	0.0014
462.5495	0.0075
462.7512	0.0094
462.9528	-0.0015
463.1544	-0.0213
463.356	0.0153
463.5576	0.0166
463.7592	0.0045
463.9607	0.0105
464.1623	0.0131
464.3638	0.0282
464.5653	-0.0084
464.7668	0.0146
464.9683	0.0104
465.1697	0.012
465.3712	-0.0077
465.5726	-0.0159
465.7741	0.0017
465.9755	-0.0112
466.1769	-0.0039
466.3782	-0.0083
466.5796	-0.0038
466.7809	0.0094
466.9823	-0.0106
467.1836	0.0062
467.3849	-0.0092
467.5862	-0.0051
467.7875	-0.003
467.9887	0.0224
468.19	-0.0058
468.3912	-0.0036
468.5924	0.0016
468.7936	-0.0012
468.9948	-0.005
469.196	0.0032
469.3972	-0.0177
469.5983	-0.0125
469.7994	-0.0103
470.0006	0.0033
470.2017	-0.0172
470.4027	0.0031
470.6038	-0.0075
470.8049	-0.0069
471.0059	-0.0064
471.2069	-0.0247
471.408	0.0045
471.6089	0.0085
471.8099	-0.0079
472.0109	0.0125
472.2119	-0.0072
472.4128	-0.0074
472.6137	0.0006
472.8146	-0.01
473.0155	0.003
473.2164	-0.0032
473.4173	-0.0005
473.6181	0.0109
473.819	0.0058
474.0198	-0.0145
474.2206	-0.0077
474.4214	0.0004
474.6222	-0.0144
474.8229	-0.023
475.0237	-0.022
475.2244	-0.0086
475.4251	-0.0057
475.6258	-0.0026
475.8265	-0.0018
476.0272	0.0002
476.2278	-0.0058
476.4285	-0.0073
476.6291	-0.0007
476.8297	-0.0014
477.0303	-0.0061
477.2309	-0.0002
477.4315	-0.0114
477.632	0.0109
477.8326	-0.0107
478.0331	-0.0036
478.2336	0.0056
478.4341	-0.0047
478.6346	-0.0143
478.8351	-0.0085
479.0355	-0.0025
479.236	-0.0171
479.4364	0.0044
479.6368	-0.0032
479.8372	-0.0161
480.0376	-0.0077
480.2379	-0.0163
480.4383	-0.0074
480.6386	0.0013
480.8389	-0.0029
481.0392	0.0018
481.2395	-0.012
481.4398	-0.0073
481.6401	0.0023
481.8403	-0.0101
482.0405	0.0033
482.2408	-0.0047
482.441	0.0074
482.6411	0.0021
482.8413	-0.0039
483.0415	-0.0204
483.2416	-0.0102
483.4417	-0.0014
483.6419	-0.0066
483.8419	-0.0095
484.042	-0.0028
484.2421	-0.0067
484.4422	-0.0103
484.6422	-0.0089
484.8422	-0.0093
485.0422	-0.0027
485.2422	-0.0052
485.4422	-0.0164
485.6422	-0.0043
485.8421	-0.0014
486.042	-0.0015
486.242	-0.0158
486.4419	-0.0132
486.6417	-0.0155
486.8416	-0.0054
487.0415	-0.0013
487.2413	-0.0021
487.4411	-0.003
487.641	-0.0065
487.8408	0.0066
488.0405	0.0009
488.2403	0.0029
488.4401	-0.0044
488.6398	0.0012
488.8395	-0.0071
489.0392	0.0003
489.2389	-0.003
489.4386	-0.0078
489.6383	-0.0035
489.8379	0.0048
490.0376	-0.0114
490.2372	-0.0124
490.4368	-0.0134
490.6364	-0.0053
490.836	-0.0094
491.0355	-0.0018
491.2351	-0.0025
491.4346	-0.0019
491.6341	-0.0137
491.8336	-0.0007
492.0331	-0.0163
492.2326	-0.0096
492.432	0.0024
492.6315	-0.0082
492.8309	-0.0101
493.0303	-0.0113
493.2297	-0.0019
493.4291	-0.001
493.6284	-0.0072
493.8278	0.0032
494.0271	0.0044
494.2264	-0.0023
494.4257	-0.0117
494.625	-0.0018
494.8243	-0.0076
495.0236	-0.0147
495.2228	-0.0131
495.422	0.0065
495.6213	-0.0068
495.8205	-0.002
496.0196	-0.0014
496.2188	-0.0016
496.418	-0.0138
496.6171	-0.005
496.8162	-0.0075
497.0153	-0.0007
497.2144	-0.0055
497.4135	-0.0002
497.6126	-0.0192
497.8116	-0.0074
498.0107	0.0042
498.2097	-0.0074
498.4087	-0.0083
498.6077	-0.0053
498.8067	-0.0099
499.0056	-0.0035
499.2046	0.0042
499.4035	-0.0188
499.6024	-0.0057
499.8013	0.0031
500.0002	-0.0131
500.199	-0.0096
500.3979	-0.0067
500.5967	-0.0267
500.7956	-0.001
500.9944	-0.0031
501.1932	-0.0146
501.3919	-0.0093
501.5907	-0.0108
501.7895	-0.0048
501.9882	-0.0122
502.1869	0.0035
502.3856	-0.0077
502.5843	-0.0078
502.783	-0.007
502.9816	-0.0002
503.1803	-0.0082
503.3789	-0.0125
503.5775	0.0021
503.7761	-0.0059
503.9747	-0.0012
504.1732	-0.003
504.3718	0.001
504.5703	-0.0096
504.7689	0.0013
504.9674	-0.0057
505.1658	-0.0161
505.3643	-0.0054
505.5628	-0.0036
505.7612	-0.0073
505.9597	0.0096
506.1581	-0.0091
506.3565	0.0069
506.5549	-0.0046
506.7532	-0.0046
506.9516	-0.0059
507.1499	-0.0037
507.3482	-0.0126
507.5465	-0.0013
507.7448	-0.0072
507.9431	-0.0057
508.1414	-0.0011
508.3396	-0.0057
508.5379	-0.0067
508.7361	-0.0068
508.9343	-0.0029
509.1325	0.0002
509.3306	-0.0061
509.5288	-0.0081
509.7269	-0.0027
509.9251	-0.0053
510.1232	-0.0062
510.3213	0.0025
510.5193	0.0034
510.7174	-0.0135
510.9154	-0.0153
511.1135	-0.007
511.3115	0.0005
511.5095	-0.0086
511.7075	-0.0009
511.9055	-0.0044
512.1034	-0.0135
512.3014	0.003
512.4993	-0.0006
512.6972	-0.0109
512.8951	-0.0144
513.093	-0.0036
513.2908	-0.0055
513.4887	-0.0036
513.6865	-0.0061
513.8844	-0.0073
514.0822	-0.0102
514.2799	-0.0098
514.4777	-0.0032
514.6755	-0.0053
514.8732	-0.0027
515.0709	-0.0023
515.2687	-0.0048
515.4664	0.0032
515.664	-0.0076
515.8617	-0.0085
516.0594	-0.0177
516.257	-0.0007
516.4546	-0.009
516.6522	-0.0039
516.8498	-0.0022
517.0474	-0.005
517.2449	0.0081
517.4425	-0.0111
517.64	-0.0132
517.8375	-0.0011
518.035	-0.0005
518.2325	-0.0085
518.43	-0.003
518.6274	-0.0059
518.8249	-0.0081
519.0223	0.0002
519.2197	-0.0065
519.4171	-0.0084
519.6145	-0.0021
519.8118	0.0034
520.0092	-0.0086
520.2065	-0.0103
520.4038	-0.0192
520.6011	0.0004
520.7984	-0.0115
520.9956	-0.0105
521.1929	-0.0008
521.3901	-0.0107
521.5874	-0.0072
521.7846	-0.0052
521.9818	-0.0048
522.1789	-0.0203
522.3761	-0.0049
522.5732	-0.0085
522.7704	-0.0075
522.9675	-0.0062
523.1646	-0.0011
523.3617	0.0043
523.5587	-0.0075
523.7558	0.0022
523.9528	0.0078
524.1498	-0.0121
524.3468	-0.009
524.5438	-0.0118
524.7408	-0.0013
524.9378	0.0121
525.1347	0.0059
525.3316	0.0003
525.5285	-0.0088
525.7254	-0.0018
525.9223	-0.0076
526.1192	-0.0048
526.316	-0.0021
526.5129	-0.0009
526.7097	0.0011
526.9065	-0.0129
527.1033	-0.0113
527.3	0.0024
527.4968	-0.0121
527.6935	0.0002
527.8903	-0.0123
528.087	0.0032
528.2837	-0.0052
528.4804	0.0009
528.677	-0.0086
528.8737	0.0088
529.0703	0.0016
529.2669	-0.0012
529.4635	-0.0049
529.6601	-0.011
529.8567	-0.0014
530.0532	-0.0065
530.2498	-0.0058
530.4463	0.0043
530.6428	0.0042
530.8393	0.0055
531.0358	-0.005
531.2322	-0.0002
531.4287	-0.0081
531.6251	-0.0025
531.8215	0.0036
532.0179	0.0046
532.2143	0.0085
532.4107	0.0069
532.607	-0.0052
532.8034	0.0038
532.9997	0.0051
533.196	-0.0115
533.3923	-0.0071
533.5886	0.0056
533.7848	0.0126
533.9811	-0.0004
534.1773	0.0033
534.3735	0.0018
534.5697	-0.0029
534.7659	-0.0081
534.9621	0.0047
535.1582	-0.013
535.3544	-0.0084
535.5505	-0.0169
535.7466	-0.0015
535.9427	-0.0018
536.1387	-0.0061
536.3348	-0.0129
536.5308	0.0062
536.7269	-0.0102
536.9229	-0.0027
537.1189	-0.0032
537.3148	-0.0093
537.5108	-0.0122
537.7068	-0.0085
537.9027	-0.0002
538.0986	-0.0117
538.2945	-0.0054
538.4904	-0.0043
538.6863	-0.003
538.8821	-0.0093
539.078	-0.0002
539.2738	-0.0053
539.4696	-0.011
539.6654	0.0028
539.8611	0.0037
540.0569	-0.006
540.2526	-0.0112
540.4484	0.0057
540.6441	0.0224
540.8398	-0.003
541.0355	0.0009
541.2311	-0.001
541.4268	-0.008
541.6224	0.0015
541.818	0.0027
542.0136	-0.0074
542.2092	0.0019
542.4048	-0.0035
542.6003	-0.0001
542.7959	-0.0019
542.9914	-0.0022
543.1869	0.0027
543.3824	-0.0007
543.5779	-0.004
543.7734	0.0026
543.9688	-0.0062
544.1642	0.0001
544.3596	0.0043
544.555	-0.0023
544.7504	-0.0052
544.9458	-0.0014
545.1411	-0.001
545.3365	-0.0022
545.5318	-0.0022
545.7271	-0.0076
545.9224	-0.0091
546.1177	0.0053
546.3129	0.001
546.5081	-0.0009
546.7034	0.0051
546.8986	0.0007
547.0938	-0.0033
547.289	-0.0023
547.4841	-0.0017
547.6793	-0.0026
547.8744	-0.0114
548.0695	-0.0026
548.2646	-0.0025
548.4597	0.0017
548.6548	-0.0023
548.8498	0.0089
549.0448	0.0039
549.2399	-0.0017
549.4349	0.0123
549.6298	0.0033
549.8248	-0.0048
550.0198	-0.0103
550.2147	-0.0052
550.4096	-0.0061
550.6045	-0.0081
550.7994	0.0018
550.9943	0.0018
551.1892	0.0002
551.384	0.0002
551.5788	-0.007
551.7737	-0.0044
551.9685	-0.0064
552.1632	0.0095
552.358	-0.0075
552.5528	0.0033
552.7475	-0.0055
552.9422	-0.0059
553.1369	0.0015
553.3316	0.0022
553.5263	-0.0029
553.7209	0.0108
553.9156	-0.0167
554.1102	-0.0084
554.3048	-0.0029
554.4994	0.0091
554.694	0.0052
554.8885	0.0085
555.0831	-0.0049
555.2776	-0.003
555.4721	-0.0042
555.6666	0
555.8611	0.0061
556.0555	0.0002
556.25	-0.0001
556.4444	-0.0149
556.6388	0.0003
556.8332	0.0048
557.0276	-0.0051
557.222	-0.0052
557.4163	0.0028
557.6107	-0.004
557.805	0.0039
557.9993	0.0026
558.1936	-0.0022
558.3879	0.007
558.5821	-0.0002
558.7764	-0.002
558.9706	-0.0056
559.1648	0.0098
559.359	-0.0054
559.5532	-0.0081
559.7473	-0.0068
559.9415	-0.0003
560.1356	-0.006
560.3297	-0.0105
560.5238	0.0022
560.7179	-0.0015
560.9119	-0.0015
561.106	-0.0018
561.3	-0.0079
561.494	-0.0047
561.688	-0.0043
561.882	-0.0024
562.076	-0.013
562.2699	-0.0036
562.4639	-0.0047
562.6578	-0.0036
562.8517	-0.005
563.0456	-0.0026
563.2395	0.0007
563.4333	-0.0033
563.6272	0.0029
563.821	-0.0128
564.0148	0.0032
564.2086	-0.013
564.4024	-0.0005
564.5961	-0.0017
564.7899	0.0021
564.9836	-0.0071
565.1773	0.0038
565.371	0.0106
565.5647	-0.0011
565.7584	-0.0003
565.952	-0.0053
566.1456	-0.0015
566.3393	0.0055
566.5329	-0.006
566.7264	0.0065
566.92	0.0009
567.1136	0.0005
567.3071	-0.0015
567.5006	0.0048
567.6941	-0.0028
567.8876	-0.0048
568.0811	-0.0045
568.2745	0.0008
568.468	0.013
568.6614	0.0027
568.8548	0.0005
569.0482	-0.0046
569.2416	-0.0001
569.4349	0.001
569.6283	0.0012
569.8216	0.0028
570.0149	-0.0063
570.2082	0.0117
570.4015	0.0075
570.5947	0.0071
570.788	-0.0004
570.9812	0.0067
571.1744	-0.0025
571.3676	-0.0056
571.5608	-0.0042
571.754	0.0039
571.9471	0.0053
572.1402	0.0016
572.3333	-0
572.5264	-0.0013
572.7195	0.0027
572.9126	-0.0023
573.1057	-0.0008
573.2987	0.0016
573.4917	-0.0001
573.6847	-0.0075
573.8777	0.0044
574.0707	0.0054
574.2636	-0.0028
574.4566	-0.0017
574.6495	0.0013
574.8424	0.0026
575.0353	-0.0088
575.2281	0.0072
575.421	0.005
575.6138	-0.0004
575.8067	-0.0009
575.9995	0.0055
576.1923	0.0102
576.385	0.0083
576.5778	0.0025
576.7706	0.005
576.9633	0.0042
577.156	0.004
577.3487	-0.0002
577.5414	0.0046
577.734	-0.0057
577.9267	0.005
578.1193	-0.0067
578.3119	-0.0044
578.5045	0.0037
578.6971	-0.0011
578.8897	0.0068
579.0822	0.0008
579.2747	0.0065
579.4673	-0.0005
579.6598	-0.0062
579.8522	0.0015
580.0447	-0.0025
580.2372	-0.0022
580.4296	0.0006
580.622	0.0047
580.8144	0.0032
581.0068	0.0015
581.1992	-0.0046
581.3915	-0.0007
581.5839	-0.0088
581.7762	-0.0048
581.9685	0
582.1608	0.0038
582.353	-0.0055
582.5453	-0.0019
582.7375	-0.0016
582.9298	0.0031
583.122	0.0079
583.3142	-0.0006
583.5063	-0.0012
583.6985	-0.003
583.8906	-0.0024
584.0827	-0.007
584.2749	0.009
584.4669	-0.0011
584.659	-0.0009
584.8511	-0.003
585.0431	-0.0057
585.2352	0.005
585.4272	-0.0006
585.6192	0.0023
585.8111	0.0046
586.0031	0.0059
586.195	0.0027
586.387	0.0028
586.5789	-0.0025
586.7708	0.0037
586.9627	0.0012
587.1545	-0.0056
587.3464	0.0065
587.5382	0.0069
587.73	0.0047
587.9218	0.0065
588.1136	-0.0028
588.3053	0.0108
588.4971	-0.0069
588.6888	-0.0112
588.8805	0.0056
589.0722	0.0013
589.2639	0.0069
589.4556	0.0032
589.6472	-0.0014
589.8389	-0.0107
590.0305	-0.0026
590.2221	0.0023
590.4137	-0.0088
590.6052	0.0027
590.7968	0.0008
590.9883	0.0001
591.1798	-0.0028
591.3713	-0.0005
591.5628	0.0106
591.7543	0.0028
591.9458	0.0056
592.1372	0.0045
592.3286	0.0001
592.52	0.0077
592.7114	-0.0004
592.9028	-0.0063
593.0941	-0.0004
593.2855	-0.0005
593.4768	-0.0067
593.6681	-0.0029
593.8594	-0.0088
594.0506	0.0023
594.2419	0.0076
594.4331	-0.0001
594.6244	0.0086
594.8156	-0.0106
595.0067	0.0038
595.1979	0.0007
595.3891	-0.001
595.5802	0.0007
595.7713	0.006
595.9624	-0.0007
596.1535	0.0065
596.3446	0
596.5357	0.0068
596.7267	0.0159
596.9177	-0.0009
597.1087	-0.005
597.2997	-0.0021
597.4907	-0.0006
597.6817	-0.0023
597.8726	-0.0027
598.0635	-0.0019
598.2544	-0.0012
598.4453	0.0053
598.6362	0.0044
598.827	-0.0033
599.0179	0.0029
599.2087	0.0017
599.3995	-0.0029
599.5903	0.0053
599.7811	0.004
599.9718	0.0081
600.1626	-0.003
600.3533	-0.0048
600.544	0.0041
600.7347	-0.0015
600.9254	0.0033
601.116	-0.003
601.3067	0.0023
601.4973	-0.0031
601.6879	0.0076
601.8785	-0.0023
602.0691	0.0078
602.2596	0.0066
602.4502	0.0074
602.6407	0.0071
602.8312	0.0071
603.0217	0.0012
603.2122	0.0039
603.4027	0.0065
603.5931	0.0038
603.7835	0.0038
603.9739	0.0015
604.1643	0.0014
604.3547	0.0049
604.5451	0.0073
604.7354	0.0043
604.9257	0.0002
605.116	-0.0016
605.3063	0.0102
605.4966	0.0084
605.6869	0.0023
605.8771	0.0082
606.0673	0.0076
606.2575	0.0046
606.4477	0.0043
606.6379	0.0036
606.8281	-0.0016
607.0182	-0.0026
607.2083	0.0104
607.3985	0.0019
607.5885	0.0028
607.7786	0.0068
607.9687	-0.0078
608.1587	0.0081
608.3488	0.0039
608.5388	-0.0033
608.7288	-0.0026
608.9187	-0.0055
609.1087	-0.0053
609.2986	-0.0036
609.4886	0.0004
609.6785	0.003
609.8684	0.007
610.0582	0.003
610.2481	-0
610.4379	-0.0029
610.6278	-0.0061
610.8176	-0.0037
611.0074	-0.0019
611.1971	-0.0016
611.3869	-0.0015
611.5766	-0.0069
611.7664	0.0051
611.9561	0.0043
612.1458	0.0057
612.3354	-0.0006
612.5251	-0.0007
612.7147	0.0016
612.9044	0.0066
613.094	-0.0002
613.2836	0.0018
613.4731	-0.0054
613.6627	0.0007
613.8522	0.0052
614.0417	0.0092
614.2313	0.0042
614.4207	-0.0034
614.6102	0.001
614.7997	-0.0004
614.9891	0.0035
615.1785	0.0045
615.3679	-0.0008
615.5573	0.0082
615.7467	0.0001
615.9361	-0.0032
616.1254	0.0012
616.3147	0.0073
616.504	0.0078
616.6933	0.007
616.8826	0.0073
617.0718	-0.0035
617.2611	0.0023
617.4503	-0.0011
617.6395	0.0036
617.8287	-0.0039
618.0179	-0.0065
618.207	0.0116
618.3961	0.0033
618.5853	-0.0004
618.7744	0.0109
618.9634	0.0073
619.1525	0.0037
619.3416	0.0059
619.5306	0.006
619.7196	0.0039
619.9086	0.0006
620.0976	0.003
620.2866	-0.0011
620.4755	0.0083
620.6645	0.001
620.8534	0.0029
621.0423	0.0077
621.2312	0.0158
621.42	0.0014
621.6089	0.0036
621.7977	0.009
621.9865	0
622.1753	0.01
622.3641	-0.0021
622.5529	0.0031
622.7416	0.0118
622.9303	-0.0007
623.1191	0.0038
623.3078	-0.0084
623.4964	0.0006
623.6851	0.0022
623.8737	-0.0002
624.0624	0.011
624.251	-0.0065
624.4396	-0.0033
624.6282	-0.0064
624.8167	-0.0024
625.0053	0.0024
625.1938	0.0097
625.3823	0.0022
625.5708	0.0002
625.7593	-0.0023
625.9477	-0.0037
626.1362	-0.0035
626.3246	0.0052
626.513	0.0026
626.7014	0.0062
626.8898	0.0032
627.0781	0.0007
627.2665	0.0038
627.4548	0.0107
627.6431	0.0102
627.8314	0.0091
628.0197	0.0071
628.2079	0.001
628.3962	-0.003
628.5844	0.0066
628.7726	0.0067
628.9608	0.0102
629.1489	-0.0007
629.3371	0.0052
629.5252	-0.0043
629.7134	0.005
629.9015	0.0034
630.0895	0.0016
630.2776	0.0073
630.4657	-0.001
630.6537	-0.0008
630.8417	0.0014
631.0297	0.0008
631.2177	0.0051
631.4057	-0.0041
631.5936	0.0045
631.7815	0.0017
631.9695	0.0031
632.1574	0.0111
632.3452	0.0121
632.5331	0.0008
632.7209	0.0042
632.9088	0.0152
633.0966	0.0177
633.2844	0.0035
633.4722	0.0031
633.6599	0.0107
633.8477	0.0046
634.0354	0.0001
634.2231	-0.0007
634.4108	0.0099
634.5985	0.0114
634.7861	0.0071
634.9738	0.0057
635.1614	0.0043
635.349	0.0029
635.5366	0.0025
635.7242	-0.0008
635.9117	0.0052
636.0993	-0.0019
636.2868	0.0058
636.4743	0.0023
636.6618	0.0078
636.8492	0.0034
637.0367	0.0012
637.2241	-0.0044
637.4115	-0.0001
637.5989	-0.0039
637.7863	-0.0023
637.9737	-0.0039
638.161	-0.0012
638.3484	-0.0021
638.5357	0.0093
638.723	-0.0023
638.9103	0.0066
639.0975	0.0042
639.2848	0.0039
639.472	0.004
639.6592	0.0057
639.8464	0.0042
640.0336	0.0108
640.2208	0.0032
640.4079	0.0022
640.595	0.0015
640.7821	-0.0002
640.9692	-0.0017
641.1563	0.0007
641.3434	0.0021
641.5304	0.0033
641.7174	-0.0023
641.9044	0.0039
642.0914	0.0061
642.2784	0.0098
642.4653	0.01
642.6523	0.0055
642.8392	0.0043
643.0261	0.007
643.213	0.0064
643.3999	-0.0021
643.5867	-0.0021
643.7735	0.0089
643.9604	-0.0006
644.1472	0.0011
644.3339	0.0054
644.5207	0.0087
644.7075	0.0087
644.8942	-0.0012
645.0809	0.0093
645.2676	0.0064
645.4543	0.0097
645.6409	0.0086
645.8276	0.0085
646.0142	0.0074
646.2008	-0.0053
646.3874	-0.0027
646.574	0.005
646.7605	-0.0048
646.9471	-0.006
647.1336	0.0064
647.3201	0.0105
647.5066	0.002
647.6931	0.0098
647.8795	0.0049
648.0659	0.009
648.2524	0.0066
648.4388	0.0019
648.6252	0.007
648.8115	0.001
648.9979	0.0038
649.1842	0.0004
649.3705	0.0023
649.5568	0.0089
649.7431	0.0004
649.9294	0.0025
650.1156	0.0107
650.3018	-0.004
650.488	0.0053
650.6742	0.004
650.8604	-0.0007
651.0466	0.0005
651.2327	0.0088
651.4188	0.0058
651.6049	-0.0021
651.791	-0.002
651.9771	0.0036
652.1632	0.0047
652.3492	-0.0031
652.5352	0.0049
652.7212	0.0061
652.9072	0.017
653.0932	0.0031
653.2791	0.0005
653.465	0.0003
653.651	-0.0007
653.8369	-0.0041
654.0227	-0.002
654.2086	0.0103
654.3944	0.0042
654.5803	-0.0004
654.7661	0.0038
654.9519	-0.0005
655.1377	-0.0037
655.3234	0.0001
655.5092	0.0008
655.6949	-0.0029
655.8806	0.0011
656.0663	-0.0011
656.2519	-0.0024
656.4376	-0.0023
656.6232	0.0066
656.8088	-0.0045
656.9945	0.0024
657.18	0.0002
657.3656	0.0049
657.5511	0.0017
657.7367	-0.005
657.9222	0.0074
658.1077	0.0067
658.2932	0.0049
658.4786	-0.0081
658.6641	-0.0035
658.8495	0.003
659.0349	0.0005
659.2203	0.0072
659.4057	0.0029
659.591	0.0064
659.7764	-0.0019
659.9617	0.002
660.147	-0.0025
660.3323	0.0016
660.5176	0.002
660.7028	0.0065
660.888	0.0018
661.0733	0.0075
661.2585	0.0036
661.4436	0.0001
661.6288	0.0033
661.8139	0.0042
661.9991	0.0074
662.1842	0.006
662.3693	0.0063
662.5544	0.0016
662.7394	0.0028
662.9245	0.0017
663.1095	-0.0002
663.2945	0.0061
663.4795	0.0019
663.6644	0.0099
663.8494	0.0082
664.0343	0.0077
664.2193	-0.0053
664.4042	-0.001
664.589	0.0001
664.7739	-0
664.9587	-0.0045
665.1436	0.0043
665.3284	0.0052
665.5132	-0.0035
665.698	0.0026
665.8827	0.0061
666.0675	-0.0047
666.2522	-0.0035
666.4369	0.0016
666.6216	0.0096
666.8063	0.0071
666.9909	0.0046
667.1756	-0.003
667.3602	0.0104
667.5448	0.0069
667.7294	0.0147
667.9139	0.0101
668.0985	0.0132
668.283	0.0058
668.4675	0.0058
668.652	-0.0018
668.8365	0.0093
669.0209	0.0107
669.2054	0.0105
669.3898	0.006
669.5742	0.0045
669.7586	0.0052
669.943	0.015
670.1273	0.0086
670.3117	0.0069
670.496	0.0046
670.6803	0.0155
670.8646	0.0089
671.0488	0.0004
671.2331	0.0071
671.4173	0.0044
671.6015	0.0042
671.7857	0.0068
671.9699	0.0094
672.1541	0.0095
672.3382	0.0031
672.5223	-0.0002
672.7064	0.0082
672.8905	0.0107
673.0746	0.0022
673.2587	0.0008
673.4427	0.0039
673.6267	0.0051
673.8107	0.012
673.9947	0.0069
674.1787	0.0062
674.3626	0.0022
674.5465	0.0063
674.7304	0.0106
674.9143	0.0134
675.0982	0.0118
675.2821	-0.0053
675.4659	0.0094
675.6497	0.0018
675.8335	-0.0001
676.0173	0.0059
676.2011	0.0027
676.3849	0.0026
676.5686	-0.0047
676.7523	-0.0004
676.936	0.0027
677.1197	0.0033
677.3034	-0.0103
677.487	0.0076
677.6706	0.0041
677.8542	0.0001
678.0378	0.0048
678.2214	-0.0045
678.405	0.0021
678.5885	-0.003
678.772	0.0074
678.9555	-0.0031
679.139	0.0035
679.3225	0.0021
679.5059	0.0032
679.6894	-0.0012
679.8728	0.0008
680.0562	-0.0006
680.2395	-0.0037
680.4229	-0.0005
680.6062	0.0024
680.7896	0.002
680.9729	-0.0065
681.1562	-0.0009
681.3394	0.0026
681.5227	-0.0088
681.7059	0.0048
681.8891	-0.0002
682.0723	0.0103
682.2555	0.0045
682.4387	-0.0047
682.6218	-0.0009
682.805	0.0029
682.9881	0.002
683.1712	-0.002
683.3542	0.004
683.5373	0.0072
683.7203	-0.0059
683.9034	0.0012
684.0864	-0.0097
684.2694	-0.0078
684.4523	0.0116
684.6353	-0.0033
684.8182	0.0074
685.0011	-0.0039
685.184	0
685.3669	0.0015
685.5498	0.0018
685.7326	-0.002
685.9154	-0.0001
686.0982	0.0042
686.281	0.0017
686.4638	-0.0001
686.6465	-0.0071
686.8293	-0.0011
687.012	0.0038
687.1947	-0.0081
687.3774	0.0047
687.56	-0.006
687.7427	-0.0013
687.9253	0.0041
688.1079	0.0013
688.2905	0.0082
688.4731	0.0049
688.6556	0.0013
688.8382	0.0022
689.0207	0.0073
689.2032	-0.0032
689.3857	-0.0072
689.5681	0.0006
689.7506	0.0021
689.933	0.0083
690.1154	0.0083
690.2978	0.0083
690.4802	0.0046
690.6626	-0.0035
690.8449	-0.0004
691.0272	0.0045
691.2095	-0.0052
691.3918	-0.0025
691.5741	0.0033
691.7563	0.0016
691.9386	0.0004
692.1208	0.0044
692.303	0.0044
692.4852	0.0036
692.6673	0.003
692.8495	0.0035
693.0316	-0.0004
693.2137	0.0024
693.3958	0.0057
693.5778	-0.0019
693.7599	-0.0017
693.9419	0.0023
694.1239	-0.0024
694.3059	-0.0029
694.4879	0.0022
694.6699	0.0072
694.8518	0.0028
695.0337	0.0028
695.2157	0.0026
695.3975	-0.0022
695.5794	0.0009
695.7613	0.0044
695.9431	-0.0006
696.1249	0.004
696.3067	0.0014
696.4885	0.013
696.6703	0.0022
696.852	0.0021
697.0337	0.0031
697.2154	0.013
697.3971	0.0069
697.5788	0.0061
697.7605	0.0023
697.9421	0.0056
698.1237	0.0005
698.3053	0.003
698.4869	-0.0055
698.6685	-0.0063
698.85	0.0061
699.0315	0.0165
699.213	0.008
699.3945	0.0068
699.576	0.0088
699.7575	0.0047
699.9389	0.0088
700.1203	-0.0038
700.3017	-0.009
700.4831	-0.0103
700.6645	0.0014
700.8458	0.003
701.0271	-0.0021
701.2084	0.0085
701.3897	-0.0053
701.571	0.0014
701.7523	-0.0021
701.9335	0.0033
702.1147	-0.0013
702.2959	-0.0004
702.4771	0.0016
702.6583	0.0033
702.8394	-0.0138
703.0205	0.0035
703.2016	-0.003
703.3827	-0.0009
703.5638	0.0082
703.7449	-0.0049
703.9259	0.0102
704.1069	-0.0071
704.2879	0.003
704.4689	0.0075
704.6499	0.0036
704.8308	0.0027
705.0117	-0.0018
705.1927	0.0024
705.3735	-0.0033
705.5544	-0.0009
705.7353	-0.0048
705.9161	0.0003
706.0969	-0.0041
706.2777	-0.0035
706.4585	-0.0032
706.6393	0.0064
706.82	-0.002
707.0007	0.0103
707.1815	0.0019
707.3621	0.0131
707.5428	0.0046
707.7235	0.001
707.9041	0.0069
708.0847	-0.0059
708.2653	-0.0019
708.4459	-0.0084
708.6265	0.0016
708.807	0.0074
708.9875	-0.0023
709.168	0.0059
709.3485	-0.0035
709.529	-0.0061
709.7095	-0.0054
709.8899	0.0062
710.0703	-0.0078
710.2507	0.0084
710.4311	-0.0032
710.6115	-0.004
710.7918	-0.0053
710.9721	-0.0027
711.1524	-0.0007
711.3327	-0.0045
711.513	-0.0011
711.6932	0.0033
711.8735	0.0038
712.0537	0.0061
712.2339	0.0012
712.4141	-0.0103
712.5942	-0.0024
712.7744	0.0013
712.9545	-0.0015
713.1346	0.0028
713.3147	-0.0045
713.4947	-0.0013
713.6748	-0.0026
713.8548	-0.0005
714.0348	-0.0041
714.2148	-0.0003
714.3948	0.0109
714.5748	0.0067
714.7547	0.0042
714.9346	0.012
715.1145	0.0007
715.2944	-0.0088
715.4743	0.0012
715.6541	0.002
715.834	0.0087
716.0138	-0.0077
716.1936	-0.0055
716.3733	0.0058
716.5531	0.0063
716.7328	-0.0032
716.9126	0
717.0923	0.009
717.2719	-0.0021
717.4516	0.0047
717.6312	0.0037
717.8109	-0.0068
717.9905	0.005
718.1701	-0.0045
718.3496	-0.0093
718.5292	-0.0037
718.7087	-0.0065
718.8882	-0.0079
719.0677	0.0079
719.2472	-0.0021
719.4267	-0.0025
719.6061	0.0016
719.7856	-0.001
719.965	0.0029
720.1443	-0.0058
720.3237	0.0072
720.5031	0.0002
720.6824	0.0133
720.8617	-0.001
721.041	-0.0044
721.2203	-0.0003
721.3995	0.0031
721.5788	0.0053
721.758	0.0049
721.9372	-0.0003
722.1164	-0.0031
722.2956	0.011
722.4747	-0.0024
722.6538	0.0017
722.8329	0.0177
723.012	0.0115
723.1911	-0.0011
723.3702	0.0051
723.5492	0.0061
723.7282	-0.0049
723.9072	0.0009
724.0862	-0.0028
724.2652	-0.0079
724.4441	-0.0066
724.623	0.0006
724.8019	0.0016
724.9808	0.0049
725.1597	-0.0048
725.3385	0.0014
725.5174	0.0001
725.6962	0.0076
725.875	-0.0001
726.0538	0.0049
726.2325	0.0033
726.4112	-0.0013
726.59	-0.0142
726.7687	-0.0158
726.9474	-0.0023
727.126	-0.0005
727.3047	-0.0024
727.4833	-0.0042
727.6619	-0.0045
727.8405	-0.004
728.0191	0.0008
728.1976	0.0088
728.3762	-0.0029
728.5547	0.003
728.7332	-0.0143
728.9116	0.0023
729.0901	0.0058
729.2686	0.0022
729.447	-0.0063
729.6254	0.0053
729.8038	-0.0025
729.9821	-0.0063
730.1605	0
730.3388	0.0023
730.5171	0.0062
730.6954	-0.0132
730.8737	0.0023
731.0519	0.0016
731.2302	-0.0008
731.4084	0.0006
731.5866	0.0026
731.7648	0.0004
731.9429	-0.0002
732.1211	-0.0038
732.2992	-0.0003
732.4773	-0.0059
732.6554	0
732.8335	-0.0004
733.0115	0.0096
733.1896	0.0123
733.3676	-0.0044
733.5456	0.0003
733.7235	0.0053
733.9015	-0.0021
734.0794	-0.0055
734.2574	-0.0044
734.4353	-0.0024
734.6131	0.0007
734.791	-0.0038
734.9689	0.0002
735.1467	-0.0037
735.3245	-0.0132
735.5023	-0.0023
735.68	0.0024
735.8578	0.0038
736.0355	-0.0096
736.2132	-0.0109
736.3909	-0.003
736.5686	-0.0048
736.7463	0.0067
736.9239	-0.0005
737.1015	0.0019
737.2791	0.0127
737.4567	-0.0032
737.6343	-0.0026
737.8118	0.0066
737.9894	0.0059
738.1669	-0.0043
738.3444	-0.0018
738.5218	0.0055
738.6993	-0.0023
738.8767	-0.0039
739.0541	0.0144
739.2315	-0.0108
739.4089	0.0011
739.5863	0.0089
739.7636	-0.0062
739.9409	0.0108
740.1182	0.0057
740.2955	0.0115
740.4728	0.0026
740.65	0.0011
740.8272	0.0008
741.0044	0.0004
741.1816	0.0055
741.3588	0.0029
741.5359	0.0025
741.7131	-0
741.8902	0.0029
742.0673	-0.0007
742.2444	-0.0055
742.4214	-0.0052
742.5985	-0.0036
742.7755	-0.0031
742.9525	-0.0122
743.1295	0.0049
743.3064	0.0058
743.4834	0.0067
743.6603	0.0035
743.8372	-0.0071
744.0141	0.0107
744.191	0.0003
744.3678	0.005
744.5446	-0.0043
744.7215	0.0047
744.8982	-0.0072
745.075	-0.0059
745.2518	0.0037
745.4285	-0.0051
745.6052	0.0011
745.7819	-0.0082
745.9586	-0.006
746.1353	0.0009
746.3119	-0.003
746.4885	-0.0071
746.6651	-0.0057
746.8417	-0.0031
747.0183	-0.0013
747.1948	-0.0034
747.3714	-0.0006
747.5479	-0.0008
747.7244	-0.0036
747.9008	-0.0008
748.0773	0.0051
748.2537	-0.0024
748.4301	-0.0032
748.6065	0.0004
748.7829	0.0065
748.9593	-0.0021
749.1356	0.0062
749.3119	0.0134
749.4882	0
749.6645	0.0029
749.8408	-0.0052
750.017	-0.008
750.1933	-0.0006
750.3695	-0.0062
750.5457	0.0083
750.7218	-0.0021
750.898	-0.0004
751.0741	-0.0109
751.2502	-0.0126
751.4263	-0.0053
751.6024	0.0004
751.7784	-0.0099
751.9545	-0.0054
752.1305	0.0038
752.3065	-0.0089
752.4825	0.0094
752.6584	-0.009
752.8344	-0.0089
753.0103	-0.0121
753.1862	-0.0153
753.3621	-0.0069
753.5379	-0.0075
753.7138	-0.009
753.8896	-0.006
754.0654	-0.0002
754.2412	0.0028
754.417	-0.0012
754.5927	-0.0122
754.7685	-0.0085
754.9442	-0.0008
755.1199	0.0078
755.2956	-0.0017
755.4712	0.0074
755.6469	-0.0056
755.8225	-0.0072
755.9981	-0.0076
756.1736	-0.0004
756.3492	0.007
756.5248	-0.0031
756.7003	-0.0079
756.8758	0.0061
757.0513	-0.0095
757.2267	0.0014
757.4022	-0.0052
757.5776	-0.0045
757.753	0.0045
757.9284	0.0014
758.1038	0.0086
758.2791	0.0038
758.4545	-0.0158
758.6298	-0.0042
758.8051	-0.005
758.9803	-0.0064
759.1556	0.0023
759.3308	-0.0054
759.506	0.0165
759.6812	0.0027
759.8564	0.0018
760.0316	0.0081
760.2067	0.0146
760.3819	0.0068
760.557	0.0114
760.732	0.0003
760.9071	-0.0027
761.0821	-0.0021
761.2572	0.0092
761.4322	-0.0071
761.6072	0.0016
761.7821	0.007
761.9571	-0.0019
762.132	-0.0055
762.3069	0.0009
762.4818	-0.0028
762.6567	-0.0065
762.8316	-0.0061
763.0064	0.0079
763.1812	-0.0024
763.356	-0.0035
763.5308	-0.0067
763.7055	-0.0014
763.8803	0.0022
764.055	-0.0036
764.2297	0.001
764.4044	-0.0062
764.579	-0.0048
764.7537	-0.0115
764.9283	0.005
765.1029	-0.0038
765.2775	-0.0058
765.4521	-0.0042
765.6266	-0.0065
765.8011	-0.0072
765.9756	0.0019
766.1501	0.0034
766.3246	-0.0037
766.4991	-0.0044
766.6735	-0.0013
766.8479	-0.0066
767.0223	0.0118
767.1967	0.0019
767.371	0.0001
767.5454	-0.0037
767.7197	0.0024
767.894	-0.0032
768.0683	-0.0112
768.2425	0.0011
768.4168	-0.0014
768.591	0.0016
768.7652	-0.0052
768.9394	-0.0037
769.1135	0.0009
769.2877	0.0026
769.4618	-0.0027
769.6359	0.0009
769.81	-0.0085
769.984	0.0091
770.1581	-0.0179
770.3321	-0.0014
770.5061	-0.0107
770.6801	-0.0098
770.8541	0.0006
771.028	0.0128
771.202	-0.0073
771.3759	0.0111
771.5498	-0.0019
771.7236	0.0058
771.8975	0.0005
772.0713	0.0014
772.2451	0.0034
772.4189	0.0117
772.5927	0.017
772.7665	0.0063
772.9402	-0.001
773.1139	0.0059
773.2876	-0.0029
773.4613	0.0119
773.635	0.0121
773.8086	-0.0018
773.9822	0.0021
774.1558	0.0035
774.3294	-0.0135
774.503	-0.0124
774.6765	0.0071
774.8501	0.0015
775.0236	-0.0022
775.1971	0.0144
775.3705	-0.0129
775.544	0.0038
775.7174	-0.0052
775.8908	-0.0009
776.0642	0.0044
776.2376	0.0022
776.4109	-0.0009
776.5843	0.0056
776.7576	0.0134
776.9309	0.0184
777.1041	0.0109
777.2774	0.0194
777.4506	0.003
777.6238	-0.007
777.797	-0.0057
777.9702	-0.0062
778.1434	0.0072
778.3165	-0.0094
778.4896	-0.0035
778.6627	0.0154
778.8358	-0.0037
779.0089	0.0077
779.1819	0.001
779.3549	0.0169
779.5279	0.0089
779.7009	0.007
779.8739	0.0069
780.0468	-0.0011
780.2197	0.0121
780.3926	0.0031
780.5655	0.0026
780.7384	0.006
780.9112	-0.0022
781.0841	0.0026
781.2569	0.0061
781.4297	0.0118
781.6024	0.0132
781.7752	0.0172
781.9479	0.0181
782.1206	0.0091
782.2933	-0.0039
782.466	0.015
782.6386	0.001
782.8113	0.0105
782.9839	0.0041
783.1565	0.0113
783.329	0.0048
783.5016	0.0075
783.6741	0.0038
783.8466	-0.0043
784.0191	0.0188
784.1916	-0.0046
784.3641	0.0033
784.5365	0.0165
784.7089	-0.0006
784.8813	0.0063
785.0537	-0.0068
785.2261	-0.001
785.3984	-0.0025
785.5707	0.0068
785.743	0.0121
785.9153	-0.0113
786.0876	0.0075
786.2598	-0.0016
786.432	-0.0136
786.6042	0.0023
786.7764	0.0033
786.9486	0.0072
787.1207	-0.0092
787.2928	0.0058
787.4649	0.0069
787.637	0.0057
787.8091	-0.0034
787.9811	0.0005
788.1532	-0.005
788.3252	0.014
788.4972	-0.002
788.6691	0.0065
788.8411	-0.0047
789.013	-0.0064
789.1849	0.0069
789.3568	-0.0034
789.5287	0.0016
789.7005	0.0005
789.8723	-0.0044
790.0442	0.0063
790.2159	0.0041
790.3877	0.0054
790.5595	-0.0022
790.7312	0.0181
790.9029	0.0159
791.0746	-0.0073
791.2463	-0.0035
791.4179	0.0069
791.5896	-0.0053
791.7612	0.0076
791.9328	-0.0028
792.1044	-0.0063
792.2759	-0.0135
792.4474	-0.0146
792.619	0.0049
792.7905	0.0095
792.9619	0.0065
793.1334	0.0057
793.3048	-0.0029
793.4762	0.0109
793.6476	-0.0041
793.819	-0.0116
793.9904	0.0041
794.1617	-0.0095
794.333	-0.0105
794.5043	-0.0153
794.6756	0.0083
794.8469	-0.0043
795.0181	0.0072
795.1893	-0.0017
795.3605	-0.0031
795.5317	0.0005
795.7029	-0.0013
795.874	-0.0028
796.0452	-0.0033
796.2163	-0.0079
796.3873	0.0013
796.5584	-0.002
796.7294	-0.0071
796.9005	0.0084
797.0715	-0.0016
797.2425	-0.0108
797.4134	-0.0124
797.5844	-0.0022
797.7553	-0.0012
797.9262	-0.0002
798.0971	-0.008
798.2679	-0.0144
798.4388	-0.0111
798.6096	-0.0029
798.7804	0.0115
798.9512	-0.0149
799.122	-0.0014
799.2927	-0.0029
799.4635	-0.0093
799.6342	-0.012
799.8049	-0.0131
799.9755	-0.004
800.1462	0.0054
800.3168	0.0113
800.4874	-0.021
800.658	0.01
800.8286	0.0062
800.9991	0.0201
801.1696	-0.0061
801.3402	0.0118
801.5106	0.0098
801.6811	0.0067
801.8516	0.0121
802.022	-0.009
802.1924	0.0076
802.3628	0.0156
802.5332	0.0026
802.7035	0.0181
802.8739	-0.0005
803.0442	-0.0056
803.2145	0.0008
803.3847	-0.025
803.555	0.0057
803.7252	-0.0158
803.8954	-0.016
804.0656	-0.0188
804.2358	-0.0115
804.4059	-0.0084
804.5761	-0.0082
804.7462	0.0028
804.9163	-0.0059
805.0864	-0.0282
805.2564	0.0095
805.4264	0.0055
805.5965	-0.015
805.7665	0.0008
805.9364	0.0138
806.1064	0.0354
806.2763	0.0203
806.4462	0.0211
806.6161	0.0065
806.786	0.0143
806.9559	-0.0119
807.1257	-0.0129
807.2955	0.0134
807.4653	0.0122
807.6351	-0.0102
807.8048	0.0011
807.9746	0.0013
808.1443	0.008
808.314	0.0146
808.4837	-0.0005
808.6533	-0.0139
808.8229	0.0117
808.9926	-0.013
809.1622	0.0081
809.3317	-0.0182
809.5013	-0.0016
809.6708	0.0058
809.8403	0.0031
810.0098	0.0048
810.1793	0.0032
810.3488	0.0027
810.5182	-0.0058
810.6876	0.0017
810.857	-0.0122
811.0264	0.018
811.1958	0.0077
811.3651	0.0007
811.5344	-0.0064
811.7037	0.0108
811.873	0.0048
812.0422	0.0033
812.2115	-0.0149
812.3807	-0.0086
812.5499	0.0034
812.7191	-0.002
812.8882	-0.022
813.0574	-0.005
813.2265	0.0129
813.3956	-0.0039
813.5646	-0.0001
813.7337	-0.005
813.9027	0.019
814.0718	0.0183
814.2407	0.0262
814.4097	-0.0176
814.5787	-0.0214
814.7476	-0.0074
814.9165	0.0092
815.0854	-0.0045
815.2543	0.0116
815.4232	-0.004
815.592	0.0191
815.7608	0.0044
815.9296	0.0139
816.0984	0.0191
816.2671	0.0053
816.4359	-0.0076
816.6046	-0.0029
816.7733	-0.001
816.942	-0.0198
817.1106	-0.0221
817.2793	0.0081
817.4479	-0.0019
817.6165	0.0164
817.785	-0.0082
817.9536	-0.0105
818.1221	-0.0193
818.2906	-0.0004
818.4591	0.0028
818.6276	-0.0111
818.7961	-0.0093
818.9645	0.0154
819.1329	0.0114
819.3013	0.015
819.4697	0.0299
819.638	-0.0116
819.8064	0.024
819.9747	0.0209
820.143	0.002
820.3113	0.0024
820.4795	0.0044
820.6477	0.0142
820.816	-0.0001
820.9842	-0.0041
821.1523	-0.042
821.3205	-0.0148
821.4886	-0.0171
821.6567	-0.0163
821.8248	0.0146
821.9929	-0.0011
822.1609	0.0156
822.329	0.0093
822.497	-0.0005
822.665	-0.0037
822.833	-0.0089
823.0009	0.0326
823.1688	0.0282
823.3367	0.0155
823.5046	0.0174
823.6725	0.0311
823.8404	-0.0064
824.0082	-0.0056
824.176	0.0062
824.3438	0.0035
824.5116	0.007
824.6793	-0.0178
824.847	-0.0293
825.0147	-0.0177
825.1824	0.0128
825.3501	0.0209
825.5177	-0.0226
825.6854	-0.0057
825.853	0.0156
826.0206	-0.0075
826.1881	0.013
826.3557	-0.0159
826.5232	0.0235
826.6907	-0.0251
826.8582	-0.0046
827.0257	-0.0204
827.1931	-0.0104
827.3605	-0.0225
827.528	0.0017
827.6953	-0.0024
827.8627	0.0045
828.03	0.0475
828.1974	0.0185
828.3647	-0.0358
828.532	-0.0213
828.6992	-0.0142
828.8665	0.0169
829.0337	0.0253
829.2009	0.0069
829.3681	0.0112
829.5352	0.0088
829.7024	-0.0212
829.8695	-0.032
830.0366	0.0411
830.2037	-0.0027
830.3707	0.0205
830.5378	-0.019
830.7048	-0.0013
830.8718	-0.0406
831.0388	-0.0464
831.2057	0.0068
831.3727	0.0356
831.5396	-0.0293
831.7065	-0.0381
831.8734	-0.0202
832.0402	-0.0356
832.2071	-0.0052
832.3739	0.0022
832.5407	-0.0067
832.7075	-0.0033
832.8742	-0.0269
833.041	-0.0366
833.2077	-0.0026
833.3744	0.0034
833.541	-0.041
833.7077	-0.0064
833.8743	-0.0384
834.0409	-0.0181
834.2075	-0.0059
834.3741	-0.0396
834.5407	-0.0059
834.7072	-0.0109
834.8737	-0.0266
835.0402	-0.0412
835.2067	0.0228
835.3731	0.0011
835.5395	0.0154
835.706	0.0122
835.8723	-0.0281
836.0387	0.0149
836.2051	-0.0444
836.3714	0.0251
836.5377	0.0187
836.704	0.0069
836.8703	0.0067
837.0365	0.0079
837.2027	-0.0238
837.3689	0.0169
837.5351	-0.001
837.7013	-0.0128
837.8674	-0.0081
838.0335	-0.074
838.1997	-0.0107
838.3657	-0.0406
838.5318	-0.0132
838.6978	0.0019
838.8639	0.011
839.0299	0.0146
839.1958	-0.0065
839.3618	-0.0276
839.5277	-0.0088
839.6937	0.0579
839.8596	-0.0039
840.0254	-0.0228
840.1913	0.0157
840.3571	0.0203
840.523	-0.0483
840.6888	-0.0482
840.8545	0.0094
841.0203	-0.0183
841.186	-0.0154
841.3517	0.0133
841.5174	-0.0098
841.6831	-0.039
841.8488	0.0199
842.0144	0.0572
842.18	0.0366
842.3456	0.0016
842.5112	-0.0474
842.6767	0.0229
842.8422	0.005
843.0077	-0.0704
843.1732	-0.0197
843.3387	0.0253
843.5042	-0.0642
843.6696	-0.0076
843.835	-0.0245
844.0004	0.0544
844.1657	-0.0486
844.3311	-0.0686
844.4964	-0.0869
844.6617	0.0019
844.827	-0.0274
844.9923	-0.065
845.1575	-0.0004
845.3227	-0.0218
845.4879	-0.0169
845.6531	-0.058
845.8183	-0.1186
845.9834	-0.0431
846.1485	-0.0111
846.3136	-0.0585
846.4787	-0.0988
846.6438	0.033
846.8088	-0.0307
846.9738	-0.1067
847.1388	-0.0264
847.3038	-0.0395
847.4687	-0.1667
847.6337	-0.0231
847.7986	0.0036
847.9635	-0.0709
848.1284	0.0486
848.2932	0.0571
848.458	0.0479
848.6228	0.0402
848.7876	0.0023
848.9524	-0.057
849.1172	-0.0714
849.2819	-0.0196
849.4466	-0.1267
849.6113	-0.0029
849.7759	-0.0007
849.9406	-0.0141
850.1052	0.0584
850.2698	-0.0387
850.4344	-0.018
850.599	-0.0698
850.7635	0.0191
850.928	0.0273
851.0925	0.015
851.257	0.0382
851.4215	0.0574
851.5859	-0.06
851.7503	0.0183
851.9147	0.0128
852.0791	-0.0927
852.2434	-0.0044
852.4078	-0.0215
852.5721	0.04
852.7364	-0.0684
852.9007	-0.1717
853.0649	0.0013
853.2291	0.0328
853.3934	-0.0569
853.5575	0.0251
853.7217	-0.0903
853.8859	-0.0586
854.05	-0.1182
854.2141	-0.0333
854.3782	-0.1339
854.5423	0.0044
854.7063	0.1545
854.8703	0.0188
855.0343	-0.0624
855.1983	-0.0935
855.3623	0.2199
855.5262	-0.0117
855.6901	-0.1081
855.854	-0.0129
856.0179	0.1671
856.1818	-0.0581
856.3456	-0.1136
856.5094	-0.1187
856.6732	-0.0854
856.837	-0.019
857.0008	-0.0873
857.1645	-0.0603
857.3282	-0.1448
857.4919	0.0947
857.6556	-0.1186
857.8192	0.0089
857.9828	-0.0591
858.1465	-0.1139
858.31	-0.189
858.4736	-0.0295
858.6372	-0.1487
858.8007	-0.2782
858.9642	0.0892
859.1277	-0.153
859.2911	0.0031
859.4546	0.0316
859.618	-0.2593
859.7814	-0.0365
859.9448	-0.0347
860.1081	-0.096
860.2715	0.0964
860.4348	0.0253
860.5981	0.0226
860.7614	-0.0193
860.9246	-0.286
861.0879	-0.1606
861.2511	-0.0364
861.4143	-0.1743
861.5774	0.2302
861.7406	-0.4323
861.9037	0.1718
862.0668	-0.2092
862.2299	-0.1961
862.393	-0.5355
862.556	-0.1222
862.7191	-0.3078
862.8821	-0.2193
863.0451	0.1784
863.208	-0.056
863.371	0.0455
863.5339	-0.2726
863.6968	0.0236
863.8597	-0.2603
864.0225	-0.2513
864.1854	-0.0291
864.3482	-0.1619
864.511	0.2931
864.6737	0.1923
864.8365	-0.0957
864.9992	-0.7886
865.1619	-0.525
865.3246	0.0563
865.4873	-0.1058
865.65	0.0104
865.8126	-0.0746
865.9752	0.0437
866.1378	-0.2774
866.3004	-0
866.4629	0.2297
866.6254	0.0091
866.7879	-0.1341
866.9504	-0.1719
867.1129	-0
867.2753	0.099
867.4377	0.3193
867.6001	-0.4203
867.7625	0.0734
867.9249	-0.6846
868.0872	0.115
868.2495	-0.0196
868.4118	-0.3731
868.5741	-0.6591
868.7363	-0.3514
868.8986	-0.5503
869.0608	-0.1855
869.223	0.2546
869.3851	-0
869.5473	-0
869.7094	0.1757
869.8715	-0
870.0336	-0
870.1957	-0.4626
870.3577	-0
870.5197	-0.1353
870.6817	-0.3945
870.8437	0.1283
871.0057	-0.746
871.1676	-0.5047
871.3295	-0.3148
871.4914	-0.5829
871.6533	-0.1739
871.8151	0.0183
871.977	-0
872.1388	0.1507
872.3006	-0
872.4623	-0
872.6241	2.01
872.7858	-0
872.9475	-0.0973
873.1092	0.0544
873.2709	-0
873.4325	-0.1657
873.5941	-0.741
873.7557	-0
873.9173	0.1536
874.0789	-0.5487
874.2404	-0.6145
874.4019	-0.0799
874.5634	-0.2692
874.7249	-0.0935
874.8863	0.1231
875.0478	1.8939
875.2092	-0
875.3706	0.0828
875.5319	-0.2162
875.6933	-0.1397
875.8546	0.0395
876.0159	-0
876.1772	0.005
876.3385	-0
876.4997	0.023
876.6609	-0.2694
876.8221	-0.2083
876.9833	-0
877.1445	-0
877.3056	0.2677
877.4667	-0.5096
877.6278	-0
877.7889	-0.6558
877.9499	-0
878.111	0.06
878.272	-0
878.433	-0
878.5939	-0
878.7549	-0.0997
878.9158	-0.9986
879.0767	-0
879.2376	0.2067
879.3984	0.1353
879.5593	-0
879.7201	0.06
879.8809	-0.7449
880.0417	-0.5393
880.2024	0.4492
880.3632	-0
880.5239	0.2218
880.6846	0.6585
880.8452	-2.3747
881.0059	-0.8921
881.1665	0.4936
881.3271	0.0411
881.4877	-0.6508
881.6483	-0.466
881.8088	-0.3227
881.9693	-0
882.1298	-0
882.2903	-0
