Data from MonoPyChalIsomerACN10uM340nmA_Absorbance_14-14-18-864.txt Node
Date: Fri Jul 05 14:14:18 BST 2024
User: LASERRRRR
Spectrometer: FLMT03099
Trigger mode: 0
Integration Time (sec): 1.000000E-1
Scans to average: 1
Electric dark correction enabled: true
Nonlinearity correction enabled: false
Boxcar width: 0
XAxis mode: Wavelengths
Number of Pixels in Spectrum: 3648
>>>>>Begin Spectral Data<<<<<
179.3399	0.0142
179.5586	0.0142
179.7771	0.0142
179.9957	-0
180.2143	-0
180.4329	0.4466
180.6514	0.1125
180.8699	-0
181.0885	-0.4004
181.307	0.2884
181.5255	-0
181.744	-0
181.9625	-0
182.181	-0.7434
182.3994	0.5365
182.6179	-0
182.8363	-0
183.0547	1.4649
183.2732	-0.1391
183.4916	0.1996
183.71	0.0822
183.9284	0.3673
184.1467	-0.2359
184.3651	0.0104
184.5835	-0.0739
184.8018	0.2483
185.0201	0.0526
185.2385	0.061
185.4568	-0.0131
185.6751	0.0435
185.8934	0.1243
186.1117	-0.1417
186.3299	0.1417
186.5482	0.2393
186.7664	-0.1229
186.9847	-0.0172
187.2029	-0.0091
187.4211	-0.0211
187.6393	0.0634
187.8575	-0.1088
188.0757	0.1274
188.2939	0.2415
188.512	-0.0516
188.7302	0.001
188.9483	0.0412
189.1665	-0.0086
189.3846	-0.1907
189.6027	0.288
189.8208	0.1466
190.0389	0.0466
190.257	-0.0112
190.475	0.1344
190.6931	0.2246
190.9111	0.4442
191.1292	0.1199
191.3472	0.6438
191.5652	0.169
191.7832	0.1397
192.0012	0.3919
192.2192	0.2464
192.4371	0.4406
192.6551	0.2581
192.873	0.3697
193.091	0.2521
193.3089	0.4214
193.5268	0.4015
193.7447	0.5827
193.9626	0.4026
194.1805	0.5407
194.3984	0.6701
194.6162	0.4067
194.8341	0.5685
195.0519	0.442
195.2697	0.7608
195.4875	0.7563
195.7054	0.5877
195.9231	0.4372
196.1409	0.6341
196.3587	0.6012
196.5765	0.4967
196.7942	0.5353
197.012	0.5869
197.2297	0.6318
197.4474	0.5321
197.6651	0.5173
197.8828	0.4372
198.1005	0.4086
198.3182	0.4866
198.5358	0.6838
198.7535	0.5181
198.9711	0.5285
199.1888	0.6632
199.4064	0.7161
199.624	0.541
199.8416	0.4874
200.0592	0.6022
200.2767	0.6035
200.4943	0.6614
200.7119	0.6611
200.9294	0.5977
201.1469	0.5671
201.3645	0.5288
201.582	0.5467
201.7995	0.6829
202.017	0.654
202.2344	0.569
202.4519	0.7444
202.6694	0.5998
202.8868	0.5396
203.1042	0.7168
203.3217	0.8396
203.5391	0.6354
203.7565	0.6505
203.9739	0.5944
204.1913	0.5177
204.4086	0.6326
204.626	0.6116
204.8433	0.6346
205.0607	0.5263
205.278	0.6101
205.4953	0.6318
205.7126	0.6053
205.9299	0.6936
206.1472	0.7404
206.3644	0.5516
206.5817	0.6586
206.7989	0.6434
207.0162	0.5975
207.2334	0.6559
207.4506	0.5995
207.6678	0.6374
207.885	0.568
208.1022	0.5587
208.3194	0.6503
208.5365	0.6101
208.7537	0.6293
208.9708	0.6129
209.1879	0.6043
209.405	0.6752
209.6222	0.6866
209.8392	0.6028
210.0563	0.5833
210.2734	0.6534
210.4905	0.6237
210.7075	0.6137
210.9245	0.5629
211.1416	0.6218
211.3586	0.631
211.5756	0.5957
211.7926	0.5906
212.0096	0.5707
212.2265	0.5064
212.4435	0.5811
212.6604	0.5384
212.8774	0.5625
213.0943	0.5838
213.3112	0.5007
213.5281	0.5378
213.745	0.4984
213.9619	0.4872
214.1788	0.4755
214.3956	0.4471
214.6125	0.4556
214.8293	0.4155
215.0461	0.4727
215.2629	0.4189
215.4798	0.4558
215.6965	0.4155
215.9133	0.413
216.1301	0.4242
216.3469	0.4315
216.5636	0.3845
216.7803	0.4022
216.9971	0.3792
217.2138	0.3432
217.4305	0.3823
217.6472	0.3424
217.8639	0.3857
218.0805	0.3411
218.2972	0.3313
218.5138	0.3218
218.7305	0.3307
218.9471	0.2832
219.1637	0.2993
219.3803	0.2713
219.5969	0.2747
219.8135	0.2539
220.0301	0.268
220.2466	0.2596
220.4632	0.2529
220.6797	0.2239
220.8962	0.2229
221.1127	0.2663
221.3292	0.2201
221.5457	0.2316
221.7622	0.251
221.9787	0.2726
222.1951	0.2307
222.4116	0.261
222.628	0.2515
222.8444	0.2633
223.0608	0.2563
223.2772	0.2428
223.4936	0.2607
223.71	0.245
223.9264	0.2587
224.1427	0.2569
224.3591	0.2475
224.5754	0.2666
224.7917	0.2554
225.008	0.2846
225.2243	0.2647
225.4406	0.2844
225.6569	0.2642
225.8732	0.2611
226.0894	0.2628
226.3057	0.2766
226.5219	0.2865
226.7381	0.2706
226.9543	0.2768
227.1705	0.291
227.3867	0.2794
227.6029	0.3008
227.8191	0.291
228.0352	0.2927
228.2513	0.3178
228.4675	0.3064
228.6836	0.3067
228.8997	0.2816
229.1158	0.3034
229.3319	0.2985
229.548	0.3
229.764	0.3169
229.9801	0.3145
230.1961	0.3355
230.4121	0.3278
230.6282	0.3348
230.8442	0.3127
231.0602	0.3541
231.2761	0.338
231.4921	0.3466
231.7081	0.3362
231.924	0.353
232.14	0.3622
232.3559	0.3393
232.5718	0.3432
232.7877	0.3547
233.0036	0.3191
233.2195	0.3564
233.4353	0.3488
233.6512	0.3534
233.867	0.3697
234.0829	0.353
234.2987	0.3642
234.5145	0.3868
234.7303	0.3702
234.9461	0.3962
235.1619	0.3697
235.3776	0.3872
235.5934	0.3725
235.8091	0.3556
236.0249	0.3779
236.2406	0.3817
236.4563	0.3881
236.672	0.3898
236.8877	0.3979
237.1034	0.4051
237.319	0.3955
237.5347	0.3985
237.7503	0.4052
237.966	0.4134
238.1816	0.4021
238.3972	0.3972
238.6128	0.3924
238.8284	0.4187
239.0439	0.3984
239.2595	0.3961
239.475	0.4015
239.6906	0.3984
239.9061	0.4086
240.1216	0.4001
240.3371	0.3868
240.5526	0.3902
240.7681	0.4083
240.9836	0.3936
241.199	0.4006
241.4145	0.3869
241.6299	0.3715
241.8453	0.3942
242.0607	0.3756
242.2761	0.3599
242.4915	0.369
242.7069	0.3671
242.9223	0.3684
243.1376	0.3375
243.353	0.3302
243.5683	0.3399
243.7836	0.3342
243.9989	0.3259
244.2142	0.306
244.4295	0.3199
244.6448	0.2934
244.86	0.2957
245.0753	0.2852
245.2905	0.2873
245.5057	0.2665
245.721	0.2764
245.9362	0.2638
246.1514	0.2633
246.3665	0.2552
246.5817	0.2516
246.7969	0.2469
247.012	0.2385
247.2271	0.2305
247.4423	0.2435
247.6574	0.2345
247.8725	0.2297
248.0876	0.2147
248.3026	0.2163
248.5177	0.2169
248.7328	0.212
248.9478	0.2128
249.1628	0.214
249.3779	0.2135
249.5929	0.2108
249.8079	0.211
250.0228	0.1928
250.2378	0.1959
250.4528	0.217
250.6677	0.1829
250.8827	0.184
251.0976	0.1875
251.3125	0.1924
251.5274	0.1716
251.7423	0.182
251.9572	0.1786
252.172	0.1798
252.3869	0.1836
252.6017	0.1777
252.8166	0.1666
253.0314	0.1607
253.2462	0.1859
253.461	0.1847
253.6758	0.1712
253.8906	0.1749
254.1053	0.1718
254.3201	0.1555
254.5348	0.1772
254.7496	0.1863
254.9643	0.1642
255.179	0.1623
255.3937	0.1798
255.6083	0.1662
255.823	0.1781
256.0377	0.1647
256.2523	0.1595
256.467	0.1484
256.6816	0.1664
256.8962	0.1645
257.1108	0.1562
257.3254	0.164
257.54	0.1587
257.7545	0.1561
257.9691	0.1716
258.1836	0.1513
258.3981	0.1709
258.6127	0.1739
258.8272	0.1626
259.0417	0.1545
259.2561	0.1616
259.4706	0.1628
259.6851	0.1586
259.8995	0.1625
260.114	0.1561
260.3284	0.1641
260.5428	0.1523
260.7572	0.1671
260.9716	0.1614
261.186	0.1554
261.4003	0.1648
261.6147	0.1634
261.829	0.1696
262.0433	0.167
262.2577	0.1643
262.472	0.1648
262.6863	0.1484
262.9005	0.1712
263.1148	0.1556
263.3291	0.1534
263.5433	0.1571
263.7576	0.1651
263.9718	0.156
264.186	0.1547
264.4002	0.1596
264.6144	0.1625
264.8286	0.167
265.0427	0.1646
265.2569	0.1613
265.471	0.1423
265.6851	0.1571
265.8993	0.1487
266.1134	0.143
266.3275	0.1627
266.5415	0.1573
266.7556	0.1688
266.9697	0.1618
267.1837	0.1555
267.3978	0.1612
267.6118	0.1621
267.8258	0.1771
268.0398	0.1526
268.2538	0.1588
268.4677	0.1643
268.6817	0.1544
268.8957	0.1615
269.1096	0.1607
269.3235	0.1562
269.5374	0.1375
269.7514	0.143
269.9652	0.1507
270.1791	0.1469
270.393	0.1358
270.6068	0.1505
270.8207	0.1434
271.0345	0.1366
271.2483	0.1473
271.4622	0.1428
271.676	0.1476
271.8897	0.1269
272.1035	0.1429
272.3173	0.1348
272.531	0.142
272.7448	0.1331
272.9585	0.138
273.1722	0.1355
273.3859	0.1441
273.5996	0.1377
273.8133	0.1549
274.0269	0.1298
274.2406	0.1285
274.4542	0.1472
274.6679	0.1311
274.8815	0.1408
275.0951	0.1465
275.3087	0.1404
275.5223	0.1574
275.7358	0.1443
275.9494	0.1437
276.1629	0.1334
276.3765	0.137
276.59	0.1426
276.8035	0.141
277.017	0.1239
277.2305	0.1365
277.444	0.147
277.6574	0.131
277.8709	0.1413
278.0843	0.145
278.2978	0.1412
278.5112	0.1436
278.7246	0.1319
278.938	0.1377
279.1513	0.1541
279.3647	0.1454
279.5781	0.1473
279.7914	0.1542
280.0047	0.1431
280.2181	0.1406
280.4314	0.1528
280.6447	0.1426
280.8579	0.1413
281.0712	0.1569
281.2845	0.1615
281.4977	0.1426
281.711	0.1451
281.9242	0.1389
282.1374	0.1428
282.3506	0.146
282.5638	0.1553
282.7769	0.1481
282.9901	0.1435
283.2033	0.1587
283.4164	0.158
283.6295	0.1489
283.8426	0.1463
284.0557	0.1395
284.2688	0.1497
284.4819	0.1509
284.695	0.145
284.908	0.1485
285.1211	0.1339
285.3341	0.1439
285.5471	0.1583
285.7601	0.1512
285.9731	0.155
286.1861	0.1536
286.3991	0.1718
286.612	0.1702
286.825	0.1724
287.0379	0.1576
287.2508	0.1459
287.4637	0.1644
287.6766	0.1405
287.8895	0.1656
288.1024	0.1763
288.3152	0.1562
288.5281	0.1644
288.7409	0.1561
288.9538	0.157
289.1666	0.1638
289.3794	0.1655
289.5922	0.1602
289.8049	0.1626
290.0177	0.1657
290.2304	0.1589
290.4432	0.1725
290.6559	0.1582
290.8686	0.1769
291.0813	0.1637
291.294	0.1659
291.5067	0.1702
291.7194	0.1513
291.932	0.1714
292.1447	0.1666
292.3573	0.1588
292.5699	0.162
292.7825	0.1546
292.9951	0.1628
293.2077	0.1618
293.4203	0.1711
293.6328	0.1603
293.8454	0.1684
294.0579	0.1642
294.2704	0.1736
294.4829	0.1731
294.6954	0.1659
294.9079	0.1596
295.1204	0.1592
295.3328	0.1485
295.5453	0.1662
295.7577	0.1615
295.9701	0.1721
296.1825	0.1773
296.3949	0.1671
296.6073	0.1592
296.8197	0.156
297.0321	0.1767
297.2444	0.1541
297.4567	0.1709
297.6691	0.1675
297.8814	0.1586
298.0937	0.144
298.306	0.1756
298.5182	0.1692
298.7305	0.1688
298.9428	0.1563
299.155	0.1602
299.3672	0.1614
299.5794	0.16
299.7916	0.1544
300.0038	0.1644
300.216	0.1634
300.4282	0.1651
300.6403	0.1627
300.8525	0.1782
301.0646	0.1544
301.2767	0.1648
301.4888	0.1572
301.7009	0.1679
301.913	0.1603
302.125	0.1607
302.3371	0.1555
302.5491	0.1537
302.7612	0.1735
302.9732	0.1666
303.1852	0.1641
303.3972	0.1732
303.6092	0.1619
303.8211	0.1521
304.0331	0.1508
304.245	0.1515
304.457	0.1478
304.6689	0.1527
304.8808	0.1592
305.0927	0.142
305.3046	0.1561
305.5164	0.158
305.7283	0.1414
305.9401	0.1448
306.152	0.1499
306.3638	0.1448
306.5756	0.1432
306.7874	0.1325
306.9992	0.1423
307.2109	0.138
307.4227	0.1303
307.6344	0.1471
307.8462	0.1384
308.0579	0.135
308.2696	0.1278
308.4813	0.124
308.693	0.1326
308.9046	0.1339
309.1163	0.1215
309.328	0.1236
309.5396	0.1241
309.7512	0.1245
309.9628	0.1175
310.1744	0.1189
310.386	0.1204
310.5976	0.1152
310.8091	0.1236
311.0207	0.1183
311.2322	0.1168
311.4437	0.0977
311.6552	0.1032
311.8667	0.1147
312.0782	0.0876
312.2897	0.1045
312.5012	0.1176
312.7126	0.0983
312.924	0.0948
313.1355	0.1086
313.3469	0.0984
313.5583	0.1053
313.7696	0.1057
313.981	0.0963
314.1924	0.1032
314.4037	0.0894
314.6151	0.1014
314.8264	0.0979
315.0377	0.0884
315.249	0.1034
315.4603	0.0973
315.6716	0.101
315.8828	0.091
316.0941	0.0909
316.3053	0.0974
316.5165	0.0916
316.7277	0.0831
316.9389	0.0989
317.1501	0.0939
317.3613	0.1042
317.5724	0.0819
317.7836	0.0982
317.9947	0.0879
318.2058	0.0868
318.417	0.0726
318.6281	0.0771
318.8391	0.0887
319.0502	0.0848
319.2613	0.096
319.4723	0.1003
319.6834	0.092
319.8944	0.0859
320.1054	0.0893
320.3164	0.0957
320.5274	0.0845
320.7383	0.0916
320.9493	0.0964
321.1602	0.1083
321.3712	0.0789
321.5821	0.0979
321.793	0.0958
322.0039	0.0965
322.2148	0.0896
322.4257	0.0956
322.6365	0.1052
322.8474	0.0933
323.0582	0.089
323.269	0.0994
323.4798	0.11
323.6906	0.0986
323.9014	0.0987
324.1122	0.0943
324.3229	0.0875
324.5337	0.1019
324.7444	0.0825
324.9551	0.1041
325.1658	0.1046
325.3765	0.1005
325.5872	0.0912
325.7979	0.0886
326.0085	0.1015
326.2192	0.1024
326.4298	0.0966
326.6404	0.083
326.851	0.0803
327.0616	0.0891
327.2722	0.0953
327.4828	0.1133
327.6933	0.0932
327.9039	0.1119
328.1144	0.1056
328.3249	0.0893
328.5354	0.0915
328.7459	0.0973
328.9564	0.0814
329.1669	0.0981
329.3773	0.0979
329.5878	0.1014
329.7982	0.0945
330.0086	0.0852
330.219	0.1021
330.4294	0.0943
330.6398	0.0931
330.8502	0.0846
331.0605	0.0993
331.2708	0.0952
331.4812	0.109
331.6915	0.0996
331.9018	0.109
332.1121	0.0974
332.3224	0.102
332.5326	0.1123
332.7429	0.1031
332.9531	0.1126
333.1633	0.1002
333.3735	0.1049
333.5837	0.1064
333.7939	0.102
334.0041	0.1124
334.2143	0.1005
334.4244	0.0974
334.6346	0.0826
334.8447	0.1079
335.0548	0.1062
335.2649	0.0868
335.475	0.1047
335.685	0.0999
335.8951	0.0997
336.1051	0.0918
336.3152	0.1205
336.5252	0.1114
336.7352	0.1166
336.9452	0.1136
337.1552	0.1034
337.3652	0.099
337.5751	0.1083
337.7851	0.1189
337.995	0.0988
338.2049	0.1157
338.4148	0.1096
338.6247	0.1126
338.8346	0.1077
339.0445	0.0954
339.2543	0.1038
339.4642	0.1072
339.674	0.0843
339.8838	0.1052
340.0936	0.0953
340.3034	0.1147
340.5132	0.1052
340.7229	0.1115
340.9327	0.1069
341.1424	0.1136
341.3522	0.1277
341.5619	0.1109
341.7716	0.115
341.9813	0.1118
342.1909	0.1147
342.4006	0.1325
342.6102	0.1185
342.8199	0.1177
343.0295	0.1124
343.2391	0.1251
343.4487	0.1236
343.6583	0.1165
343.8679	0.1096
344.0774	0.122
344.287	0.118
344.4965	0.126
344.706	0.1119
344.9155	0.1214
345.125	0.1171
345.3345	0.1345
345.544	0.1189
345.7534	0.1147
345.9629	0.1127
346.1723	0.111
346.3817	0.112
346.5911	0.1189
346.8005	0.1157
347.0099	0.1203
347.2193	0.1247
347.4286	0.1262
347.638	0.1321
347.8473	0.1258
348.0566	0.1362
348.2659	0.1288
348.4752	0.1271
348.6845	0.1195
348.8937	0.1245
349.103	0.1399
349.3122	0.1206
349.5214	0.1279
349.7306	0.1413
349.9398	0.1217
350.149	0.1279
350.3582	0.1273
350.5674	0.1366
350.7765	0.1335
350.9856	0.131
351.1948	0.1263
351.4039	0.1222
351.613	0.1321
351.822	0.1586
352.0311	0.1357
352.2402	0.1387
352.4492	0.1461
352.6582	0.1491
352.8672	0.1388
353.0762	0.1363
353.2852	0.134
353.4942	0.1309
353.7032	0.1451
353.9121	0.1352
354.1211	0.1586
354.33	0.1468
354.5389	0.1465
354.7478	0.1488
354.9567	0.1459
355.1655	0.1426
355.3744	0.1615
355.5833	0.1478
355.7921	0.1671
356.0009	0.145
356.2097	0.1561
356.4185	0.1656
356.6273	0.1552
356.8361	0.1514
357.0448	0.1551
357.2536	0.1466
357.4623	0.1519
357.671	0.1502
357.8797	0.1559
358.0884	0.1571
358.2971	0.1639
358.5057	0.1712
358.7144	0.1695
358.923	0.1581
359.1316	0.1663
359.3402	0.162
359.5488	0.1621
359.7574	0.1531
359.966	0.1786
360.1746	0.1673
360.3831	0.1698
360.5916	0.1697
360.8002	0.1539
361.0087	0.1708
361.2172	0.1702
361.4256	0.1742
361.6341	0.1788
361.8426	0.1744
362.051	0.1759
362.2594	0.1826
362.4678	0.1876
362.6762	0.1994
362.8846	0.1836
363.093	0.1661
363.3014	0.1852
363.5097	0.1756
363.718	0.1842
363.9264	0.1858
364.1347	0.1655
364.343	0.2039
364.5513	0.1964
364.7595	0.1998
364.9678	0.202
365.176	0.2018
365.3842	0.1944
365.5925	0.1896
365.8007	0.1941
366.0089	0.1802
366.217	0.1837
366.4252	0.1946
366.6333	0.1994
366.8415	0.1964
367.0496	0.175
367.2577	0.2164
367.4658	0.21
367.6739	0.1965
367.882	0.2214
368.09	0.1945
368.2981	0.2118
368.5061	0.1973
368.7141	0.2153
368.9221	0.2178
369.1301	0.2103
369.3381	0.2167
369.5461	0.2139
369.754	0.2197
369.962	0.2247
370.1699	0.2126
370.3778	0.2244
370.5857	0.1978
370.7936	0.2135
371.0015	0.2253
371.2093	0.2195
371.4172	0.2162
371.625	0.2002
371.8328	0.2218
372.0406	0.2222
372.2484	0.2192
372.4562	0.2334
372.664	0.2162
372.8717	0.2373
373.0795	0.2044
373.2872	0.2253
373.4949	0.2297
373.7026	0.2167
373.9103	0.2362
374.118	0.2389
374.3256	0.2233
374.5333	0.228
374.7409	0.2157
374.9485	0.231
375.1561	0.2488
375.3637	0.2227
375.5713	0.2423
375.7789	0.2304
375.9864	0.2399
376.194	0.2233
376.4015	0.2367
376.609	0.2516
376.8165	0.2248
377.024	0.2332
377.2315	0.2322
377.4389	0.241
377.6464	0.2444
377.8538	0.2544
378.0612	0.241
378.2686	0.2459
378.476	0.2546
378.6834	0.2288
378.8908	0.2581
379.0981	0.2428
379.3055	0.2566
379.5128	0.2474
379.7201	0.2507
379.9274	0.2321
380.1347	0.2407
380.342	0.2433
380.5492	0.2456
380.7565	0.2469
380.9637	0.2424
381.1709	0.242
381.3781	0.2649
381.5853	0.2565
381.7925	0.2519
381.9997	0.2569
382.2068	0.2847
382.4139	0.2523
382.6211	0.2375
382.8282	0.247
383.0353	0.2411
383.2424	0.2602
383.4494	0.2687
383.6565	0.2501
383.8635	0.2553
384.0706	0.2577
384.2776	0.2701
384.4846	0.2453
384.6916	0.254
384.8986	0.263
385.1055	0.2547
385.3125	0.2555
385.5194	0.2476
385.7263	0.2801
385.9333	0.2548
386.1402	0.2665
386.347	0.2689
386.5539	0.2547
386.7608	0.2766
386.9676	0.2444
387.1744	0.2667
387.3813	0.2286
387.5881	0.2696
387.7948	0.2622
388.0016	0.2448
388.2084	0.2515
388.4151	0.2615
388.6219	0.2573
388.8286	0.2558
389.0353	0.2639
389.242	0.2649
389.4487	0.2449
389.6553	0.225
389.862	0.2403
390.0686	0.2285
390.2753	0.2592
390.4819	0.2399
390.6885	0.2632
390.8951	0.2372
391.1016	0.2435
391.3082	0.2447
391.5147	0.2481
391.7213	0.2341
391.9278	0.2217
392.1343	0.2379
392.3408	0.2377
392.5473	0.2373
392.7537	0.2428
392.9602	0.2356
393.1666	0.2309
393.373	0.2314
393.5794	0.2414
393.7858	0.2318
393.9922	0.2276
394.1986	0.2296
394.4049	0.229
394.6113	0.2261
394.8176	0.2123
395.0239	0.2251
395.2302	0.2222
395.4365	0.2355
395.6428	0.2283
395.8491	0.2246
396.0553	0.2319
396.2615	0.2209
396.4678	0.2189
396.674	0.2273
396.8802	0.2206
397.0863	0.2352
397.2925	0.2258
397.4987	0.223
397.7048	0.2174
397.9109	0.217
398.117	0.2148
398.3231	0.2162
398.5292	0.2319
398.7353	0.2258
398.9413	0.2205
399.1474	0.2227
399.3534	0.2134
399.5594	0.2051
399.7654	0.2338
399.9714	0.2177
400.1774	0.2091
400.3833	0.1951
400.5893	0.2085
400.7952	0.2244
401.0011	0.2168
401.207	0.2146
401.4129	0.2234
401.6188	0.212
401.8247	0.2114
402.0305	0.2166
402.2364	0.231
402.4422	0.2206
402.648	0.2106
402.8538	0.2358
403.0596	0.2039
403.2654	0.2284
403.4711	0.2256
403.6768	0.2275
403.8826	0.2173
404.0883	0.2285
404.294	0.2295
404.4997	0.2192
404.7054	0.2075
404.911	0.2068
405.1167	0.2097
405.3223	0.2325
405.5279	0.2335
405.7335	0.2066
405.9391	0.2394
406.1447	0.2103
406.3502	0.2267
406.5558	0.2102
406.7613	0.2261
406.9668	0.2057
407.1724	0.2189
407.3778	0.2084
407.5833	0.2034
407.7888	0.2258
407.9942	0.2463
408.1997	0.2067
408.4051	0.2113
408.6105	0.2214
408.8159	0.2064
409.0213	0.2121
409.2267	0.2249
409.432	0.2324
409.6374	0.2243
409.8427	0.2231
410.048	0.2138
410.2533	0.2142
410.4586	0.208
410.6639	0.2021
410.8691	0.2082
411.0744	0.2059
411.2796	0.2087
411.4848	0.2111
411.69	0.2136
411.8952	0.2357
412.1004	0.2221
412.3056	0.2246
412.5107	0.21
412.7158	0.231
412.921	0.2025
413.1261	0.2109
413.3312	0.197
413.5362	0.2221
413.7413	0.2084
413.9464	0.1973
414.1514	0.2013
414.3564	0.2077
414.5614	0.1953
414.7664	0.2144
414.9714	0.2034
415.1764	0.2128
415.3813	0.2269
415.5863	0.2129
415.7912	0.2031
415.9961	0.2041
416.201	0.2152
416.4059	0.2138
416.6108	0.1915
416.8156	0.223
417.0205	0.2081
417.2253	0.1936
417.4301	0.2096
417.6349	0.2116
417.8397	0.2007
418.0445	0.2155
418.2492	0.2091
418.454	0.2093
418.6587	0.1991
418.8634	0.203
419.0681	0.199
419.2728	0.2061
419.4775	0.2016
419.6822	0.1973
419.8868	0.1937
420.0915	0.1896
420.2961	0.1877
420.5007	0.1862
420.7053	0.2031
420.9099	0.193
421.1144	0.205
421.319	0.1942
421.5235	0.1882
421.728	0.2047
421.9325	0.1983
422.137	0.2057
422.3415	0.1825
422.546	0.1961
422.7504	0.1819
422.9549	0.2046
423.1593	0.1825
423.3637	0.1805
423.5681	0.1975
423.7725	0.1714
423.9769	0.1871
424.1812	0.1675
424.3856	0.1747
424.5899	0.1847
424.7942	0.1907
424.9985	0.1901
425.2028	0.172
425.4071	0.2037
425.6113	0.1636
425.8156	0.1761
426.0198	0.1892
426.224	0.162
426.4282	0.1721
426.6324	0.1729
426.8366	0.1633
427.0407	0.1733
427.2449	0.1749
427.449	0.1767
427.6531	0.139
427.8572	0.1746
428.0613	0.1531
428.2654	0.1548
428.4694	0.1691
428.6735	0.1672
428.8775	0.1577
429.0815	0.1574
429.2855	0.1347
429.4895	0.1751
429.6935	0.1702
429.8975	0.1558
430.1014	0.1427
430.3053	0.1445
430.5093	0.137
430.7132	0.15
430.9171	0.1478
431.1209	0.1438
431.3248	0.1368
431.5286	0.1425
431.7325	0.1538
431.9363	0.1297
432.1401	0.1513
432.3439	0.1294
432.5477	0.1253
432.7514	0.1042
432.9552	0.126
433.1589	0.1311
433.3627	0.1327
433.5664	0.1175
433.7701	0.1056
433.9737	0.1146
434.1774	0.1124
434.3811	0.1188
434.5847	0.1259
434.7883	0.1086
434.9919	0.1031
435.1955	0.1077
435.3991	0.1153
435.6027	0.1112
435.8062	0.0994
436.0098	0.1007
436.2133	0.1158
436.4168	0.0938
436.6203	0.1051
436.8238	0.0944
437.0272	0.0962
437.2307	0.0971
437.4341	0.1094
437.6375	0.0925
437.841	0.0903
438.0443	0.0853
438.2477	0.0901
438.4511	0.0914
438.6545	0.0963
438.8578	0.0913
439.0611	0.0864
439.2644	0.1097
439.4677	0.083
439.671	0.081
439.8743	0.0778
440.0775	0.0837
440.2808	0.0747
440.484	0.0774
440.6872	0.0557
440.8904	0.0671
441.0936	0.0829
441.2967	0.0691
441.4999	0.0647
441.703	0.0735
441.9062	0.0487
442.1093	0.0601
442.3124	0.0749
442.5155	0.0505
442.7185	0.0664
442.9216	0.0419
443.1246	0.0707
443.3276	0.0485
443.5307	0.0594
443.7337	0.0584
443.9366	0.0646
444.1396	0.0567
444.3426	0.0561
444.5455	0.0588
444.7484	0.0382
444.9513	0.054
445.1542	0.0523
445.3571	0.0419
445.56	0.0465
445.7628	0.0408
445.9657	0.0372
446.1685	0.0405
446.3713	0.0349
446.5741	0.0386
446.7769	0.0355
446.9797	0.0361
447.1824	0.0438
447.3852	0.0174
447.5879	0.0469
447.7906	0.0448
447.9933	0.028
448.196	0.0275
448.3986	0.0306
448.6013	0.038
448.8039	0.0154
449.0066	0.0189
449.2092	0.0347
449.4118	0.0345
449.6143	0.019
449.8169	0.0326
450.0195	0.0188
450.222	0.0135
450.4245	0.0204
450.627	0.031
450.8295	0.0305
451.032	0.0156
451.2345	0.0284
451.4369	0.019
451.6394	0.0289
451.8418	-0.0014
452.0442	0.0184
452.2466	0.0414
452.449	0.0064
452.6513	0.0209
452.8537	0.0162
453.056	0.0046
453.2583	0.0154
453.4607	0.0051
453.663	0.0199
453.8652	0.0238
454.0675	0.0035
454.2697	0.013
454.472	-0.009
454.6742	0.0281
454.8764	0.012
455.0786	0.0074
455.2808	0.0166
455.4829	0.015
455.6851	0.0241
455.8872	0.0267
456.0893	0.0166
456.2915	0.0029
456.4935	0.0159
456.6956	-0.0001
456.8977	0.0122
457.0997	0.0064
457.3018	-0.0052
457.5038	0.0076
457.7058	-0.0019
457.9078	0.0045
458.1098	0.001
458.3117	0.0068
458.5137	0.0028
458.7156	0.0069
458.9175	-0.0131
459.1194	-0.0046
459.3213	0.0017
459.5232	0.0022
459.725	-0.0127
459.9269	0.0018
460.1287	-0.0134
460.3305	-0.002
460.5323	-0.0088
460.7341	0.0075
460.9359	0.0057
461.1376	0.018
461.3394	-0.0065
461.5411	-0.005
461.7428	-0.0003
461.9445	0.0112
462.1462	0.015
462.3479	-0.0046
462.5495	0.0187
462.7512	0.004
462.9528	-0.005
463.1544	-0.0095
463.356	0.0002
463.5576	0.0025
463.7592	0.0082
463.9607	0.0062
464.1623	0.0141
464.3638	0.0057
464.5653	-0.0058
464.7668	0.0009
464.9683	0.0074
465.1697	0.0222
465.3712	-0.0047
465.5726	-0.0124
465.7741	-0.0076
465.9755	-0.0136
466.1769	-0.0034
466.3782	-0.0009
466.5796	-0.0173
466.7809	0.0044
466.9823	-0.0167
467.1836	-0.015
467.3849	0.0055
467.5862	0.0104
467.7875	-0.015
467.9887	0.0116
468.19	-0.0057
468.3912	-0.0127
468.5924	0.0096
468.7936	-0.0111
468.9948	-0.0115
469.196	0.0079
469.3972	-0.0052
469.5983	-0.0042
469.7994	-0.0142
470.0006	0.003
470.2017	-0.0154
470.4027	-0.0116
470.6038	-0.0003
470.8049	-0.0189
471.0059	-0.0175
471.2069	-0.0328
471.408	0.0134
471.6089	0.0015
471.8099	0.0015
472.0109	0.0017
472.2119	-0.0115
472.4128	-0.0075
472.6137	-0.005
472.8146	-0.0211
473.0155	-0.0193
473.2164	-0.0028
473.4173	0.0202
473.6181	0.0052
473.819	-0.0038
474.0198	-0.0182
474.2206	-0.0225
474.4214	-0.0083
474.6222	-0.0092
474.8229	-0.0211
475.0237	-0.0123
475.2244	-0.0096
475.4251	-0.0066
475.6258	-0.0127
475.8265	-0.0054
476.0272	0.0068
476.2278	-0.0049
476.4285	-0.0094
476.6291	-0.0119
476.8297	-0.0104
477.0303	-0.005
477.2309	-0.013
477.4315	-0.0056
477.632	-0.0022
477.8326	-0.02
478.0331	0.0038
478.2336	-0.0013
478.4341	-0.0058
478.6346	-0.016
478.8351	-0.0116
479.0355	-0.009
479.236	-0.0097
479.4364	0.0016
479.6368	-0.0008
479.8372	-0.0125
480.0376	-0.0078
480.2379	-0.0184
480.4383	-0.0138
480.6386	-0.0018
480.8389	0.0037
481.0392	-0.0008
481.2395	-0.0069
481.4398	-0.0004
481.6401	-0.0063
481.8403	-0.0004
482.0405	-0.0074
482.2408	-0.0044
482.441	0.0089
482.6411	-0.0095
482.8413	-0.0065
483.0415	-0.0173
483.2416	-0.0021
483.4417	-0.0074
483.6419	-0.0131
483.8419	-0.0049
484.042	0.0016
484.2421	-0.0058
484.4422	-0.0052
484.6422	-0.0125
484.8422	-0.0069
485.0422	-0.0106
485.2422	-0.0007
485.4422	-0.016
485.6422	-0.0172
485.8421	-0.0063
486.042	-0.0061
486.242	-0.0101
486.4419	-0.011
486.6417	-0.0107
486.8416	-0.0064
487.0415	-0.0093
487.2413	-0.0098
487.4411	-0.0103
487.641	-0.0071
487.8408	0.0012
488.0405	-0.0177
488.2403	-0.0091
488.4401	-0.0011
488.6398	0.0021
488.8395	-0.0129
489.0392	-0.0068
489.2389	0.0035
489.4386	-0.0118
489.6383	-0.001
489.8379	-0.0119
490.0376	-0.0131
490.2372	-0.0032
490.4368	-0.0024
490.6364	-0.0013
490.836	-0.003
491.0355	-0.0018
491.2351	-0.018
491.4346	-0.0006
491.6341	-0.0148
491.8336	0.0006
492.0331	-0.0142
492.2326	-0.0092
492.432	0.0028
492.6315	-0.0034
492.8309	-0.0102
493.0303	-0.0121
493.2297	-0.0097
493.4291	-0.0096
493.6284	-0.0037
493.8278	-0.0005
494.0271	0.0043
494.2264	-0.001
494.4257	-0.0082
494.625	-0.0128
494.8243	-0.0166
495.0236	-0.0132
495.2228	-0.0151
495.422	-0.0007
495.6213	-0.0033
495.8205	-0.006
496.0196	0.0035
496.2188	-0.0005
496.418	-0.0113
496.6171	-0.0191
496.8162	-0.0116
497.0153	0.0011
497.2144	-0.0159
497.4135	-0.0006
497.6126	-0.0107
497.8116	-0.0069
498.0107	0.0004
498.2097	-0.0111
498.4087	-0.0075
498.6077	-0.0007
498.8067	-0.0121
499.0056	0.0002
499.2046	-0.014
499.4035	-0.0174
499.6024	-0.0145
499.8013	-0.0069
500.0002	-0.0176
500.199	-0.0005
500.3979	-0.0125
500.5967	-0.0097
500.7956	-0.0116
500.9944	-0.0159
501.1932	-0.0124
501.3919	-0.0196
501.5907	-0.0156
501.7895	-0.0099
501.9882	-0.0134
502.1869	-0.0136
502.3856	-0.0163
502.5843	-0.0154
502.783	-0.0095
502.9816	-0.0112
503.1803	-0.0173
503.3789	-0.0076
503.5775	0.0026
503.7761	-0.0103
503.9747	-0.0064
504.1732	-0.0143
504.3718	-0.0059
504.5703	-0.0033
504.7689	-0.0132
504.9674	-0.0031
505.1658	-0.0085
505.3643	-0.0058
505.5628	-0.0081
505.7612	-0.01
505.9597	0.007
506.1581	-0.0145
506.3565	0.0048
506.5549	-0.0121
506.7532	-0.0068
506.9516	-0.0119
507.1499	-0.0061
507.3482	-0.0125
507.5465	-0.0039
507.7448	-0.0083
507.9431	-0.0053
508.1414	0.0072
508.3396	-0.0023
508.5379	-0.0033
508.7361	-0.0153
508.9343	0.0063
509.1325	-0.0078
509.3306	-0.0031
509.5288	-0.0029
509.7269	-0.0159
509.9251	-0.006
510.1232	-0.005
510.3213	-0.0027
510.5193	-0.004
510.7174	-0.0115
510.9154	-0.0078
511.1135	-0.009
511.3115	-0.0115
511.5095	-0.0155
511.7075	-0.0082
511.9055	-0.0009
512.1034	-0.0133
512.3014	0.0027
512.4993	-0.0046
512.6972	-0.0075
512.8951	-0.014
513.093	0.0034
513.2908	-0.006
513.4887	-0.0019
513.6865	-0.0096
513.8844	-0.0089
514.0822	-0.0085
514.2799	-0.0072
514.4777	-0.0025
514.6755	-0.0062
514.8732	-0.0098
515.0709	0.0014
515.2687	-0.0112
515.4664	-0.0025
515.664	-0.0031
515.8617	-0.0106
516.0594	-0.0216
516.257	-0.0006
516.4546	-0.0168
516.6522	-0.0084
516.8498	-0.0131
517.0474	-0.0044
517.2449	-0.0058
517.4425	-0.0247
517.64	-0.0083
517.8375	-0.0002
518.035	-0.012
518.2325	0.0005
518.43	-0.0124
518.6274	-0.0106
518.8249	-0.022
519.0223	0.0079
519.2197	-0.0041
519.4171	-0.0022
519.6145	-0.0063
519.8118	-0.0064
520.0092	-0.0072
520.2065	-0.0204
520.4038	-0.0152
520.6011	0.0009
520.7984	-0.0123
520.9956	-0.0057
521.1929	-0.0175
521.3901	-0.0011
521.5874	-0.0029
521.7846	-0.0092
521.9818	-0.0088
522.1789	-0.005
522.3761	-0.0086
522.5732	0.0053
522.7704	-0.002
522.9675	-0.0037
523.1646	-0.0259
523.3617	-0.0017
523.5587	-0.0017
523.7558	-0.0028
523.9528	-0.0086
524.1498	-0.0048
524.3468	-0.0034
524.5438	-0.0113
524.7408	-0.0012
524.9378	0.0008
525.1347	-0.0057
525.3316	-0.0092
525.5285	-0.0163
525.7254	-0.0082
525.9223	-0.009
526.1192	0.0023
526.316	-0.0166
526.5129	0.0032
526.7097	-0.0004
526.9065	-0.009
527.1033	-0.0083
527.3	-0.0061
527.4968	-0.0041
527.6935	-0.0059
527.8903	-0.0047
528.087	-0.0053
528.2837	-0.0014
528.4804	-0.0097
528.677	-0.0117
528.8737	0.0009
529.0703	0.0038
529.2669	-0.0041
529.4635	-0.002
529.6601	-0.006
529.8567	0.0003
530.0532	-0.0123
530.2498	0.003
530.4463	0.0099
530.6428	-0.0093
530.8393	0.0023
531.0358	-0.0089
531.2322	-0.0069
531.4287	-0.002
531.6251	-0.0085
531.8215	-0.0011
532.0179	0.0009
532.2143	0.0062
532.4107	-0.0074
532.607	-0.0065
532.8034	0.0087
532.9997	0.005
533.196	-0.0062
533.3923	-0.0059
533.5886	-0.002
533.7848	-0.0007
533.9811	-0.0008
534.1773	0.005
534.3735	0.0018
534.5697	-0.0053
534.7659	-0.0103
534.9621	-0.0028
535.1582	-0.0096
535.3544	-0.0065
535.5505	-0.0125
535.7466	-0.0121
535.9427	-0.0107
536.1387	-0.0032
536.3348	-0.014
536.5308	-0.005
536.7269	-0.0212
536.9229	0.0012
537.1189	-0.0007
537.3148	-0.0081
537.5108	0.0005
537.7068	-0.013
537.9027	-0.0056
538.0986	-0.0033
538.2945	-0.0122
538.4904	-0.0037
538.6863	-0.0096
538.8821	-0.0043
539.078	-0.0009
539.2738	0.0053
539.4696	-0.0103
539.6654	0.001
539.8611	0.0133
540.0569	0.0049
540.2526	-0.011
540.4484	-0.0005
540.6441	0.0076
540.8398	0.0001
541.0355	-0.0016
541.2311	-0.0061
541.4268	-0.0159
541.6224	0.0009
541.818	-0.0087
542.0136	-0.008
542.2092	0.009
542.4048	0.0003
542.6003	0.0018
542.7959	-0.0062
542.9914	-0.0003
543.1869	-0.0006
543.3824	-0.0005
543.5779	-0.0116
543.7734	-0.0035
543.9688	-0.0125
544.1642	0.0005
544.3596	-0.0027
544.555	-0.0043
544.7504	-0.012
544.9458	-0.0057
545.1411	-0.0016
545.3365	-0.0076
545.5318	-0.0079
545.7271	-0.004
545.9224	-0.0094
546.1177	0.0004
546.3129	-0.0015
546.5081	-0.0049
546.7034	0.004
546.8986	-0.0198
547.0938	-0.0084
547.289	-0.0052
547.4841	-0.014
547.6793	0.0058
547.8744	-0.0075
548.0695	-0.0009
548.2646	-0.0073
548.4597	0.0041
548.6548	-0.0059
548.8498	-0.0102
549.0448	0.0048
549.2399	-0.0024
549.4349	0.0003
549.6298	0.0053
549.8248	0.0064
550.0198	-0.0052
550.2147	-0.0011
550.4096	-0.0117
550.6045	-0.0059
550.7994	0.0057
550.9943	-0.004
551.1892	0.0004
551.384	0.0022
551.5788	-0.0045
551.7737	0.0042
551.9685	0.0028
552.1632	0.0002
552.358	-0.0039
552.5528	-0.0016
552.7475	-0.0001
552.9422	-0.0051
553.1369	0.0049
553.3316	-0.001
553.5263	-0.0151
553.7209	0.0014
553.9156	-0.0063
554.1102	-0.0019
554.3048	-0.0079
554.4994	0.0061
554.694	-0.0045
554.8885	-0.0045
555.0831	-0.008
555.2776	-0.0122
555.4721	-0.0016
555.6666	-0.0018
555.8611	0.0062
556.0555	-0.003
556.25	-0.01
556.4444	-0.0074
556.6388	0.0012
556.8332	0.0006
557.0276	-0.0002
557.222	-0.0037
557.4163	0.0072
557.6107	-0.0006
557.805	0.0063
557.9993	0.0032
558.1936	-0.003
558.3879	-0.005
558.5821	-0.0027
558.7764	-0.0036
558.9706	-0.0024
559.1648	0.0012
559.359	-0.0102
559.5532	-0.0019
559.7473	-0.0031
559.9415	-0.0031
560.1356	-0.0117
560.3297	-0.011
560.5238	-0.0111
560.7179	-0.0095
560.9119	-0.0007
561.106	-0.0065
561.3	-0.0044
561.494	-0.0036
561.688	-0.0046
561.882	-0.0131
562.076	-0.0036
562.2699	0.0041
562.4639	-0.0078
562.6578	-0.0009
562.8517	0.0047
563.0456	-0.0019
563.2395	0.0001
563.4333	0.0008
563.6272	-0.0001
563.821	-0.0036
564.0148	0.0033
564.2086	-0.0071
564.4024	-0.0058
564.5961	-0.0064
564.7899	0.0006
564.9836	-0.0037
565.1773	0.0044
565.371	0.0041
565.5647	0.0055
565.7584	-0.0063
565.952	0.0042
566.1456	0.0056
566.3393	-0.0007
566.5329	-0.0045
566.7264	0.0006
566.92	-0.0138
567.1136	0.0064
567.3071	0.0001
567.5006	0.0032
567.6941	-0.0049
567.8876	0.0046
568.0811	0.0006
568.2745	0.0003
568.468	0.002
568.6614	0.0008
568.8548	-0.0002
569.0482	-0.0061
569.2416	-0.0012
569.4349	0.0027
569.6283	0.0078
569.8216	0.0015
570.0149	-0.0105
570.2082	0.0015
570.4015	0.0028
570.5947	-0.0008
570.788	0.0033
570.9812	0.0071
571.1744	-0.0011
571.3676	-0.0063
571.5608	-0.0043
571.754	0.0065
571.9471	0.0033
572.1402	0.0031
572.3333	-0.0026
572.5264	-0.004
572.7195	0.0057
572.9126	0.0002
573.1057	-0.0012
573.2987	-0.0018
573.4917	0.0098
573.6847	-0.0096
573.8777	0.0024
574.0707	-0.0025
574.2636	-0.005
574.4566	-0.0012
574.6495	0.0018
574.8424	-0.0072
575.0353	0.004
575.2281	0.0031
575.421	0.0061
575.6138	0.0015
575.8067	-0.0044
575.9995	0.0033
576.1923	0.0071
576.385	0.0069
576.5778	-0.0033
576.7706	-0.0041
576.9633	-0.0018
577.156	0.0028
577.3487	0.0023
577.5414	-0.0024
577.734	-0.0064
577.9267	0.0037
578.1193	-0.0091
578.3119	-0.0071
578.5045	-0.0013
578.6971	-0.0049
578.8897	0.0093
579.0822	-0.0004
579.2747	-0.0002
579.4673	-0.0084
579.6598	-0.0009
579.8522	-0.0083
580.0447	-0.0052
580.2372	-0.0089
580.4296	0.0051
580.622	0.0008
580.8144	0.0025
581.0068	-0.0038
581.1992	-0.0073
581.3915	-0.0081
581.5839	-0.0068
581.7762	-0.0067
581.9685	-0.004
582.1608	0.0039
582.353	-0.0034
582.5453	-0.0022
582.7375	-0.0004
582.9298	0.0039
583.122	0.0039
583.3142	-0.0023
583.5063	-0.002
583.6985	0.0001
583.8906	-0.0036
584.0827	-0.0078
584.2749	-0.0014
584.4669	0.0032
584.659	0.0033
584.8511	-0.0035
585.0431	-0.0054
585.2352	0.0045
585.4272	0.0016
585.6192	0.0011
585.8111	-0.0029
586.0031	0.0026
586.195	-0.0097
586.387	0.0075
586.5789	0.001
586.7708	0.0056
586.9627	-0.0051
587.1545	-0.0021
587.3464	0.0031
587.5382	0.0047
587.73	-0.0032
587.9218	0.0092
588.1136	0.0012
588.3053	0.0049
588.4971	0.0019
588.6888	-0.0053
588.8805	0.0043
589.0722	0.0041
589.2639	-0.0007
589.4556	-0.0033
589.6472	0.0026
589.8389	-0.006
590.0305	-0.0146
590.2221	0.0037
590.4137	-0.0049
590.6052	0.0076
590.7968	-0.0033
590.9883	0.0045
591.1798	-0.0139
591.3713	0.0028
591.5628	-0.0013
591.7543	0.0069
591.9458	-0.0021
592.1372	0.0046
592.3286	0.0031
592.52	0.0023
592.7114	-0.001
592.9028	-0.0035
593.0941	0.0037
593.2855	-0.0002
593.4768	-0.0046
593.6681	-0.0081
593.8594	-0.0029
594.0506	0.0022
594.2419	0.0089
594.4331	-0.0043
594.6244	-0.0031
594.8156	-0.0085
595.0067	0.0015
595.1979	-0.0032
595.3891	0.0009
595.5802	-0.0041
595.7713	-0.0032
595.9624	-0.003
596.1535	0.0098
596.3446	0.0028
596.5357	-0.0034
596.7267	0.0054
596.9177	-0.006
597.1087	-0.0066
597.2997	-0.0022
597.4907	0.005
597.6817	-0.0103
597.8726	0.0013
598.0635	-0.0049
598.2544	-0.0004
598.4453	0.0019
598.6362	0.0037
598.827	-0.0021
599.0179	0.0093
599.2087	0.008
599.3995	-0.0026
599.5903	0.0027
599.7811	0.0006
599.9718	-0.002
600.1626	-0.0032
600.3533	-0.0118
600.544	0.0039
600.7347	-0.0011
600.9254	0.0036
601.116	-0.0037
601.3067	-0.0013
601.4973	0.0012
601.6879	0.0061
601.8785	-0.0001
602.0691	0.0027
602.2596	-0.0001
602.4502	0.0095
602.6407	0.0063
602.8312	0.0053
603.0217	-0.0069
603.2122	-0.0016
603.4027	0.0056
603.5931	0.0009
603.7835	-0.0034
603.9739	-0.0072
604.1643	-0.0001
604.3547	-0.001
604.5451	-0.0017
604.7354	-0.0021
604.9257	0.0073
605.116	-0.0059
605.3063	0.0046
605.4966	0.0034
605.6869	-0.001
605.8771	0.0076
606.0673	-0.0014
606.2575	0.0024
606.4477	-0.0004
606.6379	-0.0073
606.8281	-0.0002
607.0182	-0.0004
607.2083	0.01
607.3985	-0.0011
607.5885	-0.002
607.7786	0.0051
607.9687	-0.0017
608.1587	0.007
608.3488	0.001
608.5388	0.0058
608.7288	-0.0013
608.9187	-0.0028
609.1087	0.0012
609.2986	-0.0069
609.4886	-0.0065
609.6785	-0.0019
609.8684	-0.0019
610.0582	0.001
610.2481	-0.0058
610.4379	0.0002
610.6278	-0.01
610.8176	-0.0046
611.0074	-0.007
611.1971	-0.0048
611.3869	-0.0027
611.5766	-0.0045
611.7664	0.0002
611.9561	0.0015
612.1458	0.0029
612.3354	-0.0061
612.5251	-0.0029
612.7147	0.0039
612.9044	0.0081
613.094	-0.0053
613.2836	0.0001
613.4731	-0.0004
613.6627	-0.0052
613.8522	0.0041
614.0417	0.0046
614.2313	-0.0043
614.4207	-0.0002
614.6102	0.0014
614.7997	-0.0024
614.9891	-0.001
615.1785	0.0037
615.3679	-0.0025
615.5573	0.01
615.7467	-0.0016
615.9361	-0.0035
616.1254	-0.0008
616.3147	0.0001
616.504	0.0041
616.6933	0.0043
616.8826	0.0054
617.0718	0.004
617.2611	-0.0003
617.4503	-0.0108
617.6395	-0.0019
617.8287	0.0005
618.0179	-0.0073
618.207	0.0092
618.3961	-0.0005
618.5853	-0.0025
618.7744	0.0104
618.9634	0.0046
619.1525	0.003
619.3416	0.0064
619.5306	0.0018
619.7196	0.0023
619.9086	0.0038
620.0976	0.0034
620.2866	0.0002
620.4755	0.0085
620.6645	0.0061
620.8534	0.0077
621.0423	0.0094
621.2312	0.0129
621.42	-0.0002
621.6089	0.0033
621.7977	0.0119
621.9865	-0.0051
622.1753	0.0007
622.3641	-0.0027
622.5529	0.008
622.7416	0.0065
622.9303	-0.0009
623.1191	0.0081
623.3078	-0.0054
623.4964	0.0023
623.6851	0.0017
623.8737	0.0046
624.0624	0.0012
624.251	-0.0043
624.4396	0.0008
624.6282	-0.0104
624.8167	-0.0002
625.0053	-0.0041
625.1938	-0.0006
625.3823	-0.0007
625.5708	-0.0019
625.7593	-0.0035
625.9477	-0.012
626.1362	-0.0068
626.3246	0.0016
626.513	0.0074
626.7014	0.0066
626.8898	0.0056
627.0781	0.0038
627.2665	-0.0039
627.4548	0.0104
627.6431	0.0039
627.8314	0.0088
628.0197	0.0128
628.2079	0.0056
628.3962	-0.0062
628.5844	0.003
628.7726	0.0031
628.9608	0.0085
629.1489	-0.0035
629.3371	0.0031
629.5252	-0.0007
629.7134	0.0101
629.9015	-0.0053
630.0895	-0.0004
630.2776	0.002
630.4657	0.0003
630.6537	0.0009
630.8417	0.0005
631.0297	-0.0058
631.2177	0.0016
631.4057	-0.0068
631.5936	-0.0042
631.7815	0.006
631.9695	0.0041
632.1574	-0.0014
632.3452	0.0197
632.5331	0.0089
632.7209	-0.0004
632.9088	0.0056
633.0966	0.0095
633.2844	0.0015
633.4722	-0.0008
633.6599	0.0093
633.8477	0.0014
634.0354	0.0052
634.2231	0.0045
634.4108	0.0025
634.5985	0.007
634.7861	0.0011
634.9738	0.0003
635.1614	-0.0032
635.349	0.0022
635.5366	0.0035
635.7242	0.0025
635.9117	0.0057
636.0993	-0.0011
636.2868	0.0045
636.4743	-0.0036
636.6618	0.008
636.8492	-0.0006
637.0367	-0.0003
637.2241	0.0022
637.4115	-0.0062
637.5989	-0.0044
637.7863	-0.0049
637.9737	0.0008
638.161	-0.0056
638.3484	-0.0007
638.5357	0.0022
638.723	-0.003
638.9103	0.0075
639.0975	0.0028
639.2848	0.0005
639.472	0.0002
639.6592	0.0036
639.8464	0.0116
640.0336	0.0074
640.2208	0.0075
640.4079	0.0015
640.595	0.008
640.7821	0.0042
640.9692	-0.0007
641.1563	0.0039
641.3434	0.0008
641.5304	-0.001
641.7174	-0.0017
641.9044	0.0017
642.0914	0.0029
642.2784	0.0107
642.4653	0.0061
642.6523	0.0014
642.8392	-0.0016
643.0261	0.0011
643.213	0.0056
643.3999	0.0035
643.5867	0.002
643.7735	0.0067
643.9604	-0.0028
644.1472	0.0011
644.3339	0.0079
644.5207	0.0032
644.7075	-0.0004
644.8942	0.0106
645.0809	0.0071
645.2676	0.0083
645.4543	0.0053
645.6409	0.0056
645.8276	0.0049
646.0142	0.007
646.2008	-0.0005
646.3874	0.0066
646.574	-0.0066
646.7605	-0.0032
646.9471	-0.009
647.1336	0.0034
647.3201	0.0044
647.5066	0.0002
647.6931	0.0057
647.8795	0.0024
648.0659	0.0018
648.2524	0.0049
648.4388	-0.0022
648.6252	0.0042
648.8115	0.0091
648.9979	0.0006
649.1842	-0.0008
649.3705	0.0048
649.5568	0.0052
649.7431	0.0052
649.9294	0.0002
650.1156	0.0035
650.3018	0.003
650.488	0.0011
650.6742	0.0051
650.8604	0.0038
651.0466	-0.0049
651.2327	0.0017
651.4188	-0.0013
651.6049	-0.0002
651.791	0.0001
651.9771	0.0078
652.1632	-0.0032
652.3492	0.0035
652.5352	-0.0037
652.7212	-0.0014
652.9072	0.0052
653.0932	-0.0032
653.2791	0.0026
653.465	0.0002
653.651	-0.0045
653.8369	0.0023
654.0227	-0.0037
654.2086	0.0009
654.3944	0.0111
654.5803	0.003
654.7661	0.0011
654.9519	0.0038
655.1377	-0.0003
655.3234	-0.0017
655.5092	-0.0014
655.6949	0.0002
655.8806	-0.0034
656.0663	-0.003
656.2519	-0.006
656.4376	-0.0031
656.6232	0.0065
656.8088	0.0027
656.9945	0.0016
657.18	0.0007
657.3656	0.0004
657.5511	-0.0047
657.7367	0.0004
657.9222	0.0063
658.1077	0.0033
658.2932	0.0046
658.4786	-0.0027
658.6641	-0.0027
658.8495	0.0063
659.0349	-0.0005
659.2203	0.0074
659.4057	0.0058
659.591	-0.0011
659.7764	0.0001
659.9617	0.0015
660.147	-0.0038
660.3323	0.0028
660.5176	0.0041
660.7028	0.0049
660.888	0.0074
661.0733	0.0042
661.2585	-0.0043
661.4436	0.0035
661.6288	-0.0027
661.8139	0.0031
661.9991	0.0078
662.1842	0.0005
662.3693	0.0065
662.5544	-0.0033
662.7394	-0.0003
662.9245	-0.0027
663.1095	-0.002
663.2945	0.0035
663.4795	-0.0005
663.6644	0.0054
663.8494	0.0055
664.0343	0.0081
664.2193	-0.0062
664.4042	0.0036
664.589	0.0045
664.7739	-0.0021
664.9587	-0.0027
665.1436	-0.0002
665.3284	0.0027
665.5132	-0.0009
665.698	0.0013
665.8827	0.002
666.0675	0.0009
666.2522	-0.0098
666.4369	-0.0047
666.6216	0.01
666.8063	0.0048
666.9909	0.0007
667.1756	0.0031
667.3602	0.0003
667.5448	0.0043
667.7294	0.01
667.9139	0.0111
668.0985	0.0162
668.283	0.0046
668.4675	0.0054
668.652	0.0075
668.8365	-0.0025
669.0209	0.0163
669.2054	0.0088
669.3898	0.0019
669.5742	0.0036
669.7586	0.0089
669.943	0.0104
670.1273	0.0086
670.3117	0.0048
670.496	0.0049
670.6803	0.0098
670.8646	0.0017
671.0488	0.0011
671.2331	0.0127
671.4173	0.0116
671.6015	-0.0004
671.7857	0.0081
671.9699	0.0066
672.1541	0.0119
672.3382	0.0008
672.5223	0.0054
672.7064	0.0095
672.8905	0.0071
673.0746	-0.0011
673.2587	-0.0056
673.4427	0.0037
673.6267	0.0052
673.8107	0.0089
673.9947	0.0081
674.1787	0.0056
674.3626	0.0042
674.5465	-0.0002
674.7304	0.0071
674.9143	0.0123
675.0982	0.0011
675.2821	-0.0021
675.4659	0.0071
675.6497	0.0033
675.8335	-0.0011
676.0173	-0.0034
676.2011	-0.007
676.3849	-0.0012
676.5686	-0.0035
676.7523	0.002
676.936	0.0047
677.1197	0.0003
677.3034	-0.0016
677.487	0.0045
677.6706	-0.0018
677.8542	0.0026
678.0378	-0.0012
678.2214	0.0051
678.405	0.0035
678.5885	0.0001
678.772	0.0033
678.9555	0.0016
679.139	-0.0015
679.3225	-0.0038
679.5059	-0.0053
679.6894	0.0113
679.8728	0.0081
680.0562	-0.0007
680.2395	0.0027
680.4229	-0.0036
680.6062	0.0057
680.7896	-0.0058
680.9729	-0.0076
681.1562	0.0048
681.3394	-0.0016
681.5227	-0.0078
681.7059	0.0016
681.8891	-0.0012
682.0723	0.0128
682.2555	0.0095
682.4387	-0.0058
682.6218	-0.002
682.805	0.0018
682.9881	0.006
683.1712	0.0004
683.3542	0.0045
683.5373	0.001
683.7203	-0.005
683.9034	-0.0035
684.0864	-0.0058
684.2694	-0.0027
684.4523	0.0003
684.6353	-0.0054
684.8182	0.0008
685.0011	-0.0046
685.184	0.0007
685.3669	0.0046
685.5498	0.006
685.7326	-0.0004
685.9154	0.0002
686.0982	0.0078
686.281	0.0041
686.4638	-0.0047
686.6465	-0.0077
686.8293	-0.0074
687.012	-0.0019
687.1947	-0.0097
687.3774	-0.0011
687.56	0.0048
687.7427	0.0026
687.9253	-0.0025
688.1079	0.001
688.2905	0.0106
688.4731	0.0019
688.6556	0.003
688.8382	0.0007
689.0207	0.002
689.2032	-0.0048
689.3857	0.0035
689.5681	0.0016
689.7506	-0.009
689.933	-0.0052
690.1154	0.0033
690.2978	0.001
690.4802	0.0025
690.6626	-0.0065
690.8449	-0.0056
691.0272	0.0118
691.2095	-0.0073
691.3918	-0.0017
691.5741	0.0003
691.7563	0.0018
691.9386	0.0041
692.1208	-0.0008
692.303	0.0003
692.4852	-0.004
692.6673	0.0017
692.8495	-0.001
693.0316	0.0102
693.2137	0.0007
693.3958	0.0034
693.5778	-0.0004
693.7599	-0.0002
693.9419	0.0013
694.1239	-0.0033
694.3059	-0.0044
694.4879	0.0001
694.6699	0.0051
694.8518	-0.0014
695.0337	0.001
695.2157	0.0032
695.3975	0.0066
695.5794	0.0049
695.7613	0.01
695.9431	-0.0013
696.1249	0.0111
696.3067	0.0077
696.4885	0.013
696.6703	0.003
696.852	0.0115
697.0337	0.0089
697.2154	0.0037
697.3971	0.0065
697.5788	0.0067
697.7605	0.0013
697.9421	0.0008
698.1237	-0.002
698.3053	-0.0044
698.4869	0.0006
698.6685	-0.0106
698.85	0.0025
699.0315	0.0044
699.213	0.0017
699.3945	0.0086
699.576	0.0106
699.7575	0.0081
699.9389	0.0096
700.1203	-0.0002
700.3017	-0.0112
700.4831	-0.0017
700.6645	-0.0022
700.8458	0.0067
701.0271	0.0013
701.2084	0.0034
701.3897	-0.0056
701.571	0.0062
701.7523	-0.0011
701.9335	-0.0012
702.1147	0.0033
702.2959	0.0008
702.4771	0.0013
702.6583	-0.0008
702.8394	-0.0089
703.0205	-0.0002
703.2016	-0.0021
703.3827	0.0015
703.5638	0.0112
703.7449	-0.0016
703.9259	0.0116
704.1069	-0.0083
704.2879	0.0035
704.4689	0.0047
704.6499	0.0009
704.8308	-0.0074
705.0117	-0.0053
705.1927	0.0038
705.3735	-0.0045
705.5544	-0.0009
705.7353	0.0031
705.9161	-0.0032
706.0969	-0.0069
706.2777	0.0022
706.4585	-0.0009
706.6393	-0.0028
706.82	-0.0024
707.0007	0.002
707.1815	0.0022
707.3621	0.0114
707.5428	0.003
707.7235	-0.0013
707.9041	0.0083
708.0847	-0.0042
708.2653	0.0055
708.4459	-0.0126
708.6265	0.0004
708.807	0.0001
708.9875	-0.0008
709.168	-0.0086
709.3485	-0.0017
709.529	-0.009
709.7095	-0.0084
709.8899	0.0024
710.0703	-0.0085
710.2507	0.0015
710.4311	-0.0057
710.6115	-0.0074
710.7918	-0.0059
710.9721	-0.0038
711.1524	-0.0122
711.3327	-0.0038
711.513	0.0049
711.6932	-0.0037
711.8735	0.0075
712.0537	0.0067
712.2339	0.0032
712.4141	-0.0062
712.5942	-0.0098
712.7744	-0.004
712.9545	-0.0093
713.1346	-0.0035
713.3147	0.0003
713.4947	-0.0013
713.6748	0.0044
713.8548	0.0048
714.0348	-0.0018
714.2148	-0.0106
714.3948	0.0087
714.5748	0.0032
714.7547	0.0014
714.9346	0.01
715.1145	0.0058
715.2944	-0.007
715.4743	0.0059
715.6541	-0.0035
715.834	0.0063
716.0138	0.0053
716.1936	-0.0098
716.3733	-0.0018
716.5531	0.0113
716.7328	0.0017
716.9126	-0.0049
717.0923	0.0052
717.2719	0.0034
717.4516	0.0003
717.6312	-0.0018
717.8109	-0.0118
717.9905	0.0072
718.1701	-0.0077
718.3496	-0.0047
718.5292	-0.0012
718.7087	-0.0025
718.8882	-0.0067
719.0677	0.0012
719.2472	-0.0011
719.4267	0.0027
719.6061	-0.0046
719.7856	-0.0009
719.965	0.0058
720.1443	-0.0094
720.3237	0.0052
720.5031	-0.0038
720.6824	0.0026
720.8617	-0.0088
721.041	0.0012
721.2203	0.0089
721.3995	0.0005
721.5788	0.0025
721.758	0.0056
721.9372	-0.0013
722.1164	0.0046
722.2956	0.0031
722.4747	-0.0023
722.6538	-0.0025
722.8329	0.0145
723.012	0.0033
723.1911	0.007
723.3702	-0.0067
723.5492	-0.0008
723.7282	-0.0014
723.9072	0.0001
724.0862	-0.0074
724.2652	0.0013
724.4441	-0.0025
724.623	-0.0051
724.8019	-0.0033
724.9808	-0.0044
725.1597	-0.0024
725.3385	0.0056
725.5174	-0.0024
725.6962	-0.0035
725.875	0.0021
726.0538	-0.0031
726.2325	-0.0087
726.4112	0.0056
726.59	-0.0066
726.7687	-0.0052
726.9474	0.0048
727.126	0.0017
727.3047	-0.0044
727.4833	0.0039
727.6619	-0.0076
727.8405	-0.0082
728.0191	-0.0083
728.1976	0.0025
728.3762	0.0038
728.5547	0.0034
728.7332	-0.0099
728.9116	0.0016
729.0901	0.0104
729.2686	-0.0079
729.447	-0.0033
729.6254	0.0062
729.8038	0.0041
729.9821	-0.0066
730.1605	-0.0007
730.3388	-0.0042
730.5171	-0.0046
730.6954	-0.0052
730.8737	0.0021
731.0519	-0.0037
731.2302	0.0003
731.4084	0.006
731.5866	0.0059
731.7648	-0.003
731.9429	0.0073
732.1211	-0.012
732.2992	-0.0028
732.4773	-0.0043
732.6554	-0.0052
732.8335	0.0012
733.0115	0.0058
733.1896	0.0076
733.3676	-0.0068
733.5456	0.0054
733.7235	0.0058
733.9015	-0.0005
734.0794	0.0016
734.2574	-0.0064
734.4353	0.0031
734.6131	0.0028
734.791	0.0066
734.9689	0.0026
735.1467	0.0035
735.3245	-0.0057
735.5023	-0.0045
735.68	0.0009
735.8578	0.0032
736.0355	-0.0173
736.2132	-0.0069
736.3909	-0.0005
736.5686	-0.0058
736.7463	0.0013
736.9239	-0.0088
737.1015	0.0044
737.2791	0.0106
737.4567	0.0011
737.6343	0.0071
737.8118	0.0035
737.9894	0.0063
738.1669	-0.0024
738.3444	-0.0008
738.5218	0.0049
738.6993	-0.0037
738.8767	-0.005
739.0541	0.013
739.2315	-0.003
739.4089	0.003
739.5863	0.0022
739.7636	0.0006
739.9409	-0.0007
740.1182	0.0069
740.2955	0.0031
740.4728	-0.0007
740.65	-0.0013
740.8272	0.005
741.0044	0.0039
741.1816	0.0028
741.3588	0.0028
741.5359	0.0008
741.7131	-0.0094
741.8902	-0.0055
742.0673	-0.0037
742.2444	-0.0042
742.4214	-0.0091
742.5985	-0.0035
742.7755	-0.004
742.9525	-0.0131
743.1295	0.0015
743.3064	-0.0027
743.4834	0.0041
743.6603	-0.0044
743.8372	0.004
744.0141	-0.0021
744.191	0.006
744.3678	-0.0044
744.5446	0.0005
744.7215	0.0065
744.8982	0.0013
745.075	-0.0079
745.2518	-0.0025
745.4285	0.0035
745.6052	-0.0082
745.7819	-0.0034
745.9586	-0.0056
746.1353	0.0006
746.3119	-0.0066
746.4885	-0.0102
746.6651	0.0014
746.8417	-0.0024
747.0183	-0.0026
747.1948	0.001
747.3714	0.0019
747.5479	0.0021
747.7244	0.001
747.9008	0.0053
748.0773	0.0038
748.2537	-0.0018
748.4301	-0.007
748.6065	-0.0071
748.7829	0.0049
748.9593	-0.0085
749.1356	-0.0036
749.3119	-0.0006
749.4882	-0.0032
749.6645	0.0086
749.8408	-0.0132
750.017	0.0033
750.1933	0.0012
750.3695	-0.0041
750.5457	-0.0016
750.7218	-0.0095
750.898	0.0071
751.0741	-0.0044
751.2502	-0.0073
751.4263	-0.0141
751.6024	0.0003
751.7784	-0.0006
751.9545	-0.0102
752.1305	-0.0034
752.3065	-0.0052
752.4825	-0.0044
752.6584	-0.0101
752.8344	-0.0077
753.0103	-0.0097
753.1862	-0.0045
753.3621	0.0029
753.5379	-0.0132
753.7138	-0.0028
753.8896	-0.004
754.0654	-0.0061
754.2412	0.0031
754.417	0.0003
754.5927	-0.0122
754.7685	-0.0084
754.9442	-0.0049
755.1199	0.0012
755.2956	-0.0035
755.4712	0.0076
755.6469	-0.003
755.8225	0.0025
755.9981	-0.0034
756.1736	-0.0051
756.3492	0.0073
756.5248	-0.0006
756.7003	-0.0008
756.8758	0.0074
757.0513	-0.0078
757.2267	-0.005
757.4022	0.0054
757.5776	-0.0034
757.753	-0.0039
757.9284	-0.0069
758.1038	0.0045
758.2791	0.0024
758.4545	-0.0072
758.6298	-0.0009
758.8051	-0.005
758.9803	-0.002
759.1556	0.0037
759.3308	-0.0078
759.506	0.02
759.6812	0.0078
759.8564	0.0156
760.0316	0.001
760.2067	0.0192
760.3819	0.0092
760.557	0.0168
760.732	-0.0001
760.9071	-0.0028
761.0821	-0.0036
761.2572	0.0049
761.4322	-0.0003
761.6072	0.0018
761.7821	-0.0084
761.9571	0.0098
762.132	-0.0018
762.3069	-0.0051
762.4818	-0.0039
762.6567	-0.0047
762.8316	0.0026
763.0064	-0.0075
763.1812	0.0038
763.356	-0.0107
763.5308	0.001
763.7055	-0.0023
763.8803	-0.0151
764.055	0
764.2297	-0.0043
764.4044	-0.0096
764.579	0.0002
764.7537	-0.0133
764.9283	0.0085
765.1029	-0.0042
765.2775	-0.0012
765.4521	-0.009
765.6266	-0.0025
765.8011	-0.0041
765.9756	-0.0044
766.1501	0.005
766.3246	-0.0136
766.4991	-0.0069
766.6735	0.0047
766.8479	-0.0171
767.0223	0.0082
767.1967	-0.001
767.371	-0.0034
767.5454	-0.0095
767.7197	-0.0055
767.894	-0.0026
768.0683	-0.007
768.2425	0.0054
768.4168	-0.0024
768.591	-0.0015
768.7652	0.0021
768.9394	-0.0028
769.1135	-0.0029
769.2877	0.004
769.4618	0.0028
769.6359	-0.0147
769.81	0.0039
769.984	-0.003
770.1581	-0.0075
770.3321	0.003
770.5061	-0.0058
770.6801	-0.0092
770.8541	-0.0078
771.028	0.0159
771.202	-0.0127
771.3759	0.0136
771.5498	-0.0009
771.7236	0.0013
771.8975	-0.0004
772.0713	-0.0013
772.2451	0.0035
772.4189	0.0107
772.5927	0.0126
772.7665	0.0021
772.9402	-0.004
773.1139	0.0029
773.2876	0.0049
773.4613	0.0018
773.635	0.0079
773.8086	-0.0146
773.9822	0.0039
774.1558	-0.0048
774.3294	-0.0137
774.503	0.003
774.6765	-0.0096
774.8501	-0.0006
775.0236	0.0001
775.1971	0.0057
775.3705	-0.0098
775.544	0.0041
775.7174	-0.0105
775.8908	-0.0025
776.0642	-0.0006
776.2376	0.001
776.4109	-0.0067
776.5843	-0.0062
776.7576	0.0083
776.9309	0.0179
777.1041	0.0091
777.2774	0.0145
777.4506	0.0174
777.6238	-0.0102
777.797	0.0061
777.9702	0.003
778.1434	-0.0018
778.3165	-0.0057
778.4896	0.0074
778.6627	0.0076
778.8358	0.0155
779.0089	0.0021
779.1819	0.0053
779.3549	0.0137
779.5279	0.0103
779.7009	0.003
779.8739	0.0076
780.0468	0.0155
780.2197	0.0113
780.3926	0.0041
780.5655	0.0061
780.7384	-0.0081
780.9112	0.0049
781.0841	-0.0054
781.2569	0.0045
781.4297	0.0123
781.6024	0.0066
781.7752	0.0106
781.9479	0.0113
782.1206	0.0045
782.2933	-0.0068
782.466	0.0075
782.6386	0.0085
782.8113	0.0011
782.9839	-0.0015
783.1565	0.0119
783.329	0.0091
783.5016	-0.0061
783.6741	0.0047
783.8466	-0.0024
784.0191	0.0143
784.1916	-0.0072
784.3641	0.0041
784.5365	0.0033
784.7089	0.0064
784.8813	0.0057
785.0537	0.0012
785.2261	0.0076
785.3984	-0.0095
785.5707	0.0051
785.743	0.0061
785.9153	0.0003
786.0876	0.0088
786.2598	-0.0035
786.432	-0.0138
786.6042	-0.0003
786.7764	-0.0041
786.9486	0.0023
787.1207	-0.005
787.2928	-0.0056
787.4649	0.0004
787.637	0.0049
787.8091	-0.0187
787.9811	0.0003
788.1532	-0.0095
788.3252	0.02
788.4972	-0.0085
788.6691	-0.0039
788.8411	0.0096
789.013	-0.0068
789.1849	-0.0011
789.3568	0.0009
789.5287	-0.0024
789.7005	0
789.8723	0.0172
790.0442	0.0044
790.2159	-0.0064
790.3877	0.0058
790.5595	-0.0068
790.7312	-0.0031
790.9029	-0.012
791.0746	-0.0065
791.2463	0.0122
791.4179	-0.0076
791.5896	-0.0107
791.7612	-0.0017
791.9328	0.0127
792.1044	-0.0115
792.2759	-0.0077
792.4474	0.0026
792.619	0.0079
792.7905	0.0049
792.9619	-0.0044
793.1334	0.0173
793.3048	-0.0022
793.4762	0.0055
793.6476	0.0039
793.819	0.0029
793.9904	0.0118
794.1617	-0.0181
794.333	-0.0059
794.5043	-0.0185
794.6756	0.0048
794.8469	-0.005
795.0181	-0.0116
795.1893	-0.0067
795.3605	0.0093
795.5317	-0.0116
795.7029	-0.0036
795.874	-0.0141
796.0452	0.0007
796.2163	-0.0064
796.3873	0.0033
796.5584	-0.0165
796.7294	0
796.9005	0.0004
797.0715	0.0108
797.2425	-0.0176
797.4134	-0.0271
797.5844	0.0022
797.7553	-0.002
797.9262	-0.0043
798.0971	-0.021
798.2679	-0.0134
798.4388	-0.0197
798.6096	-0.0159
798.7804	-0.007
798.9512	-0.0007
799.122	-0.0022
799.2927	0.0043
799.4635	0.0089
799.6342	-0.0314
799.8049	-0.0253
799.9755	-0.0004
800.1462	-0.012
800.3168	-0.0023
800.4874	-0.0082
800.658	0.0186
800.8286	-0.0025
800.9991	0.0238
801.1696	0.0055
801.3402	0.0029
801.5106	-0.0102
801.6811	-0.0067
801.8516	0.0099
802.022	-0.0077
802.1924	0.0066
802.3628	0.0002
802.5332	0.0123
802.7035	0.0032
802.8739	-0.02
803.0442	-0.0186
803.2145	0.0109
803.3847	-0.0288
803.555	0.0017
803.7252	-0.0142
803.8954	-0.0161
804.0656	-0.0221
804.2358	-0.0084
804.4059	0.0098
804.5761	0.0028
804.7462	-0.014
804.9163	-0.0131
805.0864	-0.0202
805.2564	-0.0082
805.4264	-0.0074
805.5965	-0.0055
805.7665	0.0076
805.9364	-0.004
806.1064	0.0182
806.2763	0.0011
806.4462	0.0128
806.6161	0.015
806.786	0.0217
806.9559	-0.0098
807.1257	0.0042
807.2955	0.0028
807.4653	0.0023
807.6351	-0.0063
807.8048	0.011
807.9746	0.0003
808.1443	0.0056
808.314	-0.0106
808.4837	0.0238
808.6533	0.006
808.8229	0.0158
808.9926	0.007
809.1622	0.0124
809.3317	-0.0061
809.5013	0.0056
809.6708	-0.0019
809.8403	0.004
810.0098	-0.0237
810.1793	0.0149
810.3488	0.011
810.5182	-0.0098
810.6876	-0.0099
810.857	-0.0274
811.0264	0.0184
811.1958	-0.0046
811.3651	0.0024
811.5344	-0.0026
811.7037	-0.0187
811.873	-0.0249
812.0422	0.0029
812.2115	-0.0202
812.3807	-0.0132
812.5499	0.0126
812.7191	-0.01
812.8882	-0.0177
813.0574	-0.0022
813.2265	-0.0123
813.3956	-0.0035
813.5646	0.0014
813.7337	-0.0086
813.9027	0.0149
814.0718	0.0247
814.2407	0.017
814.4097	-0.006
814.5787	-0.0078
814.7476	-0.012
814.9165	0.013
815.0854	0.0154
815.2543	-0.0099
815.4232	-0.0045
815.592	0.0053
815.7608	0.0045
815.9296	-0.0081
816.0984	0.0316
816.2671	-0.0032
816.4359	-0.0045
816.6046	0.0111
816.7733	-0.0208
816.942	-0.0037
817.1106	0.0076
817.2793	0.0086
817.4479	-0.0072
817.6165	0.0103
817.785	-0.0161
817.9536	-0.0192
818.1221	0.0091
818.2906	-0.0218
818.4591	-0.0182
818.6276	-0.0133
818.7961	-0.0045
818.9645	0.0232
819.1329	-0.0204
819.3013	0.0149
819.4697	0.015
819.638	0.0018
819.8064	-0.0192
819.9747	0.0057
820.143	-0.0109
820.3113	-0.016
820.4795	-0.0079
820.6477	-0.0098
820.816	-0.0055
820.9842	0.007
821.1523	-0.0238
821.3205	-0.0105
821.4886	0.007
821.6567	-0.0084
821.8248	0.0025
821.9929	0.0035
822.1609	0.015
822.329	0.0029
822.497	0.0261
822.665	-0.0264
822.833	-0.0192
823.0009	-0.0201
823.1688	0.024
823.3367	0.0101
823.5046	0.0121
823.6725	0.0313
823.8404	-0.0015
824.0082	-0.029
824.176	-0.0143
824.3438	0.0049
824.5116	-0.0365
824.6793	0.0025
824.847	-0.0245
825.0147	-0.0075
825.1824	-0.0073
825.3501	0.0312
825.5177	-0.0021
825.6854	-0.0122
825.853	0.0175
826.0206	-0.0123
826.1881	-0.0008
826.3557	-0.0256
826.5232	0.0137
826.6907	-0.0265
826.8582	-0.0031
827.0257	-0.005
827.1931	0.0074
827.3605	-0.0176
827.528	-0.0045
827.6953	0.0028
827.8627	-0.0078
828.03	0.0346
828.1974	-0.0064
828.3647	-0.0645
828.532	-0.0225
828.6992	-0.0043
828.8665	0.0216
829.0337	-0.0173
829.2009	0.036
829.3681	0.0057
829.5352	0.0129
829.7024	-0.034
829.8695	-0.0461
830.0366	0.0682
830.2037	-0.0398
830.3707	0.0271
830.5378	-0.0382
830.7048	-0.0053
830.8718	-0.0015
831.0388	-0.005
831.2057	-0.042
831.3727	0.0203
831.5396	-0.0258
831.7065	-0.0384
831.8734	0.011
832.0402	-0.0639
832.2071	-0.005
832.3739	-0.0112
832.5407	0.0043
832.7075	-0.0289
832.8742	-0.0573
833.041	-0.0351
833.2077	0.0075
833.3744	0.0262
833.541	0.0099
833.7077	-0.0669
833.8743	-0.0375
834.0409	-0.0294
834.2075	-0.0233
834.3741	-0.0444
834.5407	0.0091
834.7072	-0.0173
834.8737	-0.0058
835.0402	-0.0059
835.2067	0.0245
835.3731	0.0074
835.5395	-0.026
835.706	0.0021
835.8723	0.0155
836.0387	0.0104
836.2051	-0.0209
836.3714	-0.0245
836.5377	-0.045
836.704	-0.0098
836.8703	0.0095
837.0365	-0.005
837.2027	-0.0298
837.3689	0.0126
837.5351	-0.0379
837.7013	0.0157
837.8674	-0.0811
838.0335	-0.075
838.1997	-0.0158
838.3657	-0.0418
838.5318	-0.0233
838.6978	0.017
838.8639	0.0325
839.0299	-0.0101
839.1958	0.0153
839.3618	-0.0477
839.5277	-0.015
839.6937	-0.0263
839.8596	-0.0279
840.0254	0.0187
840.1913	-0.0224
840.3571	0.0282
840.523	-0.0068
840.6888	-0.0218
840.8545	-0.0251
841.0203	0.0037
841.186	0.0001
841.3517	0.0231
841.5174	-0.0319
841.6831	-0.0538
841.8488	0.002
842.0144	0.0113
842.18	-0.0007
842.3456	-0.0119
842.5112	-0.046
842.6767	-0.0384
842.8422	-0.0166
843.0077	-0.0344
843.1732	-0.0784
843.3387	-0.0154
843.5042	-0.0494
843.6696	0.01
843.835	-0.0686
844.0004	0.0506
844.1657	-0.0127
844.3311	-0.0441
844.4964	-0.0076
844.6617	-0.0668
844.827	-0.0481
844.9923	-0.0133
845.1575	0.0026
845.3227	-0.0385
845.4879	-0.0354
845.6531	-0.013
845.8183	-0.1006
845.9834	-0.0181
846.1485	0.0558
846.3136	-0.0523
846.4787	-0.1056
846.6438	0.0135
846.8088	-0.0731
846.9738	-0.0816
847.1388	-0.0452
847.3038	-0.0896
847.4687	-0.1377
847.6337	0.0002
847.7986	-0.0011
847.9635	-0.069
848.1284	0.0043
848.2932	0.029
848.458	0.0003
848.6228	-0.0134
848.7876	0.0399
848.9524	-0.0248
849.1172	-0.0896
849.2819	-0.0053
849.4466	-0.1218
849.6113	-0.0895
849.7759	-0.0488
849.9406	-0.0422
850.1052	0.008
850.2698	-0.0808
850.4344	-0.0497
850.599	-0.1041
850.7635	0.0184
850.928	-0.0708
851.0925	-0.0166
851.257	-0.0238
851.4215	-0.0275
851.5859	-0.1246
851.7503	0.008
851.9147	-0.0268
852.0791	-0.0956
852.2434	-0.0272
852.4078	0.0475
852.5721	0.0117
852.7364	-0.0795
852.9007	-0.2592
853.0649	-0.0882
853.2291	-0.1034
853.3934	-0.0718
853.5575	0.0132
853.7217	-0.0315
853.8859	-0.2596
854.05	-0.1007
854.2141	-0.0647
854.3782	-0.1709
854.5423	-0.0886
854.7063	0.0272
854.8703	0.0502
855.0343	0.0685
855.1983	-0.0862
855.3623	-0.0054
855.5262	0.0468
855.6901	-0.0609
855.854	-0.0924
856.0179	-0.0729
856.1818	-0.049
856.3456	-0.171
856.5094	-0.1106
856.6732	-0.1253
856.837	-0.0138
857.0008	-0.0347
857.1645	-0.132
857.3282	-0.1429
857.4919	0.0102
857.6556	-0.1201
857.8192	-0.1016
857.9828	-0.0504
858.1465	0.1015
858.31	-0.1804
858.4736	-0.098
858.6372	-0.3601
858.8007	-0.1753
858.9642	0.01
859.1277	-0.0436
859.2911	0.1047
859.4546	0.027
859.618	-0.4875
859.7814	-0.0472
859.9448	0.0185
860.1081	-0.1187
860.2715	0.1869
860.4348	-0.1897
860.5981	-0.1527
860.7614	0.1658
860.9246	-0.2282
861.0879	-0.2271
861.2511	0.1005
861.4143	-0.5027
861.5774	-0.0133
861.7406	-0.2854
861.9037	-0.0447
862.0668	-0.2154
862.2299	-0.084
862.393	-0.5942
862.556	0.0265
862.7191	-0.1702
862.8821	-0.1486
863.0451	0.079
863.208	-0.0895
863.371	0.0632
863.5339	-0.4226
863.6968	-0.1411
863.8597	-0.1665
864.0225	-0.0548
864.1854	-0.2037
864.3482	0.1966
864.511	0.1271
864.6737	-0.2168
864.8365	-0.0062
864.9992	-0.5715
865.1619	-0.5212
865.3246	-0.1639
865.4873	0.0315
865.65	-0.0817
865.8126	-0.1096
865.9752	-0.0203
866.1378	-0.0752
866.3004	-0
866.4629	0.2825
866.6254	0.2521
866.7879	-0.1713
866.9504	-0.1967
867.1129	-0
867.2753	0.0776
867.4377	0.0319
867.6001	-0.2649
867.7625	0.1215
867.9249	-0.8438
868.0872	0.0472
868.2495	-0.0959
868.4118	-0.4076
868.5741	-0.5583
868.7363	-0.5082
868.8986	-0.3089
869.0608	-0.0805
869.223	0.077
869.3851	-0
869.5473	-0
869.7094	0.136
869.8715	-0.0288
870.0336	-0
870.1957	-0.315
870.3577	-0
870.5197	-0.2081
870.6817	-0.4597
870.8437	-0.3098
871.0057	-0
871.1676	0.3082
871.3295	-0.6492
871.4914	-0
871.6533	-0.5246
871.8151	-0.4248
871.977	-0
872.1388	-0
872.3006	-0
872.4623	-0
872.6241	0.294
872.7858	-0.1458
872.9475	-0.1025
873.1092	-0.3984
873.2709	0.0784
873.4325	-0.3677
873.5941	-0.4836
873.7557	-0
873.9173	0.5929
874.0789	-0.5203
874.2404	-0
874.4019	0.2458
874.5634	-0
874.7249	-0.1188
874.8863	0.1779
875.0478	0.2127
875.2092	-0
875.3706	-0.1874
875.5319	-0.8888
875.6933	-0
875.8546	-0.425
876.0159	0.0933
876.1772	-0
876.3385	-0
876.4997	-0.011
876.6609	-0.6092
876.8221	-0
876.9833	0.7761
877.1445	-0
877.3056	0.0318
877.4667	-0.5849
877.6278	-0
877.7889	0.1841
877.9499	-0
878.111	-0
878.272	-1.0792
878.433	-0
878.5939	-0
878.7549	-0.1741
878.9158	-0.5878
879.0767	0.2194
879.2376	-0
879.3984	-0.4597
879.5593	-0
879.7201	0.0142
879.8809	-0.8621
880.0417	-0.217
880.2024	-0.2668
880.3632	-0.7434
880.5239	0.084
880.6846	-0
880.8452	-2.4857
881.0059	-0
881.1665	-0
881.3271	0.1112
881.4877	-0.4078
881.6483	-0.6129
881.8088	-0.2058
881.9693	-0.3348
882.1298	-0.3348
882.2903	-0.3348
