Data from MonoPyChalIsomerACN10uM340nmA_Absorbance_14-14-17-665.txt Node
Date: Fri Jul 05 14:14:17 BST 2024
User: LASERRRRR
Spectrometer: FLMT03099
Trigger mode: 0
Integration Time (sec): 1.000000E-1
Scans to average: 1
Electric dark correction enabled: true
Nonlinearity correction enabled: false
Boxcar width: 0
XAxis mode: Wavelengths
Number of Pixels in Spectrum: 3648
>>>>>Begin Spectral Data<<<<<
179.3399	-0.1714
179.5586	-0.1714
179.7771	-0.1714
179.9957	0.5539
180.2143	-0.0773
180.4329	0.4155
180.6514	-0
180.8699	-0
181.0885	-0.2184
181.307	0.0558
181.5255	-0
181.744	-0
181.9625	0.6335
182.181	-0.6021
182.3994	0.055
182.6179	-0
182.8363	-0.0542
183.0547	0.0229
183.2732	0.0625
183.4916	0.2872
183.71	0.0652
183.9284	0.0994
184.1467	-0.0902
184.3651	0.1168
184.5835	-0.0531
184.8018	0.2318
185.0201	-0.0072
185.2385	0.458
185.4568	0.4374
185.6751	0.3894
185.8934	0.1411
186.1117	0.0453
186.3299	0.2458
186.5482	0.3093
186.7664	-0.0516
186.9847	0.1417
187.2029	0.0765
187.4211	0.1895
187.6393	0.2457
187.8575	0.003
188.0757	0.4719
188.2939	0.2822
188.512	0.4866
188.7302	0.2718
188.9483	0.4594
189.1665	0.172
189.3846	0.7097
189.6027	0.1024
189.8208	0.2402
190.0389	0.1297
190.257	0.2475
190.475	0.3602
190.6931	0.1514
190.9111	0.3795
191.1292	0.0269
191.3472	0.447
191.5652	0.2616
191.7832	0.6754
192.0012	0.5157
192.2192	0.626
192.4371	0.5711
192.6551	0.4052
192.873	0.4461
193.091	0.5679
193.3089	0.7205
193.5268	0.5012
193.7447	0.7311
193.9626	0.5478
194.1805	0.9936
194.3984	0.6783
194.6162	0.6508
194.8341	0.8097
195.0519	0.5097
195.2697	0.6471
195.4875	0.5553
195.7054	0.7576
195.9231	0.4672
196.1409	0.655
196.3587	0.6412
196.5765	0.5426
196.7942	0.7399
197.012	0.5135
197.2297	0.6248
197.4474	0.7082
197.6651	0.6307
197.8828	0.536
198.1005	0.6819
198.3182	0.8752
198.5358	0.8091
198.7535	0.6573
198.9711	0.6661
199.1888	0.6805
199.4064	0.9037
199.624	0.7343
199.8416	0.6177
200.0592	0.9744
200.2767	0.7127
200.4943	0.645
200.7119	0.7391
200.9294	0.6956
201.1469	0.6188
201.3645	0.5859
201.582	0.5679
201.7995	0.6593
202.017	0.6815
202.2344	0.499
202.4519	0.6704
202.6694	0.7066
202.8868	0.6088
203.1042	0.7543
203.3217	0.7429
203.5391	0.6062
203.7565	0.5694
203.9739	0.7656
204.1913	0.6899
204.4086	0.669
204.626	0.6649
204.8433	0.5865
205.0607	0.5565
205.278	0.664
205.4953	0.7604
205.7126	0.6423
205.9299	0.7201
206.1472	0.6993
206.3644	0.6511
206.5817	0.6312
206.7989	0.7553
207.0162	0.716
207.2334	0.6755
207.4506	0.6963
207.6678	0.6844
207.885	0.7562
208.1022	0.6925
208.3194	0.6218
208.5365	0.6626
208.7537	0.6405
208.9708	0.6381
209.1879	0.641
209.405	0.6531
209.6222	0.7171
209.8392	0.6731
210.0563	0.6282
210.2734	0.6601
210.4905	0.7147
210.7075	0.6315
210.9245	0.621
211.1416	0.6785
211.3586	0.6509
211.5756	0.625
211.7926	0.5886
212.0096	0.6722
212.2265	0.5584
212.4435	0.6277
212.6604	0.611
212.8774	0.566
213.0943	0.5727
213.3112	0.5783
213.5281	0.5507
213.745	0.5056
213.9619	0.509
214.1788	0.5112
214.3956	0.4466
214.6125	0.4804
214.8293	0.46
215.0461	0.4954
215.2629	0.4703
215.4798	0.4825
215.6965	0.4139
215.9133	0.4403
216.1301	0.4257
216.3469	0.4304
216.5636	0.4032
216.7803	0.3801
216.9971	0.3978
217.2138	0.3883
217.4305	0.3603
217.6472	0.3666
217.8639	0.3848
218.0805	0.3653
218.2972	0.3259
218.5138	0.3012
218.7305	0.3448
218.9471	0.3092
219.1637	0.2769
219.3803	0.2819
219.5969	0.257
219.8135	0.2649
220.0301	0.2706
220.2466	0.272
220.4632	0.2838
220.6797	0.2362
220.8962	0.2459
221.1127	0.279
221.3292	0.2598
221.5457	0.2249
221.7622	0.2397
221.9787	0.2519
222.1951	0.2603
222.4116	0.251
222.628	0.2676
222.8444	0.2795
223.0608	0.2527
223.2772	0.256
223.4936	0.289
223.71	0.2509
223.9264	0.2792
224.1427	0.2719
224.3591	0.2577
224.5754	0.2753
224.7917	0.2535
225.008	0.2938
225.2243	0.2765
225.4406	0.2932
225.6569	0.2771
225.8732	0.2674
226.0894	0.2592
226.3057	0.272
226.5219	0.3007
226.7381	0.2719
226.9543	0.2733
227.1705	0.2681
227.3867	0.2835
227.6029	0.3035
227.8191	0.3021
228.0352	0.3017
228.2513	0.3171
228.4675	0.3068
228.6836	0.3071
228.8997	0.2849
229.1158	0.3046
229.3319	0.3035
229.548	0.329
229.764	0.334
229.9801	0.3102
230.1961	0.3192
230.4121	0.327
230.6282	0.3275
230.8442	0.3409
231.0602	0.3488
231.2761	0.3657
231.4921	0.3498
231.7081	0.3586
231.924	0.3495
232.14	0.3695
232.3559	0.34
232.5718	0.357
232.7877	0.3575
233.0036	0.3444
233.2195	0.3694
233.4353	0.3611
233.6512	0.3816
233.867	0.363
234.0829	0.3544
234.2987	0.3624
234.5145	0.3769
234.7303	0.3665
234.9461	0.3965
235.1619	0.3852
235.3776	0.4024
235.5934	0.3715
235.8091	0.3565
236.0249	0.392
236.2406	0.3914
236.4563	0.3912
236.672	0.4053
236.8877	0.4004
237.1034	0.3799
237.319	0.39
237.5347	0.4203
237.7503	0.402
237.966	0.4057
238.1816	0.4083
238.3972	0.4113
238.6128	0.4019
238.8284	0.4085
239.0439	0.4141
239.2595	0.4057
239.475	0.4225
239.6906	0.412
239.9061	0.4053
240.1216	0.4136
240.3371	0.407
240.5526	0.4133
240.7681	0.4254
240.9836	0.3815
241.199	0.3901
241.4145	0.3973
241.6299	0.3844
241.8453	0.3785
242.0607	0.3675
242.2761	0.3593
242.4915	0.3592
242.7069	0.3694
242.9223	0.3654
243.1376	0.3425
243.353	0.3545
243.5683	0.3589
243.7836	0.3253
243.9989	0.332
244.2142	0.3162
244.4295	0.3041
244.6448	0.3091
244.86	0.2889
245.0753	0.2836
245.2905	0.2883
245.5057	0.2713
245.721	0.2771
245.9362	0.2564
246.1514	0.2671
246.3665	0.2558
246.5817	0.2396
246.7969	0.2551
247.012	0.2441
247.2271	0.2482
247.4423	0.2372
247.6574	0.2463
247.8725	0.2298
248.0876	0.2227
248.3026	0.2227
248.5177	0.228
248.7328	0.2223
248.9478	0.2113
249.1628	0.1987
249.3779	0.2213
249.5929	0.208
249.8079	0.2028
250.0228	0.1927
250.2378	0.1942
250.4528	0.1861
250.6677	0.1858
250.8827	0.1936
251.0976	0.197
251.3125	0.1957
251.5274	0.181
251.7423	0.186
251.9572	0.1766
252.172	0.1846
252.3869	0.1835
252.6017	0.1682
252.8166	0.1641
253.0314	0.1491
253.2462	0.17
253.461	0.1832
253.6758	0.1723
253.8906	0.178
254.1053	0.1753
254.3201	0.1736
254.5348	0.1858
254.7496	0.1803
254.9643	0.1596
255.179	0.1756
255.3937	0.1549
255.6083	0.1771
255.823	0.1796
256.0377	0.1708
256.2523	0.1727
256.467	0.1577
256.6816	0.1772
256.8962	0.1636
257.1108	0.1596
257.3254	0.1781
257.54	0.1613
257.7545	0.1711
257.9691	0.1709
258.1836	0.1683
258.3981	0.1841
258.6127	0.1804
258.8272	0.1642
259.0417	0.1594
259.2561	0.1672
259.4706	0.1625
259.6851	0.1631
259.8995	0.1605
260.114	0.1579
260.3284	0.1585
260.5428	0.1643
260.7572	0.1578
260.9716	0.177
261.186	0.155
261.4003	0.1722
261.6147	0.1637
261.829	0.1658
262.0433	0.1586
262.2577	0.1578
262.472	0.1588
262.6863	0.163
262.9005	0.1734
263.1148	0.1675
263.3291	0.142
263.5433	0.1634
263.7576	0.1622
263.9718	0.1469
264.186	0.1657
264.4002	0.1659
264.6144	0.1597
264.8286	0.1731
265.0427	0.164
265.2569	0.1491
265.471	0.1538
265.6851	0.1584
265.8993	0.1583
266.1134	0.1555
266.3275	0.1655
266.5415	0.1511
266.7556	0.1528
266.9697	0.1564
267.1837	0.1548
267.3978	0.1567
267.6118	0.1786
267.8258	0.1789
268.0398	0.1581
268.2538	0.1603
268.4677	0.1637
268.6817	0.1455
268.8957	0.1618
269.1096	0.1555
269.3235	0.1595
269.5374	0.1407
269.7514	0.1517
269.9652	0.1493
270.1791	0.1299
270.393	0.1445
270.6068	0.1603
270.8207	0.1397
271.0345	0.1381
271.2483	0.1493
271.4622	0.1451
271.676	0.1424
271.8897	0.139
272.1035	0.1388
272.3173	0.1448
272.531	0.1442
272.7448	0.1409
272.9585	0.1277
273.1722	0.1386
273.3859	0.147
273.5996	0.1353
273.8133	0.1433
274.0269	0.1362
274.2406	0.1228
274.4542	0.1329
274.6679	0.126
274.8815	0.1348
275.0951	0.1378
275.3087	0.1393
275.5223	0.1467
275.7358	0.1454
275.9494	0.1598
276.1629	0.1311
276.3765	0.1328
276.59	0.134
276.8035	0.1449
277.017	0.1418
277.2305	0.1331
277.444	0.1532
277.6574	0.129
277.8709	0.1393
278.0843	0.1329
278.2978	0.1347
278.5112	0.1371
278.7246	0.1301
278.938	0.1471
279.1513	0.1408
279.3647	0.1581
279.5781	0.1321
279.7914	0.1508
280.0047	0.1578
280.2181	0.1382
280.4314	0.1491
280.6447	0.1428
280.8579	0.1454
281.0712	0.1504
281.2845	0.146
281.4977	0.1499
281.711	0.1419
281.9242	0.1367
282.1374	0.1387
282.3506	0.1279
282.5638	0.1428
282.7769	0.1394
282.9901	0.1391
283.2033	0.1595
283.4164	0.1515
283.6295	0.1503
283.8426	0.1486
284.0557	0.1493
284.2688	0.1635
284.4819	0.1431
284.695	0.1537
284.908	0.1632
285.1211	0.1572
285.3341	0.1494
285.5471	0.1548
285.7601	0.162
285.9731	0.1563
286.1861	0.1552
286.3991	0.1634
286.612	0.1611
286.825	0.1545
287.0379	0.166
287.2508	0.1516
287.4637	0.1627
287.6766	0.1499
287.8895	0.1698
288.1024	0.1728
288.3152	0.1669
288.5281	0.1615
288.7409	0.1644
288.9538	0.1632
289.1666	0.155
289.3794	0.1646
289.5922	0.1533
289.8049	0.1679
290.0177	0.1651
290.2304	0.1613
290.4432	0.1699
290.6559	0.173
290.8686	0.1792
291.0813	0.1611
291.294	0.1751
291.5067	0.1769
291.7194	0.167
291.932	0.1692
292.1447	0.1585
292.3573	0.1771
292.5699	0.1644
292.7825	0.1633
292.9951	0.1702
293.2077	0.168
293.4203	0.1644
293.6328	0.159
293.8454	0.1802
294.0579	0.1663
294.2704	0.1693
294.4829	0.1617
294.6954	0.1652
294.9079	0.1749
295.1204	0.1704
295.3328	0.1704
295.5453	0.1682
295.7577	0.1661
295.9701	0.159
296.1825	0.1733
296.3949	0.1578
296.6073	0.1594
296.8197	0.1553
297.0321	0.1733
297.2444	0.1519
297.4567	0.1684
297.6691	0.1702
297.8814	0.1596
298.0937	0.1671
298.306	0.1745
298.5182	0.1796
298.7305	0.1669
298.9428	0.1642
299.155	0.1725
299.3672	0.1627
299.5794	0.1628
299.7916	0.1699
300.0038	0.1668
300.216	0.1778
300.4282	0.1773
300.6403	0.1582
300.8525	0.1791
301.0646	0.1543
301.2767	0.1724
301.4888	0.1667
301.7009	0.1732
301.913	0.1759
302.125	0.1738
302.3371	0.155
302.5491	0.1663
302.7612	0.1719
302.9732	0.1772
303.1852	0.1775
303.3972	0.1526
303.6092	0.1541
303.8211	0.1546
304.0331	0.1589
304.245	0.1546
304.457	0.1548
304.6689	0.1697
304.8808	0.1682
305.0927	0.1517
305.3046	0.1643
305.5164	0.1599
305.7283	0.1449
305.9401	0.1404
306.152	0.1414
306.3638	0.1504
306.5756	0.1503
306.7874	0.1489
306.9992	0.15
307.2109	0.1441
307.4227	0.1332
307.6344	0.1449
307.8462	0.1457
308.0579	0.1378
308.2696	0.131
308.4813	0.1355
308.693	0.1267
308.9046	0.1354
309.1163	0.1313
309.328	0.1265
309.5396	0.129
309.7512	0.11
309.9628	0.1284
310.1744	0.1061
310.386	0.1211
310.5976	0.1232
310.8091	0.1232
311.0207	0.1167
311.2322	0.1171
311.4437	0.1078
311.6552	0.1105
311.8667	0.1203
312.0782	0.0965
312.2897	0.0927
312.5012	0.1199
312.7126	0.0961
312.924	0.1009
313.1355	0.1153
313.3469	0.1082
313.5583	0.1137
313.7696	0.1099
313.981	0.1028
314.1924	0.0908
314.4037	0.0966
314.6151	0.1067
314.8264	0.0907
315.0377	0.0992
315.249	0.1043
315.4603	0.0989
315.6716	0.105
315.8828	0.0888
316.0941	0.0914
316.3053	0.0905
316.5165	0.0792
316.7277	0.0901
316.9389	0.0963
317.1501	0.1044
317.3613	0.0974
317.5724	0.0782
317.7836	0.094
317.9947	0.0867
318.2058	0.096
318.417	0.0845
318.6281	0.087
318.8391	0.0897
319.0502	0.0922
319.2613	0.0862
319.4723	0.0954
319.6834	0.0944
319.8944	0.0882
320.1054	0.104
320.3164	0.0936
320.5274	0.0964
320.7383	0.0829
320.9493	0.0894
321.1602	0.098
321.3712	0.0854
321.5821	0.0921
321.793	0.0931
322.0039	0.0911
322.2148	0.0889
322.4257	0.0985
322.6365	0.0998
322.8474	0.1051
323.0582	0.0913
323.269	0.0927
323.4798	0.1106
323.6906	0.0995
323.9014	0.0935
324.1122	0.1011
324.3229	0.1012
324.5337	0.0924
324.7444	0.0819
324.9551	0.1031
325.1658	0.0941
325.3765	0.0956
325.5872	0.0998
325.7979	0.0892
326.0085	0.0844
326.2192	0.0998
326.4298	0.0957
326.6404	0.0941
326.851	0.0923
327.0616	0.0957
327.2722	0.0945
327.4828	0.1024
327.6933	0.0988
327.9039	0.1096
328.1144	0.1019
328.3249	0.1102
328.5354	0.0864
328.7459	0.102
328.9564	0.0909
329.1669	0.0987
329.3773	0.0942
329.5878	0.0971
329.7982	0.1032
330.0086	0.1057
330.219	0.1115
330.4294	0.1061
330.6398	0.0999
330.8502	0.0918
331.0605	0.0913
331.2708	0.1036
331.4812	0.1058
331.6915	0.1046
331.9018	0.104
332.1121	0.0964
332.3224	0.0963
332.5326	0.0879
332.7429	0.1083
332.9531	0.1118
333.1633	0.1111
333.3735	0.1044
333.5837	0.0923
333.7939	0.0984
334.0041	0.1177
334.2143	0.1115
334.4244	0.1053
334.6346	0.0854
334.8447	0.1083
335.0548	0.0978
335.2649	0.0916
335.475	0.11
335.685	0.1003
335.8951	0.1131
336.1051	0.1024
336.3152	0.1103
336.5252	0.0913
336.7352	0.0964
336.9452	0.1059
337.1552	0.1137
337.3652	0.1038
337.5751	0.0981
337.7851	0.101
337.995	0.1006
338.2049	0.1088
338.4148	0.108
338.6247	0.1072
338.8346	0.1003
339.0445	0.0986
339.2543	0.0976
339.4642	0.1128
339.674	0.0798
339.8838	0.0999
340.0936	0.1063
340.3034	0.1026
340.5132	0.1106
340.7229	0.1187
340.9327	0.1042
341.1424	0.118
341.3522	0.1147
341.5619	0.119
341.7716	0.1152
341.9813	0.1222
342.1909	0.1063
342.4006	0.1322
342.6102	0.1298
342.8199	0.112
343.0295	0.129
343.2391	0.1155
343.4487	0.1386
343.6583	0.1069
343.8679	0.1207
344.0774	0.1168
344.287	0.1148
344.4965	0.1264
344.706	0.1318
344.9155	0.1147
345.125	0.1276
345.3345	0.1159
345.544	0.1203
345.7534	0.1097
345.9629	0.1211
346.1723	0.1368
346.3817	0.1162
346.5911	0.1166
346.8005	0.1162
347.0099	0.1153
347.2193	0.1359
347.4286	0.1226
347.638	0.1454
347.8473	0.1292
348.0566	0.1272
348.2659	0.131
348.4752	0.1384
348.6845	0.1297
348.8937	0.1218
349.103	0.1389
349.3122	0.1314
349.5214	0.1362
349.7306	0.1259
349.9398	0.1311
350.149	0.1348
350.3582	0.1333
350.5674	0.1506
350.7765	0.143
350.9856	0.1363
351.1948	0.138
351.4039	0.1138
351.613	0.1349
351.822	0.1397
352.0311	0.1477
352.2402	0.1309
352.4492	0.1436
352.6582	0.1469
352.8672	0.1385
353.0762	0.1601
353.2852	0.1342
353.4942	0.1306
353.7032	0.1483
353.9121	0.1585
354.1211	0.1465
354.33	0.1557
354.5389	0.1372
354.7478	0.1403
354.9567	0.1394
355.1655	0.1376
355.3744	0.1426
355.5833	0.1555
355.7921	0.1706
356.0009	0.1598
356.2097	0.1786
356.4185	0.1704
356.6273	0.1693
356.8361	0.1663
357.0448	0.1438
357.2536	0.1416
357.4623	0.1463
357.671	0.171
357.8797	0.1712
358.0884	0.1664
358.2971	0.158
358.5057	0.1686
358.7144	0.1794
358.923	0.1544
359.1316	0.1697
359.3402	0.1662
359.5488	0.1645
359.7574	0.1714
359.966	0.1601
360.1746	0.1765
360.3831	0.1774
360.5916	0.1689
360.8002	0.1807
361.0087	0.1791
361.2172	0.1832
361.4256	0.1681
361.6341	0.1804
361.8426	0.1779
362.051	0.183
362.2594	0.1843
362.4678	0.1862
362.6762	0.2007
362.8846	0.1858
363.093	0.1961
363.3014	0.1874
363.5097	0.1698
363.718	0.1792
363.9264	0.1822
364.1347	0.1829
364.343	0.1972
364.5513	0.2026
364.7595	0.2037
364.9678	0.1952
365.176	0.1976
365.3842	0.1858
365.5925	0.1999
365.8007	0.1904
366.0089	0.2069
366.217	0.1963
366.4252	0.1952
366.6333	0.2237
366.8415	0.1998
367.0496	0.2071
367.2577	0.2095
367.4658	0.2144
367.6739	0.2078
367.882	0.2086
368.09	0.2031
368.2981	0.1917
368.5061	0.2057
368.7141	0.2118
368.9221	0.2266
369.1301	0.2116
369.3381	0.2069
369.5461	0.2132
369.754	0.2148
369.962	0.2453
370.1699	0.2208
370.3778	0.2209
370.5857	0.2055
370.7936	0.2313
371.0015	0.229
371.2093	0.2495
371.4172	0.222
371.625	0.2049
371.8328	0.2196
372.0406	0.2288
372.2484	0.2402
372.4562	0.2114
372.664	0.2421
372.8717	0.2417
373.0795	0.2141
373.2872	0.2266
373.4949	0.2343
373.7026	0.2124
373.9103	0.2466
374.118	0.2398
374.3256	0.2359
374.5333	0.2246
374.7409	0.2412
374.9485	0.2409
375.1561	0.2373
375.3637	0.2555
375.5713	0.2472
375.7789	0.2439
375.9864	0.2425
376.194	0.2488
376.4015	0.2515
376.609	0.2506
376.8165	0.2511
377.024	0.2412
377.2315	0.2301
377.4389	0.2419
377.6464	0.2491
377.8538	0.2471
378.0612	0.2507
378.2686	0.2607
378.476	0.2684
378.6834	0.2561
378.8908	0.2576
379.0981	0.2652
379.3055	0.2582
379.5128	0.2582
379.7201	0.2712
379.9274	0.2661
380.1347	0.2506
380.342	0.2926
380.5492	0.2575
380.7565	0.2529
380.9637	0.2666
381.1709	0.2687
381.3781	0.27
381.5853	0.2753
381.7925	0.2647
381.9997	0.2586
382.2068	0.2819
382.4139	0.2816
382.6211	0.2597
382.8282	0.2538
383.0353	0.2589
383.2424	0.2594
383.4494	0.2753
383.6565	0.2667
383.8635	0.2902
384.0706	0.2683
384.2776	0.2646
384.4846	0.2662
384.6916	0.2791
384.8986	0.2692
385.1055	0.2747
385.3125	0.257
385.5194	0.2513
385.7263	0.2854
385.9333	0.267
386.1402	0.2817
386.347	0.2717
386.5539	0.2597
386.7608	0.2716
386.9676	0.2473
387.1744	0.2621
387.3813	0.2674
387.5881	0.2737
387.7948	0.2776
388.0016	0.2641
388.2084	0.2652
388.4151	0.2667
388.6219	0.2763
388.8286	0.2544
389.0353	0.3006
389.242	0.2801
389.4487	0.256
389.6553	0.2665
389.862	0.228
390.0686	0.2596
390.2753	0.2673
390.4819	0.2597
390.6885	0.2598
390.8951	0.2623
391.1016	0.2528
391.3082	0.248
391.5147	0.2518
391.7213	0.2602
391.9278	0.2361
392.1343	0.2543
392.3408	0.2409
392.5473	0.2574
392.7537	0.2362
392.9602	0.249
393.1666	0.2449
393.373	0.2508
393.5794	0.2518
393.7858	0.237
393.9922	0.2324
394.1986	0.2629
394.4049	0.2269
394.6113	0.2363
394.8176	0.2187
395.0239	0.2388
395.2302	0.2386
395.4365	0.2382
395.6428	0.2325
395.8491	0.2165
396.0553	0.2341
396.2615	0.2356
396.4678	0.2256
396.674	0.2149
396.8802	0.2335
397.0863	0.2588
397.2925	0.222
397.4987	0.2183
397.7048	0.2144
397.9109	0.22
398.117	0.2175
398.3231	0.2233
398.5292	0.2431
398.7353	0.2248
398.9413	0.2178
399.1474	0.2094
399.3534	0.2143
399.5594	0.2026
399.7654	0.2366
399.9714	0.2273
400.1774	0.2173
400.3833	0.2373
400.5893	0.2266
400.7952	0.2199
401.0011	0.2288
401.207	0.2475
401.4129	0.2369
401.6188	0.2344
401.8247	0.2261
402.0305	0.2143
402.2364	0.2124
402.4422	0.2358
402.648	0.2275
402.8538	0.2285
403.0596	0.2037
403.2654	0.2196
403.4711	0.217
403.6768	0.2476
403.8826	0.2381
404.0883	0.2399
404.294	0.243
404.4997	0.225
404.7054	0.2137
404.911	0.2022
405.1167	0.2263
405.3223	0.2326
405.5279	0.2345
405.7335	0.2404
405.9391	0.2203
406.1447	0.238
406.3502	0.2575
406.5558	0.2228
406.7613	0.2161
406.9668	0.229
407.1724	0.2123
407.3778	0.2189
407.5833	0.23
407.7888	0.2134
407.9942	0.2589
408.1997	0.2192
408.4051	0.2241
408.6105	0.2212
408.8159	0.2272
409.0213	0.2275
409.2267	0.2427
409.432	0.2027
409.6374	0.2259
409.8427	0.2115
410.048	0.2373
410.2533	0.2082
410.4586	0.2176
410.6639	0.2065
410.8691	0.2122
411.0744	0.2279
411.2796	0.2233
411.4848	0.2237
411.69	0.2358
411.8952	0.2246
412.1004	0.2172
412.3056	0.2438
412.5107	0.2301
412.7158	0.2175
412.921	0.2169
413.1261	0.2271
413.3312	0.2179
413.5362	0.2217
413.7413	0.2235
413.9464	0.2201
414.1514	0.2236
414.3564	0.2166
414.5614	0.2117
414.7664	0.2222
414.9714	0.2331
415.1764	0.2343
415.3813	0.2291
415.5863	0.2181
415.7912	0.2262
415.9961	0.2203
416.201	0.2125
416.4059	0.2275
416.6108	0.2157
416.8156	0.2407
417.0205	0.2123
417.2253	0.2025
417.4301	0.2256
417.6349	0.2195
417.8397	0.2072
418.0445	0.2182
418.2492	0.2066
418.454	0.2089
418.6587	0.2258
418.8634	0.2019
419.0681	0.1983
419.2728	0.2176
419.4775	0.2126
419.6822	0.2009
419.8868	0.1953
420.0915	0.2081
420.2961	0.1993
420.5007	0.1993
420.7053	0.2117
420.9099	0.2033
421.1144	0.2111
421.319	0.2128
421.5235	0.2131
421.728	0.1996
421.9325	0.2115
422.137	0.2345
422.3415	0.2027
422.546	0.2252
422.7504	0.2035
422.9549	0.204
423.1593	0.2004
423.3637	0.2084
423.5681	0.1928
423.7725	0.1944
423.9769	0.1858
424.1812	0.2043
424.3856	0.1886
424.5899	0.1899
424.7942	0.2034
424.9985	0.1895
425.2028	0.1813
425.4071	0.2069
425.6113	0.1852
425.8156	0.1961
426.0198	0.1938
426.224	0.1809
426.4282	0.1775
426.6324	0.179
426.8366	0.1885
427.0407	0.1859
427.2449	0.1822
427.449	0.1895
427.6531	0.174
427.8572	0.1684
428.0613	0.1805
428.2654	0.1828
428.4694	0.1563
428.6735	0.1891
428.8775	0.1821
429.0815	0.1821
429.2855	0.1678
429.4895	0.1783
429.6935	0.1614
429.8975	0.166
430.1014	0.1534
430.3053	0.1416
430.5093	0.1607
430.7132	0.1423
430.9171	0.1607
431.1209	0.1601
431.3248	0.1516
431.5286	0.156
431.7325	0.1548
431.9363	0.133
432.1401	0.1548
432.3439	0.1348
432.5477	0.1193
432.7514	0.1377
432.9552	0.1495
433.1589	0.1129
433.3627	0.1283
433.5664	0.1379
433.7701	0.1201
433.9737	0.1272
434.1774	0.1144
434.3811	0.1241
434.5847	0.1388
434.7883	0.1238
434.9919	0.1236
435.1955	0.1107
435.3991	0.1166
435.6027	0.1123
435.8062	0.1306
436.0098	0.1065
436.2133	0.124
436.4168	0.1123
436.6203	0.1003
436.8238	0.1119
437.0272	0.098
437.2307	0.1216
437.4341	0.0983
437.6375	0.1083
437.841	0.0986
438.0443	0.101
438.2477	0.1056
438.4511	0.0956
438.6545	0.1021
438.8578	0.1114
439.0611	0.1048
439.2644	0.0889
439.4677	0.0764
439.671	0.0928
439.8743	0.0956
440.0775	0.0921
440.2808	0.089
440.484	0.0745
440.6872	0.0724
440.8904	0.0784
441.0936	0.1021
441.2967	0.0756
441.4999	0.0817
441.703	0.0597
441.9062	0.0607
442.1093	0.0734
442.3124	0.0728
442.5155	0.0639
442.7185	0.0646
442.9216	0.0471
443.1246	0.0723
443.3276	0.0522
443.5307	0.0653
443.7337	0.0748
443.9366	0.0612
444.1396	0.0566
444.3426	0.0587
444.5455	0.0545
444.7484	0.0612
444.9513	0.0435
445.1542	0.0703
445.3571	0.0561
445.56	0.068
445.7628	0.0459
445.9657	0.053
446.1685	0.0638
446.3713	0.0597
446.5741	0.0523
446.7769	0.041
446.9797	0.0452
447.1824	0.0461
447.3852	0.0254
447.5879	0.0511
447.7906	0.0563
447.9933	0.0475
448.196	0.0447
448.3986	0.0364
448.6013	0.0364
448.8039	0.0308
449.0066	0.0319
449.2092	0.0402
449.4118	0.0344
449.6143	0.0281
449.8169	0.0366
450.0195	0.0379
450.222	0.0193
450.4245	0.0281
450.627	0.0327
450.8295	0.0395
451.032	0.0322
451.2345	0.0348
451.4369	0.0257
451.6394	0.024
451.8418	0.0134
452.0442	0.0091
452.2466	0.0345
452.449	0.0098
452.6513	0.0342
452.8537	0.0189
453.056	0.0088
453.2583	0.0197
453.4607	0.0246
453.663	0.0373
453.8652	0.0259
454.0675	0.0022
454.2697	0.0302
454.472	0.0169
454.6742	0.0313
454.8764	0.0298
455.0786	0.0122
455.2808	0.0156
455.4829	0.0203
455.6851	0.0255
455.8872	0.0316
456.0893	0.0279
456.2915	0.0018
456.4935	0.0274
456.6956	-0.0024
456.8977	0.0164
457.0997	0.0103
457.3018	0.0037
457.5038	0.0283
457.7058	0.0077
457.9078	0.007
458.1098	0.0283
458.3117	0.0185
458.5137	0.0125
458.7156	0.0125
458.9175	-0.0085
459.1194	0.0126
459.3213	0.0014
459.5232	0.0073
459.725	-0.0006
459.9269	-0.0063
460.1287	0.0042
460.3305	-0.0002
460.5323	0.0036
460.7341	-0.0068
460.9359	0.005
461.1376	0.0257
461.3394	-0.0069
461.5411	0.0058
461.7428	0.0093
461.9445	0.017
462.1462	0.0121
462.3479	-0.002
462.5495	0.0059
462.7512	0.0011
462.9528	0.0033
463.1544	-0.0121
463.356	-0.0009
463.5576	0.0036
463.7592	-0.0008
463.9607	0.0075
464.1623	0.0069
464.3638	0.0094
464.5653	0.0023
464.7668	0.0046
464.9683	0.0157
465.1697	0.0188
465.3712	-0.0006
465.5726	-0.0058
465.7741	-0.0093
465.9755	-0.0065
466.1769	-0.0028
466.3782	-0.0049
466.5796	-0.008
466.7809	0.012
466.9823	-0.0147
467.1836	0.0101
467.3849	-0.0009
467.5862	0.0085
467.7875	-0.0152
467.9887	0.022
468.19	0.007
468.3912	0.0006
468.5924	0.009
468.7936	0.0124
468.9948	0.0015
469.196	0.0156
469.3972	0.005
469.5983	0.0242
469.7994	-0.0093
470.0006	-0.0049
470.2017	-0.0056
470.4027	-0.0111
470.6038	0.0137
470.8049	-0.0082
471.0059	-0.008
471.2069	-0.0117
471.408	0.0103
471.6089	0.0181
471.8099	-0.0016
472.0109	0.0237
472.2119	0.0105
472.4128	-0.0243
472.6137	0.0115
472.8146	-0.0173
473.0155	0.0004
473.2164	0.002
473.4173	0.0063
473.6181	-0.0021
473.819	-0.0057
474.0198	-0.0108
474.2206	0.0014
474.4214	0.0031
474.6222	0.0053
474.8229	-0.0057
475.0237	-0.0058
475.2244	-0.0008
475.4251	-0.0051
475.6258	0.0032
475.8265	-0.0073
476.0272	0.0145
476.2278	0.0129
476.4285	-0.0006
476.6291	-0.0057
476.8297	-0.0056
477.0303	-0.0178
477.2309	-0.0001
477.4315	-0.0065
477.632	-0.0022
477.8326	-0.0024
478.0331	-0.0068
478.2336	-0.0008
478.4341	-0.0041
478.6346	-0.0002
478.8351	-0.0052
479.0355	-0.0002
479.236	0.0008
479.4364	0.0042
479.6368	0.0054
479.8372	-0.0054
480.0376	0.0007
480.2379	-0.0189
480.4383	-0.0019
480.6386	-0.0011
480.8389	-0.0033
481.0392	0.0004
481.2395	-0.016
481.4398	-0.0004
481.6401	-0.0021
481.8403	0.0047
482.0405	-0.0063
482.2408	-0.008
482.441	0.0097
482.6411	-0.0018
482.8413	0.0088
483.0415	-0.0003
483.2416	-0.0131
483.4417	0.0068
483.6419	-0.0097
483.8419	0.0036
484.042	0.0039
484.2421	0.0032
484.4422	0.0014
484.6422	-0.0037
484.8422	-0.0007
485.0422	-0.0109
485.2422	0.0012
485.4422	-0.0115
485.6422	-0.0126
485.8421	-0.0067
486.042	-0.0035
486.242	-0.0021
486.4419	-0.0071
486.6417	-0.0068
486.8416	0.0017
487.0415	-0.0089
487.2413	-0.0077
487.4411	-0.0157
487.641	-0.0083
487.8408	0.0027
488.0405	-0.0056
488.2403	-0.0055
488.4401	0.0078
488.6398	0.0069
488.8395	-0.0107
489.0392	-0.0043
489.2389	0.0015
489.4386	-0.0064
489.6383	0.0006
489.8379	0.0033
490.0376	0.0002
490.2372	-0.0122
490.4368	-0.0129
490.6364	-0.0026
490.836	-0.0053
491.0355	-0.0052
491.2351	-0.0084
491.4346	0.0013
491.6341	-0.0288
491.8336	0.0037
492.0331	-0.013
492.2326	-0.0086
492.432	0.0024
492.6315	-0.0102
492.8309	-0.0057
493.0303	-0.0044
493.2297	-0.0018
493.4291	-0.0009
493.6284	-0.0048
493.8278	-0.0036
494.0271	0.0022
494.2264	0.0088
494.4257	-0.0052
494.625	0.0029
494.8243	-0.0173
495.0236	0.0004
495.2228	-0.0133
495.422	-0.0009
495.6213	0.0008
495.8205	-0.0045
496.0196	-0.0019
496.2188	0.0101
496.418	-0.0112
496.6171	-0.0117
496.8162	-0.008
497.0153	-0.0093
497.2144	-0.0052
497.4135	-0.0029
497.6126	-0.0123
497.8116	-0.0062
498.0107	0.0029
498.2097	-0.014
498.4087	-0.017
498.6077	-0.0004
498.8067	-0.0085
499.0056	0.0071
499.2046	-0.0068
499.4035	-0.0193
499.6024	-0.0057
499.8013	0.0105
500.0002	-0.0027
500.199	0.0009
500.3979	-0.0081
500.5967	-0.0238
500.7956	0.0085
500.9944	-0.0042
501.1932	-0.0135
501.3919	-0.0114
501.5907	-0.0128
501.7895	0.0036
501.9882	-0.014
502.1869	-0.0101
502.3856	-0.0113
502.5843	-0.0026
502.783	-0.0124
502.9816	-0.0034
503.1803	-0.0113
503.3789	-0.0135
503.5775	-0.0007
503.7761	-0.0039
503.9747	-0.0042
504.1732	0.0003
504.3718	0.0035
504.5703	-0.0072
504.7689	-0.0085
504.9674	-0.0007
505.1658	-0.0054
505.3643	0.0006
505.5628	-0.0017
505.7612	-0.0065
505.9597	0.011
506.1581	0.0021
506.3565	0.009
506.5549	0.0027
506.7532	-0.0106
506.9516	-0.0115
507.1499	-0.003
507.3482	-0.0111
507.5465	-0.0086
507.7448	0.0062
507.9431	-0.0027
508.1414	0.0014
508.3396	-0.0098
508.5379	-0.0055
508.7361	-0.0077
508.9343	0.0028
509.1325	0.0043
509.3306	0.003
509.5288	-0.0085
509.7269	-0.0081
509.9251	-0.0039
510.1232	-0.0097
510.3213	0.0035
510.5193	-0.0058
510.7174	-0.0144
510.9154	-0.0128
511.1135	-0.01
511.3115	-0.0063
511.5095	-0.0043
511.7075	-0.0044
511.9055	-0.0057
512.1034	-0.0043
512.3014	-0.0005
512.4993	-0.0015
512.6972	-0.0036
512.8951	-0.0151
513.093	-0.0009
513.2908	0.0029
513.4887	0.0074
513.6865	-0.0116
513.8844	-0.0055
514.0822	-0.0038
514.2799	-0.008
514.4777	-0.0106
514.6755	-0.0032
514.8732	-0.0056
515.0709	-0.0093
515.2687	-0.0101
515.4664	-0.0031
515.664	-0.0002
515.8617	-0.0087
516.0594	-0.0106
516.257	-0.0041
516.4546	-0.0147
516.6522	0.0089
516.8498	-0.0004
517.0474	0.0024
517.2449	0.0034
517.4425	-0.0158
517.64	-0.0061
517.8375	0.0065
518.035	-0.0027
518.2325	-0.0129
518.43	-0.011
518.6274	-0.0131
518.8249	-0.0095
519.0223	-0.0017
519.2197	-0.0135
519.4171	-0.0076
519.6145	-0.0018
519.8118	0.0046
520.0092	-0.003
520.2065	-0.0132
520.4038	-0.002
520.6011	0.0058
520.7984	-0.0122
520.9956	-0.007
521.1929	-0.0124
521.3901	-0.0028
521.5874	0.0113
521.7846	-0.0018
521.9818	0.0008
522.1789	-0.0069
522.3761	0.003
522.5732	-0.0078
522.7704	-0.0022
522.9675	-0.0031
523.1646	-0.0081
523.3617	-0.0029
523.5587	-0.0049
523.7558	0.0053
523.9528	-0.005
524.1498	0.0035
524.3468	-0.0013
524.5438	-0.0086
524.7408	0.0046
524.9378	0.0021
525.1347	-0.0007
525.3316	0.0005
525.5285	-0.0098
525.7254	-0.0005
525.9223	0.0007
526.1192	-0.0054
526.316	-0.0078
526.5129	0.0029
526.7097	0.0029
526.9065	-0.0121
527.1033	-0.0048
527.3	0.002
527.4968	0.0011
527.6935	0.0056
527.8903	-0.0059
528.087	-0.003
528.2837	-0.0008
528.4804	-0.0053
528.677	-0.0077
528.8737	0.0151
529.0703	-0.0036
529.2669	-0.0014
529.4635	-0.02
529.6601	-0.0077
529.8567	-0.0066
530.0532	-0.0097
530.2498	0.0026
530.4463	0.0106
530.6428	-0.0129
530.8393	0.005
531.0358	0.0061
531.2322	0.0103
531.4287	-0.0123
531.6251	-0.0102
531.8215	0.0056
532.0179	0.0004
532.2143	-0.0016
532.4107	0.0003
532.607	-0.0045
532.8034	0.0003
532.9997	0.0038
533.196	-0.0031
533.3923	-0.0012
533.5886	0.0012
533.7848	0.0088
533.9811	-0.0061
534.1773	0.009
534.3735	-0.002
534.5697	-0.0035
534.7659	0.0009
534.9621	0.0001
535.1582	-0.0095
535.3544	-0.0082
535.5505	-0.0105
535.7466	-0.0087
535.9427	-0.0069
536.1387	-0.001
536.3348	-0.0079
536.5308	0.0043
536.7269	-0.017
536.9229	-0.004
537.1189	0.0017
537.3148	-0.0093
537.5108	-0.0081
537.7068	0.0013
537.9027	-0.0114
538.0986	-0.0012
538.2945	-0.0117
538.4904	-0.002
538.6863	-0.0049
538.8821	-0.0081
539.078	0.006
539.2738	0.0082
539.4696	-0.0101
539.6654	0.0011
539.8611	0.0144
540.0569	0.0023
540.2526	-0.008
540.4484	0.0052
540.6441	0.0102
540.8398	0.006
541.0355	0.0066
541.2311	0.0002
541.4268	-0.005
541.6224	0.0018
541.818	0.0102
542.0136	-0.0138
542.2092	0.0011
542.4048	-0.0021
542.6003	-0.0019
542.7959	0.0004
542.9914	0.0005
543.1869	0.0017
543.3824	-0.0015
543.5779	0.0018
543.7734	-0.0054
543.9688	-0.0057
544.1642	0.0016
544.3596	0.0044
544.555	-0.0069
544.7504	0.006
544.9458	-0.0057
545.1411	0.0027
545.3365	-0.0006
545.5318	-0.0101
545.7271	-0.0019
545.9224	0.0001
546.1177	-0.0049
546.3129	0.0006
546.5081	-0.0022
546.7034	-0.0009
546.8986	-0.0128
547.0938	-0.0049
547.289	-0.0119
547.4841	0
547.6793	0.0041
547.8744	-0.0038
548.0695	0.0034
548.2646	0.0001
548.4597	-0.0057
548.6548	-0.0004
548.8498	0.0069
549.0448	0.003
549.2399	0.0006
549.4349	0.0088
549.6298	0.0012
549.8248	0.0041
550.0198	-0.002
550.2147	-0.0031
550.4096	-0.0074
550.6045	-0.0007
550.7994	0.0044
550.9943	0.0036
551.1892	0.0049
551.384	0.002
551.5788	-0.0098
551.7737	0.0036
551.9685	0.0026
552.1632	0.0031
552.358	-0.0011
552.5528	0.0014
552.7475	-0.0007
552.9422	-0.0015
553.1369	0.0037
553.3316	-0.0026
553.5263	-0.0047
553.7209	0.0085
553.9156	-0.005
554.1102	-0.0054
554.3048	-0.0059
554.4994	0.0085
554.694	-0.009
554.8885	0.0061
555.0831	-0.0033
555.2776	-0.009
555.4721	0.0049
555.6666	0.0016
555.8611	0.006
556.0555	0.0111
556.25	-0.0008
556.4444	-0.0087
556.6388	0.0048
556.8332	0.0024
557.0276	0.0024
557.222	0.0017
557.4163	0.0034
557.6107	0.0013
557.805	0.0077
557.9993	0.0043
558.1936	0.0041
558.3879	0.0031
558.5821	0.0024
558.7764	-0.0119
558.9706	0.0037
559.1648	0.0038
559.359	-0.0056
559.5532	-0.0056
559.7473	-0.0014
559.9415	0.0023
560.1356	-0.0053
560.3297	-0.0108
560.5238	-0.0053
560.7179	-0.0061
560.9119	0.0027
561.106	-0.001
561.3	-0.0079
561.494	-0.0073
561.688	-0.0017
561.882	-0.0094
562.076	-0.0018
562.2699	0.0064
562.4639	0.0015
562.6578	-0.0004
562.8517	0.0004
563.0456	-0.0016
563.2395	-0.0007
563.4333	0.0035
563.6272	0.0052
563.821	-0.0053
564.0148	-0.0006
564.2086	-0.0062
564.4024	0.0026
564.5961	-0.0023
564.7899	0.0085
564.9836	-0.0015
565.1773	0.0017
565.371	0.001
565.5647	0.0063
565.7584	0.0049
565.952	0.0001
566.1456	0.0063
566.3393	0.002
566.5329	-0.006
566.7264	-0.0049
566.92	0.0002
567.1136	-0.0013
567.3071	-0.001
567.5006	0.0059
567.6941	0.0083
567.8876	0.0043
568.0811	-0.0025
568.2745	0.0077
568.468	0.0095
568.6614	0.0067
568.8548	0.0022
569.0482	-0.0007
569.2416	0.0025
569.4349	0.0004
569.6283	0.0011
569.8216	0.0008
570.0149	-0.0085
570.2082	0.0102
570.4015	0.0044
570.5947	0.0116
570.788	0.0079
570.9812	-0.0015
571.1744	0.0067
571.3676	-0.0053
571.5608	0.0021
571.754	0.0041
571.9471	0.0046
572.1402	0.004
572.3333	-0.0011
572.5264	-0.0022
572.7195	0.0039
572.9126	0.0028
573.1057	-0.0008
573.2987	0.0015
573.4917	0.0025
573.6847	-0.0034
573.8777	0.0034
574.0707	0.0002
574.2636	0.0025
574.4566	-0.0016
574.6495	0.0141
574.8424	-0.0009
575.0353	-0.0014
575.2281	0.0071
575.421	0.0061
575.6138	0.0034
575.8067	0.0011
575.9995	0.0048
576.1923	0.0079
576.385	0.0022
576.5778	0.0056
576.7706	0.0015
576.9633	0.0042
577.156	0.0035
577.3487	0.0033
577.5414	0.0024
577.734	-0.0034
577.9267	0.0065
578.1193	-0.0109
578.3119	-0.0007
578.5045	0.0034
578.6971	0.0065
578.8897	0.0017
579.0822	0.0054
579.2747	0.0066
579.4673	-0.0089
579.6598	-0.0011
579.8522	0.0002
580.0447	-0.0062
580.2372	-0.0084
580.4296	0.0096
580.622	-0.0028
580.8144	0.0027
581.0068	0.0028
581.1992	-0.007
581.3915	0.001
581.5839	-0.0119
581.7762	-0.0107
581.9685	-0.0048
582.1608	0.0009
582.353	-0.0007
582.5453	0.002
582.7375	-0.0016
582.9298	-0.001
583.122	0.0074
583.3142	0.0025
583.5063	-0.0006
583.6985	-0.0021
583.8906	0.0009
584.0827	-0.0075
584.2749	0.0047
584.4669	-0.0014
584.659	0.0023
584.8511	-0.0003
585.0431	-0.0045
585.2352	0.0053
585.4272	0.0018
585.6192	0.0102
585.8111	-0.0046
586.0031	0.0027
586.195	0.0003
586.387	0.0111
586.5789	0.0062
586.7708	0.0051
586.9627	0.0067
587.1545	-0.0027
587.3464	0.0065
587.5382	0.0074
587.73	0.0073
587.9218	0.0091
588.1136	0.0002
588.3053	0.0071
588.4971	0.0014
588.6888	-0.0016
588.8805	0.0016
589.0722	0.0116
589.2639	-0.0023
589.4556	0.0078
589.6472	0.0004
589.8389	-0.0048
590.0305	-0.0049
590.2221	-0.0001
590.4137	-0.0105
590.6052	0.0083
590.7968	0.004
590.9883	0.0009
591.1798	-0.0034
591.3713	0.0033
591.5628	0.0046
591.7543	0.007
591.9458	0.0039
592.1372	0.0028
592.3286	0.0046
592.52	0.0046
592.7114	-0.0047
592.9028	0.0022
593.0941	0.0037
593.2855	0.0056
593.4768	-0.0055
593.6681	-0.0059
593.8594	-0.0092
594.0506	0.0027
594.2419	0.0125
594.4331	0.0032
594.6244	0.0036
594.8156	-0.0041
595.0067	-0.0015
595.1979	0.0019
595.3891	-0.0002
595.5802	-0.0029
595.7713	-0.001
595.9624	-0.0016
596.1535	0.0117
596.3446	0.0011
596.5357	0.003
596.7267	0.0063
596.9177	0.0103
597.1087	-0.0102
597.2997	-0.0048
597.4907	-0.0007
597.6817	-0.0009
597.8726	0.0028
598.0635	-0.0053
598.2544	0.0028
598.4453	0.003
598.6362	-0.0001
598.827	-0.001
599.0179	0.0084
599.2087	-0.0006
599.3995	0.0025
599.5903	0.0026
599.7811	0.0024
599.9718	0.0029
600.1626	-0.001
600.3533	-0.0028
600.544	0.0043
600.7347	0.0044
600.9254	0.0054
601.116	-0.0073
601.3067	0.0018
601.4973	-0.0007
601.6879	0.0023
601.8785	-0.0071
602.0691	0.0084
602.2596	0.0028
602.4502	0.0139
602.6407	0.0092
602.8312	0.0058
603.0217	-0.0028
603.2122	0.0053
603.4027	0.005
603.5931	0.0045
603.7835	0.0028
603.9739	-0.0059
604.1643	0.0066
604.3547	-0.0044
604.5451	0.004
604.7354	0.0006
604.9257	0.0016
605.116	0.003
605.3063	0.0067
605.4966	0.0071
605.6869	0.006
605.8771	0.0037
606.0673	0.0019
606.2575	0.0086
606.4477	0.0045
606.6379	0.0037
606.8281	-0.0015
607.0182	-0.0016
607.2083	0.0065
607.3985	0.0021
607.5885	-0.0018
607.7786	0.0044
607.9687	0.0012
608.1587	0.0054
608.3488	0.0016
608.5388	-0.0005
608.7288	0.0001
608.9187	-0.0003
609.1087	-0.0044
609.2986	-0.0066
609.4886	-0.0034
609.6785	0.0023
609.8684	0.0014
610.0582	0.0012
610.2481	0.0024
610.4379	0.0016
610.6278	-0.0046
610.8176	-0.0006
611.0074	0.0056
611.1971	0.0024
611.3869	-0.0006
611.5766	-0.0143
611.7664	0.0089
611.9561	0.0015
612.1458	0.004
612.3354	-0.0075
612.5251	0.0055
612.7147	0.0077
612.9044	0.0055
613.094	-0.0084
613.2836	0.0013
613.4731	-0.0042
613.6627	-0.0002
613.8522	-0.0002
614.0417	0.0093
614.2313	-0.0025
614.4207	-0.0025
614.6102	0.0097
614.7997	-0.0026
614.9891	0.0031
615.1785	0
615.3679	0
615.5573	0.0121
615.7467	0.0034
615.9361	-0.0026
616.1254	0.002
616.3147	0.0106
616.504	0.0029
616.6933	0.0056
616.8826	0.0056
617.0718	0.008
617.2611	-0.0012
617.4503	-0.0045
617.6395	-0.0009
617.8287	-0.0024
618.0179	0.0007
618.207	0.0064
618.3961	0.0006
618.5853	0.0048
618.7744	0.0129
618.9634	0.0034
619.1525	0.0049
619.3416	0.0076
619.5306	0.0029
619.7196	0.006
619.9086	-0.0009
620.0976	0.0036
620.2866	-0.0011
620.4755	0.0077
620.6645	0.0067
620.8534	0.0131
621.0423	0.0087
621.2312	0.0112
621.42	-0.0019
621.6089	0.0068
621.7977	0.0122
621.9865	0.0021
622.1753	0.0076
622.3641	-0.0006
622.5529	0.0067
622.7416	0.0053
622.9303	-0.0012
623.1191	0.0029
623.3078	-0.0038
623.4964	0.0053
623.6851	0.005
623.8737	0.0009
624.0624	0.0117
624.251	-0.0004
624.4396	0.0025
624.6282	-0.0121
624.8167	-0.0102
625.0053	0.0074
625.1938	0.0018
625.3823	0.0054
625.5708	-0.005
625.7593	-0.0039
625.9477	-0.0058
626.1362	-0.0092
626.3246	0.0064
626.513	0.0059
626.7014	0.0043
626.8898	0.0082
627.0781	0.0058
627.2665	-0.0008
627.4548	0.0104
627.6431	0.0101
627.8314	0.0128
628.0197	0.013
628.2079	-0.0008
628.3962	-0.0001
628.5844	0.0062
628.7726	0.0021
628.9608	0.0067
629.1489	0.0014
629.3371	0.0032
629.5252	-0.0038
629.7134	0.01
629.9015	0.0017
630.0895	-0.0017
630.2776	0.0077
630.4657	0.0017
630.6537	0.0108
630.8417	0.0012
631.0297	-0.0003
631.2177	0.0038
631.4057	-0.0024
631.5936	0.0042
631.7815	-0.0002
631.9695	0.0053
632.1574	0.0118
632.3452	0.0132
632.5331	0.0055
632.7209	0.0031
632.9088	0.0199
633.0966	0.0148
633.2844	0.0022
633.4722	0.0079
633.6599	0.0115
633.8477	0.0055
634.0354	0.0051
634.2231	0.002
634.4108	0.0067
634.5985	0.0123
634.7861	0.0024
634.9738	0.0015
635.1614	0.009
635.349	0.0016
635.5366	0.0039
635.7242	0.004
635.9117	0.0102
636.0993	0.0051
636.2868	0
636.4743	0.0016
636.6618	0.0097
636.8492	0.0012
637.0367	0.0009
637.2241	-0.0003
637.4115	0.0025
637.5989	-0.005
637.7863	0.0021
637.9737	0.0012
638.161	0.0031
638.3484	0.0014
638.5357	0.0057
638.723	0.0023
638.9103	0.0013
639.0975	0.0081
639.2848	0.0054
639.472	0.0073
639.6592	0.0036
639.8464	0.0088
640.0336	0.0106
640.2208	-0.003
640.4079	-0.0032
640.595	0.0042
640.7821	0.0039
640.9692	0.0069
641.1563	0.0083
641.3434	0.0062
641.5304	0.0017
641.7174	-0.0007
641.9044	0.0057
642.0914	0.0051
642.2784	0.0032
642.4653	0.0124
642.6523	0.0078
642.8392	0.0038
643.0261	0.0045
643.213	0.0051
643.3999	0.0006
643.5867	-0.0012
643.7735	0.0034
643.9604	-0.0044
644.1472	0.0083
644.3339	0.0036
644.5207	0.0063
644.7075	0.0028
644.8942	0.0138
645.0809	0.0129
645.2676	0.0146
645.4543	0.0033
645.6409	0.0067
645.8276	0.0053
646.0142	0.008
646.2008	-0.0051
646.3874	-0.0058
646.574	-0.0007
646.7605	-0.0024
646.9471	-0.003
647.1336	0.0027
647.3201	0.0065
647.5066	0.0042
647.6931	0.0116
647.8795	0.0036
648.0659	0.0076
648.2524	0.0136
648.4388	0.0039
648.6252	0.0022
648.8115	0.0059
648.9979	0.0084
649.1842	-0.0006
649.3705	0.005
649.5568	0.0047
649.7431	0.0059
649.9294	-0.0044
650.1156	0.0073
650.3018	-0.0046
650.488	0.0066
650.6742	0.0092
650.8604	0.0044
651.0466	0.0027
651.2327	0.0048
651.4188	-0.0014
651.6049	0.0018
651.791	0.0083
651.9771	0.0116
652.1632	-0.0011
652.3492	0.0078
652.5352	0.0027
652.7212	0.0049
652.9072	0.0086
653.0932	0.0094
653.2791	-0.0032
653.465	0.0061
653.651	-0.0014
653.8369	-0.0022
654.0227	0.0034
654.2086	0.0038
654.3944	0.0037
654.5803	0.006
654.7661	0.0061
654.9519	0.0094
655.1377	0.0019
655.3234	0.0023
655.5092	-0.0028
655.6949	-0.0054
655.8806	0.0011
656.0663	0.0013
656.2519	-0.0009
656.4376	0.0036
656.6232	0.0063
656.8088	0.0021
656.9945	0.0027
657.18	0.0079
657.3656	0.005
657.5511	0.0017
657.7367	-0.0121
657.9222	0.0035
658.1077	0.0005
658.2932	0.0064
658.4786	-0.0083
658.6641	0.0027
658.8495	0.0021
659.0349	0.0004
659.2203	0.0096
659.4057	0.0034
659.591	0.0098
659.7764	-0.0027
659.9617	0.0009
660.147	-0.0035
660.3323	0.0022
660.5176	0.008
660.7028	0.0037
660.888	0.0105
661.0733	0.0063
661.2585	-0.0012
661.4436	0.0022
661.6288	-0.0016
661.8139	0.0039
661.9991	0.0046
662.1842	0.0054
662.3693	0.0039
662.5544	-0.0007
662.7394	-0.0038
662.9245	-0.0043
663.1095	-0.0007
663.2945	0.0054
663.4795	0.0004
663.6644	0.0067
663.8494	0.0055
664.0343	0.0045
664.2193	0.0025
664.4042	0.0081
664.589	0.0031
664.7739	0.0018
664.9587	0.0019
665.1436	0.0052
665.3284	0.0037
665.5132	0.0027
665.698	0.0095
665.8827	0.0032
666.0675	0.0005
666.2522	-0.0028
666.4369	-0.0009
666.6216	0.0049
666.8063	0.0022
666.9909	0.0067
667.1756	0.0116
667.3602	0.0068
667.5448	0.0047
667.7294	0.0125
667.9139	0.0106
668.0985	0.0166
668.283	0.0064
668.4675	0.0034
668.652	-0.0015
668.8365	-0.0031
669.0209	0.0091
669.2054	0.0122
669.3898	0.0038
669.5742	0.0061
669.7586	0.0144
669.943	0.007
670.1273	0.0077
670.3117	0.0014
670.496	0.0049
670.6803	0.0171
670.8646	0.0084
671.0488	0.0016
671.2331	0.0037
671.4173	0.0103
671.6015	0.0061
671.7857	0.0111
671.9699	0.0098
672.1541	0.0051
672.3382	0.0091
672.5223	0.0081
672.7064	0.0044
672.8905	0.006
673.0746	0.0052
673.2587	0.0032
673.4427	0.0041
673.6267	0.0075
673.8107	0.0086
673.9947	0.0062
674.1787	0.0008
674.3626	-0.0074
674.5465	0.0095
674.7304	0.0094
674.9143	0.0078
675.0982	0.012
675.2821	0.0001
675.4659	0.0062
675.6497	0.0111
675.8335	0.0035
676.0173	0.0018
676.2011	-0.0015
676.3849	0.0017
676.5686	0.0034
676.7523	0.0059
676.936	-0.0019
677.1197	-0.0062
677.3034	-0.0014
677.487	0.0067
677.6706	0.0014
677.8542	0.0018
678.0378	-0.0006
678.2214	0.007
678.405	0.0023
678.5885	-0.0036
678.772	0.0021
678.9555	0.0026
679.139	0.0048
679.3225	0.0095
679.5059	0.0008
679.6894	0.0036
679.8728	0.0002
680.0562	-0.0085
680.2395	-0.0038
680.4229	-0.0007
680.6062	0.0082
680.7896	0.0043
680.9729	-0.0073
681.1562	0.0017
681.3394	-0.002
681.5227	-0.0057
681.7059	-0.0041
681.8891	0.0053
682.0723	0.0098
682.2555	0.0005
682.4387	0.0031
682.6218	0.0077
682.805	0.004
682.9881	-0.0008
683.1712	0.0031
683.3542	0.0039
683.5373	-0.0001
683.7203	-0.006
683.9034	0.0011
684.0864	-0.0059
684.2694	0.0009
684.4523	0.0039
684.6353	-0.0056
684.8182	0.0046
685.0011	-0.0086
685.184	0.0066
685.3669	0.0006
685.5498	0.005
685.7326	0.0078
685.9154	0.003
686.0982	0.0046
686.281	0.0049
686.4638	0.0022
686.6465	0.0031
686.8293	-0.0037
687.012	-0
687.1947	-0.0032
687.3774	0.0008
687.56	-0
687.7427	0.0046
687.9253	0.0008
688.1079	0.0063
688.2905	0.0088
688.4731	0.0058
688.6556	0.0024
688.8382	0.0058
689.0207	0.0088
689.2032	-0.0036
689.3857	-0.008
689.5681	0.0075
689.7506	-0.0008
689.933	-0.0043
690.1154	0.0064
690.2978	0.0105
690.4802	0.0109
690.6626	-0.0025
690.8449	-0.0011
691.0272	0.0098
691.2095	-0.0015
691.3918	0.0009
691.5741	0.0081
691.7563	0.0058
691.9386	0.0033
692.1208	0.0027
692.303	0.0076
692.4852	0.0074
692.6673	0.0044
692.8495	0.0003
693.0316	0.0068
693.2137	0.0074
693.3958	0.0005
693.5778	0.0032
693.7599	-0.0015
693.9419	0.0033
694.1239	-0.0052
694.3059	-0.0045
694.4879	0.0062
694.6699	0.0072
694.8518	0.0052
695.0337	-0.0058
695.2157	0.0084
695.3975	0.0053
695.5794	0.0106
695.7613	0.0049
695.9431	0.0037
696.1249	-0.0013
696.3067	0.0162
696.4885	0.0036
696.6703	-0.0009
696.852	0.0094
697.0337	0.0018
697.2154	0.005
697.3971	0.0023
697.5788	0.0042
697.7605	0.0014
697.9421	0.002
698.1237	0.001
698.3053	0.0067
698.4869	0.0011
698.6685	-0.0029
698.85	-0.0001
699.0315	0.0144
699.213	0.0071
699.3945	0.006
699.576	0.0016
699.7575	0.006
699.9389	0.0132
700.1203	-0.003
700.3017	-0.0017
700.4831	-0.0099
700.6645	0.0049
700.8458	0.0049
701.0271	0.0009
701.2084	0.0025
701.3897	0.0004
701.571	0.0045
701.7523	-0.0059
701.9335	0.0014
702.1147	-0.0067
702.2959	0.006
702.4771	0.0042
702.6583	0.0001
702.8394	-0.0065
703.0205	0.0105
703.2016	0.0002
703.3827	0.0008
703.5638	0.0058
703.7449	-0.0018
703.9259	0.0084
704.1069	0.002
704.2879	0.0103
704.4689	0.0033
704.6499	0.0039
704.8308	0.0074
705.0117	-0.0035
705.1927	-0.0008
705.3735	0.0038
705.5544	-0.0031
705.7353	0.0062
705.9161	-0.0039
706.0969	-0.0023
706.2777	0.0027
706.4585	-0.0005
706.6393	0.0052
706.82	-0.0019
707.0007	0.0101
707.1815	0.0103
707.3621	0.0186
707.5428	0.0079
707.7235	0.0129
707.9041	0.0108
708.0847	-0.0088
708.2653	0.0029
708.4459	-0.0116
708.6265	0.0032
708.807	0.0064
708.9875	0.0014
709.168	-0.0075
709.3485	-0.0009
709.529	0.0118
709.7095	-0.0087
709.8899	0.0097
710.0703	-0.0058
710.2507	0.0071
710.4311	-0.0046
710.6115	-0.0072
710.7918	-0.0073
710.9721	0.0038
711.1524	-0.0052
711.3327	0.0009
711.513	-0.0038
711.6932	0.0068
711.8735	0.0142
712.0537	0.0085
712.2339	0.0013
712.4141	-0.0033
712.5942	-0.0033
712.7744	0.0015
712.9545	-0.0093
713.1346	-0.0048
713.3147	0.0032
713.4947	-0.0078
713.6748	-0.0006
713.8548	0.0004
714.0348	0.0069
714.2148	0.0001
714.3948	0.0175
714.5748	0.0071
714.7547	0.0071
714.9346	0.0091
715.1145	0.0008
715.2944	-0.0018
715.4743	0.0125
715.6541	-0.0034
715.834	0.009
716.0138	0.0037
716.1936	-0.0023
716.3733	0.0068
716.5531	0.013
716.7328	-0.0003
716.9126	-0.0023
717.0923	0.0107
717.2719	0.0086
717.4516	0.0023
717.6312	-0.0038
717.8109	-0.0078
717.9905	0.0039
718.1701	-0.0071
718.3496	-0.0089
718.5292	0.0021
718.7087	-0.0057
718.8882	0.0011
719.0677	-0.0003
719.2472	-0.0012
719.4267	0.0021
719.6061	0.0033
719.7856	0.0058
719.965	0.0086
720.1443	-0.0058
720.3237	0.0079
720.5031	-0.0047
720.6824	0.0078
720.8617	-0.0032
721.041	0.0044
721.2203	0.0078
721.3995	0.0041
721.5788	0.0013
721.758	0.0078
721.9372	0.0055
722.1164	0.0048
722.2956	0.0058
722.4747	0.0057
722.6538	0.0013
722.8329	0.0105
723.012	0.004
723.1911	0.0048
723.3702	0.0082
723.5492	0.0086
723.7282	0.0014
723.9072	0.0038
724.0862	-0.0016
724.2652	-0.0073
724.4441	-0.0024
724.623	0.0004
724.8019	-0.0006
724.9808	0.0111
725.1597	-0.0157
725.3385	0.0151
725.5174	0.005
725.6962	0.0069
725.875	-0.0032
726.0538	0.0049
726.2325	-0.0023
726.4112	-0.0001
726.59	-0.003
726.7687	-0.0024
726.9474	0.0075
727.126	0.0006
727.3047	-0.0038
727.4833	-0.0035
727.6619	-0.0104
727.8405	-0.0067
728.0191	-0.0045
728.1976	0.0059
728.3762	0.0022
728.5547	-0.0006
728.7332	-0.0049
728.9116	0.0062
729.0901	0.0123
729.2686	-0.0001
729.447	0.0021
729.6254	0.0003
729.8038	0.0018
729.9821	-0.0088
730.1605	0.0057
730.3388	-0.0048
730.5171	0.0011
730.6954	-0.0004
730.8737	0.007
731.0519	0.0118
731.2302	0.0039
731.4084	0.0062
731.5866	0.0036
731.7648	0.002
731.9429	0.0061
732.1211	-0.0071
732.2992	-0.0059
732.4773	0.0076
732.6554	0.0056
732.8335	0.0076
733.0115	0.0077
733.1896	0.007
733.3676	-0.0076
733.5456	0.0004
733.7235	0.0078
733.9015	-0.0004
734.0794	0.0049
734.2574	-0.002
734.4353	0.0012
734.6131	0.0004
734.791	-0
734.9689	-0.0109
735.1467	-0
735.3245	-0.0089
735.5023	-0.0089
735.68	0.0017
735.8578	0.0022
736.0355	-0.0138
736.2132	-0.0021
736.3909	-0.0009
736.5686	-0.0048
736.7463	0.0026
736.9239	0.001
737.1015	0.0045
737.2791	0.0136
737.4567	0.0045
737.6343	-0.0022
737.8118	0.0063
737.9894	0.0134
738.1669	-0.0134
738.3444	-0.0069
738.5218	0.0098
738.6993	-0.0001
738.8767	-0.0016
739.0541	0.017
739.2315	-0.0066
739.4089	0.0103
739.5863	0.0075
739.7636	0.0073
739.9409	0.006
740.1182	0.0049
740.2955	0.0037
740.4728	0.0019
740.65	0.0059
740.8272	0.0013
741.0044	0.0016
741.1816	0.0033
741.3588	0.001
741.5359	0.0037
741.7131	-0.0084
741.8902	0.0042
742.0673	0.0125
742.2444	-0.0094
742.4214	-0.0004
742.5985	0.0057
742.7755	0.0019
742.9525	-0.0182
743.1295	0.0071
743.3064	0.0123
743.4834	0.0039
743.6603	-0.0078
743.8372	-0.002
744.0141	0.0121
744.191	-0.0026
744.3678	0.0046
744.5446	0.0071
744.7215	0.0025
744.8982	-0.0002
745.075	-0.0051
745.2518	0.0034
745.4285	0.0093
745.6052	-0.0035
745.7819	-0.0018
745.9586	-0.0009
746.1353	0.0065
746.3119	-0.0087
746.4885	-0.0072
746.6651	-0.0005
746.8417	-0.008
747.0183	0.0011
747.1948	-0.0008
747.3714	0.0042
747.5479	-0.0056
747.7244	-0.0067
747.9008	0.0081
748.0773	0.0043
748.2537	-0.0037
748.4301	-0.0062
748.6065	0.006
748.7829	0.0033
748.9593	-0.0057
749.1356	0.0013
749.3119	0.0086
749.4882	-0.0075
749.6645	0.0095
749.8408	0.0006
750.017	-0.0022
750.1933	-0.0016
750.3695	-0.006
750.5457	0.0135
750.7218	-0.0069
750.898	0.0007
751.0741	-0.0151
751.2502	-0.0087
751.4263	0.006
751.6024	-0.0053
751.7784	0.0009
751.9545	-0.0065
752.1305	-0.0042
752.3065	0.0011
752.4825	0.0078
752.6584	0.0035
752.8344	-0.0088
753.0103	-0.0057
753.1862	-0.0006
753.3621	-0.0044
753.5379	-0.0011
753.7138	0.0063
753.8896	-0.0031
754.0654	-0.0103
754.2412	0.0014
754.417	0.0039
754.5927	-0.011
754.7685	-0.0095
754.9442	0.0016
755.1199	0.0044
755.2956	-0.0035
755.4712	0.007
755.6469	0.0045
755.8225	-0.0003
755.9981	-0.006
756.1736	0.0022
756.3492	0.0095
756.5248	-0.0015
756.7003	0.006
756.8758	0.0059
757.0513	-0.0089
757.2267	0
757.4022	-0.0007
757.5776	-0.0087
757.753	0.0038
757.9284	-0.0001
758.1038	0.0178
758.2791	-0.0008
758.4545	-0.0088
758.6298	-0.0051
758.8051	0.0075
758.9803	0.0027
759.1556	0.0062
759.3308	-0.0022
759.506	0.0088
759.6812	0.0144
759.8564	0.0101
760.0316	0.0052
760.2067	0.0172
760.3819	0.0114
760.557	0.0121
760.732	0.0066
760.9071	-0.0055
761.0821	0.004
761.2572	0.0064
761.4322	0.0047
761.6072	0.0045
761.7821	0.0014
761.9571	0.0094
762.132	0.0035
762.3069	-0.0039
762.4818	-0.0044
762.6567	0.0012
762.8316	0.0009
763.0064	-0.0028
763.1812	0.0039
763.356	-0.0053
763.5308	0.0017
763.7055	-0.0048
763.8803	-0.0015
764.055	0.0073
764.2297	0.0085
764.4044	0.0001
764.579	-0.0053
764.7537	-0.0137
764.9283	0.0089
765.1029	-0.0061
765.2775	0.0047
765.4521	-0.0071
765.6266	-0.0067
765.8011	-0.008
765.9756	-0.009
766.1501	0.0028
766.3246	-0.0082
766.4991	0.0007
766.6735	-0.0093
766.8479	-0.0139
767.0223	0.0097
767.1967	-0.0037
767.371	0.0172
767.5454	0.0008
767.7197	0.0035
767.894	-0.009
768.0683	-0.0054
768.2425	-0.0055
768.4168	0.006
768.591	-0.0039
768.7652	0.0038
768.9394	0.0055
769.1135	0.0081
769.2877	0.0143
769.4618	0.0029
769.6359	-0.0095
769.81	0.0023
769.984	-0.0026
770.1581	-0.0127
770.3321	0.0032
770.5061	-0.0005
770.6801	-0.0037
770.8541	0.0013
771.028	0.0024
771.202	-0.0047
771.3759	0.0074
771.5498	0.0008
771.7236	0.0064
771.8975	-0.0018
772.0713	0.0129
772.2451	0.0123
772.4189	0.017
772.5927	0.0071
772.7665	0.0095
772.9402	0.0046
773.1139	-0.0051
773.2876	-0.0006
773.4613	0.0128
773.635	0.0149
773.8086	-0.0082
773.9822	0.0075
774.1558	0.008
774.3294	-0.0106
774.503	0.0077
774.6765	-0.007
774.8501	0.0069
775.0236	0.0081
775.1971	0.0078
775.3705	-0.0085
775.544	0.0096
775.7174	0.0076
775.8908	-0.0018
776.0642	0.0024
776.2376	0.0045
776.4109	0.0081
776.5843	0.0034
776.7576	0.0118
776.9309	0.0179
777.1041	0.0197
777.2774	0.0189
777.4506	0.0017
777.6238	-0.0077
777.797	0.0045
777.9702	-0.0081
778.1434	0.0016
778.3165	-0.0097
778.4896	-0.001
778.6627	0.0176
778.8358	-0.0003
779.0089	0.0111
779.1819	-0.001
779.3549	0.0105
779.5279	0.0162
779.7009	0.0088
779.8739	0.002
780.0468	0.012
780.2197	0.0118
780.3926	-0.0005
780.5655	0.0122
780.7384	0.0071
780.9112	0.0079
781.0841	-0.0027
781.2569	0.0039
781.4297	0.0221
781.6024	0.0143
781.7752	0.0109
781.9479	0.0169
782.1206	0.0075
782.2933	-0.0074
782.466	0.0048
782.6386	0.0211
782.8113	0.0032
782.9839	0.0051
783.1565	0.0096
783.329	0.0046
783.5016	0.0008
783.6741	0.0089
783.8466	0.0074
784.0191	0.0201
784.1916	0.007
784.3641	0.005
784.5365	-0.0002
784.7089	-0.0078
784.8813	0.0042
785.0537	0.0156
785.2261	0.0024
785.3984	-0.0047
785.5707	-0.0021
785.743	0.0019
785.9153	0.0141
786.0876	0.0076
786.2598	-0.0018
786.432	-0.0073
786.6042	0.0205
786.7764	-0.0143
786.9486	0.0187
787.1207	0.0017
787.2928	0.0106
787.4649	0.0139
787.637	0.0036
787.8091	-0.015
787.9811	0.0002
788.1532	0.0114
788.3252	0.0133
788.4972	-0.0039
788.6691	0.0055
788.8411	-0.0028
789.013	-0.0183
789.1849	0.0081
789.3568	0.0046
789.5287	0.0042
789.7005	-0.005
789.8723	0.0002
790.0442	0.0157
790.2159	0.0024
790.3877	0.0187
790.5595	-0.0023
790.7312	0.015
790.9029	0.0051
791.0746	-0.0174
791.2463	-0.0085
791.4179	-0.0051
791.5896	0.0012
791.7612	0.0086
791.9328	0.0026
792.1044	-0.0057
792.2759	-0.008
792.4474	0.0099
792.619	0.0054
792.7905	0.0105
792.9619	0.0065
793.1334	0.0169
793.3048	0.0031
793.4762	0.0019
793.6476	0.0148
793.819	-0.0149
793.9904	0.0027
794.1617	-0.0202
794.333	0.0001
794.5043	-0.0022
794.6756	-0.0044
794.8469	-0.004
795.0181	0.0169
795.1893	-0.0068
795.3605	0.0154
795.5317	0.0065
795.7029	-0.0044
795.874	0.0078
796.0452	0.0027
796.2163	-0.0029
796.3873	0.0112
796.5584	0.0124
796.7294	0.0096
796.9005	0.0045
797.0715	0.0038
797.2425	0.0008
797.4134	-0.0012
797.5844	0.0134
797.7553	-0.0094
797.9262	-0.0046
798.0971	-0.0102
798.2679	-0.0068
798.4388	-0.0183
798.6096	-0.0031
798.7804	0.006
798.9512	-0.0077
799.122	-0.0056
799.2927	-0.0005
799.4635	0.018
799.6342	-0.0185
799.8049	0.0015
799.9755	-0.0017
800.1462	-0.0132
800.3168	0.0134
800.4874	-0.0007
800.658	0.0373
800.8286	-0.0057
800.9991	0.0217
801.1696	0.008
801.3402	0.0161
801.5106	-0.0054
801.6811	0.0023
801.8516	0.0131
802.022	-0.0011
802.1924	-0.0094
802.3628	0.0093
802.5332	0.0109
802.7035	0.0228
802.8739	-0.0039
803.0442	-0.0084
803.2145	0.0131
803.3847	-0.014
803.555	-0.0024
803.7252	-0.0123
803.8954	-0.0039
804.0656	-0.0059
804.2358	0.0021
804.4059	0.0001
804.5761	-0.0029
804.7462	0.0043
804.9163	-0.0047
805.0864	-0.0114
805.2564	-0.0035
805.4264	-0.0054
805.5965	0.0053
805.7665	0.0201
805.9364	0.0082
806.1064	0.029
806.2763	0.0014
806.4462	0.0333
806.6161	0.0119
806.786	0.0215
806.9559	0.0035
807.1257	0.0093
807.2955	0.0019
807.4653	0.0119
807.6351	-0.0185
807.8048	0.0084
807.9746	0.0135
808.1443	-0.0003
808.314	0.0195
808.4837	0.0015
808.6533	0.0063
808.8229	0.0321
808.9926	0.0089
809.1622	0.0042
809.3317	-0.0156
809.5013	0.01
809.6708	0.0173
809.8403	0.0227
810.0098	-0.0047
810.1793	0.0052
810.3488	0.0082
810.5182	-0.0118
810.6876	0.0065
810.857	0.0052
811.0264	0.0245
811.1958	0.019
811.3651	0.0051
811.5344	-0.0022
811.7037	0.0046
811.873	-0.0079
812.0422	0.0146
812.2115	0.0094
812.3807	-0.01
812.5499	0.0113
812.7191	0.0157
812.8882	-0.0035
813.0574	0.0105
813.2265	0.0117
813.3956	0.0139
813.5646	0.0119
813.7337	0.0054
813.9027	0.0136
814.0718	0.0242
814.2407	0.0102
814.4097	-0.0051
814.5787	-0.0099
814.7476	0.011
814.9165	0.0129
815.0854	-0.0063
815.2543	0.0027
815.4232	0.0029
815.592	0.0121
815.7608	0.007
815.9296	0.0296
816.0984	0.0261
816.2671	0.0064
816.4359	0.0041
816.6046	0.0074
816.7733	0.0008
816.942	-0.002
817.1106	0.0071
817.2793	0.0061
817.4479	0.0014
817.6165	-0.0032
817.785	0.0199
817.9536	-0.0181
818.1221	-0.0081
818.2906	0.0145
818.4591	-0.0067
818.6276	-0.0052
818.7961	0.0194
818.9645	-0.0081
819.1329	0.0151
819.3013	0.0032
819.4697	0.0231
819.638	0.0009
819.8064	-0.0042
819.9747	0.0201
820.143	0.017
820.3113	-0.011
820.4795	-0.0173
820.6477	-0.016
820.816	-0.0074
820.9842	0.0013
821.1523	-0.0059
821.3205	-0.011
821.4886	-0.0027
821.6567	0.0166
821.8248	0.0075
821.9929	0.0054
822.1609	0.0017
822.329	0.026
822.497	0.0273
822.665	-0.0153
822.833	-0.0014
823.0009	0.0078
823.1688	0.0128
823.3367	0.0214
823.5046	-0.0044
823.6725	0.0426
823.8404	0.0066
824.0082	0.0235
824.176	-0.008
824.3438	-0.0022
824.5116	-0.011
824.6793	0.011
824.847	-0.0035
825.0147	0.0239
825.1824	-0.0124
825.3501	0.0229
825.5177	-0.0125
825.6854	0.0006
825.853	0.0142
826.0206	-0.0158
826.1881	0.0196
826.3557	-0.0378
826.5232	0.0317
826.6907	-0.0364
826.8582	0.0345
827.0257	-0.0062
827.1931	0.0321
827.3605	0.0154
827.528	0.0144
827.6953	0.0048
827.8627	0.0016
828.03	0.0502
828.1974	0.0093
828.3647	-0.0517
828.532	0.0057
828.6992	0.0118
828.8665	0.0213
829.0337	0.0069
829.2009	0.034
829.3681	0.0158
829.5352	0.015
829.7024	-0.0552
829.8695	-0.0211
830.0366	0.0553
830.2037	-0.0093
830.3707	0.0262
830.5378	-0.0035
830.7048	-0.0168
830.8718	-0.0142
831.0388	-0.021
831.2057	0.0177
831.3727	0.0162
831.5396	-0.0219
831.7065	-0.0111
831.8734	0.0381
832.0402	0.0099
832.2071	-0.0025
832.3739	-0.0276
832.5407	0.0262
832.7075	-0.0132
832.8742	-0.0142
833.041	-0.0385
833.2077	-0.0045
833.3744	0.0265
833.541	0.0082
833.7077	-0.0096
833.8743	-0.0233
834.0409	-0.0046
834.2075	0.0171
834.3741	-0.0064
834.5407	0.0238
834.7072	0.0087
834.8737	-0.0229
835.0402	-0.0289
835.2067	0.0247
835.3731	0.0138
835.5395	0.0166
835.706	0.0242
835.8723	0.0054
836.0387	0.0482
836.2051	0.0074
836.3714	-0.0204
836.5377	-0.0051
836.704	0.0011
836.8703	0.0177
837.0365	0.0011
837.2027	0.0096
837.3689	0.0066
837.5351	0.011
837.7013	-0.0486
837.8674	0.0313
838.0335	-0.0404
838.1997	0.007
838.3657	0.0084
838.5318	-0.0189
838.6978	0.0467
838.8639	0.0532
839.0299	-0.0098
839.1958	0.0035
839.3618	-0.0081
839.5277	-0.0106
839.6937	-0.0142
839.8596	-0.0259
840.0254	0.0588
840.1913	0.0012
840.3571	0.0864
840.523	-0.0025
840.6888	-0.0116
840.8545	-0.0266
841.0203	0.0351
841.186	0.064
841.3517	-0.0058
841.5174	-0.0082
841.6831	-0.0322
841.8488	-0.0249
842.0144	0.0259
842.18	0.0176
842.3456	0.0326
842.5112	0.0256
842.6767	0.0054
842.8422	-0.009
843.0077	0.0141
843.1732	-0.0006
843.3387	-0.0017
843.5042	-0.0522
843.6696	0.0319
843.835	-0.0048
844.0004	0.0466
844.1657	-0.0084
844.3311	-0.0342
844.4964	-0.1121
844.6617	-0.0115
844.827	-0.0154
844.9923	-0.0325
845.1575	0.0151
845.3227	0.033
845.4879	-0.0504
845.6531	-0.0582
845.8183	-0.0755
845.9834	0.0481
846.1485	-0.0279
846.3136	-0.0718
846.4787	-0.0735
846.6438	0.0552
846.8088	-0.0382
846.9738	-0.0751
847.1388	-0.0586
847.3038	-0.0586
847.4687	-0.1035
847.6337	0.0725
847.7986	0.0574
847.9635	-0.0373
848.1284	0.0333
848.2932	0.0263
848.458	-0.0351
848.6228	0.0731
848.7876	0.1605
848.9524	-0.0676
849.1172	-0.0848
849.2819	0.0991
849.4466	-0.042
849.6113	-0.0559
849.7759	-0.041
849.9406	-0.0525
850.1052	0.0853
850.2698	-0.0066
850.4344	-0.0068
850.599	-0.0241
850.7635	0.0718
850.928	0.001
851.0925	-0.0142
851.257	-0.0299
851.4215	0.0224
851.5859	0.1646
851.7503	-0.0084
851.9147	0.057
852.0791	-0.0333
852.2434	-0.0372
852.4078	0.0594
852.5721	0.1127
852.7364	-0.0267
852.9007	-0.1696
853.0649	0.0854
853.2291	0.0959
853.3934	0.1142
853.5575	0.0141
853.7217	-0.07
853.8859	-0.0061
854.05	-0.0604
854.2141	0.2705
854.3782	-0.0812
854.5423	-0.0191
854.7063	0.1495
854.8703	0.1369
855.0343	0.0624
855.1983	-0.1052
855.3623	0.1774
855.5262	0.1069
855.6901	-0.0012
855.854	-0.0834
856.0179	0.1383
856.1818	0.2563
856.3456	0.0262
856.5094	-0.1214
856.6732	-0.1141
856.837	0.0167
857.0008	0.0217
857.1645	0.0139
857.3282	-0.0867
857.4919	0.1226
857.6556	-0.0868
857.8192	-0.0209
857.9828	0.0432
858.1465	-0.1349
858.31	0.0242
858.4736	-0.0606
858.6372	-0.2191
858.8007	-0.1241
858.9642	-0.0244
859.1277	0.3979
859.2911	0.1632
859.4546	-0.0236
859.618	-0.3613
859.7814	-0.0277
859.9448	-0.0772
860.1081	0.0474
860.2715	0.243
860.4348	0.3799
860.5981	0.0318
860.7614	0.3068
860.9246	0.0899
861.0879	0.0976
861.2511	0.222
861.4143	-0.1894
861.5774	0.1189
861.7406	-0.2291
861.9037	0.1368
862.0668	-0.0227
862.2299	0.3872
862.393	-0.6159
862.556	0.1164
862.7191	-0.2538
862.8821	-0.0489
863.0451	0.4566
863.208	0.0063
863.371	0.0398
863.5339	0.4154
863.6968	0.0961
863.8597	0.1243
864.0225	-0.1073
864.1854	0.2105
864.3482	0.805
864.511	0.2508
864.6737	0.4848
864.8365	-0.0111
864.9992	-0.2073
865.1619	-0.6555
865.3246	-0
865.4873	0.2857
865.65	0.2279
865.8126	-0.165
865.9752	0.0367
866.1378	-0.1199
866.3004	-0
866.4629	0.1787
866.6254	-0.0799
866.7879	0.0564
866.9504	0.4108
867.1129	-0
867.2753	0.2176
867.4377	0.3454
867.6001	-0.1533
867.7625	0.0888
867.9249	-0.1906
868.0872	-0.2981
868.2495	0.0974
868.4118	0.3828
868.5741	-0.3242
868.7363	-0.1549
868.8986	-0.1981
869.0608	-0.0501
869.223	0.1297
869.3851	-0.1146
869.5473	0.5375
869.7094	0.348
869.8715	-0
870.0336	-0
870.1957	-0
870.3577	-0.1047
870.5197	0.1361
870.6817	-0.1749
870.8437	-0.2181
871.0057	-0.2041
871.1676	0.4429
871.3295	-0.2274
871.4914	-0.3701
871.6533	-0.3285
871.8151	-0.3787
871.977	-0
872.1388	-0
872.3006	0.3067
872.4623	-0
872.6241	0.3349
872.7858	-0
872.9475	-0.1293
873.1092	0.1196
873.2709	-0
873.4325	-0
873.5941	-0.2879
873.7557	0.6247
873.9173	-0.3924
874.0789	0.224
874.2404	-0
874.4019	0.0762
874.5634	-0.0424
874.7249	-0.1936
874.8863	0.1669
875.0478	-0
875.2092	-0
875.3706	0.0691
875.5319	-0.9269
875.6933	-0.2135
875.8546	0.1162
876.0159	-0.0108
876.1772	-0
876.3385	-0
876.4997	0.7166
876.6609	-0.4563
876.8221	-0.2943
876.9833	-0.0514
877.1445	0.1085
877.3056	1.3
877.4667	0.1677
877.6278	1.1263
877.7889	-0.2041
877.9499	-0
878.111	-0
878.272	-0.7911
878.433	-0
878.5939	0.5682
878.7549	-0.0718
878.9158	-0.9558
879.0767	-0
879.2376	0.2026
879.3984	-0
879.5593	-0
879.7201	-0.2784
879.8809	-0.7537
880.0417	0.2963
880.2024	0.299
880.3632	-0.5488
880.5239	0.3393
880.6846	-0.1446
880.8452	-1.2041
881.0059	-0
881.1665	0.1506
881.3271	1.2872
881.4877	0.0693
881.6483	-0.2163
881.8088	-0.2015
881.9693	-0
882.1298	-0
882.2903	-0
