Data from MonoPyChalIsomerACN10uM340nmA_Absorbance_14-14-18-164.txt Node
Date: Fri Jul 05 14:14:18 BST 2024
User: LASERRRRR
Spectrometer: FLMT03099
Trigger mode: 0
Integration Time (sec): 1.000000E-1
Scans to average: 1
Electric dark correction enabled: true
Nonlinearity correction enabled: false
Boxcar width: 0
XAxis mode: Wavelengths
Number of Pixels in Spectrum: 3648
>>>>>Begin Spectral Data<<<<<
179.3399	-0.3525
179.5586	-0.3525
179.7771	-0.3525
179.9957	0.24
180.2143	-0.45
180.4329	-0.231
180.6514	-0
180.8699	-0
181.0885	-0.1604
181.307	0.3045
181.5255	-0
181.744	0.334
181.9625	-0
182.181	-1.1936
182.3994	0.113
182.6179	-0
182.8363	0.5222
183.0547	-0.0771
183.2732	-0.0106
183.4916	0.015
183.71	0.0974
183.9284	0.0985
184.1467	-0.082
184.3651	0.1348
184.5835	-0.0537
184.8018	0.8087
185.0201	0.1318
185.2385	-0.1898
185.4568	0.2255
185.6751	0.5369
185.8934	0.4172
186.1117	0.326
186.3299	0.0161
186.5482	0.0693
186.7664	-0.0351
186.9847	0.0763
187.2029	0.1384
187.4211	0.034
187.6393	0.0291
187.8575	-0.1126
188.0757	0.2379
188.2939	0.1102
188.512	0.1675
188.7302	-0.021
188.9483	0.1449
189.1665	0.116
189.3846	-0.2978
189.6027	0.1573
189.8208	0.2443
190.0389	0.0407
190.257	0.4027
190.475	0.2029
190.6931	0.4858
190.9111	0.3516
191.1292	0.1584
191.3472	0.4142
191.5652	0.3076
191.7832	0.2523
192.0012	0.4939
192.2192	0.3896
192.4371	0.7748
192.6551	0.5108
192.873	0.4414
193.091	0.2465
193.3089	0.6191
193.5268	0.6416
193.7447	0.5883
193.9626	0.567
194.1805	0.6961
194.3984	0.9211
194.6162	0.5705
194.8341	0.5029
195.0519	0.5388
195.2697	0.9774
195.4875	0.6042
195.7054	0.6314
195.9231	0.6552
196.1409	0.5986
196.3587	0.484
196.5765	0.5389
196.7942	0.4808
197.012	0.522
197.2297	0.6769
197.4474	0.9937
197.6651	0.5362
197.8828	0.6065
198.1005	0.5137
198.3182	0.6712
198.5358	0.7896
198.7535	0.6638
198.9711	0.5266
199.1888	0.5849
199.4064	0.7605
199.624	0.7515
199.8416	0.5858
200.0592	0.6296
200.2767	0.7227
200.4943	0.729
200.7119	0.8192
200.9294	0.7353
201.1469	0.6476
201.3645	0.5574
201.582	0.4852
201.7995	0.6648
202.017	0.6749
202.2344	0.6166
202.4519	0.6726
202.6694	0.6049
202.8868	0.7171
203.1042	0.6255
203.3217	0.6181
203.5391	0.5927
203.7565	0.569
203.9739	0.6226
204.1913	0.5972
204.4086	0.6482
204.626	0.7344
204.8433	0.6532
205.0607	0.6426
205.278	0.6569
205.4953	0.673
205.7126	0.7552
205.9299	0.7792
206.1472	0.7549
206.3644	0.6135
206.5817	0.7757
206.7989	0.6919
207.0162	0.7558
207.2334	0.6346
207.4506	0.7212
207.6678	0.7234
207.885	0.6938
208.1022	0.5714
208.3194	0.68
208.5365	0.6835
208.7537	0.6433
208.9708	0.5938
209.1879	0.7088
209.405	0.7147
209.6222	0.7206
209.8392	0.6631
210.0563	0.6658
210.2734	0.7217
210.4905	0.5971
210.7075	0.6897
210.9245	0.6562
211.1416	0.7338
211.3586	0.5948
211.5756	0.607
211.7926	0.5571
212.0096	0.6254
212.2265	0.5647
212.4435	0.567
212.6604	0.6081
212.8774	0.5648
213.0943	0.5914
213.3112	0.5276
213.5281	0.5687
213.745	0.5151
213.9619	0.5285
214.1788	0.4814
214.3956	0.4587
214.6125	0.4649
214.8293	0.4532
215.0461	0.4546
215.2629	0.4602
215.4798	0.4679
215.6965	0.4169
215.9133	0.4368
216.1301	0.4243
216.3469	0.4499
216.5636	0.4163
216.7803	0.3871
216.9971	0.4043
217.2138	0.3795
217.4305	0.3731
217.6472	0.3573
217.8639	0.3941
218.0805	0.3657
218.2972	0.3104
218.5138	0.3361
218.7305	0.312
218.9471	0.3153
219.1637	0.2752
219.3803	0.2904
219.5969	0.2797
219.8135	0.263
220.0301	0.3086
220.2466	0.2897
220.4632	0.2576
220.6797	0.2348
220.8962	0.2462
221.1127	0.2717
221.3292	0.2555
221.5457	0.2552
221.7622	0.2248
221.9787	0.2577
222.1951	0.2341
222.4116	0.2579
222.628	0.2365
222.8444	0.2656
223.0608	0.2629
223.2772	0.2737
223.4936	0.274
223.71	0.2463
223.9264	0.2682
224.1427	0.2588
224.3591	0.2614
224.5754	0.2667
224.7917	0.2802
225.008	0.2862
225.2243	0.2619
225.4406	0.2893
225.6569	0.2818
225.8732	0.2648
226.0894	0.2751
226.3057	0.2722
226.5219	0.2894
226.7381	0.2859
226.9543	0.2915
227.1705	0.2995
227.3867	0.2893
227.6029	0.2824
227.8191	0.2807
228.0352	0.3183
228.2513	0.3096
228.4675	0.3199
228.6836	0.3143
228.8997	0.3171
229.1158	0.3205
229.3319	0.3384
229.548	0.3247
229.764	0.3245
229.9801	0.3409
230.1961	0.3402
230.4121	0.3245
230.6282	0.3411
230.8442	0.3141
231.0602	0.3608
231.2761	0.373
231.4921	0.3433
231.7081	0.3594
231.924	0.3565
232.14	0.3723
232.3559	0.3377
232.5718	0.3487
232.7877	0.3642
233.0036	0.3354
233.2195	0.3711
233.4353	0.3493
233.6512	0.3841
233.867	0.3554
234.0829	0.384
234.2987	0.3767
234.5145	0.3735
234.7303	0.3817
234.9461	0.3882
235.1619	0.3783
235.3776	0.3818
235.5934	0.3786
235.8091	0.3669
236.0249	0.3941
236.2406	0.3801
236.4563	0.3994
236.672	0.3896
236.8877	0.407
237.1034	0.4054
237.319	0.4127
237.5347	0.4147
237.7503	0.4106
237.966	0.4194
238.1816	0.4157
238.3972	0.4129
238.6128	0.3969
238.8284	0.412
239.0439	0.4246
239.2595	0.4149
239.475	0.428
239.6906	0.4249
239.9061	0.4053
240.1216	0.4081
240.3371	0.4041
240.5526	0.3902
240.7681	0.4135
240.9836	0.3795
241.199	0.3998
241.4145	0.3907
241.6299	0.3692
241.8453	0.3631
242.0607	0.3792
242.2761	0.3718
242.4915	0.3609
242.7069	0.3605
242.9223	0.3539
243.1376	0.3356
243.353	0.3467
243.5683	0.3627
243.7836	0.329
243.9989	0.3331
244.2142	0.3079
244.4295	0.3153
244.6448	0.3083
244.86	0.2922
245.0753	0.2824
245.2905	0.2736
245.5057	0.2834
245.721	0.2829
245.9362	0.2726
246.1514	0.279
246.3665	0.2427
246.5817	0.2594
246.7969	0.259
247.012	0.2491
247.2271	0.2216
247.4423	0.2338
247.6574	0.2329
247.8725	0.2324
248.0876	0.2261
248.3026	0.2101
248.5177	0.2186
248.7328	0.2097
248.9478	0.1924
249.1628	0.2137
249.3779	0.2185
249.5929	0.1912
249.8079	0.2087
250.0228	0.2095
250.2378	0.2066
250.4528	0.2042
250.6677	0.1938
250.8827	0.1878
251.0976	0.1882
251.3125	0.1956
251.5274	0.172
251.7423	0.1769
251.9572	0.1891
252.172	0.1867
252.3869	0.1819
252.6017	0.1844
252.8166	0.1685
253.0314	0.1666
253.2462	0.1718
253.461	0.188
253.6758	0.1667
253.8906	0.1776
254.1053	0.1772
254.3201	0.1602
254.5348	0.174
254.7496	0.1772
254.9643	0.17
255.179	0.1694
255.3937	0.1575
255.6083	0.1881
255.823	0.1876
256.0377	0.1623
256.2523	0.1561
256.467	0.1557
256.6816	0.1726
256.8962	0.1803
257.1108	0.1542
257.3254	0.1758
257.54	0.1557
257.7545	0.1667
257.9691	0.1695
258.1836	0.1595
258.3981	0.1703
258.6127	0.1797
258.8272	0.1593
259.0417	0.1618
259.2561	0.1523
259.4706	0.1548
259.6851	0.1678
259.8995	0.1535
260.114	0.1719
260.3284	0.1629
260.5428	0.1569
260.7572	0.1711
260.9716	0.1724
261.186	0.1669
261.4003	0.1572
261.6147	0.1703
261.829	0.1589
262.0433	0.167
262.2577	0.1606
262.472	0.1761
262.6863	0.1539
262.9005	0.1723
263.1148	0.1708
263.3291	0.1498
263.5433	0.1718
263.7576	0.1629
263.9718	0.1639
264.186	0.1576
264.4002	0.1634
264.6144	0.1522
264.8286	0.1737
265.0427	0.1594
265.2569	0.1823
265.471	0.1521
265.6851	0.1514
265.8993	0.1642
266.1134	0.1564
266.3275	0.1573
266.5415	0.1549
266.7556	0.1618
266.9697	0.1592
267.1837	0.1575
267.3978	0.155
267.6118	0.1622
267.8258	0.1657
268.0398	0.1628
268.2538	0.1648
268.4677	0.1594
268.6817	0.1487
268.8957	0.1626
269.1096	0.1641
269.3235	0.1694
269.5374	0.1523
269.7514	0.1438
269.9652	0.1509
270.1791	0.1444
270.393	0.1418
270.6068	0.1603
270.8207	0.1537
271.0345	0.1341
271.2483	0.162
271.4622	0.1397
271.676	0.155
271.8897	0.1394
272.1035	0.1433
272.3173	0.1388
272.531	0.1447
272.7448	0.1426
272.9585	0.1363
273.1722	0.1499
273.3859	0.1383
273.5996	0.1385
273.8133	0.1514
274.0269	0.1275
274.2406	0.1244
274.4542	0.1419
274.6679	0.1194
274.8815	0.1401
275.0951	0.1425
275.3087	0.1498
275.5223	0.1462
275.7358	0.1485
275.9494	0.1392
276.1629	0.1297
276.3765	0.1322
276.59	0.1461
276.8035	0.1282
277.017	0.1358
277.2305	0.1464
277.444	0.1479
277.6574	0.1352
277.8709	0.1379
278.0843	0.1335
278.2978	0.1462
278.5112	0.1332
278.7246	0.1285
278.938	0.144
279.1513	0.1496
279.3647	0.1476
279.5781	0.137
279.7914	0.1553
280.0047	0.1542
280.2181	0.145
280.4314	0.1488
280.6447	0.1457
280.8579	0.1576
281.0712	0.1597
281.2845	0.1559
281.4977	0.1385
281.711	0.149
281.9242	0.1395
282.1374	0.1548
282.3506	0.1448
282.5638	0.1519
282.7769	0.1463
282.9901	0.1476
283.2033	0.1577
283.4164	0.162
283.6295	0.1468
283.8426	0.1465
284.0557	0.1535
284.2688	0.168
284.4819	0.1553
284.695	0.1454
284.908	0.1572
285.1211	0.1542
285.3341	0.1517
285.5471	0.1543
285.7601	0.1638
285.9731	0.139
286.1861	0.1602
286.3991	0.1592
286.612	0.1709
286.825	0.1624
287.0379	0.1579
287.2508	0.1516
287.4637	0.1632
287.6766	0.1526
287.8895	0.1813
288.1024	0.1776
288.3152	0.1653
288.5281	0.1545
288.7409	0.1654
288.9538	0.1624
289.1666	0.1701
289.3794	0.1643
289.5922	0.1521
289.8049	0.1701
290.0177	0.1679
290.2304	0.161
290.4432	0.1716
290.6559	0.1705
290.8686	0.1636
291.0813	0.1668
291.294	0.1653
291.5067	0.1658
291.7194	0.1728
291.932	0.1774
292.1447	0.1624
292.3573	0.1515
292.5699	0.1667
292.7825	0.1679
292.9951	0.156
293.2077	0.1644
293.4203	0.1708
293.6328	0.151
293.8454	0.1739
294.0579	0.1643
294.2704	0.1737
294.4829	0.1701
294.6954	0.1724
294.9079	0.1646
295.1204	0.1612
295.3328	0.1531
295.5453	0.1715
295.7577	0.1693
295.9701	0.1519
296.1825	0.1704
296.3949	0.1697
296.6073	0.1664
296.8197	0.1724
297.0321	0.1783
297.2444	0.1653
297.4567	0.1733
297.6691	0.1751
297.8814	0.1707
298.0937	0.158
298.306	0.1621
298.5182	0.1651
298.7305	0.1721
298.9428	0.1647
299.155	0.1716
299.3672	0.1728
299.5794	0.1612
299.7916	0.1651
300.0038	0.1791
300.216	0.1793
300.4282	0.1736
300.6403	0.1691
300.8525	0.16
301.0646	0.1596
301.2767	0.1665
301.4888	0.1807
301.7009	0.1631
301.913	0.1613
302.125	0.1824
302.3371	0.1563
302.5491	0.1654
302.7612	0.1715
302.9732	0.1693
303.1852	0.1665
303.3972	0.1681
303.6092	0.1561
303.8211	0.1555
304.0331	0.1588
304.245	0.1635
304.457	0.1515
304.6689	0.1543
304.8808	0.1642
305.0927	0.1471
305.3046	0.1538
305.5164	0.1592
305.7283	0.1587
305.9401	0.1646
306.152	0.1618
306.3638	0.159
306.5756	0.1407
306.7874	0.1556
306.9992	0.1506
307.2109	0.1421
307.4227	0.1261
307.6344	0.1422
307.8462	0.1302
308.0579	0.1361
308.2696	0.1359
308.4813	0.1312
308.693	0.1361
308.9046	0.1316
309.1163	0.1279
309.328	0.1266
309.5396	0.1202
309.7512	0.1219
309.9628	0.1297
310.1744	0.1199
310.386	0.1196
310.5976	0.1164
310.8091	0.1072
311.0207	0.1236
311.2322	0.1225
311.4437	0.1067
311.6552	0.1131
311.8667	0.1184
312.0782	0.1028
312.2897	0.0983
312.5012	0.1002
312.7126	0.1085
312.924	0.0976
313.1355	0.1159
313.3469	0.1025
313.5583	0.1045
313.7696	0.0997
313.981	0.0993
314.1924	0.0974
314.4037	0.0922
314.6151	0.1
314.8264	0.1047
315.0377	0.0859
315.249	0.096
315.4603	0.1045
315.6716	0.1064
315.8828	0.0936
316.0941	0.1022
316.3053	0.0969
316.5165	0.0828
316.7277	0.0879
316.9389	0.1007
317.1501	0.0826
317.3613	0.0962
317.5724	0.0872
317.7836	0.0983
317.9947	0.0913
318.2058	0.0912
318.417	0.0789
318.6281	0.0761
318.8391	0.0979
319.0502	0.087
319.2613	0.0895
319.4723	0.1002
319.6834	0.0931
319.8944	0.0897
320.1054	0.0941
320.3164	0.0968
320.5274	0.0963
320.7383	0.0953
320.9493	0.0959
321.1602	0.1012
321.3712	0.0873
321.5821	0.0924
321.793	0.0946
322.0039	0.0889
322.2148	0.0865
322.4257	0.0932
322.6365	0.1103
322.8474	0.1003
323.0582	0.087
323.269	0.094
323.4798	0.1012
323.6906	0.1024
323.9014	0.1035
324.1122	0.0929
324.3229	0.0952
324.5337	0.0963
324.7444	0.0809
324.9551	0.107
325.1658	0.0971
325.3765	0.0888
325.5872	0.1042
325.7979	0.0951
326.0085	0.1013
326.2192	0.0953
326.4298	0.0915
326.6404	0.093
326.851	0.0928
327.0616	0.0944
327.2722	0.0974
327.4828	0.1001
327.6933	0.0991
327.9039	0.1043
328.1144	0.1083
328.3249	0.0981
328.5354	0.0803
328.7459	0.0941
328.9564	0.0929
329.1669	0.0993
329.3773	0.0969
329.5878	0.1002
329.7982	0.0963
330.0086	0.0932
330.219	0.1006
330.4294	0.1064
330.6398	0.1133
330.8502	0.0906
331.0605	0.1052
331.2708	0.1043
331.4812	0.0975
331.6915	0.1037
331.9018	0.1044
332.1121	0.0973
332.3224	0.0982
332.5326	0.1127
332.7429	0.0944
332.9531	0.1039
333.1633	0.107
333.3735	0.1077
333.5837	0.1058
333.7939	0.0895
334.0041	0.1152
334.2143	0.109
334.4244	0.1036
334.6346	0.0771
334.8447	0.1066
335.0548	0.1071
335.2649	0.0998
335.475	0.107
335.685	0.0979
335.8951	0.1093
336.1051	0.1118
336.3152	0.1029
336.5252	0.0906
336.7352	0.1073
336.9452	0.122
337.1552	0.1108
337.3652	0.0983
337.5751	0.103
337.7851	0.1042
337.995	0.1046
338.2049	0.1141
338.4148	0.1014
338.6247	0.1209
338.8346	0.1045
339.0445	0.1005
339.2543	0.1042
339.4642	0.1096
339.674	0.1009
339.8838	0.1107
340.0936	0.0959
340.3034	0.1095
340.5132	0.1159
340.7229	0.1109
340.9327	0.1102
341.1424	0.1052
341.3522	0.113
341.5619	0.1247
341.7716	0.1244
341.9813	0.1283
342.1909	0.1118
342.4006	0.1144
342.6102	0.1335
342.8199	0.1164
343.0295	0.1134
343.2391	0.1273
343.4487	0.1251
343.6583	0.1129
343.8679	0.1116
344.0774	0.1221
344.287	0.1245
344.4965	0.116
344.706	0.1207
344.9155	0.1252
345.125	0.1291
345.3345	0.1211
345.544	0.1131
345.7534	0.1235
345.9629	0.1214
346.1723	0.1248
346.3817	0.1132
346.5911	0.1156
346.8005	0.1321
347.0099	0.1213
347.2193	0.1272
347.4286	0.1184
347.638	0.1216
347.8473	0.133
348.0566	0.1219
348.2659	0.1444
348.4752	0.1357
348.6845	0.1268
348.8937	0.1273
349.103	0.1277
349.3122	0.1182
349.5214	0.1256
349.7306	0.1406
349.9398	0.1359
350.149	0.1338
350.3582	0.1274
350.5674	0.1528
350.7765	0.1351
350.9856	0.132
351.1948	0.1368
351.4039	0.1282
351.613	0.1153
351.822	0.1425
352.0311	0.1551
352.2402	0.1422
352.4492	0.1557
352.6582	0.1503
352.8672	0.1366
353.0762	0.1558
353.2852	0.1404
353.4942	0.1393
353.7032	0.163
353.9121	0.1511
354.1211	0.1513
354.33	0.1485
354.5389	0.1457
354.7478	0.151
354.9567	0.1404
355.1655	0.1444
355.3744	0.1559
355.5833	0.1505
355.7921	0.1745
356.0009	0.1573
356.2097	0.1742
356.4185	0.1657
356.6273	0.1599
356.8361	0.161
357.0448	0.1614
357.2536	0.1441
357.4623	0.1526
357.671	0.162
357.8797	0.1548
358.0884	0.1759
358.2971	0.1586
358.5057	0.1604
358.7144	0.1781
358.923	0.1767
359.1316	0.171
359.3402	0.1721
359.5488	0.1712
359.7574	0.1693
359.966	0.1832
360.1746	0.1692
360.3831	0.1787
360.5916	0.164
360.8002	0.1628
361.0087	0.1789
361.2172	0.1806
361.4256	0.1722
361.6341	0.1923
361.8426	0.1774
362.051	0.1891
362.2594	0.189
362.4678	0.1872
362.6762	0.2207
362.8846	0.1907
363.093	0.1865
363.3014	0.1865
363.5097	0.1717
363.718	0.1846
363.9264	0.1854
364.1347	0.1833
364.343	0.2007
364.5513	0.2013
364.7595	0.1874
364.9678	0.2007
365.176	0.2031
365.3842	0.1965
365.5925	0.1905
365.8007	0.2101
366.0089	0.1929
366.217	0.194
366.4252	0.2122
366.6333	0.216
366.8415	0.2076
367.0496	0.1926
367.2577	0.2157
367.4658	0.2108
367.6739	0.2219
367.882	0.2119
368.09	0.1866
368.2981	0.227
368.5061	0.2231
368.7141	0.1956
368.9221	0.2229
369.1301	0.2115
369.3381	0.214
369.5461	0.2262
369.754	0.2171
369.962	0.2307
370.1699	0.2252
370.3778	0.2088
370.5857	0.1955
370.7936	0.2269
371.0015	0.2217
371.2093	0.226
371.4172	0.2304
371.625	0.2124
371.8328	0.2422
372.0406	0.2297
372.2484	0.2174
372.4562	0.2176
372.664	0.2297
372.8717	0.2319
373.0795	0.2132
373.2872	0.2331
373.4949	0.2213
373.7026	0.2398
373.9103	0.2364
374.118	0.2279
374.3256	0.233
374.5333	0.2241
374.7409	0.2151
374.9485	0.2572
375.1561	0.2278
375.3637	0.245
375.5713	0.2417
375.7789	0.2412
375.9864	0.25
376.194	0.23
376.4015	0.2408
376.609	0.2693
376.8165	0.2548
377.024	0.2364
377.2315	0.2216
377.4389	0.2443
377.6464	0.2491
377.8538	0.2511
378.0612	0.2483
378.2686	0.2549
378.476	0.2635
378.6834	0.2634
378.8908	0.2586
379.0981	0.2603
379.3055	0.2444
379.5128	0.237
379.7201	0.2462
379.9274	0.2467
380.1347	0.2543
380.342	0.2541
380.5492	0.2483
380.7565	0.2696
380.9637	0.2721
381.1709	0.2637
381.3781	0.2607
381.5853	0.2769
381.7925	0.2542
381.9997	0.2669
382.2068	0.2718
382.4139	0.2735
382.6211	0.2533
382.8282	0.2586
383.0353	0.2645
383.2424	0.2696
383.4494	0.2687
383.6565	0.2543
383.8635	0.2532
384.0706	0.2483
384.2776	0.2589
384.4846	0.2587
384.6916	0.2701
384.8986	0.2605
385.1055	0.2741
385.3125	0.2698
385.5194	0.2609
385.7263	0.2742
385.9333	0.2723
386.1402	0.2492
386.347	0.2685
386.5539	0.2604
386.7608	0.2739
386.9676	0.2565
387.1744	0.2747
387.3813	0.2534
387.5881	0.2775
387.7948	0.2562
388.0016	0.2607
388.2084	0.2654
388.4151	0.2461
388.6219	0.276
388.8286	0.2546
389.0353	0.277
389.242	0.2528
389.4487	0.2506
389.6553	0.2411
389.862	0.2382
390.0686	0.2624
390.2753	0.2557
390.4819	0.2656
390.6885	0.2517
390.8951	0.2452
391.1016	0.2417
391.3082	0.2433
391.5147	0.24
391.7213	0.2309
391.9278	0.2452
392.1343	0.2379
392.3408	0.2489
392.5473	0.2403
392.7537	0.2372
392.9602	0.2417
393.1666	0.2251
393.373	0.2433
393.5794	0.2385
393.7858	0.2424
393.9922	0.2347
394.1986	0.2504
394.4049	0.2475
394.6113	0.229
394.8176	0.2345
395.0239	0.2343
395.2302	0.2247
395.4365	0.2463
395.6428	0.2513
395.8491	0.2261
396.0553	0.235
396.2615	0.2349
396.4678	0.229
396.674	0.2195
396.8802	0.2344
397.0863	0.2334
397.2925	0.2354
397.4987	0.2219
397.7048	0.2361
397.9109	0.2346
398.117	0.2037
398.3231	0.2074
398.5292	0.2309
398.7353	0.2407
398.9413	0.2237
399.1474	0.226
399.3534	0.2349
399.5594	0.204
399.7654	0.2269
399.9714	0.2386
400.1774	0.2278
400.3833	0.2123
400.5893	0.2223
400.7952	0.2268
401.0011	0.2384
401.207	0.2429
401.4129	0.2279
401.6188	0.2373
401.8247	0.2318
402.0305	0.2226
402.2364	0.2193
402.4422	0.2292
402.648	0.2375
402.8538	0.2278
403.0596	0.2151
403.2654	0.2266
403.4711	0.2341
403.6768	0.2355
403.8826	0.2428
404.0883	0.2255
404.294	0.2387
404.4997	0.2399
404.7054	0.2232
404.911	0.2438
405.1167	0.2283
405.3223	0.2342
405.5279	0.2305
405.7335	0.2234
405.9391	0.2368
406.1447	0.2164
406.3502	0.2324
406.5558	0.2235
406.7613	0.2297
406.9668	0.2303
407.1724	0.2209
407.3778	0.2261
407.5833	0.2509
407.7888	0.2274
407.9942	0.2326
408.1997	0.2189
408.4051	0.2248
408.6105	0.2285
408.8159	0.2158
409.0213	0.2074
409.2267	0.245
409.432	0.2132
409.6374	0.2151
409.8427	0.2187
410.048	0.2164
410.2533	0.2168
410.4586	0.2265
410.6639	0.2004
410.8691	0.2147
411.0744	0.2318
411.2796	0.2077
411.4848	0.2224
411.69	0.2365
411.8952	0.2455
412.1004	0.2143
412.3056	0.2254
412.5107	0.2187
412.7158	0.2433
412.921	0.2284
413.1261	0.1995
413.3312	0.2093
413.5362	0.2062
413.7413	0.2161
413.9464	0.2233
414.1514	0.2294
414.3564	0.2115
414.5614	0.2097
414.7664	0.2136
414.9714	0.2204
415.1764	0.2266
415.3813	0.2299
415.5863	0.2137
415.7912	0.2123
415.9961	0.2244
416.201	0.2263
416.4059	0.223
416.6108	0.2116
416.8156	0.2288
417.0205	0.22
417.2253	0.1997
417.4301	0.2146
417.6349	0.1996
417.8397	0.2095
418.0445	0.2102
418.2492	0.2071
418.454	0.2002
418.6587	0.2263
418.8634	0.2151
419.0681	0.2034
419.2728	0.2037
419.4775	0.2016
419.6822	0.1964
419.8868	0.199
420.0915	0.2139
420.2961	0.2029
420.5007	0.2105
420.7053	0.2068
420.9099	0.2237
421.1144	0.2056
421.319	0.2004
421.5235	0.2078
421.728	0.208
421.9325	0.1992
422.137	0.2126
422.3415	0.1939
422.546	0.1986
422.7504	0.1959
422.9549	0.2094
423.1593	0.1945
423.3637	0.1986
423.5681	0.2064
423.7725	0.1928
423.9769	0.1812
424.1812	0.189
424.3856	0.1862
424.5899	0.1969
424.7942	0.2043
424.9985	0.189
425.2028	0.179
425.4071	0.2105
425.6113	0.1685
425.8156	0.2015
426.0198	0.1952
426.224	0.1967
426.4282	0.1782
426.6324	0.1808
426.8366	0.1853
427.0407	0.1743
427.2449	0.1654
427.449	0.1888
427.6531	0.1581
427.8572	0.1807
428.0613	0.164
428.2654	0.1698
428.4694	0.1628
428.6735	0.1656
428.8775	0.1891
429.0815	0.1735
429.2855	0.1396
429.4895	0.184
429.6935	0.1593
429.8975	0.1571
430.1014	0.1519
430.3053	0.1476
430.5093	0.1618
430.7132	0.148
430.9171	0.1534
431.1209	0.1611
431.3248	0.1582
431.5286	0.1511
431.7325	0.1434
431.9363	0.1508
432.1401	0.1474
432.3439	0.145
432.5477	0.1125
432.7514	0.1306
432.9552	0.1432
433.1589	0.1251
433.3627	0.1236
433.5664	0.1241
433.7701	0.1253
433.9737	0.1272
434.1774	0.123
434.3811	0.1322
434.5847	0.1405
434.7883	0.1378
434.9919	0.1295
435.1955	0.1092
435.3991	0.1203
435.6027	0.1202
435.8062	0.1112
436.0098	0.1059
436.2133	0.1092
436.4168	0.1127
436.6203	0.1076
436.8238	0.1188
437.0272	0.111
437.2307	0.0956
437.4341	0.1009
437.6375	0.0994
437.841	0.0944
438.0443	0.1054
438.2477	0.1142
438.4511	0.0886
438.6545	0.0947
438.8578	0.0924
439.0611	0.0942
439.2644	0.0974
439.4677	0.0811
439.671	0.0717
439.8743	0.0825
440.0775	0.0963
440.2808	0.0826
440.484	0.0741
440.6872	0.063
440.8904	0.0755
441.0936	0.1043
441.2967	0.089
441.4999	0.0841
441.703	0.0727
441.9062	0.0781
442.1093	0.075
442.3124	0.0781
442.5155	0.0596
442.7185	0.0684
442.9216	0.0537
443.1246	0.076
443.3276	0.063
443.5307	0.0566
443.7337	0.0606
443.9366	0.0765
444.1396	0.0635
444.3426	0.054
444.5455	0.0633
444.7484	0.0489
444.9513	0.0551
445.1542	0.0661
445.3571	0.0521
445.56	0.0487
445.7628	0.0315
445.9657	0.0458
446.1685	0.0576
446.3713	0.0458
446.5741	0.0435
446.7769	0.0365
446.9797	0.058
447.1824	0.0548
447.3852	0.0364
447.5879	0.0571
447.7906	0.0466
447.9933	0.0399
448.196	0.0317
448.3986	0.0486
448.6013	0.0273
448.8039	0.0149
449.0066	0.0263
449.2092	0.0524
449.4118	0.0229
449.6143	0.0223
449.8169	0.0453
450.0195	0.0223
450.222	0.021
450.4245	0.0256
450.627	0.0387
450.8295	0.0291
451.032	0.0361
451.2345	0.0292
451.4369	0.0424
451.6394	0.0366
451.8418	0.0137
452.0442	0.017
452.2466	0.0397
452.449	0.0185
452.6513	0.0279
452.8537	0.0027
453.056	0.0082
453.2583	0.0132
453.4607	0.0138
453.663	0.0261
453.8652	0.0367
454.0675	0.012
454.2697	0.0203
454.472	0.018
454.6742	0.0276
454.8764	0.0147
455.0786	0.0162
455.2808	0.0056
455.4829	0.0349
455.6851	0.0155
455.8872	0.0227
456.0893	0.013
456.2915	0.014
456.4935	0.0237
456.6956	0.0039
456.8977	0.015
457.0997	0.0073
457.3018	0.0026
457.5038	0.0165
457.7058	0.0028
457.9078	0.0088
458.1098	0.0063
458.3117	0.0231
458.5137	0.0139
458.7156	0.0157
458.9175	0.0073
459.1194	-0.0062
459.3213	0.0073
459.5232	0.0023
459.725	-0.0028
459.9269	-0.0066
460.1287	-0.0069
460.3305	0.0186
460.5323	0.0228
460.7341	0.01
460.9359	0.0012
461.1376	0.0034
461.3394	0.0084
461.5411	-0.0084
461.7428	-0.0022
461.9445	0.0128
462.1462	0.0183
462.3479	0.0112
462.5495	0.0128
462.7512	0.0129
462.9528	0.0048
463.1544	-0.0116
463.356	0.0066
463.5576	0.0041
463.7592	-0.0174
463.9607	-0.001
464.1623	0.0153
464.3638	0.0147
464.5653	-0.0172
464.7668	0.0044
464.9683	0.0073
465.1697	0.0147
465.3712	-0.01
465.5726	-0.0046
465.7741	-0.0005
465.9755	0.0002
466.1769	-0.001
466.3782	-0.0037
466.5796	-0.0143
466.7809	0.0136
466.9823	-0.0022
467.1836	0.0001
467.3849	0.0063
467.5862	0.0026
467.7875	-0.0162
467.9887	0.0182
468.19	-0.0066
468.3912	-0.0095
468.5924	-0.0025
468.7936	-0.0077
468.9948	0.0077
469.196	-0.0053
469.3972	-0.01
469.5983	0.0079
469.7994	-0.0037
470.0006	-0.0011
470.2017	-0.0074
470.4027	-0.0177
470.6038	0.0168
470.8049	-0.0072
471.0059	-0.0131
471.2069	-0.0222
471.408	-0.0014
471.6089	0.0172
471.8099	0.0025
472.0109	0.012
472.2119	-0.008
472.4128	-0.0163
472.6137	-0.0034
472.8146	-0.0026
473.0155	0.0083
473.2164	-0.0031
473.4173	0.005
473.6181	0.0089
473.819	0.0072
474.0198	-0.0035
474.2206	-0.0024
474.4214	-0.0036
474.6222	-0.0075
474.8229	0.0037
475.0237	-0.0109
475.2244	-0.0069
475.4251	-0.0102
475.6258	-0.0012
475.8265	-0.0001
476.0272	0.0107
476.2278	-0.0049
476.4285	-0.0028
476.6291	-0.0012
476.8297	-0.0009
477.0303	-0.002
477.2309	-0.0105
477.4315	-0.0194
477.632	-0.0004
477.8326	-0.0107
478.0331	-0.0032
478.2336	0.0105
478.4341	0.0064
478.6346	-0.0048
478.8351	0
479.0355	-0.0019
479.236	-0.0053
479.4364	0.003
479.6368	0.001
479.8372	-0.0156
480.0376	0.0046
480.2379	-0.0156
480.4383	-0.0036
480.6386	0.0065
480.8389	0.0004
481.0392	-0.0007
481.2395	-0.0039
481.4398	0.0117
481.6401	0.0046
481.8403	-0.0012
482.0405	-0.0001
482.2408	-0.0043
482.441	0.0045
482.6411	0.0016
482.8413	-0.0088
483.0415	0.0015
483.2416	-0.013
483.4417	-0.0057
483.6419	-0.006
483.8419	0.0053
484.042	0.0078
484.2421	0.0057
484.4422	0.0004
484.6422	-0.0033
484.8422	0.0097
485.0422	-0.0047
485.2422	0.0043
485.4422	-0.0062
485.6422	-0.0124
485.8421	-0.0016
486.042	0.0002
486.242	-0.0023
486.4419	-0.0076
486.6417	-0.0094
486.8416	-0.0019
487.0415	-0.01
487.2413	-0.0065
487.4411	-0.0126
487.641	-0.0132
487.8408	0.0012
488.0405	-0.0067
488.2403	-0.0098
488.4401	0.0082
488.6398	-0.0039
488.8395	-0.0063
489.0392	0.0045
489.2389	-0.0097
489.4386	-0.0109
489.6383	-0.0035
489.8379	0.0112
490.0376	-0.0112
490.2372	-0.0038
490.4368	-0.0086
490.6364	-0.0072
490.836	-0.0119
491.0355	-0.0057
491.2351	-0.0057
491.4346	-0.0076
491.6341	-0.0149
491.8336	0.0066
492.0331	-0.0152
492.2326	-0.0004
492.432	0.0035
492.6315	-0.0082
492.8309	-0.0102
493.0303	-0.0081
493.2297	-0.0049
493.4291	0.0015
493.6284	0.0009
493.8278	-0.0093
494.0271	-0.0051
494.2264	0.0095
494.4257	-0.0154
494.625	0.0014
494.8243	-0.0138
495.0236	-0.0068
495.2228	-0.0029
495.422	-0.0018
495.6213	-0.0057
495.8205	0.0014
496.0196	-0.0038
496.2188	-0.0038
496.418	-0.0058
496.6171	-0.0032
496.8162	-0.0142
497.0153	0.0024
497.2144	-0.0148
497.4135	0.0002
497.6126	-0.0098
497.8116	-0.0072
498.0107	-0.0019
498.2097	-0.0131
498.4087	-0.0086
498.6077	-0.0045
498.8067	-0.0136
499.0056	-0.0008
499.2046	-0.0108
499.4035	-0.0118
499.6024	-0.0027
499.8013	-0.0068
500.0002	-0.0059
500.199	-0.0032
500.3979	-0.0132
500.5967	-0.0165
500.7956	-0.0005
500.9944	-0.0074
501.1932	-0.0147
501.3919	-0.0081
501.5907	-0.0103
501.7895	-0.005
501.9882	-0.0147
502.1869	-0.0138
502.3856	-0.0141
502.5843	-0.0085
502.783	0.0011
502.9816	-0.003
503.1803	-0.0163
503.3789	-0.004
503.5775	-0.0002
503.7761	-0.0131
503.9747	-0.0076
504.1732	-0.0056
504.3718	-0.0032
504.5703	0.0036
504.7689	-0.0119
504.9674	-0.0018
505.1658	-0.0066
505.3643	0.0044
505.5628	0.0021
505.7612	-0.0102
505.9597	0.0129
506.1581	-0.0002
506.3565	0.0136
506.5549	-0.0026
506.7532	-0.0034
506.9516	0.0006
507.1499	-0.0016
507.3482	-0.0108
507.5465	-0.0075
507.7448	0.0015
507.9431	-0.006
508.1414	0.0021
508.3396	-0.0065
508.5379	-0.0057
508.7361	-0.0067
508.9343	-0.0027
509.1325	0.0027
509.3306	-0.0035
509.5288	-0.0045
509.7269	-0.0028
509.9251	-0.0065
510.1232	-0.0073
510.3213	-0.0049
510.5193	0.0025
510.7174	-0.0116
510.9154	-0.0152
511.1135	-0.0113
511.3115	-0.0067
511.5095	0.0147
511.7075	-0.0071
511.9055	0.0001
512.1034	-0.0091
512.3014	-0.0031
512.4993	-0.0028
512.6972	-0.0032
512.8951	-0.0035
513.093	-0.0027
513.2908	-0.0066
513.4887	-0.0018
513.6865	-0.0057
513.8844	-0.0072
514.0822	-0.0077
514.2799	-0.0046
514.4777	0.0022
514.6755	-0.0135
514.8732	0.0017
515.0709	0.0033
515.2687	-0.0052
515.4664	0.0022
515.664	-0.0007
515.8617	-0.0041
516.0594	-0.0053
516.257	-0.0002
516.4546	-0.007
516.6522	-0.004
516.8498	0.0026
517.0474	-0.0001
517.2449	0.0038
517.4425	-0.0132
517.64	-0.0069
517.8375	0.002
518.035	-0.0032
518.2325	-0.018
518.43	-0.0046
518.6274	-0.0015
518.8249	-0.0201
519.0223	-0.0054
519.2197	-0.0064
519.4171	-0.0075
519.6145	-0.0075
519.8118	0.0054
520.0092	-0.0113
520.2065	-0.0083
520.4038	-0.016
520.6011	-0.0043
520.7984	-0.0113
520.9956	-0.0032
521.1929	-0.01
521.3901	0.0039
521.5874	-0.0039
521.7846	-0.0065
521.9818	-0.0115
522.1789	-0.0169
522.3761	-0.0009
522.5732	0.0032
522.7704	0.0008
522.9675	-0.0032
523.1646	-0.0033
523.3617	0.0101
523.5587	-0.0091
523.7558	-0.0009
523.9528	0.0019
524.1498	-0.0057
524.3468	-0.0071
524.5438	-0.0134
524.7408	-0.0047
524.9378	0.0072
525.1347	0.0065
525.3316	0.0019
525.5285	-0.0063
525.7254	0.0052
525.9223	0.0002
526.1192	-0.0019
526.316	-0.0064
526.5129	0.0047
526.7097	-0.011
526.9065	0.0041
527.1033	-0.0109
527.3	0.003
527.4968	0.0033
527.6935	0.0039
527.8903	-0.0031
528.087	0.004
528.2837	-0.0045
528.4804	-0.0048
528.677	-0.0104
528.8737	0.0109
529.0703	-0.0141
529.2669	-0.0013
529.4635	-0.0053
529.6601	0.0038
529.8567	-0.0007
530.0532	-0.0089
530.2498	0.0103
530.4463	0.0086
530.6428	-0.0038
530.8393	0.0055
531.0358	-0.0038
531.2322	-0.0036
531.4287	0.0116
531.6251	-0.0118
531.8215	0.0061
532.0179	0.0036
532.2143	0.0094
532.4107	-0.0052
532.607	-0.0023
532.8034	0.0108
532.9997	-0.0019
533.196	0.0008
533.3923	-0.0151
533.5886	0.0053
533.7848	-0.008
533.9811	-0.0048
534.1773	-0.0011
534.3735	0.0035
534.5697	-0.0028
534.7659	-0.0071
534.9621	-0.0005
535.1582	-0.0104
535.3544	-0.0043
535.5505	-0.0079
535.7466	-0.0064
535.9427	-0.0043
536.1387	-0.0046
536.3348	-0.0137
536.5308	-0.0051
536.7269	-0.0086
536.9229	0.0037
537.1189	-0.0044
537.3148	-0.0075
537.5108	-0.0023
537.7068	-0.0058
537.9027	-0.0021
538.0986	0.0037
538.2945	-0.0085
538.4904	-0.0034
538.6863	-0.0079
538.8821	-0.0055
539.078	-0.0014
539.2738	-0.0032
539.4696	-0.0071
539.6654	0.0022
539.8611	0.0124
540.0569	-0.0037
540.2526	-0.0081
540.4484	-0.0001
540.6441	0.009
540.8398	0.0011
541.0355	-0.0011
541.2311	-0.0026
541.4268	-0.0086
541.6224	0.0016
541.818	-0.0047
542.0136	-0.0058
542.2092	0.0006
542.4048	0.0067
542.6003	-0.0004
542.7959	-0.0043
542.9914	-0.0001
543.1869	-0.0024
543.3824	0.004
543.5779	-0.0108
543.7734	0.0036
543.9688	-0.0062
544.1642	0.0008
544.3596	0.0003
544.555	-0.0012
544.7504	-0.0041
544.9458	-0.0084
545.1411	0.0029
545.3365	-0.0042
545.5318	0.0004
545.7271	0.0036
545.9224	-0.0083
546.1177	-0.0044
546.3129	0.0045
546.5081	0.0023
546.7034	-0.0016
546.8986	-0.003
547.0938	-0.0065
547.289	-0.0135
547.4841	0.0001
547.6793	-0.0028
547.8744	-0.0064
548.0695	-0.0026
548.2646	-0.0131
548.4597	-0.0041
548.6548	-0.0033
548.8498	-0.0043
549.0448	0.0079
549.2399	-0.0089
549.4349	0.0131
549.6298	0.0048
549.8248	0.0033
550.0198	-0.007
550.2147	-0.0013
550.4096	-0.002
550.6045	0.0045
550.7994	0.0065
550.9943	0.0007
551.1892	0.0033
551.384	0.0007
551.5788	0.0016
551.7737	-0.0017
551.9685	-0.004
552.1632	0.0072
552.358	-0.0017
552.5528	-0.0023
552.7475	-0.0035
552.9422	0.0018
553.1369	-0.0015
553.3316	0.0017
553.5263	-0.0043
553.7209	0.0072
553.9156	-0.0063
554.1102	-0.0064
554.3048	-0.0039
554.4994	0.0086
554.694	0.0024
554.8885	0.0068
555.0831	-0.0099
555.2776	-0.0066
555.4721	0.0093
555.6666	0.001
555.8611	0.0121
556.0555	-0.0058
556.25	-0.0004
556.4444	-0.0116
556.6388	0.0095
556.8332	0.002
557.0276	-0.0009
557.222	-0.0035
557.4163	0.0025
557.6107	-0.0024
557.805	0.0106
557.9993	-0.001
558.1936	0.0014
558.3879	0.0048
558.5821	0.0011
558.7764	0.0015
558.9706	0.0008
559.1648	0.0039
559.359	-0.0086
559.5532	-0.0053
559.7473	-0.0037
559.9415	0.0009
560.1356	-0.0005
560.3297	-0.0012
560.5238	-0.0048
560.7179	0.0047
560.9119	-0.0009
561.106	-0.0017
561.3	-0.0066
561.494	-0.0038
561.688	-0.0037
561.882	-0.0138
562.076	-0.0069
562.2699	0.0082
562.4639	0.0024
562.6578	-0.0051
562.8517	0.0011
563.0456	0.0032
563.2395	0.0075
563.4333	0.0027
563.6272	0.007
563.821	0.0017
564.0148	-0.005
564.2086	-0.0064
564.4024	-0.0029
564.5961	0.0016
564.7899	-0.0011
564.9836	0
565.1773	0.0021
565.371	0.0054
565.5647	0.0027
565.7584	0.0019
565.952	0.0029
566.1456	0.0079
566.3393	0.0023
566.5329	-0.012
566.7264	0.0027
566.92	-0.0047
567.1136	0.011
567.3071	-0.0059
567.5006	0.0049
567.6941	0.005
567.8876	0.0083
568.0811	-0.0053
568.2745	0.0063
568.468	0.0065
568.6614	0.0093
568.8548	0.0015
569.0482	-0.0023
569.2416	0.0008
569.4349	-0.0039
569.6283	0.0063
569.8216	0.0036
570.0149	-0.0023
570.2082	0.0064
570.4015	0.0084
570.5947	0.0014
570.788	0.0082
570.9812	0.005
571.1744	0.0005
571.3676	-0.0133
571.5608	0.0017
571.754	0.0054
571.9471	0.0064
572.1402	0.0027
572.3333	-0.0016
572.5264	-0.0016
572.7195	0.0027
572.9126	0.0047
573.1057	0.0067
573.2987	-0.0056
573.4917	0.0097
573.6847	-0.0027
573.8777	0.0055
574.0707	0.0109
574.2636	0.0002
574.4566	0.0012
574.6495	0.007
574.8424	0.0012
575.0353	-0.0019
575.2281	0.0126
575.421	0.0031
575.6138	0.0099
575.8067	0.0026
575.9995	0.0058
576.1923	0.0035
576.385	0.0044
576.5778	0.0004
576.7706	0.0023
576.9633	0.0057
577.156	0.0012
577.3487	0.0014
577.5414	-0.0022
577.734	-0.0026
577.9267	0.0045
578.1193	-0.0046
578.3119	0.0017
578.5045	0.0034
578.6971	0.005
578.8897	0.0059
579.0822	0.0066
579.2747	0.0064
579.4673	-0.0041
579.6598	-0.0099
579.8522	-0.0002
580.0447	-0.0019
580.2372	-0.0016
580.4296	0.0048
580.622	-0.0003
580.8144	-0.0004
581.0068	-0.0038
581.1992	-0.0115
581.3915	-0.0001
581.5839	-0.005
581.7762	-0.0118
581.9685	-0.0025
582.1608	0.004
582.353	-0.0072
582.5453	0.0019
582.7375	0.005
582.9298	0.003
583.122	-0.0026
583.3142	0.0015
583.5063	0.0064
583.6985	-0.0001
583.8906	0.0023
584.0827	-0.0038
584.2749	0.0076
584.4669	0.0019
584.659	0.0041
584.8511	0.0008
585.0431	-0.0012
585.2352	0.0005
585.4272	0.0014
585.6192	0.007
585.8111	-0.0005
586.0031	0.0058
586.195	-0.005
586.387	0.0056
586.5789	0.0008
586.7708	0.0002
586.9627	0.0036
587.1545	0.0048
587.3464	0.0038
587.5382	0.0067
587.73	0.0048
587.9218	0.0107
588.1136	0.0024
588.3053	0.0033
588.4971	-0.0002
588.6888	-0.0092
588.8805	0.0013
589.0722	0.0057
589.2639	0.0015
589.4556	0.0018
589.6472	0.0007
589.8389	-0.0017
590.0305	-0.0114
590.2221	0.0051
590.4137	-0.0068
590.6052	0.0008
590.7968	-0.0023
590.9883	0
591.1798	0.0006
591.3713	-0.0005
591.5628	-0.0058
591.7543	0.0029
591.9458	0.0047
592.1372	0.0079
592.3286	0.0114
592.52	0.0075
592.7114	-0.0021
592.9028	0.0031
593.0941	-0.0102
593.2855	0.0042
593.4768	-0.0042
593.6681	-0.0104
593.8594	-0.0008
594.0506	0.0044
594.2419	0.0077
594.4331	-0.0039
594.6244	0.0044
594.8156	-0.0035
595.0067	-0.0008
595.1979	-0.0012
595.3891	0.0006
595.5802	-0.0053
595.7713	-0.0036
595.9624	0.0024
596.1535	0.0194
596.3446	-0.0029
596.5357	0.003
596.7267	0.0067
596.9177	0.0004
597.1087	-0.0003
597.2997	0.0003
597.4907	0.0103
597.6817	-0.0026
597.8726	-0.0046
598.0635	0.0009
598.2544	-0.0048
598.4453	-0.0028
598.6362	0.0009
598.827	0.001
599.0179	0.0058
599.2087	0.0045
599.3995	0.004
599.5903	-0.0035
599.7811	-0.0027
599.9718	0.0018
600.1626	-0.0016
600.3533	-0.005
600.544	0.0031
600.7347	-0.0057
600.9254	0.0003
601.116	-0.0069
601.3067	-0.0031
601.4973	0.0004
601.6879	0.0023
601.8785	-0.0024
602.0691	0.0026
602.2596	0.0069
602.4502	0.0075
602.6407	0.0063
602.8312	0.0043
603.0217	-0.0005
603.2122	0.0071
603.4027	0.0013
603.5931	-0.0027
603.7835	0.0008
603.9739	0.0059
604.1643	0.0059
604.3547	-0.0021
604.5451	0.0096
604.7354	0.0028
604.9257	0.0073
605.116	-0.0045
605.3063	0.0076
605.4966	0.0086
605.6869	0.002
605.8771	0.0099
606.0673	0.004
606.2575	0.008
606.4477	0.005
606.6379	0.0074
606.8281	0.001
607.0182	-0.0033
607.2083	0.0093
607.3985	-0.0003
607.5885	0.0059
607.7786	0.0043
607.9687	-0.0001
608.1587	0.0016
608.3488	0.0058
608.5388	0.0022
608.7288	-0.009
608.9187	-0.0046
609.1087	-0.0045
609.2986	-0.0057
609.4886	-0.0046
609.6785	0.0002
609.8684	0.0058
610.0582	0.0087
610.2481	0.0054
610.4379	-0.0011
610.6278	0.0023
610.8176	-0.0015
611.0074	0.0005
611.1971	-0.0062
611.3869	0.0021
611.5766	-0.0125
611.7664	0.0052
611.9561	0.0055
612.1458	0.0053
612.3354	-0.0006
612.5251	0.0029
612.7147	-0.0031
612.9044	0.0035
613.094	-0.0093
613.2836	0.0013
613.4731	-0.0076
613.6627	-0.0009
613.8522	0.004
614.0417	0.0085
614.2313	-0.0017
614.4207	-0.0034
614.6102	0.0062
614.7997	-0.0012
614.9891	0.0032
615.1785	0.0005
615.3679	0.0013
615.5573	0.0072
615.7467	-0.002
615.9361	-0.0048
616.1254	0.0046
616.3147	0.0071
616.504	0.006
616.6933	0.0065
616.8826	0.0081
617.0718	0.0059
617.2611	0.0105
617.4503	0.0055
617.6395	-0.0005
617.8287	-0.0036
618.0179	-0.0013
618.207	0.0069
618.3961	0.006
618.5853	-0.0059
618.7744	0.0017
618.9634	0.0041
619.1525	0.0047
619.3416	0.0074
619.5306	0.0109
619.7196	0.0124
619.9086	0.0007
620.0976	0.0059
620.2866	0.0035
620.4755	0.0076
620.6645	0.0178
620.8534	0.0052
621.0423	0.0031
621.2312	0.0124
621.42	0.0009
621.6089	0.0028
621.7977	0.006
621.9865	-0.0019
622.1753	0.0064
622.3641	0.0008
622.5529	0.0036
622.7416	0.0072
622.9303	-0.0087
623.1191	0.0047
623.3078	-0.0006
623.4964	0.0018
623.6851	0.0064
623.8737	-0.0013
624.0624	0.0042
624.251	-0.0026
624.4396	0.0037
624.6282	-0.0081
624.8167	0.0043
625.0053	-0.0013
625.1938	0.0062
625.3823	0.0011
625.5708	-0.0022
625.7593	-0.0017
625.9477	-0.003
626.1362	-0.0024
626.3246	-0.0002
626.513	0.0048
626.7014	0.0026
626.8898	0.0027
627.0781	0.0076
627.2665	-0.0026
627.4548	0.0143
627.6431	0.0106
627.8314	0.0048
628.0197	0.0004
628.2079	-0.0054
628.3962	-0.001
628.5844	0.0076
628.7726	0.0108
628.9608	0.0057
629.1489	0.0021
629.3371	0.0087
629.5252	0.001
629.7134	0.0028
629.9015	0.0021
630.0895	0.0078
630.2776	0.0026
630.4657	0.0054
630.6537	0.0005
630.8417	-0.0021
631.0297	0.0003
631.2177	0.0091
631.4057	-0.002
631.5936	0.0086
631.7815	0.0039
631.9695	0.0024
632.1574	0.0072
632.3452	0.0105
632.5331	0.0035
632.7209	0.0011
632.9088	0.0132
633.0966	0.0103
633.2844	0.003
633.4722	0.0081
633.6599	0.0066
633.8477	0.0082
634.0354	0.0129
634.2231	0.0003
634.4108	0.0051
634.5985	0.0073
634.7861	0.0048
634.9738	0.0088
635.1614	0.0057
635.349	0.0094
635.5366	0.006
635.7242	0.0016
635.9117	0.0094
636.0993	-0.0025
636.2868	0.0095
636.4743	-0.0022
636.6618	0.0115
636.8492	0.0118
637.0367	0.0014
637.2241	-0.0054
637.4115	0.0029
637.5989	0.0006
637.7863	-0.0023
637.9737	-0.0072
638.161	-0.0008
638.3484	-0.0005
638.5357	0.006
638.723	-0.0011
638.9103	0.0048
639.0975	0.0083
639.2848	0.0047
639.472	0.0016
639.6592	0.0108
639.8464	0.0099
640.0336	0.0081
640.2208	0.0013
640.4079	0.0015
640.595	-0.0006
640.7821	0.0058
640.9692	0.0041
641.1563	0.0088
641.3434	0.0013
641.5304	0.003
641.7174	0
641.9044	0.0054
642.0914	0.0107
642.2784	0.0087
642.4653	0.0105
642.6523	0.0075
642.8392	0.0029
643.0261	0.0084
643.213	0.0056
643.3999	0.0006
643.5867	-0.0009
643.7735	0.0078
643.9604	-0.0062
644.1472	0.0083
644.3339	0.0049
644.5207	0.0051
644.7075	0.0017
644.8942	0.0107
645.0809	0.0104
645.2676	0.0113
645.4543	0.0033
645.6409	0.0052
645.8276	0.0026
646.0142	0.0107
646.2008	0.0037
646.3874	-0.0011
646.574	0.0118
646.7605	-0.0031
646.9471	-0.0045
647.1336	0.0043
647.3201	0.0006
647.5066	-0.002
647.6931	0.0077
647.8795	-0.003
648.0659	0.0085
648.2524	0.0065
648.4388	-0.0013
648.6252	0.0023
648.8115	0.002
648.9979	0.0023
649.1842	0.003
649.3705	0.0021
649.5568	0.007
649.7431	0.0093
649.9294	0.0068
650.1156	0.0048
650.3018	0.0004
650.488	0.0041
650.6742	0.0058
650.8604	0.0041
651.0466	-0.0016
651.2327	0.0048
651.4188	0.0041
651.6049	-0.0052
651.791	0.0029
651.9771	0.0041
652.1632	0.0065
652.3492	0.0038
652.5352	0.0024
652.7212	0.0053
652.9072	0.0024
653.0932	0.0064
653.2791	-0.0027
653.465	0.0059
653.651	-0.0067
653.8369	0.0028
654.0227	0.0045
654.2086	0.0098
654.3944	0.0137
654.5803	0.0084
654.7661	0.0006
654.9519	0.0053
655.1377	0.0007
655.3234	0.003
655.5092	-0.0006
655.6949	-0.0045
655.8806	0.0004
656.0663	-0.0009
656.2519	-0.004
656.4376	-0.0013
656.6232	0.0069
656.8088	0.0063
656.9945	-0.0002
657.18	0.002
657.3656	-0.0002
657.5511	0.0008
657.7367	-0.0047
657.9222	0.0123
658.1077	0.0044
658.2932	0.007
658.4786	-0.0016
658.6641	0.0002
658.8495	0.0064
659.0349	0.004
659.2203	0.0068
659.4057	0.001
659.591	0.002
659.7764	0.0017
659.9617	-0.0029
660.147	0.0025
660.3323	-0.0001
660.5176	0.0125
660.7028	0.0013
660.888	-0.0012
661.0733	0.0054
661.2585	-0.0012
661.4436	-0.0008
661.6288	-0.0022
661.8139	0.0064
661.9991	0.0106
662.1842	0.0024
662.3693	0.0084
662.5544	-0.0008
662.7394	0.0032
662.9245	0.004
663.1095	-0.0041
663.2945	-0.0022
663.4795	0.0042
663.6644	0.0064
663.8494	0.0079
664.0343	0.0085
664.2193	0.0007
664.4042	0.0044
664.589	-0
664.7739	0.0038
664.9587	-0.001
665.1436	-0.0019
665.3284	0.01
665.5132	-0.005
665.698	0.0008
665.8827	0.0023
666.0675	0.0019
666.2522	-0.0033
666.4369	0.0028
666.6216	0.0066
666.8063	0.0099
666.9909	0.0041
667.1756	0.0008
667.3602	0.0082
667.5448	0.0108
667.7294	0.0087
667.9139	0.0129
668.0985	0.0208
668.283	0.0063
668.4675	0.0111
668.652	0.0124
668.8365	0.0064
669.0209	0.0066
669.2054	0.0042
669.3898	0.0049
669.5742	0.0016
669.7586	0.0049
669.943	0.0236
670.1273	0.0092
670.3117	0.012
670.496	0.011
670.6803	0.0141
670.8646	0.0105
671.0488	0.0003
671.2331	0.0082
671.4173	0.0142
671.6015	-0.0003
671.7857	0.0051
671.9699	0.0061
672.1541	0.008
672.3382	0.0084
672.5223	0.0034
672.7064	0.0058
672.8905	0.0077
673.0746	0.004
673.2587	-0.0051
673.4427	0.0013
673.6267	0.0045
673.8107	0.0162
673.9947	0.0066
674.1787	0.007
674.3626	0.0029
674.5465	0.0096
674.7304	0.0104
674.9143	0.0099
675.0982	0.0091
675.2821	-0.0008
675.4659	0.0056
675.6497	0.0078
675.8335	0.003
676.0173	-0.0015
676.2011	-0.0008
676.3849	0.0123
676.5686	-0.009
676.7523	0.005
676.936	-0.0004
677.1197	-0.0004
677.3034	-0.0066
677.487	0.0097
677.6706	0.0005
677.8542	0.005
678.0378	-0
678.2214	0.0033
678.405	0.0094
678.5885	-0.0055
678.772	0.0043
678.9555	-0.0045
679.139	0.0042
679.3225	0.0012
679.5059	0.002
679.6894	0.0038
679.8728	0.0052
680.0562	-0.0039
680.2395	-0
680.4229	-0.001
680.6062	0.0071
680.7896	0.0013
680.9729	-0.007
681.1562	0.0066
681.3394	-0.0041
681.5227	-0.0091
681.7059	0.004
681.8891	0.0035
682.0723	0.0077
682.2555	0.0083
682.4387	-0.0041
682.6218	-0.0028
682.805	0.017
682.9881	0.0048
683.1712	0.0008
683.3542	-0.0068
683.5373	0.008
683.7203	-0.0001
683.9034	0.0052
684.0864	-0.0041
684.2694	-0.0031
684.4523	0.0026
684.6353	-0.0031
684.8182	0.0028
685.0011	-0.0095
685.184	0.009
685.3669	0.0026
685.5498	0.0069
685.7326	-0.0003
685.9154	-0.0038
686.0982	0.0035
686.281	0.0095
686.4638	-0.0029
686.6465	0.0095
686.8293	-0.0072
687.012	0.008
687.1947	-0.0094
687.3774	0.0032
687.56	-0.0004
687.7427	0.0056
687.9253	-0.0043
688.1079	0.0071
688.2905	0.0106
688.4731	0.0014
688.6556	0.0035
688.8382	0.0045
689.0207	0.0106
689.2032	-0.0035
689.3857	0.0003
689.5681	0.011
689.7506	-0.0012
689.933	0
690.1154	0.0099
690.2978	0.0026
690.4802	0.0066
690.6626	0.0021
690.8449	0.0091
691.0272	0.012
691.2095	0.001
691.3918	0.0046
691.5741	0.0044
691.7563	0.0051
691.9386	0.0099
692.1208	0.0103
692.303	0.0064
692.4852	0.0065
692.6673	0.003
692.8495	0.002
693.0316	0.0026
693.2137	0.0034
693.3958	0.0089
693.5778	0.0062
693.7599	0.004
693.9419	0.0055
694.1239	0.0039
694.3059	0.0019
694.4879	0.0086
694.6699	0.0029
694.8518	0.005
695.0337	-0.0036
695.2157	0.0092
695.3975	-0.0024
695.5794	0.0117
695.7613	0.008
695.9431	0.0073
696.1249	0.0077
696.3067	0.0087
696.4885	0.0162
696.6703	-0.0019
696.852	0.0123
697.0337	0.0045
697.2154	0.0071
697.3971	0.0113
697.5788	0.0038
697.7605	0.0034
697.9421	0.0034
698.1237	0.0027
698.3053	0.0064
698.4869	-0.004
698.6685	-0.0015
698.85	0.0028
699.0315	0.0148
699.213	0.0012
699.3945	0.0063
699.576	0.0083
699.7575	0.0012
699.9389	0.0115
700.1203	0.0052
700.3017	0.007
700.4831	0.001
700.6645	-0.0001
700.8458	0.001
701.0271	-0.0018
701.2084	0.0129
701.3897	-0.005
701.571	-0.0014
701.7523	-0.0052
701.9335	0.0033
702.1147	-0.0011
702.2959	0.0076
702.4771	-0.0039
702.6583	0.0081
702.8394	0.0024
703.0205	0.0065
703.2016	-0.0045
703.3827	0.0023
703.5638	0.0159
703.7449	0.003
703.9259	0.0071
704.1069	-0.0033
704.2879	0.0116
704.4689	0.0065
704.6499	0
704.8308	-0.0004
705.0117	0.0067
705.1927	0.0065
705.3735	0.0026
705.5544	0.004
705.7353	0.0029
705.9161	-0.0026
706.0969	0.0003
706.2777	-0.0009
706.4585	-0.0004
706.6393	0.0049
706.82	0.0048
707.0007	0.0131
707.1815	0.0099
707.3621	0.0085
707.5428	0.0058
707.7235	0.0159
707.9041	0.0123
708.0847	-0.0053
708.2653	-0.0015
708.4459	-0.0118
708.6265	0.0016
708.807	0.0065
708.9875	0.0017
709.168	-0.0064
709.3485	-0.0076
709.529	-0.0002
709.7095	-0.0047
709.8899	-0.0001
710.0703	0.002
710.2507	0.0057
710.4311	-0.0022
710.6115	-0.0085
710.7918	-0.0097
710.9721	-0.0045
711.1524	-0.0061
711.3327	-0.0012
711.513	0.0076
711.6932	0.0011
711.8735	0.0119
712.0537	0.0029
712.2339	0.0021
712.4141	-0.0019
712.5942	-0.0003
712.7744	0.0075
712.9545	-0.003
713.1346	0.0052
713.3147	0.0004
713.4947	0.0014
713.6748	0.0081
713.8548	0.0064
714.0348	0.0026
714.2148	0.007
714.3948	0.0125
714.5748	0.0077
714.7547	-0.0006
714.9346	-0.0005
715.1145	0.0055
715.2944	-0.0019
715.4743	0.0082
715.6541	-0.0029
715.834	0.0091
716.0138	0.0061
716.1936	-0.0075
716.3733	0.0011
716.5531	0.0081
716.7328	-0.0034
716.9126	-0.0039
717.0923	0.0074
717.2719	0.0027
717.4516	0.0015
717.6312	0.0006
717.8109	-0.0064
717.9905	-0.001
718.1701	-0.0114
718.3496	-0.0079
718.5292	-0.0087
718.7087	-0.0111
718.8882	-0.002
719.0677	0.0034
719.2472	-0.0051
719.4267	-0.0024
719.6061	-0.0013
719.7856	0.0038
719.965	-0.0005
720.1443	-0.0057
720.3237	0.0159
720.5031	0.0036
720.6824	0.0035
720.8617	-0.0039
721.041	0.0035
721.2203	0.0087
721.3995	0.0048
721.5788	0.0082
721.758	0.0049
721.9372	0.0076
722.1164	0.0036
722.2956	0.0068
722.4747	0.0072
722.6538	-0.0005
722.8329	0.005
723.012	0.005
723.1911	-0.0002
723.3702	0.0024
723.5492	0.0034
723.7282	-0.0053
723.9072	0.0074
724.0862	-0.0008
724.2652	-0.0067
724.4441	-0.006
724.623	-0.0004
724.8019	-0.0045
724.9808	0.0105
725.1597	-0.003
725.3385	0.0147
725.5174	-0.003
725.6962	0.0081
725.875	0.0022
726.0538	0.0094
726.2325	-0.0063
726.4112	0.0018
726.59	-0.0025
726.7687	-0.0088
726.9474	0.0026
727.126	-0.0058
727.3047	-0.0106
727.4833	-0.0019
727.6619	-0.0016
727.8405	-0.0094
728.0191	-0.0054
728.1976	0.0034
728.3762	-0.0013
728.5547	0.0049
728.7332	-0.0072
728.9116	-0.0001
729.0901	0.0103
729.2686	0.007
729.447	0.0035
729.6254	0.0042
729.8038	0.0043
729.9821	-0.0092
730.1605	-0.0034
730.3388	0.0022
730.5171	-0.0064
730.6954	-0.0073
730.8737	0.0021
731.0519	0.0087
731.2302	0.0028
731.4084	0.0133
731.5866	0.0068
731.7648	0.0031
731.9429	-0.0041
732.1211	-0.0121
732.2992	-0.0056
732.4773	0.0026
732.6554	-0.0024
732.8335	0.0102
733.0115	0.0083
733.1896	0.0022
733.3676	-0.0047
733.5456	0.001
733.7235	0.0069
733.9015	-0.0037
734.0794	-0.0016
734.2574	-0.0063
734.4353	-0.0024
734.6131	0.0044
734.791	0
734.9689	-0.0007
735.1467	0.0035
735.3245	-0.0029
735.5023	-0.01
735.68	-0.0021
735.8578	0.0108
736.0355	-0.0153
736.2132	-0.0015
736.3909	0.001
736.5686	-0.0072
736.7463	0.0023
736.9239	-0.0031
737.1015	-0.0053
737.2791	0.005
737.4567	0.0053
737.6343	-0.0041
737.8118	0.0045
737.9894	0.0059
738.1669	-0.0094
738.3444	-0.0018
738.5218	0.0057
738.6993	0.0091
738.8767	0.008
739.0541	0.0113
739.2315	-0.0034
739.4089	0.0051
739.5863	0.0202
739.7636	-0.006
739.9409	0.0036
740.1182	0.0104
740.2955	0.0079
740.4728	0.0111
740.65	-0.0016
740.8272	0.0045
741.0044	0.0005
741.1816	0.0103
741.3588	0.0047
741.5359	0.0122
741.7131	-0.0046
741.8902	0.0077
742.0673	-0
742.2444	-0.006
742.4214	-0.0058
742.5985	0.001
742.7755	-0.0064
742.9525	-0.0105
743.1295	-0.0002
743.3064	0.0087
743.4834	0.001
743.6603	-0.0035
743.8372	-0.0047
744.0141	0.0066
744.191	0.0131
744.3678	-0.0067
744.5446	-0.0024
744.7215	0.0132
744.8982	0.0035
745.075	0.001
745.2518	0.0059
745.4285	0.0018
745.6052	-0.0004
745.7819	-0.0105
745.9586	-0.01
746.1353	-0.0005
746.3119	-0.0016
746.4885	-0.0031
746.6651	0.0009
746.8417	0.0062
747.0183	0.0077
747.1948	0.0052
747.3714	-0.0018
747.5479	0.0033
747.7244	-0.0043
747.9008	0.0115
748.0773	0.0026
748.2537	-0.0011
748.4301	-0.0086
748.6065	0.0068
748.7829	0.0033
748.9593	-0.0083
749.1356	0.0058
749.3119	0.0085
749.4882	-0.0053
749.6645	0.003
749.8408	-0.0022
750.017	0.0013
750.1933	0.0016
750.3695	-0.0111
750.5457	0.0012
750.7218	0.0006
750.898	0.0033
751.0741	-0.0075
751.2502	0.004
751.4263	-0.0041
751.6024	0.0024
751.7784	-0.0041
751.9545	-0.0029
752.1305	0.0031
752.3065	-0.0035
752.4825	0.0048
752.6584	-0.0057
752.8344	-0.0035
753.0103	-0.0043
753.1862	-0.0033
753.3621	0.0052
753.5379	-0.0064
753.7138	0.0064
753.8896	-0.0004
754.0654	0.003
754.2412	0.0108
754.417	0.0034
754.5927	-0.0107
754.7685	-0.0081
754.9442	-0.0041
755.1199	0.013
755.2956	-0.0044
755.4712	0.0018
755.6469	0.0021
755.8225	-0.0052
755.9981	-0.0011
756.1736	0.0021
756.3492	-0.0006
756.5248	-0.0005
756.7003	-0.0017
756.8758	0.0028
757.0513	-0.0039
757.2267	0.0017
757.4022	0.0073
757.5776	-0.0054
757.753	0.003
757.9284	0.0018
758.1038	0.0059
758.2791	0.0098
758.4545	-0.013
758.6298	0.0019
758.8051	0.0049
758.9803	0.0027
759.1556	0.0013
759.3308	0.0072
759.506	0.0138
759.6812	0.0065
759.8564	0.0185
760.0316	0.0078
760.2067	0.022
760.3819	0.0115
760.557	0.0107
760.732	0.0035
760.9071	-0.0051
761.0821	-0.0006
761.2572	0.0082
761.4322	0.0076
761.6072	-0.0049
761.7821	0.0039
761.9571	0.0135
762.132	0.0087
762.3069	-0.0105
762.4818	-0.0108
762.6567	0.0083
762.8316	-0.0085
763.0064	0.0034
763.1812	0.0046
763.356	-0.0094
763.5308	-0.0074
763.7055	0.001
763.8803	-0.0097
764.055	0.0057
764.2297	0.0018
764.4044	-0.0041
764.579	-0.0021
764.7537	-0.0081
764.9283	0.0108
765.1029	-0.0076
765.2775	0.0026
765.4521	-0.0035
765.6266	-0.0047
765.8011	-0.0032
765.9756	-0.0002
766.1501	0.0042
766.3246	-0.0078
766.4991	-0.0041
766.6735	-0.0015
766.8479	-0.012
767.0223	0.0033
767.1967	-0.0016
767.371	-0.0011
767.5454	-0.0014
767.7197	-0.0002
767.894	-0.0066
768.0683	-0.0125
768.2425	0.0029
768.4168	0.0011
768.591	0.0029
768.7652	0.0035
768.9394	0.0018
769.1135	0.0031
769.2877	0.0101
769.4618	-0.0014
769.6359	-0.009
769.81	0.0039
769.984	-0.0057
770.1581	-0.0146
770.3321	0.0046
770.5061	-0.0036
770.6801	-0.0062
770.8541	0.0063
771.028	0.0065
771.202	-0.0048
771.3759	0.0082
771.5498	-0.0065
771.7236	0.0066
771.8975	-0.0005
772.0713	-0.0002
772.2451	0.0092
772.4189	0.0147
772.5927	0.005
772.7665	0.0148
772.9402	-0.0018
773.1139	0.007
773.2876	0.0013
773.4613	0.0153
773.635	0.007
773.8086	-0.0014
773.9822	-0.0008
774.1558	-0.0013
774.3294	-0.0071
774.503	-0.0024
774.6765	0.0055
774.8501	0.0054
775.0236	0.0166
775.1971	0.0072
775.3705	-0.011
775.544	0.0102
775.7174	-0.0008
775.8908	0.0045
776.0642	-0.0035
776.2376	0.015
776.4109	0.0123
776.5843	0.0116
776.7576	0.0067
776.9309	0.02
777.1041	0.0201
777.2774	0.0017
777.4506	0.0117
777.6238	-0.0019
777.797	0.0082
777.9702	0.0068
778.1434	0.0083
778.3165	0.0002
778.4896	0.0015
778.6627	0.0163
778.8358	-0.0007
779.0089	0.0048
779.1819	-0.0012
779.3549	0.018
779.5279	0.013
779.7009	0.0078
779.8739	0.0077
780.0468	0.0169
780.2197	0.0087
780.3926	0.0116
780.5655	0.0137
780.7384	0.0027
780.9112	0.0105
781.0841	-0.0057
781.2569	0.0183
781.4297	0.005
781.6024	0.0194
781.7752	0.0025
781.9479	0.0203
782.1206	0.0144
782.2933	0.0018
782.466	0.0158
782.6386	0.0107
782.8113	0.0046
782.9839	-0.0003
783.1565	0.0101
783.329	0.0078
783.5016	-0.0007
783.6741	0.0012
783.8466	0.0068
784.0191	0.025
784.1916	0.0111
784.3641	0.0096
784.5365	0.0162
784.7089	-0.0002
784.8813	-0.0004
785.0537	0.0109
785.2261	0.0093
785.3984	-0.0089
785.5707	-0.0029
785.743	0.0041
785.9153	0.0035
786.0876	0.0078
786.2598	-0.0001
786.432	-0.0071
786.6042	0.0087
786.7764	0.0049
786.9486	0.0012
787.1207	-0.0024
787.2928	0.019
787.4649	0.0053
787.637	0.0042
787.8091	-0.0075
787.9811	-0.0047
788.1532	-0.0011
788.3252	0.0157
788.4972	0.0009
788.6691	0.0088
788.8411	0.0085
789.013	-0.0186
789.1849	0.0003
789.3568	0.0071
789.5287	0.0055
789.7005	0.0022
789.8723	-0.0017
790.0442	0.0238
790.2159	0.0116
790.3877	-0.0012
790.5595	-0.0102
790.7312	0.0083
790.9029	0.0016
791.0746	0.003
791.2463	-0.0024
791.4179	0.0159
791.5896	-0.0167
791.7612	0.0116
791.9328	0.0099
792.1044	-0.0151
792.2759	-0.0128
792.4474	0.0017
792.619	-0.0037
792.7905	0.0135
792.9619	0.0156
793.1334	-0.0029
793.3048	0.0043
793.4762	0.0005
793.6476	0.0136
793.819	-0.0039
793.9904	0.0098
794.1617	-0.0008
794.333	-0.0051
794.5043	-0.0082
794.6756	-0.0062
794.8469	-0.0071
795.0181	-0.0027
795.1893	-0.0109
795.3605	-0.0017
795.5317	-0.0113
795.7029	-0.004
795.874	-0.0028
796.0452	-0.0112
796.2163	-0.0137
796.3873	0.0142
796.5584	0.0043
796.7294	-0.0079
796.9005	0.0015
797.0715	0.0087
797.2425	-0.0081
797.4134	-0.0003
797.5844	0.0057
797.7553	0.0069
797.9262	0.0019
798.0971	-0.0053
798.2679	-0.0027
798.4388	-0.0127
798.6096	-0.0172
798.7804	0.008
798.9512	0.0059
799.122	0.0077
799.2927	-0.0018
799.4635	0.0089
799.6342	-0.0168
799.8049	-0.0071
799.9755	-0.0037
800.1462	-0.0042
800.3168	-0.0009
800.4874	0.002
800.658	0.0219
800.8286	-0.0003
800.9991	0.0284
801.1696	0.0194
801.3402	-0.0013
801.5106	0.0044
801.6811	-0.0053
801.8516	0.0064
802.022	-0.0032
802.1924	0.0083
802.3628	-0.0036
802.5332	0.0054
802.7035	0.0124
802.8739	0.0045
803.0442	-0.0191
803.2145	-0.0012
803.3847	-0.0081
803.555	0.0087
803.7252	-0.0052
803.8954	-0.0165
804.0656	-0.0261
804.2358	-0.0149
804.4059	0.0211
804.5761	0.0027
804.7462	0.0159
804.9163	-0.0049
805.0864	-0.0119
805.2564	0.0069
805.4264	0.0096
805.5965	-0.0086
805.7665	0.0176
805.9364	-0.0035
806.1064	0.0246
806.2763	0.0133
806.4462	0.0324
806.6161	-0.0055
806.786	0.021
806.9559	0.0116
807.1257	0.0109
807.2955	0.0019
807.4653	-0.0132
807.6351	-0.0128
807.8048	0.0115
807.9746	0.0103
808.1443	0.0068
808.314	0.0039
808.4837	0.0053
808.6533	0.0097
808.8229	0.0237
808.9926	0.0026
809.1622	0.01
809.3317	-0.0053
809.5013	0.0008
809.6708	0.0185
809.8403	0.0086
810.0098	-0.0035
810.1793	-0.0032
810.3488	0.0209
810.5182	-0.0154
810.6876	0.0049
810.857	-0.0076
811.0264	0.0305
811.1958	0.0063
811.3651	0.0316
811.5344	-0.0101
811.7037	-0.011
811.873	-0.0119
812.0422	-0.0007
812.2115	-0.001
812.3807	-0.0106
812.5499	0.025
812.7191	0.0196
812.8882	-0.0033
813.0574	0.0034
813.2265	-0.0053
813.3956	0.0228
813.5646	0.0272
813.7337	-0.0203
813.9027	0.0333
814.0718	0.0361
814.2407	0.0069
814.4097	-0.0024
814.5787	0.0122
814.7476	-0.0016
814.9165	0.0142
815.0854	0.0025
815.2543	0.005
815.4232	0.0136
815.592	-0.0011
815.7608	0.0058
815.9296	0.0267
816.0984	0.0126
816.2671	0.0127
816.4359	-0.0035
816.6046	0.0177
816.7733	-0.0051
816.942	-0.0279
817.1106	0.0201
817.2793	0.0115
817.4479	0.0257
817.6165	0.0205
817.785	0.0058
817.9536	-0.0147
818.1221	-0.0101
818.2906	0.002
818.4591	-0.0203
818.6276	0.0111
818.7961	0.0163
818.9645	0.0041
819.1329	0.0072
819.3013	0.0177
819.4697	0.0121
819.638	-0.0023
819.8064	0.015
819.9747	0.0121
820.143	-0.0178
820.3113	-0.0099
820.4795	0.0015
820.6477	0.0166
820.816	0.0294
820.9842	-0.0077
821.1523	-0.0154
821.3205	0.0127
821.4886	-0.0088
821.6567	0.0008
821.8248	0.0015
821.9929	0.0074
822.1609	0.0158
822.329	0.0092
822.497	0.0243
822.665	-0.0003
822.833	-0.0158
823.0009	0.0092
823.1688	0.0178
823.3367	0.0059
823.5046	0.0331
823.6725	0.0337
823.8404	-0.0157
824.0082	0.0317
824.176	0.0274
824.3438	-0.0042
824.5116	-0.0131
824.6793	0.0022
824.847	-0.0256
825.0147	-0.0145
825.1824	0.0203
825.3501	-0.0003
825.5177	-0.0164
825.6854	-0.018
825.853	0.0313
826.0206	-0.0127
826.1881	0.0075
826.3557	-0.0161
826.5232	0.0279
826.6907	-0.0218
826.8582	0.0084
827.0257	-0.0215
827.1931	0.0233
827.3605	-0.0003
827.528	0.0034
827.6953	-0.0295
827.8627	-0.01
828.03	0.028
828.1974	0.0025
828.3647	-0.0407
828.532	-0.0229
828.6992	0.0193
828.8665	0.0088
829.0337	0.0156
829.2009	0.074
829.3681	0.0136
829.5352	0.0343
829.7024	-0.0014
829.8695	-0.0136
830.0366	0.0127
830.2037	-0.0074
830.3707	-0.0266
830.5378	-0.0145
830.7048	-0.0036
830.8718	-0.0437
831.0388	-0.0244
831.2057	0.03
831.3727	-0.0014
831.5396	-0.0154
831.7065	-0.0367
831.8734	0.0034
832.0402	-0.015
832.2071	-0.0175
832.3739	-0.014
832.5407	0.016
832.7075	-0.0306
832.8742	-0.0242
833.041	-0.0623
833.2077	0.0107
833.3744	0.0257
833.541	-0.0058
833.7077	-0.0235
833.8743	0.0128
834.0409	-0.0166
834.2075	0.0047
834.3741	-0.0077
834.5407	0.0374
834.7072	-0.0067
834.8737	0.0029
835.0402	0.0036
835.2067	0.02
835.3731	0.0536
835.5395	0.0106
835.706	0.0061
835.8723	-0.0448
836.0387	0.0572
836.2051	0.0387
836.3714	-0.0011
836.5377	0.0156
836.704	-0.034
836.8703	0.0281
837.0365	0.0121
837.2027	-0.0219
837.3689	-0.0036
837.5351	-0.0274
837.7013	-0.0253
837.8674	-0.026
838.0335	0.0387
838.1997	-0.0133
838.3657	-0.0161
838.5318	-0.0334
838.6978	0.0637
838.8639	0.0548
839.0299	-0.0108
839.1958	-0.0106
839.3618	0.0259
839.5277	0.0081
839.6937	-0.0047
839.8596	0.003
840.0254	0.0095
840.1913	-0.0127
840.3571	0.0465
840.523	-0.0341
840.6888	-0.0154
840.8545	-0.0249
841.0203	-0.0075
841.186	0.0063
841.3517	0.0075
841.5174	0.0118
841.6831	-0.0341
841.8488	0.0048
842.0144	0.0415
842.18	0.0147
842.3456	-0.0234
842.5112	0.0374
842.6767	-0.0075
842.8422	-0.0375
843.0077	-0.0208
843.1732	0.0063
843.3387	-0.025
843.5042	0.0256
843.6696	0.0016
843.835	0.0014
844.0004	0.0243
844.1657	0.0337
844.3311	-0.0123
844.4964	-0.0125
844.6617	-0.0318
844.827	-0.0572
844.9923	0.0096
845.1575	0.0522
845.3227	-0.0088
845.4879	-0.0063
845.6531	0.0072
845.8183	-0.0113
845.9834	-0.0286
846.1485	-0.005
846.3136	0.0043
846.4787	-0.1114
846.6438	0.1007
846.8088	-0.0974
846.9738	-0.106
847.1388	-0.0308
847.3038	-0.007
847.4687	-0.1806
847.6337	0.0272
847.7986	-0.0075
847.9635	0.0247
848.1284	0.0797
848.2932	0.144
848.458	0.004
848.6228	0.0427
848.7876	0.0908
848.9524	-0.0978
849.1172	-0.0537
849.2819	0.0104
849.4466	-0.1027
849.6113	-0.1377
849.7759	0.0819
849.9406	-0.0277
850.1052	0.0683
850.2698	0.0818
850.4344	0.0046
850.599	-0.0659
850.7635	0.1431
850.928	-0.0579
851.0925	-0.0619
851.257	-0.0801
851.4215	0.0159
851.5859	0.0826
851.7503	0.0632
851.9147	0.0005
852.0791	-0.0757
852.2434	-0.0444
852.4078	0.1051
852.5721	0.0394
852.7364	-0.0584
852.9007	-0.1276
853.0649	0.0756
853.2291	-0.0952
853.3934	-0.0576
853.5575	0.0546
853.7217	-0.0438
853.8859	-0.1227
854.05	-0.0298
854.2141	0.0563
854.3782	-0.1155
854.5423	-0.142
854.7063	0.1377
854.8703	-0.0704
855.0343	0.088
855.1983	-0.1532
855.3623	0.1412
855.5262	0.0566
855.6901	-0.0183
855.854	-0.0034
856.0179	-0.0272
856.1818	0.0407
856.3456	-0.0471
856.5094	-0.0788
856.6732	-0.0029
856.837	0.0123
857.0008	0.0424
857.1645	-0.0284
857.3282	-0.0144
857.4919	0.1855
857.6556	-0.0108
857.8192	0.0283
857.9828	-0.0239
858.1465	0.069
858.31	-0.0964
858.4736	0.1929
858.6372	-0.1865
858.8007	-0.2972
858.9642	0.0015
859.1277	-0.0584
859.2911	-0.0031
859.4546	0.043
859.618	-0.3697
859.7814	-0.0731
859.9448	0.0284
860.1081	0.2441
860.2715	0.0827
860.4348	-0.1176
860.5981	-0.0078
860.7614	0.2812
860.9246	0.2075
861.0879	-0.236
861.2511	0.0199
861.4143	-0.1696
861.5774	0.3759
861.7406	0.1755
861.9037	0.0013
862.0668	-0.0827
862.2299	0.0647
862.393	-0.382
862.556	0.0492
862.7191	-0.2483
862.8821	-0.1339
863.0451	0.1675
863.208	0.0595
863.371	0.0198
863.5339	-0.107
863.6968	0.1612
863.8597	0.589
864.0225	-0.0939
864.1854	0.5418
864.3482	-0
864.511	-0.02
864.6737	-0.0296
864.8365	0.0418
864.9992	-0.4169
865.1619	0.2886
865.3246	-0.1315
865.4873	-0.0668
865.65	0.0726
865.8126	0.1414
865.9752	0.1271
866.1378	-0.1392
866.3004	1.5729
866.4629	0.269
866.6254	0.1124
866.7879	0.2103
866.9504	0.5504
867.1129	-0
867.2753	0.142
867.4377	0.2281
867.6001	-0.1322
867.7625	0.8009
867.9249	-0
868.0872	0.6273
868.2495	1.0924
868.4118	-0.2114
868.5741	-0.7463
868.7363	0.005
868.8986	-0
869.0608	-0.1122
869.223	0.1782
869.3851	-0.2693
869.5473	-0
869.7094	0.2124
869.8715	0.3193
870.0336	-0
870.1957	-0.1337
870.3577	-0.888
870.5197	0.0029
870.6817	0.0744
870.8437	0.2362
871.0057	-0.0241
871.1676	0.7439
871.3295	-0.295
871.4914	-0
871.6533	-0.3107
871.8151	-0.3077
871.977	-0
872.1388	-0
872.3006	1.8865
872.4623	0.2875
872.6241	0.5681
872.7858	-0
872.9475	-0
873.1092	-0.0606
873.2709	-0
873.4325	-0.0431
873.5941	-0.093
873.7557	-0
873.9173	-0
874.0789	-0
874.2404	-0
874.4019	-0.0636
874.5634	-0
874.7249	0.1316
874.8863	0.3667
875.0478	0.1979
875.2092	-0
875.3706	0.4455
875.5319	-0.3216
875.6933	-0
875.8546	-0.2203
876.0159	1.2304
876.1772	0.0421
876.3385	-0
876.4997	0.8175
876.6609	-0.4936
876.8221	-0.2909
876.9833	0.4691
877.1445	-0
877.3056	0.2981
877.4667	0.4001
877.6278	0.538
877.7889	-0.5921
877.9499	-0
878.111	-0
878.272	-0
878.433	0.2033
878.5939	-0
878.7549	0.1997
878.9158	-0
879.0767	0.6194
879.2376	0.0376
879.3984	0.3795
879.5593	-0
879.7201	0.45
879.8809	-0.5471
880.0417	0.7286
880.2024	-0
880.3632	-0
880.5239	0.2397
880.6846	-0
880.8452	-2.5011
881.0059	-1.5289
881.1665	1.4873
881.3271	-0.2706
881.4877	-0
881.6483	-0.578
881.8088	-0.2746
881.9693	0.3808
882.1298	0.3808
882.2903	0.3808
