Data from MonoPyChalIsomerACN10uM340nmA_Absorbance_14-14-20-065.txt Node
Date: Fri Jul 05 14:14:20 BST 2024
User: LASERRRRR
Spectrometer: FLMT03099
Trigger mode: 0
Integration Time (sec): 1.000000E-1
Scans to average: 1
Electric dark correction enabled: true
Nonlinearity correction enabled: false
Boxcar width: 0
XAxis mode: Wavelengths
Number of Pixels in Spectrum: 3648
>>>>>Begin Spectral Data<<<<<
179.3399	-0.0884
179.5586	-0.0884
179.7771	-0.0884
179.9957	0.0173
180.2143	-0.4559
180.4329	-0.2743
180.6514	-0
180.8699	-0
181.0885	-0.2385
181.307	0.1468
181.5255	-1.009
181.744	-0
181.9625	-0
182.181	-0
182.3994	-0.0911
182.6179	-0
182.8363	0.072
183.0547	-0.2194
183.2732	-0.0499
183.4916	0.2901
183.71	0.2177
183.9284	0.7876
184.1467	-0.0271
184.3651	0.039
184.5835	-0.027
184.8018	0.163
185.0201	0.402
185.2385	-0.0923
185.4568	0.2295
185.6751	0.1918
185.8934	0.4124
186.1117	0.1443
186.3299	0.0704
186.5482	0.0317
186.7664	-0.0544
186.9847	-0.0835
187.2029	0.1273
187.4211	0.2112
187.6393	0.0554
187.8575	0.0627
188.0757	0.6409
188.2939	0.148
188.512	-0.1072
188.7302	0.1272
188.9483	0.0184
189.1665	0.1261
189.3846	-0.1131
189.6027	0.2858
189.8208	0.3053
190.0389	0.213
190.257	0.2388
190.475	0.2328
190.6931	0.4618
190.9111	0.5603
191.1292	0.0308
191.3472	0.8199
191.5652	0.3576
191.7832	0.3936
192.0012	1.1201
192.2192	0.614
192.4371	0.7803
192.6551	0.5278
192.873	0.5652
193.091	0.4376
193.3089	0.606
193.5268	0.6309
193.7447	0.5234
193.9626	0.4579
194.1805	0.8434
194.3984	0.7706
194.6162	0.5778
194.8341	0.4785
195.0519	0.7896
195.2697	0.6664
195.4875	0.5318
195.7054	0.7135
195.9231	0.6261
196.1409	0.6278
196.3587	0.6954
196.5765	0.6756
196.7942	0.5481
197.012	0.6074
197.2297	0.7343
197.4474	0.6462
197.6651	0.6092
197.8828	0.5239
198.1005	0.6705
198.3182	0.7237
198.5358	0.6685
198.7535	0.6146
198.9711	0.5999
199.1888	0.7091
199.4064	0.6651
199.624	0.8025
199.8416	0.6791
200.0592	0.5705
200.2767	0.7544
200.4943	0.7071
200.7119	1.0883
200.9294	0.6511
201.1469	0.6095
201.3645	0.5502
201.582	0.7206
201.7995	0.6851
202.017	0.6705
202.2344	0.5496
202.4519	0.6686
202.6694	0.7167
202.8868	0.6782
203.1042	0.6197
203.3217	0.8155
203.5391	0.6878
203.7565	0.595
203.9739	0.6216
204.1913	0.6656
204.4086	0.7088
204.626	0.6923
204.8433	0.7866
205.0607	0.6739
205.278	0.5976
205.4953	0.6608
205.7126	0.6215
205.9299	0.7642
206.1472	0.726
206.3644	0.6459
206.5817	0.6717
206.7989	0.8356
207.0162	0.7086
207.2334	0.6723
207.4506	0.6143
207.6678	0.5844
207.885	0.572
208.1022	0.6732
208.3194	0.7426
208.5365	0.6363
208.7537	0.6932
208.9708	0.6027
209.1879	0.6447
209.405	0.6486
209.6222	0.6666
209.8392	0.6753
210.0563	0.6095
210.2734	0.6134
210.4905	0.6205
210.7075	0.638
210.9245	0.5898
211.1416	0.7171
211.3586	0.6017
211.5756	0.5845
211.7926	0.6305
212.0096	0.6026
212.2265	0.5326
212.4435	0.6002
212.6604	0.5998
212.8774	0.6017
213.0943	0.6301
213.3112	0.5634
213.5281	0.5061
213.745	0.512
213.9619	0.5084
214.1788	0.5011
214.3956	0.4349
214.6125	0.4881
214.8293	0.4733
215.0461	0.4587
215.2629	0.4605
215.4798	0.4858
215.6965	0.4326
215.9133	0.4447
216.1301	0.3841
216.3469	0.4268
216.5636	0.4022
216.7803	0.3653
216.9971	0.4094
217.2138	0.3873
217.4305	0.3777
217.6472	0.3606
217.8639	0.385
218.0805	0.3329
218.2972	0.3155
218.5138	0.3336
218.7305	0.3022
218.9471	0.2918
219.1637	0.2721
219.3803	0.3088
219.5969	0.2719
219.8135	0.256
220.0301	0.2682
220.2466	0.2814
220.4632	0.2553
220.6797	0.2422
220.8962	0.2498
221.1127	0.262
221.3292	0.2674
221.5457	0.2738
221.7622	0.2314
221.9787	0.2762
222.1951	0.2251
222.4116	0.2702
222.628	0.239
222.8444	0.2333
223.0608	0.254
223.2772	0.2454
223.4936	0.2545
223.71	0.2575
223.9264	0.2617
224.1427	0.2541
224.3591	0.2691
224.5754	0.2623
224.7917	0.2773
225.008	0.2548
225.2243	0.2519
225.4406	0.309
225.6569	0.2772
225.8732	0.2438
226.0894	0.2705
226.3057	0.2683
226.5219	0.2761
226.7381	0.2717
226.9543	0.3004
227.1705	0.2807
227.3867	0.2737
227.6029	0.2989
227.8191	0.3104
228.0352	0.2998
228.2513	0.3046
228.4675	0.3203
228.6836	0.3086
228.8997	0.2998
229.1158	0.3289
229.3319	0.3116
229.548	0.3427
229.764	0.3329
229.9801	0.3332
230.1961	0.3551
230.4121	0.336
230.6282	0.3262
230.8442	0.3522
231.0602	0.3451
231.2761	0.3646
231.4921	0.3373
231.7081	0.355
231.924	0.3437
232.14	0.3654
232.3559	0.3468
232.5718	0.3738
232.7877	0.3562
233.0036	0.3453
233.2195	0.3531
233.4353	0.3522
233.6512	0.3831
233.867	0.3732
234.0829	0.3739
234.2987	0.3788
234.5145	0.3828
234.7303	0.3693
234.9461	0.3764
235.1619	0.3709
235.3776	0.3798
235.5934	0.3838
235.8091	0.3491
236.0249	0.3767
236.2406	0.386
236.4563	0.3935
236.672	0.4087
236.8877	0.4019
237.1034	0.3978
237.319	0.3733
237.5347	0.4206
237.7503	0.4183
237.966	0.4117
238.1816	0.4103
238.3972	0.4021
238.6128	0.3968
238.8284	0.4137
239.0439	0.41
239.2595	0.415
239.475	0.4121
239.6906	0.4274
239.9061	0.4212
240.1216	0.4026
240.3371	0.4006
240.5526	0.4078
240.7681	0.3904
240.9836	0.3915
241.199	0.4028
241.4145	0.3861
241.6299	0.3917
241.8453	0.3737
242.0607	0.368
242.2761	0.371
242.4915	0.3738
242.7069	0.3633
242.9223	0.3575
243.1376	0.3576
243.353	0.353
243.5683	0.3482
243.7836	0.3233
243.9989	0.3189
244.2142	0.3222
244.4295	0.3031
244.6448	0.3255
244.86	0.3097
245.0753	0.2797
245.2905	0.3066
245.5057	0.2759
245.721	0.2958
245.9362	0.2804
246.1514	0.2746
246.3665	0.2562
246.5817	0.2456
246.7969	0.2617
247.012	0.2396
247.2271	0.2447
247.4423	0.2483
247.6574	0.2347
247.8725	0.2343
248.0876	0.2089
248.3026	0.229
248.5177	0.2316
248.7328	0.2005
248.9478	0.2188
249.1628	0.203
249.3779	0.2152
249.5929	0.1978
249.8079	0.2249
250.0228	0.2131
250.2378	0.2029
250.4528	0.2113
250.6677	0.1902
250.8827	0.1807
251.0976	0.1972
251.3125	0.1944
251.5274	0.1715
251.7423	0.1748
251.9572	0.1967
252.172	0.1875
252.3869	0.1817
252.6017	0.1757
252.8166	0.1582
253.0314	0.167
253.2462	0.1517
253.461	0.1874
253.6758	0.1707
253.8906	0.1771
254.1053	0.1691
254.3201	0.1663
254.5348	0.1913
254.7496	0.1725
254.9643	0.1643
255.179	0.1655
255.3937	0.1641
255.6083	0.1727
255.823	0.1771
256.0377	0.1609
256.2523	0.1574
256.467	0.1508
256.6816	0.1819
256.8962	0.1646
257.1108	0.1503
257.3254	0.1669
257.54	0.161
257.7545	0.1646
257.9691	0.1714
258.1836	0.1608
258.3981	0.1718
258.6127	0.161
258.8272	0.1575
259.0417	0.1604
259.2561	0.1662
259.4706	0.1677
259.6851	0.1743
259.8995	0.1824
260.114	0.1663
260.3284	0.168
260.5428	0.1543
260.7572	0.1667
260.9716	0.1619
261.186	0.1463
261.4003	0.1628
261.6147	0.1611
261.829	0.1643
262.0433	0.1659
262.2577	0.164
262.472	0.1797
262.6863	0.1599
262.9005	0.1691
263.1148	0.1619
263.3291	0.1485
263.5433	0.1707
263.7576	0.1582
263.9718	0.1594
264.186	0.1622
264.4002	0.1692
264.6144	0.1607
264.8286	0.1621
265.0427	0.1601
265.2569	0.1535
265.471	0.1394
265.6851	0.1474
265.8993	0.1469
266.1134	0.1546
266.3275	0.1606
266.5415	0.1603
266.7556	0.1652
266.9697	0.1528
267.1837	0.1599
267.3978	0.157
267.6118	0.1744
267.8258	0.1777
268.0398	0.1566
268.2538	0.1666
268.4677	0.1461
268.6817	0.152
268.8957	0.1574
269.1096	0.1619
269.3235	0.1536
269.5374	0.1423
269.7514	0.1423
269.9652	0.1553
270.1791	0.1407
270.393	0.1411
270.6068	0.1557
270.8207	0.1429
271.0345	0.1519
271.2483	0.1474
271.4622	0.1451
271.676	0.1564
271.8897	0.1358
272.1035	0.151
272.3173	0.131
272.531	0.1498
272.7448	0.1436
272.9585	0.1425
273.1722	0.136
273.3859	0.1373
273.5996	0.1378
273.8133	0.1458
274.0269	0.1496
274.2406	0.1377
274.4542	0.1433
274.6679	0.1391
274.8815	0.1423
275.0951	0.1518
275.3087	0.1527
275.5223	0.1341
275.7358	0.1393
275.9494	0.1431
276.1629	0.1372
276.3765	0.1419
276.59	0.1415
276.8035	0.156
277.017	0.1363
277.2305	0.1421
277.444	0.1519
277.6574	0.1362
277.8709	0.1576
278.0843	0.1295
278.2978	0.1401
278.5112	0.1514
278.7246	0.1356
278.938	0.1449
279.1513	0.1466
279.3647	0.1476
279.5781	0.1425
279.7914	0.1408
280.0047	0.1543
280.2181	0.1381
280.4314	0.1543
280.6447	0.1539
280.8579	0.1473
281.0712	0.1554
281.2845	0.1518
281.4977	0.1577
281.711	0.147
281.9242	0.1527
282.1374	0.151
282.3506	0.1497
282.5638	0.1499
282.7769	0.1601
282.9901	0.1515
283.2033	0.1606
283.4164	0.1667
283.6295	0.1486
283.8426	0.1403
284.0557	0.1488
284.2688	0.1761
284.4819	0.1585
284.695	0.1539
284.908	0.1682
285.1211	0.1462
285.3341	0.1534
285.5471	0.1613
285.7601	0.158
285.9731	0.1512
286.1861	0.1439
286.3991	0.1603
286.612	0.1651
286.825	0.1508
287.0379	0.1661
287.2508	0.156
287.4637	0.1559
287.6766	0.157
287.8895	0.1723
288.1024	0.1766
288.3152	0.175
288.5281	0.1594
288.7409	0.1663
288.9538	0.1608
289.1666	0.1662
289.3794	0.1723
289.5922	0.1563
289.8049	0.1586
290.0177	0.157
290.2304	0.1558
290.4432	0.161
290.6559	0.1571
290.8686	0.1747
291.0813	0.1592
291.294	0.1607
291.5067	0.1866
291.7194	0.1649
291.932	0.1709
292.1447	0.1553
292.3573	0.161
292.5699	0.1641
292.7825	0.1683
292.9951	0.1659
293.2077	0.1703
293.4203	0.1627
293.6328	0.1475
293.8454	0.1783
294.0579	0.1723
294.2704	0.17
294.4829	0.1511
294.6954	0.1755
294.9079	0.1595
295.1204	0.1669
295.3328	0.1677
295.5453	0.1642
295.7577	0.159
295.9701	0.1537
296.1825	0.1729
296.3949	0.1558
296.6073	0.1573
296.8197	0.1704
297.0321	0.1658
297.2444	0.1652
297.4567	0.1616
297.6691	0.1645
297.8814	0.162
298.0937	0.1605
298.306	0.1635
298.5182	0.1678
298.7305	0.1787
298.9428	0.1616
299.155	0.1677
299.3672	0.1618
299.5794	0.1612
299.7916	0.1601
300.0038	0.1621
300.216	0.176
300.4282	0.1763
300.6403	0.1681
300.8525	0.1689
301.0646	0.1558
301.2767	0.1656
301.4888	0.1572
301.7009	0.1701
301.913	0.1567
302.125	0.1674
302.3371	0.1744
302.5491	0.165
302.7612	0.1633
302.9732	0.1717
303.1852	0.1626
303.3972	0.1612
303.6092	0.1656
303.8211	0.151
304.0331	0.1593
304.245	0.1528
304.457	0.1568
304.6689	0.1526
304.8808	0.1619
305.0927	0.153
305.3046	0.149
305.5164	0.1583
305.7283	0.1424
305.9401	0.153
306.152	0.1474
306.3638	0.14
306.5756	0.1388
306.7874	0.146
306.9992	0.1523
307.2109	0.1509
307.4227	0.1243
307.6344	0.1386
307.8462	0.1304
308.0579	0.1446
308.2696	0.1338
308.4813	0.1348
308.693	0.1352
308.9046	0.1341
309.1163	0.1377
309.328	0.1258
309.5396	0.1278
309.7512	0.1158
309.9628	0.1229
310.1744	0.1223
310.386	0.109
310.5976	0.1247
310.8091	0.116
311.0207	0.1215
311.2322	0.1209
311.4437	0.1069
311.6552	0.1069
311.8667	0.1194
312.0782	0.096
312.2897	0.1038
312.5012	0.1224
312.7126	0.1018
312.924	0.1022
313.1355	0.1126
313.3469	0.1051
313.5583	0.1157
313.7696	0.1018
313.981	0.0986
314.1924	0.0949
314.4037	0.1016
314.6151	0.1072
314.8264	0.0944
315.0377	0.0981
315.249	0.1056
315.4603	0.0969
315.6716	0.1053
315.8828	0.0998
316.0941	0.0972
316.3053	0.0997
316.5165	0.093
316.7277	0.0814
316.9389	0.1029
317.1501	0.0902
317.3613	0.0936
317.5724	0.0869
317.7836	0.0933
317.9947	0.094
318.2058	0.1031
318.417	0.0855
318.6281	0.0883
318.8391	0.0965
319.0502	0.0855
319.2613	0.1035
319.4723	0.1032
319.6834	0.0982
319.8944	0.0867
320.1054	0.0995
320.3164	0.0899
320.5274	0.1025
320.7383	0.0922
320.9493	0.1016
321.1602	0.0921
321.3712	0.0795
321.5821	0.0968
321.793	0.0963
322.0039	0.0966
322.2148	0.0831
322.4257	0.0986
322.6365	0.1082
322.8474	0.1032
323.0582	0.0996
323.269	0.0965
323.4798	0.1061
323.6906	0.0986
323.9014	0.1085
324.1122	0.096
324.3229	0.0871
324.5337	0.0992
324.7444	0.1012
324.9551	0.1011
325.1658	0.0964
325.3765	0.1047
325.5872	0.0998
325.7979	0.093
326.0085	0.1011
326.2192	0.1049
326.4298	0.0981
326.6404	0.09
326.851	0.0923
327.0616	0.0979
327.2722	0.0986
327.4828	0.1106
327.6933	0.0936
327.9039	0.1092
328.1144	0.1035
328.3249	0.1075
328.5354	0.0924
328.7459	0.0953
328.9564	0.098
329.1669	0.1076
329.3773	0.098
329.5878	0.0945
329.7982	0.1063
330.0086	0.0967
330.219	0.1026
330.4294	0.0885
330.6398	0.1073
330.8502	0.0868
331.0605	0.1021
331.2708	0.0965
331.4812	0.1141
331.6915	0.1145
331.9018	0.1044
332.1121	0.0882
332.3224	0.0992
332.5326	0.1044
332.7429	0.0944
332.9531	0.1113
333.1633	0.1017
333.3735	0.1106
333.5837	0.0971
333.7939	0.1058
334.0041	0.119
334.2143	0.1101
334.4244	0.1054
334.6346	0.0905
334.8447	0.1267
335.0548	0.1094
335.2649	0.0957
335.475	0.1224
335.685	0.1074
335.8951	0.1079
336.1051	0.1029
336.3152	0.0989
336.5252	0.1042
336.7352	0.1175
336.9452	0.1226
337.1552	0.1136
337.3652	0.1025
337.5751	0.1008
337.7851	0.1051
337.995	0.0986
338.2049	0.1163
338.4148	0.1057
338.6247	0.1187
338.8346	0.1008
339.0445	0.1094
339.2543	0.1023
339.4642	0.1055
339.674	0.0878
339.8838	0.1115
340.0936	0.1044
340.3034	0.1105
340.5132	0.1126
340.7229	0.1156
340.9327	0.1052
341.1424	0.1094
341.3522	0.1314
341.5619	0.1213
341.7716	0.1229
341.9813	0.118
342.1909	0.1037
342.4006	0.1265
342.6102	0.1057
342.8199	0.1307
343.0295	0.1159
343.2391	0.1119
343.4487	0.1233
343.6583	0.1212
343.8679	0.1206
344.0774	0.1174
344.287	0.1197
344.4965	0.1092
344.706	0.1353
344.9155	0.1122
345.125	0.1358
345.3345	0.1276
345.544	0.1248
345.7534	0.1387
345.9629	0.1316
346.1723	0.1148
346.3817	0.1264
346.5911	0.1212
346.8005	0.1352
347.0099	0.1191
347.2193	0.1391
347.4286	0.1224
347.638	0.1342
347.8473	0.1273
348.0566	0.1361
348.2659	0.1456
348.4752	0.1296
348.6845	0.1172
348.8937	0.1242
349.103	0.1385
349.3122	0.1414
349.5214	0.1285
349.7306	0.1215
349.9398	0.1411
350.149	0.1409
350.3582	0.1301
350.5674	0.1478
350.7765	0.1313
350.9856	0.1366
351.1948	0.1503
351.4039	0.1236
351.613	0.1222
351.822	0.1421
352.0311	0.1449
352.2402	0.1426
352.4492	0.1556
352.6582	0.1523
352.8672	0.1464
353.0762	0.1501
353.2852	0.1334
353.4942	0.1466
353.7032	0.1417
353.9121	0.1485
354.1211	0.146
354.33	0.1492
354.5389	0.1579
354.7478	0.1399
354.9567	0.1578
355.1655	0.1508
355.3744	0.1512
355.5833	0.1599
355.7921	0.169
356.0009	0.1523
356.2097	0.1585
356.4185	0.165
356.6273	0.1704
356.8361	0.1651
357.0448	0.1495
357.2536	0.1514
357.4623	0.1578
357.671	0.1572
357.8797	0.1682
358.0884	0.1579
358.2971	0.1567
358.5057	0.1665
358.7144	0.1668
358.923	0.1692
359.1316	0.167
359.3402	0.1704
359.5488	0.1692
359.7574	0.1602
359.966	0.1779
360.1746	0.174
360.3831	0.1742
360.5916	0.1719
360.8002	0.1715
361.0087	0.185
361.2172	0.1804
361.4256	0.184
361.6341	0.1812
361.8426	0.1877
362.051	0.1875
362.2594	0.1798
362.4678	0.1754
362.6762	0.2148
362.8846	0.1956
363.093	0.1755
363.3014	0.1816
363.5097	0.1664
363.718	0.1869
363.9264	0.1868
364.1347	0.1723
364.343	0.1837
364.5513	0.198
364.7595	0.2009
364.9678	0.2134
365.176	0.2034
365.3842	0.1975
365.5925	0.1936
365.8007	0.1927
366.0089	0.1925
366.217	0.1926
366.4252	0.198
366.6333	0.2195
366.8415	0.2122
367.0496	0.2018
367.2577	0.202
367.4658	0.2083
367.6739	0.2226
367.882	0.2112
368.09	0.2049
368.2981	0.2053
368.5061	0.2097
368.7141	0.2191
368.9221	0.2109
369.1301	0.2112
369.3381	0.2004
369.5461	0.2205
369.754	0.2172
369.962	0.2212
370.1699	0.203
370.3778	0.2059
370.5857	0.2019
370.7936	0.2126
371.0015	0.2295
371.2093	0.2309
371.4172	0.2339
371.625	0.2024
371.8328	0.2029
372.0406	0.2285
372.2484	0.2303
372.4562	0.2197
372.664	0.2097
372.8717	0.2346
373.0795	0.2079
373.2872	0.218
373.4949	0.2147
373.7026	0.2169
373.9103	0.2361
374.118	0.2379
374.3256	0.2327
374.5333	0.2333
374.7409	0.2336
374.9485	0.2365
375.1561	0.2518
375.3637	0.2484
375.5713	0.2299
375.7789	0.2368
375.9864	0.2356
376.194	0.2329
376.4015	0.2321
376.609	0.2522
376.8165	0.2435
377.024	0.2448
377.2315	0.2302
377.4389	0.2431
377.6464	0.2557
377.8538	0.2508
378.0612	0.2348
378.2686	0.2398
378.476	0.2494
378.6834	0.2498
378.8908	0.2568
379.0981	0.2581
379.3055	0.266
379.5128	0.2549
379.7201	0.2519
379.9274	0.2398
380.1347	0.2588
380.342	0.261
380.5492	0.2477
380.7565	0.2493
380.9637	0.2637
381.1709	0.2532
381.3781	0.2672
381.5853	0.2594
381.7925	0.2487
381.9997	0.2584
382.2068	0.2519
382.4139	0.2692
382.6211	0.2467
382.8282	0.2677
383.0353	0.2678
383.2424	0.2621
383.4494	0.2626
383.6565	0.2425
383.8635	0.2709
384.0706	0.255
384.2776	0.2686
384.4846	0.2635
384.6916	0.2556
384.8986	0.2615
385.1055	0.2591
385.3125	0.2615
385.5194	0.242
385.7263	0.2721
385.9333	0.2554
386.1402	0.2447
386.347	0.2767
386.5539	0.2593
386.7608	0.2862
386.9676	0.2365
387.1744	0.2491
387.3813	0.2458
387.5881	0.2691
387.7948	0.2605
388.0016	0.2613
388.2084	0.27
388.4151	0.2569
388.6219	0.2612
388.8286	0.2526
389.0353	0.2643
389.242	0.2524
389.4487	0.2495
389.6553	0.2506
389.862	0.2216
390.0686	0.247
390.2753	0.258
390.4819	0.2593
390.6885	0.2316
390.8951	0.2462
391.1016	0.2402
391.3082	0.2481
391.5147	0.2473
391.7213	0.2315
391.9278	0.2408
392.1343	0.2457
392.3408	0.2342
392.5473	0.2348
392.7537	0.2363
392.9602	0.2318
393.1666	0.235
393.373	0.2259
393.5794	0.234
393.7858	0.2396
393.9922	0.232
394.1986	0.2485
394.4049	0.2302
394.6113	0.2218
394.8176	0.2233
395.0239	0.2172
395.2302	0.2236
395.4365	0.2347
395.6428	0.2247
395.8491	0.2314
396.0553	0.208
396.2615	0.2192
396.4678	0.2138
396.674	0.2237
396.8802	0.2264
397.0863	0.2485
397.2925	0.2101
397.4987	0.2192
397.7048	0.224
397.9109	0.2142
398.117	0.2137
398.3231	0.2163
398.5292	0.2253
398.7353	0.2373
398.9413	0.2143
399.1474	0.2144
399.3534	0.2187
399.5594	0.1982
399.7654	0.2261
399.9714	0.2419
400.1774	0.2086
400.3833	0.2023
400.5893	0.2291
400.7952	0.2176
401.0011	0.2378
401.207	0.2175
401.4129	0.23
401.6188	0.214
401.8247	0.219
402.0305	0.2005
402.2364	0.2132
402.4422	0.2233
402.648	0.2115
402.8538	0.2179
403.0596	0.1989
403.2654	0.212
403.4711	0.2012
403.6768	0.2304
403.8826	0.2227
404.0883	0.2263
404.294	0.2165
404.4997	0.2246
404.7054	0.2185
404.911	0.2133
405.1167	0.2079
405.3223	0.2317
405.5279	0.2316
405.7335	0.2347
405.9391	0.2174
406.1447	0.204
406.3502	0.2228
406.5558	0.2135
406.7613	0.2116
406.9668	0.2252
407.1724	0.2102
407.3778	0.2185
407.5833	0.2129
407.7888	0.207
407.9942	0.2387
408.1997	0.2191
408.4051	0.2069
408.6105	0.2235
408.8159	0.1875
409.0213	0.2014
409.2267	0.23
409.432	0.2128
409.6374	0.2171
409.8427	0.2063
410.048	0.2108
410.2533	0.2159
410.4586	0.2253
410.6639	0.1955
410.8691	0.204
411.0744	0.2241
411.2796	0.2013
411.4848	0.2063
411.69	0.2022
411.8952	0.2384
412.1004	0.2236
412.3056	0.2204
412.5107	0.2017
412.7158	0.2213
412.921	0.2158
413.1261	0.2168
413.3312	0.2074
413.5362	0.2163
413.7413	0.2093
413.9464	0.2219
414.1514	0.2113
414.3564	0.2027
414.5614	0.2041
414.7664	0.2007
414.9714	0.2003
415.1764	0.2122
415.3813	0.2162
415.5863	0.2066
415.7912	0.1988
415.9961	0.2225
416.201	0.2065
416.4059	0.2122
416.6108	0.1932
416.8156	0.2008
417.0205	0.226
417.2253	0.2068
417.4301	0.2051
417.6349	0.2113
417.8397	0.2027
418.0445	0.2026
418.2492	0.2072
418.454	0.2093
418.6587	0.2067
418.8634	0.1999
419.0681	0.1926
419.2728	0.1961
419.4775	0.1847
419.6822	0.1921
419.8868	0.1961
420.0915	0.1972
420.2961	0.1974
420.5007	0.1866
420.7053	0.1936
420.9099	0.212
421.1144	0.1985
421.319	0.1935
421.5235	0.1984
421.728	0.2061
421.9325	0.1798
422.137	0.2029
422.3415	0.1946
422.546	0.1974
422.7504	0.1902
422.9549	0.1993
423.1593	0.1869
423.3637	0.2023
423.5681	0.1828
423.7725	0.1891
423.9769	0.1879
424.1812	0.1817
424.3856	0.182
424.5899	0.191
424.7942	0.1766
424.9985	0.182
425.2028	0.1881
425.4071	0.1998
425.6113	0.1606
425.8156	0.1714
426.0198	0.1877
426.224	0.1628
426.4282	0.1612
426.6324	0.1698
426.8366	0.1691
427.0407	0.1574
427.2449	0.1772
427.449	0.1669
427.6531	0.1546
427.8572	0.1664
428.0613	0.1753
428.2654	0.1711
428.4694	0.1773
428.6735	0.1708
428.8775	0.1746
429.0815	0.1882
429.2855	0.1571
429.4895	0.1596
429.6935	0.1613
429.8975	0.1613
430.1014	0.1481
430.3053	0.1494
430.5093	0.1547
430.7132	0.1343
430.9171	0.1456
431.1209	0.1431
431.3248	0.1452
431.5286	0.1431
431.7325	0.157
431.9363	0.1303
432.1401	0.1433
432.3439	0.139
432.5477	0.1216
432.7514	0.1267
432.9552	0.1413
433.1589	0.1024
433.3627	0.1228
433.5664	0.126
433.7701	0.1249
433.9737	0.116
434.1774	0.1249
434.3811	0.1183
434.5847	0.1248
434.7883	0.1085
434.9919	0.1173
435.1955	0.1168
435.3991	0.1155
435.6027	0.1153
435.8062	0.1016
436.0098	0.0851
436.2133	0.1082
436.4168	0.0996
436.6203	0.1055
436.8238	0.1064
437.0272	0.1157
437.2307	0.092
437.4341	0.1012
437.6375	0.1092
437.841	0.0862
438.0443	0.1055
438.2477	0.104
438.4511	0.0927
438.6545	0.1133
438.8578	0.0991
439.0611	0.0905
439.2644	0.0801
439.4677	0.0825
439.671	0.0754
439.8743	0.0851
440.0775	0.0953
440.2808	0.0784
440.484	0.0742
440.6872	0.0736
440.8904	0.0744
441.0936	0.0741
441.2967	0.0651
441.4999	0.0794
441.703	0.0728
441.9062	0.0735
442.1093	0.074
442.3124	0.0705
442.5155	0.0652
442.7185	0.0549
442.9216	0.0514
443.1246	0.0628
443.3276	0.057
443.5307	0.0638
443.7337	0.0654
443.9366	0.0596
444.1396	0.0598
444.3426	0.0527
444.5455	0.0534
444.7484	0.0493
444.9513	0.0489
445.1542	0.0557
445.3571	0.0453
445.56	0.0656
445.7628	0.0349
445.9657	0.0506
446.1685	0.0608
446.3713	0.0367
446.5741	0.0495
446.7769	0.0359
446.9797	0.0503
447.1824	0.0566
447.3852	0.0416
447.5879	0.0614
447.7906	0.0434
447.9933	0.0489
448.196	0.0342
448.3986	0.0492
448.6013	0.0293
448.8039	0.0387
449.0066	0.035
449.2092	0.033
449.4118	0.0258
449.6143	0.0404
449.8169	0.0272
450.0195	0.0096
450.222	0.0091
450.4245	0.0207
450.627	0.0235
450.8295	0.022
451.032	0.0337
451.2345	0.0278
451.4369	0.0352
451.6394	0.0171
451.8418	0.0114
452.0442	0.0104
452.2466	0.0374
452.449	0.0105
452.6513	0.0268
452.8537	0.0071
453.056	0.0105
453.2583	0.0496
453.4607	0.012
453.663	0.0125
453.8652	0.0241
454.0675	-0.0012
454.2697	0.0149
454.472	0.0054
454.6742	0.0237
454.8764	0.009
455.0786	0.0278
455.2808	0.016
455.4829	0.0141
455.6851	0.0237
455.8872	0.0118
456.0893	0.0279
456.2915	0.0064
456.4935	0.0033
456.6956	0.004
456.8977	0.0259
457.0997	0.0093
457.3018	0.0115
457.5038	0.0169
457.7058	0.012
457.9078	0.0082
458.1098	0.0171
458.3117	0.0146
458.5137	0.0203
458.7156	0.0191
458.9175	0.0044
459.1194	0.0131
459.3213	0.0104
459.5232	0.0099
459.725	-0.0126
459.9269	0.0005
460.1287	0.0003
460.3305	0.0051
460.5323	0.0168
460.7341	0.0085
460.9359	0.0164
461.1376	0.0072
461.3394	0.0054
461.5411	0.014
461.7428	0.0044
461.9445	0.0096
462.1462	0.0308
462.3479	-0.0004
462.5495	0.0068
462.7512	0.0038
462.9528	0.0054
463.1544	-0.0182
463.356	-0.0067
463.5576	0.0142
463.7592	-0.0144
463.9607	-0.0046
464.1623	0.0253
464.3638	0.0213
464.5653	0.0009
464.7668	0.0068
464.9683	0.0023
465.1697	0.0085
465.3712	-0.0103
465.5726	-0.0048
465.7741	-0.0045
465.9755	0.0018
466.1769	-0.0036
466.3782	0.0022
466.5796	-0.0023
466.7809	0.0137
466.9823	-0.0073
467.1836	0.01
467.3849	0.0054
467.5862	-0.0083
467.7875	-0.0101
467.9887	0.0153
468.19	0.0014
468.3912	-0.0177
468.5924	-0.0026
468.7936	-0.0013
468.9948	-0.012
469.196	0.0037
469.3972	-0.0294
469.5983	0.0046
469.7994	-0.0137
470.0006	-0.0047
470.2017	-0.0092
470.4027	0.0058
470.6038	-0.0029
470.8049	-0.0118
471.0059	-0.0017
471.2069	-0.0224
471.408	0.0192
471.6089	0.0052
471.8099	-0.0095
472.0109	0.0075
472.2119	-0.0162
472.4128	-0.0023
472.6137	0.0132
472.8146	-0.0174
473.0155	-0.0041
473.2164	-0.0017
473.4173	0.0048
473.6181	-0.0034
473.819	0.0114
474.0198	-0.0158
474.2206	0.0042
474.4214	-0.0031
474.6222	-0.0103
474.8229	-0.0127
475.0237	0.0064
475.2244	-0.0036
475.4251	-0.002
475.6258	-0.0025
475.8265	-0.0007
476.0272	0.0157
476.2278	-0.0141
476.4285	-0.0028
476.6291	-0.0007
476.8297	-0.0055
477.0303	0.0042
477.2309	0.0066
477.4315	-0.0129
477.632	-0.0067
477.8326	0.0048
478.0331	0.006
478.2336	0.0053
478.4341	-0.0082
478.6346	0.0057
478.8351	-0.0068
479.0355	0.0002
479.236	0.0008
479.4364	-0.0032
479.6368	0.0051
479.8372	-0.0045
480.0376	-0.0073
480.2379	-0.0172
480.4383	-0.0064
480.6386	0.0131
480.8389	-0.0031
481.0392	-0.0064
481.2395	-0.011
481.4398	-0.0007
481.6401	0.0061
481.8403	-0.0052
482.0405	-0.0076
482.2408	-0.0067
482.441	0.0045
482.6411	-0.0061
482.8413	-0.0079
483.0415	-0.0107
483.2416	-0.0051
483.4417	0.0013
483.6419	-0.008
483.8419	-0.0047
484.042	0.0117
484.2421	0.0031
484.4422	0.0029
484.6422	-0.005
484.8422	-0.0031
485.0422	-0.0074
485.2422	0.0056
485.4422	-0.0131
485.6422	-0.0095
485.8421	-0.0144
486.042	-0.0021
486.242	-0.0087
486.4419	-0.0104
486.6417	-0.009
486.8416	-0.0082
487.0415	-0.0022
487.2413	-0.0049
487.4411	-0.0145
487.641	-0.0143
487.8408	0.0046
488.0405	-0.0064
488.2403	-0.0051
488.4401	0.0039
488.6398	-0.0023
488.8395	-0.003
489.0392	-0.0046
489.2389	-0.0008
489.4386	-0.0091
489.6383	0.003
489.8379	0.0082
490.0376	-0.0158
490.2372	-0.0107
490.4368	-0.006
490.6364	-0.0027
490.836	0.0023
491.0355	-0.0069
491.2351	-0.012
491.4346	0.0019
491.6341	-0.0082
491.8336	0.0045
492.0331	-0.0087
492.2326	-0.0098
492.432	-0.0039
492.6315	-0.0059
492.8309	-0.0082
493.0303	-0.0067
493.2297	-0.0052
493.4291	0.0004
493.6284	-0.0023
493.8278	0.009
494.0271	0.0048
494.2264	0.0094
494.4257	-0.0204
494.625	0.002
494.8243	-0.0171
495.0236	-0.0073
495.2228	-0.0107
495.422	-0.0059
495.6213	-0.0024
495.8205	-0.0029
496.0196	-0.0044
496.2188	-0.0056
496.418	-0.0137
496.6171	-0.011
496.8162	-0.0179
497.0153	0.0013
497.2144	-0.0078
497.4135	-0.0013
497.6126	-0.0073
497.8116	-0.0097
498.0107	-0.0065
498.2097	-0.012
498.4087	-0.0016
498.6077	0.0022
498.8067	0.0007
499.0056	0.0015
499.2046	-0.0007
499.4035	-0.023
499.6024	-0.0046
499.8013	-0.0106
500.0002	-0.0051
500.199	-0.0103
500.3979	-0.0147
500.5967	-0.0201
500.7956	-0.0009
500.9944	-0.0126
501.1932	-0.0084
501.3919	-0.0167
501.5907	-0.0086
501.7895	-0.0072
501.9882	-0.0063
502.1869	-0.0039
502.3856	-0.0084
502.5843	-0.0044
502.783	-0.0087
502.9816	-0.0016
503.1803	-0.0227
503.3789	-0.004
503.5775	0.0085
503.7761	-0.0077
503.9747	-0.0001
504.1732	-0.0128
504.3718	-0.0011
504.5703	0.0032
504.7689	-0.0094
504.9674	0.0061
505.1658	-0.015
505.3643	-0.0002
505.5628	-0.0067
505.7612	-0.0094
505.9597	-0.0024
506.1581	-0.0111
506.3565	0.0086
506.5549	-0.0087
506.7532	-0.021
506.9516	-0.003
507.1499	-0.0069
507.3482	-0.0219
507.5465	-0.0047
507.7448	-0.0049
507.9431	0.0024
508.1414	-0.0044
508.3396	-0.0012
508.5379	0.0043
508.7361	-0.0135
508.9343	-0.0036
509.1325	-0.0045
509.3306	0.0005
509.5288	0.0029
509.7269	-0.0139
509.9251	0.0003
510.1232	-0.0144
510.3213	0.0048
510.5193	-0.0013
510.7174	-0.0147
510.9154	-0.0167
511.1135	-0.0121
511.3115	-0.0012
511.5095	-0.0084
511.7075	0.0046
511.9055	-0.001
512.1034	-0.0069
512.3014	0.0036
512.4993	-0.0032
512.6972	0.0037
512.8951	-0.0151
513.093	-0.0054
513.2908	-0.0037
513.4887	-0.0046
513.6865	0.0015
513.8844	-0.0035
514.0822	-0.0001
514.2799	-0.0172
514.4777	-0.0106
514.6755	-0.0096
514.8732	0.002
515.0709	-0.0024
515.2687	-0.0081
515.4664	-0.0014
515.664	-0.0052
515.8617	-0.0095
516.0594	-0.0159
516.257	0.0028
516.4546	-0.0136
516.6522	-0.001
516.8498	-0.0026
517.0474	-0.0032
517.2449	-0.0044
517.4425	-0.0165
517.64	-0.0023
517.8375	0.0013
518.035	-0.0003
518.2325	0.0023
518.43	0.0073
518.6274	-0.0074
518.8249	-0.0113
519.0223	0.0087
519.2197	-0.0067
519.4171	-0.0113
519.6145	-0.0049
519.8118	0.0051
520.0092	-0.0071
520.2065	-0.0077
520.4038	-0.0267
520.6011	-0.0041
520.7984	0.0034
520.9956	-0.0162
521.1929	-0.0126
521.3901	0.0027
521.5874	-0.001
521.7846	0.0045
521.9818	-0.0067
522.1789	-0.002
522.3761	0.0005
522.5732	-0.0001
522.7704	-0.0089
522.9675	-0.0031
523.1646	-0.0029
523.3617	0.001
523.5587	0.0001
523.7558	-0.002
523.9528	-0.0118
524.1498	-0.0057
524.3468	-0.0023
524.5438	-0.0042
524.7408	-0.0039
524.9378	0.0052
525.1347	-0.003
525.3316	-0.0056
525.5285	-0.0106
525.7254	0.0024
525.9223	-0.0074
526.1192	-0.0075
526.316	-0.0098
526.5129	0.0017
526.7097	0.0052
526.9065	-0.0078
527.1033	-0.0029
527.3	0.0022
527.4968	0.0023
527.6935	0.0087
527.8903	-0.0091
528.087	-0.0022
528.2837	0.0031
528.4804	-0.0062
528.677	-0.0074
528.8737	0.0024
529.0703	-0.0005
529.2669	-0.0012
529.4635	-0.0001
529.6601	-0.0012
529.8567	0.0031
530.0532	-0.0109
530.2498	0.0107
530.4463	-0.0091
530.6428	-0.0055
530.8393	0.0042
531.0358	-0.0121
531.2322	0.005
531.4287	-0.0097
531.6251	-0.0052
531.8215	0.0071
532.0179	0.0014
532.2143	0.0033
532.4107	-0.0008
532.607	0.0011
532.8034	0.0069
532.9997	-0.0015
533.196	-0.0048
533.3923	-0.008
533.5886	0.0094
533.7848	0.0015
533.9811	-0.0014
534.1773	0.0011
534.3735	0.0024
534.5697	0.0025
534.7659	0.0009
534.9621	-0
535.1582	-0.0074
535.3544	-0.0084
535.5505	-0.0131
535.7466	-0.0059
535.9427	-0.0032
536.1387	-0.0055
536.3348	-0.0121
536.5308	-0.0048
536.7269	-0.0182
536.9229	-0.0009
537.1189	-0.0032
537.3148	-0.0024
537.5108	0.0011
537.7068	-0.0123
537.9027	-0.0025
538.0986	-0.0007
538.2945	-0.0098
538.4904	-0.0018
538.6863	-0.0085
538.8821	-0.0036
539.078	-0.0055
539.2738	0.0017
539.4696	0.006
539.6654	-0.0019
539.8611	0.0094
540.0569	0.0023
540.2526	-0.0007
540.4484	-0.0065
540.6441	0.014
540.8398	0.0025
541.0355	-0.0015
541.2311	-0.002
541.4268	0.0015
541.6224	0.0105
541.818	-0.0045
542.0136	-0.0005
542.2092	0.0042
542.4048	0.0023
542.6003	0.0053
542.7959	-0.0061
542.9914	0.001
543.1869	-0.0033
543.3824	-0.0022
543.5779	0.0043
543.7734	-0.0019
543.9688	-0.0076
544.1642	0.0042
544.3596	-0.0043
544.555	-0.0047
544.7504	-0.0049
544.9458	-0.0055
545.1411	-0.0041
545.3365	0.0054
545.5318	0.0015
545.7271	-0.0053
545.9224	0.0034
546.1177	0.0061
546.3129	-0.0015
546.5081	-0.0008
546.7034	-0.0051
546.8986	-0.0039
547.0938	-0.0047
547.289	-0.001
547.4841	-0.0079
547.6793	0.0034
547.8744	-0.0074
548.0695	-0.0044
548.2646	-0.0041
548.4597	0.006
548.6548	-0.0077
548.8498	0.0063
549.0448	0.0102
549.2399	-0.0029
549.4349	0.0128
549.6298	-0.0051
549.8248	0.0029
550.0198	-0.0022
550.2147	-0.005
550.4096	-0.0004
550.6045	-0.004
550.7994	-0.0013
550.9943	-0.0021
551.1892	-0.0056
551.384	0.0055
551.5788	-0.0049
551.7737	0.0056
551.9685	0.0029
552.1632	-0.0004
552.358	-0.0088
552.5528	0.0026
552.7475	-0.0004
552.9422	-0.0062
553.1369	0.0035
553.3316	0.0047
553.5263	-0.0061
553.7209	0.0095
553.9156	-0.0063
554.1102	-0.0047
554.3048	0.0005
554.4994	0.0107
554.694	-0.0048
554.8885	-0.0033
555.0831	-0.0034
555.2776	-0.0022
555.4721	-0.0039
555.6666	0.0006
555.8611	-0.0007
556.0555	0.0004
556.25	-0.0002
556.4444	-0.0099
556.6388	0.0055
556.8332	-0.0116
557.0276	0.0071
557.222	-0.0013
557.4163	0.0032
557.6107	-0.0036
557.805	0.0089
557.9993	-0.003
558.1936	0.0052
558.3879	0.008
558.5821	0.0131
558.7764	0.0009
558.9706	0.0066
559.1648	0.0087
559.359	0.0018
559.5532	-0.0022
559.7473	0.0055
559.9415	0.0017
560.1356	-0.0046
560.3297	-0.0064
560.5238	-0.0071
560.7179	-0.001
560.9119	-0.0071
561.106	-0.0043
561.3	-0.007
561.494	-0.0071
561.688	-0.0027
561.882	-0.002
562.076	-0.0054
562.2699	0.003
562.4639	0.0003
562.6578	0.0058
562.8517	0.0089
563.0456	0.0017
563.2395	0.0024
563.4333	0.0082
563.6272	0.0094
563.821	-0.0041
564.0148	0.006
564.2086	-0.0035
564.4024	0.0025
564.5961	-0.0035
564.7899	0.0012
564.9836	-0.0014
565.1773	-0.0015
565.371	0.0105
565.5647	0.0045
565.7584	-0.0004
565.952	-0.0026
566.1456	0.001
566.3393	0.003
566.5329	-0.0043
566.7264	0.0019
566.92	-0.0089
567.1136	0.0037
567.3071	-0.0045
567.5006	0.0058
567.6941	0.0047
567.8876	-0.0035
568.0811	-0.0018
568.2745	0.0074
568.468	0.0051
568.6614	0.0052
568.8548	0.0002
569.0482	-0.0047
569.2416	-0.0002
569.4349	-0.0056
569.6283	0.0031
569.8216	-0.0052
570.0149	-0.0068
570.2082	0.0012
570.4015	-0.0034
570.5947	0.0075
570.788	0.0073
570.9812	0.0091
571.1744	-0.0026
571.3676	-0.0028
571.5608	0.0008
571.754	-0.0007
571.9471	-0.0022
572.1402	-0.0005
572.3333	-0.001
572.5264	0.0017
572.7195	-0.002
572.9126	0.0038
573.1057	0.0027
573.2987	-0.0008
573.4917	0.0122
573.6847	-0.0078
573.8777	0.007
574.0707	0.0071
574.2636	0.0008
574.4566	0.0002
574.6495	0.0094
574.8424	0.0014
575.0353	-0.0012
575.2281	0.0068
575.421	0.0087
575.6138	-0.0007
575.8067	0.0047
575.9995	0.0036
576.1923	0.0033
576.385	-0.0001
576.5778	-0.0004
576.7706	0.0025
576.9633	0.0014
577.156	0.0033
577.3487	-0.0017
577.5414	-0.0016
577.734	-0.0029
577.9267	0.003
578.1193	-0.0064
578.3119	0.0013
578.5045	0.0049
578.6971	-0.0011
578.8897	0.0098
579.0822	0.002
579.2747	0.0035
579.4673	0.0049
579.6598	-0.0005
579.8522	-0.0002
580.0447	-0.0094
580.2372	-0.0032
580.4296	0.0057
580.622	-0.0014
580.8144	0.0009
581.0068	0.0018
581.1992	-0.0101
581.3915	-0.0084
581.5839	-0.0071
581.7762	-0.0077
581.9685	-0.0051
582.1608	0.0017
582.353	-0.0036
582.5453	-0.004
582.7375	0.0069
582.9298	0.0101
583.122	-0.0004
583.3142	-0
583.5063	-0.0023
583.6985	0.0041
583.8906	-0.002
584.0827	-0.0043
584.2749	0.003
584.4669	0.0003
584.659	0.0002
584.8511	-0.0025
585.0431	-0.0002
585.2352	0.0035
585.4272	0.0001
585.6192	0.0047
585.8111	0.0048
586.0031	-0.0036
586.195	0.0009
586.387	0.0093
586.5789	0.0024
586.7708	0.0061
586.9627	-0.006
587.1545	-0.0057
587.3464	0.0024
587.5382	0.004
587.73	-0.002
587.9218	0.003
588.1136	-0.0035
588.3053	0.0021
588.4971	-0.004
588.6888	-0.0123
588.8805	-0.0031
589.0722	0.0062
589.2639	0.0058
589.4556	0.0031
589.6472	-0.0059
589.8389	-0.0022
590.0305	-0.0095
590.2221	-0.001
590.4137	-0.0073
590.6052	0.0026
590.7968	0.002
590.9883	0.0078
591.1798	0.0006
591.3713	0.0015
591.5628	0.0037
591.7543	0.0036
591.9458	0.0009
592.1372	0.0093
592.3286	-0.0006
592.52	0.003
592.7114	-0.0034
592.9028	0.0017
593.0941	-0.0023
593.2855	0.0036
593.4768	-0.0061
593.6681	-0.0115
593.8594	-0.0046
594.0506	-0.0006
594.2419	0.0071
594.4331	0.0005
594.6244	0.0085
594.8156	-0.0059
595.0067	0.0025
595.1979	0.0067
595.3891	0.0047
595.5802	-0.0029
595.7713	-0.0058
595.9624	-0.0022
596.1535	0.0072
596.3446	0.003
596.5357	-0.0007
596.7267	0.0121
596.9177	0.0052
597.1087	-0.005
597.2997	-0.0001
597.4907	0.0013
597.6817	-0.0005
597.8726	0.0016
598.0635	-0.0042
598.2544	0.0065
598.4453	0.0005
598.6362	-0.0011
598.827	-0.0082
599.0179	0.0039
599.2087	0.0025
599.3995	0.0012
599.5903	0.0013
599.7811	0.0017
599.9718	0.0032
600.1626	-0.002
600.3533	-0.0058
600.544	-0.0001
600.7347	0.0001
600.9254	0.0075
601.116	-0.0092
601.3067	-0.0014
601.4973	0.0017
601.6879	0.0045
601.8785	0.0011
602.0691	0.0035
602.2596	0.0109
602.4502	0.0109
602.6407	0.01
602.8312	0.0097
603.0217	-0.0016
603.2122	0.0021
603.4027	0.0019
603.5931	0.0031
603.7835	-0.0014
603.9739	0.0064
604.1643	-0.0042
604.3547	0.0017
604.5451	0.0027
604.7354	0.0026
604.9257	0.0063
605.116	-0.0026
605.3063	0.0007
605.4966	0.0024
605.6869	0.0043
605.8771	0.0084
606.0673	0.0061
606.2575	0.0046
606.4477	0.0072
606.6379	0.0054
606.8281	-0.0008
607.0182	-0.0027
607.2083	0.012
607.3985	-0.0049
607.5885	-0.0027
607.7786	0.0063
607.9687	0.0011
608.1587	0.0045
608.3488	0.0073
608.5388	0.0063
608.7288	-0.0025
608.9187	-0.0062
609.1087	-0.0071
609.2986	-0.0054
609.4886	0.0053
609.6785	0.0027
609.8684	0.0032
610.0582	0.0058
610.2481	0.0022
610.4379	-0.0035
610.6278	-0.0037
610.8176	0.0014
611.0074	-0.0066
611.1971	-0.0055
611.3869	-0.0017
611.5766	-0.0064
611.7664	0.0063
611.9561	-0.0012
612.1458	0.0027
612.3354	-0.0044
612.5251	0.0074
612.7147	0.0025
612.9044	0.0038
613.094	0.0019
613.2836	0.0065
613.4731	0.0005
613.6627	-0.0035
613.8522	0.0062
614.0417	0.0042
614.2313	-0.0045
614.4207	-0.0057
614.6102	0.0037
614.7997	0.0047
614.9891	-0.0023
615.1785	-0.0047
615.3679	-0.0019
615.5573	0.0032
615.7467	-0.0009
615.9361	-0.0004
616.1254	0.0015
616.3147	-0.0034
616.504	0.0009
616.6933	0.0045
616.8826	0.0051
617.0718	0.0092
617.2611	-0.001
617.4503	-0.0047
617.6395	-0.0014
617.8287	-0.0025
618.0179	-0.002
618.207	0.012
618.3961	0.0001
618.5853	0.0032
618.7744	0.0022
618.9634	0.0069
619.1525	0.0056
619.3416	0.0111
619.5306	0.004
619.7196	0.0099
619.9086	0.0044
620.0976	0.0079
620.2866	-0.0007
620.4755	0.0074
620.6645	0.006
620.8534	0.0134
621.0423	0.0028
621.2312	0.0067
621.42	0.0039
621.6089	0.0009
621.7977	0.0071
621.9865	-0.0004
622.1753	0.0093
622.3641	-0.0042
622.5529	0.0018
622.7416	0.0086
622.9303	-0.0076
623.1191	0.0072
623.3078	-0.0034
623.4964	0.0151
623.6851	-0.0009
623.8737	0.0005
624.0624	0.0003
624.251	-0.0052
624.4396	-0.0055
624.6282	0.0007
624.8167	-0.002
625.0053	0.0003
625.1938	0.0085
625.3823	0.0024
625.5708	0.0014
625.7593	-0.0049
625.9477	-0.0042
626.1362	0.0013
626.3246	0.0058
626.513	0.0028
626.7014	0.0075
626.8898	0.0014
627.0781	-0.0014
627.2665	0.0026
627.4548	0.0059
627.6431	0.004
627.8314	0.003
628.0197	-0.0003
628.2079	-0.0049
628.3962	-0.006
628.5844	0.0095
628.7726	0.0027
628.9608	0.0085
629.1489	0.0021
629.3371	0.0064
629.5252	-0.0001
629.7134	0.0067
629.9015	-0.0072
630.0895	-0.0043
630.2776	0.0072
630.4657	0.001
630.6537	0.002
630.8417	-0.0002
631.0297	-0.0024
631.2177	0.007
631.4057	-0.0085
631.5936	-0.0086
631.7815	0.0032
631.9695	0.0037
632.1574	0.0011
632.3452	0.0134
632.5331	0.0057
632.7209	-0.0019
632.9088	0.0094
633.0966	0.015
633.2844	0.0007
633.4722	0.0047
633.6599	0.0111
633.8477	0.008
634.0354	0.0062
634.2231	0.0053
634.4108	0.0113
634.5985	0.0074
634.7861	0.0049
634.9738	0.0086
635.1614	0.0058
635.349	0.0016
635.5366	0.0041
635.7242	0.0013
635.9117	0.0007
636.0993	0.0045
636.2868	0.0047
636.4743	-0.0029
636.6618	0.0076
636.8492	0.0054
637.0367	-0.0018
637.2241	-0.0075
637.4115	-0.0024
637.5989	-0.001
637.7863	-0.0019
637.9737	-0.0033
638.161	0.0002
638.3484	0.0033
638.5357	0.0048
638.723	-0.0021
638.9103	0.0026
639.0975	0.0033
639.2848	0.0039
639.472	0.0065
639.6592	0.0115
639.8464	0.014
640.0336	0.0083
640.2208	0.0007
640.4079	-0.0034
640.595	0.0055
640.7821	0.0005
640.9692	0.001
641.1563	0.0069
641.3434	0.0017
641.5304	0.0035
641.7174	0.0016
641.9044	0.0025
642.0914	0.0031
642.2784	0.0032
642.4653	0.0077
642.6523	0.0041
642.8392	0.0033
643.0261	0.0051
643.213	0.0009
643.3999	-0.0007
643.5867	-0.0054
643.7735	0.0001
643.9604	-0.0024
644.1472	0.0096
644.3339	0.0057
644.5207	0.0047
644.7075	0.0017
644.8942	0.0094
645.0809	0.0155
645.2676	0.0116
645.4543	0.0029
645.6409	0.0106
645.8276	0.0044
646.0142	0.0068
646.2008	0.0032
646.3874	0.001
646.574	0.0012
646.7605	-0.006
646.9471	-0.0053
647.1336	0.0001
647.3201	0.008
647.5066	0.0003
647.6931	0.0089
647.8795	0.0006
648.0659	0.0039
648.2524	0.0096
648.4388	0.0011
648.6252	0.0029
648.8115	0.0002
648.9979	0.0075
649.1842	0.0086
649.3705	0.0031
649.5568	0.0062
649.7431	0.0059
649.9294	0.003
650.1156	0.0111
650.3018	-0.0031
650.488	0.0044
650.6742	0.0039
650.8604	0.0039
651.0466	-0.0029
651.2327	0.0053
651.4188	0.0016
651.6049	-0.0028
651.791	0.0037
651.9771	0.0012
652.1632	0.008
652.3492	-0.0017
652.5352	0.0043
652.7212	0.0052
652.9072	0.0085
653.0932	-0.0001
653.2791	0.0022
653.465	0.0042
653.651	0.003
653.8369	0.0053
654.0227	0.0043
654.2086	0.01
654.3944	0.0144
654.5803	0.0058
654.7661	0.0032
654.9519	0.0057
655.1377	-0.0014
655.3234	0.0004
655.5092	-0.0037
655.6949	-0.0055
655.8806	-0.003
656.0663	-0.0019
656.2519	-0.0006
656.4376	-0.0045
656.6232	0.0079
656.8088	0.0032
656.9945	-0.0009
657.18	0.0035
657.3656	0
657.5511	0.0008
657.7367	0.0028
657.9222	0.0067
658.1077	0.0051
658.2932	0.0079
658.4786	-0.0034
658.6641	-0.0012
658.8495	0.0015
659.0349	-0.0025
659.2203	-0.001
659.4057	0.0025
659.591	0.0074
659.7764	-0.0042
659.9617	-0.0007
660.147	0.0002
660.3323	-0.0007
660.5176	-0.0018
660.7028	0.0071
660.888	0.007
661.0733	-0.0002
661.2585	-0.0065
661.4436	0.0099
661.6288	0.0033
661.8139	-0.0016
661.9991	0.0061
662.1842	-0.004
662.3693	0.0038
662.5544	0.0029
662.7394	0.0037
662.9245	-0.0001
663.1095	0.0048
663.2945	-0
663.4795	-0.005
663.6644	0.0064
663.8494	0.0069
664.0343	0.0083
664.2193	-0.0027
664.4042	0.0047
664.589	-0.0062
664.7739	0.0025
664.9587	-0.0042
665.1436	-0.007
665.3284	0.0004
665.5132	0.0012
665.698	0.0059
665.8827	0.0046
666.0675	-0.0001
666.2522	-0.0057
666.4369	0.0044
666.6216	0.007
666.8063	0.0029
666.9909	0.0065
667.1756	0.0033
667.3602	0.0112
667.5448	-0.0007
667.7294	0.0144
667.9139	0.0142
668.0985	0.0166
668.283	0.0061
668.4675	0.0001
668.652	0.0037
668.8365	-0.0009
669.0209	0.0073
669.2054	0.0117
669.3898	0.0082
669.5742	0.0052
669.7586	0.0101
669.943	0.0114
670.1273	0.0092
670.3117	0.0087
670.496	0.007
670.6803	0.0165
670.8646	0.0088
671.0488	0.0065
671.2331	0.0099
671.4173	0.0061
671.6015	0.0118
671.7857	0.0043
671.9699	0.0116
672.1541	0.0084
672.3382	0.0028
672.5223	0.0108
672.7064	0.0052
672.8905	0.004
673.0746	0.0063
673.2587	-0.0019
673.4427	0.003
673.6267	0.0062
673.8107	0.006
673.9947	0.0032
674.1787	0.0005
674.3626	-0.0039
674.5465	0.0129
674.7304	0.0012
674.9143	0.0067
675.0982	0.0039
675.2821	-0.0005
675.4659	-0.0001
675.6497	0.0016
675.8335	-0.0004
676.0173	0.0022
676.2011	0.0018
676.3849	0.0012
676.5686	-0.007
676.7523	-0.002
676.936	-0.0027
677.1197	-0.0073
677.3034	0.0023
677.487	0.0063
677.6706	0.0072
677.8542	0.0065
678.0378	-0.001
678.2214	0.0006
678.405	0.0069
678.5885	-0.0016
678.772	0.0064
678.9555	0.0003
679.139	0.0064
679.3225	0.005
679.5059	-0.0002
679.6894	0.0061
679.8728	-0.0004
680.0562	-0.009
680.2395	-0.0028
680.4229	-0.0003
680.6062	0.0041
680.7896	-0.0017
680.9729	-0.0055
681.1562	0.0034
681.3394	0.0027
681.5227	-0.0036
681.7059	0.0029
681.8891	0.004
682.0723	0.0126
682.2555	0.0086
682.4387	-0.0016
682.6218	0.0058
682.805	0.0128
682.9881	0.0032
683.1712	-0.0015
683.3542	0.0007
683.5373	0.0021
683.7203	-0.0032
683.9034	0.0026
684.0864	-0.0018
684.2694	-0.0023
684.4523	0.0091
684.6353	-0.0045
684.8182	0.0069
685.0011	-0.0019
685.184	0.0105
685.3669	-0.0006
685.5498	0.0032
685.7326	0.0029
685.9154	-0.005
686.0982	0.0108
686.281	0.006
686.4638	0.0032
686.6465	-0.005
686.8293	0.0018
687.012	0.0043
687.1947	-0.0019
687.3774	0.0046
687.56	-0.0014
687.7427	-0.0016
687.9253	-0.0095
688.1079	-0.0019
688.2905	0.0105
688.4731	0.0043
688.6556	0.0069
688.8382	0.0062
689.0207	0.0093
689.2032	-0.0001
689.3857	0.0012
689.5681	0.0057
689.7506	-0
689.933	-0.0022
690.1154	0.0038
690.2978	0.0035
690.4802	0.01
690.6626	-0.001
690.8449	0.0043
691.0272	0.0052
691.2095	-0.003
691.3918	-0.0035
691.5741	0.009
691.7563	0.0033
691.9386	0.0062
692.1208	0.0004
692.303	0.006
692.4852	0.005
692.6673	0.0017
692.8495	-0.0041
693.0316	0.0004
693.2137	0.0017
693.3958	0.005
693.5778	0.0077
693.7599	0.0059
693.9419	-0.0014
694.1239	-0
694.3059	-0.0057
694.4879	0.0113
694.6699	0.007
694.8518	0.0059
695.0337	-0.003
695.2157	0.0063
695.3975	0.0026
695.5794	0.0052
695.7613	0.0039
695.9431	0.0027
696.1249	0.0102
696.3067	0.0109
696.4885	0.0164
696.6703	-0.0024
696.852	0.0091
697.0337	0.0078
697.2154	0.0028
697.3971	0.0082
697.5788	0.0072
697.7605	-0.005
697.9421	0.0121
698.1237	-0
698.3053	-0.0063
698.4869	-0.0027
698.6685	-0.0022
698.85	-0.0008
699.0315	0.0084
699.213	0.0043
699.3945	-0
699.576	0.0091
699.7575	0.0066
699.9389	0.0157
700.1203	-0.0024
700.3017	-0.0039
700.4831	-0.0037
700.6645	-0.0002
700.8458	0.006
701.0271	-0.0041
701.2084	0.0029
701.3897	-0.0072
701.571	-0.001
701.7523	-0.0079
701.9335	0.0002
702.1147	0.0007
702.2959	0.0017
702.4771	-0.0022
702.6583	0.0074
702.8394	-0.0068
703.0205	-0.0022
703.2016	-0.0027
703.3827	0.004
703.5638	0.0099
703.7449	0.0068
703.9259	0.0144
704.1069	-0.0044
704.2879	-0.0014
704.4689	-0.0016
704.6499	-0.0008
704.8308	-0.0022
705.0117	-0.0013
705.1927	0.0033
705.3735	0.0006
705.5544	0.0004
705.7353	0.0023
705.9161	-0.0012
706.0969	-0.001
706.2777	0.0067
706.4585	-0.0037
706.6393	0.0071
706.82	0.0012
707.0007	0.0045
707.1815	0.0085
707.3621	0.0084
707.5428	0.0074
707.7235	0.0096
707.9041	0.0056
708.0847	-0.0027
708.2653	-0.002
708.4459	-0.0116
708.6265	0.0056
708.807	0.0045
708.9875	0.0046
709.168	-0.0059
709.3485	-0.0024
709.529	0.0016
709.7095	-0.0121
709.8899	0.0097
710.0703	-0.0098
710.2507	0.0082
710.4311	-0.006
710.6115	-0.0071
710.7918	-0.0126
710.9721	-0.0035
711.1524	-0.0072
711.3327	-0.0019
711.513	-0.0007
711.6932	-0.0028
711.8735	0.0068
712.0537	0.0058
712.2339	-0.0042
712.4141	-0.0058
712.5942	0.001
712.7744	0.0051
712.9545	-0.007
713.1346	-0.0131
713.3147	-0.0017
713.4947	-0.0013
713.6748	-0.0003
713.8548	0.0005
714.0348	0.0005
714.2148	0.0023
714.3948	0.0156
714.5748	-0.0019
714.7547	0.0046
714.9346	0.0092
715.1145	-0.0021
715.2944	-0.0033
715.4743	0.0024
715.6541	0.0071
715.834	0.005
716.0138	0.0024
716.1936	-0.0041
716.3733	0.0043
716.5531	0.0126
716.7328	0.0033
716.9126	-0.007
717.0923	0.0121
717.2719	0.0029
717.4516	0.0054
717.6312	0.0033
717.8109	-0.0011
717.9905	-0.0007
718.1701	-0.0049
718.3496	-0.0075
718.5292	-0.005
718.7087	-0.0047
718.8882	-0.0054
719.0677	0.0019
719.2472	-0.0063
719.4267	-0.0031
719.6061	-0.0024
719.7856	0.0063
719.965	0.0028
720.1443	-0.0036
720.3237	0.0099
720.5031	-0.0008
720.6824	0.0023
720.8617	-0.0073
721.041	-0.0011
721.2203	0.0103
721.3995	0.0001
721.5788	0.0008
721.758	0.0051
721.9372	0.0079
722.1164	0.0095
722.2956	0.0103
722.4747	0.0035
722.6538	-0.0044
722.8329	0.0147
723.012	0.0059
723.1911	-0.0007
723.3702	-0.0013
723.5492	0.0039
723.7282	-0.0015
723.9072	0.0051
724.0862	-0.0053
724.2652	-0.0078
724.4441	-0.0025
724.623	-0.0038
724.8019	0.0034
724.9808	0.0063
725.1597	-0.0013
725.3385	0.0004
725.5174	0.0058
725.6962	-0.0007
725.875	0.0075
726.0538	0.0015
726.2325	-0.0044
726.4112	0.0026
726.59	-0.0078
726.7687	-0.0026
726.9474	0.0054
727.126	0.0045
727.3047	-0.007
727.4833	-0.0046
727.6619	-0.0051
727.8405	-0.0126
728.0191	-0.0069
728.1976	-0.0016
728.3762	-0.001
728.5547	-0.0053
728.7332	-0.0037
728.9116	0.0064
729.0901	0.0065
729.2686	0.0032
729.447	0.0014
729.6254	0.0077
729.8038	0.0099
729.9821	-0.0129
730.1605	-0.0016
730.3388	0.0012
730.5171	-0.0008
730.6954	-0.0032
730.8737	0.0075
731.0519	0.0029
731.2302	-0.0015
731.4084	0.0142
731.5866	0.0023
731.7648	-0.0017
731.9429	-0.0003
732.1211	-0.0081
732.2992	0.0016
732.4773	-0.0031
732.6554	-0.0001
732.8335	0.0003
733.0115	0.0066
733.1896	0.0048
733.3676	-0.0098
733.5456	0.0105
733.7235	0.0084
733.9015	-0.0085
734.0794	0.0025
734.2574	-0.0011
734.4353	0.0033
734.6131	0.0044
734.791	0.0039
734.9689	-0.0052
735.1467	-0.0034
735.3245	-0.0061
735.5023	-0.007
735.68	-0.002
735.8578	-0.0032
736.0355	-0.0146
736.2132	-0.0057
736.3909	-0.0054
736.5686	-0.0059
736.7463	0.0063
736.9239	-0.0062
737.1015	0.0039
737.2791	0.0075
737.4567	0.0055
737.6343	-0.0001
737.8118	0.0052
737.9894	0.0084
738.1669	0.0063
738.3444	0.0028
738.5218	0.0025
738.6993	0.0011
738.8767	0.0055
739.0541	0.0107
739.2315	-0.0008
739.4089	0.001
739.5863	0.0151
739.7636	0.0045
739.9409	0.0075
740.1182	0.0076
740.2955	0.0132
740.4728	0.004
740.65	-0.0017
740.8272	-0.0004
741.0044	-0.0019
741.1816	0.0073
741.3588	-0.0045
741.5359	0.0024
741.7131	-0.0072
741.8902	0.0059
742.0673	0.0042
742.2444	-0.0077
742.4214	-0.0109
742.5985	0.0001
742.7755	0.0002
742.9525	-0.0143
743.1295	0.0103
743.3064	0.0048
743.4834	0.008
743.6603	-0.0001
743.8372	-0.0042
744.0141	0.006
744.191	0.0084
744.3678	0.0115
744.5446	0.01
744.7215	0.0154
744.8982	0.0102
745.075	-0.0061
745.2518	-0.0028
745.4285	-0.0012
745.6052	0.0033
745.7819	-0.0027
745.9586	-0.0053
746.1353	-0.0051
746.3119	-0.0054
746.4885	-0.005
746.6651	-0.0149
746.8417	0.0045
747.0183	-0.0075
747.1948	-0.0087
747.3714	0.0108
747.5479	0.0046
747.7244	-0.0013
747.9008	0.0092
748.0773	0.0013
748.2537	0.0052
748.4301	-0.0065
748.6065	0.0064
748.7829	0.0048
748.9593	0.0037
749.1356	-0.0017
749.3119	0.0044
749.4882	-0.011
749.6645	0.0018
749.8408	-0.0049
750.017	-0.0046
750.1933	0.0002
750.3695	-0.0055
750.5457	0.0122
750.7218	-0.002
750.898	0.0061
751.0741	-0.0122
751.2502	0.0025
751.4263	-0.0072
751.6024	-0.0003
751.7784	-0.0097
751.9545	-0.0066
752.1305	0.0008
752.3065	-0.0101
752.4825	0.0055
752.6584	-0.003
752.8344	-0.0114
753.0103	-0.0047
753.1862	-0.0027
753.3621	-0.0046
753.5379	-0.0053
753.7138	0.0026
753.8896	-0.0048
754.0654	0.0001
754.2412	0.0039
754.417	-0.001
754.5927	-0.003
754.7685	-0.0075
754.9442	-0.0055
755.1199	0.0022
755.2956	-0.0096
755.4712	0.0019
755.6469	-0.0017
755.8225	-0.0045
755.9981	-0.0081
756.1736	0.0026
756.3492	-0.0007
756.5248	-0.0034
756.7003	-0.0014
756.8758	0.0026
757.0513	-0.0053
757.2267	-0.0022
757.4022	0.0079
757.5776	0.001
757.753	0.0054
757.9284	0.0092
758.1038	0.0112
758.2791	-0.0032
758.4545	-0.0049
758.6298	-0.0026
758.8051	0.0113
758.9803	-0.0054
759.1556	0.0031
759.3308	-0.0032
759.506	0.0147
759.6812	0.0191
759.8564	0.0177
760.0316	0.0086
760.2067	0.0175
760.3819	0.013
760.557	0.0205
760.732	0.0089
760.9071	-0.006
761.0821	0.0075
761.2572	0.0139
761.4322	0.0015
761.6072	0.0045
761.7821	-0.0078
761.9571	0.005
762.132	-0.0032
762.3069	-0.0016
762.4818	-0.0037
762.6567	0.0035
762.8316	-0.0024
763.0064	0.0038
763.1812	-0.001
763.356	-0.006
763.5308	-0.0035
763.7055	0.0072
763.8803	-0.0055
764.055	0.0077
764.2297	0.0081
764.4044	0.0078
764.579	-0.0014
764.7537	-0.0122
764.9283	-0.0022
765.1029	0.0039
765.2775	-0.0007
765.4521	-0.0054
765.6266	-0.0063
765.8011	-0.0018
765.9756	0.0033
766.1501	0.0099
766.3246	-0.0034
766.4991	-0.006
766.6735	0.002
766.8479	-0.0108
767.0223	0.0065
767.1967	0.0006
767.371	0.0062
767.5454	0.0061
767.7197	0.0033
767.894	-0.0182
768.0683	-0.0089
768.2425	-0.0009
768.4168	0.0078
768.591	-0.0002
768.7652	-0.0035
768.9394	-0.0057
769.1135	0.0085
769.2877	0.0134
769.4618	-0.0003
769.6359	0.0003
769.81	-0.0024
769.984	0.0005
770.1581	-0.0095
770.3321	-0.0078
770.5061	-0.0119
770.6801	-0.0091
770.8541	-0.011
771.028	0.0056
771.202	0.0027
771.3759	0.0091
771.5498	0.0056
771.7236	0.0032
771.8975	-0.0047
772.0713	0.0017
772.2451	0.0069
772.4189	0.0244
772.5927	0.0243
772.7665	0.007
772.9402	-0.0072
773.1139	0.0007
773.2876	0.0012
773.4613	0.0093
773.635	0.0023
773.8086	-0.007
773.9822	0.0069
774.1558	0.0061
774.3294	-0.0161
774.503	-0.0008
774.6765	0.0015
774.8501	0.0029
775.0236	0.0064
775.1971	0.0112
775.3705	-0.0052
775.544	0.0028
775.7174	-0.0103
775.8908	0.0017
776.0642	0.0081
776.2376	-0.0039
776.4109	-0.0032
776.5843	0.0017
776.7576	0.0144
776.9309	0.0118
777.1041	0.011
777.2774	0.01
777.4506	0.0063
777.6238	-0.0053
777.797	0.0052
777.9702	0.0068
778.1434	0.0057
778.3165	-0.0031
778.4896	-0.0074
778.6627	0.0106
778.8358	0.0032
779.0089	0.0017
779.1819	0.0083
779.3549	0.0141
779.5279	0.0235
779.7009	0.0049
779.8739	0.0055
780.0468	0.0073
780.2197	0.0027
780.3926	-0.004
780.5655	-0.0053
780.7384	0.0031
780.9112	0.0041
781.0841	0.0061
781.2569	0.0055
781.4297	0.0192
781.6024	0.0187
781.7752	0.0117
781.9479	0.0148
782.1206	0.0111
782.2933	0.0062
782.466	0.0145
782.6386	0.0032
782.8113	0.0057
782.9839	0.0082
783.1565	0.0071
783.329	-0.002
783.5016	0.0058
783.6741	0.0083
783.8466	-0.0088
784.0191	0.007
784.1916	0.0125
784.3641	-0.0065
784.5365	0.0065
784.7089	0.0085
784.8813	0.0023
785.0537	0.007
785.2261	-0.0036
785.3984	-0.0019
785.5707	0.0056
785.743	0.0082
785.9153	-0.0036
786.0876	0.0122
786.2598	-0.0013
786.432	0.0007
786.6042	0.0089
786.7764	-0.003
786.9486	-0.0065
787.1207	-0.0051
787.2928	0.0048
787.4649	0.0005
787.637	0.0021
787.8091	-0.0035
787.9811	-0.0108
788.1532	-0.0038
788.3252	0.0082
788.4972	-0.0033
788.6691	0.0042
788.8411	0.01
789.013	0.0046
789.1849	0.0108
789.3568	-0.0011
789.5287	-0.0041
789.7005	-0.0018
789.8723	0.0027
790.0442	0.0079
790.2159	-0.0011
790.3877	0.0127
790.5595	-0.0032
790.7312	0.0038
790.9029	0.0042
791.0746	-0.0038
791.2463	0.0028
791.4179	0.0108
791.5896	0.0011
791.7612	-0.0025
791.9328	0.0087
792.1044	0.0034
792.2759	-0.0005
792.4474	-0.0084
792.619	0.0171
792.7905	0.0047
792.9619	0.0024
793.1334	0.016
793.3048	0.0131
793.4762	0.0044
793.6476	0.016
793.819	-0.0218
793.9904	0.0187
794.1617	0.0037
794.333	0.0131
794.5043	-0.0127
794.6756	0.0039
794.8469	0.0011
795.0181	-0.0028
795.1893	-0.0143
795.3605	-0.0055
795.5317	0.001
795.7029	-0.0139
795.874	0.0159
796.0452	-0.0064
796.2163	0.0015
796.3873	0.0047
796.5584	-0.003
796.7294	0.0032
796.9005	0.019
797.0715	-0
797.2425	-0.013
797.4134	0.0025
797.5844	0.0023
797.7553	-0.0086
797.9262	0.016
798.0971	0.0024
798.2679	-0.0145
798.4388	-0.0177
798.6096	0.0071
798.7804	0.0013
798.9512	-0.0273
799.122	-0.0017
799.2927	0.0059
799.4635	0.015
799.6342	-0.0213
799.8049	-0.0064
799.9755	0.0025
800.1462	0.004
800.3168	0.0074
800.4874	0.0009
800.658	0.0228
800.8286	0.01
800.9991	0.007
801.1696	0.0013
801.3402	0.0174
801.5106	-0.0033
801.6811	-0.0048
801.8516	-0.0008
802.022	0.0051
802.1924	0.0059
802.3628	-0.0081
802.5332	0.0078
802.7035	0.0179
802.8739	0.0025
803.0442	-0.0174
803.2145	0.0104
803.3847	-0.0293
803.555	0.0047
803.7252	-0.0048
803.8954	-0.0185
804.0656	-0.032
804.2358	-0.0026
804.4059	0.0147
804.5761	-0.0011
804.7462	-0.0081
804.9163	0.0139
805.0864	0.0031
805.2564	-0.0159
805.4264	-0.0068
805.5965	0.0038
805.7665	0.0093
805.9364	0.0208
806.1064	0.0276
806.2763	0.0217
806.4462	0.0357
806.6161	0.0149
806.786	0.026
806.9559	0.0133
807.1257	-0.004
807.2955	-0.0036
807.4653	-0.0064
807.6351	0.0062
807.8048	0.0169
807.9746	0.0168
808.1443	0.0013
808.314	0.0097
808.4837	0.0121
808.6533	0.012
808.8229	0.0256
808.9926	0.0047
809.1622	0.0126
809.3317	-0.0052
809.5013	-0.0053
809.6708	-0.0005
809.8403	0.0062
810.0098	-0.0155
810.1793	-0.0031
810.3488	-0.004
810.5182	-0.0132
810.6876	0.0094
810.857	-0.0019
811.0264	0.0274
811.1958	0.0151
811.3651	0.0162
811.5344	-0.0076
811.7037	-0.0119
811.873	-0.017
812.0422	-0.0024
812.2115	0.0073
812.3807	-0.0135
812.5499	0.0111
812.7191	0.0032
812.8882	-0.0291
813.0574	0.0033
813.2265	-0.0028
813.3956	-0.0091
813.5646	0.0061
813.7337	-0.0163
813.9027	0.0227
814.0718	0.0165
814.2407	0.0303
814.4097	-0.0119
814.5787	-0.0107
814.7476	0.0031
814.9165	0.019
815.0854	-0.0042
815.2543	0.0131
815.4232	-0.0131
815.592	0.0179
815.7608	0.0083
815.9296	0.0056
816.0984	0.0118
816.2671	0.0011
816.4359	-0.0181
816.6046	0.0094
816.7733	0.0009
816.942	-0.0239
817.1106	0.0247
817.2793	0.0107
817.4479	0.0095
817.6165	0.0162
817.785	0.0028
817.9536	-0.0098
818.1221	-0.0042
818.2906	0.0176
818.4591	-0.0297
818.6276	-0.0192
818.7961	-0.0108
818.9645	0.006
819.1329	-0.0024
819.3013	0.0297
819.4697	0.0293
819.638	0.0242
819.8064	0.0155
819.9747	0.0213
820.143	0.005
820.3113	-0.0094
820.4795	-0.008
820.6477	-0.0206
820.816	0.0295
820.9842	-0.009
821.1523	-0.0132
821.3205	-0.0085
821.4886	0.0047
821.6567	0.0134
821.8248	-0.0052
821.9929	0.0317
822.1609	0.0152
822.329	0.0315
822.497	0.0454
822.665	-0.0032
822.833	-0.0141
823.0009	0.027
823.1688	0.0211
823.3367	0.0545
823.5046	0.0211
823.6725	0.0347
823.8404	0.0099
824.0082	0.0362
824.176	0.0075
824.3438	0.0108
824.5116	-0.0355
824.6793	0.0024
824.847	-0.0289
825.0147	-0.006
825.1824	0.0184
825.3501	-0.0001
825.5177	-0.0196
825.6854	-0.0035
825.853	0.0054
826.0206	-0.0332
826.1881	0.0166
826.3557	-0.0364
826.5232	0.0105
826.6907	-0.0309
826.8582	0.0049
827.0257	-0.0005
827.1931	0.0165
827.3605	0.0174
827.528	0.0175
827.6953	-0.0139
827.8627	0.0056
828.03	0.0255
828.1974	0.0099
828.3647	0.0025
828.532	-0.018
828.6992	-0.0011
828.8665	-0.0086
829.0337	-0.0101
829.2009	-0.0055
829.3681	0.0187
829.5352	0.0325
829.7024	0.0328
829.8695	0.0147
830.0366	0.0506
830.2037	0.0009
830.3707	0.0196
830.5378	0.028
830.7048	0.0115
830.8718	0.0015
831.0388	-0.0421
831.2057	-0.0096
831.3727	0.0099
831.5396	0.0079
831.7065	0.0157
831.8734	0.001
832.0402	-0.0382
832.2071	-0.0172
832.3739	0.0041
832.5407	0.0151
832.7075	-0.0308
832.8742	0.0042
833.041	-0.0539
833.2077	-0.0068
833.3744	0.0167
833.541	0.0159
833.7077	-0.0026
833.8743	-0.0224
834.0409	0.0104
834.2075	-0.0151
834.3741	-0.0056
834.5407	-0.0114
834.7072	-0.0064
834.8737	-0.0412
835.0402	-0.0028
835.2067	0.0356
835.3731	0.0006
835.5395	0.007
835.706	0.0469
835.8723	0.0405
836.0387	-0.0061
836.2051	-0.0043
836.3714	0.037
836.5377	-0.0015
836.704	-0.0148
836.8703	0.0014
837.0365	0.0216
837.2027	-0.0294
837.3689	0.0084
837.5351	-0.0009
837.7013	0.0041
837.8674	-0.0173
838.0335	-0.0378
838.1997	-0.0026
838.3657	-0.0547
838.5318	-0.0001
838.6978	0.0667
838.8639	0.0142
839.0299	0.0156
839.1958	0.0383
839.3618	0.0565
839.5277	0.0059
839.6937	0.0133
839.8596	0.0118
840.0254	0.0697
840.1913	0.009
840.3571	0.0168
840.523	-0.0022
840.6888	0.0161
840.8545	-0.0397
841.0203	-0.008
841.186	0.0318
841.3517	0.0098
841.5174	0.0353
841.6831	-0.0319
841.8488	0.0035
842.0144	0.0128
842.18	0.0751
842.3456	0.0122
842.5112	0.0008
842.6767	-0.0212
842.8422	-0.018
843.0077	-0.046
843.1732	-0.0391
843.3387	-0.0361
843.5042	-0.0106
843.6696	-0.0743
843.835	-0.0055
844.0004	0.0646
844.1657	0.012
844.3311	-0.0398
844.4964	-0.0703
844.6617	-0.0476
844.827	-0.0283
844.9923	0.0021
845.1575	0.007
845.3227	0.0223
845.4879	-0.0232
845.6531	-0.0683
845.8183	-0.0271
845.9834	0.0215
846.1485	-0.0141
846.3136	-0.0152
846.4787	-0.0244
846.6438	0.078
846.8088	-0.0377
846.9738	-0.0417
847.1388	0.0083
847.3038	-0.0569
847.4687	-0.1399
847.6337	0.017
847.7986	-0.0222
847.9635	-0.0104
848.1284	-0.0163
848.2932	0.0681
848.458	0.0153
848.6228	0.0225
848.7876	0.113
848.9524	-0.027
849.1172	-0.0756
849.2819	0.0183
849.4466	-0.1208
849.6113	-0.1108
849.7759	0.1081
849.9406	-0.0828
850.1052	0.089
850.2698	0.0456
850.4344	-0.0397
850.599	0.0101
850.7635	0.0805
850.928	-0.0642
851.0925	-0.0441
851.257	0.1099
851.4215	0.056
851.5859	-0.0401
851.7503	-0.0168
851.9147	0.0595
852.0791	-0.0787
852.2434	0.0073
852.4078	0.0451
852.5721	0.042
852.7364	-0.0222
852.9007	-0.2144
853.0649	-0.0195
853.2291	0.0279
853.3934	0.0458
853.5575	0.0072
853.7217	-0.0298
853.8859	-0.1364
854.05	-0.0261
854.2141	-0.0182
854.3782	-0.0709
854.5423	-0.0586
854.7063	0.0743
854.8703	0.0251
855.0343	-0.0646
855.1983	-0.1715
855.3623	0.1373
855.5262	0.101
855.6901	-0.1172
855.854	-0.0065
856.0179	0.0177
856.1818	0.108
856.3456	-0.0106
856.5094	-0.0569
856.6732	-0.1197
856.837	-0.0488
857.0008	0.0899
857.1645	0.0212
857.3282	0.0216
857.4919	0.1074
857.6556	-0.036
857.8192	0.1373
857.9828	-0.0587
858.1465	0.1807
858.31	-0.0454
858.4736	0.0189
858.6372	-0.184
858.8007	-0.1266
858.9642	0.1439
859.1277	0.0825
859.2911	0.018
859.4546	0.02
859.618	-0.3315
859.7814	-0.0329
859.9448	0.1661
860.1081	0.093
860.2715	0.2312
860.4348	-0.1857
860.5981	-0.1265
860.7614	0.2024
860.9246	0.0144
861.0879	-0.1235
861.2511	0.2844
861.4143	-0.1439
861.5774	0.1299
861.7406	-0.2866
861.9037	-0.1028
862.0668	-0.063
862.2299	-0.2044
862.393	-0.272
862.556	0.1319
862.7191	-0.2892
862.8821	-0.3823
863.0451	0.2234
863.208	0.196
863.371	-0.0432
863.5339	0.145
863.6968	0.172
863.8597	0.4253
864.0225	-0.0915
864.1854	0.0459
864.3482	-0
864.511	0.4867
864.6737	-0.0387
864.8365	0.0628
864.9992	-0.5935
865.1619	-0.0735
865.3246	0.4252
865.4873	0.5086
865.65	-0.0322
865.8126	-0.0668
865.9752	0.0387
866.1378	-0.352
866.3004	-0
866.4629	0.5363
866.6254	-0.149
866.7879	-0.1257
866.9504	-0.1143
867.1129	-0
867.2753	0.6686
867.4377	0.3682
867.6001	-0.3393
867.7625	-0.1324
867.9249	-0
868.0872	-0.0504
868.2495	0.1652
868.4118	0.1865
868.5741	0.0308
868.7363	0.3085
868.8986	-0.2636
869.0608	-0.0094
869.223	0.081
869.3851	0.4572
869.5473	-0
869.7094	0.5316
869.8715	-0
870.0336	-0.3716
870.1957	1.4843
870.3577	-1.1787
870.5197	0.0537
870.6817	-0
870.8437	0.0263
871.0057	-0
871.1676	-0
871.3295	-0.4677
871.4914	-0.5376
871.6533	-0.3563
871.8151	-0.5184
871.977	-0
872.1388	-0
872.3006	-0.4316
872.4623	-0
872.6241	-0.0014
872.7858	-0.1768
872.9475	0.3076
873.1092	-0
873.2709	0.4172
873.4325	-0
873.5941	-0
873.7557	-0.2784
873.9173	-0.0913
874.0789	0.3209
874.2404	-0
874.4019	-0.101
874.5634	0.0376
874.7249	0.1133
874.8863	0.111
875.0478	0.0093
875.2092	-0
875.3706	-0
875.5319	-0
875.6933	0.2916
875.8546	1.7597
876.0159	-0
876.1772	-0
876.3385	-0
876.4997	1.1253
876.6609	-0.3885
876.8221	-0
876.9833	1.1283
877.1445	-0
877.3056	-0.0915
877.4667	-0.4021
877.6278	0.3666
877.7889	-0.1289
877.9499	-0
878.111	-0
878.272	-0
878.433	-0
878.5939	-0.2939
878.7549	-0.1076
878.9158	-0.8704
879.0767	-0.0652
879.2376	0.0292
879.3984	-0
879.5593	-0
879.7201	0.0764
879.8809	0.4843
880.0417	-0.1273
880.2024	-0
880.3632	-0
880.5239	-0
880.6846	-0
880.8452	-2.4886
881.0059	-1.6776
881.1665	-0.3734
881.3271	0.3452
881.4877	-0.8013
881.6483	-0.5273
881.8088	-0.3847
881.9693	-0
882.1298	-0
882.2903	-0
