Data from MonoPyChalIsomerACN10uM340nmA_Absorbance_14-14-18-365.txt Node
Date: Fri Jul 05 14:14:18 BST 2024
User: LASERRRRR
Spectrometer: FLMT03099
Trigger mode: 0
Integration Time (sec): 1.000000E-1
Scans to average: 1
Electric dark correction enabled: true
Nonlinearity correction enabled: false
Boxcar width: 0
XAxis mode: Wavelengths
Number of Pixels in Spectrum: 3648
>>>>>Begin Spectral Data<<<<<
179.3399	-0.1962
179.5586	-0.1962
179.7771	-0.1962
179.9957	-0.0642
180.2143	-0
180.4329	0.1127
180.6514	-0
180.8699	-0
181.0885	0.0841
181.307	0.1559
181.5255	0.1174
181.744	-0
181.9625	-0.2387
182.181	-0
182.3994	0.5964
182.6179	-0.2859
182.8363	0.7109
183.0547	-0.2462
183.2732	0.2118
183.4916	0.1088
183.71	0.0399
183.9284	0.2571
184.1467	-0.0523
184.3651	-0.1782
184.5835	-0.1796
184.8018	0.1879
185.0201	0.1412
185.2385	-0.0758
185.4568	0.0132
185.6751	0.1324
185.8934	0.0802
186.1117	0.0676
186.3299	0.1151
186.5482	0.11
186.7664	-0.1136
186.9847	0.0786
187.2029	0.0974
187.4211	-0.0787
187.6393	0.1952
187.8575	0.1448
188.0757	0.2015
188.2939	0.1082
188.512	-0.0685
188.7302	0.2636
188.9483	0.0179
189.1665	0.0023
189.3846	0.0956
189.6027	0.0501
189.8208	0.0862
190.0389	0.0485
190.257	0.0529
190.475	0.1461
190.6931	0.2618
190.9111	0.2553
191.1292	0.0871
191.3472	0.3453
191.5652	0.2457
191.7832	0.2639
192.0012	0.2869
192.2192	0.3547
192.4371	0.4486
192.6551	0.6115
192.873	0.3449
193.091	0.1542
193.3089	0.448
193.5268	0.4576
193.7447	0.4611
193.9626	0.3616
194.1805	0.5337
194.3984	0.7548
194.6162	0.4222
194.8341	0.5578
195.0519	0.6255
195.2697	0.6542
195.4875	0.4928
195.7054	0.4686
195.9231	0.5257
196.1409	0.4792
196.3587	0.7433
196.5765	0.4955
196.7942	0.5848
197.012	0.4556
197.2297	0.491
197.4474	0.8589
197.6651	0.4985
197.8828	0.6017
198.1005	0.5652
198.3182	0.6809
198.5358	0.5892
198.7535	0.6374
198.9711	0.5252
199.1888	0.5285
199.4064	0.9052
199.624	0.6199
199.8416	0.587
200.0592	0.601
200.2767	0.6364
200.4943	0.6235
200.7119	0.716
200.9294	0.6838
201.1469	0.5895
201.3645	0.5399
201.582	0.5547
201.7995	0.6226
202.017	0.6643
202.2344	0.6105
202.4519	0.6233
202.6694	0.5586
202.8868	0.5501
203.1042	0.778
203.3217	0.6458
203.5391	0.745
203.7565	0.5444
203.9739	0.5955
204.1913	0.5723
204.4086	0.572
204.626	0.6654
204.8433	0.5995
205.0607	0.5888
205.278	0.649
205.4953	0.633
205.7126	0.5973
205.9299	0.6413
206.1472	0.7148
206.3644	0.64
206.5817	0.7221
206.7989	0.6888
207.0162	0.603
207.2334	0.6318
207.4506	0.6764
207.6678	0.6267
207.885	0.6473
208.1022	0.7443
208.3194	0.5963
208.5365	0.6125
208.7537	0.6378
208.9708	0.5656
209.1879	0.6037
209.405	0.6451
209.6222	0.6414
209.8392	0.5858
210.0563	0.6008
210.2734	0.5901
210.4905	0.6204
210.7075	0.6738
210.9245	0.5862
211.1416	0.6454
211.3586	0.6171
211.5756	0.5547
211.7926	0.5511
212.0096	0.5669
212.2265	0.5449
212.4435	0.5795
212.6604	0.6035
212.8774	0.5548
213.0943	0.6083
213.3112	0.5126
213.5281	0.4785
213.745	0.4545
213.9619	0.4948
214.1788	0.4785
214.3956	0.429
214.6125	0.4436
214.8293	0.4397
215.0461	0.467
215.2629	0.4626
215.4798	0.4352
215.6965	0.4293
215.9133	0.446
216.1301	0.3995
216.3469	0.4693
216.5636	0.394
216.7803	0.3421
216.9971	0.4015
217.2138	0.3913
217.4305	0.386
217.6472	0.3803
217.8639	0.3668
218.0805	0.348
218.2972	0.3387
218.5138	0.3234
218.7305	0.2954
218.9471	0.3107
219.1637	0.2884
219.3803	0.2756
219.5969	0.27
219.8135	0.2442
220.0301	0.2603
220.2466	0.2907
220.4632	0.2688
220.6797	0.2172
220.8962	0.2494
221.1127	0.2626
221.3292	0.2599
221.5457	0.2256
221.7622	0.26
221.9787	0.2549
222.1951	0.218
222.4116	0.2413
222.628	0.2712
222.8444	0.2736
223.0608	0.2772
223.2772	0.2524
223.4936	0.2716
223.71	0.2455
223.9264	0.293
224.1427	0.2442
224.3591	0.2541
224.5754	0.2581
224.7917	0.2685
225.008	0.2525
225.2243	0.2546
225.4406	0.2969
225.6569	0.2638
225.8732	0.2657
226.0894	0.2676
226.3057	0.2852
226.5219	0.2842
226.7381	0.2808
226.9543	0.2809
227.1705	0.266
227.3867	0.2923
227.6029	0.2784
227.8191	0.3047
228.0352	0.2953
228.2513	0.3019
228.4675	0.3049
228.6836	0.3119
228.8997	0.2945
229.1158	0.3053
229.3319	0.3142
229.548	0.3069
229.764	0.3112
229.9801	0.341
230.1961	0.3302
230.4121	0.3318
230.6282	0.3524
230.8442	0.3267
231.0602	0.3494
231.2761	0.3681
231.4921	0.3459
231.7081	0.3533
231.924	0.3535
232.14	0.3688
232.3559	0.3412
232.5718	0.3652
232.7877	0.3519
233.0036	0.3405
233.2195	0.378
233.4353	0.3584
233.6512	0.3595
233.867	0.3709
234.0829	0.3537
234.2987	0.3606
234.5145	0.3734
234.7303	0.3501
234.9461	0.3751
235.1619	0.3685
235.3776	0.4011
235.5934	0.3738
235.8091	0.378
236.0249	0.3709
236.2406	0.3934
236.4563	0.3819
236.672	0.3948
236.8877	0.4135
237.1034	0.3813
237.319	0.3973
237.5347	0.3971
237.7503	0.3799
237.966	0.4018
238.1816	0.4125
238.3972	0.42
238.6128	0.3949
238.8284	0.3993
239.0439	0.411
239.2595	0.3949
239.475	0.4231
239.6906	0.4026
239.9061	0.3762
240.1216	0.4106
240.3371	0.4016
240.5526	0.3881
240.7681	0.4024
240.9836	0.4039
241.199	0.3906
241.4145	0.3863
241.6299	0.3976
241.8453	0.368
242.0607	0.3873
242.2761	0.3516
242.4915	0.3574
242.7069	0.3659
242.9223	0.3457
243.1376	0.3463
243.353	0.3335
243.5683	0.355
243.7836	0.3228
243.9989	0.3336
244.2142	0.3009
244.4295	0.3177
244.6448	0.2956
244.86	0.2915
245.0753	0.2715
245.2905	0.288
245.5057	0.2638
245.721	0.2733
245.9362	0.2598
246.1514	0.2677
246.3665	0.256
246.5817	0.249
246.7969	0.2435
247.012	0.2389
247.2271	0.2445
247.4423	0.2381
247.6574	0.231
247.8725	0.2206
248.0876	0.2038
248.3026	0.2166
248.5177	0.2263
248.7328	0.2166
248.9478	0.2039
249.1628	0.2133
249.3779	0.2192
249.5929	0.2024
249.8079	0.2126
250.0228	0.1983
250.2378	0.2086
250.4528	0.2031
250.6677	0.1848
250.8827	0.1862
251.0976	0.1929
251.3125	0.1926
251.5274	0.1689
251.7423	0.1717
251.9572	0.1774
252.172	0.1632
252.3869	0.182
252.6017	0.1898
252.8166	0.182
253.0314	0.162
253.2462	0.1712
253.461	0.1822
253.6758	0.1623
253.8906	0.1687
254.1053	0.1614
254.3201	0.1629
254.5348	0.1692
254.7496	0.1761
254.9643	0.1706
255.179	0.1616
255.3937	0.1655
255.6083	0.1772
255.823	0.1707
256.0377	0.1673
256.2523	0.1693
256.467	0.1517
256.6816	0.1809
256.8962	0.1655
257.1108	0.1528
257.3254	0.1637
257.54	0.1471
257.7545	0.1652
257.9691	0.1673
258.1836	0.171
258.3981	0.177
258.6127	0.174
258.8272	0.1629
259.0417	0.1668
259.2561	0.1573
259.4706	0.1646
259.6851	0.1553
259.8995	0.1533
260.114	0.1524
260.3284	0.1645
260.5428	0.1519
260.7572	0.1642
260.9716	0.1643
261.186	0.1601
261.4003	0.169
261.6147	0.169
261.829	0.1699
262.0433	0.1626
262.2577	0.1535
262.472	0.1676
262.6863	0.151
262.9005	0.1624
263.1148	0.1507
263.3291	0.1437
263.5433	0.1563
263.7576	0.1647
263.9718	0.1589
264.186	0.1589
264.4002	0.1532
264.6144	0.1574
264.8286	0.1698
265.0427	0.1652
265.2569	0.1535
265.471	0.1543
265.6851	0.1624
265.8993	0.1491
266.1134	0.1559
266.3275	0.1599
266.5415	0.1579
266.7556	0.1563
266.9697	0.1605
267.1837	0.1507
267.3978	0.1681
267.6118	0.1625
267.8258	0.1756
268.0398	0.1442
268.2538	0.1666
268.4677	0.1565
268.6817	0.1417
268.8957	0.1471
269.1096	0.1543
269.3235	0.1561
269.5374	0.1391
269.7514	0.1415
269.9652	0.1342
270.1791	0.1394
270.393	0.1444
270.6068	0.1551
270.8207	0.1442
271.0345	0.1367
271.2483	0.1471
271.4622	0.1369
271.676	0.1539
271.8897	0.1423
272.1035	0.1344
272.3173	0.1335
272.531	0.1476
272.7448	0.1396
272.9585	0.1371
273.1722	0.1409
273.3859	0.1341
273.5996	0.1322
273.8133	0.1344
274.0269	0.1341
274.2406	0.128
274.4542	0.1344
274.6679	0.127
274.8815	0.1449
275.0951	0.1383
275.3087	0.1429
275.5223	0.1374
275.7358	0.1467
275.9494	0.1279
276.1629	0.1377
276.3765	0.1224
276.59	0.135
276.8035	0.1391
277.017	0.1368
277.2305	0.1313
277.444	0.1424
277.6574	0.1414
277.8709	0.1488
278.0843	0.1297
278.2978	0.1452
278.5112	0.1247
278.7246	0.1474
278.938	0.1443
279.1513	0.1545
279.3647	0.1622
279.5781	0.1303
279.7914	0.1475
280.0047	0.1485
280.2181	0.1478
280.4314	0.1489
280.6447	0.1448
280.8579	0.1404
281.0712	0.1508
281.2845	0.15
281.4977	0.1505
281.711	0.1386
281.9242	0.1392
282.1374	0.1468
282.3506	0.1358
282.5638	0.1499
282.7769	0.1403
282.9901	0.1446
283.2033	0.1562
283.4164	0.1582
283.6295	0.1394
283.8426	0.1513
284.0557	0.1519
284.2688	0.165
284.4819	0.1471
284.695	0.152
284.908	0.1501
285.1211	0.1556
285.3341	0.1436
285.5471	0.1623
285.7601	0.1605
285.9731	0.1495
286.1861	0.1453
286.3991	0.1588
286.612	0.1696
286.825	0.1567
287.0379	0.1708
287.2508	0.1621
287.4637	0.158
287.6766	0.1512
287.8895	0.1684
288.1024	0.1631
288.3152	0.1572
288.5281	0.1552
288.7409	0.1589
288.9538	0.1659
289.1666	0.151
289.3794	0.1686
289.5922	0.1532
289.8049	0.1715
290.0177	0.1628
290.2304	0.1671
290.4432	0.1674
290.6559	0.1664
290.8686	0.1718
291.0813	0.1712
291.294	0.1665
291.5067	0.1777
291.7194	0.1677
291.932	0.1814
292.1447	0.1657
292.3573	0.1519
292.5699	0.1791
292.7825	0.1744
292.9951	0.1551
293.2077	0.1569
293.4203	0.1714
293.6328	0.1574
293.8454	0.1729
294.0579	0.165
294.2704	0.1615
294.4829	0.1555
294.6954	0.1663
294.9079	0.1646
295.1204	0.1695
295.3328	0.1626
295.5453	0.173
295.7577	0.1622
295.9701	0.1646
296.1825	0.1713
296.3949	0.1658
296.6073	0.1612
296.8197	0.1655
297.0321	0.1774
297.2444	0.1523
297.4567	0.1638
297.6691	0.1708
297.8814	0.1574
298.0937	0.1495
298.306	0.1662
298.5182	0.1611
298.7305	0.1608
298.9428	0.1615
299.155	0.1768
299.3672	0.1615
299.5794	0.1592
299.7916	0.1669
300.0038	0.1731
300.216	0.1651
300.4282	0.1658
300.6403	0.1617
300.8525	0.1768
301.0646	0.1504
301.2767	0.1683
301.4888	0.1619
301.7009	0.1657
301.913	0.1645
302.125	0.1616
302.3371	0.1545
302.5491	0.165
302.7612	0.1737
302.9732	0.17
303.1852	0.1733
303.3972	0.1627
303.6092	0.162
303.8211	0.1527
304.0331	0.1592
304.245	0.1532
304.457	0.1558
304.6689	0.1558
304.8808	0.1727
305.0927	0.1552
305.3046	0.1491
305.5164	0.1637
305.7283	0.1533
305.9401	0.1462
306.152	0.1465
306.3638	0.1503
306.5756	0.1403
306.7874	0.1417
306.9992	0.1538
307.2109	0.142
307.4227	0.128
307.6344	0.1395
307.8462	0.1391
308.0579	0.1306
308.2696	0.1333
308.4813	0.1326
308.693	0.131
308.9046	0.1324
309.1163	0.1363
309.328	0.1275
309.5396	0.1123
309.7512	0.1128
309.9628	0.1173
310.1744	0.1245
310.386	0.1167
310.5976	0.1224
310.8091	0.1163
311.0207	0.1137
311.2322	0.1221
311.4437	0.1074
311.6552	0.1017
311.8667	0.1099
312.0782	0.0958
312.2897	0.0911
312.5012	0.1138
312.7126	0.1037
312.924	0.095
313.1355	0.1126
313.3469	0.1032
313.5583	0.1084
313.7696	0.1065
313.981	0.1058
314.1924	0.1014
314.4037	0.0963
314.6151	0.1006
314.8264	0.0872
315.0377	0.0959
315.249	0.1016
315.4603	0.1067
315.6716	0.0931
315.8828	0.08
316.0941	0.0954
316.3053	0.0826
316.5165	0.0921
316.7277	0.0869
316.9389	0.096
317.1501	0.0878
317.3613	0.0928
317.5724	0.0759
317.7836	0.0961
317.9947	0.0789
318.2058	0.0882
318.417	0.09
318.6281	0.0857
318.8391	0.0938
319.0502	0.0888
319.2613	0.0905
319.4723	0.0885
319.6834	0.0988
319.8944	0.0809
320.1054	0.1027
320.3164	0.0886
320.5274	0.0781
320.7383	0.0773
320.9493	0.0912
321.1602	0.0965
321.3712	0.0924
321.5821	0.1005
321.793	0.1007
322.0039	0.0904
322.2148	0.0867
322.4257	0.0977
322.6365	0.1018
322.8474	0.0915
323.0582	0.09
323.269	0.0914
323.4798	0.1029
323.6906	0.0976
323.9014	0.0933
324.1122	0.0979
324.3229	0.0915
324.5337	0.0987
324.7444	0.0863
324.9551	0.1047
325.1658	0.1018
325.3765	0.11
325.5872	0.1017
325.7979	0.0921
326.0085	0.0897
326.2192	0.0939
326.4298	0.1044
326.6404	0.0966
326.851	0.0888
327.0616	0.0998
327.2722	0.0945
327.4828	0.1029
327.6933	0.0833
327.9039	0.0965
328.1144	0.1109
328.3249	0.0958
328.5354	0.0814
328.7459	0.0955
328.9564	0.0894
329.1669	0.094
329.3773	0.0972
329.5878	0.0981
329.7982	0.1012
330.0086	0.106
330.219	0.1057
330.4294	0.0868
330.6398	0.0872
330.8502	0.0999
331.0605	0.1005
331.2708	0.102
331.4812	0.1088
331.6915	0.1004
331.9018	0.1061
332.1121	0.0881
332.3224	0.101
332.5326	0.0981
332.7429	0.0944
332.9531	0.109
333.1633	0.1064
333.3735	0.0954
333.5837	0.1011
333.7939	0.0998
334.0041	0.113
334.2143	0.0966
334.4244	0.1051
334.6346	0.0834
334.8447	0.1228
335.0548	0.107
335.2649	0.1053
335.475	0.1153
335.685	0.0893
335.8951	0.1111
336.1051	0.1002
336.3152	0.1163
336.5252	0.0988
336.7352	0.1034
336.9452	0.1038
337.1552	0.1095
337.3652	0.1039
337.5751	0.0994
337.7851	0.1013
337.995	0.0915
338.2049	0.0982
338.4148	0.1049
338.6247	0.1197
338.8346	0.0906
339.0445	0.099
339.2543	0.0991
339.4642	0.102
339.674	0.0997
339.8838	0.1098
340.0936	0.0972
340.3034	0.1026
340.5132	0.1185
340.7229	0.1085
340.9327	0.1044
341.1424	0.1037
341.3522	0.1186
341.5619	0.1068
341.7716	0.1172
341.9813	0.1215
342.1909	0.1096
342.4006	0.1173
342.6102	0.122
342.8199	0.1115
343.0295	0.1108
343.2391	0.1233
343.4487	0.1327
343.6583	0.105
343.8679	0.1191
344.0774	0.1186
344.287	0.1195
344.4965	0.1168
344.706	0.1212
344.9155	0.1237
345.125	0.1289
345.3345	0.1209
345.544	0.1268
345.7534	0.12
345.9629	0.1286
346.1723	0.111
346.3817	0.1232
346.5911	0.1122
346.8005	0.1304
347.0099	0.121
347.2193	0.1251
347.4286	0.1125
347.638	0.1276
347.8473	0.1286
348.0566	0.1282
348.2659	0.1365
348.4752	0.1337
348.6845	0.1277
348.8937	0.1328
349.103	0.1397
349.3122	0.1144
349.5214	0.1161
349.7306	0.1356
349.9398	0.1401
350.149	0.135
350.3582	0.1237
350.5674	0.1396
350.7765	0.1412
350.9856	0.1302
351.1948	0.1329
351.4039	0.1236
351.613	0.1343
351.822	0.1531
352.0311	0.1441
352.2402	0.1388
352.4492	0.16
352.6582	0.1421
352.8672	0.1297
353.0762	0.1471
353.2852	0.1377
353.4942	0.1263
353.7032	0.1383
353.9121	0.1482
354.1211	0.147
354.33	0.1441
354.5389	0.1422
354.7478	0.1444
354.9567	0.1418
355.1655	0.1337
355.3744	0.1449
355.5833	0.156
355.7921	0.1665
356.0009	0.145
356.2097	0.168
356.4185	0.1633
356.6273	0.1623
356.8361	0.1562
357.0448	0.1574
357.2536	0.148
357.4623	0.159
357.671	0.1597
357.8797	0.1611
358.0884	0.1581
358.2971	0.1564
358.5057	0.1457
358.7144	0.1555
358.923	0.1613
359.1316	0.1618
359.3402	0.1779
359.5488	0.1554
359.7574	0.1567
359.966	0.17
360.1746	0.1678
360.3831	0.1704
360.5916	0.1584
360.8002	0.1406
361.0087	0.1715
361.2172	0.1796
361.4256	0.1692
361.6341	0.1885
361.8426	0.1762
362.051	0.1781
362.2594	0.1789
362.4678	0.1745
362.6762	0.1979
362.8846	0.1902
363.093	0.1882
363.3014	0.1813
363.5097	0.1725
363.718	0.1866
363.9264	0.1946
364.1347	0.171
364.343	0.1914
364.5513	0.1983
364.7595	0.1935
364.9678	0.2006
365.176	0.1817
365.3842	0.1799
365.5925	0.1851
365.8007	0.1899
366.0089	0.1967
366.217	0.1814
366.4252	0.189
366.6333	0.2104
366.8415	0.2015
367.0496	0.1954
367.2577	0.2073
367.4658	0.2036
367.6739	0.2072
367.882	0.2151
368.09	0.2027
368.2981	0.2287
368.5061	0.2042
368.7141	0.208
368.9221	0.2124
369.1301	0.2162
369.3381	0.1991
369.5461	0.218
369.754	0.2033
369.962	0.2199
370.1699	0.2249
370.3778	0.2093
370.5857	0.2011
370.7936	0.2202
371.0015	0.2144
371.2093	0.2237
371.4172	0.2227
371.625	0.21
371.8328	0.2175
372.0406	0.22
372.2484	0.212
372.4562	0.2363
372.664	0.2176
372.8717	0.2269
373.0795	0.2156
373.2872	0.2321
373.4949	0.2365
373.7026	0.2183
373.9103	0.2365
374.118	0.2098
374.3256	0.2388
374.5333	0.2279
374.7409	0.2156
374.9485	0.2386
375.1561	0.2435
375.3637	0.2378
375.5713	0.2373
375.7789	0.2479
375.9864	0.2199
376.194	0.2466
376.4015	0.2422
376.609	0.2513
376.8165	0.2418
377.024	0.2312
377.2315	0.2343
377.4389	0.2587
377.6464	0.2378
377.8538	0.2478
378.0612	0.2497
378.2686	0.2458
378.476	0.267
378.6834	0.2382
378.8908	0.2526
379.0981	0.2578
379.3055	0.2397
379.5128	0.2469
379.7201	0.2454
379.9274	0.2468
380.1347	0.2512
380.342	0.275
380.5492	0.2444
380.7565	0.2586
380.9637	0.2427
381.1709	0.2516
381.3781	0.2608
381.5853	0.2501
381.7925	0.2518
381.9997	0.2622
382.2068	0.2587
382.4139	0.2667
382.6211	0.2499
382.8282	0.2594
383.0353	0.2506
383.2424	0.2524
383.4494	0.2688
383.6565	0.2608
383.8635	0.2677
384.0706	0.2818
384.2776	0.2611
384.4846	0.2477
384.6916	0.2673
384.8986	0.25
385.1055	0.27
385.3125	0.2583
385.5194	0.2509
385.7263	0.2743
385.9333	0.2491
386.1402	0.2641
386.347	0.2635
386.5539	0.2625
386.7608	0.2545
386.9676	0.2503
387.1744	0.2607
387.3813	0.2535
387.5881	0.2532
387.7948	0.2575
388.0016	0.2748
388.2084	0.248
388.4151	0.243
388.6219	0.2711
388.8286	0.2635
389.0353	0.2614
389.242	0.2635
389.4487	0.2512
389.6553	0.2486
389.862	0.2369
390.0686	0.2445
390.2753	0.263
390.4819	0.237
390.6885	0.2601
390.8951	0.2439
391.1016	0.2538
391.3082	0.2285
391.5147	0.2514
391.7213	0.249
391.9278	0.2289
392.1343	0.2516
392.3408	0.2379
392.5473	0.2419
392.7537	0.2268
392.9602	0.2313
393.1666	0.2515
393.373	0.2337
393.5794	0.2453
393.7858	0.2267
393.9922	0.2212
394.1986	0.2364
394.4049	0.2324
394.6113	0.2334
394.8176	0.2148
395.0239	0.2384
395.2302	0.2197
395.4365	0.2267
395.6428	0.2298
395.8491	0.2083
396.0553	0.2377
396.2615	0.2035
396.4678	0.2298
396.674	0.206
396.8802	0.2092
397.0863	0.2335
397.2925	0.2035
397.4987	0.2255
397.7048	0.2104
397.9109	0.2167
398.117	0.2232
398.3231	0.2036
398.5292	0.2292
398.7353	0.2313
398.9413	0.2079
399.1474	0.2295
399.3534	0.2266
399.5594	0.2097
399.7654	0.2513
399.9714	0.2153
400.1774	0.2214
400.3833	0.2081
400.5893	0.2348
400.7952	0.216
401.0011	0.2165
401.207	0.2325
401.4129	0.2098
401.6188	0.2165
401.8247	0.2292
402.0305	0.2229
402.2364	0.2168
402.4422	0.2185
402.648	0.2356
402.8538	0.2092
403.0596	0.2125
403.2654	0.2255
403.4711	0.2192
403.6768	0.2214
403.8826	0.2301
404.0883	0.2286
404.294	0.2212
404.4997	0.2138
404.7054	0.2309
404.911	0.1952
405.1167	0.2094
405.3223	0.2329
405.5279	0.2364
405.7335	0.227
405.9391	0.2231
406.1447	0.2126
406.3502	0.2201
406.5558	0.2142
406.7613	0.2223
406.9668	0.2265
407.1724	0.2015
407.3778	0.1997
407.5833	0.2169
407.7888	0.2112
407.9942	0.2281
408.1997	0.2214
408.4051	0.2085
408.6105	0.2153
408.8159	0.2119
409.0213	0.2012
409.2267	0.2342
409.432	0.2059
409.6374	0.223
409.8427	0.2091
410.048	0.2078
410.2533	0.2029
410.4586	0.2256
410.6639	0.192
410.8691	0.2145
411.0744	0.2217
411.2796	0.196
411.4848	0.2238
411.69	0.2107
411.8952	0.2277
412.1004	0.2043
412.3056	0.2253
412.5107	0.2077
412.7158	0.214
412.921	0.2184
413.1261	0.2146
413.3312	0.2065
413.5362	0.2058
413.7413	0.215
413.9464	0.2064
414.1514	0.2138
414.3564	0.2106
414.5614	0.2132
414.7664	0.2092
414.9714	0.2197
415.1764	0.1961
415.3813	0.218
415.5863	0.2073
415.7912	0.2165
415.9961	0.2222
416.201	0.2238
416.4059	0.222
416.6108	0.2046
416.8156	0.2206
417.0205	0.217
417.2253	0.2008
417.4301	0.2279
417.6349	0.198
417.8397	0.1991
418.0445	0.2185
418.2492	0.2189
418.454	0.2106
418.6587	0.2093
418.8634	0.2004
419.0681	0.192
419.2728	0.202
419.4775	0.1957
419.6822	0.1889
419.8868	0.1755
420.0915	0.2058
420.2961	0.1984
420.5007	0.177
420.7053	0.2122
420.9099	0.2109
421.1144	0.1948
421.319	0.191
421.5235	0.1982
421.728	0.1978
421.9325	0.2022
422.137	0.2177
422.3415	0.1961
422.546	0.2018
422.7504	0.1873
422.9549	0.1993
423.1593	0.1896
423.3637	0.2014
423.5681	0.1751
423.7725	0.1745
423.9769	0.1865
424.1812	0.188
424.3856	0.1736
424.5899	0.1866
424.7942	0.1806
424.9985	0.2046
425.2028	0.1617
425.4071	0.2008
425.6113	0.1748
425.8156	0.1832
426.0198	0.1769
426.224	0.1614
426.4282	0.1811
426.6324	0.1758
426.8366	0.1568
427.0407	0.1632
427.2449	0.1801
427.449	0.1673
427.6531	0.1413
427.8572	0.1724
428.0613	0.1588
428.2654	0.1759
428.4694	0.165
428.6735	0.148
428.8775	0.1731
429.0815	0.1708
429.2855	0.1548
429.4895	0.1624
429.6935	0.1632
429.8975	0.1578
430.1014	0.1561
430.3053	0.1379
430.5093	0.1609
430.7132	0.1427
430.9171	0.1439
431.1209	0.16
431.3248	0.1365
431.5286	0.147
431.7325	0.152
431.9363	0.1329
432.1401	0.1376
432.3439	0.1255
432.5477	0.1255
432.7514	0.1303
432.9552	0.1272
433.1589	0.1231
433.3627	0.1392
433.5664	0.1388
433.7701	0.1197
433.9737	0.1149
434.1774	0.1339
434.3811	0.1379
434.5847	0.131
434.7883	0.1228
434.9919	0.122
435.1955	0.105
435.3991	0.1165
435.6027	0.0992
435.8062	0.1107
436.0098	0.1046
436.2133	0.0979
436.4168	0.1065
436.6203	0.1044
436.8238	0.0957
437.0272	0.1041
437.2307	0.1079
437.4341	0.1154
437.6375	0.1041
437.841	0.0879
438.0443	0.0971
438.2477	0.0967
438.4511	0.0735
438.6545	0.0873
438.8578	0.0859
439.0611	0.0842
439.2644	0.0754
439.4677	0.0799
439.671	0.0699
439.8743	0.0798
440.0775	0.0968
440.2808	0.078
440.484	0.0633
440.6872	0.0573
440.8904	0.0709
441.0936	0.0873
441.2967	0.0567
441.4999	0.0745
441.703	0.0598
441.9062	0.0611
442.1093	0.0704
442.3124	0.0631
442.5155	0.0547
442.7185	0.0629
442.9216	0.0453
443.1246	0.0826
443.3276	0.0542
443.5307	0.0573
443.7337	0.0651
443.9366	0.0664
444.1396	0.0468
444.3426	0.0584
444.5455	0.0568
444.7484	0.0482
444.9513	0.0525
445.1542	0.0599
445.3571	0.0423
445.56	0.0484
445.7628	0.035
445.9657	0.0362
446.1685	0.0435
446.3713	0.0496
446.5741	0.0439
446.7769	0.0332
446.9797	0.0273
447.1824	0.0402
447.3852	0.0374
447.5879	0.045
447.7906	0.0428
447.9933	0.0364
448.196	0.0247
448.3986	0.0388
448.6013	0.0365
448.8039	0.0211
449.0066	0.028
449.2092	0.0373
449.4118	0.0336
449.6143	0.0325
449.8169	0.0327
450.0195	0.0301
450.222	0.008
450.4245	0.037
450.627	0.0392
450.8295	0.0267
451.032	0.0212
451.2345	0.0184
451.4369	0.0204
451.6394	0.0237
451.8418	0.0116
452.0442	0.0216
452.2466	0.0306
452.449	0.0107
452.6513	0.0206
452.8537	0.0162
453.056	0.0138
453.2583	0.0265
453.4607	0.0084
453.663	0.0111
453.8652	0.0325
454.0675	0.0005
454.2697	0.0243
454.472	0.001
454.6742	0.0118
454.8764	0.0144
455.0786	0.0104
455.2808	0.014
455.4829	0.0103
455.6851	0.0108
455.8872	0.0212
456.0893	0.015
456.2915	0.0015
456.4935	0.0189
456.6956	0.0049
456.8977	0.0157
457.0997	0.0147
457.3018	0.0018
457.5038	0.0205
457.7058	0.0105
457.9078	0.0128
458.1098	0.0097
458.3117	0.0107
458.5137	0.0177
458.7156	0.0067
458.9175	-0.0063
459.1194	0.0108
459.3213	0.0001
459.5232	-0.0038
459.725	-0.0032
459.9269	0.0064
460.1287	0.0041
460.3305	-0.0008
460.5323	0.0055
460.7341	0.0109
460.9359	0.0154
461.1376	0.013
461.3394	-0.0117
461.5411	0.0055
461.7428	-0.0058
461.9445	0.0164
462.1462	0.0054
462.3479	0.0042
462.5495	0.0057
462.7512	0.0062
462.9528	-0.0137
463.1544	-0.011
463.356	-0.0062
463.5576	0.0168
463.7592	-0.0092
463.9607	0.0014
464.1623	0.0172
464.3638	0.0216
464.5653	-0.0159
464.7668	0.0083
464.9683	0.0105
465.1697	0.0173
465.3712	-0.0119
465.5726	-0.0091
465.7741	0.0049
465.9755	-0.0007
466.1769	-0.0038
466.3782	-0.0015
466.5796	-0.0171
466.7809	0.0122
466.9823	-0.0098
467.1836	0.0006
467.3849	-0.0033
467.5862	0.0042
467.7875	-0.0018
467.9887	0.0192
468.19	-0.0008
468.3912	-0.0134
468.5924	-0.0127
468.7936	-0.0061
468.9948	-0.0081
469.196	0.0035
469.3972	-0.015
469.5983	-0.0083
469.7994	-0.0078
470.0006	-0.0035
470.2017	-0.028
470.4027	0.0038
470.6038	-0.0101
470.8049	-0.0123
471.0059	-0.004
471.2069	-0.0182
471.408	0.0095
471.6089	-0.0027
471.8099	-0.0055
472.0109	0.0056
472.2119	-0.0106
472.4128	-0.0255
472.6137	0.0062
472.8146	-0.0226
473.0155	0.0021
473.2164	-0.0094
473.4173	-0.0054
473.6181	0.0054
473.819	0.0115
474.0198	0.0018
474.2206	-0.0138
474.4214	0.0032
474.6222	-0.0103
474.8229	-0.0242
475.0237	-0.015
475.2244	-0.0141
475.4251	0.0021
475.6258	-0.0044
475.8265	-0.0055
476.0272	0.0058
476.2278	-0.0042
476.4285	0.0055
476.6291	0.0007
476.8297	-0.0142
477.0303	0.003
477.2309	-0.0041
477.4315	-0.0178
477.632	-0.0075
477.8326	-0.0087
478.0331	-0.0076
478.2336	0.0014
478.4341	-0.0024
478.6346	-0.0134
478.8351	-0.0124
479.0355	-0.0068
479.236	-0.0106
479.4364	0.0076
479.6368	0.0014
479.8372	-0.0136
480.0376	-0.0128
480.2379	-0.0223
480.4383	-0.0139
480.6386	-0.0023
480.8389	-0.0021
481.0392	-0.0054
481.2395	-0.0135
481.4398	0.0043
481.6401	-0.0072
481.8403	-0.0079
482.0405	-0.0052
482.2408	-0.0016
482.441	0.006
482.6411	0.0003
482.8413	-0.013
483.0415	0.0037
483.2416	-0.0074
483.4417	-0.0055
483.6419	-0.0109
483.8419	0.0003
484.042	0.0066
484.2421	-0.0052
484.4422	-0.0056
484.6422	0.0034
484.8422	-0.0067
485.0422	-0.0134
485.2422	0.0073
485.4422	-0.0141
485.6422	-0.011
485.8421	-0.0046
486.042	-0.0047
486.242	-0.0042
486.4419	-0.0084
486.6417	-0.0006
486.8416	-0.0057
487.0415	-0.0011
487.2413	-0.0014
487.4411	-0.0105
487.641	-0.0135
487.8408	0.0031
488.0405	-0.0036
488.2403	-0.0112
488.4401	0.0054
488.6398	0.0065
488.8395	-0.0121
489.0392	0.0065
489.2389	-0.0079
489.4386	-0.0071
489.6383	-0.0158
489.8379	-0.0005
490.0376	-0.0065
490.2372	-0.021
490.4368	-0.0072
490.6364	-0.0097
490.836	-0.0119
491.0355	-0.0069
491.2351	-0.0106
491.4346	-0.0131
491.6341	-0.013
491.8336	0.0114
492.0331	-0.0064
492.2326	-0.0198
492.432	-0.002
492.6315	-0.0065
492.8309	-0.0157
493.0303	-0.006
493.2297	-0.0131
493.4291	-0.0062
493.6284	-0.0097
493.8278	-0.0038
494.0271	0.0012
494.2264	-0.0025
494.4257	-0.0176
494.625	-0.0098
494.8243	-0.0263
495.0236	-0.0109
495.2228	-0.016
495.422	-0.0026
495.6213	-0.0001
495.8205	-0.0068
496.0196	-0.0074
496.2188	0.0002
496.418	-0.0123
496.6171	-0.0143
496.8162	-0.0165
497.0153	0.003
497.2144	-0.0197
497.4135	-0.004
497.6126	-0.0166
497.8116	-0.0015
498.0107	0.0048
498.2097	-0.0104
498.4087	-0.0053
498.6077	0.0005
498.8067	-0.0125
499.0056	-0.0014
499.2046	-0.0098
499.4035	-0.0129
499.6024	-0.0017
499.8013	-0.0037
500.0002	-0.0159
500.199	-0.011
500.3979	-0.0055
500.5967	-0.0127
500.7956	-0.0007
500.9944	-0.0081
501.1932	-0.0096
501.3919	-0.0028
501.5907	-0.0172
501.7895	-0.0156
501.9882	-0.0117
502.1869	-0.0072
502.3856	-0.0063
502.5843	-0.0083
502.783	-0.0061
502.9816	-0.0134
503.1803	-0.0083
503.3789	-0.0177
503.5775	0.0009
503.7761	-0.0088
503.9747	-0.0015
504.1732	-0.0062
504.3718	-0.0016
504.5703	-0.0117
504.7689	-0.0049
504.9674	-0.0038
505.1658	-0.009
505.3643	-0.008
505.5628	-0.0075
505.7612	-0.0116
505.9597	0.0017
506.1581	-0.0136
506.3565	0.0032
506.5549	-0.0013
506.7532	-0.0184
506.9516	0.0045
507.1499	-0.0064
507.3482	-0.0113
507.5465	-0.0181
507.7448	-0.0054
507.9431	0.0024
508.1414	-0.0039
508.3396	-0.0025
508.5379	-0.0028
508.7361	-0.0024
508.9343	-0.0013
509.1325	0.0012
509.3306	-0.0094
509.5288	0.0047
509.7269	-0.0107
509.9251	-0.011
510.1232	-0.0093
510.3213	-0.0043
510.5193	0.0029
510.7174	-0.0183
510.9154	-0.0125
511.1135	-0.0138
511.3115	-0.0078
511.5095	-0.0092
511.7075	-0.0076
511.9055	-0.0103
512.1034	-0.0134
512.3014	-0.002
512.4993	-0.0019
512.6972	-0.013
512.8951	-0.0102
513.093	0.0042
513.2908	-0.0056
513.4887	-0.0067
513.6865	-0.0156
513.8844	-0.0055
514.0822	-0.0103
514.2799	-0.0146
514.4777	-0.0038
514.6755	-0.0103
514.8732	-0.003
515.0709	-0.0005
515.2687	-0.003
515.4664	0.0022
515.664	-0.007
515.8617	-0.0034
516.0594	-0.0172
516.257	-0.0074
516.4546	-0.0126
516.6522	-0.0052
516.8498	-0.0148
517.0474	-0.0019
517.2449	-0.0002
517.4425	-0.0064
517.64	0.0002
517.8375	-0.0059
518.035	-0.0035
518.2325	-0.0117
518.43	-0.0066
518.6274	0.0015
518.8249	-0.0164
519.0223	-0.002
519.2197	-0.0033
519.4171	-0.012
519.6145	-0.0066
519.8118	0.0021
520.0092	-0.0011
520.2065	-0.0084
520.4038	-0.0071
520.6011	-0.0044
520.7984	-0.0146
520.9956	-0.004
521.1929	-0.0123
521.3901	0.0001
521.5874	-0.0003
521.7846	0.0015
521.9818	-0.0127
522.1789	-0.0129
522.3761	0.001
522.5732	-0.0086
522.7704	-0.0017
522.9675	0.0003
523.1646	-0.0133
523.3617	-0.0008
523.5587	0.0072
523.7558	-0.0021
523.9528	-0.0083
524.1498	0.0026
524.3468	-0.0061
524.5438	-0.0098
524.7408	-0.0017
524.9378	-0.0014
525.1347	-0.0042
525.3316	-0.0007
525.5285	-0.0183
525.7254	-0.0073
525.9223	-0.0079
526.1192	0.0033
526.316	-0.0106
526.5129	0.0048
526.7097	0.0007
526.9065	-0.004
527.1033	-0.0089
527.3	-0.0065
527.4968	-0.0009
527.6935	0.0115
527.8903	-0.0086
528.087	-0.0029
528.2837	-0.0127
528.4804	-0.0025
528.677	-0.0053
528.8737	0.0033
529.0703	-0.0014
529.2669	-0.0015
529.4635	-0.0031
529.6601	-0.0026
529.8567	-0.0021
530.0532	-0.0095
530.2498	0.0021
530.4463	0.0039
530.6428	-0.0082
530.8393	0.0008
531.0358	-0.004
531.2322	-0.0073
531.4287	-0.0014
531.6251	0.002
531.8215	-0.0019
532.0179	-0.0016
532.2143	0.0037
532.4107	0.0034
532.607	0.0009
532.8034	-0.0056
532.9997	-0.006
533.196	0.002
533.3923	-0.003
533.5886	-0.0021
533.7848	-0.0028
533.9811	0.0016
534.1773	0.0002
534.3735	0.0065
534.5697	-0.0048
534.7659	-0.0038
534.9621	0.0005
535.1582	-0.003
535.3544	-0.009
535.5505	-0.0144
535.7466	-0.0041
535.9427	-0.0025
536.1387	-0.0193
536.3348	-0.0035
536.5308	-0.0015
536.7269	-0.0148
536.9229	-0.0097
537.1189	-0.0005
537.3148	-0.0075
537.5108	-0.0161
537.7068	-0.0143
537.9027	-0.0021
538.0986	-0.0058
538.2945	-0.0078
538.4904	-0.0063
538.6863	-0.0172
538.8821	-0.0015
539.078	-0.0081
539.2738	-0.0052
539.4696	0.0009
539.6654	-0.001
539.8611	0.007
540.0569	-0.0026
540.2526	0.0028
540.4484	-0.0022
540.6441	0.003
540.8398	-0.0031
541.0355	0.005
541.2311	-0.0089
541.4268	-0.0107
541.6224	-0.0072
541.818	-0.0084
542.0136	-0.0138
542.2092	0.0042
542.4048	0.0086
542.6003	0.0001
542.7959	-0.0087
542.9914	0.0009
543.1869	0.0032
543.3824	-0.0058
543.5779	-0.0092
543.7734	-0.0059
543.9688	-0.0025
544.1642	0.0031
544.3596	-0.0076
544.555	-0.0051
544.7504	-0.0013
544.9458	-0.0081
545.1411	-0.0048
545.3365	-0.0041
545.5318	-0.0075
545.7271	-0.0012
545.9224	-0.0061
546.1177	0.0007
546.3129	0.0029
546.5081	-0.0122
546.7034	-0.0059
546.8986	-0.0088
547.0938	-0.0089
547.289	-0.0021
547.4841	-0.001
547.6793	0.0065
547.8744	-0.0057
548.0695	-0.0128
548.2646	-0.0129
548.4597	-0.0018
548.6548	0.001
548.8498	0.0021
549.0448	0.0001
549.2399	-0.0046
549.4349	0.0069
549.6298	0.0021
549.8248	-0.0015
550.0198	-0.0035
550.2147	-0.0082
550.4096	-0.0071
550.6045	0.0046
550.7994	0.0026
550.9943	0.0102
551.1892	0.0001
551.384	0.003
551.5788	-0.006
551.7737	0.0028
551.9685	-0.002
552.1632	0.001
552.358	0.0006
552.5528	-0.0025
552.7475	-0.0021
552.9422	0.0006
553.1369	-0.0008
553.3316	0.0001
553.5263	-0.0115
553.7209	0.0016
553.9156	-0.0051
554.1102	-0.0114
554.3048	0.0036
554.4994	0.0032
554.694	-0.0021
554.8885	0.0028
555.0831	-0.0019
555.2776	-0.0125
555.4721	0.0027
555.6666	-0.0016
555.8611	0.0119
556.0555	-0.0004
556.25	0.0035
556.4444	-0.0056
556.6388	-0.002
556.8332	0.0054
557.0276	0.0041
557.222	-0.0023
557.4163	0.0038
557.6107	-0.0109
557.805	0.0113
557.9993	-0.0006
558.1936	-0.0039
558.3879	0.0064
558.5821	0.005
558.7764	-0.0007
558.9706	-0.0024
559.1648	0.0094
559.359	-0.0111
559.5532	0.0005
559.7473	-0.0006
559.9415	0.0024
560.1356	0.0037
560.3297	-0.0151
560.5238	-0.0053
560.7179	-0.009
560.9119	0.0019
561.106	-0.0034
561.3	-0.0045
561.494	-0.0043
561.688	-0.0116
561.882	-0.009
562.076	0.0001
562.2699	0.0025
562.4639	-0.0038
562.6578	-0.0061
562.8517	-0.0005
563.0456	-0.0002
563.2395	-0.0038
563.4333	0.0005
563.6272	0.0045
563.821	-0.0064
564.0148	-0.0036
564.2086	-0.0086
564.4024	-0.0088
564.5961	-0.0008
564.7899	0.0124
564.9836	0.0008
565.1773	-0.0033
565.371	0.0002
565.5647	0.0036
565.7584	0.0055
565.952	-0.003
566.1456	-0.0019
566.3393	-0.0003
566.5329	-0.0019
566.7264	-0.0081
566.92	-0.0034
567.1136	0.0064
567.3071	-0.0073
567.5006	-0.0034
567.6941	0.0025
567.8876	0.0015
568.0811	0.0087
568.2745	-0.0054
568.468	0.0008
568.6614	0.0001
568.8548	-0.0007
569.0482	-0.006
569.2416	0.0032
569.4349	-0.0019
569.6283	-0.0019
569.8216	-0.0024
570.0149	-0.0109
570.2082	0.0033
570.4015	0.0047
570.5947	0.0081
570.788	0.0065
570.9812	0.0067
571.1744	0.0013
571.3676	-0.002
571.5608	-0.0004
571.754	0.0055
571.9471	0.0019
572.1402	0.0066
572.3333	-0.001
572.5264	-0.003
572.7195	0.0002
572.9126	0.0012
573.1057	0.0093
573.2987	0.0003
573.4917	0.0096
573.6847	-0.003
573.8777	0.0064
574.0707	0.0051
574.2636	0.0002
574.4566	-0.0037
574.6495	0.0106
574.8424	-0.0063
575.0353	-0.0044
575.2281	0.0077
575.421	0.0039
575.6138	0.0024
575.8067	0.0045
575.9995	0.0088
576.1923	0.0076
576.385	0.0009
576.5778	0.0013
576.7706	0.0023
576.9633	0.0034
577.156	0.0021
577.3487	0.0041
577.5414	-0.0004
577.734	-0.0057
577.9267	0.0043
578.1193	-0.009
578.3119	-0.0081
578.5045	0.001
578.6971	0.0046
578.8897	0.0047
579.0822	0.0009
579.2747	0.0047
579.4673	-0.0038
579.6598	-0.0052
579.8522	-0.0045
580.0447	-0.0063
580.2372	-0.0088
580.4296	-0.0004
580.622	-0.001
580.8144	0.0009
581.0068	-0.0039
581.1992	-0.0103
581.3915	-0.0056
581.5839	-0.0128
581.7762	-0.0079
581.9685	-0.003
582.1608	0.0024
582.353	-0.0028
582.5453	0.0017
582.7375	0.0018
582.9298	-0.0003
583.122	0.0017
583.3142	0.0004
583.5063	-0.0019
583.6985	-0.0013
583.8906	-0.0013
584.0827	-0.0011
584.2749	0.0014
584.4669	-0.0024
584.659	0.0024
584.8511	0.0004
585.0431	-0.0036
585.2352	0.0046
585.4272	0.0021
585.6192	0.0057
585.8111	0.0047
586.0031	-0.0004
586.195	-0.0004
586.387	0.0007
586.5789	-0.0022
586.7708	0.0001
586.9627	-0.0048
587.1545	-0.001
587.3464	0.0078
587.5382	0.0051
587.73	0.002
587.9218	0.009
588.1136	0.0014
588.3053	0.004
588.4971	-0.0039
588.6888	-0.0061
588.8805	0.0043
589.0722	0.0062
589.2639	0.0019
589.4556	-0.0001
589.6472	-0.0032
589.8389	-0.0088
590.0305	-0.0094
590.2221	-0.0011
590.4137	-0.0142
590.6052	0.0054
590.7968	0.0025
590.9883	-0.0023
591.1798	0.0005
591.3713	0.0032
591.5628	-0.0001
591.7543	0.0082
591.9458	-0.0001
592.1372	0.006
592.3286	0.0052
592.52	0.0007
592.7114	-0.0011
592.9028	-0.0009
593.0941	0.0025
593.2855	0.0032
593.4768	-0.0073
593.6681	-0.0086
593.8594	-0.0033
594.0506	-0.0048
594.2419	0.0092
594.4331	0.0004
594.6244	0.0012
594.8156	0.0025
595.0067	-0.0016
595.1979	-0.0015
595.3891	0.0058
595.5802	-0.0033
595.7713	-0.0045
595.9624	-0.0012
596.1535	0.0017
596.3446	0.0012
596.5357	0.0053
596.7267	0.0089
596.9177	0.0006
597.1087	-0.0027
597.2997	-0.0023
597.4907	0.0002
597.6817	-0.0076
597.8726	0.005
598.0635	0.0023
598.2544	-0.001
598.4453	-0.0038
598.6362	-0.0026
598.827	-0.0041
599.0179	-0.0023
599.2087	0.0062
599.3995	-0.0036
599.5903	-0.0028
599.7811	-0.0012
599.9718	0.0016
600.1626	-0.0017
600.3533	-0.0046
600.544	0.0019
600.7347	0.0058
600.9254	-0.0007
601.116	-0.0083
601.3067	0.0045
601.4973	-0.0002
601.6879	0.0037
601.8785	0.001
602.0691	0.0071
602.2596	0.0111
602.4502	0.0055
602.6407	0.0099
602.8312	0.0043
603.0217	-0.0083
603.2122	-0.0026
603.4027	0.0028
603.5931	0.0063
603.7835	0.0007
603.9739	0.0039
604.1643	0.004
604.3547	-0.0023
604.5451	0.0009
604.7354	0.0032
604.9257	0.0034
605.116	-0.0049
605.3063	0.011
605.4966	0.0035
605.6869	0.001
605.8771	0.0035
606.0673	0.004
606.2575	0.0023
606.4477	0.0072
606.6379	0.0039
606.8281	-0.0043
607.0182	-0.0034
607.2083	0.0116
607.3985	0.0014
607.5885	-0.0013
607.7786	-0.0023
607.9687	-0.0011
608.1587	0.0116
608.3488	0.003
608.5388	0.004
608.7288	-0.0023
608.9187	-0.0045
609.1087	-0.0041
609.2986	-0.0104
609.4886	0.0004
609.6785	0.0009
609.8684	0.0087
610.0582	0.0033
610.2481	-0.0027
610.4379	-0.003
610.6278	-0.0059
610.8176	-0.0027
611.0074	-0.0044
611.1971	-0.0041
611.3869	-0.0007
611.5766	-0.0092
611.7664	0.0029
611.9561	0.0004
612.1458	-0.005
612.3354	-0.0006
612.5251	0.0014
612.7147	0.0061
612.9044	0.0044
613.094	-0.0102
613.2836	-0.0012
613.4731	-0.0048
613.6627	-0.0055
613.8522	0.0034
614.0417	0.0025
614.2313	-0.0014
614.4207	0.0004
614.6102	-0.0005
614.7997	0.0017
614.9891	0.0028
615.1785	0.0015
615.3679	-0.001
615.5573	0.0108
615.7467	-0.0027
615.9361	0.0028
616.1254	-0.0076
616.3147	0.0004
616.504	0.0027
616.6933	0.003
616.8826	0.0018
617.0718	0.0061
617.2611	0.0078
617.4503	-0.0011
617.6395	-0.0033
617.8287	-0.004
618.0179	-0.0007
618.207	0.0117
618.3961	0.0015
618.5853	-0.0001
618.7744	0.0096
618.9634	0.0131
619.1525	0.0032
619.3416	0.0056
619.5306	0.0068
619.7196	-0.0004
619.9086	-0.0033
620.0976	0.008
620.2866	0.0016
620.4755	0.0072
620.6645	0.0096
620.8534	0.0037
621.0423	0.0112
621.2312	0.0095
621.42	0.0139
621.6089	0.0022
621.7977	0.0147
621.9865	-0.0031
622.1753	0.006
622.3641	-0.0061
622.5529	0.0128
622.7416	0.0062
622.9303	0.0021
623.1191	0.003
623.3078	-0.0013
623.4964	-0.0021
623.6851	-0.0088
623.8737	0.0026
624.0624	0.0026
624.251	0.0001
624.4396	-0.0056
624.6282	-0.0032
624.8167	0.0103
625.0053	0.0091
625.1938	0.0033
625.3823	-0.0049
625.5708	-0.0008
625.7593	-0.0011
625.9477	-0.0079
626.1362	-0.0012
626.3246	0.0029
626.513	0.0059
626.7014	0.0041
626.8898	0.0067
627.0781	0.0056
627.2665	-0.0049
627.4548	0.0067
627.6431	0.0028
627.8314	0.0087
628.0197	0.0125
628.2079	-0.0007
628.3962	0.0048
628.5844	0.0004
628.7726	0.0038
628.9608	0.0099
629.1489	0.0022
629.3371	0.0042
629.5252	0.0015
629.7134	0.0083
629.9015	0.0015
630.0895	0.0006
630.2776	0.0099
630.4657	0.0049
630.6537	0.0003
630.8417	0.0008
631.0297	-0.001
631.2177	0.0009
631.4057	-0.0018
631.5936	0.0009
631.7815	0.0006
631.9695	0.0037
632.1574	0.005
632.3452	0.0091
632.5331	0.0052
632.7209	-0.0029
632.9088	0.0108
633.0966	0.0157
633.2844	0.0033
633.4722	0.0095
633.6599	0.0089
633.8477	0.0072
634.0354	0.008
634.2231	0.0058
634.4108	0.0069
634.5985	0.0146
634.7861	0.0094
634.9738	-0.0006
635.1614	-0.001
635.349	0.0122
635.5366	0.003
635.7242	0.0022
635.9117	0.001
636.0993	-0.0016
636.2868	0.0019
636.4743	-0.0072
636.6618	0.0062
636.8492	-0.0019
637.0367	0.0003
637.2241	-0.0018
637.4115	-0.0079
637.5989	-0.0038
637.7863	0.0014
637.9737	-0.0028
638.161	0.0016
638.3484	-0.0069
638.5357	0.0072
638.723	-0.0023
638.9103	0.0044
639.0975	0.0052
639.2848	0.0101
639.472	-0.0002
639.6592	0.0087
639.8464	0.0028
640.0336	0.0104
640.2208	-0.0026
640.4079	0.0042
640.595	-0.0008
640.7821	0.0043
640.9692	0.0006
641.1563	0.005
641.3434	0.0009
641.5304	0.0047
641.7174	0.0047
641.9044	0.0055
642.0914	0.0036
642.2784	0.0064
642.4653	0.0098
642.6523	0.0023
642.8392	0.0072
643.0261	0.0047
643.213	-0.0026
643.3999	-0.0015
643.5867	-0.0009
643.7735	0.004
643.9604	0.0039
644.1472	0.0033
644.3339	0.0064
644.5207	0.0059
644.7075	0.0028
644.8942	0.0104
645.0809	0.0052
645.2676	0.0139
645.4543	0.0086
645.6409	0.0094
645.8276	0.0005
646.0142	0.005
646.2008	-0.0012
646.3874	-0.002
646.574	-0.0002
646.7605	0.0051
646.9471	-0.0081
647.1336	0.0099
647.3201	0.0081
647.5066	0.0014
647.6931	0.0008
647.8795	0.0084
648.0659	0.0074
648.2524	0.0079
648.4388	-0.0003
648.6252	0.004
648.8115	0.0058
648.9979	-0.0041
649.1842	0.007
649.3705	0.0101
649.5568	-0.0005
649.7431	0.0061
649.9294	-0.0042
650.1156	0.003
650.3018	-0.0003
650.488	-0.0017
650.6742	0.0076
650.8604	0.0003
651.0466	-0.0016
651.2327	-0.002
651.4188	-0.0021
651.6049	-0.0102
651.791	-0.0013
651.9771	0.0063
652.1632	0.0039
652.3492	0.0092
652.5352	0.0049
652.7212	0.0003
652.9072	0.0175
653.0932	0.0047
653.2791	0.0002
653.465	0.0032
653.651	0.001
653.8369	0.0022
654.0227	0.0035
654.2086	0.0123
654.3944	0.003
654.5803	0.0056
654.7661	-0.0053
654.9519	0.0078
655.1377	-0.002
655.3234	0.0011
655.5092	0.0002
655.6949	-0.0061
655.8806	-0.0027
656.0663	0.0018
656.2519	-0.0059
656.4376	-0.0001
656.6232	0.0028
656.8088	0.0006
656.9945	0.0023
657.18	0.0031
657.3656	0.0026
657.5511	-0.0079
657.7367	-0.0007
657.9222	0.009
658.1077	0.0052
658.2932	0.0054
658.4786	-0.0066
658.6641	-0.0013
658.8495	-0.0021
659.0349	-0.0057
659.2203	0.0045
659.4057	0.0091
659.591	0.0105
659.7764	0.0032
659.9617	0.0019
660.147	-0.003
660.3323	0.0042
660.5176	0.0091
660.7028	0.0048
660.888	0.0007
661.0733	0.0041
661.2585	-0.0109
661.4436	0.006
661.6288	-0.0021
661.8139	-0.0016
661.9991	0.0067
662.1842	0.0011
662.3693	0.0047
662.5544	-0.005
662.7394	-0.0003
662.9245	-0.0045
663.1095	0.0013
663.2945	-0.0005
663.4795	-0.0047
663.6644	0.0093
663.8494	0.0055
664.0343	0.0001
664.2193	-0.0009
664.4042	0.0011
664.589	-0.0008
664.7739	0.0056
664.9587	-0.0056
665.1436	0.0035
665.3284	0.0043
665.5132	0.0014
665.698	-0.0033
665.8827	0.0098
666.0675	0
666.2522	-0.0066
666.4369	0.0039
666.6216	0.0112
666.8063	-0.0013
666.9909	0.0081
667.1756	0.0029
667.3602	0.0043
667.5448	0.0065
667.7294	0.0117
667.9139	0.0105
668.0985	0.0152
668.283	-0.0015
668.4675	0.0062
668.652	0.008
668.8365	0.0111
669.0209	0.0126
669.2054	0.0153
669.3898	0.0077
669.5742	0.0058
669.7586	0.0134
669.943	0.0086
670.1273	0.0094
670.3117	0.0081
670.496	0.0039
670.6803	0.0116
670.8646	0.0044
671.0488	0.0006
671.2331	0.0126
671.4173	0.0059
671.6015	-0.0018
671.7857	0.01
671.9699	0.009
672.1541	0.0089
672.3382	0.0105
672.5223	0.0138
672.7064	0.0014
672.8905	0.0094
673.0746	-0.0002
673.2587	-0.0015
673.4427	-0.0018
673.6267	0.0143
673.8107	0.0101
673.9947	0.0042
674.1787	0.0105
674.3626	-0.0017
674.5465	0.0075
674.7304	0.0059
674.9143	0.0064
675.0982	0.0118
675.2821	-0.0014
675.4659	0.0081
675.6497	-0.0004
675.8335	-0.0021
676.0173	0.0002
676.2011	0.0019
676.3849	0.0049
676.5686	-0.005
676.7523	0.0049
676.936	-0.0037
677.1197	-0.0051
677.3034	-0.0074
677.487	-0.002
677.6706	0.0029
677.8542	0.0052
678.0378	0.0029
678.2214	0.0012
678.405	0.0006
678.5885	-0.0056
678.772	0.0034
678.9555	-0.0013
679.139	-0.0002
679.3225	0.0058
679.5059	0.0018
679.6894	0.0043
679.8728	-0.0012
680.0562	-0.0001
680.2395	-0.0063
680.4229	-0.0069
680.6062	0.0099
680.7896	-0.0028
680.9729	-0.0121
681.1562	-0.0047
681.3394	0.0072
681.5227	-0.006
681.7059	-0.0055
681.8891	0.001
682.0723	0.0082
682.2555	0.0082
682.4387	-0.0004
682.6218	0.0007
682.805	0.0065
682.9881	0.0036
683.1712	0.0021
683.3542	0
683.5373	0.0106
683.7203	-0.0063
683.9034	0.0037
684.0864	-0.0106
684.2694	-0.0002
684.4523	0.0007
684.6353	-0.0065
684.8182	-0.005
685.0011	-0.006
685.184	0.0067
685.3669	-0.0049
685.5498	0.0021
685.7326	0.0015
685.9154	-0.0063
686.0982	0.0031
686.281	0.0094
686.4638	0.0008
686.6465	-0.002
686.8293	-0.0072
687.012	-0.0039
687.1947	-0.0058
687.3774	0.0016
687.56	-0.0022
687.7427	0.0028
687.9253	-0.0035
688.1079	0.0031
688.2905	0.0092
688.4731	0.0015
688.6556	-0.0004
688.8382	0.0006
689.0207	0.0074
689.2032	0.0019
689.3857	0.0042
689.5681	0.0031
689.7506	-0.0058
689.933	-0.0019
690.1154	0.0013
690.2978	0.0042
690.4802	0.0058
690.6626	-0.0056
690.8449	0.0017
691.0272	0.0079
691.2095	-0.0055
691.3918	0.0043
691.5741	0.0066
691.7563	0.007
691.9386	0.0053
692.1208	-0.0043
692.303	0.0012
692.4852	0.0044
692.6673	0.0018
692.8495	0.0001
693.0316	-0.0015
693.2137	0.0078
693.3958	0.0148
693.5778	0.0029
693.7599	0.0016
693.9419	0.0028
694.1239	0.0041
694.3059	-0.0022
694.4879	0.0071
694.6699	0.0092
694.8518	0.0063
695.0337	0.0038
695.2157	0.0013
695.3975	0.0011
695.5794	0.0054
695.7613	0.0059
695.9431	0.0018
696.1249	0.0062
696.3067	0.0109
696.4885	0.006
696.6703	-0.0036
696.852	0.0127
697.0337	0.0069
697.2154	0.0071
697.3971	0.0041
697.5788	0.0021
697.7605	0.0015
697.9421	0.0061
698.1237	-0.0065
698.3053	0.0019
698.4869	0.0004
698.6685	-0.0028
698.85	0.0002
699.0315	0.0024
699.213	0.0047
699.3945	0.0042
699.576	0.0101
699.7575	0.0076
699.9389	0.0099
700.1203	-0.0002
700.3017	-0.0043
700.4831	-0.0038
700.6645	-0.0012
700.8458	0.0092
701.0271	-0.0028
701.2084	0.005
701.3897	-0.0046
701.571	0.0045
701.7523	-0.0038
701.9335	-0.0022
702.1147	-0.0012
702.2959	0.0005
702.4771	0.0027
702.6583	-0.0013
702.8394	-0.0047
703.0205	0.0065
703.2016	-0.0024
703.3827	-0.0004
703.5638	0.0076
703.7449	0.0013
703.9259	0.0042
704.1069	-0.0049
704.2879	-0.0013
704.4689	0.0025
704.6499	0.0096
704.8308	0.0072
705.0117	-0.0014
705.1927	0.003
705.3735	-0.0058
705.5544	-0.0021
705.7353	-0.0028
705.9161	-0.0025
706.0969	-0.0039
706.2777	-0.0009
706.4585	-0.0075
706.6393	0.0042
706.82	0.0045
707.0007	0.0079
707.1815	0.0116
707.3621	0.0063
707.5428	0.0044
707.7235	0.0049
707.9041	0.003
708.0847	-0.0028
708.2653	0.0057
708.4459	-0.0097
708.6265	0.0061
708.807	0.0014
708.9875	0.0013
709.168	0.0026
709.3485	-0.0029
709.529	-0.0044
709.7095	-0.0088
709.8899	0.0059
710.0703	-0.0008
710.2507	0.0076
710.4311	0.0039
710.6115	-0.0166
710.7918	-0.0104
710.9721	-0.0029
711.1524	-0.0127
711.3327	0.0015
711.513	0.0017
711.6932	0.0023
711.8735	0.0133
712.0537	0.0016
712.2339	-0.0008
712.4141	-0.0088
712.5942	0.0007
712.7744	0.0002
712.9545	-0.0074
713.1346	-0.0014
713.3147	-0.005
713.4947	0.0006
713.6748	0.0014
713.8548	-0.0008
714.0348	-0.0008
714.2148	0.001
714.3948	0.0073
714.5748	-0.004
714.7547	0.0015
714.9346	0.0053
715.1145	0.0042
715.2944	-0.0044
715.4743	0.0023
715.6541	-0.0018
715.834	0.001
716.0138	0.0003
716.1936	-0.0005
716.3733	0.0016
716.5531	0.0088
716.7328	-0.0014
716.9126	-0.0022
717.0923	0.0038
717.2719	-0.0034
717.4516	0.0012
717.6312	0.0088
717.8109	-0.0006
717.9905	-0.0007
718.1701	-0.0044
718.3496	-0.0118
718.5292	-0.0038
718.7087	-0.0114
718.8882	-0.0017
719.0677	0.0043
719.2472	-0.0048
719.4267	0.0001
719.6061	-0.0088
719.7856	0.0032
719.965	-0.001
720.1443	-0.0122
720.3237	0.008
720.5031	-0.0012
720.6824	0.0092
720.8617	0.0003
721.041	-0.002
721.2203	0.0094
721.3995	-0.0055
721.5788	-0.0005
721.758	0.0073
721.9372	0.0003
722.1164	0.0013
722.2956	0.0041
722.4747	-0.0003
722.6538	0.0046
722.8329	0.0144
723.012	0.0147
723.1911	-0.0037
723.3702	0.0023
723.5492	0.0072
723.7282	0.0014
723.9072	-0.0028
724.0862	-0.0057
724.2652	-0.0098
724.4441	-0.0039
724.623	0.0015
724.8019	-0.0029
724.9808	0.0013
725.1597	-0.0079
725.3385	0.0063
725.5174	0.0071
725.6962	-0
725.875	-0.0026
726.0538	0.003
726.2325	-0.001
726.4112	-0.0051
726.59	0.0018
726.7687	-0.0044
726.9474	0.0046
727.126	-0.0072
727.3047	-0.0054
727.4833	0.0012
727.6619	-0.0077
727.8405	-0.0101
728.0191	-0.0098
728.1976	0.0052
728.3762	0.0031
728.5547	-0.0028
728.7332	-0.0132
728.9116	0.0049
729.0901	0.0045
729.2686	-0.0045
729.447	-0.0046
729.6254	-0.0026
729.8038	-0.0021
729.9821	-0.0068
730.1605	0.004
730.3388	-0.0019
730.5171	-0.0037
730.6954	-0.0059
730.8737	0.0041
731.0519	-0.0021
731.2302	0.0059
731.4084	0.0083
731.5866	0.0043
731.7648	-0.001
731.9429	0.001
732.1211	-0.0177
732.2992	-0.003
732.4773	-0
732.6554	-0.0029
732.8335	0.0037
733.0115	0.0063
733.1896	0.0064
733.3676	-0.0042
733.5456	0.0041
733.7235	0.0073
733.9015	-0.0081
734.0794	0.0023
734.2574	-0.0095
734.4353	-0.0097
734.6131	0.0044
734.791	-0.0032
734.9689	0.0016
735.1467	0.0029
735.3245	-0.0171
735.5023	-0.0145
735.68	0.0005
735.8578	0.0007
736.0355	-0.0221
736.2132	-0.0033
736.3909	-0.0013
736.5686	-0.0083
736.7463	0.0105
736.9239	-0.0029
737.1015	-0.0012
737.2791	0.0013
737.4567	0.0103
737.6343	0.0011
737.8118	0.0028
737.9894	0.0038
738.1669	-0.0007
738.3444	-0.0037
738.5218	0.0058
738.6993	-0.0022
738.8767	0.0003
739.0541	0.0131
739.2315	-0.0023
739.4089	-0.0027
739.5863	0.0101
739.7636	-0.002
739.9409	0.0043
740.1182	0.0056
740.2955	0.0066
740.4728	0.0079
740.65	0.0012
740.8272	0.0102
741.0044	-0.0068
741.1816	0.0068
741.3588	0.0053
741.5359	-0.007
741.7131	-0.0025
741.8902	-0.0039
742.0673	-0.0031
742.2444	-0.0021
742.4214	-0.0034
742.5985	-0.005
742.7755	-0.0024
742.9525	-0.0128
743.1295	0.0041
743.3064	0.003
743.4834	0.0121
743.6603	0.0008
743.8372	-0.006
744.0141	0.0017
744.191	0.0038
744.3678	-0.0011
744.5446	0.0063
744.7215	0.0063
744.8982	-0.0038
745.075	0.0032
745.2518	0.0065
745.4285	-0.0038
745.6052	-0.0091
745.7819	-0.0069
745.9586	-0.0013
746.1353	-0.0021
746.3119	-0.0043
746.4885	-0.0147
746.6651	-0.0055
746.8417	-0.0023
747.0183	-0.0026
747.1948	-0.0059
747.3714	0.0046
747.5479	-0.0088
747.7244	-0.0042
747.9008	0.0121
748.0773	0.0044
748.2537	-0.0006
748.4301	-0.0123
748.6065	0.0028
748.7829	0.0047
748.9593	0.0056
749.1356	0.0012
749.3119	-0.0028
749.4882	-0.0036
749.6645	-0.0012
749.8408	-0.0056
750.017	-0.0072
750.1933	0.0059
750.3695	-0.0027
750.5457	0.0108
750.7218	0.0001
750.898	0.0086
751.0741	-0.0072
751.2502	-0.0047
751.4263	-0.0042
751.6024	0.0027
751.7784	-0.0044
751.9545	-0.0012
752.1305	0.0081
752.3065	-0.0112
752.4825	0.0031
752.6584	-0.0096
752.8344	-0.0195
753.0103	-0.0194
753.1862	-0.0062
753.3621	0.0016
753.5379	-0.012
753.7138	-0.0037
753.8896	-0.0039
754.0654	0.0014
754.2412	0.0053
754.417	0.0035
754.5927	-0.0171
754.7685	-0.0043
754.9442	0.0027
755.1199	0.0056
755.2956	-0.0061
755.4712	0.0054
755.6469	-0.0011
755.8225	-0.0056
755.9981	-0.0068
756.1736	-0.0021
756.3492	-0.0011
756.5248	-0.0034
756.7003	-0.0032
756.8758	0.0085
757.0513	-0.0027
757.2267	-0.0065
757.4022	0.0097
757.5776	-0.0053
757.753	-0.0008
757.9284	0.0068
758.1038	0.0021
758.2791	0.0068
758.4545	-0.0101
758.6298	-0.0081
758.8051	0.0015
758.9803	0.0044
759.1556	0.0068
759.3308	-0.0007
759.506	0.0081
759.6812	-0.0022
759.8564	0.0112
760.0316	-0.0001
760.2067	0.0159
760.3819	-0.0002
760.557	0.0081
760.732	0.0032
760.9071	-0.0044
761.0821	-0.0028
761.2572	0.0079
761.4322	0.0002
761.6072	0.0022
761.7821	-0.0076
761.9571	0.0155
762.132	0.0019
762.3069	-0.0107
762.4818	-0.0081
762.6567	-0.0056
762.8316	-0.0111
763.0064	0.0007
763.1812	-0.0058
763.356	-0.0151
763.5308	-0.0069
763.7055	0.0042
763.8803	-0.0002
764.055	-0.0034
764.2297	0.0038
764.4044	-0.0106
764.579	-0.0084
764.7537	-0.012
764.9283	0.0057
765.1029	-0.0049
765.2775	-0.0027
765.4521	-0.0044
765.6266	-0.0069
765.8011	-0.0056
765.9756	-0.0003
766.1501	0.0047
766.3246	-0.004
766.4991	-0.0016
766.6735	-0.0021
766.8479	-0.009
767.0223	0.0034
767.1967	-0.0117
767.371	0.0009
767.5454	-0.0071
767.7197	0.0009
767.894	-0.0081
768.0683	-0.0092
768.2425	0.0018
768.4168	0.0017
768.591	-0.005
768.7652	0.0045
768.9394	-0.0041
769.1135	0.0057
769.2877	0.0006
769.4618	-0.0072
769.6359	-0.0057
769.81	-0.0017
769.984	-0.0026
770.1581	-0.0034
770.3321	-0.0072
770.5061	-0.0148
770.6801	-0.0153
770.8541	-0.0061
771.028	0.0033
771.202	-0.0062
771.3759	0.0086
771.5498	-0.0084
771.7236	0.0024
771.8975	-0.0017
772.0713	0.0098
772.2451	-0.0001
772.4189	0.0065
772.5927	0.0183
772.7665	0.0044
772.9402	0.0123
773.1139	0.0059
773.2876	-0.0139
773.4613	0.0069
773.635	0.007
773.8086	-0.0136
773.9822	-0.0049
774.1558	-0.0063
774.3294	-0.0134
774.503	-0.0064
774.6765	-0.0056
774.8501	-0.013
775.0236	0.0036
775.1971	0.0025
775.3705	-0.0038
775.544	0.0224
775.7174	-0.0046
775.8908	-0.004
776.0642	0.0007
776.2376	0.0027
776.4109	-0.0019
776.5843	0.002
776.7576	0.0104
776.9309	0.012
777.1041	0.0142
777.2774	0.0095
777.4506	-0.0013
777.6238	-0.0125
777.797	0.007
777.9702	0.0097
778.1434	0.0067
778.3165	-0.0084
778.4896	0.0039
778.6627	0.0059
778.8358	0.0039
779.0089	0.0056
779.1819	-0.0034
779.3549	0.0161
779.5279	0.0152
779.7009	0.0077
779.8739	-0.0003
780.0468	0.0038
780.2197	0.0185
780.3926	-0.0123
780.5655	0.0014
780.7384	0.0025
780.9112	0.0031
781.0841	-0.0002
781.2569	0.0002
781.4297	0.0038
781.6024	0.0064
781.7752	0.0019
781.9479	0.0105
782.1206	0.0016
782.2933	-0.0011
782.466	0.0074
782.6386	0.0054
782.8113	0.0076
782.9839	0.0059
783.1565	0.0173
783.329	-0.0008
783.5016	0.0033
783.6741	0.0111
783.8466	0.0029
784.0191	0.0196
784.1916	0.0042
784.3641	0.007
784.5365	0.0024
784.7089	0.0033
784.8813	-0.0027
785.0537	0.02
785.2261	-0.0021
785.3984	-0.0094
785.5707	-0.001
785.743	0.0084
785.9153	-0.0027
786.0876	0.005
786.2598	0.0011
786.432	0.0044
786.6042	0.0183
786.7764	-0.0005
786.9486	0.0035
787.1207	-0.0041
787.2928	0.0045
787.4649	0.005
787.637	0.0148
787.8091	-0.0044
787.9811	0.0066
788.1532	0.0007
788.3252	0.0032
788.4972	0.0015
788.6691	-0.0038
788.8411	-0.0034
789.013	-0.0052
789.1849	-0.0064
789.3568	-0.0006
789.5287	-0.008
789.7005	0.0052
789.8723	-0.0082
790.0442	0.0103
790.2159	-0.0014
790.3877	0.0015
790.5595	-0.0155
790.7312	-0.0121
790.9029	-0.0048
791.0746	-0.0043
791.2463	0.0129
791.4179	0.0067
791.5896	-0.0086
791.7612	0.0064
791.9328	0.0082
792.1044	-0.0021
792.2759	-0.0063
792.4474	-0.0056
792.619	-0.0034
792.7905	-0.0008
792.9619	-0.0013
793.1334	0.0139
793.3048	0.0093
793.4762	0.0027
793.6476	0.0021
793.819	-0.0135
793.9904	0.0118
794.1617	-0.0064
794.333	-0.0114
794.5043	-0.0175
794.6756	-0.0058
794.8469	-0.0118
795.0181	-0.0049
795.1893	-0.001
795.3605	0.0021
795.5317	-0.0074
795.7029	-0.0065
795.874	-0.0078
796.0452	-0.0083
796.2163	-0.0263
796.3873	-0.0068
796.5584	-0.007
796.7294	-0.013
796.9005	0.0188
797.0715	-0.0013
797.2425	-0.0243
797.4134	-0.0106
797.5844	0.0131
797.7553	-0.0199
797.9262	-0.0075
798.0971	-0.0132
798.2679	-0.0246
798.4388	-0.0262
798.6096	-0.0044
798.7804	-0.0027
798.9512	-0.0028
799.122	-0.0033
799.2927	0.0051
799.4635	0.0023
799.6342	-0.0201
799.8049	-0.0125
799.9755	-0.002
800.1462	-0.0107
800.3168	0.0036
800.4874	-0.0081
800.658	0.0124
800.8286	0.0102
800.9991	0.0085
801.1696	-0.0008
801.3402	0.0124
801.5106	0.0144
801.6811	-0.0002
801.8516	0.0117
802.022	0.0004
802.1924	-0.0091
802.3628	0.002
802.5332	0.0132
802.7035	0.009
802.8739	-0.016
803.0442	-0.0111
803.2145	0.0136
803.3847	-0.0117
803.555	0.001
803.7252	-0.0109
803.8954	-0.0315
804.0656	-0.0104
804.2358	0.0081
804.4059	0.0306
804.5761	0.0139
804.7462	0.0006
804.9163	-0.0059
805.0864	-0.0243
805.2564	-0.003
805.4264	0.0044
805.5965	-0.008
805.7665	-0.002
805.9364	0.002
806.1064	0.0244
806.2763	0.0032
806.4462	0.0239
806.6161	0.003
806.786	0.013
806.9559	-0.007
807.1257	-0.0024
807.2955	-0.0005
807.4653	0.0138
807.6351	-0.0136
807.8048	0.0068
807.9746	0.0109
808.1443	-0.0044
808.314	-0.0029
808.4837	-0.0003
808.6533	0.004
808.8229	0.0194
808.9926	0.0052
809.1622	0.0067
809.3317	-0.0184
809.5013	-0.0174
809.6708	0.0184
809.8403	-0.0067
810.0098	-0.0059
810.1793	-0.0113
810.3488	0.0161
810.5182	-0.0112
810.6876	-0.0063
810.857	-0.0166
811.0264	0.0237
811.1958	0.002
811.3651	0.006
811.5344	0.0194
811.7037	-0.0183
811.873	-0.0092
812.0422	-0.0037
812.2115	-0.0022
812.3807	-0.0066
812.5499	0.0002
812.7191	0.0172
812.8882	-0.0068
813.0574	-0.0025
813.2265	0.009
813.3956	0.0013
813.5646	-0.019
813.7337	-0.029
813.9027	-0.0076
814.0718	-0.0024
814.2407	0.0133
814.4097	-0.0108
814.5787	-0.0253
814.7476	-0.0001
814.9165	-0.0154
815.0854	-0.0039
815.2543	-0.0083
815.4232	-0.0067
815.592	0.0194
815.7608	0.008
815.9296	-0.0042
816.0984	0.016
816.2671	-0.01
816.4359	0.0005
816.6046	0.0037
816.7733	0.0045
816.942	0.0009
817.1106	-0.0019
817.2793	0.0031
817.4479	0.0052
817.6165	-0.0007
817.785	-0.0088
817.9536	-0.0101
818.1221	-0.0033
818.2906	-0.001
818.4591	-0.013
818.6276	-0.0088
818.7961	-0.0024
818.9645	0.0127
819.1329	-0.0004
819.3013	0.0102
819.4697	0.0265
819.638	-0.0205
819.8064	-0.0098
819.9747	-0.0244
820.143	-0.0336
820.3113	-0.0182
820.4795	0.0105
820.6477	-0.0076
820.816	-0.008
820.9842	-0.0008
821.1523	-0.0076
821.3205	-0.0371
821.4886	-0.0223
821.6567	0.0017
821.8248	0.0072
821.9929	0.0218
822.1609	-0.0046
822.329	0.0246
822.497	0.0059
822.665	-0.0052
822.833	-0.0212
823.0009	-0.0008
823.1688	-0.017
823.3367	0.0272
823.5046	0.0211
823.6725	0.0399
823.8404	-0.0197
824.0082	0.0011
824.176	-0.0075
824.3438	0.0153
824.5116	-0.0226
824.6793	-0.0013
824.847	-0.0147
825.0147	-0.0106
825.1824	0.0218
825.3501	0.0156
825.5177	-0.0128
825.6854	-0.0086
825.853	0.0007
826.0206	-0.017
826.1881	-0.0153
826.3557	-0.0104
826.5232	-0.0053
826.6907	-0.0445
826.8582	-0.0001
827.0257	-0.0101
827.1931	-0.0077
827.3605	-0.0208
827.528	0.0098
827.6953	-0.0091
827.8627	-0.0084
828.03	0.0041
828.1974	-0.0331
828.3647	-0.0334
828.532	-0.0016
828.6992	-0.0006
828.8665	0.0154
829.0337	-0.016
829.2009	-0.0036
829.3681	-0.0166
829.5352	0.0084
829.7024	-0.0541
829.8695	-0.032
830.0366	0.0168
830.2037	-0.0239
830.3707	-0.0274
830.5378	-0.0028
830.7048	0.0193
830.8718	-0.0151
831.0388	-0.0279
831.2057	0.0085
831.3727	0.0322
831.5396	-0.018
831.7065	-0.0159
831.8734	-0.0139
832.0402	-0.041
832.2071	0.0159
832.3739	-0.023
832.5407	-0.0084
832.7075	-0.0161
832.8742	-0.0292
833.041	-0.048
833.2077	0.0029
833.3744	-0.0019
833.541	-0.0242
833.7077	-0.0014
833.8743	-0.0156
834.0409	0.0041
834.2075	-0.0218
834.3741	-0.0111
834.5407	0.0154
834.7072	-0.0413
834.8737	-0.0394
835.0402	0.0198
835.2067	0.0465
835.3731	0.0392
835.5395	-0.0046
835.706	-0.0047
835.8723	-0.0354
836.0387	0.0039
836.2051	-0.0543
836.3714	-0.0375
836.5377	-0.0009
836.704	-0.0338
836.8703	0.006
837.0365	-0.0153
837.2027	-0.0062
837.3689	0.0218
837.5351	0.0135
837.7013	-0.0353
837.8674	-0.0403
838.0335	-0.0178
838.1997	-0.0285
838.3657	-0.0389
838.5318	-0.0166
838.6978	-0.0059
838.8639	0.0585
839.0299	-0.0121
839.1958	0.0037
839.3618	0.0093
839.5277	-0.0387
839.6937	-0.0227
839.8596	-0.0274
840.0254	0.0192
840.1913	-0.0243
840.3571	-0.0011
840.523	-0.0579
840.6888	-0.0556
840.8545	-0.0561
841.0203	-0.0114
841.186	-0.007
841.3517	-0.0073
841.5174	-0.0198
841.6831	0.0112
841.8488	0.007
842.0144	-0.0084
842.18	-0.0218
842.3456	-0.0266
842.5112	-0.0013
842.6767	0.0017
842.8422	-0.0024
843.0077	-0.0044
843.1732	-0.0589
843.3387	-0.0245
843.5042	-0.054
843.6696	-0.0427
843.835	-0.0056
844.0004	0.0748
844.1657	0.0288
844.3311	-0.0848
844.4964	-0.0748
844.6617	-0.0487
844.827	-0.0294
844.9923	-0.0322
845.1575	0.0081
845.3227	0.0009
845.4879	-0.0521
845.6531	-0.0661
845.8183	-0.1094
845.9834	0.0098
846.1485	-0.0163
846.3136	-0.0661
846.4787	-0.1217
846.6438	0.0293
846.8088	0.0139
846.9738	-0.1266
847.1388	-0.0329
847.3038	-0.057
847.4687	-0.1496
847.6337	-0.0143
847.7986	-0.003
847.9635	-0.0683
848.1284	0.0337
848.2932	0.0538
848.458	-0.0562
848.6228	0.0224
848.7876	0.0378
848.9524	-0.0673
849.1172	-0.0515
849.2819	0.0124
849.4466	-0.0916
849.6113	-0.1526
849.7759	-0.0332
849.9406	0.0013
850.1052	0.0087
850.2698	-0.0538
850.4344	-0.0005
850.599	-0.0237
850.7635	0.0988
850.928	-0.0326
851.0925	-0.0511
851.257	0.0482
851.4215	-0.0555
851.5859	0.0432
851.7503	0.0551
851.9147	-0.0673
852.0791	-0.1382
852.2434	-0.0208
852.4078	0.0199
852.5721	0.0262
852.7364	-0.1175
852.9007	-0.1509
853.0649	-0.0398
853.2291	-0.0153
853.3934	-0.0381
853.5575	-0.0572
853.7217	-0.0856
853.8859	-0.2759
854.05	-0.0734
854.2141	0.0317
854.3782	-0.0063
854.5423	-0.0379
854.7063	0.1342
854.8703	-0.0764
855.0343	-0.1159
855.1983	-0.1788
855.3623	0.1044
855.5262	0.0642
855.6901	-0.0424
855.854	0.0206
856.0179	0.0292
856.1818	0.0719
856.3456	-0.0809
856.5094	-0.1744
856.6732	-0.0959
856.837	-0.1753
857.0008	0.005
857.1645	-0.098
857.3282	-0.0672
857.4919	0.2076
857.6556	-0.0131
857.8192	0.0368
857.9828	-0.0853
858.1465	0.0069
858.31	-0.2427
858.4736	0.0662
858.6372	-0.1641
858.8007	-0.1931
858.9642	-0.0101
859.1277	-0.1527
859.2911	-0.049
859.4546	0.0288
859.618	-0.4945
859.7814	-0.0454
859.9448	-0.0303
860.1081	-0.1244
860.2715	0.2222
860.4348	0.4327
860.5981	-0.0105
860.7614	0.2603
860.9246	-0.092
861.0879	-0.234
861.2511	-0.0528
861.4143	-0.2206
861.5774	-0.0897
861.7406	-0.1242
861.9037	0.032
862.0668	-0.179
862.2299	-0.1622
862.393	-0.4703
862.556	-0.1716
862.7191	-0.3714
862.8821	-0.2073
863.0451	0.0269
863.208	0.0074
863.371	-0.0895
863.5339	-0.3015
863.6968	0.0976
863.8597	-0.3396
864.0225	-0.1153
864.1854	0.0161
864.3482	-0.1612
864.511	0.0449
864.6737	-0.116
864.8365	-0.0443
864.9992	-0.0305
865.1619	-0.509
865.3246	0.1914
865.4873	-0.0478
865.65	-0.1978
865.8126	-0.0871
865.9752	-0.139
866.1378	-0.2082
866.3004	-0
866.4629	0.4288
866.6254	-0.4292
866.7879	0.2671
866.9504	0.3095
867.1129	-0
867.2753	-0.0221
867.4377	0.2168
867.6001	0.0122
867.7625	0.2443
867.9249	-0.7546
868.0872	-0.0735
868.2495	0.1307
868.4118	-0.0474
868.5741	-0.3684
868.7363	-0.3441
868.8986	-0.3252
869.0608	-0.1402
869.223	0.3558
869.3851	-0
869.5473	-0
869.7094	0.2977
869.8715	-0.412
870.0336	-0
870.1957	-0.5885
870.3577	-0.6166
870.5197	0.3498
870.6817	0.1104
870.8437	-0.252
871.0057	-0
871.1676	-0.0868
871.3295	-0.1102
871.4914	-0.0626
871.6533	-0.215
871.8151	-0.6688
871.977	1.0517
872.1388	-0
872.3006	-0
872.4623	0.2181
872.6241	0.024
872.7858	0.9738
872.9475	-0.0859
873.1092	0.1242
873.2709	0.3574
873.4325	-0.1298
873.5941	-0.6715
873.7557	0.1743
873.9173	-0
874.0789	-0
874.2404	1.2355
874.4019	-0
874.5634	-0.2821
874.7249	0.0565
874.8863	-0.0921
875.0478	0.5354
875.2092	-0
875.3706	0.1211
875.5319	-0.9979
875.6933	-0
875.8546	-0.2282
876.0159	0.6362
876.1772	-0
876.3385	-0
876.4997	0.1763
876.6609	-0.5552
876.8221	-0.0982
876.9833	1.3547
877.1445	-0
877.3056	-0.0517
877.4667	-0.5606
877.6278	-0
877.7889	-0.303
877.9499	-0
878.111	-0.6563
878.272	-0
878.433	-0
878.5939	0.8278
878.7549	0.5844
878.9158	-0.8934
879.0767	-0
879.2376	-0
879.3984	-0
879.5593	-0
879.7201	-0.1528
879.8809	-0.7205
880.0417	-0.6849
880.2024	0.0926
880.3632	0.1845
880.5239	0.0885
880.6846	-0
880.8452	-2.4158
881.0059	-1.243
881.1665	1.1421
881.3271	-0
881.4877	-0.281
881.6483	-0.1457
881.8088	-0.5632
881.9693	-0
882.1298	-0
882.2903	-0
