Data from MonoPyChalIsomerACN10uM410nmA_Absorbance_14-53-27-773.txt Node
Date: Fri Jul 05 14:53:27 BST 2024
User: LASERRRRR
Spectrometer: FLMT03099
Trigger mode: 0
Integration Time (sec): 1.000000E-1
Scans to average: 1
Electric dark correction enabled: true
Nonlinearity correction enabled: false
Boxcar width: 0
XAxis mode: Wavelengths
Number of Pixels in Spectrum: 3648
>>>>>Begin Spectral Data<<<<<
179.3399	-0.416
179.5586	-0.416
179.7771	-0.416
179.9957	-0
180.2143	-0
180.4329	-0.4422
180.6514	-0
180.8699	-0
181.0885	-0.1912
181.307	0.3213
181.5255	-0
181.744	0.1978
181.9625	-0
182.181	-0.7669
182.3994	0.1105
182.6179	-0
182.8363	0.5151
183.0547	-0.0623
183.2732	0.1911
183.4916	0.4277
183.71	-0.08
183.9284	0.02
184.1467	0.121
184.3651	-0.0387
184.5835	-0.0491
184.8018	0.0264
185.0201	-0.0306
185.2385	-0.1477
185.4568	0.0472
185.6751	0.3894
185.8934	0.3155
186.1117	-0.041
186.3299	0.0244
186.5482	0.0206
186.7664	-0.1758
186.9847	-0.0113
187.2029	0.0464
187.4211	-0.082
187.6393	0.0594
187.8575	0.1682
188.0757	0.0571
188.2939	0.162
188.512	0.5119
188.7302	0.2401
188.9483	-0.2259
189.1665	0.0433
189.3846	-0.2197
189.6027	0.297
189.8208	0.0523
190.0389	0.1456
190.257	0.1577
190.475	-0.024
190.6931	0.1848
190.9111	0.4156
191.1292	0.2322
191.3472	0.3147
191.5652	0.415
191.7832	0.36
192.0012	0.576
192.2192	0.2208
192.4371	0.4473
192.6551	0.4612
192.873	0.3813
193.091	0.6605
193.3089	0.3958
193.5268	0.3629
193.7447	0.5702
193.9626	0.4414
194.1805	0.6435
194.3984	0.6311
194.6162	0.7269
194.8341	0.5355
195.0519	0.4309
195.2697	0.9794
195.4875	0.5304
195.7054	0.6852
195.9231	0.5283
196.1409	0.4987
196.3587	0.4315
196.5765	0.5426
196.7942	0.9955
197.012	0.5412
197.2297	0.692
197.4474	0.506
197.6651	0.439
197.8828	0.5949
198.1005	0.6326
198.3182	0.5669
198.5358	0.6032
198.7535	0.5767
198.9711	0.5409
199.1888	0.6245
199.4064	0.8006
199.624	0.8112
199.8416	0.4837
200.0592	0.627
200.2767	0.624
200.4943	0.7848
200.7119	0.677
200.9294	0.5665
201.1469	0.5565
201.3645	0.5557
201.582	0.4952
201.7995	0.6653
202.017	0.6036
202.2344	0.6122
202.4519	0.727
202.6694	0.5252
202.8868	0.6045
203.1042	0.6236
203.3217	0.6927
203.5391	0.6685
203.7565	0.5547
203.9739	0.6419
204.1913	0.5183
204.4086	0.6442
204.626	0.6199
204.8433	0.6535
205.0607	0.5939
205.278	0.5854
205.4953	0.5859
205.7126	0.6115
205.9299	0.7225
206.1472	0.6554
206.3644	0.6877
206.5817	0.6554
206.7989	0.7102
207.0162	0.6283
207.2334	0.6367
207.4506	0.617
207.6678	0.6279
207.885	0.6633
208.1022	0.6451
208.3194	0.6086
208.5365	0.644
208.7537	0.6858
208.9708	0.586
209.1879	0.7279
209.405	0.721
209.6222	0.6267
209.8392	0.6522
210.0563	0.5651
210.2734	0.6186
210.4905	0.6065
210.7075	0.5633
210.9245	0.6001
211.1416	0.7716
211.3586	0.6274
211.5756	0.6097
211.7926	0.6237
212.0096	0.5733
212.2265	0.5896
212.4435	0.5952
212.6604	0.5943
212.8774	0.6323
213.0943	0.5938
213.3112	0.5213
213.5281	0.5429
213.745	0.4878
213.9619	0.4999
214.1788	0.4646
214.3956	0.4527
214.6125	0.4774
214.8293	0.4608
215.0461	0.4466
215.2629	0.4547
215.4798	0.493
215.6965	0.437
215.9133	0.4177
216.1301	0.4244
216.3469	0.4408
216.5636	0.4026
216.7803	0.4174
216.9971	0.3996
217.2138	0.3562
217.4305	0.3524
217.6472	0.3353
217.8639	0.3657
218.0805	0.3307
218.2972	0.3056
218.5138	0.3117
218.7305	0.3059
218.9471	0.2967
219.1637	0.2973
219.3803	0.2727
219.5969	0.2748
219.8135	0.2788
220.0301	0.2791
220.2466	0.2594
220.4632	0.2527
220.6797	0.2257
220.8962	0.2282
221.1127	0.2643
221.3292	0.233
221.5457	0.242
221.7622	0.2166
221.9787	0.2389
222.1951	0.2384
222.4116	0.2464
222.628	0.2458
222.8444	0.2494
223.0608	0.2642
223.2772	0.2539
223.4936	0.2474
223.71	0.2269
223.9264	0.2603
224.1427	0.2534
224.3591	0.2348
224.5754	0.261
224.7917	0.2492
225.008	0.2519
225.2243	0.2537
225.4406	0.2828
225.6569	0.2436
225.8732	0.2496
226.0894	0.2586
226.3057	0.2767
226.5219	0.2768
226.7381	0.2596
226.9543	0.2728
227.1705	0.2697
227.3867	0.2666
227.6029	0.2805
227.8191	0.2821
228.0352	0.2824
228.2513	0.2918
228.4675	0.3262
228.6836	0.3107
228.8997	0.2923
229.1158	0.3177
229.3319	0.295
229.548	0.3177
229.764	0.3243
229.9801	0.3099
230.1961	0.3156
230.4121	0.3184
230.6282	0.3219
230.8442	0.3198
231.0602	0.3442
231.2761	0.3578
231.4921	0.3246
231.7081	0.3406
231.924	0.3344
232.14	0.3692
232.3559	0.3339
232.5718	0.3406
232.7877	0.3545
233.0036	0.3417
233.2195	0.3598
233.4353	0.3432
233.6512	0.3521
233.867	0.3398
234.0829	0.3563
234.2987	0.3487
234.5145	0.3577
234.7303	0.35
234.9461	0.3882
235.1619	0.3789
235.3776	0.3696
235.5934	0.3798
235.8091	0.3771
236.0249	0.3767
236.2406	0.3794
236.4563	0.377
236.672	0.3939
236.8877	0.39
237.1034	0.3873
237.319	0.3884
237.5347	0.3915
237.7503	0.3904
237.966	0.4078
238.1816	0.4149
238.3972	0.3952
238.6128	0.3753
238.8284	0.4112
239.0439	0.3876
239.2595	0.3873
239.475	0.425
239.6906	0.4108
239.9061	0.4216
240.1216	0.4105
240.3371	0.4083
240.5526	0.3842
240.7681	0.4079
240.9836	0.3947
241.199	0.4058
241.4145	0.3818
241.6299	0.3649
241.8453	0.3967
242.0607	0.3684
242.2761	0.3424
242.4915	0.3674
242.7069	0.3656
242.9223	0.3433
243.1376	0.3542
243.353	0.3606
243.5683	0.353
243.7836	0.3272
243.9989	0.3378
244.2142	0.3242
244.4295	0.3326
244.6448	0.3071
244.86	0.3031
245.0753	0.3127
245.2905	0.3022
245.5057	0.2895
245.721	0.2763
245.9362	0.2739
246.1514	0.2786
246.3665	0.2648
246.5817	0.2505
246.7969	0.2546
247.012	0.2563
247.2271	0.2329
247.4423	0.2461
247.6574	0.2453
247.8725	0.24
248.0876	0.2346
248.3026	0.2245
248.5177	0.226
248.7328	0.2134
248.9478	0.2089
249.1628	0.2226
249.3779	0.2304
249.5929	0.207
249.8079	0.2268
250.0228	0.2177
250.2378	0.2039
250.4528	0.2224
250.6677	0.1911
250.8827	0.1866
251.0976	0.1981
251.3125	0.1855
251.5274	0.1754
251.7423	0.1821
251.9572	0.1899
252.172	0.1857
252.3869	0.2021
252.6017	0.1844
252.8166	0.1702
253.0314	0.1667
253.2462	0.1703
253.461	0.1888
253.6758	0.1681
253.8906	0.18
254.1053	0.1789
254.3201	0.1684
254.5348	0.1796
254.7496	0.1757
254.9643	0.1598
255.179	0.1703
255.3937	0.1544
255.6083	0.1623
255.823	0.1821
256.0377	0.158
256.2523	0.1719
256.467	0.1475
256.6816	0.1759
256.8962	0.1656
257.1108	0.1571
257.3254	0.1718
257.54	0.1675
257.7545	0.1622
257.9691	0.1656
258.1836	0.1664
258.3981	0.1791
258.6127	0.1676
258.8272	0.1589
259.0417	0.1602
259.2561	0.1579
259.4706	0.1731
259.6851	0.16
259.8995	0.1627
260.114	0.1599
260.3284	0.1687
260.5428	0.157
260.7572	0.1696
260.9716	0.1666
261.186	0.1479
261.4003	0.1612
261.6147	0.1597
261.829	0.1622
262.0433	0.158
262.2577	0.1623
262.472	0.1681
262.6863	0.1673
262.9005	0.1596
263.1148	0.1633
263.3291	0.149
263.5433	0.1601
263.7576	0.1622
263.9718	0.1598
264.186	0.1544
264.4002	0.1642
264.6144	0.1512
264.8286	0.1689
265.0427	0.1532
265.2569	0.1737
265.471	0.154
265.6851	0.1493
265.8993	0.1562
266.1134	0.1584
266.3275	0.1681
266.5415	0.1553
266.7556	0.1664
266.9697	0.1645
267.1837	0.1666
267.3978	0.1627
267.6118	0.1635
267.8258	0.1813
268.0398	0.1414
268.2538	0.1603
268.4677	0.1623
268.6817	0.1626
268.8957	0.1599
269.1096	0.1696
269.3235	0.1742
269.5374	0.157
269.7514	0.1478
269.9652	0.1506
270.1791	0.1509
270.393	0.1503
270.6068	0.1501
270.8207	0.1483
271.0345	0.1625
271.2483	0.1615
271.4622	0.1367
271.676	0.1534
271.8897	0.1399
272.1035	0.1394
272.3173	0.1473
272.531	0.1512
272.7448	0.1342
272.9585	0.1434
273.1722	0.1558
273.3859	0.157
273.5996	0.148
273.8133	0.1536
274.0269	0.1377
274.2406	0.1426
274.4542	0.1593
274.6679	0.135
274.8815	0.1472
275.0951	0.1464
275.3087	0.1589
275.5223	0.1587
275.7358	0.1619
275.9494	0.1564
276.1629	0.1429
276.3765	0.1545
276.59	0.1476
276.8035	0.1614
277.017	0.1473
277.2305	0.1504
277.444	0.1594
277.6574	0.1415
277.8709	0.1572
278.0843	0.1478
278.2978	0.1524
278.5112	0.1458
278.7246	0.1545
278.938	0.1502
279.1513	0.1641
279.3647	0.1676
279.5781	0.1528
279.7914	0.1609
280.0047	0.1588
280.2181	0.1586
280.4314	0.1621
280.6447	0.1609
280.8579	0.1532
281.0712	0.1606
281.2845	0.1475
281.4977	0.1716
281.711	0.1402
281.9242	0.1557
282.1374	0.1551
282.3506	0.1531
282.5638	0.1593
282.7769	0.1625
282.9901	0.1603
283.2033	0.1703
283.4164	0.1794
283.6295	0.1556
283.8426	0.1571
284.0557	0.1655
284.2688	0.1715
284.4819	0.1606
284.695	0.1601
284.908	0.154
285.1211	0.1522
285.3341	0.1622
285.5471	0.1621
285.7601	0.1592
285.9731	0.1635
286.1861	0.1532
286.3991	0.1795
286.612	0.1609
286.825	0.1572
287.0379	0.1582
287.2508	0.1563
287.4637	0.1622
287.6766	0.1467
287.8895	0.1657
288.1024	0.1803
288.3152	0.1594
288.5281	0.1492
288.7409	0.1561
288.9538	0.1583
289.1666	0.159
289.3794	0.1494
289.5922	0.16
289.8049	0.1602
290.0177	0.1525
290.2304	0.1543
290.4432	0.1622
290.6559	0.1647
290.8686	0.1695
291.0813	0.1572
291.294	0.1574
291.5067	0.1665
291.7194	0.158
291.932	0.1747
292.1447	0.161
292.3573	0.1471
292.5699	0.1556
292.7825	0.1681
292.9951	0.15
293.2077	0.1518
293.4203	0.1502
293.6328	0.1501
293.8454	0.1578
294.0579	0.1588
294.2704	0.1568
294.4829	0.1547
294.6954	0.1576
294.9079	0.1583
295.1204	0.1488
295.3328	0.1512
295.5453	0.1511
295.7577	0.1647
295.9701	0.1469
296.1825	0.1566
296.3949	0.1551
296.6073	0.1609
296.8197	0.1517
297.0321	0.1613
297.2444	0.144
297.4567	0.1574
297.6691	0.1558
297.8814	0.1479
298.0937	0.1475
298.306	0.1626
298.5182	0.1487
298.7305	0.1535
298.9428	0.1519
299.155	0.1662
299.3672	0.1481
299.5794	0.1482
299.7916	0.1598
300.0038	0.1577
300.216	0.1606
300.4282	0.1495
300.6403	0.1495
300.8525	0.1678
301.0646	0.1495
301.2767	0.1518
301.4888	0.1511
301.7009	0.1557
301.913	0.1533
302.125	0.1531
302.3371	0.1544
302.5491	0.1434
302.7612	0.1511
302.9732	0.1524
303.1852	0.1644
303.3972	0.1557
303.6092	0.1489
303.8211	0.146
304.0331	0.1461
304.245	0.1453
304.457	0.1386
304.6689	0.1508
304.8808	0.1654
305.0927	0.1491
305.3046	0.1506
305.5164	0.1382
305.7283	0.1365
305.9401	0.1384
306.152	0.1407
306.3638	0.1492
306.5756	0.1427
306.7874	0.1465
306.9992	0.1406
307.2109	0.1288
307.4227	0.1222
307.6344	0.1344
307.8462	0.1273
308.0579	0.1302
308.2696	0.124
308.4813	0.1272
308.693	0.1269
308.9046	0.1365
309.1163	0.1302
309.328	0.1235
309.5396	0.1147
309.7512	0.1076
309.9628	0.1168
310.1744	0.117
310.386	0.1101
310.5976	0.1206
310.8091	0.116
311.0207	0.1092
311.2322	0.1252
311.4437	0.1025
311.6552	0.1031
311.8667	0.1118
312.0782	0.0975
312.2897	0.1017
312.5012	0.1108
312.7126	0.1019
312.924	0.1002
313.1355	0.1181
313.3469	0.1076
313.5583	0.1044
313.7696	0.1118
313.981	0.1101
314.1924	0.1065
314.4037	0.0939
314.6151	0.1114
314.8264	0.1132
315.0377	0.0982
315.249	0.1079
315.4603	0.1126
315.6716	0.1052
315.8828	0.102
316.0941	0.1042
316.3053	0.0969
316.5165	0.1003
316.7277	0.1035
316.9389	0.104
317.1501	0.1021
317.3613	0.1084
317.5724	0.0917
317.7836	0.1016
317.9947	0.0959
318.2058	0.0979
318.417	0.0851
318.6281	0.1005
318.8391	0.0889
319.0502	0.0928
319.2613	0.098
319.4723	0.1111
319.6834	0.1025
319.8944	0.0894
320.1054	0.0992
320.3164	0.1067
320.5274	0.1009
320.7383	0.0918
320.9493	0.0984
321.1602	0.1038
321.3712	0.0988
321.5821	0.1105
321.793	0.1036
322.0039	0.1064
322.2148	0.0936
322.4257	0.0942
322.6365	0.1172
322.8474	0.112
323.0582	0.0972
323.269	0.1044
323.4798	0.1149
323.6906	0.0957
323.9014	0.1197
324.1122	0.1286
324.3229	0.1154
324.5337	0.1118
324.7444	0.1081
324.9551	0.1177
325.1658	0.1109
325.3765	0.1093
325.5872	0.112
325.7979	0.1034
326.0085	0.1041
326.2192	0.1073
326.4298	0.1086
326.6404	0.0943
326.851	0.0962
327.0616	0.0994
327.2722	0.1037
327.4828	0.1207
327.6933	0.1044
327.9039	0.1033
328.1144	0.1085
328.3249	0.1108
328.5354	0.0971
328.7459	0.11
328.9564	0.11
329.1669	0.1124
329.3773	0.0999
329.5878	0.1046
329.7982	0.1161
330.0086	0.1138
330.219	0.1065
330.4294	0.1125
330.6398	0.1062
330.8502	0.1049
331.0605	0.1182
331.2708	0.1044
331.4812	0.1088
331.6915	0.1155
331.9018	0.1156
332.1121	0.1045
332.3224	0.1063
332.5326	0.1178
332.7429	0.1106
332.9531	0.1178
333.1633	0.11
333.3735	0.109
333.5837	0.1153
333.7939	0.1125
334.0041	0.1162
334.2143	0.1209
334.4244	0.1077
334.6346	0.0974
334.8447	0.1286
335.0548	0.1011
335.2649	0.0977
335.475	0.1273
335.685	0.0994
335.8951	0.119
336.1051	0.1179
336.3152	0.1234
336.5252	0.1115
336.7352	0.116
336.9452	0.124
337.1552	0.1214
337.3652	0.1157
337.5751	0.1003
337.7851	0.1176
337.995	0.1074
338.2049	0.1396
338.4148	0.1145
338.6247	0.1243
338.8346	0.1222
339.0445	0.11
339.2543	0.1192
339.4642	0.1283
339.674	0.1155
339.8838	0.1138
340.0936	0.1177
340.3034	0.1229
340.5132	0.1229
340.7229	0.1079
340.9327	0.1296
341.1424	0.1146
341.3522	0.1307
341.5619	0.1222
341.7716	0.1285
341.9813	0.1215
342.1909	0.1178
342.4006	0.1305
342.6102	0.1413
342.8199	0.1299
343.0295	0.1303
343.2391	0.1303
343.4487	0.1247
343.6583	0.1175
343.8679	0.1211
344.0774	0.1393
344.287	0.1297
344.4965	0.1333
344.706	0.126
344.9155	0.1347
345.125	0.1264
345.3345	0.1465
345.544	0.1125
345.7534	0.1248
345.9629	0.131
346.1723	0.1407
346.3817	0.135
346.5911	0.1352
346.8005	0.1366
347.0099	0.1246
347.2193	0.1313
347.4286	0.1268
347.638	0.1369
347.8473	0.1332
348.0566	0.1407
348.2659	0.1341
348.4752	0.1335
348.6845	0.1401
348.8937	0.1371
349.103	0.1401
349.3122	0.1447
349.5214	0.127
349.7306	0.1376
349.9398	0.1316
350.149	0.1506
350.3582	0.1393
350.5674	0.153
350.7765	0.146
350.9856	0.1343
351.1948	0.1436
351.4039	0.1489
351.613	0.1329
351.822	0.1478
352.0311	0.1439
352.2402	0.1518
352.4492	0.1492
352.6582	0.1578
352.8672	0.1475
353.0762	0.1496
353.2852	0.1383
353.4942	0.1389
353.7032	0.1475
353.9121	0.1562
354.1211	0.1442
354.33	0.1524
354.5389	0.1539
354.7478	0.1499
354.9567	0.1442
355.1655	0.1464
355.3744	0.1515
355.5833	0.153
355.7921	0.1789
356.0009	0.1593
356.2097	0.1757
356.4185	0.1736
356.6273	0.172
356.8361	0.1608
357.0448	0.1482
357.2536	0.1549
357.4623	0.1538
357.671	0.1644
357.8797	0.1545
358.0884	0.1598
358.2971	0.1638
358.5057	0.1634
358.7144	0.1609
358.923	0.1729
359.1316	0.1787
359.3402	0.1545
359.5488	0.1666
359.7574	0.1654
359.966	0.1816
360.1746	0.1706
360.3831	0.1633
360.5916	0.1554
360.8002	0.1533
361.0087	0.1838
361.2172	0.1785
361.4256	0.1732
361.6341	0.1824
361.8426	0.1713
362.051	0.1635
362.2594	0.1702
362.4678	0.1604
362.6762	0.198
362.8846	0.1895
363.093	0.1727
363.3014	0.1715
363.5097	0.1806
363.718	0.1932
363.9264	0.1768
364.1347	0.1808
364.343	0.1896
364.5513	0.1938
364.7595	0.2002
364.9678	0.186
365.176	0.1865
365.3842	0.1944
365.5925	0.1838
365.8007	0.1852
366.0089	0.1855
366.217	0.177
366.4252	0.1909
366.6333	0.1948
366.8415	0.1987
367.0496	0.1894
367.2577	0.1914
367.4658	0.2001
367.6739	0.1917
367.882	0.2029
368.09	0.1776
368.2981	0.2028
368.5061	0.1885
368.7141	0.2075
368.9221	0.2091
369.1301	0.1965
369.3381	0.1964
369.5461	0.1939
369.754	0.2038
369.962	0.2077
370.1699	0.1916
370.3778	0.2043
370.5857	0.1927
370.7936	0.2103
371.0015	0.2141
371.2093	0.2033
371.4172	0.2212
371.625	0.2065
371.8328	0.1961
372.0406	0.2107
372.2484	0.2107
372.4562	0.1998
372.664	0.1916
372.8717	0.2109
373.0795	0.1996
373.2872	0.2014
373.4949	0.2198
373.7026	0.2078
373.9103	0.2129
374.118	0.2306
374.3256	0.2189
374.5333	0.2148
374.7409	0.2164
374.9485	0.2239
375.1561	0.2127
375.3637	0.2147
375.5713	0.2252
375.7789	0.2083
375.9864	0.212
376.194	0.2135
376.4015	0.2219
376.609	0.2354
376.8165	0.2187
377.024	0.2271
377.2315	0.2155
377.4389	0.2271
377.6464	0.2171
377.8538	0.2395
378.0612	0.2097
378.2686	0.2266
378.476	0.2279
378.6834	0.2102
378.8908	0.2247
379.0981	0.2317
379.3055	0.2269
379.5128	0.2205
379.7201	0.2417
379.9274	0.2184
380.1347	0.2245
380.342	0.2343
380.5492	0.2242
380.7565	0.2293
380.9637	0.2398
381.1709	0.2454
381.3781	0.2216
381.5853	0.2383
381.7925	0.2381
381.9997	0.2307
382.2068	0.2368
382.4139	0.2408
382.6211	0.2236
382.8282	0.2307
383.0353	0.2345
383.2424	0.2392
383.4494	0.2402
383.6565	0.2165
383.8635	0.2208
384.0706	0.2096
384.2776	0.2253
384.4846	0.2114
384.6916	0.2269
384.8986	0.2196
385.1055	0.2396
385.3125	0.2398
385.5194	0.2249
385.7263	0.2295
385.9333	0.2418
386.1402	0.2451
386.347	0.2385
386.5539	0.2228
386.7608	0.2356
386.9676	0.1992
387.1744	0.2274
387.3813	0.2198
387.5881	0.2236
387.7948	0.2309
388.0016	0.2276
388.2084	0.2305
388.4151	0.2086
388.6219	0.2389
388.8286	0.2216
389.0353	0.2524
389.242	0.2229
389.4487	0.2243
389.6553	0.2071
389.862	0.211
390.0686	0.2139
390.2753	0.2208
390.4819	0.2092
390.6885	0.2153
390.8951	0.2418
391.1016	0.2213
391.3082	0.2237
391.5147	0.2196
391.7213	0.1996
391.9278	0.1961
392.1343	0.2047
392.3408	0.2003
392.5473	0.2054
392.7537	0.2132
392.9602	0.2089
393.1666	0.2004
393.373	0.2082
393.5794	0.2171
393.7858	0.1932
393.9922	0.1995
394.1986	0.2231
394.4049	0.2113
394.6113	0.1914
394.8176	0.1867
395.0239	0.2078
395.2302	0.2173
395.4365	0.2019
395.6428	0.2054
395.8491	0.1893
396.0553	0.1873
396.2615	0.1976
396.4678	0.1837
396.674	0.1694
396.8802	0.1875
397.0863	0.1999
397.2925	0.1884
397.4987	0.1839
397.7048	0.1898
397.9109	0.191
398.117	0.1789
398.3231	0.1985
398.5292	0.2104
398.7353	0.2139
398.9413	0.2013
399.1474	0.1736
399.3534	0.1768
399.5594	0.1674
399.7654	0.2059
399.9714	0.2087
400.1774	0.1894
400.3833	0.1878
400.5893	0.1854
400.7952	0.2031
401.0011	0.1888
401.207	0.1955
401.4129	0.2036
401.6188	0.1853
401.8247	0.1986
402.0305	0.177
402.2364	0.1943
402.4422	0.198
402.648	0.1751
402.8538	0.1997
403.0596	0.1884
403.2654	0.1915
403.4711	0.1749
403.6768	0.1902
403.8826	0.2032
404.0883	0.184
404.294	0.2094
404.4997	0.1823
404.7054	0.1815
404.911	0.189
405.1167	0.1899
405.3223	0.1872
405.5279	0.1866
405.7335	0.1949
405.9391	0.2032
406.1447	0.1777
406.3502	0.1983
406.5558	0.1865
406.7613	0.203
406.9668	0.2021
407.1724	0.1739
407.3778	0.1897
407.5833	0.1836
407.7888	0.2064
407.9942	0.21
408.1997	0.1899
408.4051	0.1986
408.6105	0.1885
408.8159	0.1672
409.0213	0.1811
409.2267	0.1878
409.432	0.186
409.6374	0.1845
409.8427	0.1893
410.048	0.1697
410.2533	0.1708
410.4586	0.1867
410.6639	0.1706
410.8691	0.1748
411.0744	0.1922
411.2796	0.1859
411.4848	0.1841
411.69	0.1784
411.8952	0.2066
412.1004	0.1576
412.3056	0.2057
412.5107	0.1863
412.7158	0.1849
412.921	0.1699
413.1261	0.1977
413.3312	0.1669
413.5362	0.1671
413.7413	0.1754
413.9464	0.181
414.1514	0.167
414.3564	0.1705
414.5614	0.1684
414.7664	0.1782
414.9714	0.1889
415.1764	0.1832
415.3813	0.1879
415.5863	0.1796
415.7912	0.1918
415.9961	0.1907
416.201	0.1814
416.4059	0.1895
416.6108	0.161
416.8156	0.183
417.0205	0.171
417.2253	0.1795
417.4301	0.1875
417.6349	0.1857
417.8397	0.1634
418.0445	0.1852
418.2492	0.1701
418.454	0.1761
418.6587	0.1583
418.8634	0.1837
419.0681	0.1727
419.2728	0.1742
419.4775	0.1671
419.6822	0.1721
419.8868	0.1621
420.0915	0.1711
420.2961	0.1651
420.5007	0.1585
420.7053	0.1721
420.9099	0.173
421.1144	0.1797
421.319	0.1627
421.5235	0.1798
421.728	0.1663
421.9325	0.1695
422.137	0.1683
422.3415	0.1594
422.546	0.1641
422.7504	0.1627
422.9549	0.1636
423.1593	0.1571
423.3637	0.1584
423.5681	0.1585
423.7725	0.1562
423.9769	0.1395
424.1812	0.1394
424.3856	0.1438
424.5899	0.1686
424.7942	0.1556
424.9985	0.165
425.2028	0.1473
425.4071	0.1629
425.6113	0.1555
425.8156	0.1578
426.0198	0.1611
426.224	0.1494
426.4282	0.1468
426.6324	0.1493
426.8366	0.153
427.0407	0.1415
427.2449	0.1448
427.449	0.1534
427.6531	0.1298
427.8572	0.1557
428.0613	0.134
428.2654	0.1331
428.4694	0.1334
428.6735	0.1417
428.8775	0.1318
429.0815	0.1399
429.2855	0.1297
429.4895	0.1374
429.6935	0.1241
429.8975	0.1384
430.1014	0.129
430.3053	0.1188
430.5093	0.1226
430.7132	0.1218
430.9171	0.1224
431.1209	0.1276
431.3248	0.117
431.5286	0.1233
431.7325	0.1197
431.9363	0.1051
432.1401	0.1144
432.3439	0.1104
432.5477	0.0819
432.7514	0.0894
432.9552	0.1002
433.1589	0.1055
433.3627	0.1166
433.5664	0.1154
433.7701	0.0936
433.9737	0.0959
434.1774	0.1081
434.3811	0.0968
434.5847	0.1155
434.7883	0.0899
434.9919	0.0954
435.1955	0.1026
435.3991	0.0782
435.6027	0.088
435.8062	0.078
436.0098	0.0777
436.2133	0.0953
436.4168	0.0777
436.6203	0.0804
436.8238	0.097
437.0272	0.0878
437.2307	0.0872
437.4341	0.0844
437.6375	0.0899
437.841	0.0812
438.0443	0.0864
438.2477	0.0705
438.4511	0.0884
438.6545	0.0794
438.8578	0.0689
439.0611	0.0759
439.2644	0.0752
439.4677	0.0596
439.671	0.0701
439.8743	0.0795
440.0775	0.0769
440.2808	0.0766
440.484	0.0653
440.6872	0.0364
440.8904	0.0617
441.0936	0.072
441.2967	0.0612
441.4999	0.0614
441.703	0.0434
441.9062	0.0457
442.1093	0.0567
442.3124	0.0526
442.5155	0.035
442.7185	0.0488
442.9216	0.0318
443.1246	0.0676
443.3276	0.0486
443.5307	0.0525
443.7337	0.0636
443.9366	0.0427
444.1396	0.0548
444.3426	0.037
444.5455	0.0599
444.7484	0.0501
444.9513	0.0403
445.1542	0.0554
445.3571	0.043
445.56	0.0472
445.7628	0.0339
445.9657	0.0411
446.1685	0.0607
446.3713	0.0441
446.5741	0.0296
446.7769	0.0205
446.9797	0.0408
447.1824	0.0331
447.3852	0.0397
447.5879	0.0439
447.7906	0.041
447.9933	0.0309
448.196	0.0337
448.3986	0.0469
448.6013	0.0327
448.8039	0.0208
449.0066	0.0169
449.2092	0.0194
449.4118	0.0367
449.6143	0.0378
449.8169	0.0328
450.0195	0.0238
450.222	-0.011
450.4245	0.007
450.627	0.028
450.8295	0.0241
451.032	0.0174
451.2345	0.0132
451.4369	0.0145
451.6394	0.024
451.8418	0.0087
452.0442	0.0161
452.2466	0.0234
452.449	-0.0053
452.6513	0.0278
452.8537	0.0163
453.056	-0.0088
453.2583	0.0072
453.4607	0.0235
453.663	0.0045
453.8652	0.0239
454.0675	0.0037
454.2697	0.0234
454.472	0.0041
454.6742	0.0284
454.8764	0.01
455.0786	0.0185
455.2808	0.005
455.4829	0.0007
455.6851	0.0097
455.8872	0.0199
456.0893	0.0345
456.2915	0.0018
456.4935	0.0218
456.6956	0.0127
456.8977	0.0113
457.0997	0.0006
457.3018	-0.0118
457.5038	0.0113
457.7058	0.0103
457.9078	0.011
458.1098	0.0068
458.3117	0.0061
458.5137	0.0151
458.7156	0.0019
458.9175	-0.0054
459.1194	-0.0048
459.3213	0.0053
459.5232	-0.0011
459.725	-0.0061
459.9269	-0.0109
460.1287	-0.0054
460.3305	0.0071
460.5323	0.0093
460.7341	-0.0054
460.9359	0.0029
461.1376	0.0033
461.3394	0.0021
461.5411	0.007
461.7428	-0.0072
461.9445	0.0072
462.1462	0.0223
462.3479	-0.0071
462.5495	-0.0006
462.7512	0.0025
462.9528	-0.0018
463.1544	-0.0172
463.356	-0.0179
463.5576	-0.0026
463.7592	-0.0034
463.9607	0.0039
464.1623	0.0116
464.3638	0.0112
464.5653	-0.0199
464.7668	-0.0004
464.9683	0.0035
465.1697	0.0022
465.3712	-0.0192
465.5726	-0.0104
465.7741	0.0012
465.9755	-0.003
466.1769	-0.0058
466.3782	-0.0063
466.5796	-0.0043
466.7809	0.0041
466.9823	0.0073
467.1836	-0.0072
467.3849	-0.0076
467.5862	0.0023
467.7875	-0.0124
467.9887	0.0042
468.19	-0.0004
468.3912	-0.0133
468.5924	-0.0115
468.7936	-0.0042
468.9948	-0.0057
469.196	0.0011
469.3972	-0.0079
469.5983	-0.0043
469.7994	-0.0052
470.0006	-0.0064
470.2017	-0.0194
470.4027	-0.0087
470.6038	-0.0057
470.8049	-0.0211
471.0059	-0.0101
471.2069	-0.0309
471.408	-0.0017
471.6089	0.0001
471.8099	-0.0224
472.0109	0.0061
472.2119	-0.0148
472.4128	-0.0083
472.6137	-0.0014
472.8146	-0.0185
473.0155	-0.0168
473.2164	-0.0132
473.4173	0.0021
473.6181	0.0036
473.819	-0.0034
474.0198	-0.0097
474.2206	-0.0052
474.4214	-0.0074
474.6222	-0.0106
474.8229	-0.0058
475.0237	-0.0184
475.2244	-0.0199
475.4251	-0.0026
475.6258	-0.0128
475.8265	-0.005
476.0272	-0.0049
476.2278	-0.0072
476.4285	-0.0026
476.6291	-0.0115
476.8297	-0.0078
477.0303	-0.0118
477.2309	-0.0112
477.4315	-0.018
477.632	0.0029
477.8326	-0.0024
478.0331	0.0065
478.2336	0.0014
478.4341	-0.0102
478.6346	-0.0214
478.8351	-0.0111
479.0355	-0.0014
479.236	-0.0062
479.4364	-0.0099
479.6368	-0.0034
479.8372	-0.0223
480.0376	-0.0098
480.2379	-0.0244
480.4383	-0.0086
480.6386	0.0015
480.8389	-0.0005
481.0392	-0.0181
481.2395	-0.0161
481.4398	-0.0011
481.6401	-0.0066
481.8403	-0.0136
482.0405	-0.0041
482.2408	-0.0065
482.441	-0.0035
482.6411	-0.0081
482.8413	-0.0076
483.0415	-0.0157
483.2416	-0.0093
483.4417	-0.0103
483.6419	-0.0054
483.8419	-0.0116
484.042	-0.0051
484.2421	-0.0069
484.4422	-0.0038
484.6422	-0.0052
484.8422	-0.0045
485.0422	-0.02
485.2422	-0.001
485.4422	-0.0113
485.6422	-0.0194
485.8421	-0.0101
486.042	-0.0121
486.242	-0.0078
486.4419	-0.0213
486.6417	-0.0093
486.8416	-0.0156
487.0415	-0.0061
487.2413	-0.0215
487.4411	-0.0185
487.641	-0.0292
487.8408	-0.0028
488.0405	-0.0122
488.2403	-0.0149
488.4401	0.0008
488.6398	-0.006
488.8395	-0.0173
489.0392	-0.0132
489.2389	-0.0117
489.4386	-0.012
489.6383	-0.0075
489.8379	0.0007
490.0376	-0.0156
490.2372	-0.0038
490.4368	-0.0226
490.6364	-0.009
490.836	-0.0071
491.0355	-0.0173
491.2351	-0.0106
491.4346	-0.0084
491.6341	-0.0183
491.8336	0.0038
492.0331	-0.0276
492.2326	-0.0169
492.432	-0.0126
492.6315	-0.0116
492.8309	-0.0197
493.0303	-0.0206
493.2297	-0.0174
493.4291	-0.0026
493.6284	-0.014
493.8278	-0.0034
494.0271	-0.0024
494.2264	-0.0082
494.4257	-0.0219
494.625	-0.0069
494.8243	-0.0151
495.0236	-0.0091
495.2228	-0.0137
495.422	-0.0121
495.6213	-0.0125
495.8205	-0.0064
496.0196	-0.0079
496.2188	-0.006
496.418	-0.0099
496.6171	-0.0064
496.8162	-0.0139
497.0153	-0.0049
497.2144	-0.0055
497.4135	-0.0154
497.6126	-0.0201
497.8116	-0.0116
498.0107	-0.0075
498.2097	-0.0157
498.4087	-0.012
498.6077	-0.0105
498.8067	-0.0243
499.0056	0.005
499.2046	-0.0062
499.4035	-0.0202
499.6024	-0.0175
499.8013	-0.0127
500.0002	-0.0167
500.199	-0.0152
500.3979	-0.0084
500.5967	-0.0303
500.7956	-0.015
500.9944	-0.0184
501.1932	-0.019
501.3919	-0.0115
501.5907	-0.0202
501.7895	-0.0151
501.9882	-0.0242
502.1869	-0.0135
502.3856	-0.0184
502.5843	-0.0168
502.783	-0.0111
502.9816	-0.0127
503.1803	-0.0226
503.3789	-0.0167
503.5775	-0.009
503.7761	-0.0133
503.9747	-0.0066
504.1732	-0.0193
504.3718	-0.0064
504.5703	-0.0125
504.7689	-0.015
504.9674	-0.0111
505.1658	-0.0166
505.3643	-0.0002
505.5628	-0.0169
505.7612	-0.0022
505.9597	-0.0024
506.1581	-0.0144
506.3565	-0.0062
506.5549	-0.0082
506.7532	-0.0233
506.9516	-0.0153
507.1499	-0.0076
507.3482	-0.0171
507.5465	-0.0186
507.7448	-0.007
507.9431	-0.0138
508.1414	-0.0054
508.3396	-0.0179
508.5379	-0.0085
508.7361	-0.0107
508.9343	-0.0081
509.1325	-0.0117
509.3306	-0.0069
509.5288	-0.012
509.7269	-0.0155
509.9251	-0.0091
510.1232	-0.0093
510.3213	-0.0125
510.5193	-0.0025
510.7174	-0.0217
510.9154	-0.0231
511.1135	-0.0139
511.3115	-0.0068
511.5095	-0.0065
511.7075	-0.0148
511.9055	-0.0118
512.1034	-0.026
512.3014	-0.0116
512.4993	0.0006
512.6972	-0.0159
512.8951	-0.0106
513.093	-0.0092
513.2908	-0.0027
513.4887	-0.0111
513.6865	-0.012
513.8844	-0.0095
514.0822	-0.0169
514.2799	-0.0146
514.4777	-0.0135
514.6755	-0.0115
514.8732	-0.0188
515.0709	-0.0096
515.2687	-0.017
515.4664	-0.0091
515.664	-0.0145
515.8617	-0.0114
516.0594	-0.0297
516.257	-0.0101
516.4546	-0.0212
516.6522	-0.0027
516.8498	-0.0199
517.0474	0.0003
517.2449	-0.0032
517.4425	-0.0218
517.64	-0.0163
517.8375	-0.0018
518.035	-0.0139
518.2325	-0.0109
518.43	-0.0094
518.6274	-0.0144
518.8249	-0.025
519.0223	0.0001
519.2197	-0.0173
519.4171	-0.0157
519.6145	-0.015
519.8118	0.0033
520.0092	-0.0114
520.2065	-0.0143
520.4038	-0.0178
520.6011	0.0006
520.7984	-0.0152
520.9956	-0.0062
521.1929	-0.026
521.3901	-0.0172
521.5874	-0.0128
521.7846	-0.0113
521.9818	-0.0168
522.1789	-0.0226
522.3761	-0.0231
522.5732	-0.007
522.7704	-0.0183
522.9675	-0.0135
523.1646	-0.0131
523.3617	-0.0143
523.5587	-0.017
523.7558	-0.0091
523.9528	-0.0078
524.1498	-0.0122
524.3468	-0.0036
524.5438	-0.0132
524.7408	-0.0102
524.9378	-0.0039
525.1347	-0.0075
525.3316	-0.001
525.5285	-0.01
525.7254	-0.0103
525.9223	-0.0096
526.1192	-0.0126
526.316	-0.01
526.5129	0.0001
526.7097	-0.0024
526.9065	-0.009
527.1033	-0.0133
527.3	-0.0074
527.4968	-0.0121
527.6935	-0.0049
527.8903	-0.019
528.087	-0.0099
528.2837	-0.0026
528.4804	-0.0021
528.677	-0.0171
528.8737	0.0021
529.0703	-0.0075
529.2669	-0.0223
529.4635	-0.008
529.6601	-0.013
529.8567	-0.0038
530.0532	-0.0221
530.2498	-0.0092
530.4463	-0.007
530.6428	-0.0129
530.8393	-0.0106
531.0358	-0.0113
531.2322	-0.0048
531.4287	-0.0087
531.6251	-0.019
531.8215	-0.0072
532.0179	-0.0113
532.2143	-0.0135
532.4107	-0.0082
532.607	-0.0031
532.8034	-0.0098
532.9997	-0.004
533.196	-0.0094
533.3923	-0.0216
533.5886	0.0014
533.7848	-0.0032
533.9811	-0.0082
534.1773	0.0008
534.3735	0.0055
534.5697	-0.0065
534.7659	-0.0085
534.9621	-0.0069
535.1582	-0.0133
535.3544	-0.0104
535.5505	-0.0153
535.7466	-0.0141
535.9427	-0.0097
536.1387	-0.0011
536.3348	-0.0148
536.5308	0.0072
536.7269	-0.0161
536.9229	-0.0057
537.1189	-0.0092
537.3148	-0.0054
537.5108	-0.0231
537.7068	-0.0031
537.9027	-0.0031
538.0986	-0.0119
538.2945	-0.0097
538.4904	-0.009
538.6863	-0.0118
538.8821	-0.0079
539.078	-0.0138
539.2738	0.0014
539.4696	-0.0124
539.6654	0.0019
539.8611	0.0085
540.0569	-0.0064
540.2526	-0.0076
540.4484	0.0011
540.6441	0.002
540.8398	0.003
541.0355	0.0027
541.2311	-0.0074
541.4268	-0.0159
541.6224	-0.0086
541.818	-0.0059
542.0136	0.0004
542.2092	-0.0004
542.4048	-0.0089
542.6003	-0.0046
542.7959	-0.0107
542.9914	-0.0091
543.1869	-0.0117
543.3824	-0.0116
543.5779	-0.0061
543.7734	-0.0079
543.9688	-0.0094
544.1642	0.006
544.3596	-0.0071
544.555	-0.0086
544.7504	-0.0072
544.9458	-0.0083
545.1411	-0.0124
545.3365	-0.0072
545.5318	-0.0115
545.7271	-0.0084
545.9224	-0.0002
546.1177	-0.0017
546.3129	-0.0059
546.5081	-0.0038
546.7034	-0.0044
546.8986	-0.0015
547.0938	-0.0004
547.289	-0.0024
547.4841	0.0066
547.6793	0.0018
547.8744	-0.0069
548.0695	-0.002
548.2646	-0.01
548.4597	-0.0016
548.6548	-0.005
548.8498	-0.001
549.0448	-0.0037
549.2399	-0.011
549.4349	-0.0019
549.6298	0.003
549.8248	0.0067
550.0198	-0.0076
550.2147	-0.0019
550.4096	-0.0109
550.6045	-0.0079
550.7994	0.0088
550.9943	-0.0061
551.1892	-0.0015
551.384	-0.0036
551.5788	0.0041
551.7737	-0.003
551.9685	0.0016
552.1632	-0.0008
552.358	-0.0047
552.5528	-0.0084
552.7475	-0.0034
552.9422	-0.0014
553.1369	0.001
553.3316	-0.0039
553.5263	-0.0132
553.7209	-0.008
553.9156	-0.0119
554.1102	-0.0111
554.3048	-0.0189
554.4994	0.0069
554.694	-0.0053
554.8885	-0.0037
555.0831	-0.0135
555.2776	-0.0031
555.4721	-0.0081
555.6666	-0.014
555.8611	0.0075
556.0555	0.0023
556.25	-0.0033
556.4444	-0.0183
556.6388	-0.0063
556.8332	-0.0082
557.0276	-0.0021
557.222	-0.003
557.4163	0.0017
557.6107	-0.014
557.805	0.0035
557.9993	-0.0094
558.1936	0.0022
558.3879	0.0051
558.5821	0.0005
558.7764	-0.003
558.9706	-0.0053
559.1648	-0.0027
559.359	-0.0151
559.5532	-0.0105
559.7473	-0.009
559.9415	0.0028
560.1356	-0.007
560.3297	-0.0136
560.5238	-0.0151
560.7179	-0.0106
560.9119	-0.0019
561.106	-0.0054
561.3	-0.0108
561.494	-0.0038
561.688	-0.0116
561.882	-0.016
562.076	-0.0133
562.2699	0.0027
562.4639	-0.0102
562.6578	-0.002
562.8517	-0.0091
563.0456	-0.0034
563.2395	0.0005
563.4333	-0.0009
563.6272	-0.0014
563.821	-0.0068
564.0148	-0.0014
564.2086	-0.0089
564.4024	-0.0062
564.5961	-0.0128
564.7899	0.006
564.9836	-0.0064
565.1773	-0.0009
565.371	-0.0011
565.5647	0.0033
565.7584	-0
565.952	-0.0029
566.1456	-0.0032
566.3393	-0.0021
566.5329	-0.0164
566.7264	-0.0034
566.92	-0.0129
567.1136	-0.0008
567.3071	-0.0006
567.5006	0.0046
567.6941	-0.0011
567.8876	0.0008
568.0811	-0.0079
568.2745	0.001
568.468	0.0078
568.6614	-0.0004
568.8548	0.0007
569.0482	-0.0064
569.2416	-0.0028
569.4349	-0.0035
569.6283	-0.0055
569.8216	-0.0059
570.0149	-0.0102
570.2082	0.0046
570.4015	0.002
570.5947	0.0051
570.788	0.0006
570.9812	0.0044
571.1744	0.0037
571.3676	-0.0043
571.5608	-0.0046
571.754	-0.003
571.9471	-0.0012
572.1402	-0.0064
572.3333	-0.0065
572.5264	-0.0039
572.7195	-0.0026
572.9126	-0.0018
573.1057	-0.0022
573.2987	-0.0075
573.4917	-0.0014
573.6847	-0.0087
573.8777	-0.0014
574.0707	0.0044
574.2636	-0.0079
574.4566	-0.0079
574.6495	0.0045
574.8424	-0.0005
575.0353	-0.0001
575.2281	0.0028
575.421	-0.0038
575.6138	0
575.8067	-0.005
575.9995	-0.0004
576.1923	-0.0029
576.385	0.0041
576.5778	-0.0073
576.7706	-0.0062
576.9633	0.0008
577.156	0.0007
577.3487	-0.0007
577.5414	-0.0013
577.734	-0.0045
577.9267	-0.0009
578.1193	-0.014
578.3119	-0.0078
578.5045	-0.0013
578.6971	-0.0023
578.8897	0.0021
579.0822	-0.0083
579.2747	-0.0021
579.4673	-0.0138
579.6598	-0.0064
579.8522	-0.002
580.0447	-0.0021
580.2372	-0.0062
580.4296	0.0018
580.622	-0.0032
580.8144	-0.0029
581.0068	-0.0077
581.1992	-0.011
581.3915	-0.008
581.5839	-0.0104
581.7762	-0.0121
581.9685	-0.011
582.1608	0.0004
582.353	-0.0016
582.5453	-0.0016
582.7375	-0.0028
582.9298	-0.0009
583.122	-0.0003
583.3142	-0.0108
583.5063	-0.0041
583.6985	-0.0053
583.8906	-0.0031
584.0827	-0.001
584.2749	0.001
584.4669	0.001
584.659	-0.0041
584.8511	-0.003
585.0431	-0.0109
585.2352	0.0014
585.4272	-0.0066
585.6192	-0.0002
585.8111	-0.001
586.0031	-0.0007
586.195	0.0017
586.387	0.0021
586.5789	-0.0007
586.7708	-0.0009
586.9627	-0.0062
587.1545	-0.0068
587.3464	-0.0015
587.5382	0.0026
587.73	-0.006
587.9218	0.0079
588.1136	-0.0059
588.3053	0.0066
588.4971	-0.0031
588.6888	-0.0059
588.8805	0.0026
589.0722	0.0028
589.2639	-0.0013
589.4556	-0.002
589.6472	-0.0052
589.8389	-0.0047
590.0305	-0.0091
590.2221	0.001
590.4137	-0.006
590.6052	0.0026
590.7968	0.0052
590.9883	0.0015
591.1798	-0.0074
591.3713	-0.0037
591.5628	0.0042
591.7543	0.0041
591.9458	-0.0048
592.1372	0.0063
592.3286	-0.0004
592.52	-0.0022
592.7114	-0.0065
592.9028	-0.0039
593.0941	-0.0005
593.2855	0.0001
593.4768	-0.0029
593.6681	-0.011
593.8594	-0.004
594.0506	-0.0101
594.2419	0.0038
594.4331	0.0027
594.6244	0.006
594.8156	-0.0063
595.0067	0.0002
595.1979	0.0019
595.3891	0.005
595.5802	-0.0052
595.7713	-0.0076
595.9624	-0.0055
596.1535	0.0017
596.3446	-0.0035
596.5357	-0.0056
596.7267	0.003
596.9177	-0.0071
597.1087	-0.0114
597.2997	-0.0033
597.4907	-0.0019
597.6817	-0.0043
597.8726	0.0022
598.0635	-0.0093
598.2544	-0.0006
598.4453	-0.0021
598.6362	-0.0055
598.827	-0.0038
599.0179	0.004
599.2087	0.0009
599.3995	0.0035
599.5903	-0.0017
599.7811	-0.0014
599.9718	0.0009
600.1626	-0.0099
600.3533	-0.0064
600.544	0.0028
600.7347	-0.0026
600.9254	-0.0017
601.116	-0.0083
601.3067	-0.0075
601.4973	-0.0025
601.6879	-0.0015
601.8785	-0.0109
602.0691	0.0004
602.2596	0.0025
602.4502	0.0014
602.6407	0.0015
602.8312	-0.0012
603.0217	-0.0096
603.2122	-0.001
603.4027	-0.0006
603.5931	-0.003
603.7835	-0.0011
603.9739	-0.007
604.1643	-0.0014
604.3547	-0.0028
604.5451	0.0021
604.7354	-0.0003
604.9257	-0.0012
605.116	-0.0047
605.3063	0.002
605.4966	-0.0024
605.6869	0.0011
605.8771	0.0023
606.0673	0.0033
606.2575	0.0025
606.4477	0.0091
606.6379	0.0002
606.8281	0.0033
607.0182	-0.0013
607.2083	0.0111
607.3985	-0.0023
607.5885	-0.001
607.7786	-0.0046
607.9687	-0.0032
608.1587	-0.0035
608.3488	0.0027
608.5388	0.0007
608.7288	-0.0037
608.9187	-0.0046
609.1087	-0.0016
609.2986	-0.0055
609.4886	-0.0006
609.6785	0.003
609.8684	0.0027
610.0582	0.0017
610.2481	0.0005
610.4379	0.0003
610.6278	-0.0092
610.8176	-0.0045
611.0074	-0.001
611.1971	-0.0038
611.3869	-0.0028
611.5766	-0.0082
611.7664	0.0098
611.9561	-0.0013
612.1458	0.004
612.3354	-0.0057
612.5251	0.003
612.7147	-0.0028
612.9044	0.0029
613.094	-0.0068
613.2836	0.0027
613.4731	-0.0115
613.6627	-0.007
613.8522	-0.0009
614.0417	0.004
614.2313	-0.002
614.4207	-0.0054
614.6102	-0.0006
614.7997	0.0002
614.9891	-0.0019
615.1785	-0.0016
615.3679	-0.0062
615.5573	0.0083
615.7467	0.0028
615.9361	-0.0004
616.1254	0.001
616.3147	-0.0028
616.504	-0.0002
616.6933	0.0004
616.8826	0.0069
617.0718	0.004
617.2611	-0.0052
617.4503	0.0011
617.6395	0.0023
617.8287	-0.008
618.0179	-0.0013
618.207	0.0079
618.3961	0.0044
618.5853	-0.0044
618.7744	0.003
618.9634	0.0028
619.1525	0.0049
619.3416	0.0039
619.5306	-0.0014
619.7196	0.0034
619.9086	-0.0033
620.0976	0.0034
620.2866	-0.0081
620.4755	0.0008
620.6645	0.003
620.8534	0.0041
621.0423	0.006
621.2312	0.0078
621.42	-0.001
621.6089	0.0014
621.7977	0.0032
621.9865	-0.0082
622.1753	0.0034
622.3641	-0.0058
622.5529	0.0015
622.7416	0.0067
622.9303	-0.0045
623.1191	-0.0052
623.3078	-0.0015
623.4964	-0.0035
623.6851	-0.0061
623.8737	-0.0026
624.0624	0.0023
624.251	-0.0172
624.4396	-0.0088
624.6282	-0.0058
624.8167	-0.0059
625.0053	0.0012
625.1938	-0.003
625.3823	0.0046
625.5708	-0.0003
625.7593	-0.0073
625.9477	-0.0053
626.1362	-0.0132
626.3246	-0.0039
626.513	0.0068
626.7014	0.0036
626.8898	-0.0025
627.0781	0.0042
627.2665	-0.0077
627.4548	-0.0008
627.6431	-0.0012
627.8314	-0.0006
628.0197	0.0025
628.2079	-0.0067
628.3962	-0.0007
628.5844	0.0081
628.7726	0.0109
628.9608	0.0045
629.1489	-0.0017
629.3371	0.0023
629.5252	-0.0038
629.7134	0.0108
629.9015	0.0007
630.0895	0.002
630.2776	0.0012
630.4657	0.0058
630.6537	-0.002
630.8417	-0.0019
631.0297	-0.0042
631.2177	0.0011
631.4057	-0.0067
631.5936	0.0045
631.7815	0.0024
631.9695	0.0034
632.1574	0.0062
632.3452	0.0147
632.5331	0.0024
632.7209	-0.001
632.9088	0.0131
633.0966	0.005
633.2844	-0.0027
633.4722	-0.0052
633.6599	0.0062
633.8477	-0.0038
634.0354	-0.0015
634.2231	-0.0022
634.4108	-0.0011
634.5985	0.0067
634.7861	0.0035
634.9738	0.004
635.1614	-0.001
635.349	-0.0048
635.5366	-0.0008
635.7242	-0.0025
635.9117	-0.0011
636.0993	-0.0075
636.2868	0.0032
636.4743	-0.0085
636.6618	0.0034
636.8492	-0.0012
637.0367	-0.0026
637.2241	-0.0043
637.4115	-0.0019
637.5989	-0.0046
637.7863	-0.0071
637.9737	-0.001
638.161	-0.0022
638.3484	0.0044
638.5357	0.0088
638.723	0.0026
638.9103	0.0014
639.0975	0.0054
639.2848	0.0056
639.472	-0.0023
639.6592	0.0039
639.8464	0.0103
640.0336	0.0073
640.2208	0.0015
640.4079	-0.0032
640.595	-0.0021
640.7821	0.0036
640.9692	-0.0016
641.1563	-0.0042
641.3434	0.0041
641.5304	0.0051
641.7174	0.0037
641.9044	-0.0003
642.0914	0.0066
642.2784	0.0056
642.4653	0.0092
642.6523	0.0023
642.8392	0.0021
643.0261	-0.001
643.213	0.0069
643.3999	0.0018
643.5867	-0.0015
643.7735	0.0011
643.9604	-0.0058
644.1472	-0.0001
644.3339	0.002
644.5207	-0.0007
644.7075	0.0059
644.8942	0.0073
645.0809	-0.0006
645.2676	0.0087
645.4543	0.0014
645.6409	0.0063
645.8276	0.0027
646.0142	0.0112
646.2008	0.0037
646.3874	-0.0066
646.574	-0.002
646.7605	-0.0034
646.9471	-0.009
647.1336	0.0056
647.3201	-0.0005
647.5066	-0.0007
647.6931	0.0051
647.8795	-0.0026
648.0659	0.008
648.2524	0.0072
648.4388	-0.0007
648.6252	-0.0013
648.8115	0.0047
648.9979	0.0035
649.1842	0.0053
649.3705	-0.0008
649.5568	0.0012
649.7431	0.0043
649.9294	-0.001
650.1156	0.0052
650.3018	-0.0054
650.488	0.0021
650.6742	-0.0016
650.8604	0.003
651.0466	-0.0081
651.2327	-0.0066
651.4188	-0.0034
651.6049	-0.0007
651.791	-0.0027
651.9771	0.0055
652.1632	-0.001
652.3492	-0.0009
652.5352	0.0008
652.7212	-0.002
652.9072	-0.0027
653.0932	-0.004
653.2791	-0.0043
653.465	-0.0013
653.651	-0.004
653.8369	-0.0038
654.0227	0.0037
654.2086	0.0008
654.3944	0.0042
654.5803	-0.0001
654.7661	0.0006
654.9519	-0.006
655.1377	-0.0071
655.3234	0.0011
655.5092	-0.002
655.6949	-0.0092
655.8806	-0.0053
656.0663	-0.0022
656.2519	-0.0032
656.4376	-0.0004
656.6232	0.0064
656.8088	-0.0005
656.9945	-0.0016
657.18	-0.0012
657.3656	0.002
657.5511	0.0011
657.7367	-0.0063
657.9222	0.0043
658.1077	-0.0046
658.2932	0.0056
658.4786	-0.0083
658.6641	-0.0031
658.8495	0.0009
659.0349	-0.002
659.2203	0.0091
659.4057	0.0028
659.591	-0.005
659.7764	0.0035
659.9617	0.0013
660.147	-0.0041
660.3323	-0.0025
660.5176	0.0123
660.7028	0.0038
660.888	0.0029
661.0733	-0.0005
661.2585	-0.006
661.4436	0.0019
661.6288	-0.0044
661.8139	-0.0099
661.9991	0.0035
662.1842	0.0004
662.3693	0.0092
662.5544	-0.0075
662.7394	0.0037
662.9245	0.0021
663.1095	-0.0053
663.2945	0.0049
663.4795	0.0015
663.6644	0.0058
663.8494	0.0056
664.0343	0.0033
664.2193	-0.0043
664.4042	-0.0011
664.589	-0.0119
664.7739	-0.0026
664.9587	-0.0109
665.1436	-0.0098
665.3284	-0.0063
665.5132	-0.006
665.698	-0.0049
665.8827	0.0047
666.0675	-0.0084
666.2522	-0.003
666.4369	0.0051
666.6216	0.0031
666.8063	0.0048
666.9909	0.0008
667.1756	0.0001
667.3602	0.0012
667.5448	0.0002
667.7294	0.0086
667.9139	0.0085
668.0985	0.0162
668.283	0.0025
668.4675	-0.0029
668.652	-0.0077
668.8365	-0.0024
669.0209	0.001
669.2054	0.0047
669.3898	-0.0048
669.5742	0.0029
669.7586	0.0016
669.943	0.0081
670.1273	0.0078
670.3117	-0.0004
670.496	0.0151
670.6803	0.0105
670.8646	0.001
671.0488	0
671.2331	0.0074
671.4173	0.003
671.6015	0.0024
671.7857	0.0019
671.9699	0.0062
672.1541	-0.0014
672.3382	0.0081
672.5223	0.0088
672.7064	0.007
672.8905	0.0066
673.0746	-0.001
673.2587	-0.0043
673.4427	0.0042
673.6267	0.0041
673.8107	0.0064
673.9947	0.0078
674.1787	-0.0021
674.3626	0.0002
674.5465	0.0014
674.7304	0.0039
674.9143	0.0037
675.0982	0.0076
675.2821	-0.0001
675.4659	0.0111
675.6497	0.0008
675.8335	-0
676.0173	0.0006
676.2011	-0.0016
676.3849	0.0019
676.5686	-0.0089
676.7523	0.0037
676.936	-0.0022
677.1197	0.0015
677.3034	-0.0004
677.487	0.0025
677.6706	-0.0009
677.8542	-0.0023
678.0378	0.0009
678.2214	0.0033
678.405	-0.0013
678.5885	-0.009
678.772	0.0032
678.9555	-0.006
679.139	0.0048
679.3225	0.0025
679.5059	-0.005
679.6894	-0
679.8728	-0.0014
680.0562	-0.0022
680.2395	0.0017
680.4229	0.0028
680.6062	0.0049
680.7896	0.0001
680.9729	-0.0065
681.1562	0.0031
681.3394	0.0071
681.5227	-0.0103
681.7059	-0.0078
681.8891	-0.0043
682.0723	0.0114
682.2555	0.0042
682.4387	0.0004
682.6218	-0.0055
682.805	0.0053
682.9881	0.005
683.1712	-0.0012
683.3542	-0.0033
683.5373	0.0046
683.7203	-0.0099
683.9034	-0.0027
684.0864	-0.0126
684.2694	-0.0131
684.4523	0.0053
684.6353	-0.0101
684.8182	0.0012
685.0011	-0.0039
685.184	0.0001
685.3669	-0.0023
685.5498	0.0002
685.7326	0.0011
685.9154	-0.0084
686.0982	0.0063
686.281	0.0071
686.4638	0.0052
686.6465	0.0033
686.8293	-0.007
687.012	0.0043
687.1947	-0.0052
687.3774	0.0014
687.56	-0.005
687.7427	0.0061
687.9253	-0.0036
688.1079	-0.0036
688.2905	0.0093
688.4731	-0.0089
688.6556	0.0006
688.8382	-0.0054
689.0207	-0.0062
689.2032	-0.0102
689.3857	-0.0053
689.5681	-0.0052
689.7506	-0.0121
689.933	-0.0151
690.1154	-0.0039
690.2978	-0.004
690.4802	0.0035
690.6626	-0.0129
690.8449	-0.0076
691.0272	0.0013
691.2095	-0.0113
691.3918	-0.0073
691.5741	0.0007
691.7563	-0.0016
691.9386	0.0013
692.1208	0.0023
692.303	0.0007
692.4852	-0.0017
692.6673	-0.0055
692.8495	-0.0108
693.0316	0.0003
693.2137	0.0026
693.3958	-0.0041
693.5778	0.0019
693.7599	-0.002
693.9419	-0.0023
694.1239	-0.0068
694.3059	-0.0061
694.4879	0.0058
694.6699	0.0022
694.8518	0.0006
695.0337	0.0012
695.2157	0.0019
695.3975	-0.0063
695.5794	0.0001
695.7613	-0.0006
695.9431	-0.0027
696.1249	-0.0007
696.3067	0.005
696.4885	0.0085
696.6703	-0.0082
696.852	0.0009
697.0337	-0.0013
697.2154	-0.0013
697.3971	0.0025
697.5788	-0.0018
697.7605	0.0008
697.9421	0.0039
698.1237	0.0059
698.3053	-0.0021
698.4869	-0.0062
698.6685	-0.002
698.85	-0.0075
699.0315	0.0077
699.213	0.0005
699.3945	-0.0065
699.576	0.008
699.7575	-0.0019
699.9389	-0.0009
700.1203	-0.0116
700.3017	-0.0144
700.4831	-0.0109
700.6645	-0.0049
700.8458	0.004
701.0271	0.0023
701.2084	0.0062
701.3897	0.0033
701.571	0.0111
701.7523	-0.0052
701.9335	0.0015
702.1147	0.0027
702.2959	-0.0015
702.4771	0.0056
702.6583	0.0053
702.8394	-0.0055
703.0205	0.0009
703.2016	-0.0058
703.3827	-0.0031
703.5638	0.0093
703.7449	0.0004
703.9259	0.0074
704.1069	-0.0018
704.2879	0.0046
704.4689	0.0013
704.6499	-0.0055
704.8308	-0.0055
705.0117	0.001
705.1927	-0.0012
705.3735	-0.0009
705.5544	-0.0047
705.7353	-0.0043
705.9161	-0.0061
706.0969	-0.0029
706.2777	-0.0049
706.4585	-0.0079
706.6393	0.0027
706.82	-0.0005
707.0007	-0.0011
707.1815	0.0014
707.3621	0.0044
707.5428	0
707.7235	0.0051
707.9041	0.0014
708.0847	-0.0158
708.2653	-0.0088
708.4459	-0.0124
708.6265	0.0053
708.807	-0.0064
708.9875	-0
709.168	-0.0072
709.3485	-0.0056
709.529	-0.0042
709.7095	-0.0123
709.8899	-0.001
710.0703	-0.0123
710.2507	-0.0006
710.4311	-0.0013
710.6115	-0.0114
710.7918	-0.0137
710.9721	-0.0015
711.1524	-0.0117
711.3327	0.005
711.513	0.0073
711.6932	-0.0016
711.8735	0.007
712.0537	0.0036
712.2339	0
712.4141	-0.0054
712.5942	-0.0062
712.7744	-0.0038
712.9545	-0.0077
713.1346	-0.0048
713.3147	-0.007
713.4947	0.0015
713.6748	-0.0049
713.8548	-0.0077
714.0348	-0.0033
714.2148	-0.0026
714.3948	0.0008
714.5748	-0.0077
714.7547	-0.0002
714.9346	-0.0002
715.1145	-0.0028
715.2944	-0.01
715.4743	-0.0074
715.6541	0.0028
715.834	-0.0045
716.0138	-0.0015
716.1936	-0.0146
716.3733	-0.0088
716.5531	-0.0038
716.7328	-0.0056
716.9126	-0.0039
717.0923	0.0074
717.2719	0.0021
717.4516	0.0023
717.6312	0.0057
717.8109	-0.0027
717.9905	-0.0041
718.1701	-0.0081
718.3496	-0.0117
718.5292	0.0003
718.7087	-0.0043
718.8882	-0.01
719.0677	-0.0023
719.2472	-0.0082
719.4267	0.0038
719.6061	-0.0019
719.7856	0.0107
719.965	0.0046
720.1443	-0.0061
720.3237	0.0145
720.5031	0.0019
720.6824	0.0003
720.8617	-0.0019
721.041	-0.0041
721.2203	0.0059
721.3995	0.0072
721.5788	-0.0006
721.758	0.0007
721.9372	-0.0042
722.1164	-0.0013
722.2956	0.002
722.4747	-0.0029
722.6538	-0.0054
722.8329	0.005
723.012	-0.0009
723.1911	-0.0038
723.3702	0.0002
723.5492	-0.001
723.7282	-0.0016
723.9072	-0.0025
724.0862	-0.0043
724.2652	-0.0041
724.4441	-0.0035
724.623	-0.0054
724.8019	-0.0098
724.9808	-0.0051
725.1597	-0.0062
725.3385	-0.0008
725.5174	0.0065
725.6962	-0.0042
725.875	-0.002
726.0538	-0.0002
726.2325	0.0121
726.4112	0.0069
726.59	-0.004
726.7687	-0.0079
726.9474	0.0093
727.126	-0.0026
727.3047	0.0024
727.4833	-0.0011
727.6619	-0.0018
727.8405	-0.0018
728.0191	0.0005
728.1976	-0.0007
728.3762	-0.0056
728.5547	-0.0048
728.7332	-0.0088
728.9116	-0.0039
729.0901	-0.0071
729.2686	-0.0031
729.447	-0.0067
729.6254	0.0036
729.8038	0.0019
729.9821	-0.0086
730.1605	-0.0035
730.3388	0.0035
730.5171	-0.003
730.6954	-0.0061
730.8737	0.0045
731.0519	0.0019
731.2302	-0.0041
731.4084	0.0051
731.5866	-0.0009
731.7648	-0.0092
731.9429	-0.0042
732.1211	-0.0151
732.2992	-0.0057
732.4773	-0.0037
732.6554	-0.0096
732.8335	-0.0063
733.0115	-0.0099
733.1896	0.0012
733.3676	-0.0166
733.5456	0.0058
733.7235	-0.0058
733.9015	-0.0101
734.0794	-0.0031
734.2574	-0.0014
734.4353	0.0027
734.6131	0.0039
734.791	0.007
734.9689	-0.0023
735.1467	-0.0023
735.3245	-0.0157
735.5023	-0.0106
735.68	0.0019
735.8578	0.0045
736.0355	-0.0172
736.2132	-0.0077
736.3909	-0.0001
736.5686	-0.0119
736.7463	0.0031
736.9239	-0.0066
737.1015	-0.0067
737.2791	0.0069
737.4567	0.0068
737.6343	-0.0068
737.8118	-0.0015
737.9894	-0.0009
738.1669	-0.0089
738.3444	-0.0092
738.5218	-0.0029
738.6993	-0.0045
738.8767	-0.0048
739.0541	0.0008
739.2315	-0.0069
739.4089	-0.0055
739.5863	0.0005
739.7636	-0.018
739.9409	0.0006
740.1182	0.0061
740.2955	0.0081
740.4728	-0.0062
740.65	-0.0034
740.8272	0.0005
741.0044	-0.0083
741.1816	-0.0116
741.3588	-0.0013
741.5359	-0.005
741.7131	-0.0118
741.8902	-0.0007
742.0673	0.0018
742.2444	-0.0146
742.4214	-0.0082
742.5985	-0.0089
742.7755	-0.0102
742.9525	-0.029
743.1295	-0.0086
743.3064	-0.0097
743.4834	0.0007
743.6603	-0.0117
743.8372	-0.0103
744.0141	0.0002
744.191	-0.0036
744.3678	-0.0008
744.5446	-0.0029
744.7215	0.001
744.8982	-0.0128
745.075	-0.0108
745.2518	-0.0063
745.4285	-0.0078
745.6052	-0.0092
745.7819	-0.0045
745.9586	-0.0122
746.1353	-0.0021
746.3119	-0.0056
746.4885	-0.0081
746.6651	-0.0074
746.8417	-0.0056
747.0183	-0.0029
747.1948	-0.0084
747.3714	-0.0017
747.5479	0.0053
747.7244	0
747.9008	0.0065
748.0773	-0.0036
748.2537	-0.0127
748.4301	-0.0142
748.6065	0.01
748.7829	0.0005
748.9593	-0.0044
749.1356	0.0015
749.3119	0.0029
749.4882	-0.0139
749.6645	-0.0021
749.8408	-0.0058
750.017	-0.0053
750.1933	-0.0048
750.3695	-0.0048
750.5457	0.0061
750.7218	0.001
750.898	0.0024
751.0741	-0.0041
751.2502	-0.0121
751.4263	-0.0066
751.6024	-0.0048
751.7784	-0.0019
751.9545	-0.0052
752.1305	-0.0039
752.3065	-0.0052
752.4825	0.0014
752.6584	-0.0065
752.8344	-0.0026
753.0103	-0.0038
753.1862	-0.0056
753.3621	-0.0106
753.5379	0.0039
753.7138	-0.0006
753.8896	0.0054
754.0654	0.0085
754.2412	0.0136
754.417	0.0013
754.5927	-0.0122
754.7685	-0.0118
754.9442	0.0049
755.1199	0.0141
755.2956	0.0031
755.4712	0.0069
755.6469	-0.0051
755.8225	-0.0025
755.9981	-0.0001
756.1736	0.0017
756.3492	0.0084
756.5248	-0.0029
756.7003	0.0027
756.8758	0.0144
757.0513	-0.0122
757.2267	-0.0049
757.4022	0.0053
757.5776	-0.0087
757.753	0.0083
757.9284	0.0039
758.1038	0.0043
758.2791	0.0016
758.4545	-0.0058
758.6298	-0.0054
758.8051	-0.0017
758.9803	-0.0028
759.1556	-0.0103
759.3308	-0.0113
759.506	0.0093
759.6812	-0.0034
759.8564	0.0066
760.0316	0.0009
760.2067	0.0069
760.3819	0.0022
760.557	0.01
760.732	0.0021
760.9071	-0.0112
761.0821	0.005
761.2572	-0.0012
761.4322	-0.0001
761.6072	0.0083
761.7821	-0.007
761.9571	0.0155
762.132	-0.0017
762.3069	-0.0031
762.4818	0.0013
762.6567	-0.0068
762.8316	-0.0019
763.0064	-0.0002
763.1812	-0.0033
763.356	-0.0123
763.5308	-0.0023
763.7055	0.006
763.8803	-0.0051
764.055	-0.0049
764.2297	-0.0102
764.4044	-0.0111
764.579	-0.0136
764.7537	-0.0167
764.9283	0.0052
765.1029	-0.0134
765.2775	-0.0129
765.4521	-0.0046
765.6266	-0.0103
765.8011	-0.0037
765.9756	-0.0012
766.1501	-0.0036
766.3246	0.0016
766.4991	0.0073
766.6735	0.0058
766.8479	-0.0049
767.0223	0.0062
767.1967	-0.011
767.371	0.0006
767.5454	-0.0017
767.7197	0.0026
767.894	0.0039
768.0683	-0.0157
768.2425	0.0019
768.4168	0.0063
768.591	-0.0031
768.7652	-0.0099
768.9394	0.0027
769.1135	-0.0049
769.2877	0.0048
769.4618	-0.001
769.6359	-0.0033
769.81	0.0072
769.984	-0.0003
770.1581	-0.0085
770.3321	-0.0015
770.5061	0.0018
770.6801	-0.0025
770.8541	0.0087
771.028	0.0094
771.202	-0.0032
771.3759	0.0052
771.5498	-0.0016
771.7236	0.0031
771.8975	-0.0056
772.0713	0.005
772.2451	0.0131
772.4189	0.0047
772.5927	0.0102
772.7665	-0.003
772.9402	-0.0067
773.1139	-0.006
773.2876	-0.0061
773.4613	0.0051
773.635	0.009
773.8086	0.0042
773.9822	0.0015
774.1558	0.0012
774.3294	-0.017
774.503	-0.0016
774.6765	-0.0063
774.8501	0.0014
775.0236	0.0024
775.1971	0.0069
775.3705	-0.0147
775.544	0.0004
775.7174	0.0029
775.8908	-0.0098
776.0642	0.0001
776.2376	-0.005
776.4109	-0.0134
776.5843	-0.0004
776.7576	0.0152
776.9309	0.0005
777.1041	0.0025
777.2774	0.0066
777.4506	-0.0043
777.6238	-0.0064
777.797	-0.0051
777.9702	-0.0092
778.1434	-0.0103
778.3165	-0.0064
778.4896	-0.0064
778.6627	0.0131
778.8358	-0.0034
779.0089	-0.0089
779.1819	0.0023
779.3549	0.014
779.5279	0.0066
779.7009	0.0041
779.8739	0.0018
780.0468	-0.0003
780.2197	0.0091
780.3926	0.0026
780.5655	-0.0048
780.7384	-0.004
780.9112	0.001
781.0841	-0.0126
781.2569	0.0085
781.4297	0.0053
781.6024	0.0112
781.7752	0.0072
781.9479	0.0103
782.1206	0.0006
782.2933	-0.0006
782.466	0.0037
782.6386	-0.0031
782.8113	0.0002
782.9839	0.0113
783.1565	0.0134
783.329	0.0082
783.5016	0.0054
783.6741	0.006
783.8466	0.004
784.0191	0.0106
784.1916	-0.0092
784.3641	-0.001
784.5365	-0.0006
784.7089	-0.0147
784.8813	-0.0099
785.0537	-0.0075
785.2261	-0.0005
785.3984	-0.0202
785.5707	-0.0009
785.743	-0.0042
785.9153	-0.0162
786.0876	0.0116
786.2598	-0.0174
786.432	-0.0059
786.6042	0.0024
786.7764	-0.0143
786.9486	0.0036
787.1207	-0.0062
787.2928	0.0196
787.4649	0.0131
787.637	0.0119
787.8091	0.0023
787.9811	-0.0075
788.1532	-0.0019
788.3252	0.0074
788.4972	0.0016
788.6691	0.0018
788.8411	0.0017
789.013	-0.0004
789.1849	-0.0001
789.3568	-0.0063
789.5287	-0.0081
789.7005	-0.0066
789.8723	-0.0053
790.0442	0.0175
790.2159	0.0133
790.3877	-0.0065
790.5595	-0.0161
790.7312	-0.0074
790.9029	0.0019
791.0746	-0.0151
791.2463	-0.0018
791.4179	0.0067
791.5896	-0.0163
791.7612	-0.0086
791.9328	0.008
792.1044	-0.0169
792.2759	-0.0145
792.4474	-0.0145
792.619	0.0001
792.7905	0.0021
792.9619	0.002
793.1334	0.0052
793.3048	0.0095
793.4762	0.0116
793.6476	0.0045
793.819	-0.0126
793.9904	-0.0026
794.1617	-0.0239
794.333	0.0028
794.5043	-0.0045
794.6756	-0.0259
794.8469	-0.0091
795.0181	-0.0033
795.1893	-0.0156
795.3605	-0.0007
795.5317	0.0003
795.7029	-0.0055
795.874	-0.0052
796.0452	-0.0023
796.2163	-0.0098
796.3873	0.0236
796.5584	0.0146
796.7294	-0.0101
796.9005	0.005
797.0715	0.0003
797.2425	-0.0183
797.4134	-0.0064
797.5844	0.0028
797.7553	-0.0114
797.9262	-0.0064
798.0971	-0.0107
798.2679	-0.0077
798.4388	-0.0016
798.6096	-0.0088
798.7804	-0.0068
798.9512	-0.0029
799.122	-0.0054
799.2927	-0.005
799.4635	0.0041
799.6342	-0.0175
799.8049	-0.0125
799.9755	-0.0056
800.1462	0.0009
800.3168	0.0005
800.4874	0.0005
800.658	0.026
800.8286	0.0093
800.9991	0.0132
801.1696	-0.0032
801.3402	0.0136
801.5106	-0.0041
801.6811	-0.0013
801.8516	0.016
802.022	0.009
802.1924	0.0176
802.3628	0.0232
802.5332	0.0176
802.7035	0.0231
802.8739	-0.0039
803.0442	0.0021
803.2145	0.0065
803.3847	-0.0176
803.555	0.001
803.7252	0.0054
803.8954	-0.0074
804.0656	-0.0218
804.2358	-0.0059
804.4059	0.0164
804.5761	-0.005
804.7462	0.0019
804.9163	-0.0138
805.0864	-0.0059
805.2564	-0.0064
805.4264	0.0021
805.5965	-0.0312
805.7665	0.0219
805.9364	0.0073
806.1064	0.0174
806.2763	0.007
806.4462	0.0237
806.6161	-0.0005
806.786	-0.0128
806.9559	-0.0198
807.1257	0.0008
807.2955	0.001
807.4653	-0.026
807.6351	-0.0139
807.8048	-0.0036
807.9746	-0.0053
808.1443	0.0031
808.314	0.0059
808.4837	-0.002
808.6533	0.0001
808.8229	0.0063
808.9926	-0.0067
809.1622	0.0091
809.3317	-0.0142
809.5013	-0.0206
809.6708	0.018
809.8403	0.0114
810.0098	-0.0064
810.1793	0.0062
810.3488	-0.0061
810.5182	-0.0221
810.6876	-0.0004
810.857	-0.0305
811.0264	0.0154
811.1958	-0.0012
811.3651	-0.0004
811.5344	-0.0038
811.7037	0.0028
811.873	-0.0286
812.0422	-0.009
812.2115	-0.0113
812.3807	-0.0117
812.5499	0.0004
812.7191	-0.0084
812.8882	-0.0111
813.0574	-0.007
813.2265	0.0007
813.3956	0.0089
813.5646	-0.0056
813.7337	-0.0113
813.9027	0.0142
814.0718	0.0129
814.2407	0.0028
814.4097	-0.0282
814.5787	-0.0267
814.7476	-0.0243
814.9165	0.0109
815.0854	-0.015
815.2543	-0.0036
815.4232	-0.0205
815.592	0.0169
815.7608	-0.0209
815.9296	0.0139
816.0984	0.0069
816.2671	-0.0001
816.4359	-0.0153
816.6046	0.0011
816.7733	-0.0083
816.942	-0.0052
817.1106	-0.0132
817.2793	-0.0091
817.4479	-0.0122
817.6165	-0.0107
817.785	0.0094
817.9536	-0.0225
818.1221	-0.0215
818.2906	-0.0078
818.4591	-0.0209
818.6276	-0.0092
818.7961	-0.0167
818.9645	0.0092
819.1329	0.0025
819.3013	0.0015
819.4697	0.0357
819.638	0.0019
819.8064	0.0019
819.9747	0.0168
820.143	-0.0198
820.3113	-0.0215
820.4795	-0.0196
820.6477	0.0022
820.816	0.0026
820.9842	0.0063
821.1523	-0.0199
821.3205	-0.0124
821.4886	-0.007
821.6567	0.0034
821.8248	0.0009
821.9929	0.0203
822.1609	0.0062
822.329	-0.0048
822.497	0.027
822.665	-0.0236
822.833	-0.0239
823.0009	0.0182
823.1688	-0.012
823.3367	-0.0218
823.5046	0.0111
823.6725	0.0072
823.8404	-0.001
824.0082	-0.0102
824.176	0.0114
824.3438	0.0099
824.5116	-0.0035
824.6793	0.0152
824.847	-0.0247
825.0147	-0.019
825.1824	0.006
825.3501	0.0086
825.5177	-0.0176
825.6854	-0.0083
825.853	0.0225
826.0206	-0.003
826.1881	-0.0125
826.3557	-0.046
826.5232	-0.0071
826.6907	-0.0594
826.8582	0.0084
827.0257	-0.0335
827.1931	-0.0052
827.3605	0.0163
827.528	-0.0112
827.6953	-0.0501
827.8627	-0.0225
828.03	0.0027
828.1974	0.0007
828.3647	-0.0194
828.532	-0.0176
828.6992	-0.0275
828.8665	-0.0097
829.0337	-0.0224
829.2009	0.027
829.3681	-0.0123
829.5352	0.0002
829.7024	-0.0363
829.8695	-0.008
830.0366	0.0452
830.2037	-0.0093
830.3707	0.021
830.5378	-0.0144
830.7048	0.0014
830.8718	-0.0163
831.0388	-0.035
831.2057	0.0035
831.3727	0.0265
831.5396	0.0003
831.7065	-0.0199
831.8734	0.0202
832.0402	-0.0103
832.2071	-0.0467
832.3739	-0.0069
832.5407	0.0033
832.7075	-0.0144
832.8742	-0.0195
833.041	-0.0056
833.2077	0.0274
833.3744	0.0039
833.541	-0.0063
833.7077	-0.0174
833.8743	-0.0521
834.0409	0.0146
834.2075	-0.0297
834.3741	-0.0118
834.5407	-0.0054
834.7072	-0.0066
834.8737	-0.0456
835.0402	-0.0136
835.2067	-0.0174
835.3731	-0.0043
835.5395	0.0016
835.706	-0.0016
835.8723	-0.0145
836.0387	-0.0097
836.2051	-0.016
836.3714	0.0367
836.5377	-0.0092
836.704	-0.0158
836.8703	0.0275
837.0365	0.0092
837.2027	0.0072
837.3689	-0.0095
837.5351	-0.0438
837.7013	-0.0187
837.8674	-0.0373
838.0335	-0.0229
838.1997	0.0162
838.3657	0.0121
838.5318	0.0033
838.6978	-0.0004
838.8639	0.0194
839.0299	-0.032
839.1958	-0.0512
839.3618	0.0047
839.5277	-0.0286
839.6937	-0.045
839.8596	0.0133
840.0254	-0.0134
840.1913	0.0402
840.3571	-0.0151
840.523	-0.0209
840.6888	0.0033
840.8545	-0.0266
841.0203	0.0129
841.186	0.0065
841.3517	0.0253
841.5174	0.0138
841.6831	-0.0225
841.8488	-0.0058
842.0144	-0.0338
842.18	0.0031
842.3456	0.0033
842.5112	-0.0429
842.6767	-0.0244
842.8422	-0.048
843.0077	0.012
843.1732	-0.0276
843.3387	-0.0578
843.5042	-0.0763
843.6696	0.0018
843.835	-0.0133
844.0004	0.0488
844.1657	0.0066
844.3311	-0.0096
844.4964	-0.0346
844.6617	-0.0137
844.827	-0.0187
844.9923	-0.0398
845.1575	-0.0248
845.3227	0.0087
845.4879	-0.0203
845.6531	-0.1069
845.8183	-0.0361
845.9834	0.0069
846.1485	-0.0594
846.3136	-0.0497
846.4787	-0.1301
846.6438	0.0042
846.8088	-0.1401
846.9738	-0.064
847.1388	-0.1194
847.3038	-0.0755
847.4687	-0.1273
847.6337	-0.053
847.7986	0.0454
847.9635	-0.0051
848.1284	-0.0309
848.2932	0.023
848.458	-0.091
848.6228	0.0538
848.7876	0.0642
848.9524	-0.0878
849.1172	-0.0565
849.2819	0.0063
849.4466	-0.0765
849.6113	-0.108
849.7759	0.0322
849.9406	0.0597
850.1052	0.064
850.2698	-0.0802
850.4344	0.0069
850.599	-0.1063
850.7635	-0.0284
850.928	0.001
851.0925	-0.0699
851.257	0.0438
851.4215	0.0161
851.5859	-0.0161
851.7503	-0.0217
851.9147	0.0091
852.0791	-0.0288
852.2434	-0.0509
852.4078	0.0481
852.5721	-0.0304
852.7364	-0.0527
852.9007	-0.1771
853.0649	-0.0456
853.2291	0.0139
853.3934	0.0153
853.5575	-0.1251
853.7217	-0.0653
853.8859	-0.169
854.05	-0.085
854.2141	-0.0479
854.3782	-0.1216
854.5423	-0.075
854.7063	0.0914
854.8703	0.0241
855.0343	-0.0139
855.1983	-0.1651
855.3623	0.078
855.5262	0.1139
855.6901	-0.087
855.854	-0.029
856.0179	0.0033
856.1818	0.0509
856.3456	-0.0731
856.5094	-0.1122
856.6732	-0.1405
856.837	-0.0658
857.0008	-0.0206
857.1645	-0.0763
857.3282	-0.183
857.4919	0.0146
857.6556	-0.0627
857.8192	-0.0794
857.9828	-0.052
858.1465	0.0388
858.31	-0.1652
858.4736	0.1183
858.6372	-0.2543
858.8007	-0.2569
858.9642	-0.1572
859.1277	-0.0523
859.2911	0.1566
859.4546	0.022
859.618	-0.4806
859.7814	-0.0339
859.9448	-0.0772
860.1081	-0.0615
860.2715	0.1155
860.4348	0.014
860.5981	-0.0426
860.7614	0.145
860.9246	0.4342
861.0879	-0.1194
861.2511	-0.0397
861.4143	-0.1388
861.5774	-0.0729
861.7406	-0.1942
861.9037	0.0483
862.0668	0.2267
862.2299	-0.038
862.393	-0.6113
862.556	-0.0711
862.7191	-0.1081
862.8821	-0.3026
863.0451	0.1608
863.208	-0.1717
863.371	0.2046
863.5339	-0.0965
863.6968	0.0125
863.8597	1.7578
864.0225	0.003
864.1854	0.1555
864.3482	0.3365
864.511	0.1533
864.6737	0.6257
864.8365	0.2924
864.9992	-0.47
865.1619	-0.1395
865.3246	-0.3635
865.4873	0.1414
865.65	0.1139
865.8126	0.1116
865.9752	0.3056
866.1378	-0.029
866.3004	-0
866.4629	0.2926
866.6254	-0.2896
866.7879	-0.2354
866.9504	0.8087
867.1129	-0
867.2753	0.4194
867.4377	-0.039
867.6001	-0.356
867.7625	0.4014
867.9249	-0.6279
868.0872	-0.0452
868.2495	0.0754
868.4118	-0.1904
868.5741	-0.4154
868.7363	-0.3035
868.8986	-0
869.0608	-0.0353
869.223	0.0557
869.3851	-0
869.5473	-0
869.7094	0.0923
869.8715	-0.2301
870.0336	-0
870.1957	-0.6975
870.3577	-0
870.5197	0.0504
870.6817	-0.3876
870.8437	-0.1238
871.0057	-0.359
871.1676	-0.3849
871.3295	-0.6633
871.4914	-0.4407
871.6533	-0.407
871.8151	-0.5291
871.977	-0
872.1388	-0
872.3006	-0.4864
872.4623	-0
872.6241	0.1949
872.7858	0.8384
872.9475	-0.255
873.1092	-0.3237
873.2709	-0
873.4325	-0
873.5941	0.4837
873.7557	-0
873.9173	-0
874.0789	-0.6653
874.2404	-0.3918
874.4019	0.1393
874.5634	-0.3941
874.7249	-0.0046
874.8863	0.3458
875.0478	-0.2563
875.2092	-0
875.3706	0.2357
875.5319	0.1489
875.6933	0.6316
875.8546	-0.4047
876.0159	0.0111
876.1772	0.7329
876.3385	-0
876.4997	0.4969
876.6609	-0.3355
876.8221	0.2331
876.9833	0.5843
877.1445	-0
877.3056	-0.0634
877.4667	-0.3052
877.6278	-0
877.7889	-0.2041
877.9499	-0
878.111	0.1489
878.272	-0
878.433	0.5242
878.5939	0.0523
878.7549	-0.2026
878.9158	-0.7735
879.0767	-0
879.2376	0.6258
879.3984	0.5723
879.5593	-0
879.7201	-0.029
879.8809	-0.7144
880.0417	-0.2765
880.2024	-0.1499
880.3632	-0.4175
880.5239	0.1709
880.6846	-0
880.8452	-2.5391
881.0059	-0
881.1665	0.1506
881.3271	0.8893
881.4877	-0.5069
881.6483	-0.6563
881.8088	-0.3959
881.9693	0.3743
882.1298	0.3743
882.2903	0.3743
