Data from MonoPyChalIsomerACN10uM410nmA_Absorbance_14-53-24-473.txt Node
Date: Fri Jul 05 14:53:24 BST 2024
User: LASERRRRR
Spectrometer: FLMT03099
Trigger mode: 0
Integration Time (sec): 1.000000E-1
Scans to average: 1
Electric dark correction enabled: true
Nonlinearity correction enabled: false
Boxcar width: 0
XAxis mode: Wavelengths
Number of Pixels in Spectrum: 3648
>>>>>Begin Spectral Data<<<<<
179.3399	-0.0376
179.5586	-0.0376
179.7771	-0.0376
179.9957	-0.0048
180.2143	1.8865
180.4329	0.2599
180.6514	0.3777
180.8699	-0
181.0885	-0.1896
181.307	0.0545
181.5255	-0.5725
181.744	-0
181.9625	-0
182.181	-0.7373
182.3994	-0
182.6179	-0.2345
182.8363	0.0796
183.0547	-0.3047
183.2732	0.022
183.4916	0.1064
183.71	-0.0103
183.9284	0.1266
184.1467	-0.0142
184.3651	0.0162
184.5835	-0.0808
184.8018	0.4071
185.0201	0.2273
185.2385	0.0739
185.4568	0.1396
185.6751	-0.0095
185.8934	0.0964
186.1117	0.2088
186.3299	0.2384
186.5482	0.29
186.7664	0.0469
186.9847	-0.1349
187.2029	0.0212
187.4211	0.1557
187.6393	0.1235
187.8575	-0.0486
188.0757	0.1203
188.2939	0.2239
188.512	-0.1948
188.7302	0.0388
188.9483	0.4945
189.1665	-0.0286
189.3846	0.4988
189.6027	0.1724
189.8208	0.2594
190.0389	0.149
190.257	0.0685
190.475	0.3027
190.6931	0.4858
190.9111	0.6603
191.1292	0.1133
191.3472	0.3349
191.5652	0.2098
191.7832	0.6733
192.0012	0.3875
192.2192	0.6548
192.4371	0.7972
192.6551	0.2193
192.873	0.4062
193.091	0.5015
193.3089	0.6563
193.5268	0.7768
193.7447	0.4817
193.9626	0.5207
194.1805	0.9383
194.3984	0.6711
194.6162	0.4346
194.8341	0.7051
195.0519	0.6783
195.2697	0.7771
195.4875	0.7062
195.7054	0.5644
195.9231	0.5563
196.1409	0.718
196.3587	0.6683
196.5765	0.5516
196.7942	0.6496
197.012	0.4786
197.2297	0.5414
197.4474	0.7343
197.6651	0.7252
197.8828	0.6254
198.1005	0.6398
198.3182	0.6873
198.5358	0.6953
198.7535	0.783
198.9711	0.5289
199.1888	0.7974
199.4064	0.8857
199.624	0.6647
199.8416	0.4601
200.0592	0.6997
200.2767	0.7086
200.4943	0.6361
200.7119	0.8108
200.9294	0.6643
201.1469	0.5838
201.3645	0.6131
201.582	0.5914
201.7995	0.6648
202.017	0.6161
202.2344	0.5672
202.4519	0.6973
202.6694	0.7091
202.8868	0.6107
203.1042	0.8042
203.3217	0.6626
203.5391	0.6217
203.7565	0.604
203.9739	0.6636
204.1913	0.6494
204.4086	0.6828
204.626	0.7369
204.8433	0.7106
205.0607	0.6029
205.278	0.6941
205.4953	0.6775
205.7126	0.6561
205.9299	0.6761
206.1472	0.6969
206.3644	0.6916
206.5817	0.6687
206.7989	0.6455
207.0162	0.6536
207.2334	0.7242
207.4506	0.7074
207.6678	0.5661
207.885	0.6859
208.1022	0.6349
208.3194	0.6817
208.5365	0.671
208.7537	0.6221
208.9708	0.5626
209.1879	0.6471
209.405	0.6975
209.6222	0.7148
209.8392	0.5947
210.0563	0.619
210.2734	0.6889
210.4905	0.6212
210.7075	0.6847
210.9245	0.6208
211.1416	0.6643
211.3586	0.6785
211.5756	0.6274
211.7926	0.616
212.0096	0.5856
212.2265	0.568
212.4435	0.5427
212.6604	0.6336
212.8774	0.6333
213.0943	0.5957
213.3112	0.5619
213.5281	0.5496
213.745	0.4944
213.9619	0.5285
214.1788	0.5015
214.3956	0.4746
214.6125	0.4923
214.8293	0.4683
215.0461	0.4863
215.2629	0.4652
215.4798	0.4538
215.6965	0.4226
215.9133	0.4416
216.1301	0.4173
216.3469	0.458
216.5636	0.3915
216.7803	0.3986
216.9971	0.3995
217.2138	0.3766
217.4305	0.3892
217.6472	0.3553
217.8639	0.3619
218.0805	0.3316
218.2972	0.3122
218.5138	0.3183
218.7305	0.3294
218.9471	0.3136
219.1637	0.3118
219.3803	0.2734
219.5969	0.274
219.8135	0.2569
220.0301	0.2602
220.2466	0.2724
220.4632	0.2595
220.6797	0.2519
220.8962	0.2462
221.1127	0.2521
221.3292	0.2479
221.5457	0.2535
221.7622	0.2413
221.9787	0.257
222.1951	0.2134
222.4116	0.2513
222.628	0.2485
222.8444	0.2497
223.0608	0.2613
223.2772	0.2572
223.4936	0.2633
223.71	0.2472
223.9264	0.2722
224.1427	0.2694
224.3591	0.2515
224.5754	0.2802
224.7917	0.2693
225.008	0.2582
225.2243	0.2747
225.4406	0.2806
225.6569	0.262
225.8732	0.2682
226.0894	0.2757
226.3057	0.2629
226.5219	0.2771
226.7381	0.2862
226.9543	0.276
227.1705	0.2713
227.3867	0.2826
227.6029	0.3105
227.8191	0.2996
228.0352	0.3065
228.2513	0.3039
228.4675	0.2883
228.6836	0.3065
228.8997	0.3048
229.1158	0.3114
229.3319	0.3084
229.548	0.3227
229.764	0.3155
229.9801	0.3331
230.1961	0.3071
230.4121	0.3322
230.6282	0.349
230.8442	0.3327
231.0602	0.3578
231.2761	0.3621
231.4921	0.3416
231.7081	0.3504
231.924	0.3441
232.14	0.3506
232.3559	0.3306
232.5718	0.3878
232.7877	0.3596
233.0036	0.3497
233.2195	0.3747
233.4353	0.3591
233.6512	0.3462
233.867	0.3705
234.0829	0.3576
234.2987	0.3482
234.5145	0.3673
234.7303	0.3884
234.9461	0.3915
235.1619	0.3775
235.3776	0.3892
235.5934	0.3794
235.8091	0.3637
236.0249	0.3845
236.2406	0.3758
236.4563	0.3852
236.672	0.395
236.8877	0.3897
237.1034	0.3995
237.319	0.3974
237.5347	0.4047
237.7503	0.3864
237.966	0.4132
238.1816	0.4173
238.3972	0.4059
238.6128	0.4107
238.8284	0.4163
239.0439	0.4125
239.2595	0.4043
239.475	0.4213
239.6906	0.3863
239.9061	0.3955
240.1216	0.4081
240.3371	0.3903
240.5526	0.4047
240.7681	0.4133
240.9836	0.3857
241.199	0.3975
241.4145	0.3867
241.6299	0.3745
241.8453	0.3773
242.0607	0.3752
242.2761	0.3564
242.4915	0.3676
242.7069	0.3544
242.9223	0.3428
243.1376	0.3438
243.353	0.338
243.5683	0.333
243.7836	0.3158
243.9989	0.32
244.2142	0.2948
244.4295	0.3176
244.6448	0.3059
244.86	0.2883
245.0753	0.2748
245.2905	0.2851
245.5057	0.2676
245.721	0.2676
245.9362	0.2596
246.1514	0.2699
246.3665	0.2559
246.5817	0.2542
246.7969	0.2428
247.012	0.2547
247.2271	0.2434
247.4423	0.2332
247.6574	0.2504
247.8725	0.2268
248.0876	0.2257
248.3026	0.2263
248.5177	0.2261
248.7328	0.2128
248.9478	0.2002
249.1628	0.1963
249.3779	0.2088
249.5929	0.2028
249.8079	0.2187
250.0228	0.1964
250.2378	0.1973
250.4528	0.1999
250.6677	0.1954
250.8827	0.1926
251.0976	0.19
251.3125	0.1964
251.5274	0.176
251.7423	0.1747
251.9572	0.1806
252.172	0.1757
252.3869	0.1847
252.6017	0.1837
252.8166	0.168
253.0314	0.157
253.2462	0.1676
253.461	0.1744
253.6758	0.1713
253.8906	0.1796
254.1053	0.1785
254.3201	0.1699
254.5348	0.1862
254.7496	0.1739
254.9643	0.1667
255.179	0.1669
255.3937	0.1627
255.6083	0.1687
255.823	0.1725
256.0377	0.1703
256.2523	0.1705
256.467	0.1541
256.6816	0.1709
256.8962	0.1599
257.1108	0.17
257.3254	0.1748
257.54	0.1654
257.7545	0.1669
257.9691	0.1726
258.1836	0.1674
258.3981	0.1776
258.6127	0.1808
258.8272	0.1668
259.0417	0.1722
259.2561	0.1753
259.4706	0.1708
259.6851	0.1544
259.8995	0.1632
260.114	0.1565
260.3284	0.1604
260.5428	0.158
260.7572	0.167
260.9716	0.1681
261.186	0.1668
261.4003	0.1634
261.6147	0.1756
261.829	0.1748
262.0433	0.1718
262.2577	0.1655
262.472	0.1583
262.6863	0.1581
262.9005	0.1556
263.1148	0.163
263.3291	0.1621
263.5433	0.167
263.7576	0.1534
263.9718	0.1563
264.186	0.1577
264.4002	0.159
264.6144	0.1657
264.8286	0.1735
265.0427	0.165
265.2569	0.1601
265.471	0.1493
265.6851	0.1546
265.8993	0.1571
266.1134	0.1539
266.3275	0.1557
266.5415	0.1593
266.7556	0.1747
266.9697	0.1608
267.1837	0.1614
267.3978	0.1634
267.6118	0.1639
267.8258	0.1701
268.0398	0.1492
268.2538	0.157
268.4677	0.1644
268.6817	0.1486
268.8957	0.1442
269.1096	0.1585
269.3235	0.1584
269.5374	0.1446
269.7514	0.1516
269.9652	0.1448
270.1791	0.1457
270.393	0.1414
270.6068	0.1561
270.8207	0.1458
271.0345	0.1463
271.2483	0.1457
271.4622	0.1435
271.676	0.1546
271.8897	0.127
272.1035	0.1493
272.3173	0.1454
272.531	0.1341
272.7448	0.143
272.9585	0.1235
273.1722	0.1502
273.3859	0.145
273.5996	0.122
273.8133	0.1412
274.0269	0.1343
274.2406	0.1382
274.4542	0.1435
274.6679	0.1249
274.8815	0.1317
275.0951	0.1433
275.3087	0.1365
275.5223	0.1441
275.7358	0.1429
275.9494	0.1362
276.1629	0.1252
276.3765	0.1463
276.59	0.1481
276.8035	0.1578
277.017	0.1309
277.2305	0.1314
277.444	0.1521
277.6574	0.1352
277.8709	0.1423
278.0843	0.1261
278.2978	0.1346
278.5112	0.1299
278.7246	0.1356
278.938	0.141
279.1513	0.1514
279.3647	0.1573
279.5781	0.1427
279.7914	0.1381
280.0047	0.153
280.2181	0.1443
280.4314	0.1468
280.6447	0.1484
280.8579	0.1428
281.0712	0.1421
281.2845	0.1497
281.4977	0.1594
281.711	0.1365
281.9242	0.135
282.1374	0.1599
282.3506	0.1416
282.5638	0.1436
282.7769	0.1424
282.9901	0.1567
283.2033	0.1641
283.4164	0.1517
283.6295	0.131
283.8426	0.1399
284.0557	0.1552
284.2688	0.1767
284.4819	0.1573
284.695	0.1487
284.908	0.1597
285.1211	0.1536
285.3341	0.1611
285.5471	0.1528
285.7601	0.1513
285.9731	0.1453
286.1861	0.1541
286.3991	0.1613
286.612	0.1664
286.825	0.1468
287.0379	0.1691
287.2508	0.1627
287.4637	0.164
287.6766	0.1633
287.8895	0.1668
288.1024	0.1747
288.3152	0.1629
288.5281	0.1524
288.7409	0.1621
288.9538	0.1664
289.1666	0.1531
289.3794	0.1605
289.5922	0.1575
289.8049	0.1747
290.0177	0.1608
290.2304	0.168
290.4432	0.1671
290.6559	0.1622
290.8686	0.1747
291.0813	0.1735
291.294	0.1736
291.5067	0.1744
291.7194	0.1653
291.932	0.1755
292.1447	0.174
292.3573	0.1717
292.5699	0.1654
292.7825	0.1689
292.9951	0.1622
293.2077	0.1618
293.4203	0.172
293.6328	0.1487
293.8454	0.1777
294.0579	0.1677
294.2704	0.1769
294.4829	0.1647
294.6954	0.1745
294.9079	0.1702
295.1204	0.1581
295.3328	0.1658
295.5453	0.1668
295.7577	0.1655
295.9701	0.1693
296.1825	0.1718
296.3949	0.1662
296.6073	0.1548
296.8197	0.1642
297.0321	0.1763
297.2444	0.162
297.4567	0.1752
297.6691	0.1789
297.8814	0.1606
298.0937	0.1606
298.306	0.1735
298.5182	0.1639
298.7305	0.17
298.9428	0.1705
299.155	0.1734
299.3672	0.161
299.5794	0.1524
299.7916	0.1704
300.0038	0.175
300.216	0.166
300.4282	0.1696
300.6403	0.1721
300.8525	0.1749
301.0646	0.1544
301.2767	0.1747
301.4888	0.1728
301.7009	0.1675
301.913	0.1631
302.125	0.1689
302.3371	0.1712
302.5491	0.175
302.7612	0.1811
302.9732	0.1718
303.1852	0.164
303.3972	0.1672
303.6092	0.1539
303.8211	0.1618
304.0331	0.1563
304.245	0.1532
304.457	0.1592
304.6689	0.1616
304.8808	0.1687
305.0927	0.1579
305.3046	0.1548
305.5164	0.1661
305.7283	0.1438
305.9401	0.1593
306.152	0.1542
306.3638	0.1474
306.5756	0.1476
306.7874	0.1518
306.9992	0.1599
307.2109	0.1485
307.4227	0.1314
307.6344	0.1396
307.8462	0.1264
308.0579	0.1353
308.2696	0.1356
308.4813	0.1289
308.693	0.1424
308.9046	0.135
309.1163	0.1288
309.328	0.1274
309.5396	0.1183
309.7512	0.13
309.9628	0.1221
310.1744	0.1239
310.386	0.1172
310.5976	0.123
310.8091	0.125
311.0207	0.1185
311.2322	0.1225
311.4437	0.1025
311.6552	0.1156
311.8667	0.1122
312.0782	0.0958
312.2897	0.1039
312.5012	0.1125
312.7126	0.1038
312.924	0.107
313.1355	0.1148
313.3469	0.1048
313.5583	0.11
313.7696	0.1073
313.981	0.1069
314.1924	0.1009
314.4037	0.0922
314.6151	0.107
314.8264	0.0961
315.0377	0.0868
315.249	0.1008
315.4603	0.0957
315.6716	0.0963
315.8828	0.0899
316.0941	0.1038
316.3053	0.0993
316.5165	0.0897
316.7277	0.0893
316.9389	0.104
317.1501	0.0926
317.3613	0.1042
317.5724	0.0841
317.7836	0.0875
317.9947	0.0887
318.2058	0.0933
318.417	0.0873
318.6281	0.0793
318.8391	0.0909
319.0502	0.0848
319.2613	0.0932
319.4723	0.0935
319.6834	0.0925
319.8944	0.0854
320.1054	0.0991
320.3164	0.0992
320.5274	0.0921
320.7383	0.0904
320.9493	0.0872
321.1602	0.1078
321.3712	0.0794
321.5821	0.0929
321.793	0.0975
322.0039	0.0853
322.2148	0.0985
322.4257	0.0908
322.6365	0.1101
322.8474	0.0929
323.0582	0.0969
323.269	0.0892
323.4798	0.1038
323.6906	0.0998
323.9014	0.1037
324.1122	0.1067
324.3229	0.0969
324.5337	0.0944
324.7444	0.09
324.9551	0.1073
325.1658	0.1062
325.3765	0.0944
325.5872	0.0924
325.7979	0.09
326.0085	0.098
326.2192	0.1051
326.4298	0.1008
326.6404	0.0893
326.851	0.0896
327.0616	0.0905
327.2722	0.1002
327.4828	0.1006
327.6933	0.0904
327.9039	0.1014
328.1144	0.108
328.3249	0.1043
328.5354	0.0842
328.7459	0.0901
328.9564	0.0905
329.1669	0.1008
329.3773	0.0969
329.5878	0.0917
329.7982	0.0957
330.0086	0.1009
330.219	0.114
330.4294	0.1009
330.6398	0.0902
330.8502	0.0938
331.0605	0.0987
331.2708	0.1026
331.4812	0.1022
331.6915	0.0947
331.9018	0.1081
332.1121	0.0992
332.3224	0.1048
332.5326	0.1079
332.7429	0.1029
332.9531	0.116
333.1633	0.0988
333.3735	0.1049
333.5837	0.1074
333.7939	0.0997
334.0041	0.1138
334.2143	0.101
334.4244	0.0934
334.6346	0.0903
334.8447	0.1133
335.0548	0.0957
335.2649	0.0921
335.475	0.1158
335.685	0.1017
335.8951	0.1019
336.1051	0.1013
336.3152	0.1083
336.5252	0.1098
336.7352	0.1168
336.9452	0.1151
337.1552	0.1027
337.3652	0.0998
337.5751	0.104
337.7851	0.1142
337.995	0.0872
338.2049	0.109
338.4148	0.0978
338.6247	0.1177
338.8346	0.1059
339.0445	0.0953
339.2543	0.1109
339.4642	0.1117
339.674	0.1008
339.8838	0.1074
340.0936	0.114
340.3034	0.1157
340.5132	0.1221
340.7229	0.1158
340.9327	0.111
341.1424	0.1128
341.3522	0.1319
341.5619	0.1042
341.7716	0.1101
341.9813	0.1203
342.1909	0.102
342.4006	0.1224
342.6102	0.1309
342.8199	0.1043
343.0295	0.1171
343.2391	0.1156
343.4487	0.1266
343.6583	0.1136
343.8679	0.122
344.0774	0.1223
344.287	0.1176
344.4965	0.1176
344.706	0.1333
344.9155	0.126
345.125	0.1052
345.3345	0.1279
345.544	0.113
345.7534	0.1339
345.9629	0.1182
346.1723	0.134
346.3817	0.1158
346.5911	0.1271
346.8005	0.1301
347.0099	0.1162
347.2193	0.1306
347.4286	0.1162
347.638	0.1298
347.8473	0.1343
348.0566	0.1329
348.2659	0.1364
348.4752	0.14
348.6845	0.13
348.8937	0.1297
349.103	0.1476
349.3122	0.1253
349.5214	0.1197
349.7306	0.1303
349.9398	0.1308
350.149	0.1349
350.3582	0.1331
350.5674	0.1482
350.7765	0.1286
350.9856	0.1419
351.1948	0.1496
351.4039	0.1374
351.613	0.1283
351.822	0.122
352.0311	0.1451
352.2402	0.1477
352.4492	0.1455
352.6582	0.1393
352.8672	0.1458
353.0762	0.1488
353.2852	0.1412
353.4942	0.1416
353.7032	0.1436
353.9121	0.1478
354.1211	0.1427
354.33	0.144
354.5389	0.1545
354.7478	0.1458
354.9567	0.1442
355.1655	0.1367
355.3744	0.1676
355.5833	0.1523
355.7921	0.166
356.0009	0.1542
356.2097	0.1689
356.4185	0.1603
356.6273	0.171
356.8361	0.1624
357.0448	0.1539
357.2536	0.1385
357.4623	0.1681
357.671	0.1521
357.8797	0.1685
358.0884	0.163
358.2971	0.1572
358.5057	0.1544
358.7144	0.1597
358.923	0.1724
359.1316	0.1663
359.3402	0.1662
359.5488	0.1786
359.7574	0.1649
359.966	0.1842
360.1746	0.1674
360.3831	0.1708
360.5916	0.1672
360.8002	0.1596
361.0087	0.1858
361.2172	0.1751
361.4256	0.1683
361.6341	0.1855
361.8426	0.195
362.051	0.1725
362.2594	0.1851
362.4678	0.1744
362.6762	0.2057
362.8846	0.1819
363.093	0.1964
363.3014	0.184
363.5097	0.1695
363.718	0.1928
363.9264	0.1923
364.1347	0.1985
364.343	0.1998
364.5513	0.2073
364.7595	0.1966
364.9678	0.1959
365.176	0.2065
365.3842	0.2023
365.5925	0.2004
365.8007	0.1939
366.0089	0.1904
366.217	0.1771
366.4252	0.2023
366.6333	0.2154
366.8415	0.2136
367.0496	0.209
367.2577	0.217
367.4658	0.2064
367.6739	0.2102
367.882	0.2271
368.09	0.2052
368.2981	0.2196
368.5061	0.2141
368.7141	0.215
368.9221	0.2241
369.1301	0.2117
369.3381	0.2167
369.5461	0.224
369.754	0.2215
369.962	0.2215
370.1699	0.2307
370.3778	0.2372
370.5857	0.2077
370.7936	0.2186
371.0015	0.2221
371.2093	0.2298
371.4172	0.242
371.625	0.2272
371.8328	0.2298
372.0406	0.2074
372.2484	0.2206
372.4562	0.2354
372.664	0.2284
372.8717	0.2402
373.0795	0.2199
373.2872	0.2455
373.4949	0.2315
373.7026	0.2227
373.9103	0.2595
374.118	0.2557
374.3256	0.2422
374.5333	0.2334
374.7409	0.2321
374.9485	0.257
375.1561	0.2531
375.3637	0.2501
375.5713	0.2476
375.7789	0.2434
375.9864	0.2413
376.194	0.2383
376.4015	0.2532
376.609	0.2852
376.8165	0.2383
377.024	0.2443
377.2315	0.2541
377.4389	0.2575
377.6464	0.2421
377.8538	0.2714
378.0612	0.2452
378.2686	0.2522
378.476	0.2912
378.6834	0.2531
378.8908	0.2563
379.0981	0.27
379.3055	0.2596
379.5128	0.2642
379.7201	0.2732
379.9274	0.2726
380.1347	0.2707
380.342	0.26
380.5492	0.2665
380.7565	0.2774
380.9637	0.2709
381.1709	0.2705
381.3781	0.2596
381.5853	0.2616
381.7925	0.2609
381.9997	0.271
382.2068	0.2814
382.4139	0.2657
382.6211	0.2561
382.8282	0.2634
383.0353	0.2655
383.2424	0.2659
383.4494	0.2838
383.6565	0.2569
383.8635	0.2535
384.0706	0.2577
384.2776	0.2805
384.4846	0.2648
384.6916	0.2615
384.8986	0.2501
385.1055	0.2687
385.3125	0.2628
385.5194	0.2689
385.7263	0.2831
385.9333	0.2718
386.1402	0.2775
386.347	0.2736
386.5539	0.2448
386.7608	0.2827
386.9676	0.2492
387.1744	0.2735
387.3813	0.2634
387.5881	0.2677
387.7948	0.2737
388.0016	0.2703
388.2084	0.273
388.4151	0.2566
388.6219	0.2782
388.8286	0.2609
389.0353	0.2765
389.242	0.269
389.4487	0.2586
389.6553	0.2428
389.862	0.2418
390.0686	0.2543
390.2753	0.2646
390.4819	0.2614
390.6885	0.2483
390.8951	0.248
391.1016	0.2443
391.3082	0.2529
391.5147	0.2461
391.7213	0.2414
391.9278	0.2513
392.1343	0.2543
392.3408	0.2446
392.5473	0.249
392.7537	0.2419
392.9602	0.2494
393.1666	0.2444
393.373	0.2501
393.5794	0.2585
393.7858	0.2319
393.9922	0.2456
394.1986	0.2603
394.4049	0.2573
394.6113	0.234
394.8176	0.2352
395.0239	0.2441
395.2302	0.2471
395.4365	0.2213
395.6428	0.2349
395.8491	0.2232
396.0553	0.2227
396.2615	0.2358
396.4678	0.2435
396.674	0.2217
396.8802	0.2137
397.0863	0.2397
397.2925	0.2204
397.4987	0.2357
397.7048	0.2355
397.9109	0.2314
398.117	0.2222
398.3231	0.221
398.5292	0.2473
398.7353	0.2476
398.9413	0.2278
399.1474	0.2265
399.3534	0.2199
399.5594	0.2081
399.7654	0.2339
399.9714	0.2368
400.1774	0.2308
400.3833	0.2285
400.5893	0.2304
400.7952	0.2315
401.0011	0.2322
401.207	0.23
401.4129	0.2374
401.6188	0.2234
401.8247	0.2201
402.0305	0.2299
402.2364	0.2211
402.4422	0.2356
402.648	0.2357
402.8538	0.2344
403.0596	0.2374
403.2654	0.2354
403.4711	0.2311
403.6768	0.2327
403.8826	0.2171
404.0883	0.2372
404.294	0.2291
404.4997	0.2209
404.7054	0.2378
404.911	0.2223
405.1167	0.2331
405.3223	0.2516
405.5279	0.2501
405.7335	0.2461
405.9391	0.2428
406.1447	0.2099
406.3502	0.2376
406.5558	0.2364
406.7613	0.2401
406.9668	0.2253
407.1724	0.2197
407.3778	0.2248
407.5833	0.2205
407.7888	0.2318
407.9942	0.2463
408.1997	0.2271
408.4051	0.2279
408.6105	0.2249
408.8159	0.2118
409.0213	0.2184
409.2267	0.2208
409.432	0.221
409.6374	0.2311
409.8427	0.231
410.048	0.2241
410.2533	0.2137
410.4586	0.2454
410.6639	0.2124
410.8691	0.2177
411.0744	0.2178
411.2796	0.2059
411.4848	0.2216
411.69	0.2071
411.8952	0.2329
412.1004	0.2159
412.3056	0.2331
412.5107	0.2199
412.7158	0.2481
412.921	0.2152
413.1261	0.2153
413.3312	0.2102
413.5362	0.2093
413.7413	0.2082
413.9464	0.2105
414.1514	0.2268
414.3564	0.2145
414.5614	0.206
414.7664	0.2303
414.9714	0.2222
415.1764	0.2279
415.3813	0.2195
415.5863	0.2045
415.7912	0.2214
415.9961	0.2311
416.201	0.2469
416.4059	0.2399
416.6108	0.217
416.8156	0.2189
417.0205	0.2271
417.2253	0.2126
417.4301	0.2226
417.6349	0.2091
417.8397	0.2184
418.0445	0.2257
418.2492	0.2094
418.454	0.2102
418.6587	0.2143
418.8634	0.2169
419.0681	0.1965
419.2728	0.1947
419.4775	0.2082
419.6822	0.2158
419.8868	0.1831
420.0915	0.2054
420.2961	0.2086
420.5007	0.2006
420.7053	0.2183
420.9099	0.2086
421.1144	0.2122
421.319	0.1874
421.5235	0.2142
421.728	0.206
421.9325	0.2019
422.137	0.202
422.3415	0.2062
422.546	0.2186
422.7504	0.1888
422.9549	0.2039
423.1593	0.2011
423.3637	0.2084
423.5681	0.21
423.7725	0.2006
423.9769	0.2057
424.1812	0.1716
424.3856	0.181
424.5899	0.1965
424.7942	0.1845
424.9985	0.2029
425.2028	0.182
425.4071	0.2112
425.6113	0.175
425.8156	0.1811
426.0198	0.1768
426.224	0.1782
426.4282	0.1871
426.6324	0.1757
426.8366	0.1929
427.0407	0.1799
427.2449	0.1717
427.449	0.1982
427.6531	0.147
427.8572	0.1718
428.0613	0.1672
428.2654	0.1622
428.4694	0.1743
428.6735	0.1763
428.8775	0.1779
429.0815	0.1892
429.2855	0.158
429.4895	0.1753
429.6935	0.1646
429.8975	0.1745
430.1014	0.1591
430.3053	0.1367
430.5093	0.1648
430.7132	0.1499
430.9171	0.1474
431.1209	0.152
431.3248	0.1522
431.5286	0.1587
431.7325	0.1517
431.9363	0.143
432.1401	0.1434
432.3439	0.1507
432.5477	0.1236
432.7514	0.1231
432.9552	0.1493
433.1589	0.1423
433.3627	0.1339
433.5664	0.1332
433.7701	0.1274
433.9737	0.1218
434.1774	0.1293
434.3811	0.1111
434.5847	0.1307
434.7883	0.1265
434.9919	0.1038
435.1955	0.117
435.3991	0.1195
435.6027	0.1266
435.8062	0.1085
436.0098	0.1086
436.2133	0.1158
436.4168	0.1045
436.6203	0.1052
436.8238	0.096
437.0272	0.1117
437.2307	0.1212
437.4341	0.1257
437.6375	0.1087
437.841	0.0919
438.0443	0.1042
438.2477	0.1024
438.4511	0.0872
438.6545	0.1182
438.8578	0.1056
439.0611	0.081
439.2644	0.0877
439.4677	0.0867
439.671	0.0852
439.8743	0.0845
440.0775	0.0879
440.2808	0.0777
440.484	0.0724
440.6872	0.0699
440.8904	0.0802
441.0936	0.0814
441.2967	0.077
441.4999	0.0746
441.703	0.07
441.9062	0.0668
442.1093	0.0933
442.3124	0.0714
442.5155	0.0637
442.7185	0.0613
442.9216	0.0623
443.1246	0.075
443.3276	0.0571
443.5307	0.0592
443.7337	0.067
443.9366	0.079
444.1396	0.0529
444.3426	0.0575
444.5455	0.057
444.7484	0.0537
444.9513	0.0579
445.1542	0.0684
445.3571	0.0487
445.56	0.0586
445.7628	0.0321
445.9657	0.0508
446.1685	0.0467
446.3713	0.054
446.5741	0.0344
446.7769	0.026
446.9797	0.035
447.1824	0.0472
447.3852	0.0375
447.5879	0.0578
447.7906	0.0478
447.9933	0.0412
448.196	0.0398
448.3986	0.057
448.6013	0.0387
448.8039	0.026
449.0066	0.0301
449.2092	0.0389
449.4118	0.0308
449.6143	0.0346
449.8169	0.0465
450.0195	0.0141
450.222	0.0183
450.4245	0.0409
450.627	0.0392
450.8295	0.0227
451.032	0.0209
451.2345	0.0359
451.4369	0.0509
451.6394	0.0337
451.8418	0.0169
452.0442	0.0252
452.2466	0.0334
452.449	0.0034
452.6513	0.0279
452.8537	0.0143
453.056	0.0137
453.2583	0.0115
453.4607	0.0179
453.663	0.0197
453.8652	0.033
454.0675	0.013
454.2697	0.0253
454.472	0.0097
454.6742	0.0152
454.8764	0.023
455.0786	0.0172
455.2808	0.0084
455.4829	0.0131
455.6851	0.0158
455.8872	0.0286
456.0893	0.0339
456.2915	-0.0023
456.4935	0.0263
456.6956	-0.0015
456.8977	0.0179
457.0997	0.0132
457.3018	0.0036
457.5038	0.0149
457.7058	0.0072
457.9078	0.0002
458.1098	0.013
458.3117	0.0139
458.5137	0.0196
458.7156	0.0225
458.9175	-0.0069
459.1194	0.0048
459.3213	0.0024
459.5232	0.002
459.725	0.009
459.9269	0.01
460.1287	-0.0033
460.3305	0.0011
460.5323	0.0172
460.7341	-0.0049
460.9359	0.008
461.1376	0.0223
461.3394	-0.0026
461.5411	0.0053
461.7428	0.0032
461.9445	0.0128
462.1462	0.0074
462.3479	-0.0049
462.5495	-0.0001
462.7512	0.0076
462.9528	0.011
463.1544	-0.0134
463.356	-0.0034
463.5576	0.0051
463.7592	0.0021
463.9607	0.0002
464.1623	0.0084
464.3638	0.0108
464.5653	-0.0101
464.7668	0.0098
464.9683	0.011
465.1697	0.0047
465.3712	-0.0044
465.5726	0.0031
465.7741	0.0053
465.9755	-0.001
466.1769	0.009
466.3782	0.005
466.5796	-0.0098
466.7809	0.0136
466.9823	0.0013
467.1836	-0.0014
467.3849	0.0063
467.5862	-0.0045
467.7875	-0.0107
467.9887	0.0188
468.19	0.002
468.3912	-0.0215
468.5924	-0.0182
468.7936	-0.0048
468.9948	0.0096
469.196	0.0089
469.3972	-0.0069
469.5983	-0.0014
469.7994	0.0093
470.0006	-0.0034
470.2017	-0.0084
470.4027	-0.0095
470.6038	0.0109
470.8049	-0.0144
471.0059	-0.0192
471.2069	-0.0227
471.408	0.0051
471.6089	0.0004
471.8099	-0.0052
472.0109	0.0154
472.2119	-0.0264
472.4128	-0.0218
472.6137	0.0076
472.8146	-0.0031
473.0155	-0.0042
473.2164	-0.012
473.4173	-0.0035
473.6181	-0.0106
473.819	-0.014
474.0198	-0.0062
474.2206	-0.0156
474.4214	-0.0075
474.6222	-0.006
474.8229	-0.0055
475.0237	-0.0121
475.2244	-0.0153
475.4251	-0.0042
475.6258	0.001
475.8265	-0.0091
476.0272	0.0049
476.2278	-0.0031
476.4285	-0.01
476.6291	-0.0203
476.8297	-0.009
477.0303	-0.0096
477.2309	-0.0005
477.4315	-0.0146
477.632	-0.0015
477.8326	-0.0064
478.0331	0.0085
478.2336	0.0006
478.4341	-0.0099
478.6346	-0.0136
478.8351	-0.0061
479.0355	-0.0076
479.236	-0.0015
479.4364	-0.002
479.6368	-0.004
479.8372	-0.0082
480.0376	-0.0039
480.2379	-0.0205
480.4383	-0.0243
480.6386	0.0043
480.8389	-0.0052
481.0392	-0.0055
481.2395	-0.0107
481.4398	-0.0063
481.6401	0.0012
481.8403	-0.0069
482.0405	-0.0178
482.2408	-0.0065
482.441	0.0094
482.6411	-0.0182
482.8413	-0.0056
483.0415	-0.0141
483.2416	-0.0143
483.4417	-0.012
483.6419	-0.0181
483.8419	-0.0158
484.042	-0.0012
484.2421	-0.0046
484.4422	-0.0114
484.6422	-0.0071
484.8422	-0.0085
485.0422	-0.0106
485.2422	0.0047
485.4422	-0.0156
485.6422	0.0001
485.8421	-0.0104
486.042	-0.0049
486.242	-0.0093
486.4419	-0.0054
486.6417	-0.0126
486.8416	-0.011
487.0415	-0.0018
487.2413	-0.01
487.4411	0.0025
487.641	-0.0116
487.8408	-0.0069
488.0405	-0.0187
488.2403	-0.0231
488.4401	0.0057
488.6398	-0.0091
488.8395	-0.0087
489.0392	-0.0108
489.2389	-0.0177
489.4386	-0.0171
489.6383	-0.0085
489.8379	-0.0036
490.0376	-0.0191
490.2372	-0.0202
490.4368	-0.0095
490.6364	-0.0179
490.836	-0.015
491.0355	-0.012
491.2351	-0.0183
491.4346	-0.0126
491.6341	-0.0237
491.8336	0.0006
492.0331	-0.0227
492.2326	-0.0134
492.432	-0.0019
492.6315	-0.0167
492.8309	-0.0138
493.0303	-0.0148
493.2297	-0.0157
493.4291	-0.0093
493.6284	-0.0136
493.8278	-0.0043
494.0271	-0.0045
494.2264	-0.0001
494.4257	-0.0237
494.625	-0.0084
494.8243	-0.0243
495.0236	-0.0087
495.2228	-0.0155
495.422	-0.0078
495.6213	-0.0025
495.8205	-0.01
496.0196	-0.0037
496.2188	-0.0115
496.418	-0.0122
496.6171	-0.0086
496.8162	-0.0047
497.0153	-0.0113
497.2144	-0.0164
497.4135	-0.0106
497.6126	-0.016
497.8116	-0.0152
498.0107	-0.0002
498.2097	-0.0126
498.4087	-0.0208
498.6077	-0.0154
498.8067	-0.0215
499.0056	-0.0008
499.2046	-0.0117
499.4035	-0.0231
499.6024	-0.0153
499.8013	-0.0121
500.0002	-0.012
500.199	-0.0177
500.3979	-0.0193
500.5967	-0.032
500.7956	-0.0133
500.9944	-0.0149
501.1932	-0.0143
501.3919	-0.0151
501.5907	-0.0136
501.7895	-0.0084
501.9882	-0.0171
502.1869	-0.0183
502.3856	-0.0312
502.5843	-0.0208
502.783	-0.0047
502.9816	-0.0156
503.1803	-0.0163
503.3789	-0.0173
503.5775	0.0001
503.7761	-0.0199
503.9747	-0.0131
504.1732	-0.013
504.3718	-0.0084
504.5703	-0.0178
504.7689	-0.0162
504.9674	-0.018
505.1658	-0.0116
505.3643	-0.0121
505.5628	-0.0127
505.7612	-0.0164
505.9597	-0.0014
506.1581	-0.0211
506.3565	-0.0064
506.5549	-0.0042
506.7532	-0.0225
506.9516	-0.0252
507.1499	-0.0018
507.3482	-0.0161
507.5465	-0.0195
507.7448	-0.0091
507.9431	-0.0033
508.1414	-0.0109
508.3396	-0.0195
508.5379	-0.0057
508.7361	-0.0117
508.9343	-0.0084
509.1325	-0.0085
509.3306	-0.0097
509.5288	-0.0171
509.7269	-0.0118
509.9251	-0.0202
510.1232	-0.0193
510.3213	-0.0039
510.5193	-0.0107
510.7174	-0.0244
510.9154	-0.0144
511.1135	-0.0106
511.3115	-0.0191
511.5095	-0.0144
511.7075	-0.016
511.9055	-0.0172
512.1034	-0.0208
512.3014	-0.0085
512.4993	-0.0082
512.6972	-0.0179
512.8951	-0.0263
513.093	-0.0165
513.2908	-0.0101
513.4887	-0.0065
513.6865	-0.0166
513.8844	-0.0067
514.0822	-0.0082
514.2799	-0.0116
514.4777	-0.0137
514.6755	-0.0152
514.8732	-0.0131
515.0709	-0.0124
515.2687	-0.009
515.4664	-0.011
515.664	-0.0072
515.8617	-0.0194
516.0594	-0.0248
516.257	-0.0092
516.4546	-0.0259
516.6522	-0.0059
516.8498	-0.0081
517.0474	-0.0053
517.2449	-0.0068
517.4425	-0.0232
517.64	-0.0149
517.8375	-0.004
518.035	-0.0099
518.2325	-0.0145
518.43	-0.0138
518.6274	-0.0124
518.8249	-0.015
519.0223	-0.0122
519.2197	-0.0102
519.4171	-0.0118
519.6145	-0.0124
519.8118	-0.0064
520.0092	-0.0121
520.2065	-0.0198
520.4038	-0.0209
520.6011	-0.0038
520.7984	-0.0138
520.9956	-0.0164
521.1929	-0.018
521.3901	-0.0052
521.5874	-0.012
521.7846	-0.0093
521.9818	-0.0215
522.1789	-0.0197
522.3761	-0.0091
522.5732	-0.0088
522.7704	-0.0142
522.9675	-0.0127
523.1646	-0.0138
523.3617	-0.008
523.5587	-0.0098
523.7558	-0.0173
523.9528	-0.0108
524.1498	-0.0077
524.3468	-0.008
524.5438	-0.0194
524.7408	-0.0132
524.9378	-0.0077
525.1347	-0.0145
525.3316	-0.0073
525.5285	-0.0114
525.7254	-0.0096
525.9223	-0.0096
526.1192	-0.0123
526.316	-0.0133
526.5129	-0.0021
526.7097	-0.0055
526.9065	-0.01
527.1033	-0.0188
527.3	-0.0103
527.4968	-0.0125
527.6935	-0.0022
527.8903	-0.0229
528.087	-0.0099
528.2837	-0.0125
528.4804	-0.0169
528.677	-0.0097
528.8737	-0.004
529.0703	-0.0094
529.2669	-0.0065
529.4635	-0.0067
529.6601	0.0002
529.8567	-0.0174
530.0532	-0.0066
530.2498	-0.0034
530.4463	-0.0021
530.6428	-0.0088
530.8393	-0.0067
531.0358	-0.0152
531.2322	-0.0055
531.4287	-0.0096
531.6251	-0.0194
531.8215	-0.0002
532.0179	-0.0009
532.2143	0.0036
532.4107	-0.006
532.607	-0.0073
532.8034	-0.0127
532.9997	-0.0036
533.196	-0.0066
533.3923	-0.0074
533.5886	-0.0032
533.7848	-0.0055
533.9811	-0.0044
534.1773	-0.0147
534.3735	0.0032
534.5697	-0.0004
534.7659	0.0019
534.9621	0.0008
535.1582	-0.0034
535.3544	-0.0119
535.5505	-0.0114
535.7466	0.0007
535.9427	-0.0082
536.1387	-0.0017
536.3348	-0.0048
536.5308	0.0047
536.7269	-0.0124
536.9229	0.0014
537.1189	-0.008
537.3148	-0.0125
537.5108	-0.0134
537.7068	-0.0074
537.9027	-0.0081
538.0986	-0.006
538.2945	-0.0155
538.4904	-0.0104
538.6863	-0.0029
538.8821	-0.0057
539.078	-0.0093
539.2738	-0.009
539.4696	-0.0082
539.6654	0
539.8611	0.0041
540.0569	-0.0038
540.2526	-0.0139
540.4484	-0.0011
540.6441	0.007
540.8398	-0.0096
541.0355	-0.0008
541.2311	-0.004
541.4268	-0.0127
541.6224	0.0044
541.818	-0.0038
542.0136	-0.0071
542.2092	-0.0034
542.4048	-0.009
542.6003	0.0029
542.7959	-0.0095
542.9914	-0.0072
543.1869	0.0044
543.3824	-0.007
543.5779	-0.0028
543.7734	-0.0061
543.9688	-0.0126
544.1642	-0.0007
544.3596	0.003
544.555	-0.0056
544.7504	-0.006
544.9458	-0.0125
545.1411	-0.0077
545.3365	-0.007
545.5318	-0.003
545.7271	-0.0002
545.9224	-0.0073
546.1177	-0.0004
546.3129	0.002
546.5081	-0.0063
546.7034	0.0002
546.8986	-0.0097
547.0938	-0.0093
547.289	-0.0103
547.4841	-0.0079
547.6793	0.005
547.8744	-0.0044
548.0695	-0.0012
548.2646	-0.0111
548.4597	-0.0105
548.6548	-0.0089
548.8498	-0.0009
549.0448	-0.0064
549.2399	-0.0083
549.4349	0.0072
549.6298	-0.002
549.8248	-0.005
550.0198	-0.0039
550.2147	-0.01
550.4096	-0.009
550.6045	-0.0038
550.7994	0.0027
550.9943	-0.0054
551.1892	-0.0047
551.384	0.0059
551.5788	-0.0088
551.7737	-0.0001
551.9685	0.0012
552.1632	0.0052
552.358	-0.0026
552.5528	0.0031
552.7475	-0.0057
552.9422	0.0043
553.1369	0.0055
553.3316	-0.0004
553.5263	-0.0142
553.7209	0.0045
553.9156	-0.0131
554.1102	-0.0054
554.3048	-0.007
554.4994	0.0066
554.694	-0.0028
554.8885	-0.0084
555.0831	-0.0034
555.2776	-0.0117
555.4721	-0.0092
555.6666	-0.0088
555.8611	0.0138
556.0555	-0.0057
556.25	-0.0011
556.4444	-0.0104
556.6388	0.001
556.8332	-0.0042
557.0276	-0.0007
557.222	-0.0039
557.4163	-0.0022
557.6107	-0.0095
557.805	0.002
557.9993	-0.0011
558.1936	-0.0022
558.3879	0.0059
558.5821	-0.0079
558.7764	-0.0042
558.9706	-0.0079
559.1648	0.0039
559.359	-0.0039
559.5532	-0.0143
559.7473	-0.0007
559.9415	-0.0001
560.1356	-0.0005
560.3297	-0.017
560.5238	-0.0041
560.7179	-0.009
560.9119	-0.0025
561.106	-0.009
561.3	-0.0093
561.494	-0.0056
561.688	-0.0154
561.882	-0.0144
562.076	-0.001
562.2699	0.0038
562.4639	-0.0038
562.6578	-0.0035
562.8517	0.0072
563.0456	-0.0009
563.2395	-0.0083
563.4333	-0.0045
563.6272	0.0069
563.821	-0.0046
564.0148	0.0001
564.2086	-0.0034
564.4024	-0.0042
564.5961	-0.0103
564.7899	-0.0009
564.9836	-0.0009
565.1773	-0.004
565.371	0.0017
565.5647	0.0028
565.7584	0.0009
565.952	0.0026
566.1456	-0.0011
566.3393	-0.0069
566.5329	-0.0036
566.7264	0.0073
566.92	-0.0006
567.1136	0.0023
567.3071	-0.0072
567.5006	0.0028
567.6941	0.0116
567.8876	-0.0028
568.0811	-0.006
568.2745	0.0018
568.468	0.0002
568.6614	-0.0077
568.8548	-0.0017
569.0482	-0.0061
569.2416	0.0036
569.4349	-0.0042
569.6283	-0.0011
569.8216	-0.0029
570.0149	-0.0089
570.2082	0.0029
570.4015	0.0032
570.5947	0.0056
570.788	0.0001
570.9812	0.0101
571.1744	-0.0016
571.3676	-0.0058
571.5608	-0.0012
571.754	0.0024
571.9471	-0.0038
572.1402	0.0059
572.3333	0.0005
572.5264	-0.0069
572.7195	-0.0015
572.9126	-0.0006
573.1057	-0.0067
573.2987	-0.0055
573.4917	-0.0069
573.6847	-0.0068
573.8777	0.006
574.0707	0.005
574.2636	-0.0043
574.4566	-0.0026
574.6495	0.0085
574.8424	-0.0005
575.0353	0.003
575.2281	-0.0009
575.421	-0.0051
575.6138	0.002
575.8067	0.0009
575.9995	-0.001
576.1923	0.0034
576.385	-0.0004
576.5778	0.0002
576.7706	-0.0009
576.9633	0.0017
577.156	0.0038
577.3487	-0.0032
577.5414	-0.0019
577.734	-0.0036
577.9267	-0.0017
578.1193	-0.0089
578.3119	-0.007
578.5045	0.0025
578.6971	-0.0004
578.8897	0.0051
579.0822	-0.0009
579.2747	-0.0001
579.4673	-0.0058
579.6598	-0.003
579.8522	0.0007
580.0447	-0.0031
580.2372	-0.0016
580.4296	0.0045
580.622	-0.0001
580.8144	0.0007
581.0068	-0.0019
581.1992	-0.0063
581.3915	-0.0066
581.5839	-0.0108
581.7762	-0.0081
581.9685	-0.0047
582.1608	0.0025
582.353	0.0007
582.5453	0.0014
582.7375	-0.0012
582.9298	0.0029
583.122	-0.0042
583.3142	0.0047
583.5063	0.0038
583.6985	-0.005
583.8906	-0.0001
584.0827	-0.0099
584.2749	0.0002
584.4669	-0.002
584.659	-0.0008
584.8511	-0.0065
585.0431	-0.0053
585.2352	-0.0003
585.4272	0.0001
585.6192	-0.0017
585.8111	0.0005
586.0031	-0.0024
586.195	-0.0018
586.387	0.0019
586.5789	-0.0019
586.7708	-0.002
586.9627	-0.0011
587.1545	-0.0069
587.3464	-0.0032
587.5382	0.0082
587.73	-0.0015
587.9218	-0.0006
588.1136	-0.0014
588.3053	0.0002
588.4971	-0.0046
588.6888	-0.0095
588.8805	0.0016
589.0722	0.0052
589.2639	-0.0009
589.4556	0.006
589.6472	-0.0023
589.8389	-0.0073
590.0305	-0.0063
590.2221	0.0003
590.4137	-0.0116
590.6052	0.0076
590.7968	0.0032
590.9883	0.0024
591.1798	-0.0092
591.3713	-0.0027
591.5628	0.0021
591.7543	0.0087
591.9458	0.0008
592.1372	-0.004
592.3286	0.0022
592.52	-0.0044
592.7114	-0.0032
592.9028	-0.004
593.0941	-0.0056
593.2855	-0.0036
593.4768	-0.0124
593.6681	-0.0083
593.8594	-0.0047
594.0506	-0.0045
594.2419	0.0053
594.4331	0.0025
594.6244	0.0022
594.8156	-0.0113
595.0067	0.0004
595.1979	0.0028
595.3891	0.0017
595.5802	-0.0069
595.7713	-0.0022
595.9624	-0.0054
596.1535	-0.0015
596.3446	-0.0032
596.5357	-0.0022
596.7267	0.0059
596.9177	-0.0038
597.1087	-0.0096
597.2997	-0.0033
597.4907	0.0004
597.6817	-0.0067
597.8726	0.0076
598.0635	0.0002
598.2544	0.0007
598.4453	-0.0017
598.6362	-0.0016
598.827	0.0085
599.0179	0.0078
599.2087	-0.005
599.3995	-0.0013
599.5903	0.004
599.7811	0.0039
599.9718	-0.0006
600.1626	-0.0021
600.3533	-0.0076
600.544	0.0041
600.7347	0.0045
600.9254	0.0005
601.116	-0.0086
601.3067	0.0011
601.4973	-0.003
601.6879	0.0007
601.8785	-0.0035
602.0691	0.0069
602.2596	0.0016
602.4502	-0.0022
602.6407	0.0027
602.8312	0.0025
603.0217	-0.0025
603.2122	-0.0032
603.4027	0.001
603.5931	-0.0006
603.7835	-0.004
603.9739	-0.004
604.1643	0.0022
604.3547	-0.0055
604.5451	0.0059
604.7354	-0.0021
604.9257	0.0041
605.116	0.0049
605.3063	0.0071
605.4966	0.0068
605.6869	0.0017
605.8771	0.011
606.0673	0.0015
606.2575	0.009
606.4477	0.0043
606.6379	0.0006
606.8281	0.0007
607.0182	-0.0005
607.2083	0.0102
607.3985	-0.0019
607.5885	0.0004
607.7786	0.0063
607.9687	-0.002
608.1587	-0.0022
608.3488	0.0009
608.5388	0.0045
608.7288	-0.0027
608.9187	-0.0044
609.1087	-0.0096
609.2986	-0.0034
609.4886	0.0012
609.6785	0.0012
609.8684	0.0079
610.0582	-0.0005
610.2481	-0.0031
610.4379	0.0009
610.6278	-0.0081
610.8176	-0.002
611.0074	-0.0037
611.1971	-0.0045
611.3869	0.0004
611.5766	-0.0053
611.7664	0.0115
611.9561	0.0052
612.1458	-0.0031
612.3354	-0.0034
612.5251	0.0007
612.7147	0.0084
612.9044	0.0072
613.094	-0.0044
613.2836	0.0041
613.4731	-0.0011
613.6627	-0.0039
613.8522	0.0047
614.0417	0.0054
614.2313	-0.0012
614.4207	-0.0028
614.6102	-0.0006
614.7997	0.0036
614.9891	-0.0046
615.1785	-0.0039
615.3679	-0.0061
615.5573	0.008
615.7467	-0.0081
615.9361	-0.002
616.1254	0.0035
616.3147	0.0063
616.504	0.0054
616.6933	0.004
616.8826	0.0061
617.0718	0.0001
617.2611	0.003
617.4503	-0.0004
617.6395	0.0023
617.8287	-0.0014
618.0179	-0.0019
618.207	0.0064
618.3961	0.0024
618.5853	-0.0014
618.7744	0.0007
618.9634	0.0031
619.1525	0.0013
619.3416	-0.0013
619.5306	0.0038
619.7196	-0.0004
619.9086	-0.0043
620.0976	0.0007
620.2866	0.001
620.4755	-0.0016
620.6645	0.0042
620.8534	0.0034
621.0423	0.0072
621.2312	0.0094
621.42	0.0018
621.6089	-0.0022
621.7977	0.0057
621.9865	-0.0102
622.1753	0.0028
622.3641	-0.0034
622.5529	0.0019
622.7416	0.0029
622.9303	-0.0065
623.1191	0.0037
623.3078	-0.0061
623.4964	0.005
623.6851	0.0012
623.8737	-0.006
624.0624	0.0011
624.251	-0.0027
624.4396	0.0048
624.6282	-0.0042
624.8167	-0.0008
625.0053	0.0081
625.1938	0.0015
625.3823	0.0024
625.5708	-0.0018
625.7593	-0.0066
625.9477	-0.0092
626.1362	-0.0057
626.3246	-0.0001
626.513	-0
626.7014	0.0059
626.8898	-0.0008
627.0781	0.002
627.2665	-0.0065
627.4548	0.0053
627.6431	-0.0019
627.8314	0.0057
628.0197	0.0005
628.2079	-0.0024
628.3962	0.0029
628.5844	0.0065
628.7726	0.0064
628.9608	0.0105
629.1489	-0.0023
629.3371	0.0044
629.5252	-0.0051
629.7134	0.0103
629.9015	-0.0013
630.0895	0.0012
630.2776	0.0041
630.4657	0.0026
630.6537	0.0077
630.8417	0.0007
631.0297	-0.0014
631.2177	-0.001
631.4057	-0.0048
631.5936	0.0036
631.7815	0.0014
631.9695	0.0017
632.1574	0.0088
632.3452	0.0133
632.5331	0.0026
632.7209	0.0036
632.9088	0.0077
633.0966	0.0073
633.2844	-0.0034
633.4722	-0.001
633.6599	0.0031
633.8477	0.005
634.0354	0.004
634.2231	0.0002
634.4108	0.001
634.5985	0.0105
634.7861	0.0035
634.9738	0.0027
635.1614	0.0014
635.349	-0.0029
635.5366	-0.0049
635.7242	-0.0011
635.9117	0.0075
636.0993	-0.0025
636.2868	0.003
636.4743	-0.0015
636.6618	0.0093
636.8492	0.0078
637.0367	0.0021
637.2241	-0.003
637.4115	-0.0055
637.5989	-0.0097
637.7863	0.0049
637.9737	-0.0039
638.161	0.0021
638.3484	-0.0023
638.5357	0.0003
638.723	0.0046
638.9103	0.0075
639.0975	-0.0016
639.2848	0.0042
639.472	0.007
639.6592	0.0018
639.8464	0.0112
640.0336	0.0103
640.2208	0.0068
640.4079	-0.0031
640.595	0.012
640.7821	0.0092
640.9692	0.004
641.1563	-0.0006
641.3434	0.0054
641.5304	0.0009
641.7174	0.0022
641.9044	0.0067
642.0914	0.0044
642.2784	0.0112
642.4653	0.0139
642.6523	0.0131
642.8392	0.0025
643.0261	0.0113
643.213	0.0079
643.3999	0.0049
643.5867	0.0025
643.7735	0.0048
643.9604	-0.0032
644.1472	0.0053
644.3339	0.0008
644.5207	-0.0004
644.7075	0.0066
644.8942	0.0032
645.0809	0.006
645.2676	0.0076
645.4543	0.0045
645.6409	0.0053
645.8276	0.0044
646.0142	0.0054
646.2008	-0.0042
646.3874	-0.002
646.574	-0.0026
646.7605	0.0009
646.9471	-0.0047
647.1336	0.0001
647.3201	0.0087
647.5066	-0.0025
647.6931	0.0008
647.8795	0.0027
648.0659	0.0022
648.2524	0.01
648.4388	-0.0043
648.6252	-0.0007
648.8115	0.0033
648.9979	-0.0052
649.1842	-0.0006
649.3705	0.0073
649.5568	-0.0004
649.7431	0.0016
649.9294	-0.0046
650.1156	0.0061
650.3018	-0.0056
650.488	-0.0006
650.6742	0.0062
650.8604	0.0071
651.0466	-0.0019
651.2327	0.0053
651.4188	0.0001
651.6049	-0.0023
651.791	-0.0004
651.9771	0.0079
652.1632	0.0024
652.3492	-0.0011
652.5352	-0.0026
652.7212	-0.008
652.9072	0.0033
653.0932	-0.001
653.2791	-0.002
653.465	0.0008
653.651	-0.0015
653.8369	-0.0028
654.0227	0.0018
654.2086	0.0057
654.3944	0.0067
654.5803	-0.0012
654.7661	-0.0017
654.9519	-0.0017
655.1377	-0.0054
655.3234	0.0038
655.5092	-0.0014
655.6949	-0.0038
655.8806	-0.0028
656.0663	-0.0039
656.2519	0.0023
656.4376	-0.0032
656.6232	0.0041
656.8088	0.0009
656.9945	-0.001
657.18	0.0061
657.3656	0.0019
657.5511	0.0025
657.7367	-0.0036
657.9222	0.003
658.1077	-0.0046
658.2932	0.0018
658.4786	-0.0132
658.6641	0.001
658.8495	0.0073
659.0349	-0.0037
659.2203	0.0062
659.4057	0.0015
659.591	0.0008
659.7764	-0.0043
659.9617	0.0042
660.147	0.0005
660.3323	0.007
660.5176	0.0088
660.7028	0.0019
660.888	-0.0016
661.0733	0.0027
661.2585	-0.0049
661.4436	-0.0014
661.6288	0.0009
661.8139	0.0027
661.9991	0.0155
662.1842	0.0033
662.3693	0.0004
662.5544	0.0008
662.7394	0.0045
662.9245	-0.0043
663.1095	-0.001
663.2945	-0.0023
663.4795	-0.007
663.6644	0.0077
663.8494	-0.0012
664.0343	0.0015
664.2193	-0.0002
664.4042	-0.0051
664.589	-0.011
664.7739	0.0001
664.9587	-0.013
665.1436	-0.0017
665.3284	-0.0008
665.5132	0.0002
665.698	-0.0011
665.8827	0.0093
666.0675	-0.001
666.2522	-0.0032
666.4369	0.0027
666.6216	0.0095
666.8063	0.0071
666.9909	-0.0008
667.1756	0.0067
667.3602	0.002
667.5448	0.0017
667.7294	0.0042
667.9139	0.004
668.0985	0.0158
668.283	0.0039
668.4675	0.0003
668.652	-0.0015
668.8365	-0.0006
669.0209	0.0035
669.2054	0.007
669.3898	0.0047
669.5742	0.0073
669.7586	0.0055
669.943	0.0081
670.1273	0.0034
670.3117	0.001
670.496	0.0087
670.6803	0.0079
670.8646	-0.0021
671.0488	-0.0047
671.2331	0.0101
671.4173	0.0069
671.6015	0.0018
671.7857	0.0045
671.9699	0.0016
672.1541	0.0021
672.3382	0.0038
672.5223	0.0061
672.7064	0.0069
672.8905	0.0049
673.0746	-0.0044
673.2587	-0.0088
673.4427	0.0091
673.6267	0.007
673.8107	0.0072
673.9947	0.0011
674.1787	-0.0019
674.3626	-0.0021
674.5465	0.0053
674.7304	0.0046
674.9143	0.0064
675.0982	0.0052
675.2821	-0.0036
675.4659	0.0027
675.6497	0.0007
675.8335	-0.0016
676.0173	0.0038
676.2011	0.0022
676.3849	0.0038
676.5686	-0.0062
676.7523	-0.0026
676.936	-0.0012
677.1197	-0.0001
677.3034	-0.0015
677.487	0.0023
677.6706	0.0014
677.8542	0.0101
678.0378	-0.0038
678.2214	-0.0008
678.405	0.0082
678.5885	-0.0086
678.772	0.0028
678.9555	0.0028
679.139	-0.0024
679.3225	0.001
679.5059	-0.0004
679.6894	0.0049
679.8728	0.0032
680.0562	-0.0032
680.2395	-0.0022
680.4229	-0.0036
680.6062	0.0059
680.7896	0.0024
680.9729	-0.0054
681.1562	0.0022
681.3394	0.0009
681.5227	-0.0074
681.7059	-0.0012
681.8891	0.0002
682.0723	0.0093
682.2555	0.008
682.4387	-0.0017
682.6218	-0.0051
682.805	0.0025
682.9881	0.0022
683.1712	-0.0093
683.3542	-0.0066
683.5373	0.0007
683.7203	-0.0123
683.9034	-0.0059
684.0864	-0.0084
684.2694	-0.0096
684.4523	0.0044
684.6353	-0.0094
684.8182	0.0006
685.0011	-0.0093
685.184	-0.0026
685.3669	-0.0041
685.5498	0.0051
685.7326	0.0051
685.9154	-0.0088
686.0982	0.0058
686.281	0.0054
686.4638	0.0085
686.6465	-0.0012
686.8293	0.0013
687.012	-0.0022
687.1947	-0.0079
687.3774	0.0032
687.56	-0.0019
687.7427	0.0031
687.9253	-0.009
688.1079	0.0056
688.2905	0.0035
688.4731	0.0014
688.6556	-0.009
688.8382	-0.009
689.0207	-0.0041
689.2032	-0.0098
689.3857	-0.0045
689.5681	-0.0049
689.7506	-0.0101
689.933	-0.0061
690.1154	-0.0026
690.2978	-0.0035
690.4802	0.0015
690.6626	-0.014
690.8449	-0.0024
691.0272	0.0062
691.2095	-0.0111
691.3918	-0.0021
691.5741	-0.0018
691.7563	-0.0018
691.9386	0.0097
692.1208	0.0021
692.303	0.0013
692.4852	0.0009
692.6673	0.002
692.8495	-0.0021
693.0316	0.0054
693.2137	0.0021
693.3958	0.0033
693.5778	-0.0043
693.7599	0.0011
693.9419	0.0022
694.1239	0.0018
694.3059	-0.0016
694.4879	0.0006
694.6699	0.0063
694.8518	0.0015
695.0337	-0.0005
695.2157	0.0017
695.3975	-0.0032
695.5794	0.0048
695.7613	-0.0021
695.9431	-0.0059
696.1249	-0.0018
696.3067	0.0056
696.4885	0.0088
696.6703	0.0012
696.852	0.0055
697.0337	0.0003
697.2154	0.0045
697.3971	0.0081
697.5788	-0.0012
697.7605	-0.0014
697.9421	-0.0017
698.1237	0.0007
698.3053	0.0078
698.4869	0.0006
698.6685	-0.0052
698.85	-0.0034
699.0315	0.0038
699.213	0.0025
699.3945	0.0028
699.576	0.0033
699.7575	-0.0014
699.9389	0.0092
700.1203	0.0034
700.3017	-0.0026
700.4831	-0.0075
700.6645	-0.002
700.8458	-0.0032
701.0271	-0.0036
701.2084	0.0008
701.3897	-0.0009
701.571	0.0104
701.7523	-0.0028
701.9335	0.0063
702.1147	-0.0006
702.2959	0.0032
702.4771	0.0017
702.6583	0.0024
702.8394	-0.0009
703.0205	0.0045
703.2016	0.0004
703.3827	0.0024
703.5638	0.0067
703.7449	0.0011
703.9259	0.0093
704.1069	0.0011
704.2879	0.0046
704.4689	-0.0018
704.6499	0.0058
704.8308	0.0011
705.0117	-0.0071
705.1927	0.0006
705.3735	-0.001
705.5544	-0.0085
705.7353	-0.0008
705.9161	-0.0059
706.0969	-0.0051
706.2777	-0.0049
706.4585	-0.0076
706.6393	-0.0006
706.82	-0.0035
707.0007	0.0029
707.1815	0.003
707.3621	0.0069
707.5428	-0.0061
707.7235	0.0002
707.9041	0.0041
708.0847	-0.0096
708.2653	-0.0003
708.4459	-0.0177
708.6265	0.0006
708.807	0.0021
708.9875	-0.0002
709.168	-0.0025
709.3485	-0.0029
709.529	-0.002
709.7095	-0.015
709.8899	-0.0005
710.0703	-0.0097
710.2507	-0.0024
710.4311	-0.0029
710.6115	-0.0087
710.7918	-0.0104
710.9721	-0.0016
711.1524	-0.0051
711.3327	-0.0002
711.513	0.0029
711.6932	0.0079
711.8735	0.01
712.0537	0.001
712.2339	0.0004
712.4141	-0.0033
712.5942	0.0074
712.7744	-0.0019
712.9545	-0.0108
713.1346	-0.0072
713.3147	-0.0062
713.4947	-0.0044
713.6748	-0.0013
713.8548	0.0011
714.0348	-0.0049
714.2148	-0.0052
714.3948	0.0045
714.5748	-0.0009
714.7547	-0.0024
714.9346	-0
715.1145	-0.009
715.2944	-0.006
715.4743	-0.0008
715.6541	-0.0059
715.834	0.0051
716.0138	-0.0043
716.1936	-0.0135
716.3733	-0.0023
716.5531	0.0024
716.7328	-0.0002
716.9126	-0.0052
717.0923	0.0059
717.2719	0.0077
717.4516	0.0056
717.6312	0.0148
717.8109	-0.0063
717.9905	0.0042
718.1701	-0.002
718.3496	-0.0034
718.5292	-0.0012
718.7087	-0.0051
718.8882	-0.0019
719.0677	0.0087
719.2472	-0.001
719.4267	-0.0004
719.6061	0.0009
719.7856	0.0038
719.965	0.0031
720.1443	-0.0014
720.3237	0.0142
720.5031	0.01
720.6824	0.0073
720.8617	-0.0004
721.041	0.0054
721.2203	-0.0038
721.3995	-0.0011
721.5788	0.0011
721.758	0.0022
721.9372	0.0014
722.1164	-0.0032
722.2956	-0.0033
722.4747	0.0032
722.6538	-0.0048
722.8329	0.0107
723.012	0.002
723.1911	0.0048
723.3702	-0.0061
723.5492	-0.0006
723.7282	-0.0044
723.9072	0.0007
724.0862	-0.0028
724.2652	-0.0045
724.4441	-0.001
724.623	-0.0045
724.8019	0.002
724.9808	0.0022
725.1597	-0.0112
725.3385	-0.0008
725.5174	0.0061
725.6962	-0.0075
725.875	-0.001
726.0538	-0.0007
726.2325	0.0003
726.4112	0.0038
726.59	-0.0012
726.7687	0.0055
726.9474	0.0078
727.126	0.0067
727.3047	-0.0013
727.4833	0.0053
727.6619	-0.0005
727.8405	-0.0013
728.0191	0.0047
728.1976	0.0028
728.3762	-0.0021
728.5547	-0.0011
728.7332	-0.0094
728.9116	0.0066
729.0901	0.0067
729.2686	-0.004
729.447	0.0015
729.6254	-0.0085
729.8038	0.0027
729.9821	-0.0112
730.1605	-0.0037
730.3388	0.0032
730.5171	0.0029
730.6954	-0.0005
730.8737	0.0094
731.0519	0.0087
731.2302	-0.0041
731.4084	0.0055
731.5866	-0.0056
731.7648	-0.0031
731.9429	-0.002
732.1211	-0.0147
732.2992	-0.0058
732.4773	-0.0066
732.6554	-0.0057
732.8335	-0.0002
733.0115	-0.0004
733.1896	0.0009
733.3676	-0.0076
733.5456	0.0003
733.7235	0.0037
733.9015	-0.0092
734.0794	0.004
734.2574	0.0008
734.4353	-0.0001
734.6131	0.0002
734.791	-0.0008
734.9689	0.0012
735.1467	0.003
735.3245	-0.0096
735.5023	-0.0049
735.68	0
735.8578	0.0067
736.0355	-0.02
736.2132	-0.006
736.3909	0.0064
736.5686	-0.0155
736.7463	0.0054
736.9239	-0.0062
737.1015	-0.0015
737.2791	0.0015
737.4567	0.0072
737.6343	-0.0038
737.8118	0.0078
737.9894	0.0016
738.1669	-0.007
738.3444	-0.0089
738.5218	0.0045
738.6993	-0.001
738.8767	0.0023
739.0541	-0.0004
739.2315	-0.0009
739.4089	-0.0064
739.5863	0.003
739.7636	0.0012
739.9409	0.0028
740.1182	0.0056
740.2955	0.0038
740.4728	-0.0028
740.65	-0.0019
740.8272	0.0031
741.0044	-0.0018
741.1816	0.0028
741.3588	0.0015
741.5359	0.0012
741.7131	-0.0048
741.8902	-0.006
742.0673	-0.0077
742.2444	-0.0146
742.4214	-0.0115
742.5985	-0.0124
742.7755	-0.0145
742.9525	-0.0203
743.1295	-0.0127
743.3064	0.0007
743.4834	-0.0043
743.6603	-0.0071
743.8372	-0.0059
744.0141	-0.0054
744.191	-0.0092
744.3678	0.0022
744.5446	0.0038
744.7215	0.005
744.8982	-0.0049
745.075	-0.0093
745.2518	0.0035
745.4285	0.0035
745.6052	-0.0077
745.7819	-0.0122
745.9586	-0.013
746.1353	-0.0068
746.3119	-0.0081
746.4885	-0.0053
746.6651	-0.0083
746.8417	0.0067
747.0183	-0.0041
747.1948	-0.0051
747.3714	-0.0052
747.5479	0.0049
747.7244	-0.0018
747.9008	0.0072
748.0773	0.0025
748.2537	0.0021
748.4301	-0.0058
748.6065	0.0002
748.7829	-0.0026
748.9593	-0.0055
749.1356	-0.0041
749.3119	0.0109
749.4882	-0.0177
749.6645	0.0113
749.8408	0.0013
750.017	-0.0038
750.1933	-0.0015
750.3695	-0.0035
750.5457	0.0089
750.7218	0.0021
750.898	0.0006
751.0741	-0.002
751.2502	-0.0003
751.4263	0.0035
751.6024	0.0059
751.7784	-0.0062
751.9545	-0.0014
752.1305	-0.0082
752.3065	-0.0026
752.4825	0.0029
752.6584	-0.0056
752.8344	-0.0109
753.0103	-0.0112
753.1862	-0.0087
753.3621	-0.0013
753.5379	-0.0019
753.7138	0.005
753.8896	0.0034
754.0654	0.0018
754.2412	0.0095
754.417	0.0067
754.5927	-0.002
754.7685	0.0093
754.9442	0.0084
755.1199	0.0142
755.2956	-0.0037
755.4712	0.0149
755.6469	0.0115
755.8225	0.0041
755.9981	-0.0099
756.1736	0.0103
756.3492	0.0056
756.5248	-0.0006
756.7003	-0.0052
756.8758	0.0111
757.0513	-0.0029
757.2267	0.0008
757.4022	0.0013
757.5776	-0.0125
757.753	0.0077
757.9284	0.0021
758.1038	0.0143
758.2791	0.0068
758.4545	-0.0088
758.6298	0.0039
758.8051	-0.0075
758.9803	-0.0021
759.1556	-0.0016
759.3308	-0.005
759.506	0.0088
759.6812	0.0023
759.8564	0.001
760.0316	0.012
760.2067	0.0036
760.3819	0.0017
760.557	0.0149
760.732	0.0118
760.9071	-0.0091
761.0821	0.0114
761.2572	0.0129
761.4322	0.0113
761.6072	-0.0069
761.7821	0.0025
761.9571	0.0228
762.132	0.0064
762.3069	-0.0019
762.4818	0.0009
762.6567	0.0076
762.8316	-0.0035
763.0064	0.004
763.1812	-0.0036
763.356	-0.0074
763.5308	0.004
763.7055	0.0099
763.8803	-0.0064
764.055	0.0058
764.2297	-0.0088
764.4044	-0.0116
764.579	-0.0024
764.7537	-0.0035
764.9283	0.0042
765.1029	0.0006
765.2775	-0.0057
765.4521	-0.0065
765.6266	-0.0101
765.8011	0.0019
765.9756	-0.0006
766.1501	0.009
766.3246	-0.003
766.4991	0.0019
766.6735	-0.0009
766.8479	-0.0077
767.0223	0.0121
767.1967	-0.0071
767.371	0.0038
767.5454	0.0015
767.7197	-0.0007
767.894	-0.0034
768.0683	-0.0039
768.2425	0.0042
768.4168	-0.0077
768.591	0.0004
768.7652	-0.0058
768.9394	0.0116
769.1135	0.0063
769.2877	0.0043
769.4618	0.0078
769.6359	0.0005
769.81	0.0072
769.984	0.0022
770.1581	-0.0122
770.3321	0.0087
770.5061	-0.0019
770.6801	0.0065
770.8541	0.006
771.028	0.0117
771.202	-0.0113
771.3759	0.0059
771.5498	0
771.7236	0.0124
771.8975	0.0072
772.0713	0.0062
772.2451	0.0135
772.4189	0.0093
772.5927	0.0099
772.7665	0.003
772.9402	-0.0029
773.1139	-0.0002
773.2876	0.0049
773.4613	0.0048
773.635	0.009
773.8086	-0.0163
773.9822	0.0109
774.1558	0.0036
774.3294	-0.0002
774.503	0.0022
774.6765	-0.002
774.8501	0.006
775.0236	0.0071
775.1971	0.0132
775.3705	-0.0048
775.544	0.0013
775.7174	-0.0158
775.8908	0.0032
776.0642	-0.0114
776.2376	-0.0075
776.4109	-0.0185
776.5843	-0.006
776.7576	0.0035
776.9309	0.0032
777.1041	0.011
777.2774	0.0157
777.4506	-0.003
777.6238	-0.0069
777.797	0.0053
777.9702	0.0006
778.1434	-0.0119
778.3165	-0.0105
778.4896	0.0055
778.6627	0.0033
778.8358	-0.0066
779.0089	0.0074
779.1819	-0.0033
779.3549	0.0152
779.5279	0.013
779.7009	-0.0055
779.8739	0.0046
780.0468	0.0195
780.2197	0.0047
780.3926	-0.0034
780.5655	-0.0073
780.7384	-0.0007
780.9112	0.0008
781.0841	-0.0013
781.2569	-0.0012
781.4297	0.0079
781.6024	0.0099
781.7752	0.007
781.9479	-0.0008
782.1206	0.0019
782.2933	0.0044
782.466	0.0063
782.6386	0.0014
782.8113	0.0073
782.9839	-0.0035
783.1565	0.0134
783.329	0.012
783.5016	0.0091
783.6741	0.0152
783.8466	0.0054
784.0191	0.0192
784.1916	0.0108
784.3641	0.0029
784.5365	0.0071
784.7089	-0.0008
784.8813	-0.0153
785.0537	-0.0021
785.2261	-0.0079
785.3984	-0.0132
785.5707	-0.0017
785.743	-0.0131
785.9153	0.0017
786.0876	-0.0009
786.2598	-0.0173
786.432	-0.0084
786.6042	0.0036
786.7764	-0.0053
786.9486	0.0104
787.1207	-0.0121
787.2928	0.0083
787.4649	0.0153
787.637	0.0055
787.8091	-0.0125
787.9811	-0.0015
788.1532	-0.0121
788.3252	0.0148
788.4972	0.0053
788.6691	-0.0024
788.8411	0.0006
789.013	-0.0078
789.1849	0.0165
789.3568	-0.0042
789.5287	0.0014
789.7005	-0.0109
789.8723	-0.0011
790.0442	0.0052
790.2159	-0.0006
790.3877	-0.0016
790.5595	-0.0128
790.7312	-0.0018
790.9029	-0.0189
791.0746	-0.0072
791.2463	-0.0004
791.4179	0.0031
791.5896	-0.0119
791.7612	-0.0134
791.9328	0.005
792.1044	-0.0168
792.2759	-0.016
792.4474	-0.0025
792.619	0.009
792.7905	0.001
792.9619	-0.003
793.1334	0.0087
793.3048	0.0197
793.4762	0.0037
793.6476	0.0033
793.819	-0.0075
793.9904	-0.0009
794.1617	-0.0084
794.333	-0.0065
794.5043	-0.0107
794.6756	0.005
794.8469	-0.0091
795.0181	-0.0027
795.1893	-0.0132
795.3605	0.0145
795.5317	-0.0128
795.7029	-0.004
795.874	0.0129
796.0452	-0.0105
796.2163	0.0022
796.3873	0.0074
796.5584	-0.0076
796.7294	0.0078
796.9005	0.0097
797.0715	0.005
797.2425	-0.0138
797.4134	-0.0036
797.5844	0.0011
797.7553	-0.0173
797.9262	-0.014
798.0971	-0.0091
798.2679	0.0027
798.4388	-0.0059
798.6096	0.0111
798.7804	-0.0009
798.9512	-0.013
799.122	-0.0028
799.2927	0.0236
799.4635	0.0024
799.6342	-0.0151
799.8049	0.0081
799.9755	-0.0031
800.1462	-0.0015
800.3168	0.0067
800.4874	-0.0017
800.658	0.0092
800.8286	0.0001
800.9991	0.011
801.1696	0.0058
801.3402	0.0113
801.5106	-0.0078
801.6811	0.0053
801.8516	0.0268
802.022	0.0067
802.1924	0.0242
802.3628	-0.0005
802.5332	0.0165
802.7035	0.0354
802.8739	0.009
803.0442	0.0086
803.2145	0.0097
803.3847	-0.0071
803.555	0.0011
803.7252	-0.0174
803.8954	0.0059
804.0656	-0.034
804.2358	0.0012
804.4059	0.0214
804.5761	0.0057
804.7462	0.0029
804.9163	-0.0081
805.0864	-0.0171
805.2564	-0.0055
805.4264	-0.0153
805.5965	-0.0075
805.7665	0.0037
805.9364	-0.0064
806.1064	0.0351
806.2763	0.0102
806.4462	0.0259
806.6161	0.0161
806.786	0.0102
806.9559	-0.0071
807.1257	-0.0121
807.2955	0.0171
807.4653	-0.0029
807.6351	-0.0053
807.8048	0.0024
807.9746	0.0334
808.1443	0.0096
808.314	-0.0087
808.4837	-0.0055
808.6533	-0.0156
808.8229	0.0235
808.9926	0.0116
809.1622	0.0018
809.3317	-0.0077
809.5013	0.0081
809.6708	-0.0072
809.8403	-0.0007
810.0098	-0.0029
810.1793	0.0041
810.3488	0.0016
810.5182	-0.0256
810.6876	-0.0012
810.857	-0.0283
811.0264	0.0265
811.1958	0.0102
811.3651	-0.0092
811.5344	-0.0062
811.7037	-0.0049
811.873	-0.0116
812.0422	-0.0064
812.2115	0.0044
812.3807	-0.0211
812.5499	0.0031
812.7191	-0.0015
812.8882	-0.01
813.0574	0.0056
813.2265	0.0006
813.3956	-0.0145
813.5646	-0.0089
813.7337	-0.0125
813.9027	0.0116
814.0718	0.0161
814.2407	-0.0007
814.4097	-0.0166
814.5787	-0.0237
814.7476	-0.0141
814.9165	-0.0147
815.0854	-0.0028
815.2543	-0.0299
815.4232	-0.0059
815.592	0.0013
815.7608	-0.0043
815.9296	0.0081
816.0984	-0.0034
816.2671	-0.0017
816.4359	-0.0005
816.6046	-0.0073
816.7733	-0.0093
816.942	-0.0049
817.1106	0.0083
817.2793	0.0004
817.4479	-0.0078
817.6165	-0.0355
817.785	0.0045
817.9536	-0.0099
818.1221	-0.0147
818.2906	0.0036
818.4591	-0.0128
818.6276	-0.0029
818.7961	0.0074
818.9645	0.0112
819.1329	0.0061
819.3013	0.016
819.4697	0.02
819.638	-0.0144
819.8064	-0.0066
819.9747	0.0033
820.143	-0.0102
820.3113	-0.0099
820.4795	-0.0092
820.6477	0.0022
820.816	0.0047
820.9842	0.0118
821.1523	-0.0351
821.3205	-0.0145
821.4886	0.0235
821.6567	-0.0052
821.8248	0.0236
821.9929	0.0173
822.1609	0.019
822.329	0.0206
822.497	0.0341
822.665	0.0069
822.833	-0.0294
823.0009	0.0154
823.1688	0.0281
823.3367	0.009
823.5046	0.004
823.6725	0.0474
823.8404	0.0105
824.0082	0.0144
824.176	-0.0022
824.3438	0.0102
824.5116	-0.0102
824.6793	0.019
824.847	0.0035
825.0147	-0.0112
825.1824	0.0216
825.3501	0.0275
825.5177	0.0164
825.6854	-0.0075
825.853	0.0215
826.0206	-0.0154
826.1881	0.0159
826.3557	-0.0147
826.5232	0.0229
826.6907	-0.0153
826.8582	-0.0066
827.0257	-0.0336
827.1931	-0.0008
827.3605	-0.0114
827.528	0.0216
827.6953	-0.0304
827.8627	-0.0322
828.03	0.0218
828.1974	-0.0205
828.3647	-0.05
828.532	-0.011
828.6992	0.0031
828.8665	0.004
829.0337	-0.0083
829.2009	-0.0043
829.3681	0.0089
829.5352	0.0228
829.7024	-0.0279
829.8695	-0.0332
830.0366	0.0347
830.2037	0.0269
830.3707	0.023
830.5378	0.0137
830.7048	0.0051
830.8718	0.0185
831.0388	-0.0512
831.2057	0.0126
831.3727	0.0065
831.5396	0.0152
831.7065	-0.01
831.8734	0.0084
832.0402	-0.0201
832.2071	-0.0076
832.3739	-0.0272
832.5407	-0.0168
832.7075	-0.0085
832.8742	-0.0137
833.041	-0.0411
833.2077	-0.0034
833.3744	-0.0109
833.541	-0.0146
833.7077	0.0021
833.8743	-0.0221
834.0409	0.0196
834.2075	0.0243
834.3741	0.0014
834.5407	-0.0061
834.7072	0.0015
834.8737	-0.0192
835.0402	-0.0176
835.2067	0.0265
835.3731	0.0254
835.5395	-0.0348
835.706	0.0035
835.8723	0.0209
836.0387	-0.0234
836.2051	0.029
836.3714	0.0057
836.5377	-0.0039
836.704	-0.0026
836.8703	-0.0089
837.0365	-0.017
837.2027	-0.0013
837.3689	-0.0036
837.5351	0.0048
837.7013	-0.0031
837.8674	-0.035
838.0335	-0.0428
838.1997	-0.0133
838.3657	-0.0425
838.5318	-0.0169
838.6978	0.0975
838.8639	0.0448
839.0299	0.0064
839.1958	-0.0029
839.3618	0.0214
839.5277	0.0295
839.6937	-0.0087
839.8596	-0.0218
840.0254	0.0383
840.1913	0.012
840.3571	0.0218
840.523	-0.045
840.6888	-0.0234
840.8545	-0.0092
841.0203	-0.0058
841.186	-0.0149
841.3517	0.0397
841.5174	-0.0227
841.6831	-0.019
841.8488	-0.0042
842.0144	-0.0423
842.18	-0.0006
842.3456	0.0479
842.5112	0.0148
842.6767	-0.0161
842.8422	-0.0375
843.0077	0.0182
843.1732	-0.0289
843.3387	0.0084
843.5042	0.0134
843.6696	0.0016
843.835	-0.0496
844.0004	0.0596
844.1657	0.038
844.3311	-0.0198
844.4964	-0.0829
844.6617	-0.0742
844.827	-0.0133
844.9923	0.0004
845.1575	0.0224
845.3227	0.0745
845.4879	-0.0475
845.6531	0.0141
845.8183	-0.092
845.9834	0.0493
846.1485	-0.0178
846.3136	-0.0522
846.4787	-0.0618
846.6438	0.0365
846.8088	-0.0399
846.9738	-0.0862
847.1388	0.0033
847.3038	-0.0358
847.4687	-0.0913
847.6337	0.0498
847.7986	0.0044
847.9635	-0.0321
848.1284	0.0215
848.2932	0.0276
848.458	-0.0322
848.6228	-0.0132
848.7876	0.0527
848.9524	-0.1046
849.1172	-0.0659
849.2819	0.0118
849.4466	-0.0952
849.6113	-0.06
849.7759	-0.0053
849.9406	-0.0835
850.1052	0.0323
850.2698	-0.0495
850.4344	-0.07
850.599	-0.0244
850.7635	0.1547
850.928	-0.0035
851.0925	-0.0362
851.257	0.0114
851.4215	0.0159
851.5859	-0.1126
851.7503	-0.0161
851.9147	-0.0521
852.0791	-0.0467
852.2434	-0.005
852.4078	0.0175
852.5721	0.0022
852.7364	-0.0724
852.9007	-0.1467
853.0649	0.0376
853.2291	0.0135
853.3934	-0.0773
853.5575	-0.0308
853.7217	-0.1276
853.8859	-0.175
854.05	-0.0273
854.2141	0.0593
854.3782	-0.1241
854.5423	-0.0946
854.7063	0.0292
854.8703	0.0698
855.0343	0.0841
855.1983	-0.1891
855.3623	0.1156
855.5262	0.0235
855.6901	0.0364
855.854	0.0677
856.0179	0.0282
856.1818	0.0504
856.3456	-0.0678
856.5094	-0.1079
856.6732	-0.1313
856.837	0.0315
857.0008	0.068
857.1645	-0.069
857.3282	-0.2593
857.4919	0.0274
857.6556	-0.0147
857.8192	-0.1457
857.9828	0.0365
858.1465	-0.029
858.31	-0.2098
858.4736	-0.1235
858.6372	-0.2059
858.8007	-0.2947
858.9642	0.0398
859.1277	0.2487
859.2911	0.0772
859.4546	0.0525
859.618	-0.3658
859.7814	-0.0787
859.9448	0.0571
860.1081	-0.0035
860.2715	0.2037
860.4348	-0.0493
860.5981	-0.1521
860.7614	0.0268
860.9246	-0.0623
861.0879	-0.236
861.2511	0.117
861.4143	-0.1245
861.5774	0.1723
861.7406	-0.0513
861.9037	-0.0182
862.0668	-0.1442
862.2299	-0.0048
862.393	-0.4601
862.556	0.0118
862.7191	-0.0301
862.8821	-0.3306
863.0451	0.0422
863.208	0.1614
863.371	-0.0838
863.5339	-0.3469
863.6968	0.1203
863.8597	1.1294
864.0225	-0.2106
864.1854	-0.1613
864.3482	0.2834
864.511	0.4421
864.6737	0.0224
864.8365	-0.1094
864.9992	0.4688
865.1619	0.4001
865.3246	-0
865.4873	0.0167
865.65	-0.3943
865.8126	0.0999
865.9752	0.1199
866.1378	-0.0419
866.3004	0.1351
866.4629	0.1661
866.6254	-0.0089
866.7879	-0.0064
866.9504	-0.1239
867.1129	-0
867.2753	0.2516
867.4377	0.1548
867.6001	-0.3572
867.7625	0.0874
867.9249	-0
868.0872	0.2717
868.2495	-0.0384
868.4118	-0.1921
868.5741	-0.4177
868.7363	-0.0645
868.8986	-0.6319
869.0608	-0.2326
869.223	0.0663
869.3851	-0
869.5473	-0.306
869.7094	0.2207
869.8715	-0
870.0336	-0.7286
870.1957	-0
870.3577	-1.1016
870.5197	-0.0057
870.6817	-0.2746
870.8437	-0.1537
871.0057	-0.8591
871.1676	-0.4215
871.3295	-0.3825
871.4914	-0
871.6533	-0.3869
871.8151	-0.1686
871.977	-0
872.1388	-0
872.3006	-0.2173
872.4623	-0.3078
872.6241	0.1427
872.7858	1.0551
872.9475	-0.1499
873.1092	-0.2125
873.2709	-0
873.4325	0.1016
873.5941	-0.2708
873.7557	0.1374
873.9173	-0
874.0789	-0
874.2404	-0.1794
874.4019	0.7157
874.5634	-0.1725
874.7249	-0.2005
874.8863	0.1979
875.0478	0.1642
875.2092	-0
875.3706	0.1157
875.5319	-0
875.6933	0.0539
875.8546	-0.076
876.0159	-0
876.1772	-0.0984
876.3385	-0
876.4997	1.168
876.6609	0.1637
876.8221	0.415
876.9833	-0
877.1445	0.1924
877.3056	-0.0591
877.4667	-0
877.6278	-0.1496
877.7889	-0.5125
877.9499	-0
878.111	-0
878.272	-0
878.433	-0
878.5939	-0
878.7549	0.2395
878.9158	-0.6055
879.0767	-0
879.2376	-0
879.3984	-0
879.5593	-0
879.7201	-0.0196
879.8809	-0.6634
880.0417	0.1461
880.2024	0.1016
880.3632	-0
880.5239	0.1424
880.6846	0.5409
880.8452	-2.4393
881.0059	-0
881.1665	0.0606
881.3271	-0.1917
881.4877	-0
881.6483	0.3536
881.8088	-0.608
881.9693	-0
882.1298	-0
882.2903	-0
