Data from MonoPyChalIsomerACN10uM410nmA_Absorbance_14-53-29-573.txt Node
Date: Fri Jul 05 14:53:29 BST 2024
User: LASERRRRR
Spectrometer: FLMT03099
Trigger mode: 0
Integration Time (sec): 1.000000E-1
Scans to average: 1
Electric dark correction enabled: true
Nonlinearity correction enabled: false
Boxcar width: 0
XAxis mode: Wavelengths
Number of Pixels in Spectrum: 3648
>>>>>Begin Spectral Data<<<<<
179.3399	-0.2313
179.5586	-0.2313
179.7771	-0.2313
179.9957	0.3955
180.2143	-0
180.4329	-0.0616
180.6514	-0
180.8699	-0
181.0885	-0.1164
181.307	-0.026
181.5255	-0
181.744	-0
181.9625	0.0772
182.181	-0.2663
182.3994	0.7997
182.6179	0.8985
182.8363	-0.1141
183.0547	-0.3275
183.2732	0.0847
183.4916	-0.1152
183.71	0.0126
183.9284	-0.1099
184.1467	-0.0405
184.3651	0.1086
184.5835	-0.16
184.8018	0.0557
185.0201	0.0157
185.2385	0.1309
185.4568	0.0201
185.6751	0.1126
185.8934	0.3876
186.1117	-0.0213
186.3299	0.1219
186.5482	0.079
186.7664	0.0677
186.9847	-0.1454
187.2029	0.1702
187.4211	0.0654
187.6393	0.4997
187.8575	0.3328
188.0757	0.1084
188.2939	0.0577
188.512	-0.1236
188.7302	0.0377
188.9483	0.1346
189.1665	0.2133
189.3846	0.1186
189.6027	0.1053
189.8208	0.4476
190.0389	0.0597
190.257	0.1042
190.475	0.2519
190.6931	0.2526
190.9111	0.4606
191.1292	0.1272
191.3472	0.3743
191.5652	0.2033
191.7832	0.3068
192.0012	0.5814
192.2192	0.2877
192.4371	0.5757
192.6551	0.4087
192.873	0.4833
193.091	0.3568
193.3089	0.5918
193.5268	0.3974
193.7447	0.7494
193.9626	0.4284
194.1805	0.7321
194.3984	0.658
194.6162	0.4747
194.8341	0.5139
195.0519	0.6992
195.2697	0.6126
195.4875	0.4195
195.7054	0.6539
195.9231	0.5557
196.1409	0.6634
196.3587	0.7692
196.5765	0.5575
196.7942	0.6912
197.012	0.4893
197.2297	0.5442
197.4474	0.6212
197.6651	0.4718
197.8828	0.6122
198.1005	0.5599
198.3182	0.5078
198.5358	0.8744
198.7535	0.7007
198.9711	0.5619
199.1888	0.5792
199.4064	0.7474
199.624	0.6951
199.8416	0.546
200.0592	0.6353
200.2767	0.6202
200.4943	0.6858
200.7119	0.6524
200.9294	0.6668
201.1469	0.6444
201.3645	0.6473
201.582	0.5467
201.7995	0.6265
202.017	0.6455
202.2344	0.6611
202.4519	0.6884
202.6694	0.6823
202.8868	0.5786
203.1042	0.6621
203.3217	0.6224
203.5391	0.6145
203.7565	0.5577
203.9739	0.5503
204.1913	0.662
204.4086	0.6777
204.626	0.7289
204.8433	0.6697
205.0607	0.52
205.278	0.5886
205.4953	0.6933
205.7126	0.5618
205.9299	0.665
206.1472	0.7136
206.3644	0.6132
206.5817	0.6865
206.7989	0.5876
207.0162	0.7153
207.2334	0.6672
207.4506	0.601
207.6678	0.591
207.885	0.6445
208.1022	0.6702
208.3194	0.6242
208.5365	0.6868
208.7537	0.7008
208.9708	0.5611
209.1879	0.65
209.405	0.686
209.6222	0.6246
209.8392	0.6142
210.0563	0.6277
210.2734	0.6055
210.4905	0.6597
210.7075	0.608
210.9245	0.5718
211.1416	0.7463
211.3586	0.6269
211.5756	0.5837
211.7926	0.5836
212.0096	0.5842
212.2265	0.535
212.4435	0.6137
212.6604	0.5507
212.8774	0.5531
213.0943	0.5713
213.3112	0.521
213.5281	0.5302
213.745	0.4457
213.9619	0.505
214.1788	0.4459
214.3956	0.4426
214.6125	0.4542
214.8293	0.4385
215.0461	0.4743
215.2629	0.453
215.4798	0.4735
215.6965	0.4341
215.9133	0.4388
216.1301	0.4392
216.3469	0.4226
216.5636	0.396
216.7803	0.3799
216.9971	0.3959
217.2138	0.3771
217.4305	0.3829
217.6472	0.3414
217.8639	0.399
218.0805	0.3452
218.2972	0.3072
218.5138	0.3282
218.7305	0.3167
218.9471	0.2991
219.1637	0.2562
219.3803	0.2818
219.5969	0.2616
219.8135	0.2509
220.0301	0.2691
220.2466	0.2633
220.4632	0.2619
220.6797	0.2193
220.8962	0.2281
221.1127	0.2399
221.3292	0.2534
221.5457	0.2449
221.7622	0.2231
221.9787	0.2369
222.1951	0.2343
222.4116	0.2457
222.628	0.246
222.8444	0.2459
223.0608	0.248
223.2772	0.2211
223.4936	0.2573
223.71	0.2657
223.9264	0.2618
224.1427	0.2375
224.3591	0.2301
224.5754	0.2477
224.7917	0.2545
225.008	0.2335
225.2243	0.2431
225.4406	0.2679
225.6569	0.2625
225.8732	0.2589
226.0894	0.266
226.3057	0.2626
226.5219	0.2748
226.7381	0.2653
226.9543	0.2724
227.1705	0.2876
227.3867	0.2627
227.6029	0.2868
227.8191	0.2844
228.0352	0.2754
228.2513	0.3068
228.4675	0.3244
228.6836	0.3001
228.8997	0.2963
229.1158	0.2891
229.3319	0.2914
229.548	0.2931
229.764	0.3037
229.9801	0.317
230.1961	0.3208
230.4121	0.3253
230.6282	0.3161
230.8442	0.3192
231.0602	0.327
231.2761	0.3256
231.4921	0.3354
231.7081	0.3537
231.924	0.3392
232.14	0.3559
232.3559	0.3474
232.5718	0.3486
232.7877	0.341
233.0036	0.3393
233.2195	0.3436
233.4353	0.3607
233.6512	0.3818
233.867	0.373
234.0829	0.3766
234.2987	0.362
234.5145	0.3627
234.7303	0.3504
234.9461	0.3967
235.1619	0.3497
235.3776	0.37
235.5934	0.3628
235.8091	0.3658
236.0249	0.3744
236.2406	0.3684
236.4563	0.3676
236.672	0.4052
236.8877	0.3933
237.1034	0.3782
237.319	0.3762
237.5347	0.3873
237.7503	0.3723
237.966	0.3822
238.1816	0.3946
238.3972	0.3733
238.6128	0.3782
238.8284	0.401
239.0439	0.3958
239.2595	0.4033
239.475	0.3945
239.6906	0.4039
239.9061	0.3697
240.1216	0.3973
240.3371	0.3943
240.5526	0.401
240.7681	0.4132
240.9836	0.3977
241.199	0.4075
241.4145	0.3822
241.6299	0.3708
241.8453	0.3726
242.0607	0.3857
242.2761	0.3681
242.4915	0.383
242.7069	0.3721
242.9223	0.3724
243.1376	0.3711
243.353	0.3574
243.5683	0.3533
243.7836	0.3567
243.9989	0.348
244.2142	0.3161
244.4295	0.336
244.6448	0.3209
244.86	0.3121
245.0753	0.3038
245.2905	0.2919
245.5057	0.2889
245.721	0.2898
245.9362	0.2745
246.1514	0.2951
246.3665	0.27
246.5817	0.2575
246.7969	0.2586
247.012	0.2635
247.2271	0.2409
247.4423	0.2409
247.6574	0.2494
247.8725	0.2441
248.0876	0.2358
248.3026	0.2304
248.5177	0.2288
248.7328	0.2264
248.9478	0.2204
249.1628	0.2265
249.3779	0.2203
249.5929	0.2097
249.8079	0.2217
250.0228	0.2081
250.2378	0.2054
250.4528	0.2143
250.6677	0.1948
250.8827	0.1908
251.0976	0.1941
251.3125	0.1943
251.5274	0.1834
251.7423	0.1928
251.9572	0.1864
252.172	0.198
252.3869	0.1859
252.6017	0.1733
252.8166	0.1674
253.0314	0.1754
253.2462	0.1672
253.461	0.1855
253.6758	0.177
253.8906	0.1761
254.1053	0.1691
254.3201	0.1692
254.5348	0.1924
254.7496	0.1753
254.9643	0.1735
255.179	0.1794
255.3937	0.1528
255.6083	0.1601
255.823	0.1741
256.0377	0.1535
256.2523	0.1631
256.467	0.138
256.6816	0.179
256.8962	0.1704
257.1108	0.1488
257.3254	0.1598
257.54	0.1581
257.7545	0.1564
257.9691	0.1738
258.1836	0.1667
258.3981	0.1805
258.6127	0.1639
258.8272	0.1614
259.0417	0.1564
259.2561	0.1635
259.4706	0.1626
259.6851	0.1617
259.8995	0.1553
260.114	0.1676
260.3284	0.1707
260.5428	0.1533
260.7572	0.1702
260.9716	0.1724
261.186	0.1628
261.4003	0.1727
261.6147	0.1541
261.829	0.1728
262.0433	0.1729
262.2577	0.1639
262.472	0.1682
262.6863	0.165
262.9005	0.1683
263.1148	0.1553
263.3291	0.1461
263.5433	0.1708
263.7576	0.1713
263.9718	0.163
264.186	0.1565
264.4002	0.1557
264.6144	0.1626
264.8286	0.1655
265.0427	0.1504
265.2569	0.1581
265.471	0.1513
265.6851	0.1558
265.8993	0.1646
266.1134	0.1637
266.3275	0.1619
266.5415	0.1601
266.7556	0.1771
266.9697	0.1685
267.1837	0.1683
267.3978	0.1621
267.6118	0.1695
267.8258	0.1787
268.0398	0.166
268.2538	0.1794
268.4677	0.1703
268.6817	0.1563
268.8957	0.1742
269.1096	0.1766
269.3235	0.1678
269.5374	0.1593
269.7514	0.1509
269.9652	0.1666
270.1791	0.168
270.393	0.1676
270.6068	0.1598
270.8207	0.1548
271.0345	0.1564
271.2483	0.1694
271.4622	0.1505
271.676	0.1608
271.8897	0.159
272.1035	0.1528
272.3173	0.1558
272.531	0.1596
272.7448	0.1559
272.9585	0.156
273.1722	0.1581
273.3859	0.1604
273.5996	0.1535
273.8133	0.1532
274.0269	0.1471
274.2406	0.146
274.4542	0.1533
274.6679	0.1513
274.8815	0.1543
275.0951	0.1682
275.3087	0.1698
275.5223	0.1645
275.7358	0.1667
275.9494	0.1547
276.1629	0.1514
276.3765	0.158
276.59	0.1623
276.8035	0.1651
277.017	0.1633
277.2305	0.1546
277.444	0.1648
277.6574	0.1499
277.8709	0.1675
278.0843	0.155
278.2978	0.1578
278.5112	0.1478
278.7246	0.1611
278.938	0.1568
279.1513	0.1605
279.3647	0.1724
279.5781	0.1557
279.7914	0.1605
280.0047	0.1764
280.2181	0.1543
280.4314	0.1689
280.6447	0.1654
280.8579	0.1669
281.0712	0.1657
281.2845	0.1685
281.4977	0.1607
281.711	0.156
281.9242	0.1589
282.1374	0.1648
282.3506	0.1451
282.5638	0.1587
282.7769	0.1684
282.9901	0.1655
283.2033	0.1575
283.4164	0.1705
283.6295	0.1484
283.8426	0.1496
284.0557	0.161
284.2688	0.1662
284.4819	0.1574
284.695	0.1655
284.908	0.1624
285.1211	0.1474
285.3341	0.1678
285.5471	0.1713
285.7601	0.1543
285.9731	0.1593
286.1861	0.1476
286.3991	0.1606
286.612	0.1707
286.825	0.1522
287.0379	0.169
287.2508	0.1591
287.4637	0.1601
287.6766	0.1492
287.8895	0.1597
288.1024	0.175
288.3152	0.1553
288.5281	0.1387
288.7409	0.1642
288.9538	0.1654
289.1666	0.1505
289.3794	0.1579
289.5922	0.1519
289.8049	0.1607
290.0177	0.1432
290.2304	0.1562
290.4432	0.1575
290.6559	0.1559
290.8686	0.1621
291.0813	0.1581
291.294	0.1529
291.5067	0.152
291.7194	0.1559
291.932	0.1742
292.1447	0.1566
292.3573	0.1399
292.5699	0.1516
292.7825	0.1528
292.9951	0.1488
293.2077	0.1555
293.4203	0.1496
293.6328	0.1449
293.8454	0.1557
294.0579	0.1494
294.2704	0.1504
294.4829	0.1446
294.6954	0.155
294.9079	0.1471
295.1204	0.1542
295.3328	0.1475
295.5453	0.1466
295.7577	0.1487
295.9701	0.1453
296.1825	0.1487
296.3949	0.1528
296.6073	0.1419
296.8197	0.1463
297.0321	0.159
297.2444	0.1359
297.4567	0.1458
297.6691	0.1499
297.8814	0.1399
298.0937	0.1518
298.306	0.153
298.5182	0.1513
298.7305	0.1578
298.9428	0.1434
299.155	0.1537
299.3672	0.1496
299.5794	0.138
299.7916	0.1418
300.0038	0.1514
300.216	0.1512
300.4282	0.1407
300.6403	0.1466
300.8525	0.1502
301.0646	0.1438
301.2767	0.1515
301.4888	0.1442
301.7009	0.1502
301.913	0.1589
302.125	0.1444
302.3371	0.1431
302.5491	0.1523
302.7612	0.1438
302.9732	0.1472
303.1852	0.155
303.3972	0.1424
303.6092	0.1403
303.8211	0.1416
304.0331	0.1477
304.245	0.1335
304.457	0.1414
304.6689	0.1374
304.8808	0.1573
305.0927	0.1333
305.3046	0.1455
305.5164	0.1387
305.7283	0.1331
305.9401	0.1402
306.152	0.1329
306.3638	0.1508
306.5756	0.1337
306.7874	0.1456
306.9992	0.1372
307.2109	0.1361
307.4227	0.1196
307.6344	0.1315
307.8462	0.1254
308.0579	0.1283
308.2696	0.1246
308.4813	0.1196
308.693	0.1216
308.9046	0.1351
309.1163	0.1159
309.328	0.1172
309.5396	0.1178
309.7512	0.1185
309.9628	0.115
310.1744	0.1252
310.386	0.1204
310.5976	0.1189
310.8091	0.1196
311.0207	0.1089
311.2322	0.1247
311.4437	0.1061
311.6552	0.1107
311.8667	0.1183
312.0782	0.0927
312.2897	0.096
312.5012	0.1144
312.7126	0.1063
312.924	0.1011
313.1355	0.1107
313.3469	0.1044
313.5583	0.1137
313.7696	0.1041
313.981	0.1226
314.1924	0.1001
314.4037	0.1043
314.6151	0.1153
314.8264	0.1036
315.0377	0.103
315.249	0.1068
315.4603	0.1108
315.6716	0.1075
315.8828	0.1092
316.0941	0.1025
316.3053	0.1014
316.5165	0.0942
316.7277	0.1011
316.9389	0.1046
317.1501	0.111
317.3613	0.099
317.5724	0.0876
317.7836	0.1021
317.9947	0.1068
318.2058	0.1092
318.417	0.106
318.6281	0.0865
318.8391	0.0999
319.0502	0.0964
319.2613	0.109
319.4723	0.1077
319.6834	0.1067
319.8944	0.1013
320.1054	0.1044
320.3164	0.116
320.5274	0.1027
320.7383	0.1043
320.9493	0.1137
321.1602	0.1171
321.3712	0.1027
321.5821	0.1041
321.793	0.1133
322.0039	0.1014
322.2148	0.1036
322.4257	0.1132
322.6365	0.1268
322.8474	0.1047
323.0582	0.102
323.269	0.1152
323.4798	0.1243
323.6906	0.1112
323.9014	0.1121
324.1122	0.1077
324.3229	0.1129
324.5337	0.1174
324.7444	0.1002
324.9551	0.1201
325.1658	0.1204
325.3765	0.1067
325.5872	0.1106
325.7979	0.1037
326.0085	0.115
326.2192	0.1104
326.4298	0.1183
326.6404	0.1083
326.851	0.1063
327.0616	0.1116
327.2722	0.1124
327.4828	0.111
327.6933	0.1014
327.9039	0.1123
328.1144	0.1219
328.3249	0.1133
328.5354	0.1104
328.7459	0.1132
328.9564	0.1121
329.1669	0.1125
329.3773	0.1186
329.5878	0.1146
329.7982	0.1141
330.0086	0.1068
330.219	0.1152
330.4294	0.1115
330.6398	0.1206
330.8502	0.109
331.0605	0.1159
331.2708	0.1171
331.4812	0.1146
331.6915	0.1096
331.9018	0.1075
332.1121	0.1132
332.3224	0.12
332.5326	0.1192
332.7429	0.1129
332.9531	0.1252
333.1633	0.1187
333.3735	0.1102
333.5837	0.1283
333.7939	0.1163
334.0041	0.1223
334.2143	0.122
334.4244	0.1158
334.6346	0.0949
334.8447	0.1199
335.0548	0.1225
335.2649	0.1146
335.475	0.1158
335.685	0.1036
335.8951	0.1246
336.1051	0.1214
336.3152	0.12
336.5252	0.1106
336.7352	0.124
336.9452	0.1262
337.1552	0.1226
337.3652	0.1131
337.5751	0.1309
337.7851	0.12
337.995	0.1163
338.2049	0.1172
338.4148	0.1222
338.6247	0.1271
338.8346	0.1229
339.0445	0.1103
339.2543	0.1091
339.4642	0.1226
339.674	0.1191
339.8838	0.1225
340.0936	0.1155
340.3034	0.1355
340.5132	0.1362
340.7229	0.1302
340.9327	0.1244
341.1424	0.1152
341.3522	0.135
341.5619	0.1271
341.7716	0.1333
341.9813	0.1404
342.1909	0.1261
342.4006	0.1323
342.6102	0.1421
342.8199	0.1327
343.0295	0.1292
343.2391	0.1281
343.4487	0.1434
343.6583	0.1302
343.8679	0.137
344.0774	0.1399
344.287	0.1432
344.4965	0.1358
344.706	0.1489
344.9155	0.1304
345.125	0.136
345.3345	0.1394
345.544	0.136
345.7534	0.1402
345.9629	0.1215
346.1723	0.1399
346.3817	0.1376
346.5911	0.1348
346.8005	0.1433
347.0099	0.1322
347.2193	0.1363
347.4286	0.1354
347.638	0.1507
347.8473	0.1348
348.0566	0.1386
348.2659	0.1378
348.4752	0.1293
348.6845	0.1351
348.8937	0.1258
349.103	0.1439
349.3122	0.1341
349.5214	0.1411
349.7306	0.144
349.9398	0.1431
350.149	0.1455
350.3582	0.1345
350.5674	0.151
350.7765	0.1539
350.9856	0.1403
351.1948	0.1387
351.4039	0.1397
351.613	0.1506
351.822	0.1416
352.0311	0.1458
352.2402	0.1479
352.4492	0.1499
352.6582	0.1477
352.8672	0.1505
353.0762	0.137
353.2852	0.1562
353.4942	0.1377
353.7032	0.1505
353.9121	0.1559
354.1211	0.1572
354.33	0.1615
354.5389	0.1524
354.7478	0.151
354.9567	0.1512
355.1655	0.141
355.3744	0.1633
355.5833	0.1611
355.7921	0.1676
356.0009	0.1513
356.2097	0.1476
356.4185	0.1632
356.6273	0.1507
356.8361	0.1593
357.0448	0.1505
357.2536	0.1482
357.4623	0.1629
357.671	0.1588
357.8797	0.1686
358.0884	0.1726
358.2971	0.1601
358.5057	0.1542
358.7144	0.1681
358.923	0.1617
359.1316	0.1705
359.3402	0.1687
359.5488	0.1674
359.7574	0.1591
359.966	0.1716
360.1746	0.1561
360.3831	0.1747
360.5916	0.1611
360.8002	0.1699
361.0087	0.1804
361.2172	0.1633
361.4256	0.1764
361.6341	0.1809
361.8426	0.1775
362.051	0.1752
362.2594	0.1626
362.4678	0.1682
362.6762	0.1819
362.8846	0.1734
363.093	0.1911
363.3014	0.1689
363.5097	0.1587
363.718	0.1809
363.9264	0.1801
364.1347	0.1699
364.343	0.1793
364.5513	0.1908
364.7595	0.2042
364.9678	0.1739
365.176	0.1918
365.3842	0.1936
365.5925	0.1784
365.8007	0.1857
366.0089	0.1872
366.217	0.1717
366.4252	0.2017
366.6333	0.2018
366.8415	0.1877
367.0496	0.1887
367.2577	0.185
367.4658	0.2
367.6739	0.2019
367.882	0.1975
368.09	0.1806
368.2981	0.1976
368.5061	0.1868
368.7141	0.1876
368.9221	0.2056
369.1301	0.1989
369.3381	0.1976
369.5461	0.1942
369.754	0.1924
369.962	0.208
370.1699	0.1883
370.3778	0.2018
370.5857	0.1878
370.7936	0.1938
371.0015	0.1889
371.2093	0.2064
371.4172	0.201
371.625	0.189
371.8328	0.1749
372.0406	0.1999
372.2484	0.193
372.4562	0.2038
372.664	0.1891
372.8717	0.2073
373.0795	0.1786
373.2872	0.1882
373.4949	0.2009
373.7026	0.2052
373.9103	0.2044
374.118	0.2049
374.3256	0.201
374.5333	0.1996
374.7409	0.1993
374.9485	0.2109
375.1561	0.2143
375.3637	0.2099
375.5713	0.2089
375.7789	0.1959
375.9864	0.1977
376.194	0.1969
376.4015	0.2149
376.609	0.2222
376.8165	0.2124
377.024	0.2134
377.2315	0.1806
377.4389	0.2258
377.6464	0.2044
377.8538	0.2297
378.0612	0.222
378.2686	0.22
378.476	0.2291
378.6834	0.2228
378.8908	0.2203
379.0981	0.2166
379.3055	0.2077
379.5128	0.2062
379.7201	0.2083
379.9274	0.206
380.1347	0.2048
380.342	0.2345
380.5492	0.2106
380.7565	0.2076
380.9637	0.2055
381.1709	0.2119
381.3781	0.2387
381.5853	0.2304
381.7925	0.2246
381.9997	0.2231
382.2068	0.2252
382.4139	0.2254
382.6211	0.2057
382.8282	0.2103
383.0353	0.2055
383.2424	0.2159
383.4494	0.2208
383.6565	0.2129
383.8635	0.2163
384.0706	0.2188
384.2776	0.2186
384.4846	0.2086
384.6916	0.2148
384.8986	0.2072
385.1055	0.2278
385.3125	0.2176
385.5194	0.1901
385.7263	0.2257
385.9333	0.2126
386.1402	0.2075
386.347	0.2134
386.5539	0.2062
386.7608	0.2088
386.9676	0.1909
387.1744	0.208
387.3813	0.216
387.5881	0.2108
387.7948	0.2021
388.0016	0.2093
388.2084	0.2108
388.4151	0.2085
388.6219	0.2229
388.8286	0.2007
389.0353	0.2123
389.242	0.2142
389.4487	0.2032
389.6553	0.1954
389.862	0.1825
390.0686	0.1942
390.2753	0.2065
390.4819	0.2089
390.6885	0.2103
390.8951	0.2009
391.1016	0.2012
391.3082	0.1886
391.5147	0.1879
391.7213	0.1958
391.9278	0.1837
392.1343	0.1925
392.3408	0.2048
392.5473	0.208
392.7537	0.1935
392.9602	0.1997
393.1666	0.1929
393.373	0.2058
393.5794	0.1844
393.7858	0.1895
393.9922	0.1983
394.1986	0.1922
394.4049	0.1878
394.6113	0.1713
394.8176	0.1638
395.0239	0.1813
395.2302	0.1846
395.4365	0.1857
395.6428	0.1834
395.8491	0.1774
396.0553	0.187
396.2615	0.1771
396.4678	0.1768
396.674	0.1584
396.8802	0.188
397.0863	0.1949
397.2925	0.1675
397.4987	0.1698
397.7048	0.1779
397.9109	0.1809
398.117	0.1661
398.3231	0.1697
398.5292	0.1917
398.7353	0.1815
398.9413	0.1677
399.1474	0.1615
399.3534	0.1731
399.5594	0.1665
399.7654	0.1876
399.9714	0.1924
400.1774	0.1655
400.3833	0.1678
400.5893	0.166
400.7952	0.1705
401.0011	0.1776
401.207	0.1761
401.4129	0.163
401.6188	0.1814
401.8247	0.1824
402.0305	0.1649
402.2364	0.1692
402.4422	0.1751
402.648	0.1698
402.8538	0.19
403.0596	0.1763
403.2654	0.1728
403.4711	0.1463
403.6768	0.1787
403.8826	0.1925
404.0883	0.1674
404.294	0.1801
404.4997	0.1689
404.7054	0.1691
404.911	0.1745
405.1167	0.1638
405.3223	0.1863
405.5279	0.188
405.7335	0.1976
405.9391	0.18
406.1447	0.171
406.3502	0.1754
406.5558	0.1616
406.7613	0.1797
406.9668	0.1652
407.1724	0.1556
407.3778	0.171
407.5833	0.1754
407.7888	0.1658
407.9942	0.172
408.1997	0.1791
408.4051	0.1888
408.6105	0.1841
408.8159	0.1464
409.0213	0.1592
409.2267	0.1859
409.432	0.1717
409.6374	0.1771
409.8427	0.1742
410.048	0.163
410.2533	0.165
410.4586	0.1725
410.6639	0.1625
410.8691	0.1695
411.0744	0.163
411.2796	0.1619
411.4848	0.1628
411.69	0.1774
411.8952	0.1794
412.1004	0.1507
412.3056	0.1858
412.5107	0.1499
412.7158	0.1881
412.921	0.1574
413.1261	0.1576
413.3312	0.1482
413.5362	0.1559
413.7413	0.1596
413.9464	0.149
414.1514	0.1535
414.3564	0.1465
414.5614	0.1406
414.7664	0.17
414.9714	0.1577
415.1764	0.1736
415.3813	0.1601
415.5863	0.166
415.7912	0.1644
415.9961	0.16
416.201	0.1655
416.4059	0.1712
416.6108	0.1537
416.8156	0.1624
417.0205	0.1548
417.2253	0.1624
417.4301	0.1707
417.6349	0.1652
417.8397	0.1464
418.0445	0.1556
418.2492	0.1544
418.454	0.1437
418.6587	0.1671
418.8634	0.1613
419.0681	0.1624
419.2728	0.1666
419.4775	0.1615
419.6822	0.1635
419.8868	0.1349
420.0915	0.1491
420.2961	0.1473
420.5007	0.1509
420.7053	0.1611
420.9099	0.1529
421.1144	0.1665
421.319	0.145
421.5235	0.1535
421.728	0.1515
421.9325	0.1382
422.137	0.1542
422.3415	0.1563
422.546	0.1407
422.7504	0.1432
422.9549	0.1439
423.1593	0.1642
423.3637	0.1601
423.5681	0.1543
423.7725	0.1392
423.9769	0.131
424.1812	0.1336
424.3856	0.1409
424.5899	0.1381
424.7942	0.1407
424.9985	0.1389
425.2028	0.1409
425.4071	0.1577
425.6113	0.1233
425.8156	0.1423
426.0198	0.1391
426.224	0.1169
426.4282	0.1361
426.6324	0.1397
426.8366	0.1458
427.0407	0.1348
427.2449	0.1334
427.449	0.1332
427.6531	0.1061
427.8572	0.1149
428.0613	0.1229
428.2654	0.1339
428.4694	0.1273
428.6735	0.1129
428.8775	0.1339
429.0815	0.142
429.2855	0.1069
429.4895	0.1468
429.6935	0.1187
429.8975	0.1273
430.1014	0.105
430.3053	0.1114
430.5093	0.117
430.7132	0.1043
430.9171	0.1057
431.1209	0.1207
431.3248	0.1073
431.5286	0.1022
431.7325	0.0965
431.9363	0.0959
432.1401	0.1215
432.3439	0.0979
432.5477	0.0895
432.7514	0.0866
432.9552	0.1083
433.1589	0.0938
433.3627	0.1004
433.5664	0.1189
433.7701	0.094
433.9737	0.1017
434.1774	0.0827
434.3811	0.0922
434.5847	0.0953
434.7883	0.081
434.9919	0.0706
435.1955	0.0854
435.3991	0.0898
435.6027	0.0804
435.8062	0.0873
436.0098	0.0723
436.2133	0.0771
436.4168	0.0696
436.6203	0.0628
436.8238	0.0843
437.0272	0.071
437.2307	0.0698
437.4341	0.0738
437.6375	0.0872
437.841	0.0564
438.0443	0.0626
438.2477	0.0771
438.4511	0.0639
438.6545	0.0557
438.8578	0.0738
439.0611	0.0776
439.2644	0.0675
439.4677	0.0564
439.671	0.0525
439.8743	0.0663
440.0775	0.0491
440.2808	0.0586
440.484	0.0435
440.6872	0.0398
440.8904	0.0433
441.0936	0.0542
441.2967	0.028
441.4999	0.0581
441.703	0.043
441.9062	0.0535
442.1093	0.042
442.3124	0.0432
442.5155	0.043
442.7185	0.0549
442.9216	0.0269
443.1246	0.0524
443.3276	0.0398
443.5307	0.0508
443.7337	0.0527
443.9366	0.0441
444.1396	0.05
444.3426	0.0394
444.5455	0.044
444.7484	0.0347
444.9513	0.0346
445.1542	0.0643
445.3571	0.0297
445.56	0.0426
445.7628	0.0187
445.9657	0.0267
446.1685	0.0457
446.3713	0.0429
446.5741	0.0258
446.7769	0.0283
446.9797	0.0368
447.1824	0.0228
447.3852	0.0295
447.5879	0.0235
447.7906	0.0342
447.9933	0.0277
448.196	0.031
448.3986	-0.002
448.6013	0.0219
448.8039	-0.0013
449.0066	0.0172
449.2092	0.0295
449.4118	0.0131
449.6143	0.0332
449.8169	0.0246
450.0195	0.0056
450.222	-0.0085
450.4245	0.0187
450.627	0.0282
450.8295	0.0205
451.032	0.0112
451.2345	0.0211
451.4369	0.0196
451.6394	0.0178
451.8418	-0.0148
452.0442	0.0105
452.2466	0.0272
452.449	-0.0031
452.6513	0.0117
452.8537	0.0088
453.056	-0.011
453.2583	0.012
453.4607	-0.0059
453.663	0.0139
453.8652	0.024
454.0675	-0.0039
454.2697	0.0123
454.472	-0.0046
454.6742	0.005
454.8764	0.028
455.0786	0.0177
455.2808	0.0014
455.4829	0.0204
455.6851	0.0242
455.8872	0.0036
456.0893	0.0275
456.2915	0.0014
456.4935	0.0068
456.6956	0.0084
456.8977	0.0127
457.0997	0.0062
457.3018	-0.0047
457.5038	0.0179
457.7058	-0.0027
457.9078	0.0034
458.1098	0.0215
458.3117	0.0099
458.5137	0.0087
458.7156	0.0134
458.9175	-0.0131
459.1194	0.003
459.3213	0.0032
459.5232	-0.0068
459.725	-0.0074
459.9269	0.0045
460.1287	-0.0014
460.3305	-0.0001
460.5323	0.0025
460.7341	-0.0134
460.9359	0.0057
461.1376	0.0062
461.3394	-0.0013
461.5411	-0.0032
461.7428	-0.0043
461.9445	0.0071
462.1462	0.0167
462.3479	-0.0098
462.5495	0.0081
462.7512	0.0005
462.9528	-0.0081
463.1544	-0.0076
463.356	-0.002
463.5576	0.0052
463.7592	-0.0119
463.9607	-0.0068
464.1623	0.0061
464.3638	0.012
464.5653	-0.003
464.7668	0.0021
464.9683	0.0098
465.1697	0.0103
465.3712	-0.0191
465.5726	-0.0086
465.7741	-0.0045
465.9755	-0.0084
466.1769	-0.0089
466.3782	-0.0015
466.5796	-0.0074
466.7809	0.0049
466.9823	-0.0107
467.1836	-0.0066
467.3849	-0.0134
467.5862	0.0114
467.7875	-0.005
467.9887	0.0016
468.19	-0.0112
468.3912	-0.0226
468.5924	-0.008
468.7936	0.005
468.9948	0.0015
469.196	-0.011
469.3972	-0.0055
469.5983	0.002
469.7994	-0.003
470.0006	-0.0089
470.2017	-0.005
470.4027	-0.0072
470.6038	0.0014
470.8049	-0.0151
471.0059	0.0073
471.2069	-0.0258
471.408	-0.0131
471.6089	0.0007
471.8099	-0.0042
472.0109	0.0005
472.2119	0.0002
472.4128	-0.0148
472.6137	0.0052
472.8146	-0.0191
473.0155	-0.0018
473.2164	-0.0072
473.4173	-0.0093
473.6181	-0.0001
473.819	0.0034
474.0198	0
474.2206	-0.0028
474.4214	-0.023
474.6222	-0.0036
474.8229	-0.0063
475.0237	-0.0131
475.2244	-0.0111
475.4251	-0.0125
475.6258	-0.009
475.8265	-0.0084
476.0272	0.0023
476.2278	-0.0043
476.4285	-0.0123
476.6291	-0.0078
476.8297	-0.0097
477.0303	-0.0068
477.2309	-0.0023
477.4315	-0.0153
477.632	-0.0063
477.8326	-0.0105
478.0331	-0.0015
478.2336	0.0078
478.4341	-0.0025
478.6346	-0.0144
478.8351	-0.0135
479.0355	-0.0054
479.236	-0.004
479.4364	0.0026
479.6368	-0.001
479.8372	-0.0122
480.0376	-0.0153
480.2379	-0.0248
480.4383	-0.0138
480.6386	-0.0082
480.8389	-0.0122
481.0392	-0.0198
481.2395	-0.0102
481.4398	-0.0072
481.6401	-0.017
481.8403	-0.0112
482.0405	-0.0052
482.2408	-0.0071
482.441	-0.0053
482.6411	-0.0102
482.8413	-0.0071
483.0415	-0.0162
483.2416	-0.0089
483.4417	-0.0148
483.6419	-0.0073
483.8419	-0.0177
484.042	0.0002
484.2421	-0.0011
484.4422	-0.0009
484.6422	-0.0097
484.8422	-0.0059
485.0422	-0.0225
485.2422	-0.002
485.4422	-0.021
485.6422	-0.0149
485.8421	-0.0177
486.042	-0.0144
486.242	0.002
486.4419	-0.0245
486.6417	-0.0117
486.8416	-0.005
487.0415	-0.0087
487.2413	-0.0065
487.4411	-0.018
487.641	-0.0137
487.8408	-0.0069
488.0405	-0.0112
488.2403	-0.0189
488.4401	-0.0128
488.6398	-0.0054
488.8395	-0.0069
489.0392	-0.0023
489.2389	-0.0156
489.4386	-0.0084
489.6383	-0.0082
489.8379	-0.0114
490.0376	-0.0116
490.2372	-0.0094
490.4368	-0.01
490.6364	-0.0033
490.836	-0.0156
491.0355	-0.0153
491.2351	-0.0081
491.4346	-0.0125
491.6341	-0.0135
491.8336	-0.008
492.0331	-0.0226
492.2326	-0.0245
492.432	-0.0012
492.6315	-0.0261
492.8309	-0.0263
493.0303	-0.0129
493.2297	-0.0122
493.4291	-0.0142
493.6284	-0.016
493.8278	-0.0141
494.0271	0.0017
494.2264	-0.0013
494.4257	-0.0119
494.625	0.0029
494.8243	-0.0223
495.0236	-0.0152
495.2228	-0.03
495.422	-0.0096
495.6213	-0.0028
495.8205	-0.0036
496.0196	-0.0077
496.2188	-0.0096
496.418	-0.0173
496.6171	-0.0146
496.8162	-0.0134
497.0153	-0.001
497.2144	-0.0154
497.4135	-0.0068
497.6126	-0.0111
497.8116	-0.0118
498.0107	-0.0167
498.2097	-0.0088
498.4087	-0.0102
498.6077	-0.0022
498.8067	-0.0023
499.0056	-0.0058
499.2046	-0.0041
499.4035	-0.0241
499.6024	-0.0055
499.8013	-0.0079
500.0002	-0.0176
500.199	-0.0066
500.3979	-0.0152
500.5967	-0.0264
500.7956	0.0003
500.9944	-0.0066
501.1932	-0.0035
501.3919	-0.0214
501.5907	-0.0181
501.7895	-0.0073
501.9882	-0.0195
502.1869	-0.0162
502.3856	-0.016
502.5843	-0.0058
502.783	-0.0149
502.9816	-0.0165
503.1803	-0.0144
503.3789	-0.0188
503.5775	-0.0093
503.7761	-0.012
503.9747	-0.0005
504.1732	-0.0151
504.3718	-0.0026
504.5703	-0.0163
504.7689	-0.0202
504.9674	-0.0067
505.1658	-0.0187
505.3643	-0.0101
505.5628	-0.0121
505.7612	-0.0122
505.9597	0.0011
506.1581	-0.0195
506.3565	0.0006
506.5549	-0.0092
506.7532	-0.0177
506.9516	-0.0099
507.1499	-0.0147
507.3482	-0.0219
507.5465	-0.0123
507.7448	-0.0088
507.9431	-0.0076
508.1414	-0.0045
508.3396	-0.0121
508.5379	0.0003
508.7361	-0.0124
508.9343	-0.0065
509.1325	-0.0121
509.3306	-0.003
509.5288	-0.013
509.7269	-0.0115
509.9251	-0.0116
510.1232	-0.0226
510.3213	-0.0119
510.5193	-0.0066
510.7174	-0.0135
510.9154	-0.0179
511.1135	-0.0155
511.3115	-0.0158
511.5095	-0.0065
511.7075	-0.0154
511.9055	-0.0078
512.1034	-0.0194
512.3014	-0.0053
512.4993	-0.0081
512.6972	-0.0119
512.8951	-0.0185
513.093	-0.0144
513.2908	-0.0086
513.4887	0.0015
513.6865	-0.0092
513.8844	-0.012
514.0822	-0.019
514.2799	-0.0184
514.4777	-0.0162
514.6755	-0.0153
514.8732	-0.0133
515.0709	-0.0045
515.2687	-0.0181
515.4664	-0.0108
515.664	-0.012
515.8617	-0.0177
516.0594	-0.0221
516.257	-0.0048
516.4546	-0.0228
516.6522	-0.0033
516.8498	-0.0047
517.0474	-0.012
517.2449	0.0048
517.4425	-0.0197
517.64	-0.0222
517.8375	-0.0037
518.035	-0.0003
518.2325	-0.0124
518.43	-0.0083
518.6274	-0.0165
518.8249	-0.0051
519.0223	-0.0103
519.2197	-0.0108
519.4171	-0.0166
519.6145	-0.0165
519.8118	-0.0001
520.0092	-0.0151
520.2065	-0.011
520.4038	-0.0191
520.6011	-0.0159
520.7984	-0.0132
520.9956	-0.0119
521.1929	-0.0196
521.3901	-0.0042
521.5874	-0.0168
521.7846	-0.0041
521.9818	-0.0081
522.1789	-0.0058
522.3761	-0.0106
522.5732	-0.0074
522.7704	-0.0091
522.9675	-0.0018
523.1646	-0.0186
523.3617	-0.0058
523.5587	-0.0028
523.7558	-0.0039
523.9528	-0.0102
524.1498	-0.0108
524.3468	-0.0095
524.5438	-0.0102
524.7408	-0.0033
524.9378	0.0037
525.1347	-0.0012
525.3316	-0.0053
525.5285	-0.014
525.7254	-0.0047
525.9223	-0.0109
526.1192	-0.0085
526.316	-0.0221
526.5129	-0.0025
526.7097	-0.0034
526.9065	-0.0041
527.1033	-0.018
527.3	-0.0014
527.4968	-0.0154
527.6935	-0.0083
527.8903	-0.0092
528.087	-0.0085
528.2837	-0.006
528.4804	-0.0032
528.677	-0.0087
528.8737	-0.0021
529.0703	-0.0109
529.2669	-0.0138
529.4635	-0.0152
529.6601	-0.0056
529.8567	-0.0021
530.0532	-0.0099
530.2498	-0.0027
530.4463	-0.0026
530.6428	-0.0108
530.8393	0.0007
531.0358	-0.0127
531.2322	-0.0059
531.4287	-0.0085
531.6251	-0.0149
531.8215	-0.0047
532.0179	-0.0106
532.2143	-0.0051
532.4107	-0.0102
532.607	-0.0131
532.8034	-0.0048
532.9997	0.0015
533.196	-0.0029
533.3923	-0.0112
533.5886	-0.0068
533.7848	-0.0011
533.9811	-0.0141
534.1773	0.0008
534.3735	-0.0028
534.5697	-0.0081
534.7659	-0.0071
534.9621	-0.0037
535.1582	-0.0085
535.3544	-0.0146
535.5505	-0.0149
535.7466	-0.0021
535.9427	-0.0024
536.1387	-0.0087
536.3348	-0.0084
536.5308	0.0012
536.7269	-0.0157
536.9229	-0.0063
537.1189	-0.0089
537.3148	-0.0086
537.5108	-0.0119
537.7068	-0.0114
537.9027	-0.0103
538.0986	-0.0137
538.2945	-0.0093
538.4904	-0.0075
538.6863	-0.0095
538.8821	-0.0017
539.078	-0.011
539.2738	-0.0083
539.4696	-0.0066
539.6654	-0.0072
539.8611	0.0059
540.0569	-0.0084
540.2526	-0.0119
540.4484	-0.0047
540.6441	0.0024
540.8398	-0.0001
541.0355	0.0005
541.2311	-0.0032
541.4268	-0.0128
541.6224	-0.003
541.818	-0.0029
542.0136	-0.0139
542.2092	-0.0017
542.4048	-0.0069
542.6003	-0.0017
542.7959	-0.0076
542.9914	-0.0089
543.1869	-0.0077
543.3824	-0.0063
543.5779	-0.0094
543.7734	-0.0097
543.9688	-0.0124
544.1642	0.0037
544.3596	-0.0052
544.555	-0.0037
544.7504	-0.0036
544.9458	-0.0105
545.1411	-0.012
545.3365	-0.0092
545.5318	-0.0037
545.7271	-0.0005
545.9224	-0.0057
546.1177	0.0019
546.3129	-0.0073
546.5081	-0.0075
546.7034	-0.01
546.8986	-0.0181
547.0938	-0.0136
547.289	-0.0041
547.4841	-0.0073
547.6793	0.0066
547.8744	-0.0096
548.0695	-0.0021
548.2646	-0.0024
548.4597	-0.0043
548.6548	-0.0152
548.8498	0.0011
549.0448	0.0091
549.2399	-0.0014
549.4349	0.0005
549.6298	-0.0094
549.8248	-0.0072
550.0198	-0.0093
550.2147	-0.0105
550.4096	-0.0055
550.6045	0.003
550.7994	-0.0018
550.9943	-0.0059
551.1892	-0.0018
551.384	0.0013
551.5788	-0.0048
551.7737	0.0006
551.9685	-0.003
552.1632	-0.0006
552.358	0.0003
552.5528	-0.006
552.7475	-0.0047
552.9422	-0.0012
553.1369	-0.0033
553.3316	0.0009
553.5263	-0.0104
553.7209	0.0076
553.9156	-0.0119
554.1102	-0.0109
554.3048	-0.0096
554.4994	0.0017
554.694	-0.0001
554.8885	0.0008
555.0831	-0.008
555.2776	-0.022
555.4721	-0.0118
555.6666	-0.0037
555.8611	0.0025
556.0555	-0.0011
556.25	-0.0084
556.4444	-0.0051
556.6388	-0.0037
556.8332	-0.0033
557.0276	-0.0048
557.222	-0.0095
557.4163	-0.0037
557.6107	-0.0044
557.805	-0.0043
557.9993	-0.0017
558.1936	-0.0077
558.3879	-0.0005
558.5821	-0.0051
558.7764	-0.0064
558.9706	-0.0027
559.1648	0.0001
559.359	-0.0109
559.5532	-0.0127
559.7473	-0.004
559.9415	0.0037
560.1356	-0.0084
560.3297	-0.0112
560.5238	-0.0086
560.7179	-0.0076
560.9119	-0.0132
561.106	-0.0081
561.3	-0.0148
561.494	-0.0014
561.688	-0.0071
561.882	-0.0205
562.076	-0.012
562.2699	-0.0024
562.4639	-0.0046
562.6578	-0.006
562.8517	-0.0048
563.0456	-0.0082
563.2395	-0.0122
563.4333	0.0047
563.6272	0.0056
563.821	-0.0082
564.0148	-0.0003
564.2086	-0.0133
564.4024	-0.0036
564.5961	-0.0068
564.7899	0.0021
564.9836	-0.0103
565.1773	-0.0067
565.371	0.0014
565.5647	-0.0078
565.7584	-0.0001
565.952	-0.0014
566.1456	-0.0061
566.3393	-0.0014
566.5329	-0.0082
566.7264	0.0016
566.92	-0.0055
567.1136	-0.0052
567.3071	-0.01
567.5006	-0.0034
567.6941	0.0004
567.8876	-0.0034
568.0811	-0.0101
568.2745	-0.0041
568.468	0.0018
568.6614	-0.0004
568.8548	0.0034
569.0482	-0.0049
569.2416	-0.0009
569.4349	-0.0079
569.6283	-0.0059
569.8216	-0.0087
570.0149	-0.011
570.2082	0.0069
570.4015	0.0006
570.5947	0.0044
570.788	-0.0004
570.9812	0.0053
571.1744	-0.0027
571.3676	-0.0061
571.5608	-0.0102
571.754	0.0016
571.9471	0.0037
572.1402	0.0017
572.3333	-0.0084
572.5264	-0.0031
572.7195	-0.0054
572.9126	0.0003
573.1057	-0.0077
573.2987	-0.003
573.4917	-0.0038
573.6847	-0.0084
573.8777	0.0024
574.0707	-0.002
574.2636	-0.0096
574.4566	-0.0071
574.6495	0.0064
574.8424	0.002
575.0353	-0.0064
575.2281	0.0041
575.421	0.0037
575.6138	-0.0005
575.8067	-0.0067
575.9995	-0.0067
576.1923	0.0015
576.385	-0.0013
576.5778	-0.0062
576.7706	0.0012
576.9633	-0.0051
577.156	0.0005
577.3487	-0.0018
577.5414	-0.003
577.734	-0.0032
577.9267	0.0042
578.1193	-0.0184
578.3119	-0.0093
578.5045	-0.0097
578.6971	-0.0013
578.8897	0.0029
579.0822	-0.0075
579.2747	0.0009
579.4673	0.0019
579.6598	-0.0058
579.8522	-0.0008
580.0447	-0.0103
580.2372	-0.0072
580.4296	0.0027
580.622	-0.0058
580.8144	0.0025
581.0068	-0.0055
581.1992	-0.0103
581.3915	-0.005
581.5839	-0.0092
581.7762	-0.0067
581.9685	-0.0059
582.1608	-0.0024
582.353	-0.0028
582.5453	-0.0043
582.7375	-0.0083
582.9298	-0.0065
583.122	-0.005
583.3142	0.0046
583.5063	-0.0051
583.6985	-0.0033
583.8906	-0.0079
584.0827	-0.0045
584.2749	0.0004
584.4669	0.0045
584.659	-0.0044
584.8511	-0.0062
585.0431	-0.0087
585.2352	-0.0039
585.4272	-0.0064
585.6192	-0.0057
585.8111	-0.0024
586.0031	-0.0045
586.195	-0.0078
586.387	-0.0025
586.5789	0
586.7708	0.0029
586.9627	0.0034
587.1545	-0.0054
587.3464	-0.0039
587.5382	-0.0008
587.73	0.0013
587.9218	0.0023
588.1136	-0.0047
588.3053	0.002
588.4971	-0.0072
588.6888	-0.0169
588.8805	0.0021
589.0722	0.0015
589.2639	0.0007
589.4556	-0.0046
589.6472	-0.0008
589.8389	-0.0056
590.0305	-0.0116
590.2221	0.0017
590.4137	-0.0123
590.6052	0.0007
590.7968	-0.0013
590.9883	-0.0063
591.1798	-0.0056
591.3713	-0.0087
591.5628	0.0024
591.7543	0.0065
591.9458	-0
592.1372	0.0021
592.3286	0.0037
592.52	0.0055
592.7114	-0.0056
592.9028	-0.0087
593.0941	-0.0041
593.2855	-0.0057
593.4768	-0.0042
593.6681	-0.0135
593.8594	-0.0025
594.0506	0.0001
594.2419	0.0025
594.4331	0.0029
594.6244	0.0025
594.8156	-0.0096
595.0067	-0.0086
595.1979	-0.0052
595.3891	-0.0003
595.5802	-0.0053
595.7713	-0.0077
595.9624	-0.0071
596.1535	0.0033
596.3446	-0.0035
596.5357	-0.0037
596.7267	0.0046
596.9177	-0.0024
597.1087	-0.0076
597.2997	0.001
597.4907	0.0028
597.6817	-0.0027
597.8726	-0.0005
598.0635	-0.0015
598.2544	-0.0053
598.4453	-0.0029
598.6362	-0.004
598.827	-0.0055
599.0179	0.0042
599.2087	-0.0006
599.3995	0.0029
599.5903	0.0021
599.7811	-0.0012
599.9718	0.002
600.1626	-0.006
600.3533	-0.0071
600.544	-0.0018
600.7347	-0.0033
600.9254	0.004
601.116	-0.0081
601.3067	-0.0019
601.4973	0.0014
601.6879	0.0006
601.8785	-0.0108
602.0691	0.0015
602.2596	0.0002
602.4502	0.0027
602.6407	0.002
602.8312	-0.0054
603.0217	-0.0018
603.2122	0.0012
603.4027	-0.0043
603.5931	-0.0025
603.7835	-0.0022
603.9739	-0.0034
604.1643	-0.0027
604.3547	-0.0045
604.5451	-0.0038
604.7354	-0.0054
604.9257	0.0015
605.116	-0.0085
605.3063	0.0006
605.4966	0.0008
605.6869	0.0029
605.8771	0.0029
606.0673	-0.0004
606.2575	0.0062
606.4477	0.0059
606.6379	0.0068
606.8281	0.0042
607.0182	-0.0022
607.2083	0.0148
607.3985	0.0005
607.5885	-0.0031
607.7786	-0.0014
607.9687	-0.0028
608.1587	-0.0049
608.3488	0.0006
608.5388	0.0028
608.7288	0.0002
608.9187	-0.0043
609.1087	-0.0043
609.2986	-0.0046
609.4886	-0.0026
609.6785	-0.0065
609.8684	-0.0009
610.0582	0.0029
610.2481	0.002
610.4379	-0.0027
610.6278	0.0037
610.8176	-0.0037
611.0074	-0.0012
611.1971	-0.0071
611.3869	-0.0011
611.5766	-0.0079
611.7664	-0.0014
611.9561	0.0022
612.1458	-0.0031
612.3354	-0.0067
612.5251	0.0021
612.7147	0.0032
612.9044	0.0007
613.094	-0.0069
613.2836	-0.0046
613.4731	-0.0053
613.6627	-0.0103
613.8522	0.0014
614.0417	-0.0032
614.2313	0.0018
614.4207	-0.0064
614.6102	0.0061
614.7997	-0.0054
614.9891	-0.0019
615.1785	-0.0009
615.3679	-0.0038
615.5573	0.0108
615.7467	0.0002
615.9361	-0.0039
616.1254	0.0011
616.3147	-0.0005
616.504	-0.0066
616.6933	-0.0044
616.8826	-0.0027
617.0718	-0.0016
617.2611	-0.0013
617.4503	-0.0072
617.6395	-0.0037
617.8287	-0.0051
618.0179	0.0012
618.207	0.0095
618.3961	-0.0013
618.5853	-0.0036
618.7744	0.0048
618.9634	0.0075
619.1525	0.001
619.3416	-0.001
619.5306	0.005
619.7196	-0.0086
619.9086	-0.0003
620.0976	-0.0045
620.2866	-0.0049
620.4755	0.002
620.6645	-0.0004
620.8534	0.0004
621.0423	0.0006
621.2312	0.005
621.42	0.0009
621.6089	0.0006
621.7977	0.0022
621.9865	-0.0106
622.1753	-0.0006
622.3641	-0.0079
622.5529	0.002
622.7416	0.0033
622.9303	-0.0047
623.1191	0.007
623.3078	-0.0027
623.4964	-0.0003
623.6851	-0.0056
623.8737	-0.0036
624.0624	0.0054
624.251	-0.0079
624.4396	-0.0064
624.6282	-0.0039
624.8167	-0.0018
625.0053	-0.0035
625.1938	0.0026
625.3823	-0.003
625.5708	-0.008
625.7593	-0.0103
625.9477	-0.0114
626.1362	-0.0052
626.3246	-0.0029
626.513	0.0081
626.7014	0.0032
626.8898	-0.0011
627.0781	0.0013
627.2665	-0.0011
627.4548	0.0038
627.6431	-0.0024
627.8314	0.001
628.0197	0.0017
628.2079	-0.0073
628.3962	-0.0059
628.5844	-0.0007
628.7726	0.0075
628.9608	-0.0047
629.1489	-0.0042
629.3371	-0.0017
629.5252	0.0018
629.7134	0.0019
629.9015	-0.0027
630.0895	0.0047
630.2776	0.0003
630.4657	0.0012
630.6537	0.0017
630.8417	-0.0046
631.0297	0.0001
631.2177	-0.0028
631.4057	-0.0053
631.5936	0.0007
631.7815	0.0024
631.9695	0.0023
632.1574	0.0081
632.3452	0.0095
632.5331	0.0057
632.7209	0.001
632.9088	0.0003
633.0966	0.0067
633.2844	-0.0081
633.4722	-0.0028
633.6599	0.001
633.8477	-0.0009
634.0354	0.0039
634.2231	-0.0051
634.4108	-0.0054
634.5985	0.0034
634.7861	-0.0001
634.9738	-0.0065
635.1614	-0.0019
635.349	0.006
635.5366	-0.0032
635.7242	0.0028
635.9117	0.0031
636.0993	-0.0017
636.2868	0.0075
636.4743	-0.0087
636.6618	0.0017
636.8492	-0.0019
637.0367	0.0042
637.2241	-0.0031
637.4115	-0.0047
637.5989	0.0005
637.7863	-0.0018
637.9737	-0.0028
638.161	0.0044
638.3484	-0.0045
638.5357	0.006
638.723	-0.0065
638.9103	0.0096
639.0975	-0.0019
639.2848	0.0076
639.472	0.0023
639.6592	0.001
639.8464	0.0084
640.0336	0.0098
640.2208	-0.0056
640.4079	0.0009
640.595	0.0082
640.7821	0.0084
640.9692	0.0011
641.1563	-0.0014
641.3434	-0.0012
641.5304	-0.0022
641.7174	0.0036
641.9044	-0.0001
642.0914	0.0031
642.2784	0.0072
642.4653	0.0114
642.6523	-0.0036
642.8392	0.004
643.0261	0.0061
643.213	0.0053
643.3999	0.0011
643.5867	-0.0029
643.7735	0.0042
643.9604	0.0011
644.1472	0.0023
644.3339	0.0057
644.5207	0.0043
644.7075	0.0015
644.8942	0.0037
645.0809	0.0053
645.2676	0.0039
645.4543	0.0068
645.6409	0.0044
645.8276	0.0103
646.0142	0.0113
646.2008	-0.0047
646.3874	-0.0025
646.574	-0.0031
646.7605	-0.0059
646.9471	-0.0072
647.1336	0.0015
647.3201	0.0004
647.5066	-0.0063
647.6931	0.0039
647.8795	0.001
648.0659	0.0023
648.2524	0.0086
648.4388	-0.0025
648.6252	-0.0073
648.8115	0.0045
648.9979	0.0022
649.1842	0.0054
649.3705	-0.0011
649.5568	-0.001
649.7431	-0.0007
649.9294	-0.0055
650.1156	-0.0032
650.3018	-0.0027
650.488	0.0043
650.6742	-0.0025
650.8604	0.0068
651.0466	-0.0089
651.2327	0.0001
651.4188	0.0051
651.6049	-0.0033
651.791	-0.0005
651.9771	0.0043
652.1632	-0.001
652.3492	0.001
652.5352	-0.0052
652.7212	-0.0097
652.9072	0.002
653.0932	-0.0013
653.2791	-0.0067
653.465	-0.0067
653.651	-0.0051
653.8369	-0.003
654.0227	0.0035
654.2086	0.0092
654.3944	0.0063
654.5803	0.0041
654.7661	-0.0044
654.9519	-0.0054
655.1377	-0.0079
655.3234	-0.0042
655.5092	-0.0054
655.6949	-0.0053
655.8806	-0.0034
656.0663	0.0011
656.2519	-0.0061
656.4376	-0.0047
656.6232	0.0067
656.8088	0.0008
656.9945	-0.0016
657.18	-0.0014
657.3656	0.003
657.5511	-0.0031
657.7367	-0.007
657.9222	0.0059
658.1077	0.0001
658.2932	0.0054
658.4786	-0.0117
658.6641	-0.0033
658.8495	-0.0002
659.0349	0.0025
659.2203	0.0034
659.4057	-0.0016
659.591	0
659.7764	-0.0029
659.9617	-0.0034
660.147	0.0023
660.3323	0.0042
660.5176	0.0023
660.7028	0.0017
660.888	0.0024
661.0733	0.0013
661.2585	-0.0015
661.4436	-0.0027
661.6288	0.0014
661.8139	-0.0001
661.9991	0.0039
662.1842	-0.0009
662.3693	0.0017
662.5544	0.0012
662.7394	0.0004
662.9245	-0.0021
663.1095	-0.0033
663.2945	-0.0056
663.4795	-0.0074
663.6644	-0.0006
663.8494	-0.0001
664.0343	-0.0019
664.2193	0.0008
664.4042	0.0018
664.589	-0.0072
664.7739	-0.0106
664.9587	-0.0072
665.1436	-0.0044
665.3284	-0.0036
665.5132	-0.0066
665.698	-0.0025
665.8827	-0.0011
666.0675	-0.005
666.2522	-0.0067
666.4369	-0.001
666.6216	0.0073
666.8063	-0.0021
666.9909	-0.0019
667.1756	-0.0019
667.3602	0.0024
667.5448	-0.0021
667.7294	0.0107
667.9139	0.0023
668.0985	0.0105
668.283	0.0024
668.4675	-0.0032
668.652	0.0013
668.8365	-0.0002
669.0209	0.009
669.2054	-0.0002
669.3898	-0.0048
669.5742	-0.0039
669.7586	-0.0013
669.943	0.0019
670.1273	0.0033
670.3117	0.0022
670.496	0.0064
670.6803	0.0126
670.8646	0.0064
671.0488	-0.0037
671.2331	0.0037
671.4173	0.0057
671.6015	-0.0053
671.7857	-0.0026
671.9699	0.0041
672.1541	0.0082
672.3382	0.0047
672.5223	0.0075
672.7064	0.0032
672.8905	0.0061
673.0746	0.0075
673.2587	-0.0056
673.4427	0.0047
673.6267	-0.0017
673.8107	0.0054
673.9947	0.0056
674.1787	-0.003
674.3626	-0.0061
674.5465	0.0041
674.7304	0.0011
674.9143	0.0053
675.0982	0.0099
675.2821	-0.0048
675.4659	0.001
675.6497	0.0011
675.8335	-0.0028
676.0173	0.0013
676.2011	0.0009
676.3849	0
676.5686	-0.0043
676.7523	0.0032
676.936	0.0006
677.1197	-0.0071
677.3034	-0.006
677.487	0.0048
677.6706	-0.0032
677.8542	-0.0047
678.0378	-0.0062
678.2214	-0.0107
678.405	0.0012
678.5885	-0.0094
678.772	-0.0031
678.9555	-0.0088
679.139	-0.0018
679.3225	0.0008
679.5059	-0.003
679.6894	0.0041
679.8728	-0.0038
680.0562	-0.0126
680.2395	0.0002
680.4229	-0.0008
680.6062	0.0077
680.7896	0.0032
680.9729	-0.0037
681.1562	0.0035
681.3394	-0.0042
681.5227	-0.01
681.7059	0.0021
681.8891	-0.0034
682.0723	0.0108
682.2555	0.0055
682.4387	0.0086
682.6218	-0.005
682.805	0.0038
682.9881	0.0002
683.1712	0.002
683.3542	-0.0121
683.5373	-0.0017
683.7203	-0.0082
683.9034	0.0022
684.0864	-0.0128
684.2694	-0.0081
684.4523	-0.0019
684.6353	-0.0056
684.8182	-0.0033
685.0011	-0.0042
685.184	0.0001
685.3669	-0.0033
685.5498	-0.0002
685.7326	-0.0032
685.9154	-0.003
686.0982	0.0082
686.281	0.0033
686.4638	-0.0017
686.6465	-0.0071
686.8293	-0.0053
687.012	-0.0076
687.1947	-0.0113
687.3774	-0.0014
687.56	-0.0019
687.7427	-0.0011
687.9253	-0.006
688.1079	0.0003
688.2905	0.0019
688.4731	-0.0061
688.6556	-0.0014
688.8382	-0.0117
689.0207	-0.003
689.2032	-0.0101
689.3857	-0.0147
689.5681	-0.0036
689.7506	-0.0129
689.933	-0.0052
690.1154	-0.0053
690.2978	-0.0051
690.4802	-0.0017
690.6626	-0.012
690.8449	-0.0049
691.0272	0.0029
691.2095	-0.012
691.3918	-0.0088
691.5741	0.0056
691.7563	-0.0032
691.9386	-0.0037
692.1208	-0.0086
692.303	-0.0033
692.4852	-0.0096
692.6673	-0.0043
692.8495	-0.0064
693.0316	0.0001
693.2137	-0.0081
693.3958	0.0044
693.5778	-0.0055
693.7599	0.0009
693.9419	-0.0096
694.1239	-0.0027
694.3059	-0.0055
694.4879	0.0064
694.6699	0.0108
694.8518	-0.001
695.0337	-0.0087
695.2157	0.0054
695.3975	0.0077
695.5794	0.0042
695.7613	0.0033
695.9431	-0.0029
696.1249	0.0027
696.3067	-0.0026
696.4885	0.0071
696.6703	-0.0067
696.852	0.0023
697.0337	-0.0033
697.2154	0.0041
697.3971	0.0075
697.5788	-0.0056
697.7605	0.002
697.9421	0.0028
698.1237	-0.0039
698.3053	-0.0032
698.4869	0.0002
698.6685	-0.0109
698.85	-0.0068
699.0315	0.001
699.213	-0.0016
699.3945	0.0037
699.576	0.0069
699.7575	0.0015
699.9389	0.0065
700.1203	-0.0094
700.3017	-0.0089
700.4831	-0.0131
700.6645	-0.0041
700.8458	0.0026
701.0271	0.0011
701.2084	0.0015
701.3897	-0.004
701.571	-0.0017
701.7523	-0.0029
701.9335	0.0026
702.1147	0.0025
702.2959	0.0019
702.4771	-0.0005
702.6583	-0.002
702.8394	-0.0039
703.0205	-0.0001
703.2016	-0.0055
703.3827	-0.0031
703.5638	0.0077
703.7449	0.0015
703.9259	0.012
704.1069	-0.0014
704.2879	0.0036
704.4689	0.0027
704.6499	-0.0047
704.8308	-0.007
705.0117	-0.0034
705.1927	0.002
705.3735	-0.0016
705.5544	-0.0076
705.7353	-0.0038
705.9161	-0.0074
706.0969	-0.0016
706.2777	-0.0047
706.4585	-0.0055
706.6393	0.0011
706.82	0.0005
707.0007	0.0051
707.1815	-0.0011
707.3621	0.0128
707.5428	-0.0036
707.7235	-0
707.9041	-0.0019
708.0847	-0.0175
708.2653	-0.0037
708.4459	-0.0124
708.6265	-0.0042
708.807	0.0039
708.9875	-0.0005
709.168	-0.0107
709.3485	-0.0015
709.529	-0.0037
709.7095	-0.0151
709.8899	-0.0023
710.0703	-0.015
710.2507	0.0012
710.4311	-0.001
710.6115	-0.0137
710.7918	-0.0107
710.9721	0.0024
711.1524	-0.0057
711.3327	-0.0083
711.513	0.0008
711.6932	0.0038
711.8735	0.0059
712.0537	0.0043
712.2339	-0.0021
712.4141	-0.0083
712.5942	-0.0067
712.7744	-0.0074
712.9545	-0.0101
713.1346	-0.0085
713.3147	-0.0036
713.4947	-0.0048
713.6748	-0.0103
713.8548	-0.0022
714.0348	-0.0112
714.2148	-0.0055
714.3948	0.0001
714.5748	-0.0128
714.7547	-0.0131
714.9346	0.0013
715.1145	-0.007
715.2944	-0.009
715.4743	-0.0025
715.6541	-0.0052
715.834	-0.0039
716.0138	-0.0058
716.1936	-0.0096
716.3733	-0.0122
716.5531	0.0012
716.7328	-0.0034
716.9126	-0.0123
717.0923	-0.0024
717.2719	0.0004
717.4516	-0.0017
717.6312	0.0035
717.8109	-0.0114
717.9905	0.0017
718.1701	-0.0044
718.3496	-0.0092
718.5292	-0.003
718.7087	-0.0064
718.8882	-0.0032
719.0677	0.0004
719.2472	0.0037
719.4267	-0.0013
719.6061	0.0003
719.7856	-0.0011
719.965	0.007
720.1443	-0.0041
720.3237	0.0093
720.5031	-0.0035
720.6824	0.0046
720.8617	-0.0003
721.041	-0.0022
721.2203	0.0036
721.3995	0.0004
721.5788	0.0043
721.758	-0.0007
721.9372	0.0003
722.1164	-0.0019
722.2956	0.0016
722.4747	-0.0052
722.6538	-0.0046
722.8329	0.0036
723.012	-0.008
723.1911	-0.0015
723.3702	-0.0028
723.5492	0.0049
723.7282	-0.0013
723.9072	0.0012
724.0862	-0.0023
724.2652	-0.0015
724.4441	-0.0019
724.623	-0.0069
724.8019	-0.0042
724.9808	0.009
725.1597	-0.0203
725.3385	-0.0052
725.5174	-0.0041
725.6962	-0.0011
725.875	-0.0001
726.0538	-0.0029
726.2325	-0.0071
726.4112	0.0068
726.59	-0.0028
726.7687	-0.0066
726.9474	0.0047
727.126	0.0064
727.3047	-0.0015
727.4833	-0.0045
727.6619	-0.0049
727.8405	-0.0056
728.0191	-0.0061
728.1976	0.0042
728.3762	-0.0065
728.5547	0.0038
728.7332	-0.0072
728.9116	-0.0042
729.0901	0.0038
729.2686	-0.0058
729.447	-0.006
729.6254	-0.0094
729.8038	-0.0074
729.9821	-0.0107
730.1605	-0.0016
730.3388	-0.005
730.5171	0.0056
730.6954	-0.0114
730.8737	0.0043
731.0519	0.0051
731.2302	0.0036
731.4084	0.01
731.5866	-0.0046
731.7648	-0.0053
731.9429	-0.0054
732.1211	-0.0166
732.2992	-0.0064
732.4773	-0.0044
732.6554	-0.0032
732.8335	-0.0024
733.0115	-0.0065
733.1896	-0.0009
733.3676	-0.013
733.5456	0.0014
733.7235	-0.0018
733.9015	-0.0097
734.0794	-0.0001
734.2574	-0.0046
734.4353	0.0027
734.6131	0.006
734.791	-0.0038
734.9689	0.0027
735.1467	0.0067
735.3245	-0.0175
735.5023	-0.0092
735.68	-0.0047
735.8578	0.0019
736.0355	-0.0203
736.2132	-0.0014
736.3909	0.0044
736.5686	-0.0119
736.7463	0.005
736.9239	-0.0047
737.1015	-0.0048
737.2791	-0.0012
737.4567	0.0008
737.6343	-0.0033
737.8118	-0.0068
737.9894	0.0008
738.1669	-0.0079
738.3444	-0.0003
738.5218	0.0056
738.6993	0.0062
738.8767	-0.0042
739.0541	0.0048
739.2315	-0.0148
739.4089	0.0041
739.5863	-0.0065
739.7636	-0.0055
739.9409	-0.0053
740.1182	-0.002
740.2955	-0.0027
740.4728	-0.0093
740.65	-0.0057
740.8272	-0.006
741.0044	-0.0102
741.1816	-0.003
741.3588	-0.0105
741.5359	0.003
741.7131	-0.0142
741.8902	-0.0064
742.0673	0.0024
742.2444	-0.0193
742.4214	-0.0117
742.5985	-0.0089
742.7755	-0.0147
742.9525	-0.0235
743.1295	-0.0093
743.3064	-0.0066
743.4834	-0.0013
743.6603	-0.0057
743.8372	-0.0034
744.0141	-0.0032
744.191	-0.0016
744.3678	-0.0103
744.5446	-0.0004
744.7215	0.0041
744.8982	-0.0082
745.075	-0.0105
745.2518	0.0024
745.4285	-0.0069
745.6052	-0.0092
745.7819	-0.0065
745.9586	-0.006
746.1353	-0.0063
746.3119	-0.011
746.4885	-0.0035
746.6651	-0.0096
746.8417	-0.0008
747.0183	0.0004
747.1948	-0.001
747.3714	-0.0053
747.5479	0.0032
747.7244	-0.0092
747.9008	0.0085
748.0773	0.0035
748.2537	-0.0047
748.4301	-0.0107
748.6065	0.0023
748.7829	-0.0027
748.9593	-0.0039
749.1356	-0.0109
749.3119	-0.0016
749.4882	-0.0074
749.6645	0.0021
749.8408	-0.0047
750.017	-0.0086
750.1933	0.0039
750.3695	-0.0056
750.5457	-0.0043
750.7218	0.0005
750.898	0.007
751.0741	-0.0077
751.2502	-0.0067
751.4263	-0.0133
751.6024	-0.0015
751.7784	-0.0079
751.9545	-0.0124
752.1305	-0.0068
752.3065	-0.0148
752.4825	-0.0016
752.6584	-0.0104
752.8344	-0.0117
753.0103	-0.0165
753.1862	-0.0073
753.3621	-0.0093
753.5379	-0.0128
753.7138	-0.0001
753.8896	-0.0009
754.0654	0.0011
754.2412	0.011
754.417	0.007
754.5927	-0.0027
754.7685	-0.0073
754.9442	0.0038
755.1199	0.014
755.2956	0.0096
755.4712	0.006
755.6469	-0.0006
755.8225	-0.0053
755.9981	0.0005
756.1736	0.0059
756.3492	0.0013
756.5248	-0.0009
756.7003	-0.0038
756.8758	0.0034
757.0513	-0.01
757.2267	-0.0008
757.4022	-0.0007
757.5776	-0.0005
757.753	-0.0051
757.9284	-0.0091
758.1038	0.0008
758.2791	-0.0007
758.4545	-0.0051
758.6298	-0.0031
758.8051	0.0027
758.9803	0.0082
759.1556	-0.0046
759.3308	-0.0104
759.506	0.0105
759.6812	0.0037
759.8564	0.0052
760.0316	-0.0068
760.2067	0.0046
760.3819	0.0069
760.557	0.0116
760.732	-0.001
760.9071	-0.0084
761.0821	0.005
761.2572	0.0098
761.4322	0.0006
761.6072	0.001
761.7821	0.0005
761.9571	0.0062
762.132	0.0026
762.3069	-0.0051
762.4818	0.0005
762.6567	0.0008
762.8316	-0.0087
763.0064	-0.0053
763.1812	0.0012
763.356	-0.0128
763.5308	-0.0032
763.7055	-0.0059
763.8803	-0.0022
764.055	-0.0022
764.2297	-0.0045
764.4044	-0.011
764.579	-0.0137
764.7537	-0.0122
764.9283	-0.0026
765.1029	0
765.2775	-0.0061
765.4521	-0.007
765.6266	-0.0068
765.8011	-0.0128
765.9756	0.0024
766.1501	0.0049
766.3246	-0.0044
766.4991	-0.0051
766.6735	-0.0081
766.8479	-0.0142
767.0223	0.0072
767.1967	0.0002
767.371	-0.0049
767.5454	-0.0146
767.7197	-0.0015
767.894	-0.0101
768.0683	-0.0142
768.2425	-0.0021
768.4168	-0.0039
768.591	-0.009
768.7652	0.0002
768.9394	-0.0054
769.1135	-0.0033
769.2877	0.0082
769.4618	0.0015
769.6359	-0.0028
769.81	0.0079
769.984	0.0044
770.1581	0.0054
770.3321	0.0007
770.5061	-0.0042
770.6801	-0.0034
770.8541	-0.0004
771.028	0.0005
771.202	-0.0106
771.3759	0.0023
771.5498	-0.0013
771.7236	0.0035
771.8975	-0.0093
772.0713	-0.002
772.2451	-0.0029
772.4189	0.0098
772.5927	0.0066
772.7665	-0.005
772.9402	-0.0104
773.1139	0.0046
773.2876	-0.0061
773.4613	0.0065
773.635	0.0041
773.8086	-0.0119
773.9822	-0.0013
774.1558	0.0093
774.3294	-0.0154
774.503	-0.0044
774.6765	0.0048
774.8501	0.0013
775.0236	-0.0024
775.1971	0.0021
775.3705	-0.0069
775.544	0.0016
775.7174	-0.0113
775.8908	-0.003
776.0642	-0.0006
776.2376	-0.0029
776.4109	-0.0054
776.5843	-0.0115
776.7576	-0.0013
776.9309	0.0127
777.1041	0.0116
777.2774	0.018
777.4506	-0.0058
777.6238	-0.0009
777.797	-0.0062
777.9702	-0.0026
778.1434	-0.0089
778.3165	-0.0114
778.4896	-0.0024
778.6627	0.0073
778.8358	0.004
779.0089	-0.0166
779.1819	-0.0104
779.3549	0.0066
779.5279	0.0035
779.7009	-0.0069
779.8739	-0.0025
780.0468	-0.0132
780.2197	0.0064
780.3926	0.0028
780.5655	-0.002
780.7384	-0.0145
780.9112	-0.0001
781.0841	-0.0073
781.2569	-0.0024
781.4297	0.0069
781.6024	0.0058
781.7752	0.002
781.9479	0.0049
782.1206	0
782.2933	-0.0158
782.466	0.0008
782.6386	0.0109
782.8113	-0.0018
782.9839	0.0058
783.1565	0.0121
783.329	0.0043
783.5016	0.0121
783.6741	0.0111
783.8466	-0.002
784.0191	0.0062
784.1916	-0.0124
784.3641	-0.0038
784.5365	-0.0041
784.7089	-0.0042
784.8813	0.0012
785.0537	-0.0062
785.2261	0.0022
785.3984	-0.0135
785.5707	-0.0091
785.743	-0.0025
785.9153	-0.0055
786.0876	-0.0024
786.2598	-0.0014
786.432	-0.0081
786.6042	-0.0044
786.7764	-0.0085
786.9486	-0.0001
787.1207	-0.0177
787.2928	0.009
787.4649	0.0006
787.637	-0.0016
787.8091	-0.005
787.9811	-0.0044
788.1532	-0.0078
788.3252	0.0042
788.4972	-0.0059
788.6691	-0.0014
788.8411	-0.0029
789.013	-0.0111
789.1849	0.0034
789.3568	-0.0159
789.5287	-0.0085
789.7005	-0.0018
789.8723	-0.008
790.0442	0.0239
790.2159	0.0064
790.3877	-0.0027
790.5595	-0.0175
790.7312	-0.004
790.9029	-0.0029
791.0746	-0.017
791.2463	0.0064
791.4179	-0.0074
791.5896	-0.0118
791.7612	-0.0136
791.9328	0.0019
792.1044	-0.0035
792.2759	-0.0251
792.4474	-0.0227
792.619	-0.0078
792.7905	-0.0015
792.9619	-0.0043
793.1334	0.0024
793.3048	-0.0048
793.4762	0.0005
793.6476	-0.0057
793.819	-0.0165
793.9904	0.0046
794.1617	-0.0158
794.333	-0.0104
794.5043	-0.0235
794.6756	-0.0018
794.8469	-0.0088
795.0181	0.0023
795.1893	-0.0066
795.3605	0.0158
795.5317	-0.0013
795.7029	-0.0086
795.874	0.0043
796.0452	-0.0166
796.2163	-0.0079
796.3873	0.0077
796.5584	-0.0181
796.7294	-0.0103
796.9005	0.003
797.0715	0.0055
797.2425	-0.0216
797.4134	-0.0011
797.5844	0.0119
797.7553	-0.0024
797.9262	-0.0023
798.0971	-0.0079
798.2679	-0.0266
798.4388	0.001
798.6096	-0.019
798.7804	-0.0028
798.9512	-0.017
799.122	-0.0143
799.2927	-0.0004
799.4635	-0.0045
799.6342	-0.0248
799.8049	-0.0081
799.9755	0.0006
800.1462	0.0084
800.3168	-0.0013
800.4874	-0.0235
800.658	0.0251
800.8286	-0.0004
800.9991	0.0108
801.1696	0.0097
801.3402	0.007
801.5106	-0.0142
801.6811	-0.0057
801.8516	0.0099
802.022	-0.0028
802.1924	0.0046
802.3628	0.006
802.5332	0.0125
802.7035	0.0163
802.8739	0.0075
803.0442	-0.0286
803.2145	0.0046
803.3847	-0.0302
803.555	0.006
803.7252	-0.0252
803.8954	-0.0131
804.0656	-0.012
804.2358	-0.006
804.4059	0.0017
804.5761	-0.0006
804.7462	0
804.9163	-0.0133
805.0864	-0.0058
805.2564	-0.0084
805.4264	0.0162
805.5965	-0.0097
805.7665	-0.001
805.9364	-0.0024
806.1064	0.0208
806.2763	0.0005
806.4462	0.0141
806.6161	-0.0051
806.786	-0.0054
806.9559	-0.0173
807.1257	-0.0002
807.2955	-0.0033
807.4653	-0.0125
807.6351	-0.0222
807.8048	-0.0058
807.9746	-0.0014
808.1443	0.0046
808.314	-0.0009
808.4837	-0.0018
808.6533	0.016
808.8229	0.0252
808.9926	-0.0024
809.1622	0.0053
809.3317	-0.0291
809.5013	-0.0154
809.6708	-0.006
809.8403	0.0273
810.0098	-0.0027
810.1793	-0.0077
810.3488	-0.0092
810.5182	-0.0182
810.6876	0.0041
810.857	-0.0039
811.0264	0.0161
811.1958	-0.0056
811.3651	0.004
811.5344	0.0107
811.7037	-0.0119
811.873	-0.0106
812.0422	-0.0116
812.2115	-0.0111
812.3807	-0.0184
812.5499	-0.0119
812.7191	-0.0153
812.8882	-0.0188
813.0574	-0.0133
813.2265	-0.0035
813.3956	-0.0002
813.5646	-0.0024
813.7337	-0.0367
813.9027	0.0127
814.0718	0.0147
814.2407	0.0087
814.4097	-0.0058
814.5787	-0.0092
814.7476	-0.0092
814.9165	-0.0082
815.0854	-0.0139
815.2543	-0.0191
815.4232	-0.0154
815.592	-0.0037
815.7608	-0.0079
815.9296	-0.0011
816.0984	-0.0005
816.2671	0.0078
816.4359	-0.0036
816.6046	-0.0092
816.7733	-0.0173
816.942	-0.0241
817.1106	-0.0185
817.2793	-0.0055
817.4479	0.0147
817.6165	-0.0069
817.785	-0.0102
817.9536	-0.0388
818.1221	-0.0258
818.2906	-0.0025
818.4591	-0.008
818.6276	-0.0201
818.7961	0.0001
818.9645	0.0011
819.1329	-0.0163
819.3013	0.01
819.4697	0.0146
819.638	-0.004
819.8064	0.0031
819.9747	0.0247
820.143	-0.0113
820.3113	-0.0198
820.4795	0.0071
820.6477	-0.0138
820.816	0.0117
820.9842	0.0044
821.1523	0.0022
821.3205	0.0022
821.4886	0.0026
821.6567	-0.0144
821.8248	0.0056
821.9929	0.0046
822.1609	-0.0092
822.329	0.0281
822.497	0.0246
822.665	-0.0215
822.833	-0.0148
823.0009	-0.004
823.1688	0.0256
823.3367	0.0117
823.5046	0.0229
823.6725	0.0127
823.8404	-0.0093
824.0082	-0.0111
824.176	-0.0104
824.3438	-0.0059
824.5116	-0.0279
824.6793	0.022
824.847	-0.0252
825.0147	-0.0063
825.1824	0.0079
825.3501	0.0117
825.5177	-0.013
825.6854	-0.0355
825.853	0.0094
826.0206	-0.0305
826.1881	0.0101
826.3557	-0.0189
826.5232	-0.014
826.6907	-0.0333
826.8582	-0.0168
827.0257	-0.0332
827.1931	0.0005
827.3605	0.0204
827.528	-0.0243
827.6953	-0.0283
827.8627	-0.0142
828.03	0.0459
828.1974	-0.0183
828.3647	-0.0196
828.532	-0.0276
828.6992	-0.0332
828.8665	0.0171
829.0337	-0.0226
829.2009	0.0026
829.3681	-0.0233
829.5352	0.0317
829.7024	-0.0219
829.8695	-0.038
830.0366	0.019
830.2037	-0.0193
830.3707	0.0011
830.5378	0.0006
830.7048	-0.0117
830.8718	-0.0423
831.0388	-0.0168
831.2057	-0.0202
831.3727	0.0203
831.5396	-0.0558
831.7065	-0.0368
831.8734	-0.0132
832.0402	-0.0082
832.2071	0.0168
832.3739	-0.0312
832.5407	0.011
832.7075	-0.0312
832.8742	-0.038
833.041	-0.0766
833.2077	-0.0412
833.3744	0.0163
833.541	-0.0011
833.7077	-0.0073
833.8743	-0.0523
834.0409	-0.0161
834.2075	-0.0197
834.3741	-0.0244
834.5407	-0.0222
834.7072	-0.0167
834.8737	-0.0084
835.0402	-0.0506
835.2067	0.0278
835.3731	0.0001
835.5395	-0.0018
835.706	-0.0107
835.8723	-0.0384
836.0387	0.0345
836.2051	-0.0109
836.3714	0.0291
836.5377	-0.0047
836.704	-0.0248
836.8703	-0.0143
837.0365	0.018
837.2027	-0.0375
837.3689	-0.0006
837.5351	-0.0413
837.7013	-0.0124
837.8674	-0.0494
838.0335	-0.0199
838.1997	-0.0228
838.3657	-0.0313
838.5318	-0.0057
838.6978	0.0238
838.8639	0.0122
839.0299	0.0204
839.1958	-0.0264
839.3618	0.0212
839.5277	-0.0423
839.6937	0.0001
839.8596	-0.0061
840.0254	0.0355
840.1913	-0.0408
840.3571	0.0291
840.523	-0.0434
840.6888	-0.0384
840.8545	-0.0541
841.0203	-0.0102
841.186	0.0123
841.3517	0.0444
841.5174	0.0281
841.6831	-0.0201
841.8488	-0.0226
842.0144	0.0066
842.18	0.0001
842.3456	0.0049
842.5112	0.0012
842.6767	-0.0347
842.8422	-0.0377
843.0077	-0.0466
843.1732	-0.0575
843.3387	-0.046
843.5042	-0.0986
843.6696	-0.0312
843.835	0.0002
844.0004	0.0799
844.1657	0.0052
844.3311	-0.0286
844.4964	-0.0938
844.6617	-0.002
844.827	-0.0512
844.9923	0.0347
845.1575	0.0209
845.3227	-0.0135
845.4879	0.0151
845.6531	-0.0051
845.8183	-0.0748
845.9834	-0.0657
846.1485	-0.0413
846.3136	-0.0838
846.4787	-0.0945
846.6438	0.0494
846.8088	-0.0182
846.9738	-0.0055
847.1388	0.0401
847.3038	-0.0484
847.4687	-0.1896
847.6337	0.0002
847.7986	-0.018
847.9635	-0.0789
848.1284	0.0509
848.2932	-0.0424
848.458	-0.0419
848.6228	0.0808
848.7876	0.0461
848.9524	-0.0439
849.1172	-0.1077
849.2819	0.0366
849.4466	-0.1146
849.6113	-0.0527
849.7759	-0.0865
849.9406	-0.0649
850.1052	0.0391
850.2698	0.0257
850.4344	-0.0094
850.599	-0.1186
850.7635	0.0403
850.928	-0.0357
851.0925	-0.0912
851.257	-0.0255
851.4215	0.0187
851.5859	-0.0939
851.7503	0.0472
851.9147	-0.0014
852.0791	-0.1757
852.2434	-0.0598
852.4078	-0.0317
852.5721	0.0645
852.7364	-0.0587
852.9007	-0.2653
853.0649	-0.0208
853.2291	-0.0285
853.3934	-0.0538
853.5575	-0.0021
853.7217	-0.2016
853.8859	-0.1413
854.05	-0.0542
854.2141	-0.1153
854.3782	-0.0797
854.5423	-0.0907
854.7063	0.0468
854.8703	0.0628
855.0343	-0.0744
855.1983	-0.1849
855.3623	0.2247
855.5262	0.0259
855.6901	-0.0936
855.854	-0.063
856.0179	0.0349
856.1818	0.0564
856.3456	0.025
856.5094	-0.1012
856.6732	-0.1351
856.837	-0.0173
857.0008	0.1198
857.1645	0.0255
857.3282	-0.311
857.4919	0.1896
857.6556	0.0304
857.8192	0.0072
857.9828	0.0484
858.1465	-0.1063
858.31	-0.2293
858.4736	-0.1589
858.6372	-0.0754
858.8007	-0.2045
858.9642	0.044
859.1277	0.4078
859.2911	0.2257
859.4546	-0.0657
859.618	-0.2995
859.7814	-0.082
859.9448	-0.0785
860.1081	-0.0896
860.2715	0.061
860.4348	0.4432
860.5981	-0.1968
860.7614	0.068
860.9246	-0.195
861.0879	-0.2017
861.2511	0.0425
861.4143	-0.3586
861.5774	0.1714
861.7406	-0.153
861.9037	-0.015
862.0668	-0.0725
862.2299	-0.1844
862.393	-0.6563
862.556	-0.1315
862.7191	-0.2559
862.8821	-0.2995
863.0451	-0.0099
863.208	0.1092
863.371	-0.0694
863.5339	-0.2696
863.6968	-0.0921
863.8597	-0.0311
864.0225	-0.181
864.1854	-0.1865
864.3482	-0.1741
864.511	0.047
864.6737	-0.0119
864.8365	-0.1104
864.9992	-0.2125
865.1619	-0.6998
865.3246	-0.4181
865.4873	-0.0041
865.65	-0.2985
865.8126	0.1735
865.9752	0.205
866.1378	-0.227
866.3004	-0.0248
866.4629	0.3384
866.6254	-0.1828
866.7879	0.1777
866.9504	-0.1455
867.1129	-0
867.2753	0.2621
867.4377	0.0007
867.6001	-0.168
867.7625	-0.0929
867.9249	0.2131
868.0872	0.1689
868.2495	0.2563
868.4118	-0.0943
868.5741	-0.1453
868.7363	-0.4594
868.8986	-0.3428
869.0608	0.1129
869.223	0.1922
869.3851	-0
869.5473	-0
869.7094	0.0163
869.8715	-0.4711
870.0336	-0
870.1957	-0.5949
870.3577	-1.2553
870.5197	0.0472
870.6817	-0.3819
870.8437	0.0816
871.0057	-0.1883
871.1676	-0.1389
871.3295	-0
871.4914	-0
871.6533	-0.3118
871.8151	-0.4635
871.977	-0
872.1388	-0
872.3006	-0
872.4623	-0
872.6241	1.408
872.7858	-0.0724
872.9475	-0.0356
873.1092	-0.1498
873.2709	-0
873.4325	-0.232
873.5941	-0
873.7557	-0
873.9173	-0
874.0789	-0.3323
874.2404	-0.1861
874.4019	-0.0175
874.5634	-0.3585
874.7249	-0.1117
874.8863	0.1616
875.0478	0.2312
875.2092	-0
875.3706	0.3441
875.5319	-0
875.6933	-0
875.8546	-0.6151
876.0159	-0
876.1772	-0
876.3385	-0
876.4997	0.0964
876.6609	-0.1425
876.8221	0.5576
876.9833	1.2533
877.1445	-0
877.3056	0.0719
877.4667	-0.2838
877.6278	0.1051
877.7889	-0.2419
877.9499	-0
878.111	-0
878.272	-0
878.433	-0
878.5939	0.2103
878.7549	-0.227
878.9158	-0.6847
879.0767	0.2986
879.2376	-0
879.3984	0.2117
879.5593	-0
879.7201	-0.0851
879.8809	-0.5839
880.0417	-0.4212
880.2024	0.37
880.3632	-0
880.5239	0.001
880.6846	0.3295
880.8452	-2.4857
881.0059	-0.9243
881.1665	-0
881.3271	-0
881.4877	-0.4842
881.6483	0.0403
881.8088	-0.4939
881.9693	-0
882.1298	-0
882.2903	-0
