Data from MonoPyChalIsomerACN10uM410nmA_Absorbance_14-53-27-573.txt Node
Date: Fri Jul 05 14:53:27 BST 2024
User: LASERRRRR
Spectrometer: FLMT03099
Trigger mode: 0
Integration Time (sec): 1.000000E-1
Scans to average: 1
Electric dark correction enabled: true
Nonlinearity correction enabled: false
Boxcar width: 0
XAxis mode: Wavelengths
Number of Pixels in Spectrum: 3648
>>>>>Begin Spectral Data<<<<<
179.3399	-0.1329
179.5586	-0.1329
179.7771	-0.1329
179.9957	0.093
180.2143	0.0262
180.4329	-0.1032
180.6514	-0
180.8699	-0
181.0885	-0.0826
181.307	-0.051
181.5255	-0
181.744	-0.4893
181.9625	-0
182.181	-1.2968
182.3994	-0.1388
182.6179	-0
182.8363	-0.1874
183.0547	-0.1875
183.2732	0.0614
183.4916	0.063
183.71	-0.0293
183.9284	0.0666
184.1467	0.1052
184.3651	-0.1766
184.5835	-0.046
184.8018	0.541
185.0201	0.0699
185.2385	-0.0516
185.4568	0.2249
185.6751	0.0073
185.8934	0.1716
186.1117	0.0201
186.3299	-0.0441
186.5482	0.3255
186.7664	-0.2043
186.9847	0.0546
187.2029	0.0678
187.4211	0.1692
187.6393	0.1519
187.8575	-0.1176
188.0757	0.1683
188.2939	0.0519
188.512	-0.006
188.7302	-0.0484
188.9483	0.008
189.1665	0.2137
189.3846	0.12
189.6027	0.0599
189.8208	0.036
190.0389	0.174
190.257	0.0788
190.475	0.0761
190.6931	0.0946
190.9111	0.2685
191.1292	0.3484
191.3472	0.2712
191.5652	0.3346
191.7832	0.3407
192.0012	0.5821
192.2192	0.2749
192.4371	0.6353
192.6551	0.448
192.873	0.384
193.091	0.3378
193.3089	0.5925
193.5268	0.5269
193.7447	0.4215
193.9626	0.5429
194.1805	0.5669
194.3984	0.6526
194.6162	0.6001
194.8341	0.717
195.0519	0.7529
195.2697	1.153
195.4875	0.5585
195.7054	0.5963
195.9231	0.6786
196.1409	0.6689
196.3587	0.5128
196.5765	0.5084
196.7942	0.6448
197.012	0.5341
197.2297	0.4956
197.4474	0.7747
197.6651	0.5617
197.8828	0.6188
198.1005	0.6555
198.3182	0.5218
198.5358	0.8127
198.7535	0.6459
198.9711	0.5877
199.1888	0.601
199.4064	0.8041
199.624	0.5469
199.8416	0.5242
200.0592	0.6172
200.2767	0.5983
200.4943	0.5641
200.7119	0.6732
200.9294	0.5519
201.1469	0.5472
201.3645	0.6082
201.582	0.6036
201.7995	0.6864
202.017	0.5783
202.2344	0.5955
202.4519	0.6173
202.6694	0.6497
202.8868	0.633
203.1042	0.6623
203.3217	0.7848
203.5391	0.6239
203.7565	0.5435
203.9739	0.5738
204.1913	0.5768
204.4086	0.5978
204.626	0.7444
204.8433	0.5704
205.0607	0.6404
205.278	0.6307
205.4953	0.6573
205.7126	0.5982
205.9299	0.687
206.1472	0.7181
206.3644	0.5675
206.5817	0.5926
206.7989	0.6782
207.0162	0.6279
207.2334	0.7484
207.4506	0.7053
207.6678	0.6583
207.885	0.5833
208.1022	0.6884
208.3194	0.6012
208.5365	0.6306
208.7537	0.5746
208.9708	0.5275
209.1879	0.6344
209.405	0.6682
209.6222	0.6571
209.8392	0.5988
210.0563	0.5848
210.2734	0.6445
210.4905	0.6238
210.7075	0.6282
210.9245	0.5915
211.1416	0.6992
211.3586	0.5836
211.5756	0.6784
211.7926	0.5613
212.0096	0.5786
212.2265	0.5657
212.4435	0.5996
212.6604	0.552
212.8774	0.6653
213.0943	0.5323
213.3112	0.5008
213.5281	0.5083
213.745	0.5011
213.9619	0.4856
214.1788	0.5145
214.3956	0.4778
214.6125	0.4685
214.8293	0.448
215.0461	0.4712
215.2629	0.4228
215.4798	0.4758
215.6965	0.4361
215.9133	0.4691
216.1301	0.4115
216.3469	0.4189
216.5636	0.4007
216.7803	0.3906
216.9971	0.3936
217.2138	0.3643
217.4305	0.3502
217.6472	0.3337
217.8639	0.3713
218.0805	0.2935
218.2972	0.3295
218.5138	0.3264
218.7305	0.2918
218.9471	0.3022
219.1637	0.2614
219.3803	0.2734
219.5969	0.2706
219.8135	0.2495
220.0301	0.2727
220.2466	0.2527
220.4632	0.2512
220.6797	0.221
220.8962	0.2317
221.1127	0.2618
221.3292	0.259
221.5457	0.2194
221.7622	0.2147
221.9787	0.2445
222.1951	0.2436
222.4116	0.2491
222.628	0.2427
222.8444	0.2456
223.0608	0.2468
223.2772	0.2281
223.4936	0.2459
223.71	0.2433
223.9264	0.2594
224.1427	0.2579
224.3591	0.2442
224.5754	0.2595
224.7917	0.2569
225.008	0.2703
225.2243	0.2506
225.4406	0.2865
225.6569	0.2755
225.8732	0.2647
226.0894	0.2518
226.3057	0.2655
226.5219	0.2765
226.7381	0.2584
226.9543	0.2667
227.1705	0.2816
227.3867	0.2727
227.6029	0.3093
227.8191	0.291
228.0352	0.2972
228.2513	0.314
228.4675	0.3009
228.6836	0.3004
228.8997	0.2972
229.1158	0.3125
229.3319	0.3143
229.548	0.3008
229.764	0.3183
229.9801	0.3164
230.1961	0.3095
230.4121	0.3253
230.6282	0.3359
230.8442	0.2989
231.0602	0.3296
231.2761	0.3332
231.4921	0.3283
231.7081	0.3346
231.924	0.3381
232.14	0.3737
232.3559	0.3391
232.5718	0.3394
232.7877	0.3465
233.0036	0.3396
233.2195	0.3481
233.4353	0.352
233.6512	0.3529
233.867	0.3613
234.0829	0.3652
234.2987	0.3565
234.5145	0.3702
234.7303	0.3656
234.9461	0.3854
235.1619	0.3748
235.3776	0.3727
235.5934	0.3761
235.8091	0.3867
236.0249	0.3755
236.2406	0.3765
236.4563	0.3633
236.672	0.3939
236.8877	0.3996
237.1034	0.3707
237.319	0.3749
237.5347	0.3946
237.7503	0.4025
237.966	0.3888
238.1816	0.4021
238.3972	0.4027
238.6128	0.3835
238.8284	0.3968
239.0439	0.3963
239.2595	0.4085
239.475	0.4077
239.6906	0.4299
239.9061	0.3847
240.1216	0.3895
240.3371	0.3961
240.5526	0.3953
240.7681	0.4002
240.9836	0.3931
241.199	0.39
241.4145	0.3802
241.6299	0.3881
241.8453	0.3711
242.0607	0.3909
242.2761	0.3428
242.4915	0.3749
242.7069	0.3614
242.9223	0.3592
243.1376	0.3462
243.353	0.341
243.5683	0.3505
243.7836	0.3398
243.9989	0.3326
244.2142	0.3004
244.4295	0.3121
244.6448	0.3128
244.86	0.3078
245.0753	0.2981
245.2905	0.2968
245.5057	0.2817
245.721	0.2861
245.9362	0.2775
246.1514	0.2839
246.3665	0.2621
246.5817	0.258
246.7969	0.2522
247.012	0.252
247.2271	0.246
247.4423	0.2459
247.6574	0.2437
247.8725	0.2358
248.0876	0.2305
248.3026	0.2387
248.5177	0.2099
248.7328	0.2218
248.9478	0.207
249.1628	0.2175
249.3779	0.2315
249.5929	0.2029
249.8079	0.2247
250.0228	0.2025
250.2378	0.2048
250.4528	0.205
250.6677	0.1878
250.8827	0.1931
251.0976	0.2032
251.3125	0.1852
251.5274	0.1666
251.7423	0.1887
251.9572	0.1864
252.172	0.1752
252.3869	0.1868
252.6017	0.1684
252.8166	0.1652
253.0314	0.1746
253.2462	0.1683
253.461	0.1857
253.6758	0.176
253.8906	0.1701
254.1053	0.1638
254.3201	0.1738
254.5348	0.1763
254.7496	0.1879
254.9643	0.1756
255.179	0.1748
255.3937	0.1699
255.6083	0.1705
255.823	0.1648
256.0377	0.1608
256.2523	0.1748
256.467	0.1545
256.6816	0.1645
256.8962	0.1516
257.1108	0.1512
257.3254	0.1729
257.54	0.1651
257.7545	0.1817
257.9691	0.1708
258.1836	0.1811
258.3981	0.1652
258.6127	0.1761
258.8272	0.1562
259.0417	0.1548
259.2561	0.1587
259.4706	0.17
259.6851	0.163
259.8995	0.1573
260.114	0.1574
260.3284	0.1684
260.5428	0.1575
260.7572	0.1675
260.9716	0.1573
261.186	0.1573
261.4003	0.1606
261.6147	0.1721
261.829	0.1685
262.0433	0.1674
262.2577	0.1563
262.472	0.1685
262.6863	0.1538
262.9005	0.177
263.1148	0.167
263.3291	0.1532
263.5433	0.1652
263.7576	0.1564
263.9718	0.1665
264.186	0.1663
264.4002	0.1621
264.6144	0.1679
264.8286	0.1796
265.0427	0.1597
265.2569	0.1604
265.471	0.1506
265.6851	0.1542
265.8993	0.1412
266.1134	0.155
266.3275	0.1623
266.5415	0.1556
266.7556	0.1626
266.9697	0.1748
267.1837	0.1623
267.3978	0.1649
267.6118	0.1722
267.8258	0.1601
268.0398	0.1477
268.2538	0.1639
268.4677	0.1616
268.6817	0.1507
268.8957	0.1671
269.1096	0.1549
269.3235	0.1696
269.5374	0.1633
269.7514	0.1551
269.9652	0.1564
270.1791	0.1506
270.393	0.1508
270.6068	0.1543
270.8207	0.1579
271.0345	0.1428
271.2483	0.1527
271.4622	0.1404
271.676	0.164
271.8897	0.1476
272.1035	0.1546
272.3173	0.1402
272.531	0.1558
272.7448	0.1501
272.9585	0.1296
273.1722	0.1505
273.3859	0.1602
273.5996	0.144
273.8133	0.1458
274.0269	0.148
274.2406	0.142
274.4542	0.1572
274.6679	0.136
274.8815	0.1424
275.0951	0.1471
275.3087	0.1525
275.5223	0.158
275.7358	0.1592
275.9494	0.1466
276.1629	0.1514
276.3765	0.1575
276.59	0.1576
276.8035	0.1556
277.017	0.1425
277.2305	0.1495
277.444	0.1605
277.6574	0.141
277.8709	0.1495
278.0843	0.1439
278.2978	0.1418
278.5112	0.1479
278.7246	0.1581
278.938	0.1439
279.1513	0.1539
279.3647	0.1551
279.5781	0.1581
279.7914	0.1579
280.0047	0.1638
280.2181	0.1509
280.4314	0.1516
280.6447	0.1437
280.8579	0.1525
281.0712	0.1634
281.2845	0.1544
281.4977	0.1533
281.711	0.1498
281.9242	0.154
282.1374	0.1477
282.3506	0.1501
282.5638	0.1572
282.7769	0.1577
282.9901	0.1642
283.2033	0.1652
283.4164	0.1682
283.6295	0.1491
283.8426	0.15
284.0557	0.1641
284.2688	0.175
284.4819	0.1566
284.695	0.1676
284.908	0.1552
285.1211	0.1403
285.3341	0.1573
285.5471	0.1704
285.7601	0.1582
285.9731	0.143
286.1861	0.1474
286.3991	0.1679
286.612	0.1635
286.825	0.1587
287.0379	0.1616
287.2508	0.1507
287.4637	0.1555
287.6766	0.1515
287.8895	0.1597
288.1024	0.1696
288.3152	0.1554
288.5281	0.1484
288.7409	0.152
288.9538	0.1575
289.1666	0.1513
289.3794	0.1557
289.5922	0.1529
289.8049	0.1539
290.0177	0.159
290.2304	0.158
290.4432	0.1519
290.6559	0.1574
290.8686	0.1659
291.0813	0.1514
291.294	0.1635
291.5067	0.1694
291.7194	0.1551
291.932	0.1768
292.1447	0.1656
292.3573	0.1546
292.5699	0.1705
292.7825	0.1599
292.9951	0.1446
293.2077	0.1609
293.4203	0.1601
293.6328	0.1626
293.8454	0.1645
294.0579	0.1614
294.2704	0.159
294.4829	0.1495
294.6954	0.1552
294.9079	0.1601
295.1204	0.1587
295.3328	0.1493
295.5453	0.1634
295.7577	0.1594
295.9701	0.1469
296.1825	0.1581
296.3949	0.1512
296.6073	0.1551
296.8197	0.1453
297.0321	0.1597
297.2444	0.1347
297.4567	0.1591
297.6691	0.1526
297.8814	0.1468
298.0937	0.1465
298.306	0.1632
298.5182	0.1534
298.7305	0.16
298.9428	0.1435
299.155	0.1507
299.3672	0.1422
299.5794	0.1457
299.7916	0.1506
300.0038	0.1553
300.216	0.1589
300.4282	0.1621
300.6403	0.1563
300.8525	0.1586
301.0646	0.1514
301.2767	0.1586
301.4888	0.1596
301.7009	0.1509
301.913	0.1644
302.125	0.167
302.3371	0.1478
302.5491	0.1617
302.7612	0.1529
302.9732	0.1648
303.1852	0.1507
303.3972	0.149
303.6092	0.1582
303.8211	0.1371
304.0331	0.1473
304.245	0.1391
304.457	0.1376
304.6689	0.1507
304.8808	0.1566
305.0927	0.1425
305.3046	0.1413
305.5164	0.1528
305.7283	0.1466
305.9401	0.1394
306.152	0.1401
306.3638	0.1414
306.5756	0.1512
306.7874	0.147
306.9992	0.1431
307.2109	0.1337
307.4227	0.1287
307.6344	0.1374
307.8462	0.1385
308.0579	0.1286
308.2696	0.1329
308.4813	0.1315
308.693	0.1291
308.9046	0.137
309.1163	0.128
309.328	0.1248
309.5396	0.1028
309.7512	0.1158
309.9628	0.1248
310.1744	0.1224
310.386	0.1175
310.5976	0.1108
310.8091	0.1162
311.0207	0.1084
311.2322	0.1136
311.4437	0.1095
311.6552	0.1174
311.8667	0.1094
312.0782	0.1054
312.2897	0.0937
312.5012	0.1108
312.7126	0.1032
312.924	0.102
313.1355	0.1199
313.3469	0.1146
313.5583	0.1096
313.7696	0.1027
313.981	0.1066
314.1924	0.1073
314.4037	0.1009
314.6151	0.109
314.8264	0.1035
315.0377	0.1037
315.249	0.1061
315.4603	0.1162
315.6716	0.1077
315.8828	0.0955
316.0941	0.1027
316.3053	0.1023
316.5165	0.0964
316.7277	0.0867
316.9389	0.1119
317.1501	0.106
317.3613	0.0956
317.5724	0.0824
317.7836	0.1107
317.9947	0.1058
318.2058	0.1033
318.417	0.087
318.6281	0.0835
318.8391	0.1053
319.0502	0.1035
319.2613	0.106
319.4723	0.098
319.6834	0.0967
319.8944	0.0999
320.1054	0.0995
320.3164	0.1036
320.5274	0.0978
320.7383	0.0977
320.9493	0.1024
321.1602	0.1118
321.3712	0.0838
321.5821	0.1043
321.793	0.106
322.0039	0.1009
322.2148	0.091
322.4257	0.1098
322.6365	0.1075
322.8474	0.1049
323.0582	0.1047
323.269	0.1027
323.4798	0.1175
323.6906	0.086
323.9014	0.1016
324.1122	0.1239
324.3229	0.0966
324.5337	0.0977
324.7444	0.0975
324.9551	0.1166
325.1658	0.1156
325.3765	0.102
325.5872	0.1062
325.7979	0.1053
326.0085	0.0968
326.2192	0.1061
326.4298	0.1019
326.6404	0.1018
326.851	0.0855
327.0616	0.0981
327.2722	0.1074
327.4828	0.1096
327.6933	0.1085
327.9039	0.1134
328.1144	0.1142
328.3249	0.1093
328.5354	0.1044
328.7459	0.1178
328.9564	0.1052
329.1669	0.1188
329.3773	0.1138
329.5878	0.1139
329.7982	0.1103
330.0086	0.1089
330.219	0.1227
330.4294	0.1122
330.6398	0.1089
330.8502	0.1147
331.0605	0.104
331.2708	0.1096
331.4812	0.114
331.6915	0.1102
331.9018	0.1175
332.1121	0.1107
332.3224	0.0976
332.5326	0.1119
332.7429	0.1114
332.9531	0.1269
333.1633	0.1131
333.3735	0.1101
333.5837	0.1153
333.7939	0.1191
334.0041	0.123
334.2143	0.1189
334.4244	0.1067
334.6346	0.0998
334.8447	0.1217
335.0548	0.1038
335.2649	0.0961
335.475	0.1179
335.685	0.1113
335.8951	0.1202
336.1051	0.1166
336.3152	0.1245
336.5252	0.1035
336.7352	0.1157
336.9452	0.1144
337.1552	0.1174
337.3652	0.1053
337.5751	0.1037
337.7851	0.1234
337.995	0.1061
338.2049	0.1211
338.4148	0.1245
338.6247	0.1212
338.8346	0.1065
339.0445	0.0999
339.2543	0.1185
339.4642	0.1209
339.674	0.1132
339.8838	0.13
340.0936	0.1211
340.3034	0.1366
340.5132	0.1217
340.7229	0.1295
340.9327	0.1222
341.1424	0.1286
341.3522	0.1331
341.5619	0.1312
341.7716	0.1257
341.9813	0.1277
342.1909	0.1162
342.4006	0.1359
342.6102	0.1376
342.8199	0.136
343.0295	0.116
343.2391	0.124
343.4487	0.1391
343.6583	0.1246
343.8679	0.1205
344.0774	0.1315
344.287	0.1376
344.4965	0.1236
344.706	0.1253
344.9155	0.1209
345.125	0.1312
345.3345	0.1214
345.544	0.1187
345.7534	0.1393
345.9629	0.1238
346.1723	0.1306
346.3817	0.1316
346.5911	0.132
346.8005	0.1306
347.0099	0.1326
347.2193	0.14
347.4286	0.1208
347.638	0.1394
347.8473	0.1409
348.0566	0.143
348.2659	0.1428
348.4752	0.1253
348.6845	0.1367
348.8937	0.1314
349.103	0.1397
349.3122	0.1461
349.5214	0.129
349.7306	0.144
349.9398	0.1385
350.149	0.1421
350.3582	0.1304
350.5674	0.1581
350.7765	0.1422
350.9856	0.1284
351.1948	0.1326
351.4039	0.1326
351.613	0.1359
351.822	0.1598
352.0311	0.1417
352.2402	0.1438
352.4492	0.1493
352.6582	0.1502
352.8672	0.1417
353.0762	0.1395
353.2852	0.1425
353.4942	0.1298
353.7032	0.1565
353.9121	0.1564
354.1211	0.1536
354.33	0.1652
354.5389	0.1432
354.7478	0.1536
354.9567	0.157
355.1655	0.1427
355.3744	0.1477
355.5833	0.1503
355.7921	0.1737
356.0009	0.1537
356.2097	0.1598
356.4185	0.1652
356.6273	0.1679
356.8361	0.164
357.0448	0.1502
357.2536	0.1505
357.4623	0.1418
357.671	0.1648
357.8797	0.1725
358.0884	0.1662
358.2971	0.1542
358.5057	0.1555
358.7144	0.1558
358.923	0.1506
359.1316	0.1636
359.3402	0.1835
359.5488	0.1588
359.7574	0.1536
359.966	0.1637
360.1746	0.1667
360.3831	0.1698
360.5916	0.1757
360.8002	0.1595
361.0087	0.1862
361.2172	0.1751
361.4256	0.1723
361.6341	0.1923
361.8426	0.1749
362.051	0.1772
362.2594	0.1802
362.4678	0.1775
362.6762	0.2035
362.8846	0.184
363.093	0.1786
363.3014	0.1824
363.5097	0.1564
363.718	0.1795
363.9264	0.1988
364.1347	0.184
364.343	0.1816
364.5513	0.1876
364.7595	0.1916
364.9678	0.1807
365.176	0.1904
365.3842	0.1785
365.5925	0.1854
365.8007	0.1915
366.0089	0.1791
366.217	0.1818
366.4252	0.1872
366.6333	0.2082
366.8415	0.1845
367.0496	0.1953
367.2577	0.193
367.4658	0.2138
367.6739	0.2036
367.882	0.2095
368.09	0.2063
368.2981	0.2082
368.5061	0.2013
368.7141	0.1976
368.9221	0.2091
369.1301	0.2039
369.3381	0.1862
369.5461	0.2075
369.754	0.1915
369.962	0.2198
370.1699	0.1979
370.3778	0.2127
370.5857	0.1998
370.7936	0.2055
371.0015	0.2052
371.2093	0.2141
371.4172	0.2203
371.625	0.1939
371.8328	0.2109
372.0406	0.2007
372.2484	0.2083
372.4562	0.2264
372.664	0.1917
372.8717	0.2232
373.0795	0.1865
373.2872	0.2116
373.4949	0.1997
373.7026	0.2054
373.9103	0.2139
374.118	0.2049
374.3256	0.2107
374.5333	0.2048
374.7409	0.2173
374.9485	0.2191
375.1561	0.2191
375.3637	0.227
375.5713	0.2218
375.7789	0.2091
375.9864	0.2072
376.194	0.2153
376.4015	0.2123
376.609	0.2205
376.8165	0.2205
377.024	0.2239
377.2315	0.2129
377.4389	0.2439
377.6464	0.2275
377.8538	0.2128
378.0612	0.2279
378.2686	0.245
378.476	0.2317
378.6834	0.2294
378.8908	0.2111
379.0981	0.2284
379.3055	0.2277
379.5128	0.2198
379.7201	0.2177
379.9274	0.2294
380.1347	0.2234
380.342	0.2362
380.5492	0.22
380.7565	0.2361
380.9637	0.2266
381.1709	0.2286
381.3781	0.2323
381.5853	0.2298
381.7925	0.227
381.9997	0.2497
382.2068	0.243
382.4139	0.2425
382.6211	0.2118
382.8282	0.233
383.0353	0.2309
383.2424	0.2324
383.4494	0.2518
383.6565	0.2169
383.8635	0.2368
384.0706	0.2448
384.2776	0.2317
384.4846	0.2215
384.6916	0.2238
384.8986	0.2332
385.1055	0.2296
385.3125	0.2454
385.5194	0.2183
385.7263	0.2416
385.9333	0.2378
386.1402	0.2382
386.347	0.2419
386.5539	0.2267
386.7608	0.2454
386.9676	0.2116
387.1744	0.236
387.3813	0.218
387.5881	0.2348
387.7948	0.2383
388.0016	0.2202
388.2084	0.2287
388.4151	0.23
388.6219	0.2528
388.8286	0.2465
389.0353	0.2196
389.242	0.2446
389.4487	0.2085
389.6553	0.2326
389.862	0.203
390.0686	0.2098
390.2753	0.2416
390.4819	0.2284
390.6885	0.2308
390.8951	0.2142
391.1016	0.2081
391.3082	0.216
391.5147	0.2308
391.7213	0.2258
391.9278	0.1944
392.1343	0.2107
392.3408	0.2248
392.5473	0.2175
392.7537	0.2068
392.9602	0.2035
393.1666	0.2158
393.373	0.2131
393.5794	0.222
393.7858	0.1962
393.9922	0.1901
394.1986	0.2148
394.4049	0.2246
394.6113	0.2024
394.8176	0.1973
395.0239	0.1957
395.2302	0.1933
395.4365	0.1886
395.6428	0.2141
395.8491	0.1916
396.0553	0.1951
396.2615	0.2036
396.4678	0.1993
396.674	0.1787
396.8802	0.1724
397.0863	0.2019
397.2925	0.1873
397.4987	0.1797
397.7048	0.1865
397.9109	0.1906
398.117	0.1838
398.3231	0.1959
398.5292	0.2094
398.7353	0.1949
398.9413	0.1988
399.1474	0.1899
399.3534	0.1879
399.5594	0.1599
399.7654	0.2003
399.9714	0.1928
400.1774	0.1975
400.3833	0.1892
400.5893	0.1977
400.7952	0.1929
401.0011	0.1866
401.207	0.2031
401.4129	0.1879
401.6188	0.1894
401.8247	0.187
402.0305	0.201
402.2364	0.1951
402.4422	0.203
402.648	0.1979
402.8538	0.2021
403.0596	0.1936
403.2654	0.1804
403.4711	0.1755
403.6768	0.1828
403.8826	0.2021
404.0883	0.2032
404.294	0.1974
404.4997	0.2014
404.7054	0.1919
404.911	0.1823
405.1167	0.1901
405.3223	0.1985
405.5279	0.2038
405.7335	0.182
405.9391	0.2139
406.1447	0.198
406.3502	0.2103
406.5558	0.1906
406.7613	0.2022
406.9668	0.1863
407.1724	0.1767
407.3778	0.2015
407.5833	0.1967
407.7888	0.1923
407.9942	0.1948
408.1997	0.1746
408.4051	0.1928
408.6105	0.1868
408.8159	0.1779
409.0213	0.1697
409.2267	0.1968
409.432	0.1774
409.6374	0.194
409.8427	0.1798
410.048	0.1758
410.2533	0.1852
410.4586	0.1755
410.6639	0.181
410.8691	0.177
411.0744	0.2079
411.2796	0.1782
411.4848	0.189
411.69	0.1795
411.8952	0.2013
412.1004	0.1761
412.3056	0.203
412.5107	0.1782
412.7158	0.1901
412.921	0.1949
413.1261	0.1761
413.3312	0.1807
413.5362	0.1985
413.7413	0.1784
413.9464	0.1896
414.1514	0.1801
414.3564	0.175
414.5614	0.1616
414.7664	0.1733
414.9714	0.1765
415.1764	0.1982
415.3813	0.1675
415.5863	0.1735
415.7912	0.1777
415.9961	0.1876
416.201	0.1802
416.4059	0.1904
416.6108	0.176
416.8156	0.1778
417.0205	0.161
417.2253	0.1618
417.4301	0.1882
417.6349	0.1813
417.8397	0.1785
418.0445	0.1977
418.2492	0.1777
418.454	0.1838
418.6587	0.1669
418.8634	0.1734
419.0681	0.1691
419.2728	0.1589
419.4775	0.1593
419.6822	0.1737
419.8868	0.1417
420.0915	0.1737
420.2961	0.1657
420.5007	0.1601
420.7053	0.1556
420.9099	0.1779
421.1144	0.1918
421.319	0.1679
421.5235	0.1727
421.728	0.1744
421.9325	0.1756
422.137	0.1824
422.3415	0.1658
422.546	0.1672
422.7504	0.1569
422.9549	0.175
423.1593	0.1492
423.3637	0.1668
423.5681	0.1617
423.7725	0.1522
423.9769	0.1496
424.1812	0.1641
424.3856	0.1517
424.5899	0.1685
424.7942	0.1492
424.9985	0.1524
425.2028	0.1513
425.4071	0.1849
425.6113	0.1262
425.8156	0.1455
426.0198	0.1711
426.224	0.1307
426.4282	0.1613
426.6324	0.1337
426.8366	0.1352
427.0407	0.1607
427.2449	0.1459
427.449	0.1564
427.6531	0.1252
427.8572	0.1496
428.0613	0.1372
428.2654	0.1324
428.4694	0.1552
428.6735	0.1473
428.8775	0.1516
429.0815	0.1388
429.2855	0.1266
429.4895	0.1339
429.6935	0.1406
429.8975	0.1298
430.1014	0.1327
430.3053	0.1161
430.5093	0.139
430.7132	0.1256
430.9171	0.1134
431.1209	0.1204
431.3248	0.1173
431.5286	0.1232
431.7325	0.1289
431.9363	0.1067
432.1401	0.1181
432.3439	0.1039
432.5477	0.0913
432.7514	0.107
432.9552	0.1178
433.1589	0.107
433.3627	0.0989
433.5664	0.1087
433.7701	0.0987
433.9737	0.1011
434.1774	0.0916
434.3811	0.1002
434.5847	0.0911
434.7883	0.0906
434.9919	0.1096
435.1955	0.0917
435.3991	0.0972
435.6027	0.1052
435.8062	0.097
436.0098	0.0907
436.2133	0.1077
436.4168	0.0799
436.6203	0.0904
436.8238	0.0767
437.0272	0.0919
437.2307	0.0843
437.4341	0.0867
437.6375	0.0959
437.841	0.081
438.0443	0.0968
438.2477	0.082
438.4511	0.0736
438.6545	0.0831
438.8578	0.0826
439.0611	0.0651
439.2644	0.0804
439.4677	0.0691
439.671	0.0605
439.8743	0.0643
440.0775	0.0695
440.2808	0.0656
440.484	0.0676
440.6872	0.0463
440.8904	0.0379
441.0936	0.0742
441.2967	0.0571
441.4999	0.0669
441.703	0.0529
441.9062	0.0594
442.1093	0.0613
442.3124	0.0496
442.5155	0.0403
442.7185	0.0596
442.9216	0.0291
443.1246	0.0471
443.3276	0.0531
443.5307	0.0487
443.7337	0.0494
443.9366	0.0504
444.1396	0.0464
444.3426	0.0536
444.5455	0.053
444.7484	0.0298
444.9513	0.0392
445.1542	0.0617
445.3571	0.0462
445.56	0.0658
445.7628	0.0354
445.9657	0.0448
446.1685	0.0488
446.3713	0.0402
446.5741	0.0161
446.7769	0.028
446.9797	0.0405
447.1824	0.0277
447.3852	0.02
447.5879	0.0382
447.7906	0.0566
447.9933	0.0365
448.196	0.0267
448.3986	0.028
448.6013	0.0295
448.8039	0.0126
449.0066	0.0294
449.2092	0.0238
449.4118	0.0413
449.6143	0.0236
449.8169	0.0305
450.0195	0.0171
450.222	-0.0051
450.4245	0.0354
450.627	0.0371
450.8295	0.0112
451.032	0.0328
451.2345	0.0314
451.4369	0.0395
451.6394	0.0262
451.8418	0.0055
452.0442	0.0146
452.2466	0.0289
452.449	-0.0023
452.6513	0.0185
452.8537	0.0183
453.056	-0.0045
453.2583	0.0217
453.4607	0.0235
453.663	0.0098
453.8652	0.0213
454.0675	0.0121
454.2697	0.0249
454.472	0.0013
454.6742	0.0157
454.8764	0.007
455.0786	0.0193
455.2808	0.0067
455.4829	0.0115
455.6851	0.0192
455.8872	0.0173
456.0893	0.0147
456.2915	-0.0016
456.4935	0.0275
456.6956	0.0056
456.8977	0.0163
457.0997	0.0045
457.3018	-0.0113
457.5038	0.0158
457.7058	0.0024
457.9078	-0.0008
458.1098	0.0199
458.3117	0.0046
458.5137	0.0083
458.7156	0.0046
458.9175	-0.0003
459.1194	-0.0073
459.3213	-0.0041
459.5232	0.0064
459.725	-0.0136
459.9269	-0.0014
460.1287	-0.0084
460.3305	0.0066
460.5323	-0.007
460.7341	-0.0076
460.9359	-0.009
461.1376	0.0088
461.3394	0.002
461.5411	-0.0045
461.7428	0.0096
461.9445	0.0138
462.1462	0.0135
462.3479	-0.007
462.5495	-0.0091
462.7512	-0.0029
462.9528	-0.0071
463.1544	-0.0135
463.356	0.0028
463.5576	0.0074
463.7592	-0.005
463.9607	0.0057
464.1623	0.011
464.3638	0.0207
464.5653	-0.0137
464.7668	0.0009
464.9683	0.0017
465.1697	0.0106
465.3712	-0.0052
465.5726	-0.0089
465.7741	-0.0011
465.9755	-0.0154
466.1769	-0.003
466.3782	0.0004
466.5796	-0.0071
466.7809	0.0024
466.9823	-0.0164
467.1836	0.011
467.3849	-0.0062
467.5862	-0.005
467.7875	-0.0215
467.9887	0.0087
468.19	-0.0081
468.3912	-0.011
468.5924	-0.0068
468.7936	-0.0006
468.9948	-0.01
469.196	-0.0011
469.3972	-0.0194
469.5983	-0.0068
469.7994	-0.0143
470.0006	0.0015
470.2017	-0.005
470.4027	-0.0056
470.6038	-0.0058
470.8049	-0.0223
471.0059	-0.0152
471.2069	-0.0319
471.408	0.0126
471.6089	-0.0014
471.8099	0.0007
472.0109	-0.0023
472.2119	-0.0222
472.4128	-0.0182
472.6137	0.004
472.8146	-0.019
473.0155	-0.0079
473.2164	-0.008
473.4173	-0.0111
473.6181	-0.0159
473.819	-0.0159
474.0198	0.005
474.2206	-0.0082
474.4214	-0.011
474.6222	0.0056
474.8229	-0.0278
475.0237	-0.011
475.2244	-0.0187
475.4251	-0.0016
475.6258	-0.0021
475.8265	-0.013
476.0272	0.0034
476.2278	0.0032
476.4285	-0.006
476.6291	-0.0114
476.8297	-0.006
477.0303	-0.0092
477.2309	-0.0015
477.4315	-0.0122
477.632	0.0082
477.8326	-0.012
478.0331	0.0124
478.2336	-0.0015
478.4341	-0.0127
478.6346	-0.023
478.8351	-0.0163
479.0355	-0.0109
479.236	-0.0211
479.4364	-0.0162
479.6368	-0.0089
479.8372	-0.0288
480.0376	-0.0133
480.2379	-0.0254
480.4383	-0.016
480.6386	-0.01
480.8389	-0.0047
481.0392	-0.0201
481.2395	-0.0039
481.4398	0.0029
481.6401	-0.0082
481.8403	-0.0075
482.0405	-0.0153
482.2408	-0.0113
482.441	-0.0012
482.6411	-0.017
482.8413	-0.0083
483.0415	-0.0134
483.2416	-0.0156
483.4417	-0.0106
483.6419	-0.0107
483.8419	-0.0167
484.042	0.0069
484.2421	-0.0089
484.4422	-0.0119
484.6422	-0.008
484.8422	-0.0099
485.0422	-0.0133
485.2422	-0.0028
485.4422	-0.0061
485.6422	-0.017
485.8421	-0.0123
486.042	-0.0134
486.242	-0.0056
486.4419	-0.009
486.6417	-0.0172
486.8416	0.0003
487.0415	-0.0076
487.2413	-0.0077
487.4411	-0.0116
487.641	-0.007
487.8408	-0.0069
488.0405	-0.0135
488.2403	-0.0183
488.4401	-0.0003
488.6398	-0.0021
488.8395	-0.0152
489.0392	0
489.2389	-0.0183
489.4386	-0.015
489.6383	-0.009
489.8379	-0.0067
490.0376	-0.0191
490.2372	-0.0116
490.4368	-0.0144
490.6364	-0.0068
490.836	-0.0209
491.0355	-0.0065
491.2351	-0.0152
491.4346	-0.0106
491.6341	-0.0218
491.8336	0.0053
492.0331	-0.0114
492.2326	-0.0209
492.432	-0.0087
492.6315	-0.0116
492.8309	-0.0148
493.0303	-0.0127
493.2297	-0.0133
493.4291	-0.003
493.6284	0.0013
493.8278	-0.0108
494.0271	-0.0118
494.2264	-0.0061
494.4257	-0.0165
494.625	-0.0126
494.8243	-0.0214
495.0236	-0.0163
495.2228	-0.0057
495.422	-0.0042
495.6213	-0.015
495.8205	-0.0089
496.0196	-0.0083
496.2188	-0.0087
496.418	-0.0251
496.6171	-0.0118
496.8162	-0.0153
497.0153	-0.0034
497.2144	-0.016
497.4135	-0.0081
497.6126	-0.0125
497.8116	-0.0069
498.0107	-0.0118
498.2097	-0.0198
498.4087	-0.0242
498.6077	-0.0104
498.8067	-0.0182
499.0056	0.0007
499.2046	-0.0156
499.4035	-0.0189
499.6024	-0.0156
499.8013	-0.0088
500.0002	-0.015
500.199	-0.0044
500.3979	-0.0133
500.5967	-0.0303
500.7956	-0.0087
500.9944	-0.0066
501.1932	-0.0139
501.3919	-0.0189
501.5907	-0.0201
501.7895	-0.0152
501.9882	-0.0205
502.1869	-0.0076
502.3856	-0.0106
502.5843	-0.019
502.783	-0.0146
502.9816	-0.0122
503.1803	-0.021
503.3789	-0.0094
503.5775	-0.0017
503.7761	-0.0202
503.9747	-0.0102
504.1732	-0.0111
504.3718	-0.0139
504.5703	-0.0105
504.7689	-0.0197
504.9674	-0.0137
505.1658	-0.0115
505.3643	-0.0047
505.5628	-0.0098
505.7612	-0.0145
505.9597	-0.0057
506.1581	-0.0085
506.3565	0.0105
506.5549	-0.0137
506.7532	-0.0214
506.9516	-0.0113
507.1499	-0.006
507.3482	-0.024
507.5465	-0.0171
507.7448	-0.0099
507.9431	-0.0148
508.1414	-0.0093
508.3396	-0.0043
508.5379	-0.0236
508.7361	-0.0141
508.9343	-0.0116
509.1325	-0.0025
509.3306	-0.0075
509.5288	-0.0118
509.7269	-0.0174
509.9251	-0.0124
510.1232	-0.0132
510.3213	-0.0059
510.5193	-0.0074
510.7174	-0.0058
510.9154	-0.0077
511.1135	-0.018
511.3115	-0.0125
511.5095	-0.0145
511.7075	-0.0176
511.9055	-0.0175
512.1034	-0.0182
512.3014	-0.0072
512.4993	-0.0013
512.6972	-0.0135
512.8951	-0.0193
513.093	-0.0106
513.2908	0
513.4887	-0.0096
513.6865	-0.0097
513.8844	-0.0041
514.0822	-0.0126
514.2799	-0.0197
514.4777	-0.0134
514.6755	-0.0155
514.8732	-0.0146
515.0709	-0.0096
515.2687	-0.0059
515.4664	-0.0089
515.664	-0.0048
515.8617	-0.0144
516.0594	-0.0225
516.257	-0.0047
516.4546	-0.0119
516.6522	-0.0073
516.8498	-0.0124
517.0474	-0.0044
517.2449	0.0004
517.4425	-0.018
517.64	-0.0226
517.8375	-0.0047
518.035	-0.0111
518.2325	-0.0209
518.43	-0.0213
518.6274	-0.0124
518.8249	-0.024
519.0223	-0.0083
519.2197	-0.0139
519.4171	-0.0096
519.6145	-0.0134
519.8118	-0.0119
520.0092	-0.0064
520.2065	-0.0222
520.4038	-0.0241
520.6011	-0.0092
520.7984	-0.0177
520.9956	-0.0148
521.1929	-0.0153
521.3901	-0.0075
521.5874	0.0004
521.7846	-0.0053
521.9818	-0.0161
522.1789	-0.0178
522.3761	-0.0129
522.5732	-0.0156
522.7704	-0.0129
522.9675	-0.0194
523.1646	-0.0093
523.3617	-0.0089
523.5587	-0.006
523.7558	-0.0132
523.9528	-0.0075
524.1498	-0.008
524.3468	-0.0154
524.5438	-0.0141
524.7408	-0.0137
524.9378	-0.0102
525.1347	-0.0099
525.3316	-0.0039
525.5285	-0.0084
525.7254	-0.0081
525.9223	-0.0058
526.1192	-0.0093
526.316	-0.0093
526.5129	0.0005
526.7097	-0.0041
526.9065	-0.011
527.1033	-0.0149
527.3	-0.0088
527.4968	-0.0158
527.6935	-0.0099
527.8903	-0.0224
528.087	-0.0076
528.2837	-0.0112
528.4804	-0.0074
528.677	-0.0133
528.8737	0.0051
529.0703	-0.006
529.2669	-0.0119
529.4635	-0.0062
529.6601	-0.0043
529.8567	-0.0102
530.0532	-0.017
530.2498	-0.0062
530.4463	-0.0054
530.6428	-0.0147
530.8393	0.0039
531.0358	-0.0114
531.2322	-0.0113
531.4287	-0.0073
531.6251	-0.0146
531.8215	-0.0028
532.0179	-0.0149
532.2143	-0.0091
532.4107	-0.0205
532.607	-0.0047
532.8034	-0.0045
532.9997	-0.0047
533.196	-0.0085
533.3923	-0.0166
533.5886	0.0028
533.7848	-0.0038
533.9811	-0.0114
534.1773	-0.0062
534.3735	0.0039
534.5697	-0.005
534.7659	-0.0093
534.9621	-0.0045
535.1582	-0.0185
535.3544	-0.0091
535.5505	-0.0182
535.7466	-0.0107
535.9427	-0.0024
536.1387	-0.0092
536.3348	-0.0034
536.5308	-0.0137
536.7269	-0.0136
536.9229	-0.0123
537.1189	-0.0049
537.3148	-0.0101
537.5108	-0.0135
537.7068	-0.0046
537.9027	-0.01
538.0986	-0.0009
538.2945	-0.0095
538.4904	-0.0066
538.6863	-0.0053
538.8821	-0.0026
539.078	-0.0055
539.2738	-0.0109
539.4696	-0.0004
539.6654	0.0046
539.8611	0.007
540.0569	-0.0128
540.2526	-0.0091
540.4484	-0.0009
540.6441	0.0001
540.8398	-0.0011
541.0355	-0.0061
541.2311	-0.0094
541.4268	-0.013
541.6224	-0.0021
541.818	-0.0087
542.0136	-0.0163
542.2092	-0.0039
542.4048	-0.0074
542.6003	-0.0119
542.7959	-0.004
542.9914	-0.0182
543.1869	-0.0098
543.3824	-0.0073
543.5779	-0.0109
543.7734	-0.0067
543.9688	-0.0082
544.1642	-0.0005
544.3596	0.0044
544.555	-0.0152
544.7504	0.0021
544.9458	-0.0069
545.1411	-0.0052
545.3365	-0.0048
545.5318	-0.0065
545.7271	-0.0009
545.9224	-0.0048
546.1177	0.0007
546.3129	-0.001
546.5081	-0.0025
546.7034	-0.0049
546.8986	-0.0167
547.0938	-0.0132
547.289	-0.0128
547.4841	0.0016
547.6793	0.0048
547.8744	-0.0137
548.0695	-0.0021
548.2646	-0.0163
548.4597	0.001
548.6548	-0.0056
548.8498	-0.0003
549.0448	-0.0004
549.2399	-0.0077
549.4349	0.0026
549.6298	-0.0098
549.8248	-0.0012
550.0198	-0.0039
550.2147	-0.0074
550.4096	-0.0116
550.6045	-0.0017
550.7994	-0.0035
550.9943	-0.0032
551.1892	-0.0097
551.384	0.0051
551.5788	-0.0047
551.7737	-0.0025
551.9685	-0.0019
552.1632	0.0062
552.358	-0.0062
552.5528	-0.005
552.7475	-0.0039
552.9422	-0.0014
553.1369	0.0017
553.3316	-0.0025
553.5263	-0.0088
553.7209	-0.0066
553.9156	-0.0026
554.1102	-0.0125
554.3048	-0.0175
554.4994	0.0036
554.694	-0.0069
554.8885	0.0055
555.0831	-0.0045
555.2776	-0.0106
555.4721	-0.0039
555.6666	-0.0041
555.8611	-0.0004
556.0555	-0.0031
556.25	-0.0079
556.4444	-0.0061
556.6388	-0.0036
556.8332	0.0009
557.0276	-0.0114
557.222	-0.0062
557.4163	-0.0031
557.6107	-0.0045
557.805	0.0065
557.9993	-0.0095
558.1936	-0.0067
558.3879	-0.0048
558.5821	-0.0011
558.7764	-0.0093
558.9706	-0.0041
559.1648	-0.0048
559.359	-0.0086
559.5532	-0.0141
559.7473	-0.0032
559.9415	-0.0086
560.1356	-0.0086
560.3297	-0.0183
560.5238	-0.009
560.7179	-0.006
560.9119	-0.0017
561.106	-0.0105
561.3	-0.0069
561.494	-0.0075
561.688	-0.0112
561.882	-0.0109
562.076	-0.0081
562.2699	0.0033
562.4639	-0.0029
562.6578	-0.0054
562.8517	-0.0047
563.0456	-0.0091
563.2395	-0.0018
563.4333	-0.0036
563.6272	-0.0003
563.821	-0.0006
564.0148	-0.0007
564.2086	0.0012
564.4024	0.0006
564.5961	-0.0056
564.7899	0.0014
564.9836	-0.0022
565.1773	-0.0036
565.371	-0.0024
565.5647	0.0002
565.7584	-0.0043
565.952	-0.0014
566.1456	-0.0003
566.3393	0.0051
566.5329	-0.0064
566.7264	0.003
566.92	-0.0111
567.1136	-0.001
567.3071	-0.009
567.5006	-0.0034
567.6941	-0.0009
567.8876	-0.0022
568.0811	-0.0084
568.2745	0.0024
568.468	-0
568.6614	-0.0051
568.8548	-0.0079
569.0482	-0.0085
569.2416	-0.0023
569.4349	-0.006
569.6283	-0.0017
569.8216	-0.0058
570.0149	-0.0093
570.2082	0.0037
570.4015	0.003
570.5947	-0.0009
570.788	0.0025
570.9812	0.0011
571.1744	-0.0034
571.3676	-0.0006
571.5608	0.0007
571.754	-0.0058
571.9471	0.0024
572.1402	0.0029
572.3333	-0.0041
572.5264	-0.0078
572.7195	-0.0055
572.9126	0.0013
573.1057	-0.0011
573.2987	-0.0047
573.4917	-0.0011
573.6847	-0.0097
573.8777	0.0069
574.0707	-0.0016
574.2636	-0.0026
574.4566	-0.005
574.6495	0.0053
574.8424	-0.0027
575.0353	-0.003
575.2281	0.0158
575.421	0.0012
575.6138	-0.002
575.8067	-0.002
575.9995	-0.0042
576.1923	0.0008
576.385	-0.005
576.5778	-0.0022
576.7706	0.0006
576.9633	-0.0007
577.156	0.0023
577.3487	-0.0055
577.5414	0.0038
577.734	-0.004
577.9267	-0.0025
578.1193	-0.0158
578.3119	-0.0004
578.5045	-0.0018
578.6971	0.0011
578.8897	-0.0033
579.0822	0.0044
579.2747	-0.0038
579.4673	-0.0038
579.6598	-0.0061
579.8522	-0.0055
580.0447	-0.0065
580.2372	-0.0097
580.4296	0.0045
580.622	-0.0027
580.8144	-0.003
581.0068	-0.0111
581.1992	-0.0107
581.3915	-0.0059
581.5839	-0.015
581.7762	-0.012
581.9685	-0.0055
582.1608	0.003
582.353	-0.0048
582.5453	-0.0022
582.7375	-0.0049
582.9298	-0.0038
583.122	-0.0032
583.3142	-0.0012
583.5063	-0.0021
583.6985	-0.0025
583.8906	-0.0002
584.0827	-0.007
584.2749	-0.0032
584.4669	-0.0013
584.659	-0.0008
584.8511	-0.0032
585.0431	-0.0057
585.2352	-0.0044
585.4272	-0.0018
585.6192	-0.0012
585.8111	-0.0015
586.0031	-0.0004
586.195	-0.0038
586.387	0.0086
586.5789	-0.0061
586.7708	-0.0008
586.9627	-0.001
587.1545	-0.007
587.3464	0.0036
587.5382	-0.0014
587.73	-0.0022
587.9218	0.0068
588.1136	0.0028
588.3053	0.0024
588.4971	-0.0064
588.6888	-0.0072
588.8805	-0.0063
589.0722	-0.0018
589.2639	-0.0034
589.4556	-0.0057
589.6472	-0.0021
589.8389	-0.0081
590.0305	-0.001
590.2221	-0.0081
590.4137	-0.0089
590.6052	0.0004
590.7968	-0.001
590.9883	-0.0019
591.1798	-0.002
591.3713	-0.0042
591.5628	-0.0021
591.7543	0.0027
591.9458	-0.0071
592.1372	0.0051
592.3286	0.0025
592.52	0.0021
592.7114	-0.0124
592.9028	-0.0047
593.0941	-0.0006
593.2855	-0.0018
593.4768	-0.0085
593.6681	-0.0088
593.8594	0.0011
594.0506	-0.0014
594.2419	0.0046
594.4331	0.0007
594.6244	0.0007
594.8156	-0.0048
595.0067	-0.0033
595.1979	-0.001
595.3891	0.0073
595.5802	-0.0059
595.7713	0.0024
595.9624	-0.0065
596.1535	0.0066
596.3446	0.0038
596.5357	-0.0052
596.7267	0.0057
596.9177	0.0008
597.1087	-0.0152
597.2997	-0.0076
597.4907	0.001
597.6817	-0.0065
597.8726	0.0018
598.0635	-0.0083
598.2544	-0.0004
598.4453	-0.0033
598.6362	-0.0069
598.827	-0.0051
599.0179	0.0026
599.2087	0.0012
599.3995	0.0003
599.5903	-0.0005
599.7811	0.0015
599.9718	0.0011
600.1626	-0.0058
600.3533	-0.0006
600.544	-0.0047
600.7347	-0.0041
600.9254	-0.002
601.116	-0.0108
601.3067	-0.0025
601.4973	-0.0086
601.6879	0.0046
601.8785	-0.0032
602.0691	-0.0029
602.2596	-0.0009
602.4502	-0.0008
602.6407	-0.0034
602.8312	-0.0009
603.0217	0.001
603.2122	-0.0008
603.4027	0.0001
603.5931	0.0022
603.7835	-0.0021
603.9739	0.002
604.1643	0
604.3547	-0.0069
604.5451	-0.0039
604.7354	-0.0005
604.9257	0.0014
605.116	-0.0065
605.3063	-0.0054
605.4966	0.0018
605.6869	-0.0033
605.8771	-0.0011
606.0673	0.0043
606.2575	0.0049
606.4477	0.0051
606.6379	0.0079
606.8281	-0.0003
607.0182	-0.0019
607.2083	0.0085
607.3985	-0.002
607.5885	-0.0027
607.7786	0.0032
607.9687	-0.0049
608.1587	0.0057
608.3488	0.0055
608.5388	0.0013
608.7288	-0.0014
608.9187	-0.0007
609.1087	-0.0091
609.2986	-0.002
609.4886	-0.005
609.6785	-0.005
609.8684	0.0002
610.0582	0.0055
610.2481	0.0027
610.4379	-0.002
610.6278	-0.0028
610.8176	0.0026
611.0074	-0.0041
611.1971	-0.0084
611.3869	-0.0035
611.5766	-0.0117
611.7664	0.0039
611.9561	0.0052
612.1458	-0.0024
612.3354	-0.0103
612.5251	-0.0006
612.7147	0.0035
612.9044	0.0058
613.094	-0.0129
613.2836	0.0028
613.4731	-0.0074
613.6627	-0.0036
613.8522	0.0022
614.0417	0.0045
614.2313	-0.0098
614.4207	-0.0046
614.6102	-0.0009
614.7997	-0.0048
614.9891	-0.0044
615.1785	-0.0028
615.3679	-0.0011
615.5573	0.006
615.7467	0.0031
615.9361	-0.0032
616.1254	-0.0078
616.3147	-0.0016
616.504	-0.0001
616.6933	0.0004
616.8826	0.004
617.0718	0.003
617.2611	-0.0032
617.4503	-0.004
617.6395	0.001
617.8287	0.0019
618.0179	0.0016
618.207	0.0054
618.3961	0.0037
618.5853	-0.004
618.7744	0.0062
618.9634	-0.0011
619.1525	-0.0006
619.3416	0.003
619.5306	0.0013
619.7196	-0.0081
619.9086	-0.0055
620.0976	0.0021
620.2866	-0.0111
620.4755	0.0044
620.6645	-0.0011
620.8534	0.0001
621.0423	0.0082
621.2312	0.0084
621.42	0.0003
621.6089	0.0035
621.7977	0.0066
621.9865	-0.0049
622.1753	0.0016
622.3641	-0.0062
622.5529	-0.0038
622.7416	-0
622.9303	-0.006
623.1191	0.0002
623.3078	0.0005
623.4964	0.0006
623.6851	-0.009
623.8737	0.003
624.0624	0.006
624.251	-0.006
624.4396	-0.0065
624.6282	-0.0057
624.8167	-0.0037
625.0053	0.0021
625.1938	0.0081
625.3823	0.0017
625.5708	-0.0021
625.7593	-0.0028
625.9477	-0.0054
626.1362	-0.0068
626.3246	0.0001
626.513	0.0034
626.7014	0.002
626.8898	0.0026
627.0781	-0.003
627.2665	-0.005
627.4548	0.0018
627.6431	-0.0031
627.8314	-0.0059
628.0197	0.0005
628.2079	-0.0029
628.3962	-0.0059
628.5844	0.0084
628.7726	0.0036
628.9608	0.0015
629.1489	-0.004
629.3371	0.006
629.5252	-0.0016
629.7134	0.0032
629.9015	0.0095
630.0895	0.0004
630.2776	0.0023
630.4657	-0.0056
630.6537	0.0032
630.8417	-0.0056
631.0297	-0.0002
631.2177	-0.0057
631.4057	-0.0002
631.5936	-0.0044
631.7815	0.0065
631.9695	0.0039
632.1574	0.0011
632.3452	0.0049
632.5331	0.0036
632.7209	0.0012
632.9088	0.0054
633.0966	0.0122
633.2844	-0.0019
633.4722	-0.0012
633.6599	0.0032
633.8477	0.0001
634.0354	0.0026
634.2231	0.0001
634.4108	0.0024
634.5985	0.0088
634.7861	-0.0029
634.9738	-0.0038
635.1614	0.0022
635.349	-0.0001
635.5366	-0.0008
635.7242	-0.0007
635.9117	0.0004
636.0993	-0.0077
636.2868	-0.0043
636.4743	-0.0032
636.6618	0.0059
636.8492	-0.008
637.0367	-0.0012
637.2241	0
637.4115	-0.0104
637.5989	-0.0016
637.7863	-0.0003
637.9737	0.0001
638.161	-0.0002
638.3484	-0.0066
638.5357	0.0045
638.723	-0.0005
638.9103	0.0032
639.0975	0.0074
639.2848	0.002
639.472	-0.0026
639.6592	0.0032
639.8464	0.012
640.0336	0.0022
640.2208	-0.0024
640.4079	0.0001
640.595	0.005
640.7821	-0.0004
640.9692	0.0041
641.1563	0.0056
641.3434	0.0061
641.5304	0.0042
641.7174	0.0075
641.9044	0.0047
642.0914	0.0067
642.2784	0.0124
642.4653	0.0141
642.6523	0.0031
642.8392	0.0025
643.0261	0.0027
643.213	0.0019
643.3999	-0.0001
643.5867	0.0006
643.7735	0.0012
643.9604	-0.0085
644.1472	0.0045
644.3339	0.0013
644.5207	0.007
644.7075	-0.0027
644.8942	0.01
645.0809	0.001
645.2676	0.0047
645.4543	0.0037
645.6409	0.0072
645.8276	0.0014
646.0142	0.0027
646.2008	-0.008
646.3874	-0.0001
646.574	-0.0009
646.7605	-0.0055
646.9471	-0.0084
647.1336	0.0016
647.3201	0.0023
647.5066	-0.0031
647.6931	0.0028
647.8795	-0.0029
648.0659	0.0043
648.2524	0.0087
648.4388	-0.0055
648.6252	0.0018
648.8115	0.0034
648.9979	-0.0005
649.1842	0.0038
649.3705	0.0033
649.5568	-0.0008
649.7431	0.0078
649.9294	-0.0052
650.1156	0.0031
650.3018	-0.0131
650.488	0.007
650.6742	0.0062
650.8604	-0.0012
651.0466	-0.0079
651.2327	0.0006
651.4188	0.0029
651.6049	-0.0034
651.791	0.0024
651.9771	0.0056
652.1632	0.0033
652.3492	0.0001
652.5352	-0.0052
652.7212	-0.0102
652.9072	0.0084
653.0932	-0.0009
653.2791	-0.0069
653.465	-0.0041
653.651	0.0008
653.8369	0.0038
654.0227	-0.0012
654.2086	0.0128
654.3944	0.0024
654.5803	0.007
654.7661	-0.0051
654.9519	0.004
655.1377	-0.0037
655.3234	0.0022
655.5092	-0.0006
655.6949	-0.0046
655.8806	-0.002
656.0663	0.0002
656.2519	-0.0052
656.4376	-0.0027
656.6232	0.0091
656.8088	-0.0012
656.9945	-0.0027
657.18	0.0019
657.3656	0.0009
657.5511	-0.0019
657.7367	-0.0062
657.9222	0.0026
658.1077	-0.0067
658.2932	0.0027
658.4786	-0.0113
658.6641	-0.0061
658.8495	0
659.0349	-0.0003
659.2203	0.0053
659.4057	0.0007
659.591	-0.0016
659.7764	-0.0011
659.9617	0.0002
660.147	0.0057
660.3323	0.0036
660.5176	-0
660.7028	0.0021
660.888	0.0002
661.0733	-0.0008
661.2585	-0.0067
661.4436	-0.0046
661.6288	-0.0031
661.8139	-0.0019
661.9991	0.0026
662.1842	-0.0018
662.3693	0.0025
662.5544	-0.0006
662.7394	-0.0009
662.9245	0
663.1095	0.0013
663.2945	0.0012
663.4795	-0.0037
663.6644	0.0103
663.8494	0.0052
664.0343	-0.0036
664.2193	-0.0084
664.4042	-0.0037
664.589	-0.0054
664.7739	-0.0032
664.9587	-0.0136
665.1436	-0.0068
665.3284	0.0022
665.5132	-0.0067
665.698	-0.0042
665.8827	0.0022
666.0675	-0.0024
666.2522	-0.0074
666.4369	0.0039
666.6216	0.0065
666.8063	0.0092
666.9909	0.0007
667.1756	-0.0039
667.3602	0.0021
667.5448	-0.0029
667.7294	0.0074
667.9139	-0.0001
668.0985	0.0085
668.283	0.0001
668.4675	0.0034
668.652	-0
668.8365	-0.0063
669.0209	0.0081
669.2054	0.0017
669.3898	-0.0022
669.5742	0.0081
669.7586	0.0051
669.943	0.0049
670.1273	0.0071
670.3117	0.0011
670.496	0.0023
670.6803	0.0056
670.8646	0.0011
671.0488	-0.0034
671.2331	0.0083
671.4173	0.0069
671.6015	0.002
671.7857	0.0009
671.9699	0.0072
672.1541	-0.0014
672.3382	-0.005
672.5223	0.0073
672.7064	0.0098
672.8905	0.0027
673.0746	-0.0076
673.2587	-0.0062
673.4427	0.0045
673.6267	0.0079
673.8107	0.0062
673.9947	0.0026
674.1787	0.0069
674.3626	-0.0085
674.5465	0.0023
674.7304	0.0021
674.9143	0.0069
675.0982	0.001
675.2821	-0.0051
675.4659	0.0022
675.6497	0.0003
675.8335	-0.0038
676.0173	0.0003
676.2011	-0.0072
676.3849	-0.0015
676.5686	-0.0037
676.7523	0.0013
676.936	-0
677.1197	-0.0019
677.3034	-0.0031
677.487	-0.0001
677.6706	-0.0009
677.8542	0.0023
678.0378	0.0002
678.2214	-0.0052
678.405	-0.0019
678.5885	-0.0079
678.772	-0.0003
678.9555	0.002
679.139	0.0085
679.3225	0.004
679.5059	-0.0091
679.6894	0.003
679.8728	-0.0079
680.0562	-0.0102
680.2395	-0.0037
680.4229	-0.0047
680.6062	0.0114
680.7896	0.0095
680.9729	-0.0044
681.1562	0.0018
681.3394	0.003
681.5227	-0.0066
681.7059	0.0039
681.8891	0.001
682.0723	0.0034
682.2555	0
682.4387	-0.0038
682.6218	-0.0052
682.805	0.0098
682.9881	-0.0012
683.1712	-0.0048
683.3542	-0.005
683.5373	0.0019
683.7203	-0.0096
683.9034	-0.0016
684.0864	-0.0108
684.2694	-0.0051
684.4523	0.0001
684.6353	-0.0103
684.8182	-0.0003
685.0011	-0.0026
685.184	0.0003
685.3669	-0.0036
685.5498	0.0004
685.7326	-0.0028
685.9154	-0.0042
686.0982	0.0035
686.281	-0.0008
686.4638	0.0011
686.6465	-0.0044
686.8293	-0.0083
687.012	0.0008
687.1947	-0.0034
687.3774	-0.0022
687.56	-0.0005
687.7427	0.003
687.9253	-0.0057
688.1079	0.0022
688.2905	0.0027
688.4731	0.002
688.6556	-0.0058
688.8382	-0.0007
689.0207	-0.0023
689.2032	-0.0131
689.3857	-0.0052
689.5681	-0.0006
689.7506	-0.0079
689.933	-0.0029
690.1154	-0.0044
690.2978	-0.0033
690.4802	-0.0057
690.6626	-0.0133
690.8449	-0.0092
691.0272	0.0061
691.2095	-0.0085
691.3918	-0.0103
691.5741	0.002
691.7563	-0.0036
691.9386	0.0013
692.1208	-0.004
692.303	-0.0011
692.4852	-0.0018
692.6673	-0.0051
692.8495	-0.0036
693.0316	-0.0011
693.2137	-0.0037
693.3958	0.0061
693.5778	-0.0044
693.7599	-0.0055
693.9419	-0.0044
694.1239	-0.0035
694.3059	-0.0002
694.4879	0.0004
694.6699	0.0093
694.8518	0.0094
695.0337	-0.0044
695.2157	0.0018
695.3975	0.0001
695.5794	-0.0018
695.7613	0.0064
695.9431	-0.0022
696.1249	-0.0045
696.3067	0.005
696.4885	0.0075
696.6703	-0.0082
696.852	-0.0017
697.0337	-0.0002
697.2154	0.0052
697.3971	-0.0014
697.5788	-0.0002
697.7605	-0.0048
697.9421	0.0016
698.1237	-0.0044
698.3053	0.0022
698.4869	-0.0024
698.6685	-0.0133
698.85	-0.0042
699.0315	0.0078
699.213	-0.007
699.3945	-0.0026
699.576	0.0049
699.7575	0.0027
699.9389	-0.0028
700.1203	-0.0086
700.3017	-0.0025
700.4831	-0.0089
700.6645	-0.0076
700.8458	-0.0034
701.0271	0.0006
701.2084	0.0061
701.3897	-0.0012
701.571	0.013
701.7523	-0.0013
701.9335	0.0014
702.1147	0.0008
702.2959	0
702.4771	-0.0005
702.6583	-0.0059
702.8394	-0.0028
703.0205	0.0009
703.2016	-0.0057
703.3827	-0.0077
703.5638	0.006
703.7449	0.0065
703.9259	0.0079
704.1069	-0.0039
704.2879	-0.002
704.4689	0.003
704.6499	-0.0026
704.8308	-0.0011
705.0117	-0.0038
705.1927	0.0019
705.3735	-0.0059
705.5544	-0.0091
705.7353	-0.0093
705.9161	-0.0078
706.0969	-0.0003
706.2777	0.0005
706.4585	-0.0121
706.6393	0.0022
706.82	-0.0031
707.0007	-0.0015
707.1815	0.0014
707.3621	0.0081
707.5428	-0.0037
707.7235	0.0004
707.9041	0.0006
708.0847	-0.0103
708.2653	-0.0026
708.4459	-0.0165
708.6265	0.0017
708.807	0.0016
708.9875	0
709.168	-0.0006
709.3485	-0.0162
709.529	-0.0039
709.7095	-0.012
709.8899	-0.0036
710.0703	-0.0095
710.2507	0.0011
710.4311	-0.0034
710.6115	-0.0036
710.7918	-0.014
710.9721	-0.0053
711.1524	-0.0027
711.3327	-0.0025
711.513	0.0034
711.6932	-0.0001
711.8735	0.0054
712.0537	0.0027
712.2339	-0.0004
712.4141	-0.0014
712.5942	-0.0042
712.7744	-0.0005
712.9545	-0.0113
713.1346	-0.0082
713.3147	-0.0072
713.4947	-0.0094
713.6748	0.0003
713.8548	-0.005
714.0348	-0.0051
714.2148	-0.009
714.3948	0.0088
714.5748	-0.004
714.7547	0.0006
714.9346	0.0099
715.1145	-0.0009
715.2944	-0.0023
715.4743	0.0037
715.6541	-0.0032
715.834	-0.0044
716.0138	-0.0071
716.1936	-0.014
716.3733	-0.007
716.5531	0.0022
716.7328	-0.0087
716.9126	-0.007
717.0923	0.0017
717.2719	-0.0035
717.4516	0.0113
717.6312	0.0019
717.8109	-0.0125
717.9905	0.002
718.1701	-0.0039
718.3496	-0.0113
718.5292	0.0025
718.7087	-0.005
718.8882	-0.0096
719.0677	0.0021
719.2472	-0.0061
719.4267	0.0013
719.6061	-0.0043
719.7856	0.0013
719.965	0.0064
720.1443	0.0017
720.3237	0.016
720.5031	0.0034
720.6824	0.004
720.8617	-0.0099
721.041	0.0058
721.2203	0.0125
721.3995	-0.0002
721.5788	-0.0056
721.758	0.003
721.9372	-0.0058
722.1164	-0.0029
722.2956	-0.003
722.4747	0.0032
722.6538	-0.006
722.8329	0.0121
723.012	-0.0032
723.1911	0.0047
723.3702	0.0018
723.5492	0.002
723.7282	-0.0042
723.9072	0.0029
724.0862	-0.0119
724.2652	-0.005
724.4441	-0.0007
724.623	-0.001
724.8019	-0.0025
724.9808	-0.0081
725.1597	-0.0137
725.3385	-0.0048
725.5174	-0.0061
725.6962	-0.0003
725.875	-0.0023
726.0538	0.0066
726.2325	-0.0017
726.4112	0.0011
726.59	-0.0028
726.7687	-0.0096
726.9474	0.0009
727.126	-0.0007
727.3047	-0.0081
727.4833	-0.0025
727.6619	-0.0103
727.8405	-0.0092
728.0191	-0.0039
728.1976	-0.0004
728.3762	0
728.5547	0.004
728.7332	-0.009
728.9116	-0.0012
729.0901	0.0034
729.2686	-0.0093
729.447	-0.0115
729.6254	-0.0083
729.8038	-0.005
729.9821	-0.0128
730.1605	-0.0025
730.3388	-0.0028
730.5171	-0.0013
730.6954	-0.0087
730.8737	-0.0008
731.0519	-0.0028
731.2302	-0.003
731.4084	-0.0022
731.5866	0.0008
731.7648	-0.0003
731.9429	-0.0143
732.1211	-0.014
732.2992	-0.0044
732.4773	-0.0059
732.6554	-0.007
732.8335	-0.0062
733.0115	0.001
733.1896	0.0002
733.3676	-0.011
733.5456	-0.0019
733.7235	0.0022
733.9015	-0.0014
734.0794	-0.0029
734.2574	-0.0107
734.4353	-0.0019
734.6131	-0.0025
734.791	0.0021
734.9689	0.0024
735.1467	0.0067
735.3245	-0.0089
735.5023	-0.0058
735.68	-0.0005
735.8578	0.0054
736.0355	-0.0206
736.2132	-0.0068
736.3909	-0.0073
736.5686	-0.0027
736.7463	0.0008
736.9239	-0.012
737.1015	0.0029
737.2791	0.0055
737.4567	-0.0024
737.6343	-0.0044
737.8118	0.0033
737.9894	-0.0017
738.1669	-0.0061
738.3444	-0.0062
738.5218	-0.0017
738.6993	0.0002
738.8767	-0.0094
739.0541	0.0062
739.2315	-0.0095
739.4089	-0.001
739.5863	-0.0026
739.7636	-0.0138
739.9409	0.0077
740.1182	0.0061
740.2955	-0.0016
740.4728	-0.0024
740.65	-0.0036
740.8272	-0.0079
741.0044	-0.0015
741.1816	-0.004
741.3588	-0.0004
741.5359	-0.0013
741.7131	-0.0203
741.8902	-0.0072
742.0673	-0.0018
742.2444	-0.0127
742.4214	-0.014
742.5985	-0.0132
742.7755	-0.0173
742.9525	-0.0254
743.1295	-0.0072
743.3064	-0.0012
743.4834	-0.0004
743.6603	-0.0126
743.8372	-0.0088
744.0141	-0.0025
744.191	-0.0043
744.3678	0.0027
744.5446	-0.0049
744.7215	0.001
744.8982	-0.0047
745.075	-0.0119
745.2518	-0.0034
745.4285	-0.0003
745.6052	-0.0092
745.7819	-0.0098
745.9586	0.0015
746.1353	-0.0027
746.3119	-0.0119
746.4885	-0.0085
746.6651	-0.0111
746.8417	-0.0099
747.0183	-0.0026
747.1948	-0.0033
747.3714	0.0023
747.5479	-0.0028
747.7244	-0.0102
747.9008	0.0092
748.0773	0.0018
748.2537	0.0035
748.4301	-0.0155
748.6065	0.0052
748.7829	-0.0013
748.9593	-0.0009
749.1356	-0.0016
749.3119	0.0078
749.4882	-0.0079
749.6645	0.0009
749.8408	-0.0041
750.017	-0.0059
750.1933	0.0003
750.3695	-0.0148
750.5457	-0.0041
750.7218	-0.0106
750.898	0.0154
751.0741	-0.006
751.2502	-0.0085
751.4263	-0.0025
751.6024	-0.0057
751.7784	-0.0096
751.9545	-0.009
752.1305	-0.0074
752.3065	-0.0083
752.4825	-0.001
752.6584	-0.0092
752.8344	-0.0055
753.0103	-0.0118
753.1862	-0.0164
753.3621	-0.0042
753.5379	-0.007
753.7138	0.0013
753.8896	0.0037
754.0654	0.0079
754.2412	0.001
754.417	0.005
754.5927	-0.001
754.7685	-0.0017
754.9442	0.0035
755.1199	0.0121
755.2956	0.0073
755.4712	0.007
755.6469	0.0029
755.8225	0.0025
755.9981	-0.0067
756.1736	0.0035
756.3492	0.0071
756.5248	0.0077
756.7003	-0.0005
756.8758	0.0066
757.0513	-0.0105
757.2267	-0.0025
757.4022	-0.0029
757.5776	-0.0057
757.753	0.0012
757.9284	0.0013
758.1038	0.0077
758.2791	-0.0017
758.4545	-0.02
758.6298	-0.0061
758.8051	0.0026
758.9803	-0.0073
759.1556	-0.006
759.3308	-0.0087
759.506	0.0006
759.6812	-0.0001
759.8564	0.0132
760.0316	-0.0023
760.2067	0.0083
760.3819	0.0112
760.557	0.0167
760.732	0.0017
760.9071	-0.0131
761.0821	-0.0039
761.2572	0.0127
761.4322	0.0002
761.6072	0.0048
761.7821	-0.0011
761.9571	0.0086
762.132	-0.0006
762.3069	-0.0086
762.4818	-0.0068
762.6567	-0.0038
762.8316	-0.0037
763.0064	-0.0004
763.1812	0.0064
763.356	-0.005
763.5308	0.0028
763.7055	-0.0005
763.8803	-0.0089
764.055	-0.0045
764.2297	-0.0042
764.4044	-0.0145
764.579	-0.0092
764.7537	-0.0051
764.9283	-0.0062
765.1029	-0.0132
765.2775	-0.011
765.4521	-0.0086
765.6266	-0.0019
765.8011	-0.0022
765.9756	-0.0065
766.1501	0.0105
766.3246	-0.0091
766.4991	-0.0071
766.6735	0.0003
766.8479	-0.0036
767.0223	0.0075
767.1967	0.0013
767.371	0.006
767.5454	-0.0094
767.7197	0.0024
767.894	-0.0077
768.0683	-0.0124
768.2425	0.0013
768.4168	-0.0034
768.591	-0.0007
768.7652	-0.0033
768.9394	-0.0043
769.1135	-0.0047
769.2877	0.0018
769.4618	0.0019
769.6359	-0.0005
769.81	0.0004
769.984	-0.0017
770.1581	-0.0073
770.3321	0.006
770.5061	0.0024
770.6801	0.0001
770.8541	0.0066
771.028	0.0075
771.202	-0.0056
771.3759	0.0111
771.5498	0.0001
771.7236	-0.0009
771.8975	0.0022
772.0713	0.0032
772.2451	0.0065
772.4189	0.0026
772.5927	0.0142
772.7665	0.001
772.9402	-0.001
773.1139	-0.0023
773.2876	-0.0028
773.4613	-0.0032
773.635	0.0084
773.8086	-0.0117
773.9822	0.0009
774.1558	0.0102
774.3294	-0.0111
774.503	-0.0041
774.6765	-0.01
774.8501	0.0015
775.0236	0.014
775.1971	0.005
775.3705	-0.0167
775.544	0.0081
775.7174	-0.0094
775.8908	-0.0068
776.0642	-0.0202
776.2376	-0.0008
776.4109	-0.0122
776.5843	0.0022
776.7576	0
776.9309	0.0054
777.1041	-0.0017
777.2774	0.0118
777.4506	-0.0097
777.6238	-0.0147
777.797	0.0111
777.9702	0.0023
778.1434	-0.0068
778.3165	-0.0107
778.4896	-0.0099
778.6627	0.0068
778.8358	-0.0035
779.0089	-0.0108
779.1819	-0.009
779.3549	0.0051
779.5279	0.0097
779.7009	-0.0048
779.8739	0.0034
780.0468	-0.0003
780.2197	0.0086
780.3926	-0.0064
780.5655	-0.0048
780.7384	0.0041
780.9112	0.0083
781.0841	-0.013
781.2569	-0.0028
781.4297	0.0063
781.6024	0.0081
781.7752	-0.0046
781.9479	0.008
782.1206	-0.0027
782.2933	-0.0058
782.466	0.0086
782.6386	0.0046
782.8113	0.0022
782.9839	0.0033
783.1565	0.012
783.329	0.0003
783.5016	0.0056
783.6741	-0.0065
783.8466	-0.0167
784.0191	0.0142
784.1916	-0.0004
784.3641	-0.0066
784.5365	-0.0041
784.7089	-0.0088
784.8813	-0.0114
785.0537	-0.0022
785.2261	-0.0181
785.3984	-0.0194
785.5707	-0.0036
785.743	-0.0053
785.9153	-0.0222
786.0876	0.0056
786.2598	0
786.432	-0.0052
786.6042	0.0087
786.7764	-0.0103
786.9486	-0.0043
787.1207	-0.0156
787.2928	0.0043
787.4649	-0.0121
787.637	0.0025
787.8091	-0.0043
787.9811	-0.0095
788.1532	-0.0048
788.3252	-0.0023
788.4972	-0.0088
788.6691	-0.0021
788.8411	-0.003
789.013	-0.0203
789.1849	-0.0078
789.3568	-0.0107
789.5287	0.0029
789.7005	-0.0041
789.8723	0.0008
790.0442	0.0002
790.2159	-0.0075
790.3877	0.0071
790.5595	-0.0102
790.7312	-0.0073
790.9029	-0.0099
791.0746	-0.0197
791.2463	0.001
791.4179	-0.0101
791.5896	-0.0069
791.7612	-0.0086
791.9328	0.0036
792.1044	-0.0034
792.2759	-0.0187
792.4474	-0.0172
792.619	-0.0092
792.7905	0.0004
792.9619	-0.0085
793.1334	0.0008
793.3048	0.0083
793.4762	0.0122
793.6476	-0.002
793.819	-0.0187
793.9904	0.002
794.1617	-0.0089
794.333	-0.0078
794.5043	-0.0104
794.6756	0.001
794.8469	-0.0088
795.0181	0.005
795.1893	-0.0041
795.3605	0.0012
795.5317	0.0084
795.7029	-0.0169
795.874	0.0055
796.0452	0.0004
796.2163	0.0025
796.3873	0.0062
796.5584	-0.0042
796.7294	-0.0008
796.9005	0.0173
797.0715	0.0027
797.2425	-0.0183
797.4134	-0.0023
797.5844	-0.0057
797.7553	-0.0046
797.9262	-0.0054
798.0971	-0.0113
798.2679	-0.0044
798.4388	-0.0032
798.6096	-0.0007
798.7804	-0.0024
798.9512	-0.0084
799.122	-0.0106
799.2927	-0.0038
799.4635	-0.0012
799.6342	-0.0062
799.8049	-0.0092
799.9755	-0.0219
800.1462	0.0008
800.3168	0.0096
800.4874	0.0059
800.658	0.0243
800.8286	0.0004
800.9991	0.0142
801.1696	0.0061
801.3402	0.0274
801.5106	-0.0072
801.6811	0.0076
801.8516	0.0039
802.022	0.0042
802.1924	0.0083
802.3628	-0.0002
802.5332	0.0133
802.7035	0.0147
802.8739	-0.0029
803.0442	0.0027
803.2145	-0.0028
803.3847	-0.009
803.555	-0.0094
803.7252	-0.0134
803.8954	-0.0281
804.0656	-0.0066
804.2358	-0.0015
804.4059	0.009
804.5761	-0.0025
804.7462	0.0069
804.9163	0.0055
805.0864	-0.0208
805.2564	-0.0225
805.4264	0.0001
805.5965	-0.0149
805.7665	0.0059
805.9364	0.0121
806.1064	0.0079
806.2763	-0.0023
806.4462	0.0075
806.6161	0.0009
806.786	0.0016
806.9559	-0.0056
807.1257	0.0008
807.2955	0.0019
807.4653	-0.0123
807.6351	-0.0199
807.8048	-0.0004
807.9746	0.0043
808.1443	0.0136
808.314	0.0115
808.4837	-0.0058
808.6533	-0.0023
808.8229	0.0077
808.9926	-0.0214
809.1622	-0.0103
809.3317	-0.0164
809.5013	0.0069
809.6708	0.0055
809.8403	0.009
810.0098	-0.0082
810.1793	0.0018
810.3488	0.0031
810.5182	-0.0075
810.6876	-0.0037
810.857	-0.0177
811.0264	0.0234
811.1958	-0.0073
811.3651	0.021
811.5344	0.0025
811.7037	-0.0199
811.873	-0.0187
812.0422	0.0022
812.2115	-0.0053
812.3807	-0.0262
812.5499	-0.0163
812.7191	-0.0029
812.8882	-0.0282
813.0574	-0.0186
813.2265	-0.0199
813.3956	-0.0145
813.5646	0.0219
813.7337	-0.0311
813.9027	0.0166
814.0718	0.0236
814.2407	-0.0061
814.4097	-0.0166
814.5787	-0.0151
814.7476	-0.0033
814.9165	-0.0101
815.0854	-0.002
815.2543	0.0159
815.4232	-0.0154
815.592	0.003
815.7608	-0.0213
815.9296	-0.0072
816.0984	0.0075
816.2671	-0.0055
816.4359	0.0123
816.6046	-0.0107
816.7733	-0.0149
816.942	-0.03
817.1106	0.0052
817.2793	-0.0339
817.4479	-0.0141
817.6165	0.0182
817.785	-0.0046
817.9536	-0.0061
818.1221	-0.0101
818.2906	-0.0141
818.4591	-0.0077
818.6276	-0.0309
818.7961	-0.0133
818.9645	0.0215
819.1329	0.0068
819.3013	0.0042
819.4697	0.0186
819.638	0.019
819.8064	0.0333
819.9747	-0.0136
820.143	-0.0203
820.3113	0.0034
820.4795	0.0071
820.6477	-0.0061
820.816	-0.0174
820.9842	-0.0035
821.1523	0.0033
821.3205	-0.0146
821.4886	-0.0117
821.6567	-0.0066
821.8248	0.0195
821.9929	0.0067
822.1609	-0.0132
822.329	0.0117
822.497	0.0191
822.665	-0.0147
822.833	0.0063
823.0009	-0.0007
823.1688	0.0119
823.3367	0.0113
823.5046	-0.0056
823.6725	0.0417
823.8404	0.0005
824.0082	-0.0077
824.176	0.0013
824.3438	0.0126
824.5116	-0.0255
824.6793	-0.0052
824.847	-0.0232
825.0147	-0.0199
825.1824	0.0211
825.3501	0.0133
825.5177	-0.0156
825.6854	-0.023
825.853	0.006
826.0206	0.0086
826.1881	-0.0055
826.3557	-0.0383
826.5232	0.012
826.6907	-0.0345
826.8582	-0.0035
827.0257	-0.0293
827.1931	-0.0071
827.3605	-0.0201
827.528	-0.005
827.6953	-0.0202
827.8627	0.002
828.03	0.0253
828.1974	-0.0342
828.3647	-0.0482
828.532	-0.0239
828.6992	-0.0096
828.8665	0.0059
829.0337	-0.0404
829.2009	0.0036
829.3681	0.0032
829.5352	0.0058
829.7024	-0.0193
829.8695	-0.0629
830.0366	0.0377
830.2037	0.0032
830.3707	0.034
830.5378	-0.0298
830.7048	0.0145
830.8718	-0.0185
831.0388	-0.0282
831.2057	0.0153
831.3727	0.0101
831.5396	-0.0127
831.7065	-0.0184
831.8734	-0.0142
832.0402	-0.0396
832.2071	0.0081
832.3739	-0.0361
832.5407	0.0062
832.7075	-0.0176
832.8742	-0.0047
833.041	-0.0411
833.2077	-0.0005
833.3744	-0.0016
833.541	-0.0301
833.7077	-0.0247
833.8743	-0.047
834.0409	-0.0417
834.2075	-0.0117
834.3741	0.0032
834.5407	-0.0062
834.7072	0.0027
834.8737	-0.0336
835.0402	-0.0085
835.2067	0.0083
835.3731	0.0015
835.5395	0.0178
835.706	0.0054
835.8723	0.0148
836.0387	-0.0045
836.2051	-0.0142
836.3714	0.0255
836.5377	-0.0053
836.704	-0.0432
836.8703	-0.0142
837.0365	0.0135
837.2027	-0.0361
837.3689	0.023
837.5351	-0.0073
837.7013	-0.0533
837.8674	-0.0278
838.0335	-0.0198
838.1997	-0.0319
838.3657	-0.0417
838.5318	0.0083
838.6978	0.0178
838.8639	0.0309
839.0299	0.0002
839.1958	-0.0204
839.3618	-0.0231
839.5277	-0.0304
839.6937	0.0337
839.8596	0.0002
840.0254	-0.0184
840.1913	-0.008
840.3571	-0.0033
840.523	-0.0324
840.6888	-0.01
840.8545	-0.0214
841.0203	0.0046
841.186	0.0063
841.3517	-0.0292
841.5174	0.0208
841.6831	-0.0245
841.8488	0.0214
842.0144	-0.0177
842.18	-0.0222
842.3456	0.0415
842.5112	-0.0068
842.6767	-0.067
842.8422	-0.0019
843.0077	-0.0362
843.1732	-0.0246
843.3387	-0.0272
843.5042	-0.0236
843.6696	0.0039
843.835	-0.037
844.0004	0.0211
844.1657	0.0023
844.3311	-0.0578
844.4964	-0.0421
844.6617	-0.0381
844.827	0.0133
844.9923	0.0049
845.1575	0.0441
845.3227	0.0132
845.4879	-0.0042
845.6531	-0.0666
845.8183	-0.0724
845.9834	-0.0144
846.1485	-0.0625
846.3136	-0.0601
846.4787	-0.0906
846.6438	0.0136
846.8088	-0.0623
846.9738	-0.1184
847.1388	-0.0464
847.3038	-0.0056
847.4687	-0.1488
847.6337	-0.0261
847.7986	-0.0153
847.9635	0.0108
848.1284	-0.0388
848.2932	0.0275
848.458	-0.0163
848.6228	0.0776
848.7876	0.0804
848.9524	-0.0115
849.1172	-0.1223
849.2819	0.0032
849.4466	-0.1203
849.6113	-0.0695
849.7759	0.0316
849.9406	0.0004
850.1052	0.016
850.2698	-0.1125
850.4344	-0.0054
850.599	-0.1211
850.7635	0.0963
850.928	0.0444
851.0925	0.0141
851.257	0.0355
851.4215	-0.0011
851.5859	-0.0645
851.7503	-0.0321
851.9147	-0.0029
852.0791	-0.1268
852.2434	0.0005
852.4078	0.0243
852.5721	0.0666
852.7364	-0.0214
852.9007	-0.2465
853.0649	0.0044
853.2291	-0.0117
853.3934	-0.0716
853.5575	-0.0019
853.7217	-0.0979
853.8859	-0.1613
854.05	-0.0493
854.2141	-0.0019
854.3782	-0.1389
854.5423	-0.0926
854.7063	0.0869
854.8703	0.0505
855.0343	-0.058
855.1983	-0.2392
855.3623	0.108
855.5262	-0.0155
855.6901	0.018
855.854	0.0556
856.0179	0.0701
856.1818	-0.0022
856.3456	-0.0563
856.5094	-0.1058
856.6732	-0.1445
856.837	-0.0027
857.0008	0.0007
857.1645	-0.0561
857.3282	-0.1139
857.4919	0.1477
857.6556	-0.0671
857.8192	0.021
857.9828	-0.0295
858.1465	0.0293
858.31	0.1964
858.4736	-0.0532
858.6372	-0.3949
858.8007	-0.2074
858.9642	-0.0819
859.1277	-0.1748
859.2911	0.0201
859.4546	-0.0823
859.618	-0.3583
859.7814	-0.0705
859.9448	0.0373
860.1081	-0.1103
860.2715	0.0887
860.4348	-0.2235
860.5981	-0.0307
860.7614	0.0985
860.9246	-0.2414
861.0879	-0.1513
861.2511	-0.0023
861.4143	-0.3093
861.5774	0.3752
861.7406	-0.1721
861.9037	0.005
862.0668	-0.2756
862.2299	0.0397
862.393	-0.5938
862.556	-0.0415
862.7191	-0.3932
862.8821	-0.2797
863.0451	-0.0148
863.208	0.0543
863.371	0.0102
863.5339	-0.0896
863.6968	-0.1151
863.8597	0.1517
864.0225	-0.0895
864.1854	-0.0326
864.3482	-0.0843
864.511	0.6971
864.6737	-0.082
864.8365	0.3188
864.9992	-0.6281
865.1619	-0.3979
865.3246	0.0036
865.4873	0.0062
865.65	-0.3131
865.8126	-0.1212
865.9752	0.1887
866.1378	-0.3551
866.3004	0.7216
866.4629	0.1221
866.6254	-0.1821
866.7879	0.2248
866.9504	-0.2412
867.1129	-0
867.2753	0.1131
867.4377	0.1927
867.6001	-0.2279
867.7625	0.1924
867.9249	-0.907
868.0872	0.0885
868.2495	0.3409
868.4118	-0.29
868.5741	-0.7066
868.7363	-0.2668
868.8986	-0.1372
869.0608	-0.3496
869.223	0.3392
869.3851	-0
869.5473	-0
869.7094	0.4179
869.8715	-0.5953
870.0336	-0
870.1957	-0.8248
870.3577	-0.0555
870.5197	0.011
870.6817	-0.317
870.8437	-0.1856
871.0057	-0
871.1676	-0
871.3295	-0
871.4914	-0.3194
871.6533	-0.4234
871.8151	-0.5389
871.977	-0
872.1388	-0
872.3006	-0
872.4623	0.2413
872.6241	-0
872.7858	0.2306
872.9475	-0.2711
873.1092	0.0801
873.2709	0.2064
873.4325	0.1496
873.5941	-0.3979
873.7557	-0
873.9173	-0
874.0789	-0.3122
874.2404	-0.373
874.4019	1.0168
874.5634	-0.2439
874.7249	0.1696
874.8863	1
875.0478	0.2724
875.2092	-0
875.3706	0.0439
875.5319	-0.3249
875.6933	-0.2551
875.8546	0.1714
876.0159	0.091
876.1772	0.7537
876.3385	-0
876.4997	0.137
876.6609	-0.419
876.8221	-0.5893
876.9833	-0
877.1445	-0
877.3056	0.0655
877.4667	-0.505
877.6278	-0
877.7889	-0.337
877.9499	-0.7262
878.111	-0.7627
878.272	-0.6443
878.433	-0
878.5939	2.5682
878.7549	0.0681
878.9158	-0.3979
879.0767	-0
879.2376	-0.0543
879.3984	-0.0151
879.5593	-0
879.7201	0.33
879.8809	-0.3336
880.0417	-0.5893
880.2024	0.0559
880.3632	-0
880.5239	0.2969
880.6846	0.1371
880.8452	-2.4764
881.0059	-1.1614
881.1665	0.1726
881.3271	-0.2698
881.4877	-0.483
881.6483	-0.4236
881.8088	-0.307
881.9693	-0
882.1298	-0
882.2903	-0
