Data from MonoPyChalIsomerACN10uM410nmA_Absorbance_14-53-26-873.txt Node
Date: Fri Jul 05 14:53:26 BST 2024
User: LASERRRRR
Spectrometer: FLMT03099
Trigger mode: 0
Integration Time (sec): 1.000000E-1
Scans to average: 1
Electric dark correction enabled: true
Nonlinearity correction enabled: false
Boxcar width: 0
XAxis mode: Wavelengths
Number of Pixels in Spectrum: 3648
>>>>>Begin Spectral Data<<<<<
179.3399	-0.0069
179.5586	-0.0069
179.7771	-0.0069
179.9957	0.5086
180.2143	-0
180.4329	0.8268
180.6514	-0
180.8699	-0
181.0885	-0.0201
181.307	0.2166
181.5255	-0.5694
181.744	-0.6872
181.9625	-0
182.181	-0.3409
182.3994	0.7175
182.6179	-0
182.8363	0.901
183.0547	-0.1004
183.2732	0.0396
183.4916	0.1069
183.71	0.1388
183.9284	0.4474
184.1467	-0.0817
184.3651	0.0117
184.5835	-0.0026
184.8018	0.0382
185.0201	0.1067
185.2385	0.402
185.4568	0.1601
185.6751	0.2991
185.8934	0.0404
186.1117	-0.0096
186.3299	0.1088
186.5482	0.1969
186.7664	-0.0167
186.9847	-0.0813
187.2029	0.1001
187.4211	-0.005
187.6393	0.4269
187.8575	-0.0151
188.0757	0.393
188.2939	-0.0121
188.512	-0.0278
188.7302	-0.0034
188.9483	0.1032
189.1665	0.2096
189.3846	0.14
189.6027	0.0645
189.8208	0.2497
190.0389	0.0131
190.257	0.2316
190.475	0.1981
190.6931	0.1331
190.9111	0.393
191.1292	0.1394
191.3472	0.3395
191.5652	0.3041
191.7832	0.1993
192.0012	0.6267
192.2192	0.3857
192.4371	0.6961
192.6551	0.2822
192.873	0.4712
193.091	0.4965
193.3089	0.7309
193.5268	0.6279
193.7447	0.7442
193.9626	0.4442
194.1805	0.7187
194.3984	1.0627
194.6162	0.6062
194.8341	0.7118
195.0519	0.4748
195.2697	0.9907
195.4875	0.65
195.7054	0.6747
195.9231	0.6697
196.1409	0.6353
196.3587	0.5593
196.5765	0.6612
196.7942	0.6155
197.012	0.7751
197.2297	0.5521
197.4474	0.8076
197.6651	0.5459
197.8828	0.5628
198.1005	0.6322
198.3182	0.74
198.5358	0.772
198.7535	0.6677
198.9711	0.5803
199.1888	0.664
199.4064	0.6473
199.624	0.5831
199.8416	0.5491
200.0592	0.7
200.2767	0.6354
200.4943	0.5598
200.7119	0.5914
200.9294	0.6645
201.1469	0.4771
201.3645	0.6016
201.582	0.6169
201.7995	0.7832
202.017	0.6351
202.2344	0.6264
202.4519	0.778
202.6694	0.6027
202.8868	0.5771
203.1042	0.7904
203.3217	0.6734
203.5391	0.6921
203.7565	0.6672
203.9739	0.6526
204.1913	0.6432
204.4086	0.5826
204.626	0.6868
204.8433	0.6351
205.0607	0.6205
205.278	0.6684
205.4953	0.6534
205.7126	0.684
205.9299	0.8292
206.1472	0.6533
206.3644	0.6282
206.5817	0.8101
206.7989	0.6636
207.0162	0.7516
207.2334	0.6871
207.4506	0.609
207.6678	0.6918
207.885	0.7271
208.1022	0.7094
208.3194	0.6717
208.5365	0.6694
208.7537	0.645
208.9708	0.5793
209.1879	0.6076
209.405	0.6513
209.6222	0.7595
209.8392	0.5894
210.0563	0.5434
210.2734	0.6727
210.4905	0.6833
210.7075	0.6557
210.9245	0.5929
211.1416	0.669
211.3586	0.6637
211.5756	0.5948
211.7926	0.5967
212.0096	0.5985
212.2265	0.5583
212.4435	0.5951
212.6604	0.6337
212.8774	0.5767
213.0943	0.5585
213.3112	0.5416
213.5281	0.49
213.745	0.5055
213.9619	0.5238
214.1788	0.446
214.3956	0.4853
214.6125	0.4686
214.8293	0.4387
215.0461	0.4599
215.2629	0.4539
215.4798	0.4403
215.6965	0.4258
215.9133	0.4437
216.1301	0.4211
216.3469	0.4401
216.5636	0.4294
216.7803	0.3919
216.9971	0.3827
217.2138	0.3824
217.4305	0.3875
217.6472	0.3464
217.8639	0.3974
218.0805	0.3322
218.2972	0.3418
218.5138	0.3504
218.7305	0.3258
218.9471	0.2887
219.1637	0.2782
219.3803	0.2909
219.5969	0.279
219.8135	0.2588
220.0301	0.2934
220.2466	0.2933
220.4632	0.2386
220.6797	0.2389
220.8962	0.2394
221.1127	0.242
221.3292	0.2507
221.5457	0.243
221.7622	0.2354
221.9787	0.2458
222.1951	0.2182
222.4116	0.2573
222.628	0.273
222.8444	0.2497
223.0608	0.2381
223.2772	0.2495
223.4936	0.2661
223.71	0.2365
223.9264	0.2531
224.1427	0.247
224.3591	0.2506
224.5754	0.2586
224.7917	0.2666
225.008	0.2475
225.2243	0.2506
225.4406	0.2839
225.6569	0.2976
225.8732	0.2453
226.0894	0.2615
226.3057	0.2575
226.5219	0.2777
226.7381	0.2527
226.9543	0.2808
227.1705	0.2966
227.3867	0.275
227.6029	0.2791
227.8191	0.2829
228.0352	0.2776
228.2513	0.3064
228.4675	0.2932
228.6836	0.2939
228.8997	0.286
229.1158	0.3015
229.3319	0.3096
229.548	0.3084
229.764	0.2945
229.9801	0.3254
230.1961	0.3248
230.4121	0.3292
230.6282	0.3286
230.8442	0.3078
231.0602	0.3401
231.2761	0.3527
231.4921	0.3512
231.7081	0.3555
231.924	0.3472
232.14	0.3593
232.3559	0.343
232.5718	0.3714
232.7877	0.3564
233.0036	0.3576
233.2195	0.3524
233.4353	0.3561
233.6512	0.3439
233.867	0.3643
234.0829	0.348
234.2987	0.3613
234.5145	0.3638
234.7303	0.3646
234.9461	0.3833
235.1619	0.3655
235.3776	0.3838
235.5934	0.3822
235.8091	0.3632
236.0249	0.3716
236.2406	0.3697
236.4563	0.3734
236.672	0.388
236.8877	0.3886
237.1034	0.373
237.319	0.3903
237.5347	0.4074
237.7503	0.3832
237.966	0.4189
238.1816	0.4083
238.3972	0.4134
238.6128	0.4027
238.8284	0.4237
239.0439	0.417
239.2595	0.4018
239.475	0.4112
239.6906	0.4166
239.9061	0.4
240.1216	0.3881
240.3371	0.4073
240.5526	0.3915
240.7681	0.4087
240.9836	0.3877
241.199	0.3868
241.4145	0.3837
241.6299	0.3682
241.8453	0.3783
242.0607	0.3812
242.2761	0.3645
242.4915	0.3773
242.7069	0.3579
242.9223	0.3528
243.1376	0.346
243.353	0.3554
243.5683	0.3541
243.7836	0.3305
243.9989	0.3329
244.2142	0.3077
244.4295	0.3245
244.6448	0.3306
244.86	0.2946
245.0753	0.2918
245.2905	0.3048
245.5057	0.2789
245.721	0.2796
245.9362	0.2678
246.1514	0.2883
246.3665	0.2635
246.5817	0.2432
246.7969	0.2602
247.012	0.2405
247.2271	0.2515
247.4423	0.2504
247.6574	0.2381
247.8725	0.2374
248.0876	0.2299
248.3026	0.2338
248.5177	0.23
248.7328	0.2214
248.9478	0.2143
249.1628	0.2203
249.3779	0.2049
249.5929	0.2016
249.8079	0.2183
250.0228	0.1969
250.2378	0.2068
250.4528	0.2079
250.6677	0.1814
250.8827	0.1924
251.0976	0.2034
251.3125	0.1939
251.5274	0.1731
251.7423	0.1823
251.9572	0.1904
252.172	0.1782
252.3869	0.1854
252.6017	0.1792
252.8166	0.173
253.0314	0.1731
253.2462	0.1718
253.461	0.1817
253.6758	0.1731
253.8906	0.1802
254.1053	0.154
254.3201	0.1707
254.5348	0.1847
254.7496	0.1849
254.9643	0.1772
255.179	0.173
255.3937	0.1729
255.6083	0.178
255.823	0.167
256.0377	0.1686
256.2523	0.1812
256.467	0.1587
256.6816	0.1729
256.8962	0.1606
257.1108	0.1546
257.3254	0.171
257.54	0.1546
257.7545	0.1628
257.9691	0.1676
258.1836	0.165
258.3981	0.1682
258.6127	0.173
258.8272	0.1589
259.0417	0.1617
259.2561	0.1606
259.4706	0.1656
259.6851	0.1768
259.8995	0.1514
260.114	0.1659
260.3284	0.1664
260.5428	0.1636
260.7572	0.1681
260.9716	0.1692
261.186	0.1618
261.4003	0.158
261.6147	0.1629
261.829	0.1677
262.0433	0.1523
262.2577	0.1507
262.472	0.177
262.6863	0.16
262.9005	0.1588
263.1148	0.1556
263.3291	0.1463
263.5433	0.1722
263.7576	0.1576
263.9718	0.1625
264.186	0.1531
264.4002	0.1541
264.6144	0.164
264.8286	0.1621
265.0427	0.1629
265.2569	0.1597
265.471	0.1618
265.6851	0.1471
265.8993	0.1512
266.1134	0.1556
266.3275	0.172
266.5415	0.1581
266.7556	0.1717
266.9697	0.1786
267.1837	0.1738
267.3978	0.1635
267.6118	0.1679
267.8258	0.1671
268.0398	0.1533
268.2538	0.1689
268.4677	0.1685
268.6817	0.151
268.8957	0.1674
269.1096	0.1572
269.3235	0.1743
269.5374	0.1504
269.7514	0.1529
269.9652	0.1667
270.1791	0.1398
270.393	0.1531
270.6068	0.1646
270.8207	0.1491
271.0345	0.1537
271.2483	0.1594
271.4622	0.1555
271.676	0.1638
271.8897	0.1484
272.1035	0.143
272.3173	0.1366
272.531	0.1441
272.7448	0.1347
272.9585	0.1507
273.1722	0.1484
273.3859	0.1476
273.5996	0.1303
273.8133	0.1501
274.0269	0.1384
274.2406	0.1433
274.4542	0.1329
274.6679	0.1388
274.8815	0.1489
275.0951	0.1509
275.3087	0.1534
275.5223	0.1488
275.7358	0.1539
275.9494	0.1488
276.1629	0.1438
276.3765	0.1477
276.59	0.1486
276.8035	0.1496
277.017	0.1471
277.2305	0.1418
277.444	0.1459
277.6574	0.1424
277.8709	0.1358
278.0843	0.1317
278.2978	0.1483
278.5112	0.1459
278.7246	0.1531
278.938	0.1491
279.1513	0.1506
279.3647	0.1597
279.5781	0.1452
279.7914	0.1489
280.0047	0.1613
280.2181	0.1519
280.4314	0.1527
280.6447	0.1505
280.8579	0.1547
281.0712	0.1647
281.2845	0.1593
281.4977	0.1595
281.711	0.144
281.9242	0.1473
282.1374	0.163
282.3506	0.1629
282.5638	0.1592
282.7769	0.155
282.9901	0.1562
283.2033	0.1562
283.4164	0.1634
283.6295	0.1525
283.8426	0.1668
284.0557	0.1503
284.2688	0.1662
284.4819	0.1673
284.695	0.1509
284.908	0.165
285.1211	0.1547
285.3341	0.1459
285.5471	0.1626
285.7601	0.1643
285.9731	0.155
286.1861	0.1426
286.3991	0.1636
286.612	0.1555
286.825	0.1575
287.0379	0.1672
287.2508	0.1638
287.4637	0.1658
287.6766	0.1521
287.8895	0.1817
288.1024	0.1739
288.3152	0.1501
288.5281	0.147
288.7409	0.1691
288.9538	0.1578
289.1666	0.1583
289.3794	0.1588
289.5922	0.1532
289.8049	0.1479
290.0177	0.158
290.2304	0.1705
290.4432	0.1637
290.6559	0.1511
290.8686	0.163
291.0813	0.1573
291.294	0.1672
291.5067	0.1785
291.7194	0.1566
291.932	0.1615
292.1447	0.1569
292.3573	0.1533
292.5699	0.152
292.7825	0.1634
292.9951	0.1555
293.2077	0.1584
293.4203	0.1601
293.6328	0.1457
293.8454	0.1683
294.0579	0.1531
294.2704	0.1558
294.4829	0.146
294.6954	0.1693
294.9079	0.1584
295.1204	0.1547
295.3328	0.1491
295.5453	0.1648
295.7577	0.1628
295.9701	0.1577
296.1825	0.1598
296.3949	0.1452
296.6073	0.1563
296.8197	0.1531
297.0321	0.1692
297.2444	0.1501
297.4567	0.1643
297.6691	0.1613
297.8814	0.1519
298.0937	0.1454
298.306	0.1681
298.5182	0.1667
298.7305	0.1616
298.9428	0.1529
299.155	0.1651
299.3672	0.1528
299.5794	0.1522
299.7916	0.1609
300.0038	0.1574
300.216	0.1518
300.4282	0.1597
300.6403	0.1421
300.8525	0.1642
301.0646	0.1427
301.2767	0.1656
301.4888	0.1632
301.7009	0.1572
301.913	0.1567
302.125	0.1612
302.3371	0.1552
302.5491	0.1588
302.7612	0.1624
302.9732	0.157
303.1852	0.1688
303.3972	0.1545
303.6092	0.1513
303.8211	0.1524
304.0331	0.1602
304.245	0.1446
304.457	0.1491
304.6689	0.1468
304.8808	0.1656
305.0927	0.1505
305.3046	0.1441
305.5164	0.1618
305.7283	0.1345
305.9401	0.1405
306.152	0.1405
306.3638	0.1571
306.5756	0.1326
306.7874	0.1477
306.9992	0.1482
307.2109	0.1413
307.4227	0.1208
307.6344	0.1379
307.8462	0.1362
308.0579	0.1288
308.2696	0.1235
308.4813	0.125
308.693	0.1325
308.9046	0.1399
309.1163	0.1255
309.328	0.1176
309.5396	0.1066
309.7512	0.1179
309.9628	0.1131
310.1744	0.122
310.386	0.1104
310.5976	0.1201
310.8091	0.1139
311.0207	0.1134
311.2322	0.119
311.4437	0.1072
311.6552	0.1055
311.8667	0.1033
312.0782	0.1114
312.2897	0.1004
312.5012	0.118
312.7126	0.11
312.924	0.0988
313.1355	0.1089
313.3469	0.1017
313.5583	0.1093
313.7696	0.104
313.981	0.0996
314.1924	0.1008
314.4037	0.1061
314.6151	0.1129
314.8264	0.1034
315.0377	0.1006
315.249	0.106
315.4603	0.1031
315.6716	0.103
315.8828	0.0931
316.0941	0.0987
316.3053	0.0982
316.5165	0.0977
316.7277	0.0975
316.9389	0.1069
317.1501	0.0983
317.3613	0.1062
317.5724	0.0945
317.7836	0.1097
317.9947	0.0995
318.2058	0.0995
318.417	0.0897
318.6281	0.0965
318.8391	0.0934
319.0502	0.0982
319.2613	0.102
319.4723	0.102
319.6834	0.1003
319.8944	0.0893
320.1054	0.1133
320.3164	0.0989
320.5274	0.0967
320.7383	0.0923
320.9493	0.0968
321.1602	0.1043
321.3712	0.0856
321.5821	0.1019
321.793	0.1159
322.0039	0.0993
322.2148	0.0912
322.4257	0.1016
322.6365	0.1097
322.8474	0.1004
323.0582	0.1044
323.269	0.1011
323.4798	0.1134
323.6906	0.105
323.9014	0.1046
324.1122	0.108
324.3229	0.093
324.5337	0.0972
324.7444	0.0911
324.9551	0.1132
325.1658	0.0973
325.3765	0.108
325.5872	0.1107
325.7979	0.1019
326.0085	0.1079
326.2192	0.1251
326.4298	0.1116
326.6404	0.0925
326.851	0.0982
327.0616	0.0877
327.2722	0.0955
327.4828	0.1138
327.6933	0.0964
327.9039	0.1081
328.1144	0.1126
328.3249	0.1111
328.5354	0.0916
328.7459	0.1076
328.9564	0.0957
329.1669	0.1109
329.3773	0.103
329.5878	0.1092
329.7982	0.1061
330.0086	0.114
330.219	0.1076
330.4294	0.1103
330.6398	0.1019
330.8502	0.1017
331.0605	0.1036
331.2708	0.1124
331.4812	0.1092
331.6915	0.1093
331.9018	0.0942
332.1121	0.1054
332.3224	0.1184
332.5326	0.119
332.7429	0.1055
332.9531	0.1239
333.1633	0.1168
333.3735	0.1078
333.5837	0.1115
333.7939	0.1064
334.0041	0.1233
334.2143	0.1254
334.4244	0.1213
334.6346	0.0863
334.8447	0.1209
335.0548	0.1196
335.2649	0.1057
335.475	0.116
335.685	0.1099
335.8951	0.1222
336.1051	0.1188
336.3152	0.1058
336.5252	0.1116
336.7352	0.1092
336.9452	0.1272
337.1552	0.1148
337.3652	0.1002
337.5751	0.1043
337.7851	0.122
337.995	0.116
338.2049	0.1097
338.4148	0.1119
338.6247	0.1094
338.8346	0.1268
339.0445	0.1075
339.2543	0.114
339.4642	0.1212
339.674	0.1077
339.8838	0.1279
340.0936	0.1145
340.3034	0.1258
340.5132	0.1254
340.7229	0.118
340.9327	0.1181
341.1424	0.1214
341.3522	0.1343
341.5619	0.1189
341.7716	0.12
341.9813	0.1152
342.1909	0.1129
342.4006	0.1298
342.6102	0.1342
342.8199	0.126
343.0295	0.1266
343.2391	0.1235
343.4487	0.1306
343.6583	0.1235
343.8679	0.118
344.0774	0.1306
344.287	0.1453
344.4965	0.1163
344.706	0.1331
344.9155	0.1227
345.125	0.1295
345.3345	0.1189
345.544	0.1353
345.7534	0.133
345.9629	0.1251
346.1723	0.1292
346.3817	0.116
346.5911	0.1234
346.8005	0.147
347.0099	0.1286
347.2193	0.1279
347.4286	0.136
347.638	0.1366
347.8473	0.1441
348.0566	0.1418
348.2659	0.1312
348.4752	0.1331
348.6845	0.1417
348.8937	0.1268
349.103	0.1479
349.3122	0.1259
349.5214	0.1365
349.7306	0.1513
349.9398	0.1353
350.149	0.1366
350.3582	0.1402
350.5674	0.1512
350.7765	0.1215
350.9856	0.1417
351.1948	0.1427
351.4039	0.1449
351.613	0.1435
351.822	0.1348
352.0311	0.1424
352.2402	0.1395
352.4492	0.1487
352.6582	0.1423
352.8672	0.1481
353.0762	0.1506
353.2852	0.1438
353.4942	0.1454
353.7032	0.1459
353.9121	0.1468
354.1211	0.1484
354.33	0.1488
354.5389	0.1565
354.7478	0.1528
354.9567	0.1413
355.1655	0.1362
355.3744	0.1591
355.5833	0.1595
355.7921	0.174
356.0009	0.1423
356.2097	0.1607
356.4185	0.1685
356.6273	0.1689
356.8361	0.159
357.0448	0.1493
357.2536	0.1678
357.4623	0.1649
357.671	0.1632
357.8797	0.163
358.0884	0.1619
358.2971	0.158
358.5057	0.1662
358.7144	0.1891
358.923	0.1662
359.1316	0.1666
359.3402	0.1715
359.5488	0.1655
359.7574	0.1646
359.966	0.1654
360.1746	0.1704
360.3831	0.1661
360.5916	0.1615
360.8002	0.1552
361.0087	0.1862
361.2172	0.1685
361.4256	0.1739
361.6341	0.1916
361.8426	0.1746
362.051	0.176
362.2594	0.1783
362.4678	0.1753
362.6762	0.1967
362.8846	0.1829
363.093	0.1663
363.3014	0.1872
363.5097	0.1683
363.718	0.1766
363.9264	0.186
364.1347	0.1754
364.343	0.1935
364.5513	0.1985
364.7595	0.2121
364.9678	0.1982
365.176	0.1957
365.3842	0.1837
365.5925	0.1827
365.8007	0.1861
366.0089	0.1965
366.217	0.1768
366.4252	0.1893
366.6333	0.2039
366.8415	0.1939
367.0496	0.1863
367.2577	0.2087
367.4658	0.201
367.6739	0.2023
367.882	0.2006
368.09	0.1851
368.2981	0.1952
368.5061	0.1985
368.7141	0.2158
368.9221	0.2178
369.1301	0.2131
369.3381	0.2015
369.5461	0.2057
369.754	0.2084
369.962	0.2274
370.1699	0.208
370.3778	0.2174
370.5857	0.1975
370.7936	0.2013
371.0015	0.2192
371.2093	0.2197
371.4172	0.2162
371.625	0.1999
371.8328	0.206
372.0406	0.2102
372.2484	0.2075
372.4562	0.21
372.664	0.2076
372.8717	0.21
373.0795	0.1849
373.2872	0.2216
373.4949	0.2047
373.7026	0.2221
373.9103	0.2273
374.118	0.2301
374.3256	0.2171
374.5333	0.2127
374.7409	0.2078
374.9485	0.2189
375.1561	0.2276
375.3637	0.2051
375.5713	0.2317
375.7789	0.2252
375.9864	0.2169
376.194	0.2264
376.4015	0.2354
376.609	0.2418
376.8165	0.2245
377.024	0.2157
377.2315	0.2138
377.4389	0.2337
377.6464	0.2369
377.8538	0.2321
378.0612	0.2256
378.2686	0.2438
378.476	0.2534
378.6834	0.2306
378.8908	0.2396
379.0981	0.2401
379.3055	0.2419
379.5128	0.2277
379.7201	0.2375
379.9274	0.2388
380.1347	0.2355
380.342	0.2508
380.5492	0.2364
380.7565	0.2225
380.9637	0.2409
381.1709	0.2297
381.3781	0.2199
381.5853	0.2502
381.7925	0.2556
381.9997	0.2443
382.2068	0.2551
382.4139	0.2397
382.6211	0.232
382.8282	0.2359
383.0353	0.2443
383.2424	0.2488
383.4494	0.2457
383.6565	0.2491
383.8635	0.2348
384.0706	0.2554
384.2776	0.2366
384.4846	0.2293
384.6916	0.2364
384.8986	0.2416
385.1055	0.2519
385.3125	0.2531
385.5194	0.2441
385.7263	0.2568
385.9333	0.2428
386.1402	0.2451
386.347	0.2504
386.5539	0.2351
386.7608	0.2615
386.9676	0.2285
387.1744	0.2321
387.3813	0.2287
387.5881	0.2414
387.7948	0.2361
388.0016	0.2232
388.2084	0.2318
388.4151	0.226
388.6219	0.2433
388.8286	0.2341
389.0353	0.2575
389.242	0.2353
389.4487	0.2216
389.6553	0.2236
389.862	0.2168
390.0686	0.2302
390.2753	0.2418
390.4819	0.2275
390.6885	0.2352
390.8951	0.24
391.1016	0.2321
391.3082	0.2204
391.5147	0.2119
391.7213	0.2218
391.9278	0.2152
392.1343	0.2179
392.3408	0.2256
392.5473	0.2126
392.7537	0.2311
392.9602	0.2233
393.1666	0.2049
393.373	0.2179
393.5794	0.2295
393.7858	0.2099
393.9922	0.2104
394.1986	0.2181
394.4049	0.2277
394.6113	0.2024
394.8176	0.1964
395.0239	0.2038
395.2302	0.207
395.4365	0.2125
395.6428	0.2271
395.8491	0.191
396.0553	0.2151
396.2615	0.2061
396.4678	0.1974
396.674	0.1774
396.8802	0.2151
397.0863	0.2207
397.2925	0.1882
397.4987	0.2023
397.7048	0.1866
397.9109	0.215
398.117	0.1925
398.3231	0.1948
398.5292	0.2114
398.7353	0.2248
398.9413	0.2019
399.1474	0.1916
399.3534	0.1981
399.5594	0.2038
399.7654	0.2189
399.9714	0.2085
400.1774	0.2114
400.3833	0.191
400.5893	0.2077
400.7952	0.1915
401.0011	0.2002
401.207	0.2013
401.4129	0.1895
401.6188	0.2081
401.8247	0.1962
402.0305	0.1953
402.2364	0.1859
402.4422	0.2128
402.648	0.2116
402.8538	0.2055
403.0596	0.185
403.2654	0.2052
403.4711	0.1984
403.6768	0.2041
403.8826	0.2159
404.0883	0.2169
404.294	0.2124
404.4997	0.2003
404.7054	0.2044
404.911	0.1985
405.1167	0.199
405.3223	0.2086
405.5279	0.2091
405.7335	0.2102
405.9391	0.2012
406.1447	0.1915
406.3502	0.2183
406.5558	0.1965
406.7613	0.206
406.9668	0.1994
407.1724	0.1898
407.3778	0.1945
407.5833	0.1903
407.7888	0.1971
407.9942	0.2104
408.1997	0.1826
408.4051	0.1995
408.6105	0.1913
408.8159	0.1961
409.0213	0.1946
409.2267	0.212
409.432	0.1877
409.6374	0.1941
409.8427	0.1811
410.048	0.1988
410.2533	0.1807
410.4586	0.1974
410.6639	0.1818
410.8691	0.1805
411.0744	0.1893
411.2796	0.1818
411.4848	0.1946
411.69	0.1895
411.8952	0.2114
412.1004	0.1838
412.3056	0.2012
412.5107	0.1926
412.7158	0.1975
412.921	0.1906
413.1261	0.1846
413.3312	0.1923
413.5362	0.1862
413.7413	0.198
413.9464	0.2019
414.1514	0.1813
414.3564	0.1862
414.5614	0.1617
414.7664	0.1942
414.9714	0.2027
415.1764	0.1898
415.3813	0.1942
415.5863	0.1824
415.7912	0.1905
415.9961	0.186
416.201	0.1902
416.4059	0.2059
416.6108	0.187
416.8156	0.186
417.0205	0.1974
417.2253	0.1844
417.4301	0.1893
417.6349	0.1942
417.8397	0.1843
418.0445	0.1995
418.2492	0.1959
418.454	0.1788
418.6587	0.1935
418.8634	0.1734
419.0681	0.1667
419.2728	0.1853
419.4775	0.1791
419.6822	0.17
419.8868	0.1426
420.0915	0.1853
420.2961	0.1871
420.5007	0.1566
420.7053	0.1818
420.9099	0.1833
421.1144	0.1903
421.319	0.1794
421.5235	0.1804
421.728	0.1856
421.9325	0.1801
422.137	0.1736
422.3415	0.1645
422.546	0.1791
422.7504	0.1623
422.9549	0.1848
423.1593	0.1747
423.3637	0.1858
423.5681	0.161
423.7725	0.1673
423.9769	0.1623
424.1812	0.1605
424.3856	0.1622
424.5899	0.1658
424.7942	0.1663
424.9985	0.1508
425.2028	0.1509
425.4071	0.1918
425.6113	0.1495
425.8156	0.1651
426.0198	0.1722
426.224	0.1418
426.4282	0.1609
426.6324	0.1577
426.8366	0.1555
427.0407	0.1563
427.2449	0.1544
427.449	0.1652
427.6531	0.1373
427.8572	0.1479
428.0613	0.1574
428.2654	0.1469
428.4694	0.1463
428.6735	0.1479
428.8775	0.1582
429.0815	0.1564
429.2855	0.1247
429.4895	0.1507
429.6935	0.1561
429.8975	0.1469
430.1014	0.1384
430.3053	0.1238
430.5093	0.1515
430.7132	0.1265
430.9171	0.1208
431.1209	0.1296
431.3248	0.1269
431.5286	0.1304
431.7325	0.1341
431.9363	0.1218
432.1401	0.1225
432.3439	0.1163
432.5477	0.1157
432.7514	0.1124
432.9552	0.1205
433.1589	0.1004
433.3627	0.1089
433.5664	0.1239
433.7701	0.116
433.9737	0.1146
434.1774	0.1062
434.3811	0.1086
434.5847	0.1146
434.7883	0.102
434.9919	0.0956
435.1955	0.1004
435.3991	0.1123
435.6027	0.1156
435.8062	0.0956
436.0098	0.0903
436.2133	0.1081
436.4168	0.1039
436.6203	0.0851
436.8238	0.102
437.0272	0.0972
437.2307	0.0802
437.4341	0.0957
437.6375	0.0969
437.841	0.0911
438.0443	0.1019
438.2477	0.0988
438.4511	0.0709
438.6545	0.1056
438.8578	0.0892
439.0611	0.0731
439.2644	0.0849
439.4677	0.0734
439.671	0.0749
439.8743	0.0759
440.0775	0.0739
440.2808	0.0704
440.484	0.0629
440.6872	0.0511
440.8904	0.0662
441.0936	0.0847
441.2967	0.0578
441.4999	0.0751
441.703	0.0641
441.9062	0.0545
442.1093	0.065
442.3124	0.0661
442.5155	0.0562
442.7185	0.054
442.9216	0.0382
443.1246	0.0743
443.3276	0.0489
443.5307	0.0572
443.7337	0.0564
443.9366	0.0499
444.1396	0.0466
444.3426	0.0508
444.5455	0.0582
444.7484	0.0477
444.9513	0.0412
445.1542	0.051
445.3571	0.0472
445.56	0.0454
445.7628	0.0281
445.9657	0.0426
446.1685	0.0474
446.3713	0.0433
446.5741	0.0373
446.7769	0.0339
446.9797	0.0365
447.1824	0.0483
447.3852	0.0288
447.5879	0.0523
447.7906	0.0445
447.9933	0.0404
448.196	0.041
448.3986	0.0294
448.6013	0.0229
448.8039	0.0188
449.0066	0.0432
449.2092	0.0475
449.4118	0.03
449.6143	0.0299
449.8169	0.0402
450.0195	0.0154
450.222	0.0172
450.4245	0.03
450.627	0.0293
450.8295	0.0278
451.032	0.031
451.2345	0.0226
451.4369	0.0305
451.6394	0.0274
451.8418	0.0022
452.0442	0.0238
452.2466	0.0306
452.449	0.01
452.6513	0.0267
452.8537	0.0191
453.056	0.0004
453.2583	0.0202
453.4607	0.0153
453.663	0.0006
453.8652	0.0285
454.0675	0.0004
454.2697	0.015
454.472	0.011
454.6742	0.0218
454.8764	0.0144
455.0786	0.016
455.2808	0.0166
455.4829	0.0113
455.6851	0.0102
455.8872	0.0137
456.0893	0.016
456.2915	-0.0006
456.4935	0.0158
456.6956	0.0081
456.8977	0.0299
457.0997	0.0146
457.3018	0.0013
457.5038	0.023
457.7058	0.0022
457.9078	0.0131
458.1098	0.0176
458.3117	0.0117
458.5137	0.0207
458.7156	0.0148
458.9175	-0.0109
459.1194	0.0159
459.3213	0.0024
459.5232	0.0167
459.725	-0.0085
459.9269	0.0136
460.1287	0.0118
460.3305	-0.0018
460.5323	0.011
460.7341	-0.0029
460.9359	0.002
461.1376	-0.0042
461.3394	-0.004
461.5411	0.0068
461.7428	0.0025
461.9445	0.0191
462.1462	0.0106
462.3479	0.0145
462.5495	-0.0018
462.7512	0.0043
462.9528	0.0034
463.1544	-0.0171
463.356	-0.0089
463.5576	0.0054
463.7592	-0.013
463.9607	0.0074
464.1623	0.0317
464.3638	0.0298
464.5653	-0.0095
464.7668	0.0028
464.9683	0.0009
465.1697	0.0293
465.3712	-0.0115
465.5726	-0.008
465.7741	-0.0083
465.9755	-0.0002
466.1769	-0.0117
466.3782	0.0109
466.5796	-0.0062
466.7809	0.021
466.9823	-0.0199
467.1836	-0.0064
467.3849	-0.0004
467.5862	0.0092
467.7875	-0.0198
467.9887	0.0177
468.19	0.0009
468.3912	-0.0033
468.5924	-0.0038
468.7936	-0.0151
468.9948	0.0091
469.196	0.0017
469.3972	-0.0122
469.5983	-0.0008
469.7994	-0.0157
470.0006	-0.0046
470.2017	-0.0224
470.4027	-0.0127
470.6038	0.0166
470.8049	-0.0187
471.0059	-0.0057
471.2069	-0.0257
471.408	0.0163
471.6089	0.0198
471.8099	-0.0079
472.0109	-0.0067
472.2119	-0.0182
472.4128	-0.0279
472.6137	0.001
472.8146	-0.0207
473.0155	-0.0143
473.2164	-0.0104
473.4173	0.005
473.6181	0.0024
473.819	0.0039
474.0198	-0.01
474.2206	0.012
474.4214	0.0008
474.6222	-0.0071
474.8229	-0.0018
475.0237	-0.0219
475.2244	-0.0248
475.4251	-0.0153
475.6258	-0.0077
475.8265	-0.0005
476.0272	-0.0006
476.2278	0.0031
476.4285	-0.0041
476.6291	-0.0099
476.8297	-0.0089
477.0303	-0.0065
477.2309	0.0051
477.4315	-0.0255
477.632	-0.0042
477.8326	-0.0091
478.0331	-0.0041
478.2336	0.0008
478.4341	-0.0185
478.6346	-0.0032
478.8351	-0.0216
479.0355	-0.0071
479.236	-0.0136
479.4364	-0.0124
479.6368	-0.0072
479.8372	-0.0183
480.0376	0.0029
480.2379	-0.0187
480.4383	-0.0027
480.6386	0.0055
480.8389	-0.0116
481.0392	-0.0117
481.2395	-0.0116
481.4398	0.003
481.6401	-0.0054
481.8403	-0.0062
482.0405	-0.0014
482.2408	-0.0174
482.441	-0.005
482.6411	-0.004
482.8413	-0.0034
483.0415	-0.0139
483.2416	-0.0152
483.4417	0.0011
483.6419	-0.0123
483.8419	-0.0087
484.042	-0.0033
484.2421	0.0033
484.4422	-0.0066
484.6422	-0.0069
484.8422	-0.0097
485.0422	-0.0223
485.2422	-0.0006
485.4422	-0.015
485.6422	-0.0153
485.8421	-0.0007
486.042	-0.0057
486.242	-0.0071
486.4419	-0.0149
486.6417	-0.0147
486.8416	-0.0155
487.0415	-0.0041
487.2413	-0.0009
487.4411	-0.0138
487.641	-0.0236
487.8408	-0.0007
488.0405	-0.0078
488.2403	-0.0099
488.4401	-0.0035
488.6398	-0.0031
488.8395	-0.0095
489.0392	-0.0092
489.2389	-0.0085
489.4386	-0.0104
489.6383	-0.0116
489.8379	-0.0028
490.0376	-0.0054
490.2372	-0.0152
490.4368	-0.0261
490.6364	-0.0113
490.836	-0.0169
491.0355	-0.0077
491.2351	-0.0165
491.4346	-0.0101
491.6341	-0.0176
491.8336	-0.0091
492.0331	-0.015
492.2326	-0.0028
492.432	-0.0109
492.6315	-0.0133
492.8309	-0.0144
493.0303	-0.0107
493.2297	-0.0025
493.4291	-0.011
493.6284	-0.01
493.8278	-0.0039
494.0271	0.0045
494.2264	0.0052
494.4257	-0.0122
494.625	0.0021
494.8243	-0.024
495.0236	-0.0116
495.2228	-0.0157
495.422	-0.0016
495.6213	-0.0079
495.8205	0.0004
496.0196	-0.0033
496.2188	-0.0021
496.418	-0.0101
496.6171	-0.0118
496.8162	-0.0219
497.0153	-0.0095
497.2144	-0.0022
497.4135	-0.017
497.6126	-0.0144
497.8116	-0.0105
498.0107	-0.0026
498.2097	-0.0124
498.4087	-0.0224
498.6077	-0.0033
498.8067	-0.0151
499.0056	-0.0001
499.2046	-0.0126
499.4035	-0.0175
499.6024	-0.0125
499.8013	-0.0041
500.0002	-0.0121
500.199	-0.012
500.3979	-0.0215
500.5967	-0.018
500.7956	0.0009
500.9944	-0.0085
501.1932	-0.0127
501.3919	-0.0059
501.5907	-0.0117
501.7895	-0.0025
501.9882	-0.0142
502.1869	-0.0025
502.3856	-0.0089
502.5843	-0.0095
502.783	-0.0166
502.9816	-0.0146
503.1803	-0.0147
503.3789	-0.0169
503.5775	-0.0006
503.7761	-0.0201
503.9747	-0.0115
504.1732	-0.0098
504.3718	-0.0132
504.5703	-0.0076
504.7689	-0.0129
504.9674	-0.013
505.1658	-0.0173
505.3643	-0.0106
505.5628	-0.0081
505.7612	-0.0067
505.9597	-0.0014
506.1581	-0.01
506.3565	0.0065
506.5549	-0.0119
506.7532	-0.0229
506.9516	-0.0121
507.1499	-0.0094
507.3482	-0.0202
507.5465	-0.0113
507.7448	-0.012
507.9431	-0.0061
508.1414	-0.006
508.3396	-0.0103
508.5379	-0.0143
508.7361	-0.0235
508.9343	-0.0119
509.1325	-0.0044
509.3306	-0.0114
509.5288	-0.0118
509.7269	-0.0091
509.9251	-0.0091
510.1232	-0.0185
510.3213	-0.0158
510.5193	-0.0036
510.7174	-0.0201
510.9154	-0.0102
511.1135	-0.0198
511.3115	-0.0132
511.5095	-0.0012
511.7075	-0.011
511.9055	-0.0092
512.1034	-0.0093
512.3014	0.0006
512.4993	-0.0053
512.6972	-0.0116
512.8951	-0.0198
513.093	-0.0003
513.2908	-0.0084
513.4887	-0.0095
513.6865	-0.0166
513.8844	-0.0058
514.0822	-0.0158
514.2799	-0.0161
514.4777	-0.0118
514.6755	-0.0062
514.8732	-0.02
515.0709	-0.0146
515.2687	-0.0123
515.4664	-0.0088
515.664	-0.0132
515.8617	-0.0175
516.0594	-0.0132
516.257	-0.0166
516.4546	-0.0189
516.6522	0.0031
516.8498	-0.0116
517.0474	-0.0015
517.2449	-0.0055
517.4425	-0.0223
517.64	-0.0093
517.8375	-0.0061
518.035	-0.009
518.2325	-0.0078
518.43	-0.0105
518.6274	-0.014
518.8249	-0.0158
519.0223	-0.0036
519.2197	-0.0124
519.4171	-0.0253
519.6145	-0.0087
519.8118	-0.002
520.0092	-0.0184
520.2065	-0.0151
520.4038	-0.016
520.6011	-0.0093
520.7984	-0.01
520.9956	-0.0077
521.1929	-0.0202
521.3901	0.0006
521.5874	-0.0108
521.7846	-0.0057
521.9818	-0.0151
522.1789	-0.0114
522.3761	-0.0063
522.5732	-0.0138
522.7704	-0.01
522.9675	-0.0067
523.1646	-0.0141
523.3617	-0.0136
523.5587	-0.005
523.7558	0.0007
523.9528	-0.0117
524.1498	-0.0014
524.3468	-0.0075
524.5438	-0.0089
524.7408	-0.0092
524.9378	0.0049
525.1347	-0.0138
525.3316	-0.0094
525.5285	-0.017
525.7254	-0.0049
525.9223	-0.0049
526.1192	-0.0037
526.316	-0.013
526.5129	-0.0049
526.7097	-0.0036
526.9065	-0.0137
527.1033	-0.013
527.3	-0.0044
527.4968	-0.0096
527.6935	-0.0099
527.8903	-0.0139
528.087	-0.0112
528.2837	-0.0045
528.4804	-0.0037
528.677	-0.0138
528.8737	-0.0077
529.0703	-0.0091
529.2669	-0.0084
529.4635	-0.0104
529.6601	-0.0038
529.8567	-0.004
530.0532	-0.0124
530.2498	0.0007
530.4463	-0.0085
530.6428	-0.0133
530.8393	-0.0078
531.0358	-0.0107
531.2322	-0.0053
531.4287	-0.0193
531.6251	-0.0066
531.8215	0.0052
532.0179	-0.0133
532.2143	-0.003
532.4107	-0.0151
532.607	-0.0043
532.8034	-0.0034
532.9997	-0.0015
533.196	-0.0045
533.3923	-0.0168
533.5886	-0.003
533.7848	0.0008
533.9811	0.0062
534.1773	-0.0032
534.3735	-0.0031
534.5697	-0.0035
534.7659	-0.0001
534.9621	-0.0034
535.1582	-0.0129
535.3544	-0.0087
535.5505	-0.0146
535.7466	-0.0055
535.9427	-0.0123
536.1387	-0.0137
536.3348	-0.0069
536.5308	0.0032
536.7269	-0.0131
536.9229	0.0035
537.1189	-0.0083
537.3148	-0.0083
537.5108	-0.0143
537.7068	-0.0041
537.9027	-0.0052
538.0986	-0.0102
538.2945	-0.0201
538.4904	-0.0092
538.6863	-0.0141
538.8821	-0.0045
539.078	-0.0088
539.2738	-0.0035
539.4696	-0.0035
539.6654	0.0033
539.8611	0.012
540.0569	-0.0081
540.2526	-0.0103
540.4484	-0.0075
540.6441	0.0072
540.8398	-0.0041
541.0355	0.003
541.2311	-0.0068
541.4268	-0.0162
541.6224	0.0027
541.818	-0.0062
542.0136	-0.0126
542.2092	-0.0038
542.4048	-0.0047
542.6003	-0.005
542.7959	-0.0079
542.9914	-0.01
543.1869	-0.0083
543.3824	-0.015
543.5779	-0.0131
543.7734	-0.0109
543.9688	-0.0097
544.1642	-0.0003
544.3596	-0.0087
544.555	-0.0046
544.7504	0.0028
544.9458	-0.0149
545.1411	-0.0073
545.3365	0.0005
545.5318	-0.0074
545.7271	-0.005
545.9224	-0.0018
546.1177	-0.0058
546.3129	0.006
546.5081	-0.0082
546.7034	-0.0016
546.8986	-0.0032
547.0938	-0.0084
547.289	-0.0092
547.4841	-0.0008
547.6793	0.0053
547.8744	-0.0067
548.0695	-0.0001
548.2646	-0.0012
548.4597	0.0054
548.6548	0
548.8498	-0.0014
549.0448	-0.0001
549.2399	-0.0079
549.4349	0.0098
549.6298	-0.0174
549.8248	-0.002
550.0198	-0.0067
550.2147	-0.0099
550.4096	-0.0023
550.6045	-0.0069
550.7994	-0.0027
550.9943	-0.0038
551.1892	0.001
551.384	0.0009
551.5788	-0.0204
551.7737	0.0052
551.9685	-0.0039
552.1632	0.0028
552.358	-0.0014
552.5528	-0.0054
552.7475	0.0016
552.9422	-0.0029
553.1369	-0.0058
553.3316	0.0017
553.5263	-0.0109
553.7209	-0.004
553.9156	-0.0067
554.1102	-0.0004
554.3048	-0.0088
554.4994	-0.0007
554.694	-0.0052
554.8885	0.0082
555.0831	-0.0039
555.2776	-0.002
555.4721	-0.006
555.6666	-0.0054
555.8611	0.0109
556.0555	-0.0073
556.25	0.0018
556.4444	-0.0097
556.6388	0.001
556.8332	0.0022
557.0276	-0.0022
557.222	-0.0028
557.4163	0.0026
557.6107	-0.009
557.805	-0.0011
557.9993	-0.0078
558.1936	0.0019
558.3879	-0.0068
558.5821	-0.0015
558.7764	-0.0012
558.9706	-0.007
559.1648	0.0022
559.359	-0.0051
559.5532	-0.0088
559.7473	-0.0054
559.9415	-0.0077
560.1356	-0.0019
560.3297	-0.0166
560.5238	-0.0131
560.7179	-0.0053
560.9119	-0.0128
561.106	-0.0194
561.3	-0.0112
561.494	0
561.688	-0.0093
561.882	-0.0133
562.076	-0.0173
562.2699	-0.0035
562.4639	-0.0004
562.6578	-0.0048
562.8517	-0.0006
563.0456	-0.001
563.2395	0.0006
563.4333	-0.0008
563.6272	0.0065
563.821	-0.0102
564.0148	-0.0022
564.2086	-0.0013
564.4024	-0.0015
564.5961	-0.0063
564.7899	0.0018
564.9836	-0.0007
565.1773	-0.0056
565.371	-0.0001
565.5647	-0.0058
565.7584	-0.0099
565.952	-0.0037
566.1456	0.0026
566.3393	-0.0052
566.5329	-0.0054
566.7264	-0.0064
566.92	-0.0032
567.1136	-0.0036
567.3071	-0.0022
567.5006	0.0017
567.6941	-0.0002
567.8876	-0.0073
568.0811	-0.0004
568.2745	-0.0077
568.468	-0.0002
568.6614	-0.001
568.8548	-0.0015
569.0482	0.001
569.2416	-0.0052
569.4349	-0.0007
569.6283	-0.0033
569.8216	-0.0021
570.0149	-0.0005
570.2082	0.0027
570.4015	0.004
570.5947	0.0028
570.788	0.0044
570.9812	0.0056
571.1744	-0.0009
571.3676	-0.0026
571.5608	0.0018
571.754	0.0041
571.9471	-0.0033
572.1402	0.0051
572.3333	-0.0007
572.5264	-0.0036
572.7195	0.002
572.9126	-0.0008
573.1057	-0.0036
573.2987	-0.0028
573.4917	0.0066
573.6847	-0.0093
573.8777	-0.002
574.0707	0.0015
574.2636	-0.0109
574.4566	-0.0053
574.6495	0.0059
574.8424	-0.0053
575.0353	-0.0063
575.2281	0.0028
575.421	-0.0065
575.6138	-0.0041
575.8067	-0.0069
575.9995	-0.0032
576.1923	-0.0013
576.385	0
576.5778	-0.0091
576.7706	-0.0008
576.9633	-0.0046
577.156	-0.0042
577.3487	-0.0059
577.5414	-0.0039
577.734	-0.002
577.9267	0.005
578.1193	-0.0151
578.3119	-0.0032
578.5045	-0.0048
578.6971	-0.0031
578.8897	-0.0019
579.0822	-0.0002
579.2747	-0.0021
579.4673	-0.0083
579.6598	-0.0058
579.8522	-0.0055
580.0447	-0.005
580.2372	-0.0109
580.4296	-0.0013
580.622	-0.0047
580.8144	0.004
581.0068	-0.0038
581.1992	-0.0159
581.3915	-0.0077
581.5839	-0.0116
581.7762	-0.0099
581.9685	-0.0059
582.1608	0
582.353	0.0004
582.5453	0.0033
582.7375	0.0016
582.9298	0.0005
583.122	-0.0021
583.3142	0.0016
583.5063	-0.0067
583.6985	-0.0052
583.8906	-0.0046
584.0827	-0.0038
584.2749	0.0028
584.4669	0.0031
584.659	0.0015
584.8511	-0.0012
585.0431	-0.0021
585.2352	0.0016
585.4272	-0.0036
585.6192	-0.0016
585.8111	-0.0046
586.0031	-0.0044
586.195	0.0017
586.387	0.0061
586.5789	0.0044
586.7708	0.0046
586.9627	0.0023
587.1545	-0.0035
587.3464	-0.0032
587.5382	-0.0025
587.73	0.0009
587.9218	0.0044
588.1136	-0.0038
588.3053	0.0078
588.4971	-0.0012
588.6888	-0.0053
588.8805	-0.0018
589.0722	0.0057
589.2639	0.0023
589.4556	-0.0063
589.6472	-0.0066
589.8389	-0.01
590.0305	-0.0094
590.2221	-0.0007
590.4137	-0.0067
590.6052	0.0071
590.7968	0.0013
590.9883	-0.0009
591.1798	0.0001
591.3713	0.0004
591.5628	-0.0029
591.7543	0.006
591.9458	-0.0025
592.1372	0.0045
592.3286	0.0038
592.52	0.0026
592.7114	-0.0024
592.9028	-0.0038
593.0941	-0.0019
593.2855	-0.0072
593.4768	-0.0068
593.6681	-0.0062
593.8594	-0.0069
594.0506	-0.0024
594.2419	0.0057
594.4331	0.0012
594.6244	0.0022
594.8156	-0.0059
595.0067	0.0073
595.1979	0.0069
595.3891	0.0024
595.5802	-0.0043
595.7713	0.0005
595.9624	-0.0088
596.1535	-0.0004
596.3446	-0.0045
596.5357	0.0019
596.7267	0.0086
596.9177	-0.0008
597.1087	-0.0067
597.2997	-0.0052
597.4907	-0.0043
597.6817	-0.008
597.8726	0.0072
598.0635	-0.0037
598.2544	0.0054
598.4453	0.0014
598.6362	-0.0015
598.827	-0.0072
599.0179	0.0042
599.2087	-0.0005
599.3995	0.0038
599.5903	-0.001
599.7811	0.001
599.9718	-0.0028
600.1626	-0.0036
600.3533	-0.0074
600.544	-0.0056
600.7347	-0.0015
600.9254	-0.0021
601.116	-0.0133
601.3067	-0.0026
601.4973	0.0045
601.6879	0.0004
601.8785	-0.0086
602.0691	0.0016
602.2596	0.0001
602.4502	0.0014
602.6407	-0.0015
602.8312	0.0025
603.0217	-0.0067
603.2122	0.0003
603.4027	-0.002
603.5931	-0.0036
603.7835	-0.0071
603.9739	0.0045
604.1643	0.0033
604.3547	-0.0079
604.5451	0.0041
604.7354	-0.0028
604.9257	-0.0005
605.116	-0.0044
605.3063	-0.004
605.4966	-0.0027
605.6869	0.0007
605.8771	0.0027
606.0673	0.0042
606.2575	0.0058
606.4477	0.007
606.6379	0.0063
606.8281	0.0009
607.0182	-0.0042
607.2083	0.0092
607.3985	-0.0081
607.5885	0.0042
607.7786	0.0037
607.9687	-0.001
608.1587	-0.0019
608.3488	-0.0031
608.5388	0.0035
608.7288	0.0002
608.9187	-0.0061
609.1087	-0.0041
609.2986	-0.004
609.4886	0.0012
609.6785	0.0015
609.8684	0.0019
610.0582	-0.0016
610.2481	0.0003
610.4379	-0.0054
610.6278	0.0003
610.8176	-0.0076
611.0074	-0.0039
611.1971	-0.0053
611.3869	0.0042
611.5766	-0.0106
611.7664	0.0063
611.9561	0.0022
612.1458	-0.0021
612.3354	-0.0071
612.5251	-0.0029
612.7147	-0.0002
612.9044	0.0046
613.094	-0.0057
613.2836	0.0033
613.4731	-0.0039
613.6627	-0.0062
613.8522	0.0015
614.0417	0.004
614.2313	-0.0006
614.4207	-0.0084
614.6102	0.0015
614.7997	-0.0074
614.9891	0.0003
615.1785	0.0043
615.3679	-0.0007
615.5573	0.01
615.7467	0.006
615.9361	-0.0067
616.1254	-0.0037
616.3147	0.0066
616.504	0.001
616.6933	0.0092
616.8826	-0.0031
617.0718	0.0051
617.2611	0.0012
617.4503	-0.0015
617.6395	-0.0036
617.8287	-0.007
618.0179	-0.0002
618.207	0.0063
618.3961	-0.0127
618.5853	-0.0044
618.7744	0.0071
618.9634	0.0038
619.1525	0.0028
619.3416	-0.002
619.5306	0.0026
619.7196	-0.0068
619.9086	-0.0049
620.0976	0.0034
620.2866	-0.0035
620.4755	0.0053
620.6645	0.0066
620.8534	0.0033
621.0423	0.0038
621.2312	0.0071
621.42	0.0036
621.6089	0.0004
621.7977	0.0028
621.9865	-0.0053
622.1753	0.0059
622.3641	-0.0038
622.5529	0.0056
622.7416	0.0032
622.9303	-0.0007
623.1191	-0.0016
623.3078	0.0022
623.4964	-0.0024
623.6851	-0.007
623.8737	-0.0026
624.0624	0.0048
624.251	-0.0118
624.4396	-0.0089
624.6282	-0.0077
624.8167	-0.013
625.0053	0.0024
625.1938	0.0033
625.3823	0.0038
625.5708	-0.0006
625.7593	-0.0049
625.9477	-0.0045
626.1362	-0.0057
626.3246	-0.0011
626.513	0.0013
626.7014	0.0035
626.8898	-0.0061
627.0781	-0.0035
627.2665	-0.0039
627.4548	0.0059
627.6431	0.0011
627.8314	0.0061
628.0197	0.0016
628.2079	-0.006
628.3962	-0.0027
628.5844	0.0049
628.7726	0
628.9608	0.0038
629.1489	0.0021
629.3371	0.0062
629.5252	0.001
629.7134	0.0078
629.9015	0.0024
630.0895	0.0023
630.2776	0.0066
630.4657	-0
630.6537	-0.0023
630.8417	0.0002
631.0297	-0.0016
631.2177	-0.0019
631.4057	-0.0086
631.5936	0.0013
631.7815	-0.0027
631.9695	0.0022
632.1574	0.0069
632.3452	0.0031
632.5331	0.0033
632.7209	-0.0001
632.9088	0.0124
633.0966	0.0051
633.2844	0.0008
633.4722	0.0021
633.6599	0.001
633.8477	0.001
634.0354	0.0051
634.2231	-0.0016
634.4108	0.0004
634.5985	0.0026
634.7861	0.0013
634.9738	-0.0034
635.1614	0.0015
635.349	-0
635.5366	0.0059
635.7242	0.0043
635.9117	0.0039
636.0993	0.0059
636.2868	0.0054
636.4743	-0.0016
636.6618	0.0067
636.8492	0.0065
637.0367	-0.001
637.2241	-0.0022
637.4115	0.001
637.5989	-0.001
637.7863	0.0034
637.9737	-0.0053
638.161	-0.0021
638.3484	0.0025
638.5357	0.008
638.723	-0
638.9103	0.0059
639.0975	0.0027
639.2848	0.0097
639.472	-0.0014
639.6592	0.0055
639.8464	0.0105
640.0336	0.0026
640.2208	0.0044
640.4079	0.0024
640.595	0.0036
640.7821	0.0018
640.9692	0.0034
641.1563	0.0062
641.3434	0.0064
641.5304	0.0078
641.7174	0.0047
641.9044	0.0069
642.0914	0.0058
642.2784	0.0044
642.4653	0.0082
642.6523	0.0065
642.8392	0.0122
643.0261	0.0005
643.213	0.0095
643.3999	-0.0015
643.5867	0.0043
643.7735	0.002
643.9604	-0.0016
644.1472	0.0013
644.3339	0.0101
644.5207	0.0038
644.7075	-0.0005
644.8942	0.0014
645.0809	0.0068
645.2676	0.0097
645.4543	-0.0013
645.6409	0.0085
645.8276	0.0081
646.0142	0.0037
646.2008	-0.0047
646.3874	-0.0035
646.574	0.0016
646.7605	0.0045
646.9471	-0.0069
647.1336	-0.0013
647.3201	0.0057
647.5066	0.0022
647.6931	0.0114
647.8795	-0.0051
648.0659	0.0031
648.2524	0.0049
648.4388	0.0006
648.6252	0.002
648.8115	0.0017
648.9979	-0.0002
649.1842	0.004
649.3705	0.003
649.5568	0.0047
649.7431	0
649.9294	-0.0074
650.1156	0.0004
650.3018	0.0007
650.488	-0.0049
650.6742	0.0047
650.8604	0.0032
651.0466	-0.006
651.2327	-0.0014
651.4188	0.0136
651.6049	0.0005
651.791	-0.0067
651.9771	0.0005
652.1632	0.0011
652.3492	-0.0002
652.5352	0.0032
652.7212	-0.0089
652.9072	0.0033
653.0932	-0.0008
653.2791	0.0037
653.465	0.0061
653.651	0.0027
653.8369	0.0006
654.0227	-0.0003
654.2086	0.0039
654.3944	0.0084
654.5803	-0
654.7661	-0.0067
654.9519	0.0015
655.1377	-0.002
655.3234	-0.0024
655.5092	-0.0012
655.6949	-0.0061
655.8806	-0.0025
656.0663	-0.0031
656.2519	0.0032
656.4376	-0.0029
656.6232	0.0014
656.8088	-0.0012
656.9945	-0.0003
657.18	-0.0004
657.3656	0.0025
657.5511	0.0015
657.7367	-0.0027
657.9222	0.0027
658.1077	0.0068
658.2932	0.0025
658.4786	-0.011
658.6641	-0.0039
658.8495	0.0029
659.0349	-0.0022
659.2203	0.0029
659.4057	0.0036
659.591	-0.0006
659.7764	0.0024
659.9617	0.0012
660.147	-0.0006
660.3323	0.0023
660.5176	0.0098
660.7028	0.0016
660.888	0.0022
661.0733	-0.0037
661.2585	-0.0137
661.4436	-0.0006
661.6288	-0.0059
661.8139	-0.0018
661.9991	0.0076
662.1842	-0.0044
662.3693	0.0039
662.5544	0.0043
662.7394	0.003
662.9245	-0.0013
663.1095	0.0015
663.2945	-0.0022
663.4795	0.0016
663.6644	0.0018
663.8494	0.0042
664.0343	-0.0039
664.2193	-0.0097
664.4042	-0.0012
664.589	-0.005
664.7739	-0.0024
664.9587	-0.0113
665.1436	-0.0038
665.3284	-0.0022
665.5132	-0.0068
665.698	-0.0028
665.8827	0.0076
666.0675	-0.0073
666.2522	-0.005
666.4369	-0.002
666.6216	0.0017
666.8063	0.0072
666.9909	-0.0026
667.1756	0.0039
667.3602	0.0042
667.5448	0.0009
667.7294	0.0093
667.9139	-0.0012
668.0985	0.0127
668.283	-0.0015
668.4675	0.0033
668.652	-0.0049
668.8365	-0.0053
669.0209	-0.001
669.2054	0.0091
669.3898	-0.0045
669.5742	0.0041
669.7586	-0.0005
669.943	-0.0019
670.1273	0.0045
670.3117	0.0008
670.496	0.0071
670.6803	0.0075
670.8646	0.0037
671.0488	0.0012
671.2331	0.0079
671.4173	0.0057
671.6015	-0.0035
671.7857	0.0011
671.9699	0.0067
672.1541	0.0047
672.3382	0.0111
672.5223	0.0065
672.7064	0.0051
672.8905	0.006
673.0746	-0.0096
673.2587	-0.0053
673.4427	0.0061
673.6267	0.0063
673.8107	0.0094
673.9947	0.0076
674.1787	0.002
674.3626	-0.0058
674.5465	0.0025
674.7304	0.0021
674.9143	0.0043
675.0982	0.009
675.2821	0.001
675.4659	0.0026
675.6497	0.0032
675.8335	-0.0006
676.0173	0.0049
676.2011	0.003
676.3849	0.0001
676.5686	-0.0026
676.7523	-0.0023
676.936	-0.0036
677.1197	0.0034
677.3034	-0.0069
677.487	0.0012
677.6706	-0.0021
677.8542	0.0059
678.0378	-0.0004
678.2214	-0.0075
678.405	-0.0059
678.5885	-0.0082
678.772	-0.0031
678.9555	-0.005
679.139	-0.0029
679.3225	0.0072
679.5059	-0.001
679.6894	-0.0009
679.8728	0.0018
680.0562	-0.0082
680.2395	-0.0019
680.4229	-0.0054
680.6062	0.0039
680.7896	-0.0041
680.9729	-0.0057
681.1562	0.0028
681.3394	0.0047
681.5227	-0.0104
681.7059	-0.0001
681.8891	-0.0051
682.0723	0.0072
682.2555	-0.0025
682.4387	-0.0048
682.6218	-0.0059
682.805	0.0068
682.9881	-0.003
683.1712	-0.0041
683.3542	-0.0023
683.5373	0.0003
683.7203	-0.0077
683.9034	-0.0062
684.0864	-0.0083
684.2694	-0.0081
684.4523	0.01
684.6353	-0.0003
684.8182	-0.0023
685.0011	-0.0065
685.184	0.0036
685.3669	-0
685.5498	0.0068
685.7326	0.0015
685.9154	-0.0028
686.0982	0.0102
686.281	0.0028
686.4638	0.0033
686.6465	-0.0056
686.8293	-0.0022
687.012	0.0043
687.1947	-0.0141
687.3774	0.0026
687.56	-0.0051
687.7427	-0.0003
687.9253	-0.0027
688.1079	-0.0003
688.2905	0.0063
688.4731	-0.0038
688.6556	-0.0067
688.8382	-0.008
689.0207	0.0013
689.2032	-0.0062
689.3857	-0.0103
689.5681	0
689.7506	-0.0081
689.933	-0.0043
690.1154	-0.0005
690.2978	-0.0066
690.4802	-0.0002
690.6626	-0.0102
690.8449	-0.0069
691.0272	0.0055
691.2095	-0.0094
691.3918	-0.0033
691.5741	0.0036
691.7563	-0.0007
691.9386	-0.0015
692.1208	-0.0033
692.303	-0.003
692.4852	-0.0047
692.6673	0.0046
692.8495	0.003
693.0316	0.0003
693.2137	-0.0015
693.3958	0.0033
693.5778	-0.001
693.7599	-0.0007
693.9419	0.0004
694.1239	0.0058
694.3059	-0.0087
694.4879	0.0065
694.6699	0.006
694.8518	0.0016
695.0337	-0.0002
695.2157	0.0064
695.3975	0.0013
695.5794	-0.0014
695.7613	0.0005
695.9431	0.0015
696.1249	0.0054
696.3067	-0.0005
696.4885	0.0039
696.6703	-0.0029
696.852	0.0073
697.0337	-0.0009
697.2154	-0.001
697.3971	0.0036
697.5788	0.0022
697.7605	0.0031
697.9421	0.0076
698.1237	0.0027
698.3053	0.0024
698.4869	-0.0053
698.6685	-0.0038
698.85	-0.0062
699.0315	0.0119
699.213	-0.0037
699.3945	-0.0009
699.576	0.0051
699.7575	0.0014
699.9389	-0.0021
700.1203	-0.0093
700.3017	-0.0098
700.4831	-0.0086
700.6645	-0.0047
700.8458	0.0025
701.0271	-0.0064
701.2084	0.0129
701.3897	0.0064
701.571	0.0036
701.7523	-0.0016
701.9335	0.0034
702.1147	0.003
702.2959	0.0089
702.4771	-0.0003
702.6583	-0.0021
702.8394	-0.0017
703.0205	0.0021
703.2016	-0.0018
703.3827	-0.0025
703.5638	0.0089
703.7449	0.0056
703.9259	0.0078
704.1069	-0.0027
704.2879	0.0026
704.4689	0.0007
704.6499	0.0063
704.8308	-0.0018
705.0117	-0.0053
705.1927	0.0041
705.3735	0.0006
705.5544	-0.0056
705.7353	-0.0033
705.9161	-0.0064
706.0969	-0.0011
706.2777	-0.0022
706.4585	-0.0063
706.6393	-0.0001
706.82	0.0006
707.0007	-0.0032
707.1815	-0.0036
707.3621	0.0053
707.5428	-0.0082
707.7235	0.0012
707.9041	-0.0015
708.0847	-0.013
708.2653	-0.0104
708.4459	-0.0044
708.6265	0.0027
708.807	-0.0008
708.9875	-0.0014
709.168	-0.0041
709.3485	-0.0012
709.529	-0.0036
709.7095	-0.0036
709.8899	-0.0022
710.0703	-0.0116
710.2507	-0.001
710.4311	-0.0035
710.6115	-0.0057
710.7918	-0.0101
710.9721	-0.0016
711.1524	-0.0016
711.3327	0.006
711.513	0.0036
711.6932	0.0012
711.8735	0.0083
712.0537	0.0031
712.2339	-0.0029
712.4141	-0.0032
712.5942	-0.0012
712.7744	0.0001
712.9545	-0.0048
713.1346	-0.0069
713.3147	-0.0048
713.4947	-0.0046
713.6748	-0.0007
713.8548	0.0011
714.0348	-0.0039
714.2148	-0.0047
714.3948	0.0073
714.5748	0.0051
714.7547	-0.0063
714.9346	0.0016
715.1145	0.0009
715.2944	-0.0058
715.4743	-0.0047
715.6541	-0.0039
715.834	0.0003
716.0138	-0.0079
716.1936	-0.0146
716.3733	-0.0021
716.5531	0.0059
716.7328	-0.0096
716.9126	-0.0067
717.0923	0.0028
717.2719	0.0037
717.4516	0.001
717.6312	0.0062
717.8109	-0.0074
717.9905	0.004
718.1701	-0.0067
718.3496	-0.0116
718.5292	-0.0045
718.7087	-0.0035
718.8882	-0.0079
719.0677	0.0024
719.2472	-0.0021
719.4267	-0.0006
719.6061	-0.0043
719.7856	0.0023
719.965	0.0078
720.1443	-0.0029
720.3237	0.0093
720.5031	0.0015
720.6824	0.008
720.8617	-0.0005
721.041	0.0008
721.2203	0.0025
721.3995	0.01
721.5788	0.0032
721.758	0.0089
721.9372	-0.0038
722.1164	-0.0018
722.2956	-0.0002
722.4747	-0.0005
722.6538	0
722.8329	0.0096
723.012	0.0053
723.1911	-0.0045
723.3702	-0.0024
723.5492	0.0053
723.7282	-0.0087
723.9072	0.0034
724.0862	-0.0048
724.2652	-0.0009
724.4441	-0.0032
724.623	-0.0103
724.8019	-0.0006
724.9808	-0.0046
725.1597	-0.0043
725.3385	0.0013
725.5174	0.0021
725.6962	-0.0068
725.875	0.0029
726.0538	0.0035
726.2325	-0.0075
726.4112	0.0024
726.59	0.0018
726.7687	-0.0083
726.9474	0.0083
727.126	0.0016
727.3047	0.0035
727.4833	0.0043
727.6619	0.0027
727.8405	-0.0101
728.0191	0.004
728.1976	0.0076
728.3762	-0.0056
728.5547	0.0043
728.7332	-0.0089
728.9116	-0.0011
729.0901	-0.0019
729.2686	-0.0062
729.447	-0.0103
729.6254	0.0017
729.8038	0.0067
729.9821	-0.0107
730.1605	0.0018
730.3388	-0.001
730.5171	0.0024
730.6954	-0
730.8737	0.0033
731.0519	-0.002
731.2302	-0.0022
731.4084	0.017
731.5866	0.0034
731.7648	-0.0059
731.9429	-0.0066
732.1211	-0.0021
732.2992	-0.0096
732.4773	0.0002
732.6554	-0.0065
732.8335	0.0013
733.0115	-0.0004
733.1896	0.0017
733.3676	-0.01
733.5456	0.0012
733.7235	-0.0008
733.9015	-0.003
734.0794	-0.004
734.2574	-0.0017
734.4353	0.0034
734.6131	0.0018
734.791	-0.007
734.9689	0.0037
735.1467	0.0041
735.3245	-0.0014
735.5023	-0.0067
735.68	-0.0107
735.8578	0.0043
736.0355	-0.0181
736.2132	-0.0035
736.3909	-0.0086
736.5686	-0.01
736.7463	-0
736.9239	-0.0137
737.1015	-0.0102
737.2791	0.0094
737.4567	0.0046
737.6343	0.0001
737.8118	-0.0012
737.9894	0.0119
738.1669	-0.0094
738.3444	-0.0072
738.5218	0.005
738.6993	-0.0014
738.8767	0.0031
739.0541	0.0016
739.2315	-0.0037
739.4089	0.0077
739.5863	-0.0013
739.7636	-0.0088
739.9409	0.0026
740.1182	0.0062
740.2955	0.0031
740.4728	0
740.65	-0.0125
740.8272	-0.0061
741.0044	-0.0081
741.1816	-0.0014
741.3588	0.001
741.5359	-0.0037
741.7131	-0.0126
741.8902	-0.0035
742.0673	-0.0024
742.2444	-0.0076
742.4214	-0.0087
742.5985	-0.0154
742.7755	-0.012
742.9525	-0.0223
743.1295	-0.0104
743.3064	-0.0023
743.4834	-0.0022
743.6603	-0.0079
743.8372	-0.0074
744.0141	-0.0073
744.191	0.0071
744.3678	-0.0109
744.5446	-0.0073
744.7215	0.0007
744.8982	-0.0059
745.075	-0.0105
745.2518	-0.0046
745.4285	-0.0057
745.6052	-0.0051
745.7819	-0.008
745.9586	-0.0074
746.1353	0.003
746.3119	-0.0063
746.4885	-0.0083
746.6651	-0.009
746.8417	-0.0004
747.0183	-0.003
747.1948	-0.0004
747.3714	-0.0106
747.5479	0.0007
747.7244	-0.0041
747.9008	0.006
748.0773	-0.002
748.2537	0.0063
748.4301	-0.0131
748.6065	0.0001
748.7829	-0.0005
748.9593	-0.0003
749.1356	0.0002
749.3119	0.0043
749.4882	-0.0167
749.6645	0.0002
749.8408	-0.0118
750.017	-0.0029
750.1933	0.0005
750.3695	-0.0074
750.5457	0.0071
750.7218	-0.0051
750.898	0.0054
751.0741	-0.0082
751.2502	0.0003
751.4263	0.0012
751.6024	-0.0026
751.7784	-0.0045
751.9545	-0.0141
752.1305	0.0004
752.3065	-0.0096
752.4825	0.0007
752.6584	-0.008
752.8344	-0.0003
753.0103	-0.0077
753.1862	-0.0053
753.3621	-0.0046
753.5379	-0.0002
753.7138	-0.0002
753.8896	0.009
754.0654	0.0069
754.2412	0.0067
754.417	0.0095
754.5927	-0.0042
754.7685	-0.0075
754.9442	0.0068
755.1199	0.0125
755.2956	0.0012
755.4712	0.0139
755.6469	-0.0042
755.8225	0.0067
755.9981	0.0045
756.1736	0.0069
756.3492	0.0027
756.5248	-0.0093
756.7003	0.0048
756.8758	0.0075
757.0513	-0.0066
757.2267	0.0004
757.4022	0.0003
757.5776	-0.0057
757.753	-0.0033
757.9284	0.0039
758.1038	0.0069
758.2791	-0.008
758.4545	-0.0112
758.6298	-0.0071
758.8051	0.0027
758.9803	-0.0053
759.1556	-0.0056
759.3308	-0.0082
759.506	0.0075
759.6812	-0.0004
759.8564	0.0063
760.0316	0.0037
760.2067	0.0089
760.3819	0.0085
760.557	0.0122
760.732	-0.0017
760.9071	-0.004
761.0821	0.004
761.2572	0.0076
761.4322	0.0022
761.6072	0.0075
761.7821	0.0034
761.9571	0.024
762.132	-0.0017
762.3069	-0.0056
762.4818	0.003
762.6567	0.0033
762.8316	0.0056
763.0064	-0.0142
763.1812	0.013
763.356	-0.0056
763.5308	-0.0027
763.7055	0.0042
763.8803	-0.0019
764.055	-0.007
764.2297	-0.0008
764.4044	-0.0119
764.579	-0.0137
764.7537	-0.0172
764.9283	-0.0094
765.1029	-0.01
765.2775	-0.0065
765.4521	-0.0104
765.6266	-0.014
765.8011	-0.0082
765.9756	0.0019
766.1501	0.0051
766.3246	-0.0057
766.4991	-0.0004
766.6735	-0.0015
766.8479	0.0033
767.0223	0.018
767.1967	0.0016
767.371	0.0045
767.5454	-0.0025
767.7197	0.0003
767.894	-0.0047
768.0683	-0.0066
768.2425	-0.0007
768.4168	-0.0104
768.591	0.002
768.7652	-0.0086
768.9394	0.0053
769.1135	-0.0024
769.2877	0.0025
769.4618	0.0048
769.6359	0.0043
769.81	0.0069
769.984	-0.004
770.1581	-0.0057
770.3321	0.0101
770.5061	0.0058
770.6801	0.0032
770.8541	0.0011
771.028	0.0162
771.202	-0.0105
771.3759	0.0049
771.5498	-0.0058
771.7236	0.0035
771.8975	-0.002
772.0713	0.0083
772.2451	-0.0013
772.4189	0.0025
772.5927	0.0099
772.7665	0.0064
772.9402	0.0028
773.1139	-0.0004
773.2876	-0.0045
773.4613	0.0122
773.635	0.0102
773.8086	-0.0082
773.9822	0.0115
774.1558	0.0024
774.3294	-0.0056
774.503	0.0014
774.6765	-0.0034
774.8501	0.0078
775.0236	0.0047
775.1971	-0.0048
775.3705	-0.0003
775.544	0.0146
775.7174	-0.0097
775.8908	-0.0078
776.0642	-0.0063
776.2376	-0.0002
776.4109	0.0016
776.5843	-0.0013
776.7576	-0.0059
776.9309	0.0111
777.1041	0.0079
777.2774	0.0109
777.4506	-0.0061
777.6238	-0.0038
777.797	0.0079
777.9702	-0.0047
778.1434	-0.0014
778.3165	-0.0147
778.4896	0.0006
778.6627	0.0098
778.8358	0.0034
779.0089	0.0009
779.1819	0.0064
779.3549	0.0187
779.5279	0.0039
779.7009	-0.001
779.8739	-0.0047
780.0468	-0.0079
780.2197	0.0147
780.3926	-0.003
780.5655	0.0079
780.7384	0.006
780.9112	0.0057
781.0841	-0.0083
781.2569	-0.0005
781.4297	0.0072
781.6024	0.0072
781.7752	0.0069
781.9479	0.0097
782.1206	0.005
782.2933	-0.0007
782.466	0.0041
782.6386	0.0067
782.8113	-0.0066
782.9839	0.0019
783.1565	0.0059
783.329	-0.0032
783.5016	0.0024
783.6741	0.0038
783.8466	-0.0047
784.0191	0.0151
784.1916	-0.004
784.3641	0.0044
784.5365	-0.0037
784.7089	-0.0072
784.8813	-0.0092
785.0537	-0.0026
785.2261	-0.0004
785.3984	-0.0189
785.5707	-0.0023
785.743	-0.0071
785.9153	-0.0001
786.0876	0.0149
786.2598	-0.0015
786.432	0.0065
786.6042	-0.0027
786.7764	-0.0116
786.9486	0.0094
787.1207	-0.0044
787.2928	0.0042
787.4649	0.0053
787.637	0.0002
787.8091	-0.0019
787.9811	0.0022
788.1532	-0.0019
788.3252	0.0189
788.4972	0.0022
788.6691	0.0052
788.8411	0.0116
789.013	-0.007
789.1849	0.0037
789.3568	0.002
789.5287	-0.0064
789.7005	0.0046
789.8723	-0.0004
790.0442	0.0139
790.2159	-0.0027
790.3877	0.0077
790.5595	-0.0133
790.7312	-0.0041
790.9029	-0.015
791.0746	0.0001
791.2463	-0.0101
791.4179	0.0034
791.5896	-0.0108
791.7612	-0.0027
791.9328	0.0043
792.1044	-0.0019
792.2759	-0.0233
792.4474	-0.0193
792.619	-0.0025
792.7905	-0.005
792.9619	0.0089
793.1334	0.0239
793.3048	-0.0017
793.4762	0.0057
793.6476	0.0066
793.819	-0.0025
793.9904	0.0052
794.1617	0.0012
794.333	0.0009
794.5043	-0.0151
794.6756	0.0025
794.8469	-0.0025
795.0181	-0.0045
795.1893	-0.0109
795.3605	-0.0014
795.5317	-0.0181
795.7029	-0.0123
795.874	0.0033
796.0452	0.0022
796.2163	-0.0112
796.3873	0.016
796.5584	0.0056
796.7294	0.0114
796.9005	0.0133
797.0715	0.0008
797.2425	-0.0147
797.4134	-0.0105
797.5844	-0.009
797.7553	-0.0061
797.9262	0.005
798.0971	-0.002
798.2679	-0.0059
798.4388	-0.02
798.6096	-0.0155
798.7804	0.0096
798.9512	-0.0128
799.122	-0.0099
799.2927	0.0094
799.4635	0.0172
799.6342	-0.0279
799.8049	-0.0084
799.9755	-0.0077
800.1462	-0.0059
800.3168	0.0042
800.4874	0.0126
800.658	0.0135
800.8286	0.0042
800.9991	0.0241
801.1696	0.0168
801.3402	0.0187
801.5106	-0.0005
801.6811	-0.005
801.8516	0.0029
802.022	-0.0026
802.1924	0.0073
802.3628	0.0205
802.5332	0.0075
802.7035	0.0285
802.8739	-0.007
803.0442	-0.0068
803.2145	0.0135
803.3847	-0.0138
803.555	0.0144
803.7252	-0.0116
803.8954	-0.0032
804.0656	-0.0197
804.2358	0.0049
804.4059	0.0116
804.5761	-0.0089
804.7462	-0.0014
804.9163	0.0016
805.0864	-0.0236
805.2564	-0.0039
805.4264	0.0072
805.5965	-0.0019
805.7665	-0.0029
805.9364	-0.0077
806.1064	0.0132
806.2763	-0.004
806.4462	0.0149
806.6161	-0.0029
806.786	0.0156
806.9559	-0.0026
807.1257	-0.007
807.2955	0.0046
807.4653	-0.0044
807.6351	-0.0056
807.8048	-0.0085
807.9746	0.0044
808.1443	-0.0159
808.314	-0.0212
808.4837	-0.0181
808.6533	-0.0123
808.8229	0.0275
808.9926	-0.0006
809.1622	-0.0058
809.3317	-0.0133
809.5013	0.0016
809.6708	0.0062
809.8403	0.0018
810.0098	0.0039
810.1793	-0.0133
810.3488	-0.0084
810.5182	-0.0196
810.6876	0.0111
810.857	-0.024
811.0264	0.0131
811.1958	-0.0045
811.3651	0.0083
811.5344	-0.009
811.7037	-0.0204
811.873	0.0031
812.0422	-0.0036
812.2115	-0.0023
812.3807	-0.0178
812.5499	-0.0044
812.7191	-0.0079
812.8882	-0.0199
813.0574	0.0009
813.2265	0.0009
813.3956	0.0116
813.5646	-0.0076
813.7337	-0.0042
813.9027	0.0226
814.0718	0.0269
814.2407	-0.0036
814.4097	-0.0272
814.5787	-0.0354
814.7476	-0.0047
814.9165	-0.0144
815.0854	-0.0034
815.2543	-0.0042
815.4232	-0.0011
815.592	0.0013
815.7608	-0.0221
815.9296	-0.0002
816.0984	0.0016
816.2671	-0.0055
816.4359	-0.0085
816.6046	0.0045
816.7733	-0.0248
816.942	-0.0222
817.1106	-0.0152
817.2793	0.0055
817.4479	-0.0017
817.6165	-0.0026
817.785	-0.0126
817.9536	-0.02
818.1221	-0.0107
818.2906	-0.0062
818.4591	-0.0041
818.6276	-0.0216
818.7961	-0.0061
818.9645	0.0041
819.1329	0.0231
819.3013	0.0174
819.4697	0.0416
819.638	0.0012
819.8064	0.0115
819.9747	0.0136
820.143	-0.0041
820.3113	-0.0187
820.4795	0.0118
820.6477	0.022
820.816	-0.0012
820.9842	0.0137
821.1523	0.0034
821.3205	0.0239
821.4886	-0.0049
821.6567	-0.0115
821.8248	0.0189
821.9929	0.0124
822.1609	0.0108
822.329	0.0526
822.497	0.0236
822.665	-0.0135
822.833	-0.0286
823.0009	0.0096
823.1688	0.0225
823.3367	0.0142
823.5046	-0.0025
823.6725	0.0228
823.8404	-0.0065
824.0082	0.0326
824.176	-0.0127
824.3438	0.0098
824.5116	-0.0102
824.6793	0.0247
824.847	-0.0109
825.0147	-0.0095
825.1824	0.0234
825.3501	0.0221
825.5177	0.0002
825.6854	-0.0096
825.853	-0.0077
826.0206	-0.0149
826.1881	0.0054
826.3557	-0.0188
826.5232	0.0112
826.6907	-0.0539
826.8582	-0.0154
827.0257	-0.0374
827.1931	-0.021
827.3605	-0.0226
827.528	0.0016
827.6953	-0.0265
827.8627	0.0111
828.03	0.0115
828.1974	-0.0086
828.3647	-0.0204
828.532	-0.0243
828.6992	0.0022
828.8665	-0.019
829.0337	0.0038
829.2009	0.0212
829.3681	0.0265
829.5352	0.0288
829.7024	-0.0151
829.8695	-0.0327
830.0366	0.0472
830.2037	-0.0158
830.3707	0.0173
830.5378	-0.0061
830.7048	0.0024
830.8718	0.0035
831.0388	-0.0366
831.2057	0.0056
831.3727	-0.0024
831.5396	-0.0225
831.7065	-0.0189
831.8734	0.047
832.0402	-0.0092
832.2071	-0.0196
832.3739	-0.0237
832.5407	0.0087
832.7075	-0.0193
832.8742	-0.0219
833.041	-0.0374
833.2077	0.0076
833.3744	0.0411
833.541	-0.0384
833.7077	0.0085
833.8743	0.0143
834.0409	0.0009
834.2075	-0.0171
834.3741	0.0191
834.5407	0.0119
834.7072	-0.0004
834.8737	0.0003
835.0402	-0.0031
835.2067	0.0155
835.3731	-0.0365
835.5395	0.0113
835.706	0.0262
835.8723	-0.0054
836.0387	0.0377
836.2051	0.0261
836.3714	-0.0451
836.5377	-0.0159
836.704	-0.0651
836.8703	0.0176
837.0365	-0.0077
837.2027	0.0003
837.3689	-0.0286
837.5351	0.0306
837.7013	0.0055
837.8674	-0.0453
838.0335	-0.0254
838.1997	0.0028
838.3657	-0.0376
838.5318	-0.036
838.6978	0.0869
838.8639	0.0899
839.0299	-0.0065
839.1958	0.0082
839.3618	-0.0022
839.5277	-0.0326
839.6937	-0.0238
839.8596	-0.0286
840.0254	0.0172
840.1913	0.0012
840.3571	0.0192
840.523	-0.0248
840.6888	-0.0278
840.8545	-0.0249
841.0203	0.021
841.186	0.0125
841.3517	0.0187
841.5174	-0.0476
841.6831	-0.0089
841.8488	0.0067
842.0144	-0.014
842.18	-0.0005
842.3456	-0.0162
842.5112	0.0453
842.6767	-0.0169
842.8422	-0.0335
843.0077	-0.0275
843.1732	-0.0459
843.3387	-0.0763
843.5042	-0.011
843.6696	0.0078
843.835	0.0284
844.0004	0.0285
844.1657	0.0004
844.3311	-0.0711
844.4964	-0.0467
844.6617	-0.041
844.827	-0.0612
844.9923	-0.0294
845.1575	0.0138
845.3227	-0.0018
845.4879	-0.0139
845.6531	-0.0733
845.8183	-0.0288
845.9834	-0.013
846.1485	-0.0604
846.3136	-0.0487
846.4787	-0.0562
846.6438	0.0731
846.8088	-0.0607
846.9738	-0.1059
847.1388	-0.0106
847.3038	-0.0534
847.4687	-0.1241
847.6337	0.0442
847.7986	-0.0151
847.9635	-0.0096
848.1284	0.0528
848.2932	0.0692
848.458	-0.0209
848.6228	0.0428
848.7876	0.0773
848.9524	-0.0588
849.1172	-0.0791
849.2819	-0.0304
849.4466	-0.0734
849.6113	-0.0636
849.7759	-0.0893
849.9406	-0.066
850.1052	-0.0071
850.2698	-0.003
850.4344	-0.0314
850.599	-0.0716
850.7635	0.0259
850.928	0.0312
851.0925	-0.0143
851.257	0.0825
851.4215	0.0067
851.5859	-0.0409
851.7503	0.0227
851.9147	0.0513
852.0791	-0.1574
852.2434	-0.0086
852.4078	0.0193
852.5721	0.1104
852.7364	-0.0092
852.9007	-0.2288
853.0649	-0.0475
853.2291	0.001
853.3934	-0.0194
853.5575	0.0753
853.7217	-0.2132
853.8859	-0.1068
854.05	-0.0171
854.2141	-0.0041
854.3782	-0.0155
854.5423	-0.0686
854.7063	0.0872
854.8703	0.1073
855.0343	-0.035
855.1983	-0.2135
855.3623	0.1388
855.5262	0.0894
855.6901	-0.0134
855.854	-0.0134
856.0179	0.1115
856.1818	0.1791
856.3456	-0.0734
856.5094	-0.1545
856.6732	-0.1211
856.837	-0.0164
857.0008	0.0185
857.1645	-0.0636
857.3282	-0.0688
857.4919	-0.0144
857.6556	0.01
857.8192	0.2194
857.9828	0.0186
858.1465	-0.0501
858.31	-0.0746
858.4736	-0.0932
858.6372	0.0268
858.8007	-0.1501
858.9642	0.0112
859.1277	0.1162
859.2911	0.0509
859.4546	-0.0073
859.618	-0.3991
859.7814	-0.0671
859.9448	0.1045
860.1081	0.1241
860.2715	0.2082
860.4348	-0.1308
860.5981	-0.0074
860.7614	0.2877
860.9246	-0.1241
861.0879	-0.0366
861.2511	0.0643
861.4143	-0.1077
861.5774	0.0662
861.7406	-0.1313
861.9037	-0.0365
862.0668	-0.1037
862.2299	-0.0183
862.393	-0.6384
862.556	-0.027
862.7191	0.0823
862.8821	0.1361
863.0451	0.603
863.208	-0.0066
863.371	0.1631
863.5339	-0.209
863.6968	0.0956
863.8597	0.2442
864.0225	-0.0935
864.1854	0.6127
864.3482	0.6163
864.511	0.0581
864.6737	0.3328
864.8365	-0.0532
864.9992	-0
865.1619	-0.1223
865.3246	-0.3181
865.4873	-0.0707
865.65	-0.1604
865.8126	-0.049
865.9752	-0.1203
866.1378	-0.0186
866.3004	0.4237
866.4629	0.505
866.6254	-0.2616
866.7879	-0.2188
866.9504	-0.224
867.1129	-0
867.2753	0.6248
867.4377	-0.0314
867.6001	-0.2714
867.7625	0.1238
867.9249	-0
868.0872	0.1235
868.2495	0.0893
868.4118	0.2257
868.5741	0.1432
868.7363	-0.3396
868.8986	-0.4105
869.0608	-0.237
869.223	0.0497
869.3851	0.0677
869.5473	-0
869.7094	0.2656
869.8715	-0
870.0336	-0
870.1957	-0.8301
870.3577	-0
870.5197	0.0214
870.6817	-0.1896
870.8437	0.0525
871.0057	-0.5405
871.1676	0.0652
871.3295	0.0101
871.4914	-0
871.6533	-0.3529
871.8151	0.2196
871.977	-0
872.1388	-0
872.3006	-0.219
872.4623	-0
872.6241	0.485
872.7858	0.7477
872.9475	-0.0326
873.1092	-0.1667
873.2709	-0
873.4325	-0
873.5941	-0.2691
873.7557	-0
873.9173	-0
874.0789	-0.493
874.2404	0.2813
874.4019	0.1518
874.5634	-0.0197
874.7249	-0.2493
874.8863	-0.1533
875.0478	0.8332
875.2092	-0
875.3706	-0
875.5319	-0.6242
875.6933	-0
875.8546	-0.2053
876.0159	-0
876.1772	-0
876.3385	-0
876.4997	-0.0384
876.6609	-0.3462
876.8221	0.0686
876.9833	-0.2035
877.1445	-0
877.3056	0.0146
877.4667	-0
877.6278	-0
877.7889	-0.981
877.9499	-0.4642
878.111	0.8381
878.272	-0
878.433	0.5311
878.5939	-0
878.7549	0.9843
878.9158	-0.1761
879.0767	-0.1712
879.2376	-0
879.3984	-0
879.5593	-0
879.7201	0.03
879.8809	0.4331
880.0417	-0.0164
880.2024	0.6041
880.3632	-0
880.5239	-0
880.6846	-0
880.8452	-2.3988
881.0059	-0
881.1665	0.3175
881.3271	0.2289
881.4877	-0
881.6483	-0.5503
881.8088	-0.2737
881.9693	0.3065
882.1298	0.3065
882.2903	0.3065
